# 
# 
# 
# 
# 
# 
# 
# 
# 
# 
# time,realtime,ref,inp,inp0,inp1,dis,state...
0.000000000000000000e+00,1.685055770202009678e+09,-0.000000000000000000e+00,1.762734952825329576e-02,0.000000000000000000e+00,3.525469905650659153e-02,-0.000000000000000000e+00,0.000000000000000000e+00,0.000000000000000000e+00
1.666666666666666644e-02,1.685055770205007076e+09,-1.989867912377870993e-06,1.762734952825329576e-02,0.000000000000000000e+00,3.525469905650659153e-02,0.000000000000000000e+00,2.434698312381975835e-06,2.913544604918395548e-04
3.333333333333333287e-02,1.685055770207981348e+09,-7.919757644119849289e-06,1.602486320750845994e-03,0.000000000000000000e+00,3.204972641501691987e-03,-1.142399897115739989e-05,7.470122285563828443e-06,3.128367418816525034e-04
5.000000000000000278e-02,1.685055770224027634e+09,-1.774150828134864571e-05,1.762734952825329576e-02,0.000000000000000000e+00,3.525469905650659153e-02,-4.964693619178685242e-05,1.506869986948892826e-05,5.981998741654190842e-04
6.666666666666666574e-02,1.685055770242012262e+09,-3.142211321506751403e-05,1.762734952825329576e-02,0.000000000000000000e+00,3.525469905650659153e-02,-1.197429639344158416e-04,2.737423346159674714e-05,8.776877833119591747e-04
8.333333333333332871e-02,1.685055770259023905e+09,-4.894283042971107336e-05,1.762734952825329576e-02,0.000000000000000000e+00,3.525469905650659153e-02,-2.255844649751789386e-04,4.428467698241021918e-05,1.150806757512447612e-03
1.000000000000000056e-01,1.685055770276009083e+09,-7.029733303044807542e-05,1.762734952825329576e-02,0.000000000000000000e+00,3.525469905650659153e-02,-3.697820664146926248e-04,6.568946343290881602e-05,1.417028095425925706e-03
1.166666666666666685e-01,1.685055770291038036e+09,-9.548894126235435941e-05,1.762734952825329576e-02,0.000000000000000000e+00,3.525469905650659153e-02,-5.536514604261689272e-04,9.146910542548960144e-05,1.675810087897130346e-03
1.333333333333333315e-01,1.685055770310032845e+09,-1.245269981336508114e-04,1.762734952825329576e-02,0.000000000000000000e+00,3.525469905650659153e-02,-7.772074323097265649e-04,1.214951598656143595e-04,1.926619735056065135e-03
1.499999999999999944e-01,1.685055770326033831e+09,-1.574224704600165367e-04,1.762734952825329576e-02,0.000000000000000000e+00,3.525469905650659153e-02,-1.039185079917799570e-03,1.556305486547020461e-04,2.168953753739235896e-03
1.666666666666666574e-01,1.685055770345027924e+09,-1.941828753553875592e-04,1.602486320750845994e-03,0.000000000000000000e+00,3.204972641501691987e-03,-1.337087792630724118e-03,1.915168578861075580e-04,2.137490753309832618e-03
1.833333333333333204e-01,1.685055770360008717e+09,-2.348066485878080823e-04,1.762734952825329576e-02,0.000000000000000000e+00,3.525469905650659153e-02,-1.667261147978655982e-03,2.290508878559191670e-04,2.365958196344598169e-03
2.000000000000000111e-01,1.685055770378015041e+09,-2.792770855060088247e-04,1.762734952825329576e-02,0.000000000000000000e+00,3.525469905650659153e-02,-2.024991485035440488e-03,2.703117426130948451e-04,2.584736642307720270e-03
2.166666666666666741e-01,1.685055770394030809e+09,-3.275559971653221468e-04,1.762734952825329576e-02,0.000000000000000000e+00,3.525469905650659153e-02,-2.404627531033931131e-03,3.151362514947678682e-04,2.793624166713036799e-03
2.333333333333333370e-01,1.685055770411006927e+09,-3.795772336186243115e-04,1.602486320750845994e-03,0.000000000000000000e+00,3.204972641501691987e-03,-2.799723096264408826e-03,3.611454345686535223e-04,2.727661037380591826e-03
2.500000000000000000e-01,1.685055770430031061e+09,-4.352402329076522983e-04,1.602486320750845994e-03,0.000000000000000000e+00,3.204972641501691987e-03,-3.203198516965046275e-03,4.060086147875723787e-04,2.656119320558102820e-03
2.666666666666666630e-01,1.685055770446038246e+09,-4.944037579536243732e-04,1.602486320750845994e-03,0.000000000000000000e+00,3.204972641501691987e-03,-3.607518221039401288e-03,4.496334695978039032e-04,2.579077267409728841e-03
2.833333333333333259e-01,1.685055770461982012e+09,-5.568799842102069644e-04,1.602486320750845994e-03,0.000000000000000000e+00,3.204972641501691987e-03,-4.004881521128511070e-03,4.919300472584373042e-04,2.496740769742801080e-03
2.999999999999999889e-01,1.685055770480028391e+09,-6.224290985600258903e-04,1.602486320750845994e-03,0.000000000000000000e+00,3.204972641501691987e-03,-4.387423507506875604e-03,5.328128854260605080e-04,2.409442311795910625e-03
3.166666666666666519e-01,1.685055770498037100e+09,-6.907545645096665717e-04,1.602486320750845994e-03,0.000000000000000000e+00,3.204972641501691987e-03,-4.747422722695717780e-03,5.722030837299088265e-04,2.317636506792980933e-03
3.333333333333333148e-01,1.685055770514038086e+09,-7.614992003170007340e-04,1.602486320750845994e-03,0.000000000000000000e+00,3.204972641501691987e-03,-5.077512153337414985e-03,6.100302734304384597e-04,2.221892219882675053e-03
3.499999999999999778e-01,1.685055770531037092e+09,-8.342422053665276161e-04,1.762734952825329576e-02,0.000000000000000000e+00,3.525469905650659153e-02,-5.370889974972114546e-03,6.484477898755320810e-04,2.387749029325601183e-03
3.666666666666666408e-01,1.685055770548028946e+09,-9.084972560374106462e-04,1.602486320750845994e-03,0.000000000000000000e+00,3.204972641501691987e-03,-5.621526433570232621e-03,6.873586981178425072e-04,2.281854119202967636e-03
3.833333333333333037e-01,1.685055770566018105e+09,-9.837117756747574583e-04,1.602486320750845994e-03,0.000000000000000000e+00,3.204972641501691987e-03,-5.824363245096420526e-03,7.244913015276492705e-04,2.174356900387401474e-03
4.000000000000000222e-01,1.685055770583019972e+09,-1.059267464309483894e-03,1.602486320750845994e-03,0.000000000000000000e+00,3.204972641501691987e-03,-5.975501941515424034e-03,7.598262568412008809e-04,2.066138351394440371e-03
4.166666666666666852e-01,1.685055770600037098e+09,-1.134482152747787100e-03,1.762734952825329576e-02,0.000000000000000000e+00,3.525469905650659153e-02,-6.072377688401580861e-03,7.955724984471885045e-04,2.222974973785981495e-03
4.333333333333333481e-01,1.685055770618038893e+09,-1.208613022875802039e-03,1.602486320750845994e-03,0.000000000000000000e+00,3.204972641501691987e-03,-6.113915244981819701e-03,8.316919221169538287e-04,2.111665068045699700e-03
4.500000000000000111e-01,1.685055770636037111e+09,-1.280861211838269257e-03,1.602486320750845994e-03,0.000000000000000000e+00,3.204972641501691987e-03,-6.100663930729369536e-03,8.659733851489057402e-04,2.002413978180772255e-03
4.666666666666666741e-01,1.685055770652039289e+09,-1.350377792519133697e-03,1.602486320750845994e-03,0.000000000000000000e+00,3.204972641501691987e-03,-6.034908701644199625e-03,8.984581686432052856e-04,1.896055488338250052e-03
4.833333333333333370e-01,1.685055770671038389e+09,-1.416271096866421331e-03,1.602486320750845994e-03,0.000000000000000000e+00,3.204972641501691987e-03,-5.920754721650396853e-03,9.292007679324926954e-04,1.793341749033970211e-03
5.000000000000000000e-01,1.685055770687038660e+09,-1.477615322469232571e-03,1.762734952825329576e-02,0.000000000000000000e+00,3.525469905650659153e-02,-5.764183137104529966e-03,9.604806462871801238e-04,1.959781310531762046e-03
5.166666666666666075e-01,1.685055770704029083e+09,-1.533460336828814134e-03,1.602486320750845994e-03,0.000000000000000000e+00,3.204972641501691987e-03,-5.573076121721472036e-03,9.923245623123710859e-04,1.861760897823727320e-03
5.333333333333333259e-01,1.685055770719034672e+09,-1.582842568390190052e-03,1.602486320750845994e-03,0.000000000000000000e+00,3.204972641501691987e-03,-5.357209651282699575e-03,1.022578159005348934e-03,1.768928578955218526e-03
5.500000000000000444e-01,1.685055770739033222e+09,-1.624796849036866820e-03,1.602486320750845994e-03,0.000000000000000000e+00,3.204972641501691987e-03,-5.128212887855462809e-03,1.051329001577281643e-03,1.681415626931542177e-03
5.666666666666666519e-01,1.685055770756029606e+09,-1.658369049813014640e-03,1.602486320750845994e-03,0.000000000000000000e+00,3.204972641501691987e-03,-4.899493497084960424e-03,1.078664973117797292e-03,1.599129535785457799e-03
5.833333333333333703e-01,1.685055770772009373e+09,-1.682629330525193959e-03,1.602486320750845994e-03,0.000000000000000000e+00,3.204972641501691987e-03,-4.686128684253556935e-03,1.104670345256257048e-03,1.521730124255286400e-03
5.999999999999999778e-01,1.685055770790008307e+09,-1.696685804970965612e-03,1.602486320750845994e-03,0.000000000000000000e+00,3.204972641501691987e-03,-4.504722209770036477e-03,1.129421473600660019e-03,1.448608397760563519e-03
6.166666666666666963e-01,1.685055770807031870e+09,-1.699698407200472047e-03,1.602486320750845994e-03,0.000000000000000000e+00,3.204972641501691987e-03,-4.373228126878286361e-03,1.152982168141174256e-03,1.378868673117925438e-03
6.333333333333333037e-01,1.685055770823030710e+09,-1.690892730764746938e-03,1.602486320750845994e-03,0.000000000000000000e+00,3.204972641501691987e-03,-4.310742467808515235e-03,1.175398796973619502e-03,1.311314441834519114e-03
6.500000000000000222e-01,1.685055770840031862e+09,-1.669573602630620686e-03,1.602486320750845994e-03,0.000000000000000000e+00,3.204972641501691987e-03,-4.337264583397837381e-03,1.196695189327634740e-03,1.244438411769720589e-03
6.666666666666666297e-01,1.685055770858029842e+09,-1.635138146595866695e-03,1.602486320750845994e-03,0.000000000000000000e+00,3.204972641501691987e-03,-4.473430309401885650e-03,1.216867410853193429e-03,1.176417123766644634e-03
6.833333333333333481e-01,1.685055770876981258e+09,-1.587088087822897129e-03,-1.442237688675220356e-02,0.000000000000000000e+00,-2.884475377350440711e-02,-4.740219584373272371e-03,1.233665128209662397e-03,8.402427985580844007e-04
6.999999999999999556e-01,1.685055770893041372e+09,-1.525041050681369241e-03,1.602486320750845994e-03,0.000000000000000000e+00,3.204972641501691987e-03,-5.158641573261929514e-03,1.247061942159807466e-03,7.675767303994212405e-04
7.166666666666666741e-01,1.685055770912019491e+09,-1.448740606551963614e-03,1.602486320750845994e-03,0.000000000000000000e+00,3.204972641501691987e-03,-5.749400752139050691e-03,1.259176095695008863e-03,6.863473363410831519e-04
7.333333333333332815e-01,1.685055770928009272e+09,-1.358064836645745494e-03,-1.442237688675220356e-02,0.000000000000000000e+00,-2.884475377350440711e-02,-6.532547777239287347e-03,1.267626114680303010e-03,3.286485729559308704e-04
7.500000000000000000e-01,1.685055770947010279e+09,-1.253033187229214522e-03,-1.442237688675220356e-02,0.000000000000000000e+00,-2.884475377350440711e-02,-7.527119290738202260e-03,1.270026522427151073e-03,-3.957677108242391986e-05
7.666666666666666075e-01,1.685055770962038517e+09,-1.133811410850792166e-03,1.602486320750845994e-03,0.000000000000000000e+00,3.204972641501691987e-03,-8.750771101580177500e-03,1.268385051278430632e-03,-1.570733796141922725e-04
7.833333333333333259e-01,1.685055770979009390e+09,-1.000714407120929187e-03,-1.442237688675220356e-02,0.000000000000000000e+00,-2.884475377350440711e-02,-1.021940941791631315e-02,1.262385320851819055e-03,-5.617700875987227194e-04
8.000000000000000444e-01,1.685055770997032642e+09,-8.542068001269865173e-04,-1.442237688675220356e-02,0.000000000000000000e+00,-2.884475377350440711e-02,-1.194682499444956782e-02,1.249457950702009563e-03,-9.883294154689427000e-04
8.166666666666666519e-01,1.685055771014981270e+09,-6.949011164345915079e-04,-1.442237688675220356e-02,0.000000000000000000e+00,-2.884475377350440711e-02,-1.394433518989019426e-02,1.229204277903341632e-03,-1.440854277280981255e-03
8.333333333333333703e-01,1.685055771032016277e+09,-5.235534575538337496e-04,-1.442237688675220356e-02,0.000000000000000000e+00,-2.884475377350440711e-02,-1.622043900404393502e-02,1.201156650439662299e-03,-1.923520247997237507e-03
8.499999999999999778e-01,1.685055771048009634e+09,-3.410565933961645169e-04,-1.442237688675220356e-02,0.000000000000000000e+00,-2.884475377350440711e-02,-1.878049017864753811e-02,1.164777660649795807e-03,-2.440522375964033000e-03
8.666666666666666963e-01,1.685055771068007708e+09,-1.484304382337210270e-04,-3.044724009425465311e-02,0.000000000000000000e+00,-6.089448018850930622e-02,-2.162639339942634339e-02,1.117246937643990136e-03,-3.260885544519577257e-03
8.833333333333333037e-01,1.685055771081007004e+09,5.319009242649099141e-05,-3.044724009425465311e-02,0.000000000000000000e+00,-6.089448018850930622e-02,-2.475632852815729326e-02,1.055724495930709548e-03,-4.119422579846495659e-03
9.000000000000000222e-01,1.685055771103008032e+09,2.625698072891397656e-04,-3.044724009425465311e-02,0.000000000000000000e+00,-6.089448018850930622e-02,-2.816450762262243113e-02,9.795409457952408347e-04,-5.020101491658978191e-03
9.166666666666666297e-01,1.685055771117019176e+09,4.783904709617854451e-04,-3.044724009425465311e-02,0.000000000000000000e+00,-6.089448018850930622e-02,-3.184096926980914399e-02,8.879626879664518800e-04,-5.966660056564585847e-03
9.333333333333333481e-01,1.685055771133029699e+09,6.992704260665752415e-04,-3.044724009425465311e-02,0.000000000000000000e+00,-6.089448018850930622e-02,-3.577141446480660431e-02,7.801963181456810599e-04,-6.962537929394835810e-03
9.499999999999999556e-01,1.685055771153028011e+09,9.237864503002698449e-04,-3.044724009425465311e-02,0.000000000000000000e+00,-6.089448018850930622e-02,-3.993708791654358020e-02,6.553941700307441571e-04,-8.010807914793202991e-03
9.666666666666666741e-01,1.685055771169028997e+09,1.150497653976715554e-03,-3.044724009425465311e-02,0.000000000000000000e+00,-6.089448018850930622e-02,-4.431470825445901762e-02,5.126610039605614556e-04,-9.114107221201581122e-03
9.833333333333332815e-01,1.685055771185008526e+09,1.377971185803995207e-03,-3.044724009425465311e-02,0.000000000000000000e+00,-6.089448018850930622e-02,-4.887645015075064991e-02,3.510618343007279553e-04,-1.027456955562516989e-02
1.000000000000000000e+00,1.685055771206007242e+09,1.604809478634099161e-03,-3.044724009425465311e-02,0.000000000000000000e+00,-6.089448018850930622e-02,-5.358998086496338797e-02,1.696308741563393424e-04,-1.149375894480108087e-02
1.016666666666666607e+00,1.685055771219009638e+09,1.829678733223149027e-03,-4.647210330175770288e-02,0.000000000000000000e+00,-9.294420660351540575e-02,-5.841855316599479930e-02,-3.483180101191012709e-05,-1.303747387742870689e-02
1.033333333333333215e+00,1.685055771237008095e+09,2.051338307186797473e-03,-4.647210330175770288e-02,0.000000000000000000e+00,-9.294420660351540575e-02,-6.332115599625257052e-02,-2.654869896630290436e-04,-1.463670634374442635e-02
1.050000000000000044e+00,1.685055771254008770e+09,2.268670648830854904e-03,-6.249696650926014896e-02,0.000000000000000000e+00,-1.249939330185202979e-01,-6.825272361943372779e-02,-5.254696786495141689e-04,-1.655588515690283730e-02
1.066666666666666652e+00,1.685055771271028757e+09,2.480711391861946998e-03,-6.249696650926014896e-02,0.000000000000000000e+00,-1.249939330185202979e-01,-7.316440334337365181e-02,-8.178520069076083716e-04,-1.852452565952197178e-02
1.083333333333333259e+00,1.685055771288029432e+09,2.686679207568657551e-03,-6.249696650926014896e-02,0.000000000000000000e+00,-1.249939330185202979e-01,-7.800388123924785477e-02,-1.143441531702576314e-03,-2.054061693053546925e-02
1.100000000000000089e+00,1.685055771304029703e+09,2.886004996305586382e-03,-6.249696650926014896e-02,0.000000000000000000e+00,-1.249939330185202979e-01,-8.271576459505128320e-02,-1.503004921828976275e-03,-2.260126572548092766e-02
1.116666666666666696e+00,1.685055771322006702e+09,3.078359990351384797e-03,-7.852182971676319179e-02,0.000000000000000000e+00,-1.570436594335263836e-01,-8.724201915198126489e-02,-1.899466371338077520e-03,-2.496753509045089928e-02
1.133333333333333304e+00,1.685055771337029934e+09,3.263682335731051421e-03,-7.852182971676319179e-02,0.000000000000000000e+00,-1.570436594335263836e-01,-9.152245848455436983e-02,-2.335630029707719355e-03,-2.736544290210321528e-02
1.149999999999999911e+00,1.685055771354981184e+09,3.442201721617364155e-03,-7.852182971676319179e-02,0.000000000000000000e+00,-1.570436594335263836e-01,-9.549528220660638556e-02,-2.811976346442948433e-03,-2.978938178409081330e-02
1.166666666666666741e+00,1.685055771374028683e+09,3.614461632613035109e-03,-9.454669292426565175e-02,0.000000000000000000e+00,-1.890933858485313035e-01,-9.909765902339510990e-02,-3.331097773082364495e-03,-3.249766622324574278e-02
1.183333333333333348e+00,1.685055771391031504e+09,3.781338811653106244e-03,-9.454669292426565175e-02,0.000000000000000000e+00,-1.890933858485313035e-01,-1.022663500124931790e-01,-3.895420865290103590e-03,-3.521356051331731712e-02
1.199999999999999956e+00,1.685055771407006741e+09,3.944059539472236607e-03,-9.454669292426565175e-02,0.000000000000000000e+00,-1.890933858485313035e-01,-1.049383669105438954e-01,-4.505002801965089093e-03,-3.792872957388915972e-02
1.216666666666666563e+00,1.685055771423032045e+09,4.104212360498210588e-03,-9.454669292426565175e-02,0.000000000000000000e+00,-1.890933858485313035e-01,-1.070516596166092710e-01,-5.159754424853869002e-03,-4.063395049334829479e-02
1.233333333333333393e+00,1.685055771440009594e+09,4.263756914528113451e-03,-9.454669292426565175e-02,0.000000000000000000e+00,-1.890933858485313035e-01,-1.085458266028450913e-01,-5.859425791693430134e-03,-4.331915445196057868e-02
1.250000000000000000e+00,1.685055771458022833e+09,4.425028568412996480e-03,-9.454669292426565175e-02,0.000000000000000000e+00,-1.890933858485313035e-01,-1.093628414563285883e-01,-6.603592522631823378e-03,-4.597347996069875431e-02
1.266666666666666607e+00,1.685055771476029873e+09,4.590738581937476095e-03,-9.454669292426565175e-02,0.000000000000000000e+00,-1.890933858485313035e-01,-1.094477883683637742e-01,-7.391643128195363004e-03,-4.858533737667904140e-02
1.283333333333333215e+00,1.685055771491982937e+09,4.763969586785828103e-03,-9.454669292426565175e-02,0.000000000000000000e+00,-1.890933858485313035e-01,-1.087495990453109379e-01,-8.222767505384694781e-03,-5.114248453231598490e-02
1.300000000000000044e+00,1.685055771508027792e+09,4.948166206509855593e-03,-9.454669292426565175e-02,0.000000000000000000e+00,-1.890933858485313035e-01,-1.072217832431982681e-01,-9.095946784712639205e-03,-5.363211318911243614e-02
1.316666666666666652e+00,1.685055771526028395e+09,5.147120698275423414e-03,-9.454669292426565175e-02,0.000000000000000000e+00,-1.890933858485313035e-01,-1.048231449316914116e-01,-1.000994470511442497e-02,-5.604094589964327133e-02
1.333333333333333259e+00,1.685055771544043303e+09,5.364953553313736405e-03,-9.454669292426565175e-02,0.000000000000000000e+00,-1.890933858485313035e-01,-1.015184759753768040e-01,-1.096330068565729357e-02,-5.835534273409444250e-02
1.350000000000000089e+00,1.685055771559007883e+09,5.606089051842358395e-03,-9.454669292426565175e-02,0.000000000000000000e+00,-1.890933858485313035e-01,-9.727921918493460940e-02,-1.195432475286559333e-02,-6.056141720203948170e-02
1.366666666666666696e+00,1.685055771577011108e+09,5.875225829096776022e-03,-1.105715561317686946e-01,0.000000000000000000e+00,-2.211431122635373892e-01,-9.208409264006214845e-02,-1.298330783239826612e-02,-6.291002826870399633e-02
1.383333333333333304e+00,1.685055771595007658e+09,6.177302571337243108e-03,-9.454669292426565175e-02,0.000000000000000000e+00,-1.890933858485313035e-01,-8.591966732152563069e-02,-1.404804524277323066e-02,-6.485306352909221694e-02
1.399999999999999911e+00,1.685055771611006737e+09,6.517459023537463397e-03,-1.105715561317686946e-01,0.000000000000000000e+00,-2.211431122635373892e-01,-7.878089031218968308e-02,-1.514612555181457480e-02,-6.691085732745018222e-02
1.416666666666666741e+00,1.685055771627028227e+09,6.900992553175385597e-03,-1.105715561317686946e-01,0.000000000000000000e+00,-2.211431122635373892e-01,-7.067154613613670089e-02,-1.627709813399175198e-02,-6.880060311640476267e-02
1.433333333333333348e+00,1.685055771643007278e+09,7.333310576356729706e-03,-1.105715561317686946e-01,0.000000000000000000e+00,-2.211431122635373892e-01,-6.160464919997622746e-02,-1.743805314235792950e-02,-7.050925153023433756e-02
1.449999999999999956e+00,1.685055771662994385e+09,7.819879212637719998e-03,-1.265964193392711545e-01,0.000000000000000000e+00,-2.531928386785423091e-01,-5.160276077918824617e-02,-1.862808152119927937e-02,-7.228920948670064517e-02
1.466666666666666563e+00,1.685055771678008080e+09,8.366168592593151848e-03,-1.265964193392711545e-01,0.000000000000000000e+00,-2.531928386785423091e-01,-4.069822455197593530e-02,-1.984602387731588743e-02,-7.385951119543815446e-02
1.483333333333333393e+00,1.685055771698028803e+09,8.977595296640539929e-03,-1.265964193392711545e-01,0.000000000000000000e+00,-2.531928386785423091e-01,-2.893331531987480831e-02,-2.108829606258908612e-02,-7.520940125448405400e-02
1.500000000000000000e+00,1.685055771714029789e+09,9.659462454130100448e-03,-1.426212825467741974e-01,0.000000000000000000e+00,-2.852425650935483947e-01,-1.636029626363007250e-02,-2.235335673846108179e-02,-7.659403355878546815e-02
1.516666666666666607e+00,1.685055771730983019e+09,1.041689807753314045e-02,-1.426212825467741974e-01,0.000000000000000000e+00,-2.852425650935483947e-01,-3.041380859176399509e-03,-2.363946375805858757e-02,-7.773563759595381040e-02
1.533333333333333215e+00,1.685055771747028589e+09,1.125479224703113644e-02,-1.426212825467741974e-01,0.000000000000000000e+00,-2.852425650935483947e-01,1.095140358434164816e-02,-2.494250714232032137e-02,-7.862709219439928399e-02
1.550000000000000044e+00,1.685055771765015602e+09,1.217773379529522165e-02,-1.586461457542766296e-01,0.000000000000000000e+00,-3.172922915085532591e-01,2.553645291168098186e-02,-2.626048384288041937e-02,-7.952761037454911253e-02
1.566666666666666652e+00,1.685055771782016754e+09,1.318994717018429595e-02,-1.586461457542766296e-01,0.000000000000000000e+00,-3.172922915085532591e-01,4.062292484394314229e-02,-2.759126104872497431e-02,-8.016388685054344487e-02
1.583333333333333259e+00,1.685055771800029039e+09,1.429523017397026259e-02,-1.746710089617797002e-01,0.000000000000000000e+00,-3.493420179235594003e-01,5.611117967181913219e-02,-2.893262909629556665e-02,-8.079851595780553064e-02
1.600000000000000089e+00,1.685055771816032648e+09,1.549689329108983743e-02,-1.746710089617797002e-01,0.000000000000000000e+00,-3.493420179235594003e-01,7.189332215149936423e-02,-3.028230680297077509e-02,-8.116179969796832872e-02
1.616666666666666696e+00,1.685055771836031199e+09,1.679770132196987259e-02,-1.746710089617797002e-01,0.000000000000000000e+00,-3.493420179235594003e-01,8.785384281198453660e-02,-3.163578458663977161e-02,-8.125527468346258053e-02
1.633333333333333304e+00,1.685055771850026846e+09,1.819981803790754124e-02,-1.746710089617797002e-01,0.000000000000000000e+00,-3.493420179235594003e-01,1.038703558496494178e-01,-3.298859516714949119e-02,-8.108247498815503163e-02
1.649999999999999911e+00,1.685055771869031668e+09,1.970475456112998763e-02,-1.746710089617797002e-01,0.000000000000000000e+00,-3.493420179235594003e-01,1.198144297533072222e-01,-3.433634741647435124e-02,-8.064899905897138233e-02
1.666666666666666741e+00,1.685055771885031700e+09,2.131332215492496782e-02,-1.906958721692821324e-01,0.000000000000000000e+00,-3.813917443385642647e-01,1.355525057809748024e-01,-3.567697455007949603e-02,-8.022742803183803562e-02
1.683333333333333348e+00,1.685055771904003382e+09,2.302559008113658559e-02,-1.906958721692821324e-01,0.000000000000000000e+00,-3.813917443385642647e-01,1.509468984084321730e-01,-3.700850744630863887e-02,-7.955837803162306432e-02
1.699999999999999956e+00,1.685055771921009779e+09,2.484084914647071568e-02,-1.906958721692821324e-01,0.000000000000000000e+00,-3.813917443385642647e-01,1.658568708998545138e-01,-3.832692254588056929e-02,-7.865394628654159837e-02
1.716666666666666563e+00,1.685055771938007593e+09,2.675758151516238054e-02,-1.906958721692821324e-01,0.000000000000000000e+00,-3.813917443385642647e-01,1.801397782226183131e-01,-3.962841594131220890e-02,-7.752838779022101778e-02
1.733333333333333393e+00,1.685055771956007004e+09,2.877343731393316312e-02,-1.906958721692821324e-01,0.000000000000000000e+00,-3.813917443385642647e-01,1.936522686518676595e-01,-4.090943913925254583e-02,-7.619809131757092346e-02
1.750000000000000000e+00,1.685055771972028494e+09,3.088521849621755910e-02,-1.906958721692821324e-01,0.000000000000000000e+00,-3.813917443385642647e-01,2.062515345954728241e-01,-4.216673425362915673e-02,-7.468153516275780057e-02
1.766666666666666607e+00,1.685055771986007214e+09,3.308887036686657124e-02,-1.906958721692821324e-01,0.000000000000000000e+00,-3.813917443385642647e-01,2.177966024259024858e-01,-4.339736828905564614e-02,-7.299922228972097193e-02
1.783333333333333215e+00,1.685055772005027056e+09,3.537948109653283463e-02,-1.906958721692821324e-01,0.000000000000000000e+00,-3.813917443385642647e-01,2.281496504412748316e-01,-4.459876617033387697e-02,-7.117359477057619288e-02
1.800000000000000044e+00,1.685055772021032095e+09,3.775128947739033597e-02,-1.906958721692821324e-01,0.000000000000000000e+00,-3.813917443385642647e-01,2.371773435016486520e-01,-4.576874217340685252e-02,-6.922892757863044477e-02
1.816666666666666652e+00,1.685055772040014982e+09,4.019770108949238807e-02,-1.906958721692821324e-01,0.000000000000000000e+00,-3.813917443385642647e-01,2.447521724061874904e-01,-4.690552941586903501e-02,-6.719120199888650724e-02
1.833333333333333259e+00,1.685055772056017637e+09,4.271131296075925121e-02,-1.906958721692821324e-01,0.000000000000000000e+00,-3.813917443385642647e-01,2.507537856988975022e-01,-4.800780707118670193e-02,-6.508795911807524481e-02
1.849999999999999867e+00,1.685055772075017452e+09,4.528394671420041956e-02,-1.906958721692821324e-01,0.000000000000000000e+00,-3.813917443385642647e-01,2.550703013213032055e-01,-4.907472498015542223e-02,-6.294813405657284644e-02
1.866666666666666696e+00,1.685055772090016127e+09,4.790669010446956672e-02,-1.906958721692821324e-01,0.000000000000000000e+00,-3.813917443385642647e-01,2.575995853746230191e-01,-5.010592534582881952e-02,-6.080187180414376585e-02
1.883333333333333304e+00,1.685055772110017061e+09,5.056994675320485716e-02,-1.906958721692821324e-01,0.000000000000000000e+00,-3.813917443385642647e-01,2.582504852159042130e-01,-5.110156121416410679e-02,-5.868032571836477584e-02
1.899999999999999911e+00,1.685055772124981880e+09,5.326349379986069360e-02,-1.906958721692821324e-01,0.000000000000000000e+00,-3.813917443385642647e-01,2.569440041950699638e-01,-5.206231146188419756e-02,-5.661543993688155502e-02
1.916666666666666741e+00,1.685055772144030809e+09,5.597654709292822217e-02,-1.746710089617797002e-01,0.000000000000000000e+00,-3.493420179235594003e-01,2.536144055449093271e-01,-5.298717867335879517e-02,-5.437484944902146872e-02
1.933333333333333348e+00,1.685055772161034346e+09,5.869783345663372870e-02,-1.586461457542766296e-01,0.000000000000000000e+00,-3.172922915085532591e-01,2.482102332643885412e-01,-5.387354524638163916e-02,-5.199574808416342758e-02
1.949999999999999956e+00,1.685055772176031113e+09,6.141566948145652655e-02,-1.426212825467741974e-01,0.000000000000000000e+00,-2.852425650935483947e-01,2.406952382869352314e-01,-5.471941334541168683e-02,-4.951531405613069509e-02
1.966666666666666563e+00,1.685055772193029404e+09,6.411804620415832712e-02,-6.249696650926014896e-02,0.000000000000000000e+00,-1.249939330185202979e-01,2.310491987978639805e-01,-5.551454898136997523e-02,-4.591097454869567940e-02
1.983333333333333393e+00,1.685055772210031033e+09,6.679271896548939769e-02,1.762734952825329576e-02,0.000000000000000000e+00,3.525469905650659153e-02,2.192686242561868448e-01,-5.624067045369861295e-02,-4.123658684662637880e-02
2.000000000000000000e+00,1.685055772229983568e+09,6.942730166231093902e-02,1.298013919807728400e-01,0.000000000000000000e+00,2.596027839615456800e-01,2.053673334816048801e-01,-5.687595761159085911e-02,-3.501515426436117157e-02
2.016666666666666607e+00,1.685055772245011568e+09,7.200936454647370588e-02,1.618511183957777322e-01,0.000000000000000000e+00,3.237022367915554644e-01,1.893768980824194481e-01,-5.740619541652969976e-02,-2.863111618478571263e-02
2.033333333333333215e+00,1.685055772262980223e+09,7.452653466629477474e-02,-1.349933466035188878e-01,-6.898381092436103312e-01,4.198514160365725556e-01,1.713469435181335654e-01,-5.787440496527734152e-02,-2.755701335412782949e-02
2.049999999999999822e+00,1.685055772280010700e+09,7.696659799866785445e-02,-1.803019652056100097e-01,-8.125050728627974950e-01,4.519011424515774755e-01,1.513453012042124679e-01,-5.833388184162525969e-02,-2.758014754446987127e-02
2.066666666666666430e+00,1.685055772295983315e+09,7.931760228143977520e-02,-2.654149155807246085e-01,-1.046830426443038808e+00,5.160005952815897023e-01,1.294580062674141330e-01,-5.880852001977882049e-02,-2.937145785487148622e-02
2.083333333333333481e+00,1.685055772313019037e+09,8.156795952730760968e-02,-5.044582293001655948e-01,-1.524917053881920781e+00,5.160005952815897023e-01,1.057891368388272357e-01,-5.934905189092073985e-02,-3.547541085808520595e-02
2.100000000000000089e+00,1.685055772330007076e+09,8.370654718264997074e-02,-8.897583073347912208e-01,-2.295517209951172255e+00,5.160005952815897023e-01,8.046049211794549516e-02,-6.004718947516061306e-02,-4.826557019412609784e-02
2.116666666666666696e+00,1.685055772345027208e+09,8.572280688781355740e-02,-9.786132232897150063e-01,-2.473227041861019604e+00,5.160005952815897023e-01,5.361110784346154179e-02,-6.097271093415922161e-02,-6.275675065923171092e-02
2.133333333333333304e+00,1.685055772365009546e+09,8.760683979971817248e-02,-1.185118813314455677e+00,-2.918287948325505976e+00,5.480503216965945112e-01,2.539660925318389106e-02,-6.217017019425780111e-02,-8.088799480015432253e-02
2.149999999999999911e+00,1.685055772381006956e+09,8.934949745339294813e-02,-1.410008246616298200e+00,-3.368066814929191022e+00,5.480503216965945112e-01,-4.011596906152642590e-03,-6.370243627706695388e-02,-1.029227261093860202e-01
2.166666666666666519e+00,1.685055772399007082e+09,9.094246716625398186e-02,-1.425734780413629776e+00,-3.399519882523854175e+00,5.480503216965945112e-01,-3.442728826147378740e-02,-6.560527762077522640e-02,-1.253559192435961256e-01
2.183333333333333126e+00,1.685055772414007425e+09,9.237835102749356042e-02,-1.551547050792283056e+00,-3.651144423281160734e+00,5.480503216965945112e-01,-6.565054602869078992e-02,-6.790059685839483494e-02,-1.500138932863260832e-01
2.200000000000000178e+00,1.685055772429980516e+09,9.365073756466030241e-02,-1.684436261379735678e+00,-3.916922844456065977e+00,5.480503216965945112e-01,-9.746902150802334852e-02,-7.062622606616547616e-02,-1.769866854600180839e-01
2.216666666666666785e+00,1.685055772447013378e+09,9.475426524002110440e-02,-2.138146761432753173e+00,-4.824343844562100969e+00,5.480503216965945112e-01,-1.296593423363915087e-01,-7.386478917848129933e-02,-2.115448907438546855e-01
2.233333333333333393e+00,1.685055772467009544e+09,9.568467700013741362e-02,-2.144437374951686071e+00,-4.836925071599966763e+00,5.480503216965945112e-01,-1.619886495407649729e-01,-7.767988338502423984e-02,-2.461702302788525976e-01
2.250000000000000000e+00,1.685055772482980967e+09,9.643886518266328589e-02,-2.165668195578084099e+00,-4.879386712852762820e+00,5.480503216965945112e-01,-1.942162550541791377e-01,-8.207466781913616560e-02,-2.811068533552784077e-01
2.266666666666666607e+00,1.685055772499005556e+09,9.701490617396167637e-02,-2.072881646173827530e+00,-4.693813614044249682e+00,5.480503216965945112e-01,-2.260954080387660436e-01,-8.703849128072566055e-02,-3.144593141305654926e-01
2.283333333333333215e+00,1.685055772517029285e+09,9.741208430890965775e-02,-1.893599160884246180e+00,-4.335248643465087426e+00,5.480503216965945112e-01,-2.573751571210676214e-01,-9.253314021827167835e-02,-3.448142371597747169e-01
2.299999999999999822e+00,1.685055772535009146e+09,9.763090460927884018e-02,-1.646990909676310455e+00,-3.809982414634210723e+00,5.160005952815897023e-01,-2.878022944970516361e-01,-9.849965285921220837e-02,-3.710942779217235588e-01
2.316666666666666430e+00,1.685055772550981283e+09,9.767309406830639029e-02,-1.628607066399208048e+00,-3.805264454495010717e+00,5.480503216965945112e-01,-3.171233668200452716e-01,-1.049020470227087082e-01,-3.971207243118812791e-01
2.333333333333333481e+00,1.685055772568008900e+09,9.754159130538138378e-02,-1.551059053512587216e+00,-3.618118702306764245e+00,5.160005952815897023e-01,-3.450867368558475090e-01,-1.117277718513341178e-01,-4.218974293227297778e-01
2.350000000000000089e+00,1.685055772586030483e+09,9.724052453497127047e-02,-1.335605540489143372e+00,-3.187211676259876558e+00,5.160005952815897023e-01,-3.714446790864006087e-01,-1.189369016180235605e-01,-4.431391365489660839e-01
2.366666666666666696e+00,1.685055772602006674e+09,9.677517791672807235e-02,-1.271614749199779348e+00,-3.091279820096153319e+00,5.480503216965945112e-01,-3.959554917763894455e-01,-1.264916729289390085e-01,-4.633772025876534695e-01
2.383333333333333304e+00,1.685055772619008303e+09,9.615194647784106041e-02,-1.122212678125128704e+00,-2.792475677946852031e+00,5.480503216965945112e-01,-4.183856074947293058e-01,-1.343634126188905931e-01,-4.811821009913661573e-01
2.399999999999999911e+00,1.685055772636981487e+09,9.537827992277940481e-02,-1.046237318618240986e+00,-2.608475232518071785e+00,5.160005952815897023e-01,-4.385116837127192579e-01,-1.425217274632440412e-01,-4.977696028525287475e-01
2.416666666666666519e+00,1.685055772655031681e+09,9.446261576822752304e-02,-6.931766348681456247e-01,-1.902353865017880841e+00,5.160005952815897023e-01,-4.561226548889084631e-01,-1.509078771162359889e-01,-5.085384413621543143e-01
2.433333333333333126e+00,1.685055772669030666e+09,9.341430236087440442e-02,-2.706208729996199547e-01,-1.089292067695834421e+00,5.480503216965945112e-01,-4.710217274024898204e-01,-1.594157142683640949e-01,-5.123913142167280110e-01
2.450000000000000178e+00,1.685055772689006805e+09,9.224351245140080535e-02,-2.250139249873581715e-01,-9.980781716713108542e-01,5.480503216965945112e-01,-4.830282988157538204e-01,-1.679825929065658086e-01,-5.156251393085781176e-01
2.466666666666666785e+00,1.685055772704010487e+09,9.096114810817391982e-02,-1.652530965574979249e-01,-8.785565148115903611e-01,5.480503216965945112e-01,-4.919797832339642407e-01,-1.765959041601491142e-01,-5.179657093848525351e-01
2.483333333333333393e+00,1.685055772721041679e+09,8.957873785748800277e-02,-6.381695356470869218e-02,-6.756842288260118679e-01,5.480503216965945112e-01,-4.977333249884656197e-01,-1.852346859056709649e-01,-5.186860989485502227e-01
2.500000000000000000e+00,1.685055772738019466e+09,8.810832703243764996e-02,6.105184770088881718e-01,7.050363587361867523e-01,5.160005952815897023e-01,-5.001673834949231789e-01,-1.937925712905857745e-01,-5.082890286717359762e-01
2.516666666666666607e+00,1.685055772755042076e+09,8.656236239848925929e-02,7.214662619732140625e-01,8.948822022498335027e-01,5.480503216965945112e-01,-4.991831729308060517e-01,-2.021631481163482513e-01,-4.962137336952666677e-01
2.533333333333333215e+00,1.685055772774032354e+09,8.495357219942631377e-02,7.828350346439045815e-01,1.017619747591214319e+00,5.480503216965945112e-01,-4.947059413304177311e-01,-2.103250431886384275e-01,-4.832496870677516765e-01
2.549999999999999822e+00,1.685055772790009737e+09,8.329484283158376801e-02,9.531239992567716035e-01,1.390247403231953394e+00,5.160005952815897023e-01,-4.866860748063207009e-01,-2.182480333129979688e-01,-4.675527315358846137e-01
2.566666666666666430e+00,1.685055772808007956e+09,8.159909340627176377e-02,1.234360748833964738e+00,1.952720902386339885e+00,5.160005952815897023e-01,-4.751000138656671923e-01,-2.258711307504579213e-01,-4.472752885156197067e-01
2.583333333333333481e+00,1.685055772824031115e+09,7.987914949924018737e-02,1.345177741210535238e+00,2.174354887139481107e+00,5.160005952815897023e-01,-4.599509701901166037e-01,-2.331416730430416473e-01,-4.252509667060290210e-01
2.600000000000000089e+00,1.685055772840031385e+09,7.814761741133349759e-02,1.425661890820345779e+00,2.303273459944097379e+00,5.480503216965945112e-01,-4.412694337785381116e-01,-2.400344885017492991e-01,-4.019516102966245730e-01
2.616666666666666696e+00,1.685055772856031895e+09,7.641676027562251117e-02,1.457450032059840028e+00,2.366849742423085434e+00,5.480503216965945112e-01,-4.191134620011397471e-01,-2.465347486845600455e-01,-3.781457406128354570e-01
2.633333333333333304e+00,1.685055772875006676e+09,7.469837734295167730e-02,1.498378921906431627e+00,2.480757248531273440e+00,5.160005952815897023e-01,-3.935687438692448969e-01,-2.526323510833377584e-01,-3.536346352467713006e-01
2.649999999999999911e+00,1.685055772892031193e+09,7.300368775980986547e-02,1.569019235771974552e+00,2.622037876262359735e+00,5.160005952815897023e-01,-3.647484346728112059e-01,-2.583110829945658993e-01,-3.278847233172237363e-01
2.666666666666666519e+00,1.685055772910009861e+09,7.134322011969730648e-02,1.807119585694277886e+00,3.066188849691961149e+00,5.480503216965945112e-01,-3.327927580628282089e-01,-2.635269060245176154e-01,-2.980967864934145339e-01
2.683333333333333126e+00,1.685055772927030802e+09,6.972670902187293185e-02,2.001821950786180526e+00,3.455593579875766430e+00,5.480503216965945112e-01,-2.978683746421083023e-01,-2.682186616043549243e-01,-2.650058046445094018e-01
2.700000000000000178e+00,1.685055772944008589e+09,6.816299980981127549e-02,2.150035817316065412e+00,3.784071039350541010e+00,5.160005952815897023e-01,-2.601675181588468111e-01,-2.723377927286595446e-01,-2.293888685342511391e-01
2.716666666666666785e+00,1.685055772959028959e+09,6.665996258636537608e-02,2.143985582440585791e+00,3.739920843184576960e+00,5.480503216965945112e-01,-2.199069024551889573e-01,-2.758635025252439421e-01,-1.937951807379101332e-01
2.733333333333333393e+00,1.685055772976981401e+09,6.522441651412867747e-02,2.132817240811339499e+00,3.749633886341089184e+00,5.160005952815897023e-01,-1.773264043899775710e-01,-2.787965617470872792e-01,-1.582706075757107922e-01
2.750000000000000000e+00,1.685055772994007587e+09,6.386206530863208775e-02,2.014053213124895159e+00,3.512105830968200948e+00,5.160005952815897023e-01,-1.326875300123447343e-01,-2.811526896244928575e-01,-1.245583849797627235e-01
2.766666666666666607e+00,1.685055773010030985e+09,6.257744471970112798e-02,1.788445710716817239e+00,3.060890826152045108e+00,5.160005952815897023e-01,-8.627167329239424087e-02,-2.829763535138195563e-01,-9.436515380002895304e-02
2.783333333333333215e+00,1.685055773029008865e+09,6.137388267365123662e-02,1.836569424537718875e+00,3.157138253793847937e+00,5.160005952815897023e-01,-3.837817869806745691e-02,-2.842877052429040319e-01,-6.308394797361696615e-02
2.799999999999999822e+00,1.685055773046029329e+09,6.025347261719024572e-02,1.875863099125427036e+00,3.235725602969264258e+00,5.160005952815897023e-01,1.067777917505761780e-02,-2.850698212219860417e-01,-3.085948402286021325e-02
2.816666666666666430e+00,1.685055773061027527e+09,5.921706046429327241e-02,1.875863099125427036e+00,3.235725602969264258e+00,5.160005952815897023e-01,6.056748388013227097e-02,-2.853124228700213427e-01,1.656960675267736549e-03
2.833333333333333481e+00,1.685055773077983141e+09,5.826424540132281449e-02,1.806105789183203303e+00,3.096210983084817236e+00,5.160005952815897023e-01,1.109511165278951467e-01,-2.850202508626291098e-01,3.331573709639382846e-02
2.850000000000000089e+00,1.685055773096008778e+09,5.739339465484268044e-02,1.795640534691127055e+00,3.043230747685659487e+00,5.480503216965945112e-01,1.614803279400517655e-01,-2.841992716538270236e-01,6.511343893144470873e-02
2.866666666666666696e+00,1.685055773113009691e+09,5.660167217251994842e-02,1.645840577100752489e+00,2.775680558919915164e+00,5.160005952815897023e-01,2.118009236800194039e-01,-2.828664628013137783e-01,9.474132175861099681e-02
2.883333333333333304e+00,1.685055773129980803e+09,5.588508101188718880e-02,1.546944137688992305e+00,2.577887680096395240e+00,5.160005952815897023e-01,2.615556407650423965e-01,-2.810507355988487443e-01,1.230672575303798366e-01
2.899999999999999911e+00,1.685055773147982836e+09,5.523851907627169017e-02,1.400054777044086318e+00,2.252059232391578014e+00,5.480503216965945112e-01,3.103869936997646350e-01,-2.787803656801898788e-01,1.493042504574518259e-01
2.916666666666666519e+00,1.685055773163028240e+09,5.465584768362802270e-02,1.371357149536209352e+00,2.194663977375824082e+00,5.480503216965945112e-01,3.579401664854265919e-01,-2.760737320753122725e-01,1.754192387862681390e-01
2.933333333333333126e+00,1.685055773181018353e+09,5.412997230406068477e-02,1.358422800060324676e+00,2.200845004839059538e+00,5.160005952815897023e-01,4.038659264626696110e-01,-2.729308988900927546e-01,2.016478843764318851e-01
2.950000000000000178e+00,1.685055773197027922e+09,5.365293465724626371e-02,1.300586043082911036e+00,2.085171490884232703e+00,5.160005952815897023e-01,4.478235352497616506e-01,-2.693564613201934743e-01,2.272136064454104709e-01
2.966666666666666785e+00,1.685055773214011431e+09,5.321601522343801655e-02,1.309546874903859459e+00,2.071043428111124296e+00,5.480503216965945112e-01,4.894836316505090656e-01,-2.653524677449022318e-01,2.531934546460253843e-01
2.983333333333333393e+00,1.685055773230008602e+09,5.280984509290619078e-02,1.249502608118147950e+00,1.950954894539701279e+00,5.480503216965945112e-01,5.285310612340466951e-01,-2.609219651428285602e-01,2.783968465331549957e-01
3.000000000000000000e+00,1.685055773250981808e+09,5.242452596011181604e-02,1.195067074246256356e+00,1.874133553210923120e+00,5.160005952815897023e-01,5.646676273373125721e-01,-2.560774145769248444e-01,3.028812076603107362e-01
3.016666666666666607e+00,1.685055773265981913e+09,5.204975696209414304e-02,1.128400278035650128e+00,1.740799960789710443e+00,5.160005952815897023e-01,5.976147385132261070e-01,-2.508328304974665190e-01,3.264035405233337017e-01
3.033333333333333215e+00,1.685055773284006119e+09,5.167496696685985186e-02,1.076744548521471945e+00,1.637488501761354076e+00,5.160005952815897023e-01,6.271159279449857182e-01,-2.452025164494404941e-01,3.491709010830819637e-01
3.049999999999999822e+00,1.685055773300030708e+09,5.128945083822307460e-02,1.058642968093426395e+00,1.601285340905263199e+00,5.160005952815897023e-01,6.529392210683988562e-01,-2.391948245044757115e-01,3.716895789574809483e-01
3.066666666666666430e+00,1.685055773316981316e+09,5.088250813967910152e-02,1.064513286182757090e+00,1.580976250668919558e+00,5.480503216965945112e-01,6.748793285871839132e-01,-2.328110903627668704e-01,3.942957217286044425e-01
3.083333333333333481e+00,1.685055773334029198e+09,5.044358269243404830e-02,9.548900071034100989e-01,1.393779418925230607e+00,5.160005952815897023e-01,6.927596432259217618e-01,-2.260663811306176108e-01,4.150118400019440768e-01
3.100000000000000089e+00,1.685055773351008177e+09,4.996240137244473134e-02,8.877817089311442755e-01,1.259562822580699182e+00,5.160005952815897023e-01,7.064340199348726479e-01,-2.189866449010665350e-01,4.345023659201599497e-01
3.116666666666666696e+00,1.685055773367028475e+09,4.942911051884387591e-02,8.645128975509385194e-01,1.180975473405282417e+00,5.480503216965945112e-01,7.157883208316360157e-01,-2.115866804931744727e-01,4.534407551519774593e-01
3.133333333333333304e+00,1.685055773384028673e+09,4.883440833184742730e-02,8.612915912315657341e-01,1.206582587181541877e+00,5.160005952815897023e-01,7.207417079256930315e-01,-2.038734528086616760e-01,4.720947491200856438e-01
3.149999999999999911e+00,1.685055773402027607e+09,4.816967166236488240e-02,9.023512736659126121e-01,1.288701952050235633e+00,5.160005952815897023e-01,7.212476686108962864e-01,-1.958461606562673651e-01,4.911274393389714610e-01
3.166666666666666519e+00,1.685055773419027805e+09,4.742707563808802596e-02,9.068970858702642968e-01,1.265743850043933971e+00,5.480503216965945112e-01,7.172947610133796337e-01,-1.875042039126146032e-01,5.098553467100460646e-01
3.183333333333333126e+00,1.685055773435008526e+09,4.659970463160476029e-02,8.166998931039417542e-01,1.117399190926293917e+00,5.160005952815897023e-01,7.089070685324146970e-01,-1.788663186808960859e-01,5.266442441722668510e-01
3.200000000000000178e+00,1.685055773454008579e+09,4.568165315468343535e-02,7.510468934044102207e-01,9.540434651122258192e-01,5.480503216965945112e-01,6.961443552915491662e-01,-1.699617681997670493e-01,5.418595478360704876e-01
3.216666666666666785e+00,1.685055773471028805e+09,4.466811535868722011e-02,7.566556263182302455e-01,9.973106573548707887e-01,5.160005952815897023e-01,6.791019167082051888e-01,-1.608073100987074955e-01,5.566343821187849095e-01
3.233333333333333393e+00,1.685055773487027884e+09,4.355546193329927485e-02,7.668101714364020660e-01,1.017619747591214319e+00,5.160005952815897023e-01,6.579101219713597848e-01,-1.514101699375106636e-01,5.709825801810507473e-01
3.250000000000000000e+00,1.685055773503007889e+09,4.234130332336676766e-02,7.501638894810908065e-01,9.522774572655869907e-01,5.480503216965945112e-01,6.327336478675541498e-01,-1.417816515021536605e-01,5.844023540348378676e-01
3.266666666666666607e+00,1.685055773519038677e+09,4.102453832551358065e-02,6.662785167657584440e-01,7.845067118349223767e-01,5.480503216965945112e-01,6.037704060931421424e-01,-1.319469104220358235e-01,5.957350950023684311e-01
3.283333333333333215e+00,1.685055773537039280e+09,3.960538728084932875e-02,6.356840888234879250e-01,7.553675823653861476e-01,5.160005952815897023e-01,5.712501689119678927e-01,-1.219335730386688771e-01,6.058373285812590492e-01
3.299999999999999822e+00,1.685055773554008007e+09,3.808540924611148598e-02,-7.812452241332028535e-01,-2.078491043547995520e+00,5.160005952815897023e-01,5.354329007392540918e-01,-1.119539145038606909e-01,5.917607979898850123e-01
3.316666666666666430e+00,1.685055773572030067e+09,3.646750270119376164e-02,-1.640401966747206730e+00,-3.828854255191008082e+00,5.480503216965945112e-01,4.966068059300963178e-01,-1.023309503923854613e-01,5.630745811981245907e-01
3.333333333333333481e+00,1.685055773588029146e+09,3.475588953445702539e-02,-2.154957951330122246e+00,-4.825916497941834749e+00,5.160005952815897023e-01,4.550861057005289312e-01,-9.325893332870191510e-02,5.256713667072812068e-01
3.350000000000000089e+00,1.685055773605031252e+09,3.295608223654675206e-02,-2.585864977377009932e+00,-5.687730550035610122e+00,5.160005952815897023e-01,4.112085596865059367e-01,-8.487071450454736210e-02,4.810388742549515650e-01
3.366666666666666696e+00,1.685055773624007463e+09,3.107483442660373407e-02,-2.763574809286857281e+00,-6.043150213855303932e+00,5.160005952815897023e-01,3.653327501275333566e-01,-7.725108765283292267e-02,4.334485464172483926e-01
3.383333333333333304e+00,1.685055773640029430e+09,2.912007502968845876e-02,-3.121055123765982042e+00,-6.790160569228557819e+00,5.480503216965945112e-01,3.178351490235544752e-01,-7.047399548369237543e-02,3.799511213357340544e-01
3.399999999999999911e+00,1.685055773659030437e+09,2.710082661874804386e-02,-3.958791377884063323e+00,-8.433583351049716015e+00,5.160005952815897023e-01,2.691069908336683469e-01,-6.470357688181264944e-02,3.126859629496810955e-01
3.416666666666666519e+00,1.685055773677016973e+09,2.502710862638708386e-02,-4.152227743591241804e+00,-8.820456082464072978e+00,5.160005952815897023e-01,2.195509753412669962e-01,-6.007851578473163978e-02,2.425162890484338640e-01
3.433333333333333126e+00,1.685055773694016218e+09,2.290982631883364123e-02,-4.310767405534121188e+00,-9.169585132764836999e+00,5.480503216965945112e-01,1.695778271817931226e-01,-5.664205727567275112e-02,1.700600042335028428e-01
3.449999999999999734e+00,1.685055773709030151e+09,2.076064660468135425e-02,-4.829255023566369154e+00,-1.017451064241432768e+01,5.160005952815897023e-01,1.196027401971558740e-01,-5.448171216778058962e-02,8.940545440279046296e-02
3.466666666666666785e+00,1.685055773725039721e+09,1.859186192206867955e-02,-4.828956694156198992e+00,-1.020596371000899261e+01,5.480503216965945112e-01,7.004173622715202663e-02,-5.366127369559091365e-02,9.269766631783332711e-03
3.483333333333333393e+00,1.685055773744010210e+09,1.641624360789543241e-02,-5.032127309551947647e+00,-1.058025521438548466e+01,5.160005952815897023e-01,2.130796915668822789e-02,-5.420015479740362269e-02,-7.370500793965828468e-02
3.500000000000000000e+00,1.685055773759007215e+09,1.424688629946796285e-02,-4.687716219390384964e+00,-9.891433034062359297e+00,5.160005952815897023e-01,-2.619199400577677112e-02,-5.606947877846331363e-02,-1.504008208485346221e-01
3.516666666666666607e+00,1.685055773776031017e+09,1.209704505078356904e-02,-4.002039345826724492e+00,-8.520079286935038354e+00,5.160005952815897023e-01,-7.206188255093638750e-02,-5.911810258404028712e-02,-2.152538841825853144e-01
3.533333333333333215e+00,1.685055773794009686e+09,9.979966960736837145e-03,-4.074381401294449923e+00,-8.664763397870490991e+00,5.160005952815897023e-01,-1.159193891069148497e-01,-6.325470278253754464e-02,-2.809556304907774305e-01
3.549999999999999822e+00,1.685055773810029984e+09,7.908719207334711718e-03,-4.032706086731521644e+00,-8.581412768744632658e+00,5.160005952815897023e-01,-1.573997612719960359e-01,-6.847723040264670769e-02,-3.455682003373935496e-01
3.566666666666666430e+00,1.685055773827029228e+09,5.896015459123629850e-03,-4.384194117101883670e+00,-9.284388829485356709e+00,5.160005952815897023e-01,-1.961592849728139576e-01,-7.482161105336972151e-02,-4.155630430545821374e-01
3.583333333333333481e+00,1.685055773844010592e+09,3.954042691264767276e-03,-4.362176969785619640e+00,-9.240354534852828650e+00,5.160005952815897023e-01,-2.318786271220577289e-01,-8.232479724743169136e-02,-4.846274501423147862e-01
3.600000000000000089e+00,1.685055773860030174e+09,2.094290468064956539e-03,-3.859714214960873413e+00,-8.235429025203336195e+00,5.160005952815897023e-01,-2.642660058841495574e-01,-9.090459063709192822e-02,-5.447806604334048952e-01
3.616666666666666696e+00,1.685055773880009651e+09,3.273847655144174348e-04,-3.875440748758204990e+00,-8.266882092797999348e+00,5.160005952815897023e-01,-2.930601578811414254e-01,-1.004847783595199939e-01,-6.046754878216326068e-01
3.633333333333333304e+00,1.685055773894008636e+09,-1.337071604028440336e-03,-4.707374386637050101e+00,-9.930749368555689571e+00,5.160005952815897023e-01,-3.180330729797870570e-01,-1.111732968623094647e-01,-6.777437603124570886e-01
3.649999999999999911e+00,1.685055773913009882e+09,-2.890649937701489283e-03,-4.552468028733333227e+00,-9.620936652748255824e+00,5.160005952815897023e-01,-3.389924688870531999e-01,-1.230510268591306633e-01,-7.473903719426423509e-01
3.666666666666666519e+00,1.685055773930039883e+09,-4.326235989549420159e-03,-4.514724347619736733e+00,-9.545449290521062835e+00,5.160005952815897023e-01,-3.557839796357942785e-01,-1.360770201674796065e-01,-8.155395174218855736e-01
3.683333333333333126e+00,1.685055773946007013e+09,-5.638157831982719241e-03,-4.427442085044545728e+00,-9.370884765370680825e+00,5.160005952815897023e-01,-3.682930341525944562e-01,-1.502190920603645174e-01,-8.813263641822863814e-01
3.699999999999999734e+00,1.685055773965033531e+09,-6.822299448043420492e-03,-4.140432843243242900e+00,-8.796866281768076945e+00,5.160005952815897023e-01,-3.764464034514412583e-01,-1.654100091749047263e-01,-9.414167678459909316e-01
3.716666666666666785e+00,1.685055773980008364e+09,-7.876198397445938193e-03,-4.231646739267767465e+00,-8.979294073817124300e+00,5.160005952815897023e-01,-3.802133975728947957e-01,-1.816072521085756175e-01,-1.002083860526331138e+00
3.733333333333333393e+00,1.685055773998008728e+09,-8.799126046565545686e-03,-3.984740158649660025e+00,-8.485480912580909418e+00,5.160005952815897023e-01,-3.796066961698068565e-01,-1.987730472264586101e-01,-1.057657179655439261e+00
3.750000000000000000e+00,1.685055774014010668e+09,-9.592149019461097131e-03,-3.661559889114494482e+00,-7.839120373510579221e+00,5.160005952815897023e-01,-3.746827996061078414e-01,-2.168120706041230528e-01,-1.106888867756451456e+00
3.766666666666666607e+00,1.685055774032040596e+09,-1.025817071216785469e-02,-3.107199572758553963e+00,-6.730399740798698183e+00,5.160005952815897023e-01,-3.655420905616115768e-01,-2.355869911686795659e-01,-1.145992974913897733e+00
3.783333333333333215e+00,1.685055774051042080e+09,-1.080195191416773171e-02,-2.826182615066013426e+00,-6.200415551828621474e+00,5.480503216965945112e-01,-3.523284993985331681e-01,-2.549676065035139105e-01,-1.179587544820139167e+00
3.799999999999999822e+00,1.685055774068029404e+09,-1.123010979720586583e-02,-2.717181534584729441e+00,-5.950363664451048251e+00,5.160005952815897023e-01,-3.352287699176693669e-01,-2.748860741312348366e-01,-1.210542582267458256e+00
3.816666666666666430e+00,1.685055774084031343e+09,-1.155109476037671778e-02,-2.597659877725008393e+00,-5.711320350731606155e+00,5.160005952815897023e-01,-3.144713255867669921e-01,-2.952968081050748039e-01,-1.238667368348814524e+00
3.833333333333333481e+00,1.685055774102007627e+09,-1.177514485932937109e-02,-2.096769776279995501e+00,-4.709540147841581259e+00,5.160005952815897023e-01,-2.903247398309955485e-01,-3.160998855749027059e-01,-1.257649199480836533e+00
3.850000000000000089e+00,1.685055774119031429e+09,-1.191421779414614766e-02,-1.502306798740859151e+00,-3.520614192763307670e+00,5.160005952815897023e-01,-2.630958175064949112e-01,-3.371308367215281043e-01,-1.266041625271667082e+00
3.866666666666666696e+00,1.685055774134018898e+09,-1.198190068232971896e-02,-1.422887803064334378e+00,-3.361776201410258125e+00,5.160005952815897023e-01,-2.331272982018434414e-01,-3.582853938071458022e-01,-1.272487319873819134e+00
3.883333333333333304e+00,1.685055774153019428e+09,-1.199329809774708072e-02,-1.179126529205693608e+00,-2.874253653692976584e+00,5.160005952815897023e-01,-2.007951954984692478e-01,-3.795083546986446343e-01,-1.274263054394056294e+00
3.899999999999999911e+00,1.685055774170030117e+09,-1.196489911058132294e-02,-1.022349188512073015e+00,-2.592748698720740652e+00,5.480503216965945112e-01,-1.665057897385228691e-01,-4.007342756657857885e-01,-1.272851383064425024e+00
3.916666666666666519e+00,1.685055774187031031e+09,-1.191442431456089628e-02,-5.854498783564237030e-01,-1.686900351994436997e+00,5.160005952815897023e-01,-1.306922951667953692e-01,-4.218715724297225078e-01,-1.263649789192542006e+00
3.933333333333333126e+00,1.685055774205011606e+09,-1.186065407316327230e-02,-4.722188350156357184e-01,-1.460438265312861139e+00,5.160005952815897023e-01,-9.381122550162286633e-02,-4.428360466645814286e-01,-1.252119149299637302e+00
3.949999999999999734e+00,1.685055774221031189e+09,-1.182323945334335866e-02,9.170516309884361172e-01,1.286052940280277612e+00,5.480503216965945112e-01,-5.633848501862148694e-02,-4.634128737020436484e-01,-1.217197103162678262e+00
3.966666666666666785e+00,1.685055774238009930e+09,-1.182249754090597404e-02,9.637200463366031311e-01,1.411439497391616671e+00,5.160005952815897023e-01,-1.876521507202229960e-02,-4.834008545840536852e-01,-1.181459875092925271e+00
3.983333333333333393e+00,1.685055774254981279e+09,-1.187919304323395431e-02,1.030076133173304820e+00,1.512101944650015239e+00,5.480503216965945112e-01,1.840657139631482822e-02,-5.027838517204890056e-01,-1.144602166213662953e+00
4.000000000000000000e+00,1.685055774274008989e+09,-1.201430828014943275e-02,1.220674188022515816e+00,1.925347780763442040e+00,5.160005952815897023e-01,5.466853242637562116e-02,-5.215263104954881435e-01,-1.104603995431182373e+00
4.016666666666666607e+00,1.685055774291008711e+09,-1.224880383984134138e-02,1.225089207639112221e+00,1.934177819996634851e+00,5.160005952815897023e-01,8.951067963616880785e-02,-5.396022354386154074e-01,-1.064618072366800394e+00
4.033333333333333215e+00,1.685055774306010008e+09,-1.260337233171892474e-02,1.279393948923248425e+00,2.042787302564907037e+00,5.160005952815897023e-01,1.224261619630910986e-01,-5.570052043055095936e-01,-1.023851434985133979e+00
4.049999999999999822e+00,1.685055774324010372e+09,-1.309818779973583383e-02,1.160629921236804085e+00,1.805259247192018579e+00,5.160005952815897023e-01,1.529161101474350026e-01,-5.737465523842462112e-01,-9.852176530499934248e-01
4.066666666666666430e+00,1.685055774340010405e+09,-1.375265346629045253e-02,1.266590392035118695e+00,2.017180188788648021e+00,5.160005952815897023e-01,1.804945003599031927e-01,-5.898308957605202796e-01,-9.450152281338022320e-01
4.083333333333333037e+00,1.685055774357007742e+09,-1.458515055663457162e-02,1.229945729217368333e+00,1.943890863153146853e+00,5.160005952815897023e-01,2.046929945208223467e-01,-6.052524705715389697e-01,-9.056830079271470657e-01
4.099999999999999645e+00,1.685055774374030828e+09,-1.561279100546241957e-02,1.298509325862368335e+00,2.048968330028142049e+00,5.480503216965945112e-01,2.250657143588998821e-01,-6.200116570365846735e-01,-8.655309041250801583e-01
4.116666666666666252e+00,1.685055774393007755e+09,-1.685117686993248959e-02,1.217142172329238603e+00,1.918283749376887615e+00,5.160005952815897023e-01,2.411939061205071178e-01,-6.341161984381601391e-01,-8.271207614160089872e-01
4.133333333333332860e+00,1.685055774410008669e+09,-1.831416926599793021e-02,1.306325568584486563e+00,2.096650541887383312e+00,5.160005952815897023e-01,2.526904530742060673e-01,-6.475719700586685112e-01,-7.876813894345224831e-01
4.150000000000000355e+00,1.685055774425008774e+09,-2.001366960712294002e-02,1.308663870980540045e+00,2.069277420264485468e+00,5.480503216965945112e-01,2.592041935621859361e-01,-6.603746435499758816e-01,-7.487475815341696483e-01
4.166666666666666963e+00,1.685055774441982985e+09,-2.195941585607431162e-02,1.366059125996293755e+00,2.184067930295993332e+00,5.480503216965945112e-01,2.604240033314152991e-01,-6.725257018579227086e-01,-7.094884710707609621e-01
4.183333333333333570e+00,1.685055774462008715e+09,-2.415879640167776371e-02,1.349151258865471936e+00,2.182301922449354503e+00,5.160005952815897023e-01,2.560826022296376903e-01,-6.840307991056034931e-01,-6.712294761381616404e-01
4.200000000000000178e+00,1.685055774477007627e+09,-2.661668404367338592e-02,1.226413713524091120e+00,1.936826831766592649e+00,5.160005952815897023e-01,2.459600470684795426e-01,-6.949218814925860466e-01,-6.357988310746363059e-01
4.216666666666666785e+00,1.685055774495031118e+09,-2.933529241095664264e-02,1.195508576207916063e+00,1.875016557134242534e+00,5.160005952815897023e-01,2.298868745291050009e-01,-7.052338354944829302e-01,-6.017302862271224351e-01
4.233333333333333393e+00,1.685055774512032270e+09,-3.231405695265498340e-02,1.214182451185376266e+00,1.880314580674158131e+00,5.480503216965945112e-01,2.077468604019568621e-01,-7.149831647248703348e-01,-5.682821351369461427e-01
4.250000000000000000e+00,1.685055774528033257e+09,-3.554954242914194068e-02,1.226986008073505996e+00,1.905921694450417370e+00,5.480503216965945112e-01,1.794793641960360231e-01,-7.241817805327542823e-01,-5.356424297912364407e-01
4.266666666666666607e+00,1.685055774545008421e+09,-3.903537859296470763e-02,1.165927944776719904e+00,1.815855294271849996e+00,5.160005952815897023e-01,1.450812312059198694e-01,-7.328540939213927796e-01,-5.051199634695539009e-01
4.283333333333333215e+00,1.685055774562007904e+09,-4.276222548986698818e-02,1.135153600048300238e+00,1.722256878400005631e+00,5.480503216965945112e-01,1.046082274648144073e-01,-7.410317560356024513e-01,-4.762796042301257193e-01
4.299999999999999822e+00,1.685055774579030991e+09,-4.671776952988689058e-02,1.025219611595048708e+00,1.502388901493503015e+00,5.480503216965945112e-01,5.817598661505821167e-02,-7.487543263222438128e-01,-4.505004406399825689e-01
4.316666666666666430e+00,1.685055774597032070e+09,-5.088675118052336105e-02,1.013740560591898099e+00,1.479430799487201798e+00,5.480503216965945112e-01,5.960451566733099109e-03,-7.560596020413281604e-01,-4.262001480515877350e-01
4.333333333333333037e+00,1.685055774614030600e+09,-5.525102482100364282e-02,9.121951094101800050e-01,1.276339897123765610e+00,5.480503216965945112e-01,-5.180220213916267302e-02,-7.629852329674139400e-01,-4.049346353376516716e-01
4.349999999999999645e+00,1.685055774628981113e+09,-5.978965097176480725e-02,9.033650701769873059e-01,1.258679818657379990e+00,5.480503216965945112e-01,-1.148161701252747025e-01,-7.695692990149529678e-01,-3.852080876225841277e-01
4.366666666666666252e+00,1.685055774647032022e+09,-6.447902077955017242e-02,8.255299323371346754e-01,1.135059269392679537e+00,5.160005952815897023e-01,-1.827271546298320781e-01,-7.758474444349955368e-01,-3.682165625740865256e-01
4.383333333333332860e+00,1.685055774663032055e+09,-6.929301229939979767e-02,8.573180735766290361e-01,1.198635551871668259e+00,5.160005952815897023e-01,-2.551240316460013369e-01,-7.818503535476625244e-01,-3.521770860959090865e-01
4.400000000000000355e+00,1.685055774680982113e+09,-7.420317777371604473e-02,8.630575990782042295e-01,1.210114602874819090e+00,5.160005952815897023e-01,-3.315410452394513263e-01,-7.875979154427755757e-01,-3.375709149701501821e-01
4.416666666666666963e+00,1.685055774700033903e+09,-7.917896076900120261e-02,9.130781133334993083e-01,1.278105904970404216e+00,5.480503216965945112e-01,-4.114605199628883492e-01,-7.931081882234418678e-01,-3.237003489666404055e-01
4.433333333333333570e+00,1.685055774716008902e+09,-8.418794169644717995e-02,8.816006814679093750e-01,1.247200767654228937e+00,5.160005952815897023e-01,-4.943160777207079026e-01,-7.984049924431226852e-01,-3.119488013511728663e-01
4.450000000000000178e+00,1.685055774733010054e+09,-8.919610991677312528e-02,9.073385878319240039e-01,1.266626853967253385e+00,5.480503216965945112e-01,-5.794963409162062762e-01,-8.035157708734850246e-01,-3.013739854722152778e-01
4.466666666666666785e+00,1.685055774751029253e+09,-9.416816031621415284e-02,8.530338465477877996e-01,1.158017371398980977e+00,5.480503216965945112e-01,-6.663490992769084409e-01,-8.084712597156615832e-01,-2.933070841755240910e-01
4.483333333333333393e+00,1.685055774766981363e+09,-9.906781194271721547e-02,8.378919872636045874e-01,1.159783379245619583e+00,5.160005952815897023e-01,-7.541859134403987586e-01,-8.133076378730854650e-01,-2.870756047877134343e-01
4.500000000000000000e+00,1.685055774784009218e+09,-1.038581460126617728e-01,9.085323011291477346e-01,1.301064006976705656e+00,5.160005952815897023e-01,-8.422871242304277306e-01,-8.180434304435505455e-01,-2.812357259356029759e-01
4.516666666666666607e+00,1.685055774802011013e+09,-1.085019603419490331e-01,9.660583487326565022e-01,1.384066375768718604e+00,5.480503216965945112e-01,-9.299072326003947619e-01,-8.226868549134839226e-01,-2.759897828634652051e-01
4.533333333333333215e+00,1.685055774818008900e+09,-1.129621370241430112e-01,9.835876346112871760e-01,1.451174673940984539e+00,5.160005952815897023e-01,-1.016280611503196818e+00,-8.272530803516361386e-01,-2.719684403735114775e-01
4.549999999999999822e+00,1.685055774834011078e+09,-1.172020199753520536e-01,1.013609768004142708e+00,1.511218940726696047e+00,5.160005952815897023e-01,-1.100627507499333246e+00,-8.317603422081042419e-01,-2.689114741752965387e-01
4.566666666666666430e+00,1.685055774851032019e+09,-1.211857987932534186e-01,1.038023168483178438e+00,1.527996015269762475e+00,5.480503216965945112e-01,-1.182160286771056557e+00,-8.362249662147318574e-01,-2.668491354734668919e-01
4.583333333333333037e+00,1.685055774869035959e+09,-1.248788952383832335e-01,1.018466289582399043e+00,1.520931983883208272e+00,5.160005952815897023e-01,-1.260089877400568881e+00,-8.406689676407272938e-01,-2.664321938444408899e-01
4.599999999999999645e+00,1.685055774885030985e+09,-1.282483485415739088e-01,1.037892375895423269e+00,1.559784156509256947e+00,5.160005952815897023e-01,-1.333632357323911055e+00,-8.451135522110461151e-01,-2.669166089645968465e-01
4.616666666666666252e+00,1.685055774905012369e+09,-1.312631956738207206e-01,9.837184271990423445e-01,1.419386532701490067e+00,5.480503216965945112e-01,-1.402015635313762276e+00,-8.495830711243452793e-01,-2.694187101865430645e-01
4.633333333333332860e+00,1.685055774920006275e+09,-1.338948426852582529e-01,9.815109173907441420e-01,1.414971513084893662e+00,5.480503216965945112e-01,-1.464486170698586998e+00,-8.541028794970821902e-01,-2.729484893689368974e-01
4.650000000000000355e+00,1.685055774937012196e+09,-1.361174232292277630e-01,1.052592733217946774e+00,1.557135144739298926e+00,5.480503216965945112e-01,-1.520315676310353137e+00,-8.586789233312995817e-01,-2.761678279195929342e-01
4.666666666666666963e+00,1.685055774955031633e+09,-1.379081404361916507e-01,1.034360360202146056e+00,1.552720125122702521e+00,5.160005952815897023e-01,-1.568807748386520151e+00,-8.633173941650306160e-01,-2.804368135556014607e-01
4.683333333333333570e+00,1.685055774971009016e+09,-1.392475883906292289e-01,1.100274945077188260e+00,1.652499568457781898e+00,5.480503216965945112e-01,-1.609304366845235590e+00,-8.680229143827313809e-01,-2.842151170340347921e-01
4.700000000000000178e+00,1.685055774988981485e+09,-1.401200495917972744e-01,1.111753996080339091e+00,1.675457670464083559e+00,5.480503216965945112e-01,-1.641192209516508571e+00,-8.727937033363996067e-01,-2.882682983043027281e-01
4.716666666666666785e+00,1.685055775006007910e+09,-1.405137649456697224e-01,1.069680517134917519e+00,1.623360438988245447e+00,5.160005952815897023e-01,-1.663908724550349660e+00,-8.776404343101162908e-01,-2.933253707875099203e-01
4.733333333333333393e+00,1.685055775023979902e+09,-1.404211730394538116e-01,1.075420042636493045e+00,1.634839489991396277e+00,5.160005952815897023e-01,-1.676947906337590055e+00,-8.825717595720135034e-01,-2.984195099206309876e-01
4.750000000000000000e+00,1.685055775040018797e+09,-1.398391156902897836e-01,1.092327909767314642e+00,1.636605497838034884e+00,5.480503216965945112e-01,-1.679865721867637829e+00,-8.875853512348494956e-01,-3.031982151261337632e-01
4.766666666666666607e+00,1.685055775057016850e+09,-1.387690070342607884e-01,1.052592733217946774e+00,1.557135144739298926e+00,5.480503216965945112e-01,-1.672285136502573266e+00,-8.926823691554749418e-01,-3.084294039269186993e-01
4.783333333333333215e+00,1.685055775073014736e+09,-1.372169637284102184e-01,9.681350659531995362e-01,1.420269536624809481e+00,5.160005952815897023e-01,-1.653900690658654193e+00,-8.978749770880174452e-01,-3.146662230728004550e-01
4.799999999999999822e+00,1.685055775090039968e+09,-1.351938941744603717e-01,9.466322624196323865e-01,1.345214203142670151e+00,5.480503216965945112e-01,-1.624482581839299389e+00,-9.031695773078366463e-01,-3.206691281766423929e-01
4.816666666666666430e+00,1.685055775108027458e+09,-1.327155450354454425e-01,1.027427121403347021e+00,1.506803921110099642e+00,5.480503216965945112e-01,-1.583880209839574338e+00,-9.085466293756878642e-01,-3.245662942493950376e-01
4.833333333333333037e+00,1.685055775127981186e+09,-1.298025037022434991e-01,1.060850477901724709e+00,1.605700360521859826e+00,5.160005952815897023e-01,-1.532025146718783537e+00,-9.139763172350263698e-01,-3.269895175370074458e-01
4.849999999999999645e+00,1.685055775142011404e+09,-1.264801557724402059e-01,1.029945340585549651e+00,1.543890085889509711e+00,5.160005952815897023e-01,-1.468933497288623435e+00,-9.194416118352355394e-01,-3.288406922151828615e-01
4.866666666666666252e+00,1.685055775158979416e+09,-1.227785970253833653e-01,9.743160934164346587e-01,1.432631591551279504e+00,5.160005952815897023e-01,-1.394707620360252642e+00,-9.249349350857958285e-01,-3.303538944136861777e-01
4.883333333333332860e+00,1.685055775176009417e+09,-1.187324998105704216e-01,9.570975169117084125e-01,1.398194438541827234e+00,5.160005952815897023e-01,-1.309537185801669557e+00,-9.304438838242147236e-01,-3.307189401567666165e-01
4.900000000000000355e+00,1.685055775192986012e+09,-1.143809342075756408e-01,9.673828546176356236e-01,1.386715387538676625e+00,5.480503216965945112e-01,-1.213699547540909807e+00,-9.359442084796586458e-01,-3.293238937167106140e-01
4.916666666666666963e+00,1.685055775209011793e+09,-1.097671447601819006e-01,9.435417486880147697e-01,1.339033175679435139e+00,5.480503216965945112e-01,-1.107559417972489468e+00,-9.414101078634021791e-01,-3.265916221543749831e-01
4.933333333333333570e+00,1.685055775228008747e+09,-1.049382840308353826e-01,9.404512349563972640e-01,1.332852148216199906e+00,5.480503216965945112e-01,-9.915678347429071060e-01,-9.468152528184315964e-01,-3.220384205291207946e-01
4.950000000000000178e+00,1.685055775245010376e+09,-9.994510465957724688e-02,9.325041996465236460e-01,1.316958077596452892e+00,5.480503216965945112e-01,-8.662604165622923569e-01,-9.521289300955455559e-01,-3.156206802006029655e-01
4.966666666666666785e+00,1.685055775261029005e+09,-9.484161203965851827e-02,8.268544382221135747e-01,1.137708281162637558e+00,5.160005952815897023e-01,-7.322549104693749644e-01,-9.573326149457450640e-01,-3.088403365545245305e-01
4.983333333333333393e+00,1.685055775277009487e+09,-8.968468013579063147e-02,9.738745914547748406e-01,1.431748587627960090e+00,5.160005952815897023e-01,-5.902480388174851100e-01,-9.623843100160642816e-01,-2.973948656069171914e-01
5.000000000000000000e+00,1.685055775297984600e+09,-8.453363336601768530e-02,1.011974552745259492e+00,1.475898783793924363e+00,5.480503216965945112e-01,-4.410116601046987217e-01,-9.672209531026582097e-01,-2.830421743096472320e-01
5.016666666666666607e+00,1.685055775313029289e+09,-7.892276912649374976e-02,1.086457591677984169e+00,1.656914588074378525e+00,5.160005952815897023e-01,-2.853882635908926435e-01,-9.717885846528342420e-01,-2.651233872913530409e-01
5.033333333333333215e+00,1.685055775330007315e+09,-7.351259049482168628e-02,1.229945729217368333e+00,1.943890863153146853e+00,5.160005952815897023e-01,-1.234613757503351117e-01,-9.760178606288104630e-01,-2.424527054242595625e-01
5.049999999999999822e+00,1.685055775347006083e+09,-6.836211721476749548e-02,1.228179721370729727e+00,1.940358847459869640e+00,5.160005952815897023e-01,4.078237913069160392e-02,-9.798499816854012723e-01,-2.174712160259784643e-01
5.066666666666666430e+00,1.685055775364007711e+09,-6.352928852552072736e-02,1.293522011696356833e+00,2.071043428111124296e+00,5.160005952815897023e-01,2.062856298388733856e-01,-9.832373105398218849e-01,-1.890870931459706916e-01
5.083333333333333037e+00,1.685055775379030704e+09,-5.907047115876646465e-02,1.314714105856019666e+00,2.113427616430449962e+00,5.160005952815897023e-01,3.719731572496010052e-01,-9.861296792022118396e-01,-1.580832700984869943e-01
5.099999999999999645e+00,1.685055775397008657e+09,-5.503997765416472621e-02,1.271005411651715322e+00,2.026010228021840831e+00,5.160005952815897023e-01,5.367598092656233888e-01,-9.884928763960391107e-01,-1.255906525560374354e-01
5.116666666666666252e+00,1.685055775414010286e+09,-5.148959936160439621e-02,1.335906200015682721e+00,2.155811804749776073e+00,5.160005952815897023e-01,6.995585271713724573e-01,-9.902875678912852475e-01,-8.987154894100705949e-02
5.133333333333332860e+00,1.685055775431008816e+09,-4.846815837420202777e-02,1.497495917983112435e+00,2.478991240684634612e+00,5.160005952815897023e-01,8.592884216330654024e-01,-9.914474937081636519e-01,-4.943188413052564123e-02
5.150000000000000355e+00,1.685055775451029301e+09,-4.602108247138468611e-02,1.533257576877543382e+00,2.550514558473497395e+00,5.160005952815897023e-01,1.014882836062905858e+00,-9.919125804618872388e-01,-6.497790494461259947e-03
5.166666666666666963e+00,1.685055775466008663e+09,-4.419000694812673380e-02,1.561955204385420348e+00,2.607909813489250883e+00,5.160005952815897023e-01,1.165297335042883020e+00,-9.916432900104966697e-01,3.868712804461988536e-02
5.183333333333333570e+00,1.685055775481010914e+09,-4.301240696635789951e-02,1.552372953816663514e+00,2.556695585936732407e+00,5.480503216965945112e-01,1.309517555967971481e+00,-9.906085622833032955e-01,8.535057548050370424e-02
5.200000000000000178e+00,1.685055775499030113e+09,-4.252126379003139806e-02,1.593743345624914598e+00,2.671486095968239383e+00,5.160005952815897023e-01,1.446566863018781568e+00,-9.887779121929893833e-01,1.341917622009179967e-01
5.216666666666666785e+00,1.685055775516031027e+09,-4.274476795890444492e-02,1.716039389004635929e+00,2.916078182727682044e+00,5.160005952815897023e-01,1.575513744001356464e+00,-9.861052864950060615e-01,1.863783553863679332e-01
5.233333333333333393e+00,1.685055775534027338e+09,-4.370606212063385398e-02,1.647165082985731388e+00,2.778329570689873407e+00,5.160005952815897023e-01,1.695478892486597999e+00,-9.825630355895680346e-01,2.385468374054687257e-01
5.250000000000000000e+00,1.685055775552029610e+09,-4.542302587955834858e-02,1.696302593317707164e+00,2.844554864938819705e+00,5.480503216965945112e-01,1.805641920029772862e+00,-9.781365128508010542e-01,2.924860565558263792e-01
5.266666666666666607e+00,1.685055775567981482e+09,-4.790810463690935855e-02,1.609326706870757517e+00,2.670603092044920412e+00,5.480503216965945112e-01,1.905247646031724695e+00,-9.728167087983166095e-01,3.457424917183833379e-01
5.283333333333333215e+00,1.685055775586012363e+09,-5.116818399485201230e-02,1.672019985426427047e+00,2.795989649156259471e+00,5.480503216965945112e-01,1.993611915999245365e+00,-9.665957891545455816e-01,4.006154370983735502e-01
5.299999999999999822e+00,1.685055775602033377e+09,-5.520451087953197333e-02,1.738245279675373123e+00,2.928440237654152067e+00,5.480503216965945112e-01,2.070126902544074277e+00,-9.594481841408974976e-01,4.569407017883828637e-01
5.316666666666666430e+00,1.685055775620029688e+09,-6.001266211015913316e-02,1.717363894889614828e+00,2.918727194497640287e+00,5.160005952815897023e-01,2.134265847404208660e+00,-9.513636296336310805e-01,5.130499763193469009e-01
5.333333333333333037e+00,1.685055775635009289e+09,-6.558256070620513412e-02,1.532946867503639066e+00,2.517843413310683953e+00,5.480503216965945112e-01,2.185587207043166558e+00,-9.423700536318838639e-01,5.660319682267132002e-01
5.349999999999999645e+00,1.685055775655008316e+09,-7.189853978714069727e-02,1.537672596494139787e+00,2.559344597706690205e+00,5.160005952815897023e-01,2.223738168952555494e+00,-9.324948401808980103e-01,6.188469341998389384e-01
5.366666666666666252e+00,1.685055775671015501e+09,-7.893945348301062426e-02,1.649061883420125163e+00,2.750073445143655704e+00,5.480503216965945112e-01,2.248457510612451138e+00,-9.217278727347855138e-01,6.730386233209360025e-01
5.383333333333332860e+00,1.685055775688015938e+09,-8.667883384364996613e-02,1.566501016589771922e+00,2.584951711482949666e+00,5.480503216965945112e-01,2.259577778116711233e+00,-9.100750628643552442e-01,7.251537933622804744e-01
5.400000000000000355e+00,1.685055775705017328e+09,-9.508509231362920200e-02,1.539880106302438101e+00,2.563759617323286388e+00,5.160005952815897023e-01,2.257026766706022425e+00,-8.975648942402402186e-01,7.759254059549731686e-01
5.416666666666666963e+00,1.685055775721031904e+09,-1.041217639330629940e-01,1.403456000149608141e+00,2.290911405017626912e+00,5.160005952815897023e-01,2.240828290829635527e+00,-8.842366249805626577e-01,8.233352082116163206e-01
5.433333333333333570e+00,1.685055775738008261e+09,-1.137477920351083471e-01,1.414935051152759193e+00,2.313869507023928129e+00,5.160005952815897023e-01,2.211102236835090551e+00,-8.701272609006427405e-01,8.696597989314939214e-01
5.450000000000000178e+00,1.685055775756029367e+09,-1.239178508430093528e-01,1.368577345178496385e+00,2.221154095075403401e+00,5.160005952815897023e-01,2.168063896921093026e+00,-8.552645661107738384e-01,9.137411248432848465e-01
5.466666666666666785e+00,1.685055775773009062e+09,-1.345827030264229451e-01,1.368708137766251332e+00,2.189365953835908485e+00,5.480503216965945112e-01,2.112022588538551737e+00,-8.396809934787780039e-01,9.561697309830357039e-01
5.483333333333333393e+00,1.685055775790029526e+09,-1.456895889617181306e-01,1.316038611740998787e+00,2.116076628200407761e+00,5.160005952815897023e-01,2.043379568945169478e+00,-8.234128934207026740e-01,9.958919339363965229e-01
5.500000000000000000e+00,1.685055775807006598e+09,-1.571826441569782462e-01,1.281732251319301685e+00,2.015414180942009192e+00,5.480503216965945112e-01,1.962625260066773514e+00,-8.065041353342858876e-01,1.033055801039747479e+00
5.516666666666666607e+00,1.685055775826029301e+09,-1.690033410521900592e-01,1.287340984233121821e+00,2.058681373184654273e+00,5.160005952815897023e-01,1.870335804150939252e+00,-7.889930849393934631e-01,1.068172697117922620e+00
5.533333333333333215e+00,1.685055775840029001e+09,-1.810909511909932768e-01,1.380187188769402384e+00,2.212324055842210146e+00,5.480503216965945112e-01,1.767168975873644410e+00,-7.709030287961075034e-01,1.102538577052020852e+00
5.549999999999999822e+00,1.685055775858033419e+09,-1.933830235842807221e-01,1.402572996226288948e+00,2.289145397170988083e+00,5.160005952815897023e-01,1.653859481537200526e+00,-7.522575130447374248e-01,1.134833602596708957e+00
5.566666666666666430e+00,1.685055775875029564e+09,-2.058158749496424300e-01,1.298378533274612945e+00,2.080756471267636076e+00,5.160005952815897023e-01,1.531213680738452876e+00,-7.331095387630810478e-01,1.162845498548603640e+00
5.583333333333333037e+00,1.685055775893008947e+09,-2.183250874152278254e-01,1.352241772597089442e+00,2.188482949912589515e+00,5.160005952815897023e-01,1.400103770352961741e+00,-7.135092379146902308e-01,1.189117623416046987e+00
5.599999999999999645e+00,1.685055775907031536e+09,-2.308460092230573690e-01,1.298067823900708850e+00,2.048085326104823078e+00,5.480503216965945112e-01,1.261461474838954544e+00,-6.935013289133644676e-01,1.211768536060382262e+00
5.616666666666666252e+00,1.685055775924031019e+09,-2.433142539554479233e-01,1.389769439338159218e+00,2.263538283394729067e+00,5.160005952815897023e-01,1.116271290680958650e+00,-6.731264211244573081e-01,1.233160973771793678e+00
5.633333333333332860e+00,1.685055775944008112e+09,-2.556661938391649458e-01,1.254228337108648672e+00,1.992456078935707531e+00,5.160005952815897023e-01,9.655633362381808027e-01,-6.524374643037351706e-01,1.249468544840185436e+00
5.650000000000000355e+00,1.685055775960981131e+09,-2.678394427547227674e-01,1.308974580354444583e+00,2.101948565427299354e+00,5.160005952815897023e-01,8.104058613091915664e-01,-6.314928358911484629e-01,1.263846923788659371e+00
5.666666666666666963e+00,1.685055775977009296e+09,-2.797733246921865757e-01,1.276434227779386088e+00,2.004818133862177554e+00,5.480503216965945112e-01,6.518974733483661188e-01,-6.103369415256659769e-01,1.274829891108639313e+00
5.683333333333333570e+00,1.685055775994031191e+09,-2.914093235486833744e-01,1.229504227255708626e+00,1.943007859229827439e+00,5.160005952815897023e-01,4.911591394517532683e-01,-5.890281979317475436e-01,1.282198870293178583e+00
5.700000000000000178e+00,1.685055776010009289e+09,-3.026915103550313901e-01,1.195950078169575770e+00,1.875899561057561726e+00,5.160005952815897023e-01,3.293260249502025228e-01,-5.676246428115080400e-01,1.286216583558268622e+00
5.716666666666666785e+00,1.685055776029016733e+09,-3.135669442475428892e-01,1.163278933006762106e+00,1.810557270731934398e+00,5.160005952815897023e-01,1.675392306975040657e-01,-5.461815393596989310e-01,1.286953782834863835e+00
5.733333333333333393e+00,1.685055776044040203e+09,-3.239860437638292234e-01,1.068045301876034303e+00,1.588040282055474206e+00,5.480503216965945112e-01,6.937491904459691661e-03,-5.247615871845601188e-01,1.283450210556066562e+00
5.750000000000000000e+00,1.685055776062030077e+09,-3.339029253357284066e-01,9.963911914994167951e-01,1.476781787717243999e+00,5.160005952815897023e-01,-1.513510983523962961e-01,-5.034313037661295454e-01,1.276203928690086364e+00
5.766666666666666607e+00,1.685055776079010963e+09,-3.432757061754090344e-01,9.619540384899644136e-01,1.407907481698339236e+00,5.160005952815897023e-01,-3.062172780351231083e-01,-4.822469375228333188e-01,1.265948508454370902e+00
5.783333333333333215e+00,1.685055776097007275e+09,-3.520667690990253451e-01,8.939627363943793981e-01,1.271924877507168983e+00,5.160005952815897023e-01,-4.565786552529095821e-01,-4.612622374473906994e-01,1.252253543064619556e+00
5.799999999999999822e+00,1.685055776113009214e+09,-3.602429872026561841e-01,-2.737661797590861812e-01,-1.095582681214766874e+00,5.480503216965945112e-01,-6.013875365545674478e-01,-4.406851836151606250e-01,1.217090593960495237e+00
5.816666666666666430e+00,1.685055776130010843e+09,-3.677759066939585431e-01,-6.428517267166842242e-01,-1.801704048714958040e+00,5.160005952815897023e-01,-7.396384850469800432e-01,-4.207593957804882656e-01,1.174123302596428386e+00
5.833333333333333037e+00,1.685055776149006367e+09,-3.746418865862272130e-01,-1.187776122794225842e+00,-2.891552840870041496e+00,5.160005952815897023e-01,-8.703755511050988991e-01,-4.016371175031134833e-01,1.120698496420731605e+00
5.849999999999999645e+00,1.685055776166031837e+09,-3.808221943754503402e-01,-1.485495608843490078e+00,-3.519041539383574779e+00,5.480503216965945112e-01,-9.926991210072066973e-01,-3.834558901575912948e-01,1.061214023577697896e+00
5.866666666666666252e+00,1.685055776183030844e+09,-3.863030572413954089e-01,-1.976949790010104291e+00,-4.501949901716803204e+00,5.480503216965945112e-01,-1.105772331820964904e+00,-3.663413522927382870e-01,9.927207836823270792e-01
5.883333333333332860e+00,1.685055776199008942e+09,-3.910756687367347162e-01,-2.195548609793014361e+00,-4.939147541282623344e+00,5.480503216965945112e-01,-1.208827004259106497e+00,-3.504033350465123320e-01,9.200431728685658506e-01
5.900000000000000355e+00,1.685055776218009949e+09,-3.951361513495612043e-01,-2.720814838623891507e+00,-5.989679998944377637e+00,5.480503216965945112e-01,-1.301169048989467392e+00,-3.357518774088924518e-01,8.383586504373899961e-01
5.916666666666666963e+00,1.685055776235008478e+09,-3.984854757402852554e-01,-3.041934457499627875e+00,-6.599869510280845120e+00,5.160005952815897023e-01,-1.382183305995538847e+00,-3.225060891030524513e-01,7.513775660732971984e-01
5.933333333333333570e+00,1.685055776249981165e+09,-4.011293378598527193e-01,-3.265739234701432903e+00,-7.079528791099460427e+00,5.480503216965945112e-01,-1.451337781005688443e+00,-3.107384353439343050e-01,6.609919620523937445e-01
5.950000000000000178e+00,1.685055776270006895e+09,-4.030779955485234711e-01,-3.881433032866966837e+00,-8.310916387430529184e+00,5.480503216965945112e-01,-1.508187247709486201e+00,-3.005576162250941930e-01,5.609841382572794410e-01
5.966666666666666785e+00,1.685055776285009384e+09,-4.043460665893714445e-01,-4.197834691603503643e+00,-8.911669978488596655e+00,5.160005952815897023e-01,-1.552376189418700925e+00,-2.920795859926402782e-01,4.566692600077887909e-01
5.983333333333333393e+00,1.685055776304030895e+09,-4.049522905445949172e-01,-4.434220695843174909e+00,-9.416491713382944440e+00,5.480503216965945112e-01,-1.583641058971970716e+00,-2.853626971135489465e-01,3.496546752151117321e-01
6.000000000000000000e+00,1.685055776322010994e+09,-4.049192570322896478e-01,-4.819032776598104029e+00,-1.015406614847779920e+01,5.160005952815897023e-01,-1.601811840983704993e+00,-2.804702639339022863e-01,2.377481650757682918e-01
6.016666666666666607e+00,1.685055776335981369e+09,-4.042731034034028892e-01,-4.752195007959445050e+00,-1.002039061120048125e+01,5.160005952815897023e-01,-1.606812905958850513e+00,-2.774189417571947258e-01,1.287133776670891516e-01
6.033333333333333215e+00,1.685055776355009556e+09,-4.030431850503197189e-01,-4.931477493249026622e+00,-1.037895558177964261e+01,5.160005952815897023e-01,-1.598663151292651463e+00,-2.761934430362003590e-01,1.865220153706687034e-02
6.049999999999999822e+00,1.685055776370031118e+09,-4.012617218173389344e-01,-4.688502546080251854e+00,-9.893005687442093077e+00,5.160005952815897023e-01,-1.577475429705594845e+00,-2.767506092665238393e-01,-8.522359849570707024e-02
6.066666666666666430e+00,1.685055776389029741e+09,-3.989634241870280151e-01,-4.885870545236763007e+00,-1.028774168575511538e+01,5.160005952815897023e-01,-1.543455271184746014e+00,-2.790472531386498090e-01,-1.900823848972729435e-01
6.083333333333333037e+00,1.685055776405007601e+09,-3.961851030831558540e-01,-5.176811420487398507e+00,-1.086962343625638638e+01,5.160005952815897023e-01,-1.496898909970243885e+00,-2.831108148139220848e-01,-2.972473287296280575e-01
6.099999999999999645e+00,1.685055776423008680e+09,-3.929652672591591456e-01,-5.154794273171134478e+00,-1.082558914162385832e+01,5.160005952815897023e-01,-1.438190633497571813e+00,-2.889345073750725357e-01,-4.013067179462893597e-01
6.116666666666666252e+00,1.685055776440007687e+09,-3.893437123297355251e-01,-5.135922432614337119e+00,-1.078784546051026361e+01,5.160005952815897023e-01,-1.367799475439105183e+00,-2.964658213051643565e-01,-5.021707691504215809e-01
6.133333333333332860e+00,1.685055776456029177e+09,-3.853611055514779005e-01,-5.191751627594864082e+00,-1.089950385047131753e+01,5.160005952815897023e-01,-1.286275280042856739e+00,-3.056607223559659747e-01,-6.009429832269153060e-01
6.150000000000000355e+00,1.685055776472029686e+09,-3.810585704661422213e-01,-5.030554656172214756e+00,-1.057710990762601888e+01,5.160005952815897023e-01,-1.194244169801296662e+00,-3.164532085182234500e-01,-6.938971441642163285e-01
6.166666666666666963e+00,1.685055776490016937e+09,-3.764772754872335869e-01,-4.648399884897055578e+00,-9.812800365075700526e+00,5.160005952815897023e-01,-1.092403453061863594e+00,-3.287152421227081400e-01,-7.773151661923802802e-01
6.183333333333333570e+00,1.685055776507981777e+09,-3.716580304376101984e-01,-4.524160267898135857e+00,-9.564321131077861082e+00,5.160005952815897023e-01,-9.815160124769957140e-01,-3.423235784889880340e-01,-8.554681011656859457e-01
6.200000000000000178e+00,1.685055776527038097e+09,-3.666408949335944745e-01,-4.239510006166432809e+00,-8.995020607614454988e+00,5.160005952815897023e-01,-8.624042191519077916e-01,-3.571679014326050727e-01,-9.256556819773745781e-01
6.216666666666666785e+00,1.685055776542027712e+09,-3.614648023609003391e-01,-4.079885688123517262e+00,-8.675771971528623894e+00,5.160005952815897023e-01,-7.359434209520808734e-01,-3.731328088270632892e-01,-9.899545930675096583e-01
6.233333333333333393e+00,1.685055776559028387e+09,-3.561672030011880929e-01,-3.496431284242512483e+00,-7.508863163766614335e+00,5.160005952815897023e-01,-6.030550566514474298e-01,-3.900615421214316814e-01,-1.041350632121373909e+00
6.250000000000000000e+00,1.685055776576029539e+09,-3.507837296472151034e-01,-3.249524703624405486e+00,-7.015050002530400342e+00,5.160005952815897023e-01,-4.646994504115481428e-01,-4.077865646146549561e-01,-1.085529345528749801e+00
6.266666666666666607e+00,1.685055776596032143e+09,-3.453478887916783813e-01,-2.885455446216178110e+00,-6.286911487713945590e+00,5.160005952815897023e-01,-3.218683434598902382e-01,-4.261717836808073812e-01,-1.120599522957198557e+00
6.283333333333333215e+00,1.685055776612007141e+09,-3.398907801926055461e-01,-2.216291433139715661e+00,-4.948583461561021579e+00,5.160005952815897023e-01,-1.755772217638817689e-01,-4.450240307235918125e-01,-1.141611753496140746e+00
6.299999999999999822e+00,1.685055776630028725e+09,-3.344408473094184764e-01,-1.793247673991494873e+00,-4.102495943264579559e+00,5.160005952815897023e-01,-2.685749996018158003e-02,-4.641446071316427946e-01,-1.152826263320617661e+00
6.316666666666666430e+00,1.685055776645030975e+09,-3.290236607718126649e-01,-1.540836806544321647e+00,-3.597674208370233107e+00,5.160005952815897023e-01,1.232513772120768514e-01,-4.833949468551031470e-01,-1.157202347419361343e+00
6.333333333333333037e+00,1.685055776665006399e+09,-3.236617366916760274e-01,-1.105998147048101288e+00,-2.727996889377792389e+00,5.160005952815897023e-01,2.737098542214755348e-01,-5.026367753540826877e-01,-1.151831990467492295e+00
6.349999999999999645e+00,1.685055776681030273e+09,-3.183743912600889292e-01,-8.394333991833299313e-01,-2.194867393648249454e+00,5.160005952815897023e-01,4.234861430254143189e-01,-5.217323344285194064e-01,-1.139668885662354247e+00
6.366666666666666252e+00,1.685055776699011803e+09,-3.131776326906946517e-01,-6.467833601660171183e-01,-1.809567315613624050e+00,5.160005952815897023e-01,5.715639990178225105e-01,-5.405797935567697721e-01,-1.122075082553240399e+00
6.383333333333332860e+00,1.685055776715033531e+09,-3.080840911812673388e-01,-5.028855759204324816e-01,-1.521771747122454554e+00,5.160005952815897023e-01,7.169503342879318675e-01,-5.590964966311338102e-01,-1.099990633506084725e+00
6.400000000000000355e+00,1.685055776732007504e+09,-3.031029871710926304e-01,-1.584744857588694100e-01,-8.329495667993284114e-01,5.160005952815897023e-01,8.586826092578656588e-01,-5.771810295056704065e-01,-1.070235965239898279e+00
6.416666666666666963e+00,1.685055776748031378e+09,-2.982401377767874839e-01,2.580002976407948512e-01,0.000000000000000000e+00,5.160005952815897023e-01,9.958359456521902464e-01,-5.946972935799144100e-01,-1.031822430444104599e+00
6.433333333333333570e+00,1.685055776765980959e+09,-2.934980008973465115e-01,2.580002976407948512e-01,0.000000000000000000e+00,5.160005952815897023e-01,1.127529906084673295e+00,-6.115604481352953092e-01,-9.918671058266325113e-01
6.450000000000000178e+00,1.685055776782006264e+09,-2.888757560945258707e-01,6.242050378203370942e-01,7.324094803590845970e-01,5.160005952815897023e-01,1.252934888307916994e+00,-6.276952978829337670e-01,-9.444465906435232094e-01
6.466666666666666785e+00,1.685055776799009323e+09,-2.843694209809457529e-01,6.767437712578346920e-01,8.374869472340797927e-01,5.160005952815897023e-01,1.371278085337066521e+00,-6.430227531585710476e-01,-8.949854377579709030e-01
6.483333333333333393e+00,1.685055776818037033e+09,-2.799720014892714826e-01,7.019093830724344452e-01,8.878181708632792990e-01,5.160005952815897023e-01,1.481848966205025375e+00,-6.575139394931340808e-01,-8.440982789354501969e-01
6.500000000000000000e+00,1.685055776836030722e+09,-2.756736740551076759e-01,8.061038460241103376e-01,1.096207096766631084e+00,5.160005952815897023e-01,1.584004236004874056e+00,-6.711355339457060198e-01,-7.906415497823952032e-01
6.516666666666666607e+00,1.685055776851014614e+09,-2.714619974271675340e-01,9.712255796848170419e-01,1.426450564088044271e+00,5.160005952815897023e-01,1.677172238093040502e+00,-6.838378912753169114e-01,-7.337992288231532934e-01
6.533333333333333215e+00,1.685055776867017984e+09,-2.673221515240802870e-01,1.058201466131766910e+00,1.600402336981944007e+00,5.160005952815897023e-01,1.760856765832883752e+00,-6.955771559771118939e-01,-6.750756602552807628e-01
6.549999999999999822e+00,1.685055776887006998e+09,-2.632372004906897711e-01,1.043631901396998574e+00,1.571263207512407556e+00,5.160005952815897023e-01,1.834640256014133941e+00,-7.063376268077722342e-01,-6.163439868011014733e-01
6.566666666666666430e+00,1.685055776903034210e+09,-2.591883768706012003e-01,1.105442176029348689e+00,1.694883756777107564e+00,5.160005952815897023e-01,1.898186341053290427e+00,-7.161100341792921986e-01,-5.565111041448709273e-01
6.583333333333333037e+00,1.685055776920010328e+09,-2.551553836083012006e-01,1.234360748833964738e+00,1.952720902386339885e+00,5.160005952815897023e-01,1.951241742222580289e+00,-7.248683566513972609e-01,-4.946594068218234108e-01
6.599999999999999645e+00,1.685055776937008381e+09,-2.511167104253768656e-01,1.346502247095514360e+00,2.177003898909438906e+00,5.160005952815897023e-01,1.993637491430277020e+00,-7.325830157270178944e-01,-4.312757521041062359e-01
6.616666666666666252e+00,1.685055776954009295e+09,-2.470499609828845089e-01,1.388444933453180319e+00,2.260889271624770824e+00,5.160005952815897023e-01,2.025289474440793214e+00,-7.392398702069047367e-01,-3.677233241593198532e-01
6.633333333333332860e+00,1.685055776971010923e+09,-2.429321871469561911e-01,1.417142560961057063e+00,2.318284526640524756e+00,5.160005952815897023e-01,2.046198293836492432e+00,-7.448394437802385859e-01,-3.044014030060269160e-01
6.649999999999999467e+00,1.685055776989011526e+09,-2.387402266181951893e-01,1.324868650974191597e+00,2.133736706666793825e+00,5.160005952815897023e-01,2.056448455441285184e+00,-7.494037272174169928e-01,-2.434818344619238684e-01
6.666666666666666963e+00,1.685055777007008314e+09,-2.344510401677790956e-01,1.384029913836583914e+00,2.252059232391578014e+00,5.160005952815897023e-01,2.056206887306475828e+00,-7.529529607357631216e-01,-1.825953209245267106e-01
6.683333333333333570e+00,1.685055777023007154e+09,-2.300420447445750138e-01,1.401689992302969756e+00,2.287379389324350143e+00,5.160005952815897023e-01,2.045720805658247432e+00,-7.554948378280962329e-01,-1.225965971995066350e-01
6.700000000000000178e+00,1.685055777039018631e+09,-2.254914387776233153e-01,1.384029913836583914e+00,2.252059232391578014e+00,5.160005952815897023e-01,2.025314947382980346e+00,-7.570502809315141635e-01,-6.421873974242935101e-02
6.716666666666666785e+00,1.685055777058029413e+09,-2.207785160964449711e-01,1.330166674514107417e+00,2.144332753746625020e+00,5.160005952815897023e-01,1.995388193638645502e+00,-7.576523960384328182e-01,-8.190710166298187378e-03
6.733333333333333393e+00,1.685055777074038982e+09,-2.158839650266372590e-01,1.223323199792473615e+00,1.930645804303357638e+00,5.160005952815897023e-01,1.956409613990063967e+00,-7.573485902867279629e-01,4.450103097837258825e-02
6.750000000000000000e+00,1.685055777090041161e+09,-2.107901493887456290e-01,1.237451262565582244e+00,1.958901929849574675e+00,5.160005952815897023e-01,1.908913965032615678e+00,-7.561784754065103975e-01,9.577033655812500212e-02
6.766666666666666607e+00,1.685055777107979536e+09,-2.054813683325777962e-01,1.139879329038800959e+00,1.763758062796012327e+00,5.160005952815897023e-01,1.853496681759200015e+00,-7.541820843889939230e-01,1.436635457205751587e-01
6.783333333333333215e+00,1.685055777127009392e+09,-1.999440921748833755e-01,1.197716086016214154e+00,1.879431576750838717e+00,5.160005952815897023e-01,1.790808403902941937e+00,-7.513947583472012637e-01,1.906849611774351361e-01
6.799999999999999822e+00,1.685055777141003370e+09,-1.941671716731475650e-01,1.026413324892272438e+00,1.536826054502955285e+00,5.160005952815897023e-01,1.721549083123684820e+00,-7.478634632239455904e-01,2.329530395211120708e-01
6.816666666666666430e+00,1.685055777156980038e+09,-1.881420184593885769e-01,9.933006777677991783e-01,1.470600760254008765e+00,5.160005952815897023e-01,1.646461720169685394e+00,-7.436484828557473614e-01,2.727340991185386310e-01
6.833333333333333037e+00,1.685055777176981211e+09,-1.818627546723379229e-01,1.036567870010444370e+00,1.557135144739298926e+00,5.160005952815897023e-01,1.566325784012469580e+00,-7.387810717366991575e-01,3.112482488998723484e-01
6.849999999999999645e+00,1.685055777195009470e+09,-1.753263301608979918e-01,1.107649685837647002e+00,1.699298776393704191e+00,5.160005952815897023e-01,1.481950367399456292e+00,-7.332789138336542889e-01,3.489060918841125347e-01
6.866666666666666252e+00,1.685055777209029913e+09,-1.685326059829398704e-01,1.040982889627040775e+00,1.565965183972491959e+00,5.160005952815897023e-01,1.394167135276759506e+00,-7.271756592492480964e-01,3.833886710481030358e-01
6.883333333333332860e+00,1.685055777228981495e+09,-1.614844032875980551e-01,1.022439807237335740e+00,1.528879019193081668e+00,5.160005952815897023e-01,1.303823124087922558e+00,-7.205174973028453111e-01,4.155015579571211815e-01
6.899999999999999467e+00,1.685055777245027304e+09,-1.541875170426439956e-01,9.760821012630730431e-01,1.436163607244556273e+00,5.160005952815897023e-01,1.211773451041261218e+00,-7.133476729188404919e-01,4.447959927781885980e-01
6.916666666666666963e+00,1.685055777262029886e+09,-1.466506944472626695e-01,9.584220227966873118e-01,1.400843450311785032e+00,5.160005952815897023e-01,1.118873993050355065e+00,-7.057089246547806338e-01,4.717788447782460537e-01
6.933333333333333570e+00,1.685055777281005383e+09,-1.388855782508457981e-01,9.465014698318769959e-01,1.377002344382164400e+00,5.160005952815897023e-01,1.025974095185046231e+00,-6.976386669286727127e-01,4.965831798024202270e-01
6.950000000000000178e+00,1.685055777296008110e+09,-1.309066155763164430e-01,9.743160934164346587e-01,1.432631591551279504e+00,5.160005952815897023e-01,9.339093681230336008e-01,-6.891673038623100656e-01,5.199155744283819880e-01
6.966666666666666785e+00,1.685055777313008070e+09,-1.227309332180638035e-01,1.059525972016745810e+00,1.603051348751901806e+00,5.160005952815897023e-01,8.434946332678605607e-01,-6.803110091315123231e-01,5.427762897856609481e-01
6.983333333333333393e+00,1.685055777330023050e+09,-1.143781807460817063e-01,9.893271601128624804e-01,1.462653724944135147e+00,5.160005952815897023e-01,7.555170729048787948e-01,-6.710987074109681094e-01,5.626447252820790945e-01
7.000000000000000000e+00,1.685055777349008322e+09,-1.058703430955421215e-01,1.019349293505718235e+00,1.522697991729846878e+00,5.160005952815897023e-01,6.707296410135192843e-01,-6.615655735473964238e-01,5.812795736604946528e-01
7.016666666666666607e+00,1.685055777364018917e+09,-9.723152465132137157e-02,1.063940991633342215e+00,1.611881387985094838e+00,5.160005952815897023e-01,5.898447881554790273e-01,-6.517294455607146597e-01,5.990065420036265742e-01
7.033333333333333215e+00,1.685055777382008791e+09,-8.848770714643067192e-02,9.138303246690633319e-01,1.311660054056536850e+00,5.160005952815897023e-01,5.135285512328664481e-01,-6.416315907563056031e-01,6.126980017975829362e-01
7.049999999999999822e+00,1.685055777400016308e+09,-7.966648397878590970e-02,8.811591795062497789e-01,1.246317763730909745e+00,5.160005952815897023e-01,4.423950558788989351e-01,-6.313217735753327009e-01,6.244474218730291515e-01
7.066666666666666430e+00,1.685055777415008068e+09,-7.079677380926277519e-02,8.970532501259967928e-01,1.278105904970404216e+00,5.160005952815897023e-01,3.770014758306194924e-01,-6.208245924591402343e-01,6.351844861894468952e-01
7.083333333333333037e+00,1.685055777431041241e+09,-6.190851653289654311e-02,8.917552265860811955e-01,1.267509857890572578e+00,5.160005952815897023e-01,3.178434898664552755e-01,-6.101588459758826577e-01,6.446787183137315802e-01
7.099999999999999645e+00,1.685055777449007273e+09,-5.303235491197888507e-02,9.023512736659126121e-01,1.288701952050235633e+00,5.160005952815897023e-01,2.653512728005340549e-01,-5.993419603585354860e-01,6.533235418041585252e-01
7.116666666666666252e+00,1.685055777466028214e+09,-4.419930532267345863e-02,8.908722226627618923e-01,1.265743850043933971e+00,5.160005952815897023e-01,2.198860526450077124e-01,-5.883900535481612071e-01,6.608842729155803841e-01
7.133333333333332860e+00,1.685055777484013557e+09,-3.544042119387635914e-02,8.749781520430146564e-01,1.233955708804439722e+00,5.160005952815897023e-01,1.817372614142693799e-01,-5.773206432715949354e-01,6.674267861966355353e-01
7.149999999999999467e+00,1.685055777502028942e+09,-2.678645280700948927e-02,9.354639207903858722e-01,1.354927246299182153e+00,5.160005952815897023e-01,1.511203021904465871e-01,-5.661389692673348684e-01,6.743548492420560203e-01
7.166666666666666963e+00,1.685055777519010305e+09,-1.826750717738669441e-02,9.032342775892319153e-01,1.290467959896874239e+00,5.160005952815897023e-01,1.281749500346716086e-01,-5.548504052510653262e-01,6.802564390195181554e-01
7.183333333333333570e+00,1.685055777533029556e+09,-9.912711750992940843e-03,8.608500892699061380e-01,1.205699583258222463e+00,5.160005952815897023e-01,1.129643991555855376e-01,-5.434722515498123796e-01,6.851085267920233868e-01
7.200000000000000178e+00,1.685055777551028490e+09,-1.749885624914980509e-03,8.696801285030989481e-01,1.223359661724608305e+00,5.160005952815897023e-01,1.054749634753695542e-01,-5.320137147269702327e-01,6.899025748354890020e-01
7.216666666666666785e+00,1.685055777568016291e+09,6.194778064629188896e-03,8.250884303754749682e-01,1.134176265469360345e+00,5.160005952815897023e-01,1.056164324075525851e-01,-5.204820787475473720e-01,6.938826865691165580e-01
7.233333333333333393e+00,1.685055777583031416e+09,1.389701504510632013e-02,8.838081912762075776e-01,1.251615787270825342e+00,5.160005952815897023e-01,1.132230783220578019e-01,-5.088754962711783403e-01,6.988932919193853177e-01
7.250000000000000000e+00,1.685055777603033066e+09,2.133477469923105579e-02,9.155963325157019383e-01,1.315192069749814285e+00,5.160005952815897023e-01,1.280553068642948933e-01,-4.971796565442128668e-01,7.045916461820864729e-01
7.266666666666666607e+00,1.685055777617981195e+09,2.848848351841150317e-02,8.763026579279936668e-01,1.236604720574397742e+00,5.160005952815897023e-01,1.498019360592814930e-01,-4.853920549124015604e-01,7.099057877833964136e-01
7.283333333333333215e+00,1.685055777635031223e+09,3.534128420048743280e-02,8.308279558770502726e-01,1.145655316472511176e+00,5.160005952815897023e-01,1.780830850104906382e-01,-4.735189930279245507e-01,7.148479099137117210e-01
7.299999999999999822e+00,1.685055777653009415e+09,4.187924761538190654e-02,7.910927793276824049e-01,1.066184963373775219e+00,5.160005952815897023e-01,2.124536480375958103e-01,-4.615649860127467030e-01,7.196196766879551232e-01
7.316666666666666430e+00,1.685055777669020891e+09,4.809155513316133029e-02,8.396579951102431938e-01,1.163315394938896796e+00,5.160005952815897023e-01,2.524073253269720762e-01,-4.495198823564598434e-01,7.257756617056217996e-01
7.333333333333333037e+00,1.685055777688030005e+09,5.397064910664037957e-02,8.811591795062497789e-01,1.246317763730909745e+00,5.160005952815897023e-01,2.973811766325588080e-01,-4.373610852425211526e-01,7.332592038606632334e-01
7.349999999999999645e+00,1.685055777703980684e+09,5.951234962237995918e-02,8.868987050078249723e-01,1.257796814734060575e+00,5.160005952815897023e-01,3.467606602979332875e-01,-4.250709829915260141e-01,7.415300910314307492e-01
7.366666666666666252e+00,1.685055777722008944e+09,6.471593597624017424e-02,8.467220264967975085e-01,1.177443457712005204e+00,5.160005952815897023e-01,3.998851159083346429e-01,-4.126423866466475410e-01,7.498782803933045082e-01
7.383333333333332860e+00,1.685055777739029408e+09,6.958419168929241838e-02,8.555520657299903187e-01,1.195103536178391046e+00,5.160005952815897023e-01,4.560536452549269759e-01,-4.000668292337600240e-01,7.591628181634989536e-01
7.399999999999999467e+00,1.685055777756040573e+09,7.412341225321217308e-02,9.173623403623404338e-01,1.318724085443091498e+00,5.160005952815897023e-01,5.145313430322814297e-01,-3.873211976749226793e-01,7.702820813279053214e-01
7.416666666666666963e+00,1.685055777772017717e+09,7.834337517749397073e-02,9.442939600235787934e-01,1.372587324765567995e+00,5.160005952815897023e-01,5.745558258201225454e-01,-3.743797704412628047e-01,7.826548171916404284e-01
7.433333333333333570e+00,1.685055777789981365e+09,8.225727230011281588e-02,8.948457403176985903e-01,1.273690885353807589e+00,5.160005952815897023e-01,6.353440054444632334e-01,-3.612322735907362303e-01,7.950104827704832511e-01
7.450000000000000178e+00,1.685055777807030201e+09,8.588160471468697654e-02,9.120643168224248365e-01,1.308128038363259860e+00,5.160005952815897023e-01,6.960990507915453263e-01,-3.478697857957003814e-01,8.084507177690135604e-01
7.466666666666666785e+00,1.685055777824006557e+09,8.923604105677808429e-02,9.367884266753647715e-01,1.357576258069139952e+00,5.160005952815897023e-01,7.560174805766153305e-01,-3.342734595861776570e-01,8.230678233470238858e-01
7.483333333333333393e+00,1.685055777842029095e+09,9.234324027573827254e-02,9.685765679148591323e-01,1.421152540548128673e+00,5.160005952815897023e-01,8.142963284614067598e-01,-3.204230937747920560e-01,8.389320058085760756e-01
7.500000000000000000e+00,1.685055777857010603e+09,9.522864039271050629e-02,1.065706999479980821e+00,1.615413403678371829e+00,5.160005952815897023e-01,8.701403212772675921e-01,-3.062893871873526019e-01,8.570624212337574210e-01
7.516666666666666607e+00,1.685055777873018503e+09,9.792021510594668687e-02,1.010077752310865495e+00,1.504154909340141399e+00,5.160005952815897023e-01,9.227690109527824092e-01,-2.918564256300167359e-01,8.748435723974823386e-01
7.533333333333333215e+00,1.685055777893017530e+09,1.004482004481362933e-01,1.002130717000992099e+00,1.488260838720394608e+00,5.160005952815897023e-01,9.714238010634486109e-01,-2.771239449193513837e-01,8.930036669878910205e-01
7.549999999999999822e+00,1.685055777910029888e+09,1.028447940231746321e-01,9.778481091097117606e-01,1.439695622937833708e+00,5.160005952815897023e-01,1.015374809718105675e+00,-2.620885876375113610e-01,9.111886916865146180e-01
7.566666666666666430e+00,1.685055777928030491e+09,1.051438296485773805e-01,9.442939600235787934e-01,1.372587324765567995e+00,5.160005952815897023e-01,1.053927511761878932e+00,-2.467519679327508098e-01,9.291557631781783844e-01
7.583333333333333037e+00,1.685055777944031477e+09,1.073804305014076643e-01,9.098568070141265229e-01,1.303713018746663455e+00,5.160005952815897023e-01,1.086429105003299922e+00,-2.311186459978229468e-01,9.467938731102076844e-01
7.599999999999999645e+00,1.685055777959031343e+09,1.095906441072918430e-01,8.551105637683308336e-01,1.194220532255071854e+00,5.160005952815897023e-01,1.112274547345060371e+00,-2.151977835416142015e-01,9.636627625058887814e-01
7.616666666666666252e+00,1.685055777979006290e+09,1.118110627214289610e-01,7.981568107142368307e-01,1.080313026146884070e+00,5.160005952815897023e-01,1.130912214301731389e+00,-1.990033951051615735e-01,9.796195244863689089e-01
7.633333333333332860e+00,1.685055777997005939e+09,1.140784328250386281e-01,7.972738067909174164e-01,1.078547018300245020e+00,5.160005952815897023e-01,1.141849129398360585e+00,-1.825438759403997802e-01,9.954787209247617508e-01
7.649999999999999467e+00,1.685055778012006044e+09,1.164292575988333245e-01,7.557726223949110533e-01,9.955446495082321823e-01,5.160005952815897023e-01,1.144655723341139186e+00,-1.658275718312643421e-01,1.010436222577893783e+00
7.666666666666666963e+00,1.685055778030017614e+09,1.188993963350437749e-01,-2.976543098652544850e-01,-1.111309215012098672e+00,5.160005952815897023e-01,1.138970081605595874e+00,-1.490103271226886905e-01,1.007640907398323904e+00
7.683333333333333570e+00,1.685055778046016693e+09,1.215236648103992373e-01,-8.315701322846640320e-01,-2.179140859850917433e+00,5.160005952815897023e-01,1.124501644170748715e+00,-1.323150280177108340e-01,9.958278001581141181e-01
7.700000000000000178e+00,1.685055778061014652e+09,1.243354406633055964e-01,-1.321939657351240749e+00,-3.191929636399075676e+00,5.480503216965945112e-01,1.101034325506565992e+00,-1.158859538023826047e-01,9.757169704120413067e-01
7.716666666666666785e+00,1.685055778079028606e+09,1.273662777990610950e-01,-1.848290542282155391e+00,-4.212581679845900595e+00,5.160005952815897023e-01,1.068429027561709210e+00,-9.986648567186484637e-02,9.466998103695161149e-01
7.733333333333333393e+00,1.685055778098028421e+09,1.306455337872872435e-01,-2.166752851678121594e+00,-4.849506298637832558e+00,5.160005952815897023e-01,1.026625523362512116e+00,-8.437638910470139642e-02,9.122075916637591986e-01
7.750000000000000000e+00,1.685055778115029097e+09,1.342000141162458249e-01,-2.443539846511157965e+00,-5.403080288303906187e+00,5.160005952815897023e-01,9.756436938835105765e-01,-6.950167036040347246e-02,8.728679370423337858e-01
7.766666666666666607e+00,1.685055778131027937e+09,1.380536370303308558e-01,-2.865797278969513417e+00,-6.247595153220616204e+00,5.160005952815897023e-01,9.155841060443959956e-01,-5.534379678124276558e-02,8.262065105810877386e-01
7.783333333333333215e+00,1.685055778147028446e+09,1.422271225007836759e-01,-2.996327509487366036e+00,-6.508655614256321442e+00,5.160005952815897023e-01,8.466279249866215384e-01,-4.198472190630209155e-02,7.770191092978012692e-01
7.799999999999999822e+00,1.685055778164031506e+09,1.467377086674636621e-01,-3.259746950592671055e+00,-7.035494496466931480e+00,5.160005952815897023e-01,7.690361591431021937e-01,-2.948574390239971921e-02,7.230082847697394399e-01
7.816666666666666430e+00,1.685055778182982922e+09,1.515988988429898543e-01,-3.642688048557696678e+00,-7.801376692396982726e+00,5.160005952815897023e-01,6.831482419931297345e-01,-1.794424120276457216e-02,6.621411186273614691e-01
7.833333333333333037e+00,1.685055778200007915e+09,1.568202418923253516e-01,-3.804671346670212451e+00,-8.125343288622014271e+00,5.160005952815897023e-01,5.893799597498718956e-01,-7.444108804701921045e-03,5.980527964472931446e-01
7.849999999999999645e+00,1.685055778219028950e+09,1.624071484933552745e-01,-4.267817767001629292e+00,-9.051636129284847954e+00,5.160005952815897023e-01,4.882207395157031060e-01,1.918794624750150626e-03,5.256966092264089285e-01
7.866666666666666252e+00,1.685055778236016989e+09,1.683607454502275558e-01,-4.505288427341337609e+00,-9.526577449964266364e+00,5.160005952815897023e-01,3.802303176199770540e-01,1.003804021614993457e-02,4.488263951396531670e-01
7.883333333333332860e+00,1.685055778252015114e+09,1.746777698743898488e-01,-4.561117622321864573e+00,-9.638235839925318515e+00,5.160005952815897023e-01,2.660348128825948955e-01,1.686324902873367546e-02,3.704164728364149339e-01
7.899999999999999467e+00,1.685055778269030094e+09,1.813505046716827884e-01,-4.359031663026153858e+00,-9.234063921333897085e+00,5.160005952815897023e-01,1.463222343849285290e-01,2.240383327298069854e-02,2.946640647814808278e-01
7.916666666666666963e+00,1.685055778287029266e+09,1.883667563813828383e-01,-3.905809160252831536e+00,-8.359668642202256805e+00,5.480503216965945112e-01,2.183745793853075767e-02,2.673774576216856810e-02,2.255972905870546330e-01
7.933333333333333570e+00,1.685055778302008152e+09,1.957098760082476852e-01,-3.788348154052539218e+00,-8.156796356216677424e+00,5.801000481115994312e-01,-1.066232902152747242e-01,2.992856559558289276e-02,1.574902800158434202e-01
7.950000000000000178e+00,1.685055778319029093e+09,2.033588230756518400e-01,-3.873461104427653900e+00,-8.391121709796919959e+00,6.441995009416116025e-01,-2.382183999002859265e-01,3.196374373504064226e-02,8.692711013758666616e-02
7.966666666666666785e+00,1.685055778338031054e+09,2.112882727105043768e-01,-3.778505242823322341e+00,-8.265309439418267345e+00,7.082989537716214423e-01,-3.720672474123782880e-01,3.282724334480662670e-02,1.688740235722568928e-02
7.983333333333333393e+00,1.685055778353029251e+09,2.194687651531584682e-01,-3.646890356205433115e+00,-8.034129392597492370e+00,7.403486801866263622e-01,-5.072569202109307174e-01,3.253259465970202713e-02,-5.205373689794243197e-02
8.000000000000000000e+00,1.685055778374008179e+09,2.278668966719013811e-01,-3.524711389865940347e+00,-7.821821186333513864e+00,7.723984066016336136e-01,-6.428492433138052187e-01,3.109659651203582412e-02,-1.200770826366053257e-01
8.016666666666665719e+00,1.685055778389986515e+09,2.364455504558692911e-01,-3.284881749456632694e+00,-7.342161905514898557e+00,7.723984066016336136e-01,-7.778880522737973147e-01,2.855074511577440632e-02,-1.852440612691844124e-01
8.033333333333333215e+00,1.685055778404007912e+09,2.451641656665356495e-01,-3.340710944437160101e+00,-7.453820295475953372e+00,7.723984066016336136e-01,-9.114066555105378997e-01,2.490162549220631405e-02,-2.524635683114112572e-01
8.050000000000000711e+00,1.685055778422008991e+09,2.539790424498806209e-01,-3.286454402836366029e+00,-7.345307212274365227e+00,7.723984066016336136e-01,-1.042435427117468727e+00,2.013086132440546419e-02,-3.198409679761743396e-01
8.066666666666666430e+00,1.685055778440009117e+09,2.628436803530075361e-01,-3.215685000748373490e+00,-7.203768408098380149e+00,7.723984066016336136e-01,-1.170009470077033154e+00,1.423860081024524819e-02,-3.870436153091042497e-01
8.083333333333333925e+00,1.685055778456007004e+09,2.717091472535851926e-01,-2.986077607307331405e+00,-6.744553621216296868e+00,7.723984066016336136e-01,-1.293176289104465804e+00,7.250279862300130704e-03,-4.513761926346890885e-01
8.099999999999999645e+00,1.685055778471980810e+09,2.805244756015865537e-01,-2.874419217346276145e+00,-6.521236841294185460e+00,7.723984066016336136e-01,-1.411003412110787947e+00,-8.022170885439872806e-04,-5.147474061747960850e-01
8.116666666666667140e+00,1.685055778490027189e+09,2.892370824934322737e-01,-2.821735329125215852e+00,-6.415869064852064874e+00,7.723984066016336136e-01,-1.522585899528909659e+00,-9.910283171998452573e-03,-5.780446939022436670e-01
8.133333333333332860e+00,1.685055778506980896e+09,2.977932098514433079e-01,-2.667615297911365424e+00,-6.107629002424364906e+00,7.723984066016336136e-01,-1.627053681483242586e+00,-2.005770340450317366e-02,-6.394750899929824151e-01
8.150000000000000355e+00,1.685055778523027420e+09,3.061383807693047188e-01,-2.213118471168480816e+00,-5.198635348938594802e+00,7.723984066016336136e-01,-1.723578663996526483e+00,-3.117103552515086001e-02,-6.939733767917515284e-01
8.166666666666666075e+00,1.685055778542008877e+09,3.142178679087260784e-01,-2.293323793534871591e+00,-5.359045993671377239e+00,7.723984066016336136e-01,-1.811381547109019330e+00,-4.320835047238430482e-02,-7.503478175219162605e-01
8.183333333333333570e+00,1.685055778559032202e+09,3.219771696959886076e-01,-2.364879522312731464e+00,-5.502157451227096097e+00,7.723984066016336136e-01,-1.889738299922010256e+00,-5.619815895266362660e-02,-8.082683060788826701e-01
8.199999999999999289e+00,1.685055778577029705e+09,3.293624899704762909e-01,-2.429358310881791105e+00,-5.631115028365216268e+00,7.723984066016336136e-01,-1.957986240153029689e+00,-7.016364118412093953e-02,-8.674252330313390047e-01
8.216666666666666785e+00,1.685055778592981100e+09,3.363212166821299420e-01,-2.441153211229789122e+00,-5.654704829061212301e+00,7.723984066016336136e-01,-2.015529668784622253e+00,-8.511647845844740046e-02,-9.267504437572526843e-01
8.233333333333332504e+00,1.685055778611006260e+09,3.428023952212678194e-01,-2.195032957301549015e+00,-5.162464321204732087e+00,7.723984066016336136e-01,-2.061845013778627500e+00,-1.010222780634464912e-01,-9.817926103369232216e-01
8.250000000000000000e+00,1.685055778628005981e+09,3.487571919929303710e-01,-2.008673531803168988e+00,-4.789745470207972033e+00,7.723984066016336136e-01,-2.096485440586843829e+00,-1.178168891561251486e-01,-1.033417315450744667e+00
8.266666666666665719e+00,1.685055778645006418e+09,3.541393439184239433e-01,-1.673698361920005206e+00,-4.119795130441644027e+00,7.723984066016336136e-01,-2.119084891288616213e+00,-1.354216360804714470e-01,-1.079025622746542012e+00
8.283333333333333215e+00,1.685055778662034512e+09,3.589055896586370586e-01,-1.515945026666994044e+00,-3.772238733520614229e+00,7.403486801866263622e-01,-2.129361518592160607e+00,-1.537598524610981898e-01,-1.121442515453567879e+00
8.300000000000000711e+00,1.685055778678029776e+09,3.630160785058931250e-01,-1.287910286605684851e+00,-3.316169253397995842e+00,7.403486801866263622e-01,-2.127120485617328693e+00,-1.727673526064504583e-01,-1.159352194845265860e+00
8.316666666666666430e+00,1.685055778695008278e+09,3.664347530822542054e-01,-1.294200900124617748e+00,-3.328750480435861636e+00,7.403486801866263622e-01,-2.112256107293873253e+00,-1.924002604251580650e-01,-1.196493570483533109e+00
8.333333333333333925e+00,1.685055778712028980e+09,3.691297022105505810e-01,-1.326548955949793385e+00,-3.297297412841198483e+00,6.441995009416116025e-01,-2.084753314324499840e+00,-2.126477304159578030e-01,-1.233101138330638280e+00
8.349999999999999645e+00,1.685055778731009245e+09,3.710734805878119769e-01,-1.263154823480771904e+00,-3.138459421488148493e+00,6.121497745266043511e-01,-2.044688425934721998e+00,-2.334859804704213504e-01,-1.267393609099766394e+00
8.366666666666667140e+00,1.685055778748030901e+09,3.722433921868263385e-01,-1.112776757846729803e+00,-2.773603837390054228e+00,5.480503216965945112e-01,-1.992229223020562490e+00,-2.548630192264549343e-01,-1.297766670024854241e+00
8.383333333333332860e+00,1.685055778763006926e+09,3.726217346373794648e-01,-7.988427407204397035e-01,-2.081636350307461747e+00,4.839508688665823399e-01,-1.927634318768520316e+00,-2.766897979187472600e-01,-1.321381175657377893e+00
8.400000000000000355e+00,1.685055778780009985e+09,3.721960021913593430e-01,-6.127816446322302824e-01,-1.677464431716038096e+00,4.519011424515774755e-01,-1.851251829316431285e+00,-2.988706412186274419e-01,-1.340267556923308678e+00
8.416666666666666075e+00,1.685055778797029495e+09,3.709590452519098691e-01,-5.320883249861431130e-01,-1.484028066008858948e+00,4.198514160365725556e-01,-1.763517352505604263e+00,-3.213403856119150248e-01,-1.356057907154883502e+00
8.433333333333333570e+00,1.685055778813029289e+09,3.689091848426878095e-01,9.309672327844267237e-01,1.474132775947285756e+00,3.878016896215676357e-01,-1.664951268201456447e+00,-3.438554295776017344e-01,-1.345775930446147406e+00
8.449999999999999289e+00,1.685055778830029726e+09,3.660502808052524815e-01,1.259003190297542041e+00,2.130204690973516612e+00,3.878016896215676357e-01,-1.556155378987496229e+00,-3.661401919839264441e-01,-1.328443704517988655e+00
8.466666666666666785e+00,1.685055778849028826e+09,3.623917529366742496e-01,1.766158151656716191e+00,3.176564340106871942e+00,3.557519632065603843e-01,-1.437808915226172823e+00,-3.880520833248638501e-01,-1.301059325903208830e+00
8.483333333333332504e+00,1.685055778865008116e+09,3.579485547117722821e-01,1.920242336275931772e+00,3.484732709345303103e+00,3.557519632065603843e-01,-1.310663933485828547e+00,-4.094725071868103305e-01,-1.269479261994760577e+00
8.500000000000000000e+00,1.685055778882030249e+09,3.527410996705311330e-01,2.073312724384072769e+00,3.822923211976589908e+00,3.237022367915554644e-01,-1.175540142119507525e+00,-4.303311529805976532e-01,-1.233657739829897126e+00
8.516666666666665719e+00,1.685055778898034334e+09,3.467951409873923918e-01,2.097153830313693845e+00,3.870605423835832060e+00,3.237022367915554644e-01,-1.033319192307918577e+00,-4.505747845174867816e-01,-1.195683530992911692e+00
8.533333333333333215e+00,1.685055778916029453e+09,3.401416051707966126e-01,2.146912759393477810e+00,4.002173008410405686e+00,2.916525103765505444e-01,-8.849384771118224968e-01,-4.701633904438987099e-01,-1.155062020361805608e+00
8.550000000000000711e+00,1.685055778932981253e+09,3.328163812646606767e-01,2.231108841482714933e+00,4.202614899003884297e+00,2.596027839615456800e-01,-7.313844849833467388e-01,-4.890477436975614878e-01,-1.111182261166486773e+00
8.566666666666666430e+00,1.685055778951008797e+09,3.248600673342186274e-01,2.195527099374431579e+00,4.195550867617329871e+00,1.955033311315334810e-01,-5.736857577317086010e-01,-5.071899614666162126e-01,-1.066009354370053286e+00
8.583333333333333925e+00,1.685055778968030691e+09,3.163176764129823071e-01,2.190719701994569224e+00,4.282085252102620032e+00,9.935415188651879059e-02,-4.129055060969931690e-01,-5.245639937117014817e-01,-1.019005085526675014e+00
8.599999999999999645e+00,1.685055778986031294e+09,3.072383044617472692e-01,2.169445939445542759e+00,4.367736632664589891e+00,-2.884475377350440711e-02,-2.501339388320658608e-01,-5.411415699817394565e-01,-9.704389759130790383e-01
8.616666666666667140e+00,1.685055779002010584e+09,2.976747632408288102e-01,2.061327083037323149e+00,4.247648099093167318e+00,-1.249939330185202979e-01,-8.648036350537040284e-02,-5.569087485837564966e-01,-9.217576853188627073e-01
8.633333333333332860e+00,1.685055779020981312e+09,2.876831813200310672e-01,2.059168697427418149e+00,4.339480507118373076e+00,-2.211431122635373892e-01,7.693488090389430378e-02,-5.718490233488842112e-01,-8.712156842482131625e-01
8.650000000000000355e+00,1.685055779037035227e+09,2.773225767437380584e-01,1.719833605697300261e+00,3.724909776488148694e+00,-2.852425650935483947e-01,2.389885981529854542e-01,-5.859783985078095281e-01,-8.244392723584497151e-01
8.666666666666666075e+00,1.685055779054008007e+09,2.666544051286066086e-01,1.296171639290191191e+00,2.941685296503941949e+00,-3.493420179235594003e-01,3.985629532479711967e-01,-5.993711034959022799e-01,-7.828009908280542106e-01
8.683333333333333570e+00,1.685055779072028637e+09,2.557420871957307162e-01,1.051317967355237304e+00,2.516077405464045125e+00,-4.134414707535703504e-01,5.545536725146340551e-01,-6.120878620207390597e-01,-7.433197049720529082e-01
8.699999999999999289e+00,1.685055779088016987e+09,2.446505199261313490e-01,1.007478480563177126e+00,2.460448158294929577e+00,-4.454911971685752703e-01,7.058781624852306091e-01,-6.241372064072739922e-01,-7.027144165347112281e-01
8.716666666666666785e+00,1.685055779104982615e+09,2.334455756757907452e-01,1.058431122940184821e+00,2.626452895878955918e+00,-5.095906499985862759e-01,8.514834854086221760e-01,-6.354882557249756925e-01,-6.595314570778627594e-01
8.733333333333332504e+00,1.685055779122009754e+09,2.221935936932605271e-01,1.049028789157576469e+00,2.639697954728745355e+00,-5.416403764135924170e-01,9.903541302299522231e-01,-6.461076712759155072e-01,-6.149223262037974980e-01
