# 
# 
# 
# 
# 
# 
# 
# 
# 
# 
# time,realtime,ref,inp,inp0,inp1,dis,state...
0.000000000000000000e+00,1.685056084608716249e+09,-0.000000000000000000e+00,1.602486320750845994e-03,0.000000000000000000e+00,3.204972641501691987e-03,-0.000000000000000000e+00,0.000000000000000000e+00,0.000000000000000000e+00
1.666666666666666644e-02,1.685056084615742207e+09,-2.775066791840610147e-06,-4.647210330175770288e-02,0.000000000000000000e+00,-9.294420660351540575e-02,0.000000000000000000e+00,-6.418750096279617949e-06,-7.681163049330153644e-04
3.333333333333333287e-02,1.685056084621761560e+09,-1.102979831570291005e-05,1.602486320750845994e-03,0.000000000000000000e+00,3.204972641501691987e-03,-2.206953967052913926e-05,-1.889630795013935393e-05,-7.292984673944836538e-04
5.000000000000000278e-02,1.685056084635760069e+09,-2.465770011267145130e-05,1.762734952825329576e-02,0.000000000000000000e+00,3.525469905650659153e-02,-9.410389500094621545e-05,-2.852885070304931694e-05,-4.274451640873678637e-04
6.666666666666666574e-02,1.685056084652741194e+09,-4.354858521338314151e-05,3.365221273575574185e-02,0.000000000000000000e+00,6.730442547151148369e-02,-2.241069114426098472e-04,-3.097679117570955812e-05,1.321378734571778410e-04
8.333333333333332871e-02,1.685056084669762373e+09,-6.758497937871917798e-05,3.365221273575574185e-02,0.000000000000000000e+00,6.730442547151148369e-02,-4.189368712703131275e-04,-2.420254758892144837e-05,6.792515609451468513e-04
1.000000000000000056e-01,1.685056084686764240e+09,-9.663828845901796213e-05,4.967707594325939530e-02,0.000000000000000000e+00,9.935415188651879059e-02,-6.841128928631049150e-04,-6.208574301762398261e-06,1.477806971831259258e-03
1.166666666666666685e-01,1.685056084705741405e+09,-1.305648725077065248e-04,4.967707594325939530e-02,0.000000000000000000e+00,9.935415188651879059e-02,-1.023640574077647105e-03,2.493746322894690545e-05,2.257551523786912283e-03
1.333333333333333315e-01,1.685056084722741127e+09,-1.692021748001812170e-04,6.570193915076183444e-02,0.000000000000000000e+00,1.314038783015236689e-01,-1.439859857052283457e-03,7.112741827278370327e-05,3.282396223638234592e-03
1.499999999999999944e-01,1.685056084740754128e+09,-2.123650544980587118e-04,6.570193915076183444e-02,0.000000000000000000e+00,1.314038783015236689e-01,-1.933317807446571779e-03,1.341884095945013384e-04,4.282145588038438477e-03
1.666666666666666574e-01,1.685056084755750656e+09,-2.598424693387369660e-04,6.570193915076183444e-02,0.000000000000000000e+00,1.314038783015236689e-01,-2.502668679339375979e-03,2.136951654153164198e-04,5.255960006741331077e-03
1.833333333333333204e-01,1.685056084772749901e+09,-3.113946494440260034e-04,8.172680235826429440e-02,0.000000000000000000e+00,1.634536047165285888e-01,-3.144603281600389429e-03,3.114223555890239929e-04,6.467936134512021831e-03
2.000000000000000111e-01,1.685056084787713766e+09,-3.667508951999933950e-04,8.172680235826429440e-02,0.000000000000000000e+00,1.634536047165285888e-01,-3.853809276753450159e-03,4.290837932588103349e-04,7.648157914867416245e-03
2.166666666666666741e-01,1.685056084806733847e+09,-4.256081212798666917e-04,8.172680235826429440e-02,0.000000000000000000e+00,1.634536047165285888e-01,-4.622963633772314909e-03,5.661463451297432626e-04,8.796159341738015933e-03
2.333333333333333370e-01,1.685056084824756145e+09,-4.876302554243204935e-04,9.775166556576674048e-02,0.000000000000000000e+00,1.955033311315334810e-01,-5.442758026815340544e-03,7.242838232768316264e-04,1.017650365590678369e-02
2.500000000000000000e-01,1.685056084839715481e+09,-5.524485847625858811e-04,9.775166556576674048e-02,0.000000000000000000e+00,1.955033311315334810e-01,-6.301957527800925753e-03,9.051177130841824015e-04,1.151983156673219710e-02
2.666666666666666630e-01,1.685056084857771158e+09,-6.196631244971581402e-04,9.775166556576674048e-02,0.000000000000000000e+00,1.955033311315334810e-01,-7.187492487340453769e-03,1.108032549753496963e-03,1.282631961470332045e-02
2.833333333333333259e-01,1.685056084874762058e+09,-6.888450639642092503e-04,9.775166556576674048e-02,0.000000000000000000e+00,1.955033311315334810e-01,-8.084583041411646034e-03,1.332417827846293923e-03,1.409638571201644180e-02
2.999999999999999889e-01,1.685056084890742064e+09,-7.595403237332122841e-04,1.137765287732703939e-01,0.000000000000000000e+00,2.275530575465407879e-01,-8.976895225884335902e-03,1.579885567562563627e-03,1.559557853142327227e-02
3.166666666666666519e-01,1.685056084907750130e+09,-8.312742348628023937e-04,1.137765287732703939e-01,0.000000000000000000e+00,2.275530575465407879e-01,-9.846727233229598392e-03,1.852012643377801224e-03,1.705561481460871401e-02
3.333333333333333148e-01,1.685056084924751043e+09,-9.035573280484666828e-04,1.137765287732703939e-01,0.000000000000000000e+00,2.275530575465407879e-01,-1.067522391103068943e-02,2.148157563931645669e-03,1.847782497509219829e-02
3.499999999999999778e-01,1.685056084941771507e+09,-9.758921965621116532e-04,1.298013919807728400e-01,0.000000000000000000e+00,2.596027839615456800e-01,-1.144261718573518112e-02,2.469916920143363365e-03,2.012871186546444022e-02
3.666666666666666408e-01,1.685056084959772587e+09,-1.047781372987092183e-03,1.298013919807728400e-01,0.000000000000000000e+00,2.596027839615456800e-01,-1.212848970273189622e-02,2.818868303485963338e-03,2.174097552008918965e-02
3.833333333333333037e-01,1.685056084975740194e+09,-1.118736136194422226e-03,1.298013919807728400e-01,0.000000000000000000e+00,2.596027839615456800e-01,-1.271205861035543810e-02,3.194387458249821257e-03,2.331694525483228933e-02
4.000000000000000222e-01,1.685056084993749380e+09,-1.188286142187209692e-03,1.458262551882752722e-01,0.000000000000000000e+00,2.916525103765505444e-01,-1.317247608556980538e-02,3.598104870544024860e-03,2.512412416091651043e-02
4.166666666666666852e-01,1.685056085008772612e+09,-1.255989750755865135e-03,1.458262551882752722e-01,0.000000000000000000e+00,2.916525103765505444e-01,-1.348914290726376669e-02,4.031648584641306376e-03,2.689619898483608731e-02
4.333333333333333481e-01,1.685056085028774977e+09,-1.321444899720450230e-03,1.458262551882752722e-01,0.000000000000000000e+00,2.916525103765505444e-01,-1.364203113329895412e-02,4.494461002280287013e-03,2.863645696811337876e-02
4.500000000000000111e-01,1.685056085044770718e+09,-1.384300360255700689e-03,1.458262551882752722e-01,0.000000000000000000e+00,2.916525103765505444e-01,-1.361201173323067087e-02,4.986041500634082885e-03,3.034844719401032578e-02
4.666666666666666741e-01,1.685056085061742306e+09,-1.444267190743270301e-03,1.458262551882752722e-01,0.000000000000000000e+00,2.916525103765505444e-01,-1.338118287301418019e-02,5.505950590672610556e-03,3.203595597589281585e-02
4.833333333333333370e-01,1.685056085078739643e+09,-1.501130193091192817e-03,1.458262551882752722e-01,0.000000000000000000e+00,2.916525103765505444e-01,-1.293319444352332079e-02,6.053813623906288514e-03,3.370297728840500329e-02
5.000000000000000000e-01,1.685056085095742702e+09,-1.554759164786111147e-03,1.458262551882752722e-01,0.000000000000000000e+00,2.916525103765505444e-01,-1.225356437328242384e-02,6.629323966710774264e-03,3.535367845918373220e-02
5.166666666666666075e-01,1.685056085110739708e+09,-1.605119732345322309e-03,1.458262551882752722e-01,0.000000000000000000e+00,2.916525103765505444e-01,-1.132998226878763337e-02,7.232245565646658846e-03,3.699236140890597296e-02
5.333333333333333259e-01,1.685056085131715536e+09,-1.652283547517746903e-03,1.458262551882752722e-01,0.000000000000000000e+00,2.916525103765505444e-01,-1.015259598389558864e-02,7.862414832552393207e-03,3.862341979540656611e-02
5.500000000000000444e-01,1.685056085149741888e+09,-1.696437626704120098e-03,1.458262551882752722e-01,0.000000000000000000e+00,2.916525103765505444e-01,-8.714276833080399770e-03,8.519741784660399969e-03,4.025129248255180509e-02
5.666666666666666519e-01,1.685056085163762331e+09,-1.737892616738030216e-03,1.458262551882752722e-01,0.000000000000000000e+00,2.916525103765505444e-01,-7.010859331360999765e-03,9.204210382508312346e-03,4.188041381565246746e-02
5.833333333333333703e-01,1.685056085180762291e+09,-1.777089776450523810e-03,1.458262551882752722e-01,0.000000000000000000e+00,2.916525103765505444e-01,-5.041351565199092728e-03,9.915878016918545923e-03,4.351516124162684018e-02
5.999999999999999778e-01,1.685056085197766304e+09,-1.814606473339355850e-03,1.458262551882752722e-01,0.000000000000000000e+00,2.916525103765505444e-01,-2.808112571853206042e-03,1.065487410571560115e-02,4.515980086310348446e-02
6.166666666666666963e-01,1.685056085214739799e+09,-1.851160008133711284e-03,1.458262551882752722e-01,0.000000000000000000e+00,2.916525103765505444e-01,-3.169934271174617386e-04,1.142139777104472266e-02,4.681843156046032461e-02
6.333333333333333037e-01,1.685056085230739594e+09,-1.887609596986521360e-03,1.458262551882752722e-01,0.000000000000000000e+00,2.916525103765505444e-01,2.422560889949788160e-03,1.221571457903949595e-02,4.849492835376930516e-02
6.500000000000000222e-01,1.685056085248751163e+09,-1.924956361286600266e-03,1.458262551882752722e-01,0.000000000000000000e+00,2.916525103765505444e-01,5.397451375381627850e-03,1.303815233504070255e-02,5.019288570716238379e-02
6.666666666666666297e-01,1.685056085267740011e+09,-1.964341198456624488e-03,1.458262551882752722e-01,0.000000000000000000e+00,2.916525103765505444e-01,8.590908691985178758e-03,1.388909593946625713e-02,5.191556150074116971e-02
6.833333333333333481e-01,1.685056085285750628e+09,-2.007040433335713532e-03,1.458262551882752722e-01,0.000000000000000000e+00,2.916525103765505444e-01,1.198252226086451988e-02,1.476898132163640028e-02,5.366582240939002379e-02
6.999999999999999556e-01,1.685056085300740719e+09,-2.054459178534273536e-03,1.458262551882752722e-01,0.000000000000000000e+00,2.916525103765505444e-01,1.554831582675072522e-02,1.567828848122720595e-02,5.544609143338298518e-02
7.166666666666666741e-01,1.685056085316762209e+09,-2.108122363147907612e-03,1.458262551882752722e-01,0.000000000000000000e+00,2.916525103765505444e-01,1.926087003519805912e-02,1.661753367941172857e-02,5.725829832225635269e-02
7.333333333333332815e-01,1.685056085334771633e+09,-2.169663422039451190e-03,1.458262551882752722e-01,0.000000000000000000e+00,2.916525103765505444e-01,2.308949200625955503e-02,1.758726083400142387e-02,5.910383362090890214e-02
7.500000000000000000e-01,1.685056085351715088e+09,-2.240810672122219623e-03,1.458262551882752722e-01,0.000000000000000000e+00,2.916525103765505444e-01,2.700043132434727308e-02,1.858803218486906883e-02,6.098350704525162813e-02
7.666666666666666075e-01,1.685056085368763208e+09,-2.323371437250668688e-03,1.458262551882752722e-01,0.000000000000000000e+00,2.916525103765505444e-01,3.095714129393443981e-02,1.962041830746643831e-02,6.289751086402442515e-02
7.833333333333333259e-01,1.685056085384720564e+09,-2.419214018970387587e-03,1.458262551882752722e-01,0.000000000000000000e+00,2.916525103765505444e-01,3.492058374201655047e-02,2.068498756319610971e-02,6.484538892379961006e-02
8.000000000000000444e-01,1.685056085401741982e+09,-2.530247646002247146e-03,1.458262551882752722e-01,0.000000000000000000e+00,2.916525103765505444e-01,3.884957508736318343e-02,2.178229508561089003e-02,6.682601190597879659e-02
8.166666666666666519e-01,1.685056085419763327e+09,-2.658400570428119235e-03,1.458262551882752722e-01,0.000000000000000000e+00,2.916525103765505444e-01,4.270117085010933372e-02,2.291287141075600345e-02,6.883755934814009270e-02
8.333333333333333703e-01,1.685056085435762882e+09,-2.805596512595356831e-03,1.458262551882752722e-01,0.000000000000000000e+00,2.916525103765505444e-01,4.643108524964364298e-02,2.407721086830537371e-02,7.087750889788936581e-02
8.499999999999999778e-01,1.685056085452772141e+09,-2.973729689252517516e-03,1.458262551882752722e-01,0.000000000000000000e+00,2.916525103765505444e-01,4.999414204040918824e-02,2.527575985734934957e-02,7.294263319599013362e-02
8.666666666666666963e-01,1.685056085470743418e+09,-3.164638689867453961e-03,1.458262551882752722e-01,0.000000000000000000e+00,2.916525103765505444e-01,5.334475227028782907e-02,2.650890513665331988e-02,7.502900470766221686e-02
8.833333333333333037e-01,1.685056085486716509e+09,-3.380079493972990359e-03,1.458262551882752722e-01,0.000000000000000000e+00,2.916525103765505444e-01,5.643741422057667323e-02,2.777696226382265002e-02,7.713200873730707841e-02
9.000000000000000222e-01,1.685056085503739357e+09,-3.621697947270645281e-03,1.458262551882752722e-01,0.000000000000000000e+00,2.916525103765505444e-01,5.922723040570912478e-02,2.908016432099034404e-02,7.924636477337246299e-02
9.166666666666666297e-01,1.685056085520742416e+09,-3.891002035663203903e-03,1.458262551882752722e-01,0.000000000000000000e+00,2.916525103765505444e-01,6.167043617996430249e-02,3.041865106631571822e-02,8.136615621751774885e-02
9.333333333333333481e-01,1.685056085537715912e+09,-4.189334313982327404e-03,1.458262551882752722e-01,0.000000000000000000e+00,2.916525103765505444e-01,6.372493422209542235e-02,3.179245865068625054e-02,8.348486845665339939e-02
9.499999999999999556e-01,1.685056085554758549e+09,-4.517844859569566593e-03,1.458262551882752722e-01,0.000000000000000000e+00,2.916525103765505444e-01,6.535082895123695002e-02,3.320151003750865942e-02,8.559543513882285348e-02
9.666666666666666741e-01,1.685056085573751211e+09,-4.877465129746866995e-03,1.458262551882752722e-01,0.000000000000000000e+00,2.916525103765505444e-01,6.651095477216839580e-02,3.464560626033456187e-02,8.769029241533767005e-02
9.833333333333332815e-01,1.685056085590771198e+09,-5.268883106317183602e-03,1.458262551882752722e-01,0.000000000000000000e+00,2.916525103765505444e-01,6.717139195796177631e-02,3.612441864828371679e-02,8.976144081315913514e-02
1.000000000000000000e+00,1.685056085608717203e+09,-5.692520109366613380e-03,1.458262551882752722e-01,0.000000000000000000e+00,2.916525103765505444e-01,6.730196395548598831e-02,3.763748214281586318e-02,9.180051430435634541e-02
1.016666666666666607e+00,1.685056085624739408e+09,-6.148509656654247389e-03,1.458262551882752722e-01,0.000000000000000000e+00,2.916525103765505444e-01,6.687670994575153904e-02,3.918418982139056789e-02,9.379885604468209126e-02
1.033333333333333215e+00,1.685056085642768383e+09,-6.636678733700478866e-03,1.298013919807728400e-01,0.000000000000000000e+00,2.596027839615456800e-01,6.587432660750719426e-02,4.076157537189007557e-02,9.548273247065391933e-02
1.050000000000000044e+00,1.685056085657735825e+09,-7.156531823306951090e-03,1.137765287732703939e-01,0.000000000000000000e+00,2.275530575465407879e-01,6.427857321893279408e-02,4.236435918328052691e-02,9.684753369246686117e-02
1.066666666666666652e+00,1.685056085675748587e+09,-7.707238021721001670e-03,1.137765287732703939e-01,0.000000000000000000e+00,2.275530575465407879e-01,6.207863448806283380e-02,4.398939731804022563e-02,9.815341494539604750e-02
1.083333333333333259e+00,1.685056085689761877e+09,-8.287621542121228341e-03,1.137765287732703939e-01,0.000000000000000000e+00,2.275530575465407879e-01,5.926943582629633223e-02,4.563563176345761946e-02,9.939127990997143058e-02
1.100000000000000089e+00,1.685056085707770586e+09,-8.896155874743334399e-03,9.775166556576674048e-02,0.000000000000000000e+00,1.955033311315334810e-01,5.585190616881790387e-02,4.729964092408766446e-02,1.002873302782511244e-01
1.116666666666666696e+00,1.685056085727760315e+09,-9.530961837051602631e-03,8.172680235826429440e-02,0.000000000000000000e+00,1.634536047165285888e-01,5.183318389805906257e-02,4.897569206457097479e-02,1.008372789087065430e-01
1.133333333333333304e+00,1.685056085743768930e+09,-1.018980970721857816e-02,6.570193915076183444e-02,0.000000000000000000e+00,1.314038783015236689e-01,4.722676193779771353e-02,5.065798345298083705e-02,1.010371325384393365e-01
1.149999999999999911e+00,1.685056085761773586e+09,-1.087012559019621266e-02,4.967707594325939530e-02,0.000000000000000000e+00,9.935415188651879059e-02,4.205256865178843423e-02,5.234065010707592003e-02,1.008832932942617250e-01
1.166666666666666741e+00,1.685056085775762081e+09,-1.156900211829725578e-02,4.967707594325939530e-02,0.000000000000000000e+00,9.935415188651879059e-02,3.633698179691077085e-02,5.401998458241289575e-02,1.006375264479275888e-01
1.183333333333333348e+00,1.685056085793764353e+09,-1.228321353796124789e-02,3.365221273575574185e-02,0.000000000000000000e+00,6.730442547151148369e-02,3.011277344107996315e-02,5.569218383621777485e-02,1.000280769637366396e-01
1.199999999999999956e+00,1.685056085810751200e+09,-1.300923518181063172e-02,1.762734952825329576e-02,0.000000000000000000e+00,3.525469905650659153e-02,2.341898445437431975e-02,5.735117186450931076e-02,9.905319450182223373e-02
1.216666666666666563e+00,1.685056085828742504e+09,-1.374326727080802182e-02,1.762734952825329576e-02,0.000000000000000000e+00,3.525469905650659153e-02,1.630072791126111267e-02,5.899306332587547774e-02,9.797677099778130672e-02
1.233333333333333393e+00,1.685056085844766855e+09,-1.448126293594162624e-02,1.602486320750845994e-03,0.000000000000000000e+00,3.204972641501691987e-03,8.808921495277287003e-03,6.061391493751657616e-02,9.652944284974067368e-02
1.250000000000000000e+00,1.685056085861762285e+09,-1.521896029305660515e-02,1.602486320750845994e-03,0.000000000000000000e+00,3.204972641501691987e-03,9.999497674626689134e-04,6.220976573997148013e-02,9.497696598208932306e-02
1.266666666666666607e+00,1.685056085878764391e+09,-1.595191834890418228e-02,-1.442237688675220356e-02,0.000000000000000000e+00,-2.884475377350440711e-02,-7.064742061618820013e-03,6.377662909548348358e-02,9.305198397743780214e-02
1.283333333333333215e+00,1.685056085897773504e+09,-1.667555646189766705e-02,-1.442237688675220356e-02,0.000000000000000000e+00,-2.884475377350440711e-02,-1.531912043742033810e-02,6.531053519819965403e-02,9.102238625265209049e-02
1.300000000000000044e+00,1.685056085914775372e+09,-1.738519702815128840e-02,-1.442237688675220356e-02,0.000000000000000000e+00,-2.884475377350440711e-02,-2.369309865444102492e-02,6.680973838317015578e-02,8.888792514199504724e-02
1.316666666666666652e+00,1.685056085930775166e+09,-1.807611101283846528e-02,-3.044724009425465311e-02,0.000000000000000000e+00,-6.089448018850930622e-02,-3.211313099158139006e-02,6.827028568796007779e-02,8.638470498577452417e-02
1.333333333333333259e+00,1.685056085946775436e+09,-1.874356589942741819e-02,-3.044724009425465311e-02,0.000000000000000000e+00,-6.089448018850930622e-02,-4.050286111402932182e-02,6.968829960911926413e-02,8.378418937781061115e-02
1.350000000000000089e+00,1.685056085965762377e+09,-1.938287558560824672e-02,-4.647210330175770288e-02,0.000000000000000000e+00,-9.294420660351540575e-02,-4.878381936793578511e-02,7.105997365580424274e-02,8.082491661996406285e-02
1.366666666666666696e+00,1.685056085982765198e+09,-1.998945171535092269e-02,-4.647210330175770288e-02,0.000000000000000000e+00,-9.294420660351540575e-02,-5.687616293690881536e-02,7.238161750755676971e-02,7.778080166423376185e-02
1.383333333333333304e+00,1.685056085999763489e+09,-2.055885590213318848e-02,-4.647210330175770288e-02,0.000000000000000000e+00,-9.294420660351540575e-02,-6.469945222061088130e-02,7.365186600810426365e-02,7.465769390498011582e-02
1.399999999999999911e+00,1.685056086016741514e+09,-2.108685226950226047e-02,-4.647210330175770288e-02,0.000000000000000000e+00,-9.294420660351540575e-02,-7.217345624288531991e-02,7.486946176470138381e-02,7.146267215597228162e-02
1.416666666666666741e+00,1.685056086034742355e+09,-2.156945971228598630e-02,-6.249696650926014896e-02,0.000000000000000000e+00,-1.249939330185202979e-01,-7.921897940682212647e-02,7.603106196353615065e-02,6.793913952520280741e-02
1.433333333333333348e+00,1.685056086050741673e+09,-2.200300326538470741e-02,-6.249696650926014896e-02,0.000000000000000000e+00,-1.249939330185202979e-01,-8.575870149345442284e-02,7.713352002093212811e-02,6.436575366776159379e-02
1.449999999999999956e+00,1.685056086066751242e+09,-2.238416395752416618e-02,-6.249696650926014896e-02,0.000000000000000000e+00,-1.249939330185202979e-01,-9.171802245518292929e-02,7.817609210082362980e-02,6.075293177179603987e-02
1.466666666666666563e+00,1.685056086084748745e+09,-2.271002652492693993e-02,-7.852182971676319179e-02,0.000000000000000000e+00,-1.570436594335263836e-01,-9.702590328975606304e-02,7.915600299796049510e-02,5.684722532455052657e-02
1.483333333333333393e+00,1.685056086101747990e+09,-2.297812436478096146e-02,-7.852182971676319179e-02,0.000000000000000000e+00,-1.570436594335263836e-01,-1.016156941001235686e-01,8.007072430156969567e-02,5.293021195732654921e-02
1.500000000000000000e+00,1.685056086118763208e+09,-2.318648112077969364e-02,-7.852182971676319179e-02,0.000000000000000000e+00,-1.570436594335263836e-01,-1.054259403534030526e-01,8.092017679578554501e-02,4.901496329527459811e-02
1.516666666666666607e+00,1.685056086134766579e+09,-2.333364831292410874e-02,-7.852182971676319179e-02,0.000000000000000000e+00,-1.570436594335263836e-01,-1.084011583513749544e-01,8.170450498313823473e-02,4.511525197345293836e-02
1.533333333333333215e+00,1.685056086153763294e+09,-2.341873845116557856e-02,-9.454669292426565175e-02,0.000000000000000000e+00,-1.890933858485313035e-01,-1.104925710172923181e-01,8.242187438280437761e-02,4.098056150809416959e-02
1.550000000000000044e+00,1.685056086169762135e+09,-2.344145310719608979e-02,-9.454669292426565175e-02,0.000000000000000000e+00,-1.890933858485313035e-01,-1.116587952903860675e-01,8.307074228074619315e-02,3.689493547324149136e-02
1.566666666666666652e+00,1.685056086185764074e+09,-2.340210546052978041e-02,-9.454669292426565175e-02,0.000000000000000000e+00,-1.890933858485313035e-01,-1.118664727003461645e-01,8.365205203563950975e-02,3.287340629127130653e-02
1.583333333333333259e+00,1.685056086203715086e+09,-2.330163688365085445e-02,-1.105715561317686946e-01,0.000000000000000000e+00,-2.211431122635373892e-01,-1.110908350683878359e-01,8.416478552913848887e-02,2.866629961110305630e-02
1.600000000000000089e+00,1.685056086219763517e+09,-2.314162718601961780e-02,-1.105715561317686946e-01,0.000000000000000000e+00,-2.211431122635373892e-01,-1.093161977474286367e-01,8.460822677943415082e-02,2.455806246282077679e-02
1.616666666666666696e+00,1.685056086236765146e+09,-2.292429819764445209e-02,-1.105715561317686946e-01,0.000000000000000000e+00,-2.211431122635373892e-01,-1.065363733685759651e-01,8.498414879308684167e-02,2.056367495749567356e-02
1.633333333333333304e+00,1.685056086255745888e+09,-2.265251043916410162e-02,-1.105715561317686946e-01,0.000000000000000000e+00,-2.211431122635373892e-01,-1.027549997008384425e-01,8.529457167366388815e-02,1.669780947970850998e-02
1.649999999999999911e+00,1.685056086271763802e+09,-2.232975269630193410e-02,-1.265964193392711545e-01,0.000000000000000000e+00,-2.531928386785423091e-01,-9.798577595094613846e-02,8.553954278367510711e-02,1.270980178152700778e-02
1.666666666666666741e+00,1.685056086287763119e+09,-2.196012439142830050e-02,-1.265964193392711545e-01,0.000000000000000000e+00,-2.531928386785423091e-01,-9.225260262490767027e-02,8.571938979309028095e-02,8.882471072708850515e-03
1.683333333333333348e+00,1.685056086304764509e+09,-2.154831072302029749e-02,-1.265964193392711545e-01,0.000000000000000000e+00,-2.531928386785423091e-01,-8.558962093584063235e-02,8.583689688454124167e-02,5.228529976672687159e-03
1.699999999999999956e+00,1.685056086322715282e+09,-2.109955062421072641e-02,-1.265964193392711545e-01,0.000000000000000000e+00,-2.531928386785423091e-01,-7.804114866655960381e-02,8.589505224064863942e-02,1.759748487134777176e-03
1.716666666666666563e+00,1.685056086339762926e+09,-2.061959767348235315e-02,-1.426212825467741974e-01,0.000000000000000000e+00,-2.852425650935483947e-01,-6.966151037222020892e-02,8.589481771948080657e-02,-1.778063540347298455e-03
1.733333333333333393e+00,1.685056086356758595e+09,-2.011467417297924803e-02,-1.426212825467741974e-01,0.000000000000000000e+00,-2.852425650935483947e-01,-6.051476082940999285e-02,8.583737166249492956e-02,-5.106218206297821749e-03
1.750000000000000000e+00,1.685056086372768641e+09,-1.959141869193315941e-02,-1.426212825467741974e-01,0.000000000000000000e+00,-2.852425650935483947e-01,-5.067430169397606210e-02,8.572627521658554572e-02,-8.216714831067610525e-03
1.766666666666666607e+00,1.685056086390763760e+09,-1.905682745337463138e-02,-1.426212825467741974e-01,0.000000000000000000e+00,-2.852425650935483947e-01,-4.022239241087574579e-02,8.556521040653457255e-02,-1.110304460364414277e-02
1.783333333333333215e+00,1.685056086409741879e+09,-1.851819002066708297e-02,-1.426212825467741974e-01,0.000000000000000000e+00,-2.852425650935483947e-01,-2.924955751497740689e-02,8.535795433501333629e-02,-1.376030253315209395e-02
1.800000000000000044e+00,1.685056086424721479e+09,-1.798301981549930290e-02,-1.426212825467741974e-01,0.000000000000000000e+00,-2.852425650935483947e-01,-1.785389356148495144e-02,8.510835162791610675e-02,-1.618528609452585601e-02
1.816666666666666652e+00,1.685056086442764282e+09,-1.745898006987137152e-02,-1.426212825467741974e-01,0.000000000000000000e+00,-2.852425650935483947e-01,-6.140280017537954292e-03,8.482028535821625748e-02,-1.837657920089787872e-02
1.833333333333333259e+00,1.685056086459742069e+09,-1.695380588040078240e-02,-1.426212825467741974e-01,0.000000000000000000e+00,-2.852425650935483947e-01,5.780500478467196467e-03,8.449764670339102168e-02,-2.033462024721109304e-02
1.849999999999999867e+00,1.685056086475762129e+09,-1.647522309309052899e-02,-1.426212825467741974e-01,0.000000000000000000e+00,-2.852425650935483947e-01,1.779272603727974356e-02,8.414430361132149705e-02,-2.206175309696647296e-02
1.866666666666666696e+00,1.685056086492764711e+09,-1.603086479973080472e-02,-1.426212825467741974e-01,0.000000000000000000e+00,-2.852425650935483947e-01,2.977677616033552396e-02,8.376406876718973937e-02,-2.356226002594202090e-02
1.883333333333333304e+00,1.685056086508774042e+09,-1.562818627259500437e-02,-1.586461457542766296e-01,0.000000000000000000e+00,-3.172922915085532591e-01,4.161024068867811426e-02,8.335845380693050755e-02,-2.510724348344276283e-02
1.899999999999999911e+00,1.685056086527740002e+09,-1.527437920135556182e-02,-1.586461457542766296e-01,0.000000000000000000e+00,-3.172922915085532591e-01,5.316908775170856721e-02,8.292889902998952512e-02,-2.643563967321124752e-02
1.916666666666666741e+00,1.685056086543715000e+09,-1.497628612459786686e-02,-1.586461457542766296e-01,0.000000000000000000e+00,-3.172922915085532591e-01,6.432888058594833647e-02,8.247892919145163870e-02,-2.755762425414550257e-02
1.933333333333333348e+00,1.685056086561739206e+09,-1.474031596742839470e-02,-1.586461457542766296e-01,0.000000000000000000e+00,-3.172922915085532591e-01,7.496603235292652323e-02,8.201188378767802767e-02,-2.848524740706106367e-02
1.949999999999999956e+00,1.685056086578751087e+09,-1.457236160605612091e-02,-1.586461457542766296e-01,0.000000000000000000e+00,-3.172922915085532591e-01,8.495908743446498046e-02,8.153088636754933505e-02,-2.923236762559590363e-02
1.966666666666666563e+00,1.685056086597749949e+09,-1.447772037956122394e-02,-1.586461457542766296e-01,0.000000000000000000e+00,-3.172922915085532591e-01,9.419001713136351817e-02,8.103881511701148399e-02,-2.981456518543993198e-02
1.983333333333333393e+00,1.685056086614763498e+09,-1.446101845815474934e-02,-1.586461457542766296e-01,0.000000000000000000e+00,-3.172922915085532591e-01,1.025455172452941766e-01,8.053827505307191437e-02,-3.024903559665007013e-02
2.000000000000000000e+00,1.685056086635737181e+09,-1.452613995599506824e-02,-1.746710089617797002e-01,0.000000000000000000e+00,-3.493420179235594003e-01,1.099182946902995950e-01,8.002935879447950485e-02,-3.081933124258232765e-02
2.016666666666666607e+00,1.685056086648741007e+09,-1.467616164509295135e-02,-1.746710089617797002e-01,0.000000000000000000e+00,-3.493420179235594003e-01,1.162083300652738682e-01,7.951188516079860102e-02,-3.127623559050985574e-02
2.033333333333333215e+00,1.685056086664745331e+09,-1.491329408515494961e-02,-1.746710089617797002e-01,0.000000000000000000e+00,-3.493420179235594003e-01,1.213241030268710774e-01,7.898756615562284311e-02,-3.164103168424924062e-02
2.049999999999999822e+00,1.685056086681742430e+09,-1.523882993266377495e-02,-1.746710089617797002e-01,0.000000000000000000e+00,-3.493420179235594003e-01,1.251837673369402826e-01,7.845775070013027985e-02,-3.193600358917066812e-02
2.066666666666666430e+00,1.685056086698774338e+09,-1.565310013144902840e-02,-1.746710089617797002e-01,0.000000000000000000e+00,-3.493420179235594003e-01,1.277162626222132502e-01,7.792340957740150065e-02,-3.218424157210132697e-02
2.083333333333333481e+00,1.685056086715743065e+09,-1.615543861697873312e-02,-1.746710089617797002e-01,0.000000000000000000e+00,-3.493420179235594003e-01,1.288623501777467761e-01,7.738512373989631099e-02,-3.240943338099668003e-02
2.100000000000000089e+00,1.685056086733762503e+09,-1.674415608820681300e-02,-1.746710089617797002e-01,0.000000000000000000e+00,-3.493420179235594003e-01,1.285755605694732240e-01,7.684307619765741448e-02,-3.263564331196288498e-02
2.116666666666666696e+00,1.685056086751762152e+09,-1.741652331477152454e-02,-1.746710089617797002e-01,0.000000000000000000e+00,-3.493420179235594003e-01,1.268230413438272142e-01,7.629704767530104403e-02,-3.288708091657239346e-02
2.133333333333333304e+00,1.685056086771770477e+09,-1.816876435447557434e-02,-1.746710089617797002e-01,0.000000000000000000e+00,-3.493420179235594003e-01,1.235862938312062009e-01,7.574641619370710288e-02,-3.318786135382134628e-02
2.149999999999999911e+00,1.685056086787766218e+09,-1.899605995720383966e-02,-1.906958721692821324e-01,0.000000000000000000e+00,-3.813917443385642647e-01,1.188617888311344073e-01,7.518794733567958632e-02,-3.382662721809628903e-02
2.166666666666666519e+00,1.685056086803768396e+09,-1.989256132774734273e-02,-1.906958721692821324e-01,0.000000000000000000e+00,-3.813917443385642647e-01,1.126614518853250452e-01,7.461806421294131519e-02,-3.455731776675729366e-02
2.183333333333333126e+00,1.685056086820771217e+09,-2.085141431248070665e-02,-1.906958721692821324e-01,0.000000000000000000e+00,-3.813917443385642647e-01,1.050130098740655882e-01,7.403504743110825292e-02,-3.540234868984450112e-02
2.200000000000000178e+00,1.685056086836762428e+09,-2.186479396460556945e-02,-1.906958721692821324e-01,0.000000000000000000e+00,-3.813917443385642647e-01,9.596019180394922687e-02,7.343681313690086920e-02,-3.638304240172599707e-02
2.216666666666666785e+00,1.685056086853762150e+09,-2.292394933092796114e-02,-1.906958721692821324e-01,0.000000000000000000e+00,-3.813917443385642647e-01,8.556277788230698400e-02,7.282093330540141685e-02,-3.751938080834280043e-02
2.233333333333333393e+00,1.685056086870740891e+09,-2.401925819109162336e-02,-1.906958721692821324e-01,0.000000000000000000e+00,-3.813917443385642647e-01,7.389649228604563969e-02,7.218466009889837331e-02,-3.882976393322703362e-02
2.250000000000000000e+00,1.685056086886740208e+09,-2.514029136909530157e-02,-1.906958721692821324e-01,0.000000000000000000e+00,-3.813917443385642647e-01,6.105273641921653283e-02,7.152495417844932646e-02,-4.033077694194574236e-02
2.266666666666666607e+00,1.685056086905750275e+09,-2.627588612804671042e-02,-1.906958721692821324e-01,0.000000000000000000e+00,-3.813917443385642647e-01,4.713816090292590605e-02,7.083851680707407839e-02,-4.203696809167643128e-02
2.283333333333333215e+00,1.685056086922753572e+09,-2.741422805368931570e-02,-2.067207353767851752e-01,0.000000000000000000e+00,-4.134414707535703504e-01,3.227407604065674063e-02,7.011961217958949388e-02,-4.422550778646065772e-02
2.299999999999999822e+00,1.685056086937750340e+09,-2.854294073153364197e-02,-2.067207353767851752e-01,0.000000000000000000e+00,-4.134414707535703504e-01,1.659570203854403986e-02,6.936236866787960642e-02,-4.663701483038812379e-02
2.316666666666666430e+00,1.685056086957748890e+09,-2.964918242763198153e-02,-2.067207353767851752e-01,0.000000000000000000e+00,-4.134414707535703504e-01,2.512618198383564016e-04,6.856300894842203009e-02,-4.927881300354632760e-02
2.333333333333333481e+00,1.685056086976749897e+09,-3.071974889530962316e-02,-2.067207353767851752e-01,0.000000000000000000e+00,-4.134414707535703504e-01,-1.659907915858498118e-02,6.771765676838990833e-02,-5.215545773243703692e-02
2.350000000000000089e+00,1.685056086992753029e+09,-3.174118135061903406e-02,-2.067207353767851752e-01,0.000000000000000000e+00,-4.134414707535703504e-01,-3.378442011686573487e-02,6.682238418528010926e-02,-5.526860440755475279e-02
2.366666666666666696e+00,1.685056087008752108e+09,-3.269987858892808158e-02,-2.067207353767851752e-01,0.000000000000000000e+00,-4.134414707535703504e-01,-5.112447167676800047e-02,6.587326079705017878e-02,-5.861690113688403786e-02
2.383333333333333304e+00,1.685056087025748730e+09,-3.358221215483619265e-02,-2.227455985842876351e-01,0.000000000000000000e+00,-4.454911971685752703e-01,-6.843103308024285625e-02,6.486419117874769880e-02,-6.246077537965705889e-02
2.399999999999999911e+00,1.685056087041748285e+09,-3.437464342837426995e-02,-2.227455985842876351e-01,0.000000000000000000e+00,-4.454911971685752703e-01,-8.550958942550693220e-02,6.378922900883661484e-02,-6.652339967657587561e-02
2.416666666666666519e+00,1.685056087058741808e+09,-3.506384145291015220e-02,-2.227455985842876351e-01,0.000000000000000000e+00,-4.454911971685752703e-01,-1.021610170529894390e-01,6.264481766217941394e-02,-7.079409859053995002e-02
2.433333333333333126e+00,1.685056087075764894e+09,-3.563680030496622214e-02,-2.227455985842876351e-01,0.000000000000000000e+00,-4.454911971685752703e-01,-1.181833839018484045e-01,6.142760485405056314e-02,-7.525903549051336794e-02
2.450000000000000178e+00,1.685056087093765259e+09,-3.608095479374263254e-02,-2.227455985842876351e-01,0.000000000000000000e+00,-4.454911971685752703e-01,-1.333738304396588914e-01,6.013449501817925980e-02,-7.990124947170783309e-02
2.466666666666666785e+00,1.685056087111763716e+09,-3.638429327886508191e-02,-2.387704617917906780e-01,0.000000000000000000e+00,-4.775409235835813559e-01,-1.475305156566284193e-01,5.876048744367134979e-02,-8.496559152134024184e-02
2.483333333333333393e+00,1.685056087127763748e+09,-3.653546640895775910e-02,-2.387704617917906780e-01,0.000000000000000000e+00,-4.775409235835813559e-01,-1.604546116238810549e-01,5.730098857520334044e-02,-9.015984387646676368e-02
2.500000000000000000e+00,1.685056087143773317e+09,-3.652389061111703528e-02,-2.387704617917906780e-01,0.000000000000000000e+00,-4.775409235835813559e-01,-1.719523292548207349e-01,5.575404819638074549e-02,-9.545828334842101914e-02
2.516666666666666607e+00,1.685056087160775185e+09,-3.633984520215304687e-02,-2.387704617917906780e-01,0.000000000000000000e+00,-4.775409235835813559e-01,-1.818369571897850978e-01,5.411816704638669484e-02,-1.008325258481198999e-01
2.533333333333333215e+00,1.685056087177772045e+09,-3.597456204631589022e-02,-2.547953249992931379e-01,0.000000000000000000e+00,-5.095906499985862759e-01,-1.899308951571572757e-01,5.239012618026711587e-02,-1.065165886512745019e-01
2.549999999999999822e+00,1.685056087195761919e+09,-3.542030675074171742e-02,-2.547953249992931379e-01,0.000000000000000000e+00,-5.095906499985862759e-01,-1.960676627567785879e-01,5.056728840628258587e-02,-1.122081340065578386e-01
2.566666666666666430e+00,1.685056087212713480e+09,-3.467045046848957895e-02,-2.708201882067962085e-01,0.000000000000000000e+00,-5.416403764135924170e-01,-2.000938643713069121e-01,4.864760819904959815e-02,-1.181370213422932441e-01
2.583333333333333481e+00,1.685056087228771448e+09,-3.371953146910856847e-02,-2.868450514142986130e-01,0.000000000000000000e+00,-5.736901028285972259e-01,-2.018710908435867590e-01,4.662747327025554278e-02,-1.242621554511306181e-01
2.600000000000000089e+00,1.685056087246781588e+09,-3.256330573733608180e-02,-2.868450514142986130e-01,0.000000000000000000e+00,-5.736901028285972259e-01,-2.012777386673415270e-01,4.450618073365888994e-02,-1.302762427492279718e-01
2.616666666666666696e+00,1.685056087262762070e+09,-3.119878597083377766e-02,-3.028699146218016836e-01,0.000000000000000000e+00,-6.057398292436033671e-01,-1.982107277272257273e-01,4.228369433247831932e-02,-1.364051003871978585e-01
2.633333333333333304e+00,1.685056087281762600e+09,-2.962426846671248337e-02,-3.028699146218016836e-01,0.000000000000000000e+00,-6.057398292436033671e-01,-1.925870990934941407e-01,3.996068356326624993e-02,-1.423397065132407102e-01
2.649999999999999911e+00,1.685056087297742128e+09,-2.783934751279749931e-02,-3.188947778293041435e-01,0.000000000000000000e+00,-6.377895556586082870e-01,-1.843454750256042773e-01,3.753850735783921533e-02,-1.483048678553954836e-01
2.666666666666666519e+00,1.685056087313715458e+09,-2.584491703183161224e-02,-3.188947778293041435e-01,0.000000000000000000e+00,-6.377895556586082870e-01,-1.734473641657560128e-01,3.501924096028043165e-02,-1.539913038244210275e-01
2.683333333333333126e+00,1.685056087332742214e+09,-2.364315936371456234e-02,-3.349196410368071586e-01,0.000000000000000000e+00,-6.698392820736143172e-01,-1.598782959036369744e-01,3.240564684765473435e-02,-1.596243419941360542e-01
2.700000000000000178e+00,1.685056087348761797e+09,-2.123752121097420217e-02,-3.509445042443096185e-01,0.000000000000000000e+00,-7.018890084886192371e-01,-1.436487690619931701e-01,2.969897507181978175e-02,-1.651608914400728156e-01
2.716666666666666785e+00,1.685056087364742279e+09,-1.863267691442930044e-02,-3.509445042443096185e-01,0.000000000000000000e+00,-7.018890084886192371e-01,-1.247950013817042819e-01,2.690339627465742484e-02,-1.702943044033440323e-01
2.733333333333333393e+00,1.685056087382739305e+09,-1.583447936787157548e-02,-3.509445042443096185e-01,0.000000000000000000e+00,-7.018890084886192371e-01,-1.033794677660145878e-01,2.402592754852252502e-02,-1.749889018773811977e-01
2.750000000000000000e+00,1.685056087398739815e+09,-1.284989902098238393e-02,-3.669693674518120785e-01,0.000000000000000000e+00,-7.339387349036241570e-01,-7.949121686604766757e-02,2.107195004633094504e-02,-1.794759341138206232e-01
2.766666666666666607e+00,1.685056087416741610e+09,-9.686951556987974041e-03,-3.669693674518120785e-01,0.000000000000000000e+00,-7.339387349036241570e-01,-5.324595734178355633e-02,1.804743343300455743e-02,-1.834550062470541587e-01
2.783333333333333215e+00,1.685056087432763100e+09,-6.354614964181909409e-03,-3.829942306593151491e-01,0.000000000000000000e+00,-7.659884613186302982e-01,-2.478590700103745770e-02,1.495886609647107193e-02,-1.871627745381932162e-01
2.799999999999999822e+00,1.685056087452713966e+09,-2.862736846826398340e-03,-3.829942306593151491e-01,0.000000000000000000e+00,-7.659884613186302982e-01,5.720600010951540186e-03,1.181322831452874186e-02,-1.903050306003902792e-01
2.816666666666666430e+00,1.685056087467751026e+09,7.780670604333757680e-04,-3.829942306593151491e-01,0.000000000000000000e+00,-7.659884613186302982e-01,3.807975074272630656e-02,8.620123070237021429e-03,-1.928605000213750309e-01
2.833333333333333481e+00,1.685056087484748602e+09,4.556522101076414082e-03,-3.829942306593151491e-01,0.000000000000000000e+00,-7.659884613186302982e-01,7.207313633497104688e-02,5.389474815020142522e-03,-1.948118700048972196e-01
2.850000000000000089e+00,1.685056087502749205e+09,8.460810455725931850e-03,-3.829942306593151491e-01,0.000000000000000000e+00,-7.659884613186302982e-01,1.074588787560096376e-01,2.131460747340022284e-03,-1.961461118022722050e-01
2.866666666666666696e+00,1.685056087518739700e+09,1.247869219228277607e-02,-3.829942306593151491e-01,0.000000000000000000e+00,-7.659884613186302982e-01,1.439729976354465202e-01,-1.143563049167758191e-03,-1.968547752228289038e-01
2.883333333333333304e+00,1.685056087535740137e+09,1.659763027377295780e-02,-3.829942306593151491e-01,0.000000000000000000e+00,-7.659884613186302982e-01,1.813310112343826663e-01,-4.425140114260709551e-03,-1.969342518148181620e-01
2.899999999999999911e+00,1.685056087552741766e+09,2.080491813058055542e-02,-3.829942306593151491e-01,0.000000000000000000e+00,-7.659884613186302982e-01,2.192297633743010843e-01,-7.702796217317654792e-03,-1.963860034998447801e-01
2.916666666666666519e+00,1.685056087567715883e+09,2.508780835871403034e-02,-3.829942306593151491e-01,0.000000000000000000e+00,-7.659884613186302982e-01,2.573494659565481180e-01,-1.096612546044790915e-02,-1.952167536684273064e-01
2.933333333333333126e+00,1.685056087587763309e+09,2.943364107641289334e-02,-3.829942306593151491e-01,0.000000000000000000e+00,-7.659884613186302982e-01,2.953559445604487799e-01,-1.420487922996909944e-02,-1.934386380005538864e-01
2.950000000000000178e+00,1.685056087604714870e+09,3.382997045829656824e-02,-3.990190938668175535e-01,0.000000000000000000e+00,-7.980381877336351071e-01,3.329030725305029415e-01,-1.741127066663434794e-02,-1.913341802528272240e-01
2.966666666666666785e+00,1.685056087620740891e+09,3.826468796977892245e-02,-3.990190938668175535e-01,0.000000000000000000e+00,-7.980381877336351071e-01,3.696353769717133364e-01,-2.057780499204055202e-02,-1.886573745423394122e-01
2.983333333333333393e+00,1.685056087637763500e+09,4.272614084486277969e-02,-3.990190938668175535e-01,0.000000000000000000e+00,-7.980381877336351071e-01,4.051907981862154506e-01,-2.369518467815972737e-02,-1.854371331175636017e-01
3.000000000000000000e+00,1.685056087658717394e+09,4.720324438768445235e-02,-3.990190938668175535e-01,0.000000000000000000e+00,-7.980381877336351071e-01,4.392035823228601643e-01,-2.675464059250201587e-02,-1.817079357289539399e-01
3.016666666666666607e+00,1.685056087670741558e+09,5.168558673216411270e-02,-3.990190938668175535e-01,0.000000000000000000e+00,-7.980381877336351071e-01,4.713072853923114813e-01,-2.974802411615144748e-02,-1.775097490132129530e-01
3.033333333333333215e+00,1.685056087688742161e+09,5.616352476448665393e-02,-3.990190938668175535e-01,0.000000000000000000e+00,-7.980381877336351071e-01,5.011378653404645611e-01,-3.266789750226210820e-02,-1.728878961025415162e-01
3.049999999999999822e+00,1.685056087706715584e+09,6.062826999931909822e-02,-3.990190938668175535e-01,0.000000000000000000e+00,-7.980381877336351071e-01,5.283368375888232160e-01,-3.550762164353998829e-02,-1.678928762325635482e-01
3.066666666666666430e+00,1.685056087725750923e+09,6.507196330198229683e-02,-8.217844907854144898e-01,-8.455307938371937615e-01,-7.980381877336351071e-01,5.525544683562387815e-01,-3.831983298461304199e-02,-1.695678319319767480e-01
3.083333333333333481e+00,1.685056087740766764e+09,6.948773746429279252e-02,-9.441531249944304927e-01,-1.122317788670230687e+00,-7.659884613186302982e-01,5.734529791855811354e-01,-4.117374401236455900e-02,-1.728922566677060513e-01
3.100000000000000089e+00,1.685056087755771399e+09,7.386976677041671990e-02,-9.811104794181598754e-01,-1.196232497517689675e+00,-7.659884613186302982e-01,5.907097354230977926e-01,-4.408532400429311660e-02,-1.764873557423618511e-01
3.116666666666666696e+00,1.685056087775758743e+09,7.821330282957125735e-02,-1.125008263663744623e+00,-1.484028066008858948e+00,-7.659884613186302982e-01,6.040203909472834365e-01,-4.707436251663277976e-02,-1.821814484419632119e-01
3.133333333333333304e+00,1.685056087789760590e+09,8.251469610338388327e-02,-1.320803609440523552e+00,-1.875618757562416805e+00,-7.659884613186302982e-01,6.131019612263356455e-01,-5.018330510287748181e-02,-1.908675333259549634e-01
3.149999999999999911e+00,1.685056087807715893e+09,8.677140271562275298e-02,-1.332300180378350962e+00,-1.930661625853077545e+00,-7.339387349036241570e-01,6.176957968047953607e-01,-5.343676945339586454e-02,-1.995241420349958550e-01
3.166666666666666519e+00,1.685056087825715780e+09,9.098197629919380081e-02,-1.357462634454081662e+00,-1.980986534004539168e+00,-7.339387349036241570e-01,6.175704295850097392e-01,-5.683680772711253298e-02,-2.084556405090970399e-01
3.183333333333333126e+00,1.685056087841759920e+09,9.514604480796962083e-02,-1.323352257379647678e+00,-1.944815506270676009e+00,-7.018890084886192371e-01,6.125242647798474493e-01,-6.038045632220424841e-02,-2.167591251240020001e-01
3.200000000000000178e+00,1.685056087859763384e+09,9.926427239732993346e-02,-1.253070852571350979e+00,-1.836302423069087641e+00,-6.698392820736143172e-01,6.023880921693797186e-01,-6.405304215662427358e-02,-2.239312519629481635e-01
3.216666666666666785e+00,1.685056087877741814e+09,1.033383066552995000e-01,-1.217387822117183438e+00,-1.796986088575758700e+00,-6.377895556586082870e-01,5.870273912942186589e-01,-6.784136589032067899e-02,-2.306489354096345201e-01
3.233333333333333393e+00,1.685056087894763947e+09,1.073707116438958054e-01,-1.170696218004884104e+00,-1.735652606766164840e+00,-6.057398292436033671e-01,5.663444064571596659e-01,-7.173713084153375552e-02,-2.368257006508835139e-01
3.250000000000000000e+00,1.685056087910763264e+09,1.113648873857206317e-01,-1.110637060164852530e+00,-1.647584017501108056e+00,-5.736901028285972259e-01,5.402799688764224895e-01,-7.573029337447922948e-02,-2.423384896394118748e-01
3.266666666666666607e+00,1.685056087929766655e+09,1.153249766019367045e-01,-9.344998816347381831e-01,-1.295309660440879140e+00,-5.736901028285972259e-01,5.088150450294138816e-01,-7.979459209073024029e-02,-2.453689381999162589e-01
3.283333333333333215e+00,1.685056087946763515e+09,1.192557596725398184e-01,-8.299184318824825990e-01,-1.086146760936367972e+00,-5.736901028285972259e-01,4.719719921346104408e-01,-8.389962365474891437e-02,-2.472296806316954532e-01
3.299999999999999822e+00,1.685056087964763880e+09,1.231625389463207182e-01,-7.622943365539565086e-01,-9.508985702793157913e-01,-5.736901028285972259e-01,4.298155038282342466e-01,-8.803189298736793789e-02,-2.486387251778384710e-01
3.316666666666666430e+00,1.685056087980740070e+09,1.270510136741749563e-01,-6.183965523083718718e-01,-6.631030017881465177e-01,-5.736901028285972259e-01,3.824532313869779543e-01,-9.217411824476137716e-02,-2.484288886024682563e-01
3.333333333333333481e+00,1.685056087996741295e+09,1.309271469736631166e-01,-2.868450514142986130e-01,0.000000000000000000e+00,-5.736901028285972259e-01,3.300360683113324756e-01,-9.627432103461165680e-02,-2.436088355310007392e-01
3.350000000000000089e+00,1.685056088014765024e+09,1.347970263532003721e-01,-2.708201882067962085e-01,0.000000000000000000e+00,-5.416403764135924170e-01,2.727580886979370511e-01,-1.003005532557615376e-01,-2.395503049683318508e-01
3.366666666666666696e+00,1.685056088029742002e+09,1.386667194293883520e-01,-2.868450514142986130e-01,0.000000000000000000e+00,-5.736901028285972259e-01,2.108561325734362168e-01,-1.042704671583027237e-01,-2.368468730464717009e-01
3.383333333333333304e+00,1.685056088050739765e+09,1.425421265593139752e-01,-2.868450514142986130e-01,0.000000000000000000e+00,-5.736901028285972259e-01,1.446090342153169284e-01,-1.082048473437928343e-01,-2.352830931476312948e-01
3.399999999999999911e+00,1.685056088065762281e+09,1.464288321798700165e-01,-2.868450514142986130e-01,0.000000000000000000e+00,-5.736901028285972259e-01,7.433649242423158443e-02,-1.121230865995650056e-01,-2.349066632083602335e-01
3.416666666666666519e+00,1.685056088081762314e+09,1.503319566971564880e-01,-2.868450514142986130e-01,0.000000000000000000e+00,-5.736901028285972259e-01,3.975847133579232221e-04,-1.160453164945334514e-01,-2.357585577584074832e-01
3.433333333333333126e+00,1.685056088097762108e+09,1.542560107999169650e-01,-2.868450514142986130e-01,0.000000000000000000e+00,-5.736901028285972259e-01,-7.681106958124711559e-02,-1.199922910657584274e-01,-2.378725185371082795e-01
3.449999999999999734e+00,1.685056088114762545e+09,1.582047540810033459e-01,-2.708201882067962085e-01,0.000000000000000000e+00,-5.416403764135924170e-01,-1.568574892153526135e-01,-1.239830490246294076e-01,-2.410097218686064469e-01
3.466666666666666785e+00,1.685056088133761883e+09,1.621810598396093428e-01,-2.868450514142986130e-01,0.000000000000000000e+00,-5.736901028285972259e-01,-2.392768428867925179e-01,-1.280392575579586412e-01,-2.457222115736287238e-01
3.483333333333333393e+00,1.685056088150761604e+09,1.661867879041468432e-01,-2.868450514142986130e-01,0.000000000000000000e+00,-5.736901028285972259e-01,-3.235742789368969974e-01,-1.321849998988713637e-01,-2.517501247385692809e-01
3.500000000000000000e+00,1.685056088167763233e+09,1.702226672611981406e-01,-2.868450514142986130e-01,0.000000000000000000e+00,-5.736901028285972259e-01,-4.092280558912463340e-01,-1.364422054232373727e-01,-2.590941376692956766e-01
3.516666666666666607e+00,1.685056088185764551e+09,1.742881902001095773e-01,-2.868450514142986130e-01,0.000000000000000000e+00,-5.736901028285972259e-01,-4.956929539939647911e-01,-1.408327393792544735e-01,-2.677459038034162853e-01
3.533333333333333215e+00,1.685056088200771809e+09,1.783815195860249947e-01,-2.868450514142986130e-01,0.000000000000000000e+00,-5.736901028285972259e-01,-5.824039451750048224e-01,-1.453782510166197195e-01,-2.776878754425394225e-01
3.549999999999999822e+00,1.685056088217774153e+09,1.824994107571145385e-01,-2.708201882067962085e-01,0.000000000000000000e+00,-5.416403764135924170e-01,-6.687800963201795401e-01,-1.500978059462133307e-01,-2.886283252550620460e-01
3.566666666666666430e+00,1.685056088234772205e+09,1.866371494054211433e-01,-2.708201882067962085e-01,0.000000000000000000e+00,-5.416403764135924170e-01,-7.542286783126596061e-01,-1.550099928064097576e-01,-3.008002861701898900e-01
3.583333333333333481e+00,1.685056088253766537e+09,1.907885066462512991e-01,-2.708201882067962085e-01,0.000000000000000000e+00,-5.416403764135924170e-01,-8.381494511063342090e-01,-1.601349556635555949e-01,-3.141581506349295783e-01
3.600000000000000089e+00,1.685056088269762516e+09,1.949457123097724787e-01,-2.708201882067962085e-01,0.000000000000000000e+00,-5.416403764135924170e-01,-9.199390930972877189e-01,-1.654920014263711603e-01,-3.286470928938487468e-01
3.616666666666666696e+00,1.685056088286741495e+09,1.990994473020344657e-01,-2.708201882067962085e-01,0.000000000000000000e+00,-5.416403764135924170e-01,-9.989957413004467712e-01,-1.710994476839311496e-01,-3.442032454614094572e-01
3.633333333333333304e+00,1.685056088304740191e+09,2.032388556827821324e-01,-2.708201882067962085e-01,0.000000000000000000e+00,-5.416403764135924170e-01,-1.074723607333093467e+00,-1.769744740980382369e-01,-3.607539489729671978e-01
3.649999999999999911e+00,1.685056088320760727e+09,2.073515768961495809e-01,2.012825426303771907e-05,5.416806329221184324e-01,-5.416403764135924170e-01,-1.146537632971823317e+00,-1.830955699686471760e-01,-3.737414781809842435e-01
3.666666666666666519e+00,1.685056088336761713e+09,2.114237983697313250e-01,-2.708201882067962085e-01,0.000000000000000000e+00,-5.416403764135924170e-01,-1.213868148100180511e+00,-1.894780391393717511e-01,-3.921038146153759119e-01
3.683333333333333126e+00,1.685056088354738951e+09,2.154403284698832299e-01,1.679720279732945312e-02,5.752347820082512886e-01,-5.416403764135924170e-01,-1.276165493212554347e+00,-1.961328897184321518e-01,-4.064384355432359430e-01
3.699999999999999734e+00,1.685056088372761965e+09,2.193846895687897036e-01,9.291669449115615154e-03,5.602237153118235780e-01,-5.416403764135924170e-01,-1.332904568296514602e+00,-2.030335442386679567e-01,-4.215979960037901098e-01
3.716666666666666785e+00,1.685056088389765263e+09,2.232392307443237800e-01,4.549483030520638793e-02,6.326300370240051096e-01,-5.416403764135924170e-01,-1.383589269888380935e+00,-2.101867644514902878e-01,-4.367463497840206599e-01
3.733333333333333393e+00,1.685056088405748367e+09,2.269852593995562162e-01,1.284971990972193778e-01,7.986347746080311172e-01,-5.416403764135924170e-01,-1.427756778390216752e+00,-2.175850010388530043e-01,-4.510024395182078982e-01
3.750000000000000000e+00,1.685056088420750856e+09,2.306031908575191802e-01,1.505722971802015697e-01,8.427849707739955010e-01,-5.416403764135924170e-01,-1.464981658353468941e+00,-2.252209625589906561e-01,-4.652733006842914021e-01
3.766666666666666607e+00,1.685056088439748526e+09,2.340727147611021408e-01,1.507030897679574322e-01,8.109968295345011402e-01,-5.095906499985862759e-01,-1.494879735374556429e+00,-2.330969121389436238e-01,-4.798002951977817232e-01
3.783333333333333215e+00,1.685056088455748796e+09,2.373729768903275195e-01,1.409900466114451800e-01,7.915707432214765804e-01,-5.095906499985862759e-01,-1.517111714507818565e+00,-2.412173840808090053e-01,-4.946151843875225551e-01
3.799999999999999822e+00,1.685056088473772287e+09,2.404827748022474454e-01,8.447779551901088424e-02,6.785462410366080999e-01,-5.095906499985862759e-01,-1.531386506675610937e+00,-2.495925017443521021e-01,-5.103552119099228346e-01
3.816666666666666430e+00,1.685056088489763498e+09,2.433807655048201846e-01,1.040346744197904322e-01,6.856102724231623036e-01,-4.775409235835813559e-01,-1.537464231435187623e+00,-2.582259174319843087e-01,-5.256122888392139592e-01
3.833333333333333481e+00,1.685056088507745981e+09,2.460456831976881309e-01,6.871451748701890017e-02,6.149699585576191563e-01,-4.775409235835813559e-01,-1.535158866636026742e+00,-2.671160704395892926e-01,-5.411628749840924346e-01
3.850000000000000089e+00,1.685056088523763657e+09,2.484565649520713571e-01,7.842756064353115231e-02,6.343960448706437161e-01,-4.775409235835813559e-01,-1.524340517955436791e+00,-2.762604162221395376e-01,-5.561170784900739683e-01
3.866666666666666696e+00,1.685056088538739681e+09,2.505929820610793279e-01,9.034811360834152372e-02,6.582371508002644589e-01,-4.775409235835813559e-01,-1.504937284017765942e+00,-2.856476067906628669e-01,-5.703063740950410354e-01
3.883333333333333304e+00,1.685056088560738802e+09,2.524352746725423424e-01,6.928681203643448361e-02,5.840648212414442098e-01,-4.454911971685752703e-01,-1.476936695764447638e+00,-2.952683673289410171e-01,-5.841464449522297819e-01
3.899999999999999911e+00,1.685056088574713707e+09,2.539647872206881041e-01,6.707930222813626719e-02,5.796498016248478047e-01,-4.454911971685752703e-01,-1.440386711926665120e+00,-3.051131407176975174e-01,-5.971901283917820935e-01
3.916666666666666519e+00,1.685056088592739105e+09,2.551641021021386346e-01,8.928519289887375254e-02,5.920118565513178277e-01,-4.134414707535703504e-01,-1.395396255836143018e+00,-3.151642260374377669e-01,-6.089075607876629492e-01
3.933333333333333126e+00,1.685056088610714674e+09,2.560172689969869575e-01,1.229701345727624850e-01,6.273320134840892903e-01,-3.813917443385642647e-01,-1.342135282366484050e+00,-3.253969744663170460e-01,-6.189942314886790475e-01
3.949999999999999734e+00,1.685056088626744986e+09,2.565100272181723429e-01,9.250649921824716237e-02,5.664047427750585895e-01,-3.813917443385642647e-01,-1.280834367500214510e+00,-3.357921816371233215e-01,-6.284044887892388243e-01
3.966666666666666785e+00,1.685056088643740654e+09,2.566300184826620367e-01,1.107388722340477277e-01,5.708197623916547725e-01,-3.493420179235594003e-01,-1.211783816835859451e+00,-3.463308711192014666e-01,-6.362165483838575497e-01
3.983333333333333393e+00,1.685056088660761833e+09,2.563669875365425233e-01,-1.746710089617797002e-01,0.000000000000000000e+00,-3.493420179235594003e-01,-1.135332293254424307e+00,-3.570275440215719409e-01,-6.473532638517571769e-01
4.000000000000000000e+00,1.685056088680716038e+09,2.557129681331141713e-01,1.413333001763190655e-01,5.999588918611914456e-01,-3.172922915085532591e-01,-1.051884967923981895e+00,-3.678531181806424244e-01,-6.517035508218144146e-01
4.016666666666666607e+00,1.685056088696741819e+09,2.546624519583221558e-01,1.781087555818247070e-01,6.414600762571978088e-01,-2.852425650935483947e-01,-9.619012028014712890e-01,-3.787330882119516740e-01,-6.538867882441659063e-01
4.033333333333333215e+00,1.685056088713762760e+09,2.532125382208495479e-01,1.870695874027734906e-01,6.273320134840892903e-01,-2.531928386785423091e-01,-8.658917767599029203e-01,-3.896346454393981862e-01,-6.542989341726714869e-01
4.049999999999999822e+00,1.685056088730761528e+09,2.513630617741796081e-01,2.500244511339541620e-01,6.891422881164396275e-01,-1.890933858485313035e-01,-7.644156713922555246e-01,-4.005203035523536292e-01,-6.519864630640210823e-01
4.066666666666666430e+00,1.685056088745744705e+09,2.491166978137948629e-01,2.555840598493809845e-01,6.361620527172822115e-01,-1.249939330185202979e-01,-6.580764363874962442e-01,-4.113522843556993158e-01,-6.478626885363106824e-01
4.083333333333333037e+00,1.685056088762762785e+09,2.464790413930750268e-01,3.052938647307721354e-01,6.714822096500536741e-01,-6.089448018850930622e-02,-5.475181581055559299e-01,-4.220939688537629353e-01,-6.411580755944934484e-01
4.099999999999999645e+00,1.685056088779762745e+09,2.434586602246785192e-01,3.630814975097924058e-01,6.909082959630782339e-01,3.525469905650659153e-02,-4.334210585636781854e-01,-4.327010950422874869e-01,-6.317232754235336811e-01
4.116666666666666252e+00,1.685056088796761990e+09,2.400671194783517981e-01,4.278023690876120444e-01,7.562505862887053398e-01,9.935415188651879059e-02,-3.164967554542771344e-01,-4.431271887784398178e-01,-6.194420881268257739e-01
4.133333333333332860e+00,1.685056088815742493e+09,2.363189775489783206e-01,4.074441546528745905e-01,6.193849781742156724e-01,1.955033311315334810e-01,-1.974832170131433640e-01,-4.533366660207864829e-01,-6.057332619238169347e-01
4.150000000000000355e+00,1.685056088830762148e+09,2.322317520478521802e-01,4.605551826397882298e-01,6.935573077330356995e-01,2.275530575465407879e-01,-7.713944851676737824e-02,-4.632955986332926157e-01,-5.893840670759271649e-01
4.166666666666666963e+00,1.685056088846768141e+09,2.278258555629950055e-01,5.057191753168271964e-01,7.518355666721088237e-01,2.596027839615456800e-01,4.376005011976831505e-02,-4.729613660516696072e-01,-5.705603125669402864e-01
4.183333333333333570e+00,1.685056088865762234e+09,2.231245010379714067e-01,5.404179135017901370e-01,7.571335902120247541e-01,3.237022367915554644e-01,1.644310137725265020e-01,-4.822945444338526122e-01,-5.494796520635186754e-01
4.200000000000000178e+00,1.685056088880742073e+09,2.181535769301662375e-01,5.661558198658046548e-01,7.765596765250489808e-01,3.557519632065603843e-01,2.840852846124803377e-01,-4.912592085055973445e-01,-5.263443029171358534e-01
4.216666666666666785e+00,1.685056088900741816e+09,2.129414926256590068e-01,5.618715928369646395e-01,7.359414960523616989e-01,3.878016896215676357e-01,4.019367819852965318e-01,-4.998257929228236418e-01,-5.017142455862051431e-01
4.233333333333333393e+00,1.685056088916742086e+09,2.075189949055041005e-01,5.665481976290716037e-01,6.811952528065656765e-01,4.519011424515774755e-01,5.172075225842804880e-01,-5.079687111131470090e-01,-4.755087320589925781e-01
4.250000000000000000e+00,1.685056088934763193e+09,2.019189565740796832e-01,5.737430216033811980e-01,6.635351743401799451e-01,4.839508688665823399e-01,6.291336428219956867e-01,-5.156620372190351409e-01,-4.477674615460148222e-01
4.266666666666666607e+00,1.685056088951763391e+09,1.961761386708396337e-01,5.813793475393517207e-01,6.467580997971137391e-01,5.160005952815897023e-01,7.369713746829797962e-01,-5.228808911200178988e-01,-4.185760956079932482e-01
4.283333333333333215e+00,1.685056088965764046e+09,1.903269279890146826e-01,5.916646852452787098e-01,6.352790487939627972e-01,5.480503216965945112e-01,8.400029261147042847e-01,-5.296016027961263362e-01,-3.879942570758850295e-01
4.299999999999999822e+00,1.685056088984763384e+09,1.844090519151898311e-01,6.325444508934765508e-01,6.529391272603487506e-01,6.121497745266043511e-01,9.375422171932957793e-01,-5.357977226329816434e-01,-3.556300261042502076e-01
4.316666666666666430e+00,1.685056089001713514e+09,1.784612728790643255e-01,3.381246136783082612e-01,0.000000000000000000e+00,6.762492273566165224e-01,1.028940423889450395e+00,-5.414869502329495710e-01,-3.271563812114863246e-01
4.333333333333333037e+00,1.685056089018772602e+09,1.725230649598947785e-01,3.701743400933131811e-01,0.000000000000000000e+00,7.403486801866263622e-01,1.113591282257056170e+00,-5.466894311357444192e-01,-2.972244732695186187e-01
4.349999999999999645e+00,1.685056089036751270e+09,1.666342754321725184e-01,3.861992033008168068e-01,0.000000000000000000e+00,7.723984066016336136e-01,1.190936107270413435e+00,-5.513842848483074821e-01,-2.662440310474351035e-01
4.366666666666666252e+00,1.685056089052763700e+09,1.608347742451681772e-01,3.861992033008168068e-01,0.000000000000000000e+00,7.723984066016336136e-01,1.260468482338204188e+00,-5.555574730449681642e-01,-2.346263814234574030e-01
4.383333333333332860e+00,1.685056089069761753e+09,1.551640946164492829e-01,4.022240665083192668e-01,0.000000000000000000e+00,8.044481330166385336e-01,1.321738577713794882e+00,-5.591973914418574276e-01,-2.022537522895328788e-01
4.400000000000000355e+00,1.685056089087771177e+09,1.496610680759952738e-01,4.342737929233241867e-01,0.000000000000000000e+00,8.685475858466483734e-01,1.374357058588008051e+00,-5.622905429284992262e-01,-1.690167532777022696e-01
4.416666666666666963e+00,1.685056089102715015e+09,1.443634574229543666e-01,4.502986561308278124e-01,0.000000000000000000e+00,9.005973122616556248e-01,1.417998546576003660e+00,-5.648260939962993499e-01,-1.353429154981216076e-01
4.433333333333333570e+00,1.685056089120749474e+09,1.393075911495779418e-01,8.089978629621560335e-01,7.173984136626564423e-01,9.005973122616556248e-01,1.452404601573367815e+00,-5.667507695868042594e-01,-9.572819883202467184e-02
4.450000000000000178e+00,1.685056089137762308e+09,1.345280029449336667e-01,8.750432404249536278e-01,7.853897157582419020e-01,9.646967650916654646e-01,1.477386194535554198e+00,-5.680080988133984210e-01,-5.526371235608869281e-02
4.466666666666666785e+00,1.685056089155761719e+09,1.300570799134312672e-01,9.299202762585048188e-01,8.630940610103391419e-01,9.967464915066702735e-01,1.492825645602354756e+00,-5.685868967588664225e-01,-1.430581571293969290e-02
4.483333333333333393e+00,1.685056089171763420e+09,1.259247231291727998e-01,1.037336045529554607e+00,1.045875873137431578e+00,1.028796217921677636e+00,1.498678006117041273e+00,-5.684730755681328684e-01,2.784726395710339364e-02
4.500000000000000000e+00,1.685056089187772274e+09,1.221580240961842589e-01,1.137115488864633983e+00,1.245434759807590330e+00,1.028796217921677636e+00,1.494971867445896718e+00,-5.676492555611845070e-01,7.089156655533053464e-02
4.516666666666666607e+00,1.685056089205762386e+09,1.187809605966223120e-01,1.168592920730223916e+00,1.276339897123765610e+00,1.060845944336682445e+00,1.481809584054734508e+00,-5.661114461140390741e-01,1.135271321879343931e-01
4.533333333333333215e+00,1.685056089221763611e+09,1.158141152843196464e-01,1.262322129189823672e+00,1.431748587627960090e+00,1.092895670751687476e+00,1.459366903008611605e+00,-5.638590866212130903e-01,1.566362565650823158e-01
4.549999999999999822e+00,1.685056089237766504e+09,1.132744202202585759e-01,1.325146200333248592e+00,1.525347003499804677e+00,1.124945397166692285e+00,1.427891996891501147e+00,-5.608898660135547276e-01,1.995510059111697543e-01
4.566666666666666430e+00,1.685056089254763842e+09,1.111749303507482689e-01,1.319406674831673287e+00,1.513867952496654068e+00,1.124945397166692285e+00,1.387703902055380745e+00,-5.572176705358919957e-01,2.409973200482913025e-01
4.583333333333333037e+00,1.685056089272740602e+09,1.095246286996802848e-01,1.300552883068064824e+00,1.444110642554430113e+00,1.156995123581699536e+00,1.339190369062194019e+00,-5.528697325500429027e-01,2.806451029312798107e-01
4.599999999999999645e+00,1.685056089291764736e+09,1.083282657850264674e-01,1.331147311010335565e+00,1.473249772023966786e+00,1.189044849996704567e+00,1.282805137137000173e+00,-5.478700365930805338e-01,3.192112811101063263e-01
4.616666666666666252e+00,1.685056089306762218e+09,1.075862354788884867e-01,1.326290789432079453e+00,1.463536728867454562e+00,1.189044849996704567e+00,1.219064649363761577e+00,-5.422423724327374295e-01,3.560062075963605355e-01
4.633333333333332860e+00,1.685056089322719097e+09,1.072944892123617044e-01,1.319929845182695516e+00,1.386715387538676625e+00,1.253144302826714185e+00,1.148544230186090642e+00,-5.360171605235074521e-01,3.909222302766102719e-01
4.650000000000000355e+00,1.685056089339765549e+09,1.074444900840881151e-01,1.323903362837632214e+00,1.394662422848550243e+00,1.253144302826714185e+00,1.071873751480673098e+00,-5.292248784619486557e-01,4.240595667870231678e-01
4.666666666666666963e+00,1.685056089358773947e+09,1.080232080676469669e-01,1.305049571074023973e+00,1.324905112906326510e+00,1.285194029241721658e+00,9.897328180118524221e-01,-5.218988338458455667e-01,4.549798953223513354e-01
4.683333333333333570e+00,1.685056089373715639e+09,1.090131571313527198e-01,1.321385143655430694e+00,1.357576258069139952e+00,1.285194029241721658e+00,9.028455074099270838e-01,-5.140714657932846654e-01,4.842230381208797452e-01
4.700000000000000178e+00,1.685056089389763355e+09,1.103924746880101670e-01,1.260588665534155162e+00,1.203933575411584078e+00,1.317243755656726467e+00,8.119747039059140858e-01,-5.057816994655054410e-01,5.104759946171016916e-01
4.716666666666666785e+00,1.685056089408765316e+09,1.121350433856814627e-01,1.196129379131847248e+00,1.075015002606968029e+00,1.317243755656726467e+00,7.179160688635126686e-01,-4.970799045086457535e-01,5.336749571268313286e-01
4.733333333333333393e+00,1.685056089426773071e+09,1.142106548373348351e-01,1.149330171195924954e+00,9.814165867351236638e-01,1.317243755656726467e+00,6.214916946396209507e-01,-4.880144465415336974e-01,5.541231969236450894e-01
4.750000000000000000e+00,1.685056089441764593e+09,1.165852144715621985e-01,1.113257802927589468e+00,8.772221237834476604e-01,1.349293482071731276e+00,5.235434914457365307e-01,-4.786295198870946788e-01,5.720182918420948504e-01
4.766666666666666607e+00,1.685056089460763216e+09,1.192209862724269154e-01,1.117672822544185873e+00,8.860521630166404705e-01,1.349293482071731276e+00,4.249263596419045608e-01,-4.689618245728602308e-01,5.880605828976285254e-01
4.783333333333333215e+00,1.685056089476763010e+09,1.220768757682030581e-01,1.141072426512147242e+00,9.328513709525627640e-01,1.349293482071731276e+00,3.265012022468491981e-01,-4.590393360771536924e-01,6.025976548812386202e-01
4.799999999999999822e+00,1.685056089491752386e+09,1.251087492304446269e-01,1.171666854454417761e+00,9.619905004220994371e-01,1.381343208486736307e+00,2.291278343659078065e-01,-4.488857944565280422e-01,6.157906914076184401e-01
4.816666666666666430e+00,1.685056089510762930e+09,1.282697866606140324e-01,1.169900846607779155e+00,9.584584847288220022e-01,1.381343208486736307e+00,1.336578477034261470e-01,-4.385276214066636258e-01,6.271584965962740954e-01
4.833333333333333037e+00,1.685056089527741194e+09,1.315108657755278687e-01,1.191534442729101695e+00,1.001725676971467305e+00,1.381343208486736307e+00,4.092748931863303408e-02,-4.279913749841922077e-01,6.371632823745982943e-01
4.849999999999999645e+00,1.685056089545762300e+09,1.347809738589871853e-01,1.213609540812083942e+00,1.045875873137431578e+00,1.381343208486736307e+00,-4.824938570815127947e-02,-4.172990321289991589e-01,6.458936087711374396e-01
4.866666666666666252e+00,1.685056089560762405e+09,1.380276440289910922e-01,1.240230451099417763e+00,1.067067967297094411e+00,1.413392934901741116e+00,-1.330882280201301504e-01,-4.064704307607222011e-01,6.535173777875152856e-01
4.883333333333332860e+00,1.685056089579773903e+09,1.411974121813801830e-01,1.198287764741751582e+00,9.831825945817621593e-01,1.413392934901741116e+00,-2.128405149494121684e-01,-3.955326281447188452e-01,6.590036960013843093e-01
4.900000000000000355e+00,1.685056089594762087e+09,1.442362906149251556e-01,1.170031639195534323e+00,9.266703434893276414e-01,1.413392934901741116e+00,-2.868002205047578967e-01,-3.845182627664214259e-01,6.627098542679331628e-01
4.916666666666666963e+00,1.685056089612762928e+09,1.470902541227989690e-01,1.196521756895113198e+00,9.796505788884850574e-01,1.413392934901741116e+00,-3.543099776748580565e-01,-3.734483056331818207e-01,6.656767601216978525e-01
4.933333333333333570e+00,1.685056089629742384e+09,1.497057341536903452e-01,1.263630055067378910e+00,1.113867175233016704e+00,1.413392934901741116e+00,-4.147668783253633529e-01,-3.623283911652185330e-01,6.687045652661014472e-01
4.950000000000000178e+00,1.685056089647741318e+09,1.520301165048877634e-01,1.291003176690276977e+00,1.168613418478812616e+00,1.413392934901741116e+00,-4.676278584351420409e-01,-3.511619518758710701e-01,6.712610479476729397e-01
4.966666666666666785e+00,1.685056089661762714e+09,1.540122379114224338e-01,1.345749419936072666e+00,1.278105904970404216e+00,1.413392934901741116e+00,-5.124146193512563174e-01,-3.399518820358254922e-01,6.739398914507076510e-01
4.983333333333333393e+00,1.685056089678763866e+09,1.556028768413465491e-01,1.334270368932921835e+00,1.255147802964102555e+00,1.413392934901741116e+00,-5.487180391240660260e-01,-3.287041345459696395e-01,6.757846827909993470e-01
5.000000000000000000e+00,1.685056089700746298e+09,1.567552337985471944e-01,1.324557325776409611e+00,1.235721716651078328e+00,1.413392934901741116e+00,-5.762020317897357247e-01,-3.174310330104239686e-01,6.769841694885648797e-01
5.016666666666666607e+00,1.685056089714741945e+09,1.563811181163894948e-01,1.302482227693427586e+00,1.191571520485114055e+00,1.413392934901741116e+00,-5.946068166706546254e-01,-3.061436968052533292e-01,6.774947568004404674e-01
5.033333333333333215e+00,1.685056089732741117e+09,1.554926391793735874e-01,1.313078274773259002e+00,1.212763614644777110e+00,1.413392934901741116e+00,-5.997465898830081077e-01,-2.948471677108566169e-01,6.780870891208813367e-01
5.049999999999999822e+00,1.685056089749740362e+09,1.540638897871275392e-01,1.284380647265382258e+00,1.155368359629023178e+00,1.413392934901741116e+00,-5.955690009971408294e-01,-2.835442349443241805e-01,6.782643504588196093e-01
5.066666666666666430e+00,1.685056089766761065e+09,1.520737483962354974e-01,1.276433611955508640e+00,1.139474289009275942e+00,1.413392934901741116e+00,-5.822406395049054550e-01,-2.722376290341264049e-01,6.785276274227985960e-01
5.083333333333333037e+00,1.685056089783716440e+09,1.495060766015011700e-01,1.254358513872526393e+00,1.095324092843311670e+00,1.413392934901741116e+00,-5.600056517290837865e-01,-2.609266494544305037e-01,6.787891955454933290e-01
5.099999999999999645e+00,1.685056089800742388e+09,1.463498724600973688e-01,1.278199619802147247e+00,1.143006304702553155e+00,1.413392934901741116e+00,-5.291830900684406647e-01,-2.496037963608994659e-01,6.799499512808574453e-01
5.116666666666666252e+00,1.685056089815761328e+09,1.425993782462126880e-01,1.395197639641952536e+00,1.377002344382164400e+00,1.413392934901741116e+00,-4.901636574371852628e-01,-2.382402084542235288e-01,6.836702630775942646e-01
5.133333333333332860e+00,1.685056089835764170e+09,1.382541416449269978e-01,1.403144674951826376e+00,1.392896415001911636e+00,1.413392934901741116e+00,-4.434058752503580170e-01,-2.268075733455682252e-01,6.882332746306301097e-01
5.150000000000000355e+00,1.685056089850762129e+09,1.333190298245928163e-01,1.359435980747521588e+00,1.305479026593302061e+00,1.413392934901741116e+00,-3.894317078998236203e-01,-2.152981004175217039e-01,6.928905395833785397e-01
5.166666666666666963e+00,1.685056089867763996e+09,1.278041962628155837e-01,1.343983412089434060e+00,1.274573889277127003e+00,1.413392934901741116e+00,-3.288216809885085579e-01,-2.037054125000222760e-01,6.982172138508945247e-01
5.183333333333333570e+00,1.685056089886749983e+09,1.217250006380763694e-01,1.368707521942374106e+00,1.324022108983007096e+00,1.413392934901741116e+00,-2.622095346104897917e-01,-1.920120669916871581e-01,7.049655014647574491e-01
5.200000000000000178e+00,1.685056089901769161e+09,1.151018825329707673e-01,1.345307917974412959e+00,1.277222901047084802e+00,1.413392934901741116e+00,-1.902764566479786534e-01,-1.802004786323284924e-01,7.124044374608393682e-01
5.216666666666666785e+00,1.685056089918763399e+09,1.079601901217473181e-01,1.348398431706030465e+00,1.283403928510319814e+00,1.413392934901741116e+00,-1.137449443751787914e-01,-1.682549380419592344e-01,7.210364549926510103e-01
5.233333333333333393e+00,1.685056089936763525e+09,1.003299654303083099e-01,1.417714239686594491e+00,1.422035544471447865e+00,1.413392934901741116e+00,-3.337234558669804896e-02,-1.561460477138619241e-01,7.319999295662186212e-01
5.250000000000000000e+00,1.685056089953761816e+09,9.224568815706495062e-02,1.406676690645103589e+00,1.399960446388465840e+00,1.413392934901741116e+00,5.005586701861758359e-02,-1.438459484555447421e-01,7.439787062689634523e-01
5.266666666666666607e+00,1.685056089970762730e+09,8.374598042427185141e-02,1.409325702415061610e+00,1.405258469928381659e+00,1.413392934901741116e+00,1.357330323880175937e-01,-1.313356577778050371e-01,7.572193945046084007e-01
5.283333333333333215e+00,1.685056089985763311e+09,7.487327518798718440e-02,1.428310286766425907e+00,1.443227638631110921e+00,1.413392934901741116e+00,2.228383911605719137e-01,-1.185918645773903074e-01,7.719947459363103448e-01
5.299999999999999822e+00,1.685056090003764153e+09,6.567345136726643329e-02,1.430517796574724221e+00,1.447642658247707548e+00,1.413392934901741116e+00,3.105442706036601885e-01,-1.055914374165051739e-01,7.880120198950649746e-01
5.316666666666666430e+00,1.685056090019763947e+09,5.619543905646436077e-02,-5.890736624955631578e-02,-1.531207667400853900e+00,1.413392934901741116e+00,3.980233051424951207e-01,-9.251990550228164634e-02,7.805924202957237323e-01
5.333333333333333037e+00,1.685056090037714958e+09,4.649079845561077118e-02,-1.807880031788764164e-01,-1.774968941259494004e+00,1.413392934901741116e+00,4.844556329693782137e-01,-7.957590492072255661e-02,7.727095468773397258e-01
5.349999999999999645e+00,1.685056090056763649e+09,3.661327639032803394e-02,-4.733015318092453350e-01,-2.359995998520231897e+00,1.413392934901741116e+00,5.690360094825986925e-01,-6.679091660711640455e-02,7.615201331916228167e-01
5.366666666666666252e+00,1.685056090072774887e+09,2.661834449232793401e-02,-1.108951826631614956e+00,-3.599246861749965998e+00,1.381343208486736307e+00,6.509807790453563392e-01,-5.426735111763603819e-02,7.413637169090381285e-01
5.383333333333332860e+00,1.685056090089764595e+09,1.656272327237977640e-02,-1.701842150791017971e+00,-4.785027510068772472e+00,1.381343208486736307e+00,7.295346477654970352e-01,-4.214798229312200634e-02,7.130392230340987236e-01
5.400000000000000355e+00,1.685056090107764006e+09,6.503896438232968473e-03,-1.847312588416335943e+00,-5.075968385319407972e+00,1.381343208486736307e+00,8.039772016687875000e-01,-3.050658658003707266e-02,6.840089042085546467e-01
5.416666666666666963e+00,1.685056090125738621e+09,-3.500380110743663356e-03,-1.888201576289398664e+00,-5.157746361065533414e+00,1.381343208486736307e+00,8.736291167566593296e-01,-1.934104708206427908e-02,6.559338237183695020e-01
5.433333333333333570e+00,1.685056090146740913e+09,-1.339257014320978552e-02,-2.674528266155980827e+00,-6.730399740798698183e+00,1.381343208486736307e+00,9.378580099884816779e-01,-8.739284356112471050e-03,6.163875567229594177e-01
5.450000000000000178e+00,1.685056090159748077e+09,-2.311584534585796324e-02,-3.141606319936730785e+00,-7.664555848360198098e+00,1.381343208486736307e+00,9.960838831863656484e-01,1.152365202858125076e-03,5.707371998848160821e-01
5.466666666666666785e+00,1.685056090175714970e+09,-3.261456554715736617e-02,-3.335829012333776600e+00,-8.053001233154288840e+00,1.381343208486736307e+00,1.047784115204599242e+00,1.026979545791557175e-02,5.234856880109389765e-01
5.483333333333333393e+00,1.685056090191760302e+09,-4.183474658712650618e-02,-3.855590954335587295e+00,-9.092525117157910231e+00,1.381343208486736307e+00,1.092497961408448237e+00,1.854061303744530126e-02,4.691633205492902747e-01
5.500000000000000000e+00,1.685056090209715128e+09,-5.072451163516093070e-02,-4.178771223870753282e+00,-9.738885656228243093e+00,1.381343208486736307e+00,1.129830523538939424e+00,2.587407943047014686e-02,4.110141758174018500e-01
5.516666666666666607e+00,1.685056090229738951e+09,-5.923452192703394792e-02,-4.126087335649692101e+00,-9.633517879786118954e+00,1.381343208486736307e+00,1.159456157368875751e+00,3.225779363243773401e-02,3.551866086440873538e-01
5.533333333333333215e+00,1.685056090243766785e+09,-6.731838309901445883e-02,-4.159899383313955035e+00,-9.701141975114646598e+00,1.381343208486736307e+00,1.181121290145600078e+00,3.771708157500584108e-02,3.000810191487133238e-01
5.549999999999999822e+00,1.685056090262761354e+09,-7.493302353952743800e-02,-4.212583271535017104e+00,-9.806509751556770738e+00,1.381343208486736307e+00,1.194646624632195397e+00,4.226014563852079076e-02,2.452390109701513554e-01
5.566666666666666430e+00,1.685056090278761864e+09,-8.203904145448702445e-02,-3.868958508063319979e+00,-9.119260224613375598e+00,1.381343208486736307e+00,1.199928711560701799e+00,4.594494222619899260e-02,1.970703844407628580e-01
5.583333333333333037e+00,1.685056090296761990e+09,-8.860101764866032403e-02,-3.554427832116687114e+00,-8.490198872720110757e+00,1.381343208486736307e+00,1.196940877460048069e+00,4.887661189921838067e-02,1.548472655234661710e-01
5.599999999999999645e+00,1.685056090313764572e+09,-9.458779135911810076e-02,-3.686042718734576340e+00,-8.721378919540883956e+00,1.349293482071731276e+00,1.185733500075278002e+00,5.109066811950089410e-02,1.109613889921953617e-01
5.616666666666666252e+00,1.685056090330740690e+09,-9.997269683476593671e-02,-3.976983593985212284e+00,-9.303260670042156733e+00,1.349293482071731276e+00,1.166433628911865972e+00,5.253650399673061300e-02,6.267305369707654172e-02
5.633333333333332860e+00,1.685056090346748114e+09,-1.047337587345653215e-01,-3.601119436228986004e+00,-8.551532354529703284e+00,1.349293482071731276e+00,1.139243953776637008e+00,5.323236298819193635e-02,2.094593666474273141e-02
5.650000000000000355e+00,1.685056090364748955e+09,-1.088538448126614711e-01,-3.227126261262663220e+00,-7.771496278182052464e+00,1.317243755656726467e+00,1.104441129502190533e+00,5.328538253982326861e-02,-1.448516841622980722e-02
5.666666666666666963e+00,1.685056090381717920e+09,-1.123207747673939522e-01,-3.092962726705648535e+00,-7.471119482653018729e+00,1.285194029241721658e+00,1.062373470292383271e+00,5.276549776360742183e-02,-4.780843791356838290e-02
5.683333333333333570e+00,1.685056090399750948e+09,-1.151273845490638909e-01,-2.834261245739543078e+00,-6.953716520720806926e+00,1.285194029241721658e+00,1.013458032270062148e+00,5.172380354197484570e-02,-7.711346391642714959e-02
5.700000000000000178e+00,1.685056090414715290e+09,-1.172715458442906977e-01,-2.686730157454797485e+00,-6.626604617736308711e+00,1.253144302826714185e+00,9.581771078037324418e-01,5.021048148376527909e-02,-1.044093593524020036e-01
5.716666666666666785e+00,1.685056090432742119e+09,-1.187561408787723150e-01,-2.677104569306873572e+00,-6.543253988610451266e+00,1.189044849996704567e+00,8.970741599971820968e-01,4.823888787905184633e-02,-1.321049392361834385e-01
5.733333333333333393e+00,1.685056090449751377e+09,-1.195889931010737928e-01,-2.666394325058912163e+00,-6.489783773699524083e+00,1.156995123581699536e+00,8.307492303065382444e-01,4.580184507548476502e-02,-1.602619813451559294e-01
5.750000000000000000e+00,1.685056090465756893e+09,-1.197827547237058782e-01,-2.568401818235761525e+00,-6.261749033638214890e+00,1.124945397166692285e+00,7.598538565661249189e-01,4.290314997101585953e-02,-1.875057522685142919e-01
5.766666666666666607e+00,1.685056090483750105e+09,-1.193547525001899534e-01,-2.524665853013403627e+00,-6.142227376778494730e+00,1.092895670751687476e+00,6.850855427234601169e-01,3.954986873758242066e-02,-2.148121428732465699e-01
5.783333333333333215e+00,1.685056090502751112e+09,-1.183267935042064956e-01,-2.491450464169481904e+00,-6.011697146260641667e+00,1.028796217921677636e+00,6.071818252715582842e-01,3.573908019212001380e-02,-2.424058316427495641e-01
5.799999999999999822e+00,1.685056090518750668e+09,-1.167249330455203959e-01,-2.579519053434539355e+00,-6.187834324790756568e+00,1.028796217921677636e+00,5.269139846952286543e-01,3.144895737620913984e-02,-2.723257933058271796e-01
5.816666666666666430e+00,1.685056090535748482e+09,-1.145792072037077058e-01,-2.464715356714018313e+00,-5.958226931349714484e+00,1.028796217921677636e+00,4.450804531887539994e-01,2.666885494828493547e-02,-3.012062726033240545e-01
5.833333333333333037e+00,1.685056090551748514e+09,-1.119233327814405238e-01,-2.332124475536737407e+00,-5.660995442580144754e+00,9.967464915066702735e-01,3.624999724330233430e-01,2.141830764640685267e-02,-3.287828003531745313e-01
5.849999999999999645e+00,1.685056090569748878e+09,-1.087943777711583987e-01,-2.498825733788452741e+00,-5.994397959083575422e+00,9.967464915066702735e-01,2.800045573191960457e-01,1.567754126360342004e-02,-3.600223869115253827e-01
5.866666666666666252e+00,1.685056090585749388e+09,-1.052324056897010335e-01,-2.897493365550809941e+00,-6.791733222608289822e+00,9.967464915066702735e-01,1.984323231572025503e-01,9.354098962203237153e-03,-3.986832953166853377e-01
5.883333333333332860e+00,1.685056090603739500e+09,-1.012800973623529943e-01,-2.682039852527366985e+00,-6.360826196561403911e+00,9.967464915066702735e-01,1.186202350967879016e-01,2.410382912640377309e-03,-4.344632395576321082e-01
5.900000000000000355e+00,1.685056090619739294e+09,-9.698235392873497118e-02,-2.644296171413770491e+00,-6.285338834334210922e+00,9.967464915066702735e-01,4.139683920677833529e-02,-5.130176555090699281e-03,-4.703043356266842223e-01
5.916666666666666963e+00,1.685056090637743711e+09,-9.238588499630499828e-02,-2.728433127229495270e+00,-6.453612745965661368e+00,9.967464915066702735e-01,-3.242496510108910934e-02,-1.328495457666505411e-02,-5.081638591439529007e-01
5.933333333333333570e+00,1.685056090654771328e+09,-8.753878598151111634e-02,-2.719783533640963036e+00,-6.436313558788596012e+00,9.967464915066702735e-01,-1.020550518565362941e-01,-2.207391813672526099e-02,-5.464055386755176658e-01
5.950000000000000178e+00,1.685056090670763254e+09,-8.249010875295824385e-02,-2.733151087368694832e+00,-6.463048666244059604e+00,9.967464915066702735e-01,-1.667330357931020579e-01,-3.150574075105781746e-02,-5.853051181138817505e-01
5.966666666666666785e+00,1.685056090688774586e+09,-7.728942972461673444e-02,-2.623065350787373351e+00,-6.242877193081416642e+00,9.967464915066702735e-01,-2.257350225484219264e-01,-4.157346114702602236e-02,-6.227174039401768280e-01
5.983333333333333393e+00,1.685056090705762625e+09,-7.198641954006305965e-02,-2.747304967786293517e+00,-6.491356427079256974e+00,9.967464915066702735e-01,-2.783800859149413442e-01,-5.228398363682559835e-02,-6.624349656787311691e-01
6.000000000000000000e+00,1.685056090726715088e+09,-6.663041844110720313e-02,-2.582176362914310630e+00,-6.161099217335291200e+00,9.967464915066702735e-01,-3.240364183583587243e-01,-6.363447810960810858e-02,-6.995213508938264990e-01
6.016666666666666607e+00,1.685056090739741325e+09,-6.127002132661639455e-02,-2.414200780693033010e+00,-5.793098326477731597e+00,9.646967650916654646e-01,-3.621271035581705711e-01,-7.558001684582583979e-02,-7.338479435617955016e-01
6.033333333333333215e+00,1.685056090757763386e+09,-5.595267638086542927e-02,-2.176431790943154088e+00,-5.349610073392979004e+00,9.967464915066702735e-01,-3.921354626778720265e-01,-8.806422825176656033e-02,-7.641731863828719051e-01
6.049999999999999822e+00,1.685056090773739576e+09,-5.072430098675837634e-02,-1.942106437362912441e+00,-4.880959366232494823e+00,9.967464915066702735e-01,-4.136099294146600158e-01,-1.010202727630247488e-01,-7.904790813179065623e-01
6.066666666666666430e+00,1.685056090789762974e+09,-4.562891843950359072e-02,-1.478173690341628932e+00,-3.953093872189928248e+00,9.967464915066702735e-01,-4.261684125871335604e-01,-1.143487714346536482e-01,-8.088896176950903794e-01
6.083333333333333037e+00,1.685056090808742046e+09,-4.070831874289752156e-02,-1.166001994464595848e+00,-3.328750480435861636e+00,9.967464915066702735e-01,-4.295021090621422566e-01,-1.279389126481861871e-01,-8.218912115403368412e-01
6.099999999999999645e+00,1.685056090824754715e+09,-3.600174650576439678e-02,-9.576254216499511251e-01,-2.911997334806572635e+00,9.967464915066702735e-01,-4.233787341686005012e-01,-1.417143244660367674e-01,-8.311325356527954344e-01
6.116666666666666252e+00,1.685056090842777729e+09,-3.154561866297814904e-02,-8.087113478549952106e-01,-2.646218913631668279e+00,1.028796217921677636e+00,-4.076451413617874220e-01,-1.556197407182652870e-01,-8.374997275541800068e-01
6.133333333333332860e+00,1.685056090860739708e+09,-2.737327442694405949e-02,-6.432844135728418289e-01,-2.347414771482366103e+00,1.060845944336682445e+00,-3.822293077493224001e-01,-1.696040380974677686e-01,-8.406073255303468938e-01
6.150000000000000355e+00,1.685056090876768351e+09,-2.351475953467655616e-02,-3.957811741343933987e-01,-1.916507745435479082e+00,1.124945397166692285e+00,-3.471416671322082870e-01,-1.836006679599319624e-01,-8.389927430223260707e-01
6.166666666666666963e+00,1.685056090893715382e+09,-1.999664649613278056e-02,-2.937483723212614972e-01,-1.776541594639227561e+00,1.189044849996704567e+00,-3.024757774101680674e-01,-1.975503490243975258e-01,-8.349801311200509835e-01
6.183333333333333570e+00,1.685056090909745693e+09,-1.684189217492283036e-02,-2.186900549694885051e-02,-1.296882313820612032e+00,1.253144302826714185e+00,-2.484083145092523814e-01,-2.113886875090235651e-01,-8.256464146355283473e-01
6.200000000000000178e+00,1.685056090925765753e+09,-1.406973364673511778e-02,1.333436489207996400e+00,1.349629222759266334e+00,1.317243755656726467e+00,-1.851983903692093758e-01,-2.248768271723697865e-01,-7.930209733248689830e-01
6.216666666666666785e+00,1.685056090943762779e+09,-1.169562288762039659e-02,1.418466451022158736e+00,1.455589693557580944e+00,1.381343208486736307e+00,-1.131861979351049818e-01,-2.378040249820670415e-01,-7.583391046303874505e-01
6.233333333333333393e+00,1.685056090961761713e+09,-9.731200447677210152e-03,1.454489695092101575e+00,1.463536728867454562e+00,1.445442661316748589e+00,-3.279099149011255321e-02,-2.501419021493910266e-01,-7.223062490696969817e-01
6.250000000000000000e+00,1.685056090979756594e+09,-8.184307869671988978e-03,1.532897127481368971e+00,1.556252140815979512e+00,1.509542114146758207e+00,5.549158399979603473e-02,-2.618611852929644823e-01,-6.841138207347707834e-01
6.266666666666666607e+00,1.685056090995739698e+09,-7.059038220632550542e-03,1.549804994612190567e+00,1.558018148662618341e+00,1.541591840561763238e+00,1.510927956246856940e-01,-2.729336633114511912e-01,-6.446930462123361405e-01
6.283333333333333215e+00,1.685056091013761997e+09,-6.355823721410962246e-03,1.531834206771901741e+00,1.490026846567032992e+00,1.573641566976770489e+00,2.533747333571412241e-01,-2.833429281401855793e-01,-6.045302990481177252e-01
6.299999999999999822e+00,1.685056091027740240e+09,-6.071559088466869925e-03,1.496644842426885447e+00,1.387598391461995595e+00,1.605691293391775298e+00,3.616348000618868630e-01,-2.930782685863245751e-01,-5.638236312271658335e-01
6.316666666666666430e+00,1.685056091044777393e+09,-6.199758847324907812e-03,1.425121524638023107e+00,1.244551755884271360e+00,1.605691293391775298e+00,4.751107470972791846e-01,-3.021349924759672567e-01,-5.230963694752681636e-01
6.333333333333333037e+00,1.685056091062714815e+09,-6.730746541849387532e-03,1.401542003883913035e+00,1.133293261546040931e+00,1.669790746221785138e+00,5.929862174901827654e-01,-3.105055297358447763e-01,-4.814836951924890140e-01
6.349999999999999645e+00,1.685056091081760883e+09,-7.651873450986935304e-03,1.423617101966895282e+00,1.177443457712005204e+00,1.669790746221785138e+00,7.143967545333952396e-01,-3.181684516801592810e-01,-4.381872089731696507e-01
6.366666666666666252e+00,1.685056091096741676e+09,-8.947764137998255596e-03,1.392270462689060517e+00,1.114750179156335896e+00,1.669790746221785138e+00,8.384362298498807542e-01,-3.251029428723340997e-01,-3.940742729053458016e-01
6.383333333333332860e+00,1.685056091116770983e+09,-1.060058589932478049e-02,1.372975168963793013e+00,1.044109865290792971e+00,1.701840472636792390e+00,9.641636415225498524e-01,-3.312936109068818080e-01,-3.489312913626923529e-01
6.400000000000000355e+00,1.685056091132762194e+09,-1.259033895350508692e-02,1.281142760938586811e+00,8.604450492403811213e-01,1.701840472636792390e+00,1.090610229827529976e+00,-3.367333501590026312e-01,-3.039623355978028907e-01
6.416666666666666963e+00,1.685056091147715807e+09,-1.489516401735762122e-02,1.291297306056758520e+00,8.807541394767247622e-01,1.701840472636792390e+00,1.216786855460534555e+00,-3.414109878203209214e-01,-2.574832952445296752e-01
6.433333333333333570e+00,1.685056091166747093e+09,-1.749166375865356809e-02,1.310723392369782969e+00,9.196063121027736598e-01,1.701840472636792390e+00,1.341691582927897031e+00,-3.453004594733137256e-01,-2.093869073365755562e-01
6.450000000000000178e+00,1.685056091182761908e+09,-2.035523449335263635e-02,1.308646675149240046e+00,8.834031512466827829e-01,1.733890199051797421e+00,1.464317410008237008e+00,-3.483783174550661443e-01,-1.600929812688652032e-01
6.466666666666666785e+00,1.685056091198763371e+09,-2.346040441224056528e-02,1.304673157494303126e+00,8.754561159368091650e-01,1.733890199051797421e+00,1.583660082887222931e+00,-3.506254836587360257e-01,-1.097069277255032504e-01
6.483333333333333393e+00,1.685056091215747595e+09,-2.678117457725891909e-02,1.311426479506953235e+00,8.569130335471040194e-01,1.765939925466802229e+00,1.698725935742416482e+00,-3.520230159249894686e-01,-5.814018853842699980e-02
6.500000000000000000e+00,1.685056091232740402e+09,-3.029135892226969204e-02,1.347629640363044112e+00,9.293193552592856621e-01,1.765939925466802229e+00,1.808539693210222454e+00,-3.525480570322546692e-01,-5.012325204940694390e-03
6.516666666666666607e+00,1.685056091250713825e+09,-3.396491952647218149e-02,1.343214620746447263e+00,9.204893160260926299e-01,1.765939925466802229e+00,1.912152174308852093e+00,-3.521812705947447442e-01,4.887700160847103376e-02
6.533333333333333215e+00,1.685056091265761852e+09,-3.777629350070338399e-02,1.363213001608886588e+00,9.284363513359662479e-01,1.797989651881807038e+00,2.008647837017716320e+00,-3.509076817156280836e-01,1.038010933731310648e-01
6.549999999999999822e+00,1.685056091285761833e+09,-4.170070793660360375e-02,1.320828813289560921e+00,8.436679746973149152e-01,1.797989651881807038e+00,2.097152103821020130e+00,-3.487199073218076872e-01,1.585796675978203563e-01
6.566666666666666430e+00,1.685056091301768303e+09,-4.571447951492152439e-02,1.345242213768597761e+00,8.604450492403811213e-01,1.830039378296814512e+00,2.176838410102963639e+00,-3.456123444314733728e-01,2.141734484386787485e-01
6.583333333333333037e+00,1.685056091316741228e+09,-4.979529555047502998e-02,1.357293559321163245e+00,8.524980139305075033e-01,1.862089104711819321e+00,2.246934919322044699e+00,-3.415745508651837348e-01,2.702061295164425725e-01
6.599999999999999645e+00,1.685056091334762335e+09,-5.392247346558926707e-02,1.332127947506563936e+00,8.021667903013082190e-01,1.862089104711819321e+00,2.306730851376812552e+00,-3.366058353856894447e-01,3.258850606850045017e-01
6.616666666666666252e+00,1.685056091350766420e+09,-5.807719592889593052e-02,1.311066645934656050e+00,7.279944607424880809e-01,1.894138831126824352e+00,2.355582373485738401e+00,-3.307129897226805393e-01,3.811030320123354742e-01
6.633333333333332860e+00,1.685056091368774652e+09,-6.224271916970319091e-02,1.304002614548101846e+00,7.138663979693794515e-01,1.894138831126824352e+00,2.392918006217593430e+00,-3.239032901426188715e-01,4.359086761117020314e-01
6.649999999999999467e+00,1.685056091384763002e+09,-6.640455227682096062e-02,1.304444116509761553e+00,7.147494018926989767e-01,1.894138831126824352e+00,2.418243500999037288e+00,-3.161841739933634043e-01,4.902343535875932079e-01
6.666666666666666963e+00,1.685056091401715040e+09,-7.055060561168441380e-02,1.326650007180499191e+00,7.271114568191688887e-01,1.926188557541829161e+00,2.431146149465964967e+00,-3.075622841669125029e-01,5.442423997052500129e-01
6.683333333333333570e+00,1.685056091418742895e+09,-7.467130680555507383e-02,1.328416015027137576e+00,7.306434725124459906e-01,1.926188557541829161e+00,2.431298489381276795e+00,-2.980474548936287715e-01,5.973894788387732468e-01
6.700000000000000178e+00,1.685056091436763287e+09,-7.875968316591992757e-02,1.301042893404239509e+00,6.758972292666500792e-01,1.926188557541829161e+00,2.418461376481243263e+00,-2.876597355268645240e-01,6.489934973034336974e-01
6.716666666666666785e+00,1.685056091454761982e+09,-8.281140968435618532e-02,1.263515226663169955e+00,6.008418957845108599e-01,1.926188557541829161e+00,2.392486396499021950e+00,-2.764278477757199370e-01,6.986949699383255830e-01
6.733333333333333393e+00,1.685056091469763517e+09,-8.682482221324211435e-02,1.258658705084913620e+00,5.911288526279984135e-01,1.926188557541829161e+00,2.353317596708427217e+00,-2.643805477388819214e-01,7.468472749313765924e-01
6.750000000000000000e+00,1.685056091486763000e+09,-9.080089575795460832e-02,1.252608470209435332e+00,5.469786564620342517e-01,1.958238283956836412e+00,2.300992521594732665e+00,-2.515454229328286107e-01,7.932388333220593557e-01
6.766666666666666607e+00,1.685056091505762339e+09,-9.474318821064836582e-02,1.264970525135905355e+00,5.717027663149742978e-01,1.958238283956836412e+00,2.235642542649780129e+00,-2.379508318306284287e-01,8.379877933496205911e-01
6.783333333333333215e+00,1.685056091520762205e+09,-9.865775022751177570e-02,9.630942787709145803e-01,0.000000000000000000e+00,1.926188557541829161e+00,2.157492477764603400e+00,-2.236690949003883877e-01,8.757158356949724665e-01
6.799999999999999822e+00,1.685056091537726164e+09,-1.025530023196244700e-01,9.791191419784182060e-01,0.000000000000000000e+00,1.958238283956836412e+00,2.066859501210736028e+00,-2.087740731902691382e-01,9.115871247046724024e-01
6.816666666666666430e+00,1.685056091556762218e+09,-1.064395805844383924e-01,9.630942787709145803e-01,0.000000000000000000e+00,1.926188557541829161e+00,1.964151350717902034e+00,-1.933025506867549481e-01,9.449030293593051466e-01
6.833333333333333037e+00,1.685056091571762800e+09,-1.103301528467933307e-01,9.791191419784182060e-01,0.000000000000000000e+00,1.958238283956836412e+00,1.849863843627890247e+00,-1.772939368004414207e-01,9.760441318997633564e-01
6.849999999999999645e+00,1.685056091589761972e+09,-1.142392073017333975e-01,9.791191419784182060e-01,0.000000000000000000e+00,1.958238283956836412e+00,1.724577719488970651e+00,-1.607879103450552127e-01,1.004599719802167002e+00
6.866666666666666252e+00,1.685056091606765509e+09,-1.181828160528741456e-01,4.840116895920957840e-01,-9.902149047726449549e-01,1.958238283956836412e+00,1.588954831709383120e+00,-1.438970183259784263e-01,1.022258269804781516e+00
6.883333333333332860e+00,1.685056091624742746e+09,-1.221783762165820075e-01,-1.137412502385136935e-02,-1.980986534004539168e+00,1.958238283956836412e+00,1.443733715972077114e+00,-1.268027370967936551e-01,1.029036648424733746e+00
6.899999999999999467e+00,1.685056091641739607e+09,-1.262443315109153807e-01,-4.469991112099379604e-01,-2.852236506376712555e+00,1.958238283956836412e+00,1.289724567984199766e+00,-1.096778596844694420e-01,1.025957195291980595e+00
6.916666666666666963e+00,1.685056091658750534e+09,-1.303998774665195426e-01,-6.666825870928864139e-01,-3.259553731727601988e+00,1.926188557541829161e+00,1.127803667757330874e+00,-9.265658854225906904e-02,1.016621275494177690e+00
6.933333333333333570e+00,1.685056091674751282e+09,-1.346646535822739188e-01,-9.400259457562856191e-01,-3.838290175469407650e+00,1.958238283956836412e+00,9.589072919506119730e-01,-7.585070895423448589e-02,1.000130085009391934e+00
6.950000000000000178e+00,1.685056091690741777e+09,-1.390584258994462530e-01,-1.439343393821565176e+00,-4.836925071599966763e+00,1.958238283956836412e+00,7.840251598242363729e-01,-5.941052555192018192e-02,9.727679310404554469e-01
6.966666666666666785e+00,1.685056091707752228e+09,-1.436007635828583096e-01,-2.211814532680721701e+00,-6.349817622903271896e+00,1.926188557541829161e+00,6.041934620151179214e-01,-4.355413131770134727e-02,9.301178522951432104e-01
6.983333333333333393e+00,1.685056091723750353e+09,-1.483107131749152041e-01,-2.468645030856921885e+00,-6.895528345670680181e+00,1.958238283956836412e+00,4.204875246291970292e-01,-2.846352799137508160e-02,8.808912905316882425e-01
7.000000000000000000e+00,1.685056091745732069e+09,-1.532064742273988034e-01,-2.713192631405429101e+00,-7.384623546767694613e+00,1.958238283956836412e+00,2.340141640211341745e-01,-1.424610099405498181e-02,8.253542224112965231e-01
7.016666666666666607e+00,1.685056091760723114e+09,-1.583050800162610072e-01,-2.847952824782786774e+00,-7.622094207107402042e+00,1.926188557541829161e+00,4.590379007874738349e-02,-9.912160350425448796e-04,7.653985202072167704e-01
7.033333333333333215e+00,1.685056091778750420e+09,-1.636220870062047583e-01,-3.059474704356897945e+00,-8.045137966255625273e+00,1.926188557541829161e+00,-1.426976821726882727e-01,1.121742309506898981e-02,6.998203413016121921e-01
7.049999999999999822e+00,1.685056091793714046e+09,-1.691712766549235969e-01,-3.351201906297399002e+00,-8.628592370136628276e+00,1.926188557541829161e+00,-3.306370512982388377e-01,2.227589848141039996e-02,6.273978832886768497e-01
7.066666666666666430e+00,1.685056091811715364e+09,-1.749643730322291701e-01,-3.546698922664006215e+00,-9.051636129284847954e+00,1.958238283956836412e+00,-5.167621161087071480e-01,3.208462609463642173e-02,5.498648050292389566e-01
7.083333333333333037e+00,1.685056091827714920e+09,-1.810107795780233619e-01,-3.651280372416262132e+00,-9.260799028789360676e+00,1.958238283956836412e+00,-6.999299672690042495e-01,4.057210056730712472e-02,4.688571582284805084e-01
7.099999999999999645e+00,1.685056091845748663e+09,-1.873173381366136370e-01,-3.164056154109152530e+00,-8.254300865760134442e+00,1.926188557541829161e+00,-8.790152208035122428e-01,4.776319671746197953e-02,3.942815391631145916e-01
7.116666666666666252e+00,1.685056091863739729e+09,-1.938881131851636352e-01,-3.220373346369375334e+00,-8.398984976695587079e+00,1.958238283956836412e+00,-1.052918130852799949e+00,5.368986818950627349e-02,3.171333430707007350e-01
7.133333333333332860e+00,1.685056091880717993e+09,-2.007242039231267317e-01,-3.198356199053110860e+00,-8.354950682063059020e+00,1.958238283956836412e+00,-1.220572519933721400e+00,5.832127665218135582e-02,2.388531226249117900e-01
7.149999999999999467e+00,1.685056091895750284e+09,-2.078235866099985008e-01,-3.019860040453396177e+00,-7.997958364863628766e+00,1.958238283956836412e+00,-1.380953466333244561e+00,6.166132895934890029e-02,1.621661785379669152e-01
7.166666666666666963e+00,1.685056091912751675e+09,-2.151809892332839369e-01,-2.848739151472653663e+00,-7.623666860487136709e+00,1.926188557541829161e+00,-1.533084690115037008e+00,6.373648043274847408e-02,8.706062970477249086e-02
7.183333333333333570e+00,1.685056091930773497e+09,-2.227878002603715935e-01,-2.420679102775060265e+00,-6.799596489506956942e+00,1.958238283956836412e+00,-1.676045581522037864e+00,6.460962441266972223e-02,1.790874098656627944e-02
7.200000000000000178e+00,1.685056091946762323e+09,-2.306320128802480940e-01,-2.386867055110797331e+00,-6.731972394178431074e+00,1.958238283956836412e+00,-1.808977818299935647e+00,6.432609767735027184e-02,-5.173848016829314667e-02
7.216666666666666785e+00,1.685056091963764429e+09,-2.386982057771964705e-01,-2.356200314206000623e+00,-6.670638912368837659e+00,1.958238283956836412e+00,-1.931091521625265539e+00,6.287877293164211012e-02,-1.217460193531060830e-01
7.233333333333333393e+00,1.685056091981763601e+09,-2.469675611024846063e-01,-2.744645699000092254e+00,-7.447529681957020919e+00,1.958238283956836412e+00,-2.041670903870746123e+00,6.020539979260852020e-02,-1.988445895952531406e-01
7.250000000000000000e+00,1.685056091999719620e+09,-2.554179199253030497e-01,-2.647927516146502569e+00,-7.254093316249841550e+00,1.958238283956836412e+00,-2.140079365355252783e+00,5.625746591373639166e-02,-2.746967704080769401e-01
7.266666666666666607e+00,1.685056092016739130e+09,-2.640238750547782565e-01,-2.897193076834209791e+00,-7.752624437625255993e+00,1.958238283956836412e+00,-2.225764001471622677e+00,5.100954227406603869e-02,-3.548314647401704658e-01
7.283333333333333215e+00,1.685056092036715508e+09,-2.727569007347003249e-01,-2.795756933841420100e+00,-7.549752151639676612e+00,1.958238283956836412e+00,-2.298259486133265472e+00,4.444110593766276845e-02,-4.331633020700119685e-01
7.299999999999999822e+00,1.685056092050748587e+09,-2.815855183256091299e-01,-2.831927961575282815e+00,-7.622094207107402042e+00,1.958238283956836412e+00,-2.357191302291071100e+00,3.656482255930090103e-02,-5.117723397560893783e-01
7.316666666666666430e+00,1.685056092067750931e+09,-2.904754967090219520e-01,-2.931303453908644219e+00,-7.788795465359117820e+00,1.926188557541829161e+00,-2.402278295310530165e+00,2.736929284178704277e-02,-5.914698391922283971e-01
7.333333333333333037e+00,1.685056092086773872e+09,-2.993900857797282544e-01,-2.998141222547303641e+00,-7.922471002636436666e+00,1.926188557541829161e+00,-2.433334530223866032e+00,1.684295815677618741e-02,-6.714681003867370990e-01
7.349999999999999645e+00,1.685056092103772402e+09,-3.082902810379646863e-01,-3.316603531943269623e+00,-8.559395621428368628e+00,1.926188557541829161e+00,-2.450270439243618981e+00,4.948043148994905882e-03,-7.556877515654039090e-01
7.366666666666666252e+00,1.685056092119771957e+09,-3.171351169575941653e-01,-3.046107150629165261e+00,-8.018402858800159905e+00,1.926188557541829161e+00,-2.453093251399818264e+00,-8.301929044586688067e-03,-8.340911194056387368e-01
7.383333333333332860e+00,1.685056092138717175e+09,-3.258819864925387999e-01,-3.071757601984590913e+00,-8.101753487926018238e+00,1.958238283956836412e+00,-2.441906701700019333e+00,-2.284979268453216084e-02,-9.114376608271034241e-01
7.399999999999999467e+00,1.685056092155772448e+09,-3.344869837949294156e-01,-3.071269604704895961e+00,-8.068727766951621305e+00,1.926188557541829161e+00,-2.416910022766624699e+00,-3.867256224907920925e-02,-9.870845517204149822e-01
7.416666666666666963e+00,1.685056092170742989e+09,-3.429052669577505319e-01,-3.073628584774496186e+00,-8.073445727090820867e+00,1.926188557541829161e+00,-2.378396227435629395e+00,-5.574067122107486533e-02,-1.060883522951921343e+00
7.433333333333333570e+00,1.685056092187764883e+09,-3.510914373648073572e-01,-2.695405446948669681e+00,-7.316999451439168745e+00,1.926188557541829161e+00,-2.326749696261700251e+00,-7.396919608302407467e-02,-1.126357583810144947e+00
7.450000000000000178e+00,1.685056092205743074e+09,-3.589999320342097677e-01,-2.495678467722557858e+00,-6.917545492986944211e+00,1.926188557541829161e+00,-2.262443089224183801e+00,-9.324344353197505653e-02,-1.186385362310306224e+00
7.466666666666666785e+00,1.685056092223743916e+09,-3.665854251801404784e-01,-2.139960474492690334e+00,-6.238159232942217081e+00,1.958238283956836412e+00,-2.186033606124401896e+00,-1.134501772265603392e-01,-1.238278529959339069e+00
7.483333333333333393e+00,1.685056092240738869e+09,-3.738032350933847558e-01,-1.992429386207944964e+00,-5.911047329957718866e+00,1.926188557541829161e+00,-2.098158625167036551e+00,-1.344821151346760613e-01,-1.285423058907473104e+00
7.500000000000000000e+00,1.685056092255738497e+09,-3.806097323552172784e-01,-1.748369782939132033e+00,-5.454977849835100479e+00,1.958238283956836412e+00,-1.999530753987239340e+00,-1.562459514011032558e-01,-1.326124231589818736e+00
7.516666666666666607e+00,1.685056092273741007e+09,-3.869627453527976768e-01,-1.406317672847168909e+00,-4.770873629651174674e+00,1.958238283956836412e+00,-1.890932331883959261e+00,-1.786202748029215026e-01,-1.358704074933519301e+00
7.533333333333333215e+00,1.685056092289742231e+09,-3.928219590578525544e-01,-1.343709867068014319e+00,-4.613608291677858020e+00,1.926188557541829161e+00,-1.773209426213303797e+00,-2.015081882817371106e-01,-1.387764816342725638e+00
7.549999999999999822e+00,1.685056092306739807e+09,-3.981493030642920816e-01,-8.601189528000660056e-01,-3.646426463141961172e+00,1.926188557541829161e+00,-1.647265369750890551e+00,-2.247922442923045716e-01,-1.406270499041340827e+00
7.566666666666666430e+00,1.685056092323762894e+09,-4.029093249543763688e-01,-6.368021728779565960e-01,-3.199792903297742352e+00,1.926188557541829161e+00,-1.514053889319243451e+00,-2.483329284725034058e-01,-1.418577415897761984e+00
7.583333333333333037e+00,1.685056092341766357e+09,-4.070695451765071193e-01,-5.872635914163618631e-01,-3.100715740374552887e+00,1.926188557541829161e+00,-1.374571879068018809e+00,-2.720509204777024070e-01,-1.427556681733969324e+00
7.599999999999999645e+00,1.685056092358764172e+09,-4.106007897696670739e-01,-4.520154007593094603e-01,-2.830219359060448081e+00,1.926188557541829161e+00,-1.229851874467344341e+00,-2.958786573460021052e-01,-1.431760066119447172e+00
7.616666666666666252e+00,1.685056092374763966e+09,-4.134774974586764018e-01,-2.845278158177274030e-01,-2.495244189177284078e+00,1.926188557541829161e+00,-1.080954285306986007e+00,-3.197321707690636838e-01,-1.430664587715130720e+00
7.633333333333332860e+00,1.685056092393724680e+09,-4.156779978689493782e-01,-1.579292187492076782e-01,-2.242046995040244628e+00,1.926188557541829161e+00,-9.289594477694446129e-01,-3.435290980625459456e-01,-1.424982471530292782e+00
7.649999999999999467e+00,1.685056092408764362e+09,-4.171847578673076318e-01,-5.570674906655183334e-02,-2.037602055674932799e+00,1.926188557541829161e+00,-7.749595569495314473e-01,-3.671967186760566881e-01,-1.415159289350383487e+00
7.666666666666666963e+00,1.685056092425741673e+09,-4.179845933241574385e-01,1.353706365710276582e-01,-1.655447284399773844e+00,1.926188557541829161e+00,-6.200505420165939308e-01,-3.906541885551090831e-01,-1.399779817895423939e+00
7.683333333333333570e+00,1.685056092442762852e+09,-4.180688439092607456e-01,1.896271781718219807e-01,-1.546934201198185255e+00,1.926188557541829161e+00,-4.653239465527032048e-01,-4.138285932750154772e-01,-1.381200359315198911e+00
7.700000000000000178e+00,1.685056092459762573e+09,-4.174335088753854395e-01,3.476788428350050530e-01,-1.230830871871819054e+00,1.926188557541829161e+00,-3.118588764476110109e-01,-4.366528797091637770e-01,-1.357779073441260698e+00
7.716666666666666785e+00,1.685056092477742672e+09,-4.160793421480408760e-01,3.626190499424700731e-01,-1.200950457656889014e+00,1.926188557541829161e+00,-1.607140770918158434e-01,-4.590671065944735285e-01,-1.331999763675106641e+00
7.733333333333333393e+00,1.685056092493778706e+09,-4.140119054217625827e-01,4.294568185811296068e-01,-1.067274920379569947e+00,1.926188557541829161e+00,-1.292020048670783350e-02,-4.810255939382059864e-01,-1.303098999363133892e+00
7.750000000000000000e+00,1.685056092511744022e+09,-4.112415783603626251e-01,4.278841652013964381e-01,-1.070420227139036395e+00,1.926188557541829161e+00,1.305276787035851704e-01,-5.024867977877457426e-01,-1.272330931448511171e+00
7.766666666666666607e+00,1.685056092525739670e+09,-4.077835254062992520e-01,4.459696790683279066e-01,-1.034249199405173458e+00,1.926188557541829161e+00,2.686772411891830137e-01,-5.234178709395652662e-01,-1.239489076292399794e+00
7.783333333333333215e+00,1.685056092543742657e+09,-4.036576191189326646e-01,5.324656149536519667e-01,-8.612573276345252271e-01,1.926188557541829161e+00,4.006257407094206968e-01,-5.437759443177885288e-01,-1.203579480319791895e+00
7.799999999999999822e+00,1.685056092561783552e+09,-3.988883203788495813e-01,5.654913359280483443e-01,-7.952058856857323610e-01,1.926188557541829161e+00,5.255264097559202430e-01,-5.635186714093248783e-01,-1.165653124133522844e+00
7.816666666666666430e+00,1.685056092578739405e+09,-3.935045162116080353e-01,6.370470647059073288e-01,-6.520944281300143919e-01,1.926188557541829161e+00,6.425944051368026599e-01,-5.826084781687653757e-01,-1.125235959543370523e+00
7.833333333333333037e+00,1.685056092597725391e+09,-3.875393163950747732e-01,6.488419650539062333e-01,-6.285046274340168049e-01,1.926188557541829161e+00,7.511122488494506033e-01,-6.010136303010679137e-01,-1.083498237179345347e+00
7.849999999999999645e+00,1.685056092613738775e+09,-3.810298104159839938e-01,6.559189052627054650e-01,-6.143507470164183415e-01,1.926188557541829161e+00,8.504347237697198469e-01,-6.187142226220343488e-01,-1.040691751041171731e+00
7.866666666666666252e+00,1.685056092627713919e+09,-3.740167867294992843e-01,6.897309529269685102e-01,-5.467266516878922511e-01,1.926188557541829161e+00,9.399931880164164033e-01,-6.356902459639256486e-01,-9.965536586835572752e-01
7.883333333333332860e+00,1.685056092645762682e+09,-3.665444166465574027e-01,6.865856461675019506e-01,-5.530172652068250372e-01,1.926188557541829161e+00,1.019299276479415317e+00,-6.519262114433592714e-01,-9.518862778266751201e-01
7.899999999999999467e+00,1.685056092662762403e+09,-3.586599055239725886e-01,6.645684988512378100e-01,-5.970515598393536516e-01,1.926188557541829161e+00,1.087947962869071361e+00,-6.674174492846651763e-01,-9.071864322900307087e-01
7.916666666666666963e+00,1.685056092680747509e+09,-3.504131142581878855e-01,6.842266660979022808e-01,-5.577352253460244880e-01,1.926188557541829161e+00,1.145619960717093155e+00,-6.821591827843414002e-01,-8.619472550101044961e-01
7.933333333333333570e+00,1.685056092696762562e+09,-3.418561543819562121e-01,9.791191419784182060e-01,0.000000000000000000e+00,1.958238283956836412e+00,1.192083446992128204e+00,-6.961060301979381526e-01,-8.118136977803319665e-01
7.950000000000000178e+00,1.685056092714762211e+09,-3.330429603310953723e-01,9.630942787709145803e-01,0.000000000000000000e+00,1.926188557541829161e+00,1.227195097348175779e+00,-7.092216065197470831e-01,-7.621932985232048319e-01
7.966666666666666785e+00,1.685056092730763197e+09,-3.240288426832011459e-01,9.630942787709145803e-01,0.000000000000000000e+00,1.926188557541829161e+00,1.250900427456019370e+00,-7.215137555895523302e-01,-7.130012376829506504e-01
7.983333333333333393e+00,1.685056092750762224e+09,-3.148700263692753576e-01,9.630942787709145803e-01,0.000000000000000000e+00,1.926188557541829161e+00,1.263233440335604696e+00,-7.329911279687826298e-01,-6.644184033186116833e-01
8.000000000000000000e+00,1.685056092769715786e+09,-3.056231780208033544e-01,9.630942787709145803e-01,0.000000000000000000e+00,1.926188557541829161e+00,1.264315585066730252e+00,-7.436653472608941717e-01,-6.166206862958727442e-01
8.016666666666665719e+00,1.685056092782733679e+09,-2.963449267370928952e-01,9.630942787709145803e-01,0.000000000000000000e+00,1.926188557541829161e+00,1.254354037663860888e+00,-7.535509156743828152e-01,-5.697776459418045780e-01
8.033333333333333215e+00,1.685056092802714825e+09,-2.870913826394132506e-01,9.630942787709145803e-01,0.000000000000000000e+00,1.926188557541829161e+00,1.233639320215642377e+00,-7.626650978598539243e-01,-5.240512371065574326e-01
8.050000000000000711e+00,1.685056092817742109e+09,-2.779176576188028824e-01,9.630942787709145803e-01,0.000000000000000000e+00,1.926188557541829161e+00,1.202542279568259875e+00,-7.710277841245795072e-01,-4.795946082028456070e-01
8.066666666666666430e+00,1.685056092833763123e+09,-2.688773926827817684e-01,9.630942787709145803e-01,0.000000000000000000e+00,1.926188557541829161e+00,1.161510451834448343e+00,-7.786613342825302597e-01,-4.365509792014721224e-01
8.083333333333333925e+00,1.685056092849743605e+09,-2.600222962625641232e-01,9.630942787709145803e-01,0.000000000000000000e+00,1.926188557541829161e+00,1.111063843796362693e+00,-7.855904035419802867e-01,-3.950526078992341317e-01
8.099999999999999645e+00,1.685056092868763685e+09,-2.514016977570824318e-01,9.630942787709145803e-01,0.000000000000000000e+00,1.926188557541829161e+00,1.051790166803376003e+00,-7.918417519653192516e-01,-3.552198520496570033e-01
8.116666666666667140e+00,1.685056092884763956e+09,-2.430621204638080124e-01,9.791191419784182060e-01,0.000000000000000000e+00,1.958238283956836412e+00,9.843395630097362403e-01,-7.974418257935617094e-01,-3.168954664716120417e-01
8.133333333333332860e+00,1.685056092903762341e+09,-2.350468778802839998e-01,9.630942787709145803e-01,0.000000000000000000e+00,1.926188557541829161e+00,9.094188677184922298e-01,-8.024210146913478559e-01,-2.807077251323357170e-01
8.150000000000000355e+00,1.685056092919741631e+09,-2.273956971558225848e-01,9.630942787709145803e-01,0.000000000000000000e+00,1.926188557541829161e+00,8.277854551660860372e-01,-8.068133480833776794e-01,-2.464673961746892406e-01
8.166666666666666075e+00,1.685056092936748028e+09,-2.201443732319980362e-01,9.791191419784182060e-01,0.000000000000000000e+00,1.958238283956836412e+00,7.402407182692034571e-01,-8.106496169780742500e-01,-2.139751296091989552e-01
8.183333333333333570e+00,1.685056092953729391e+09,-2.133244569355098041e-01,9.630942787709145803e-01,0.000000000000000000e+00,1.926188557541829161e+00,6.476232356369717724e-01,-8.139638416797668752e-01,-1.838156130007082556e-01
8.199999999999999289e+00,1.685056092971748352e+09,-2.069629799803683889e-01,9.630942787709145803e-01,0.000000000000000000e+00,1.926188557541829161e+00,5.508016815045998493e-01,-8.167929464601686451e-01,-1.557549088823813044e-01
8.216666666666666785e+00,1.685056092988750935e+09,-2.010822195009973057e-01,9.630942787709145803e-01,0.000000000000000000e+00,1.926188557541829161e+00,4.506675361533216684e-01,-8.191720791751725406e-01,-1.298130792519734955e-01
8.233333333333332504e+00,1.685056093006761789e+09,-1.956995043770032860e-01,9.630942787709145803e-01,0.000000000000000000e+00,1.926188557541829161e+00,3.481276558277879851e-01,-8.211365940208907865e-01,-1.059948654962769160e-01
8.250000000000000000e+00,1.685056093021761894e+09,-1.908270652272966161e-01,9.630942787709145803e-01,0.000000000000000000e+00,1.926188557541829161e+00,2.440967621393521636e-01,-8.227217972198606066e-01,-8.428981161546933443e-02
8.266666666666665719e+00,1.685056093037762403e+09,-1.864719295498350471e-01,9.630942787709145803e-01,0.000000000000000000e+00,1.926188557541829161e+00,1.394899114391278672e-01,-8.239626957841036381e-01,-6.467250988105888165e-02
8.283333333333333215e+00,1.685056093056762218e+09,-1.826358630670870120e-01,9.630942787709145803e-01,0.000000000000000000e+00,1.926188557541829161e+00,3.521500466166127552e-02,-8.248937513730981719e-01,-4.710296623485474288e-02
8.300000000000000711e+00,1.685056093073741198e+09,-1.793153579105091766e-01,9.791191419784182060e-01,0.000000000000000000e+00,1.958238283956836412e+00,-6.783460232903626430e-02,-8.255464278498252373e-01,-3.126221409730461920e-02
8.316666666666666430e+00,1.685056093091742277e+09,-1.765016678438828257e-01,9.630942787709145803e-01,0.000000000000000000e+00,1.926188557541829161e+00,-1.687873288019181572e-01,-8.259534367265709554e-01,-1.761675605440900932e-02
8.333333333333333925e+00,1.685056093108762264e+09,-1.741808902894502187e-01,9.630942787709145803e-01,0.000000000000000000e+00,1.926188557541829161e+00,-2.668003819565986090e-01,-8.261484436318826674e-01,-5.816850868858674389e-03
8.349999999999999645e+00,1.685056093126761913e+09,-1.723340944865965896e-01,9.630942787709145803e-01,0.000000000000000000e+00,1.926188557541829161e+00,-3.610664966543117860e-01,-8.261614353423587520e-01,4.229937210227435740e-03
8.366666666666667140e+00,1.685056093142714500e+09,-1.709374946844225973e-01,9.630942787709145803e-01,0.000000000000000000e+00,1.926188557541829161e+00,-4.508203485956050471e-01,-8.260207650990473160e-01,1.262716580317115034e-02
8.383333333333332860e+00,1.685056093160742998e+09,-1.699626668511669547e-01,9.630942787709145803e-01,0.000000000000000000e+00,1.926188557541829161e+00,-5.353445901971962684e-01,-8.257529754056819327e-01,1.948853758603435321e-02
8.400000000000000355e+00,1.685056093179739237e+09,-1.693768069789876596e-01,9.791191419784182060e-01,0.000000000000000000e+00,1.958238283956836412e+00,-6.139754615602981414e-01,-8.253804243851147193e-01,2.520171457243585572e-02
8.416666666666666075e+00,1.685056093201742172e+09,-1.691430286759512402e-01,9.630942787709145803e-01,0.000000000000000000e+00,1.926188557541829161e+00,-6.861079324402112878e-01,-8.249256191899356772e-01,2.936334848276858298e-02
8.433333333333333570e+00,1.685056093213765383e+09,-1.692206973720258578e-01,9.630942787709145803e-01,0.000000000000000000e+00,1.926188557541829161e+00,-7.512003349908185079e-01,-8.244110188316562393e-01,3.238031385415739843e-02
8.449999999999999289e+00,1.685056093232714415e+09,-1.695657981257831515e-01,9.630942787709145803e-01,0.000000000000000000e+00,1.926188557541829161e+00,-8.087784512398255021e-01,-8.238545051400956165e-01,3.439573062144822557e-02
8.466666666666666785e+00,1.685056093248763561e+09,-1.701313337067426601e-01,9.630942787709145803e-01,0.000000000000000000e+00,1.926188557541829161e+00,-8.584390237144696734e-01,-8.232715386824990267e-01,3.555701841479239761e-02
8.483333333333332504e+00,1.685056093264713526e+09,-1.708677493477900600e-01,9.630942787709145803e-01,0.000000000000000000e+00,1.926188557541829161e+00,-8.998526623501303945e-01,-8.226750978984287421e-01,3.601460457106852447e-02
8.500000000000000000e+00,1.685056093280748844e+09,-1.717233803155149841e-01,9.630942787709145803e-01,0.000000000000000000e+00,1.926188557541829161e+00,-9.327661257352244384e-01,-8.220756399044343299e-01,3.592061579433566271e-02
8.516666666666665719e+00,1.685056093297740459e+09,-1.726449182360762502e-01,9.630942787709145803e-01,0.000000000000000000e+00,1.926188557541829161e+00,-9.570039598379814771e-01,-8.214810831500156674e-01,3.542756435546590837e-02
8.533333333333333215e+00,1.685056093315742016e+09,-1.735778919422258371e-01,9.630942787709145803e-01,0.000000000000000000e+00,1.926188557541829161e+00,-9.724694825812987276e-01,-8.208968119247855855e-01,3.468703973339609670e-02
8.550000000000000711e+00,1.685056093332740068e+09,-1.744671584751024407e-01,9.630942787709145803e-01,0.000000000000000000e+00,1.926188557541829161e+00,-9.791451079409250191e-01,-8.203257025356652798e-01,3.384841652477565965e-02
8.566666666666666430e+00,1.685056093351744413e+09,-1.752573997836113229e-01,9.630942787709145803e-01,0.000000000000000000e+00,1.926188557541829161e+00,-9.770920085955407952e-01,-8.197681707938599960e-01,3.305758928589325879e-02
8.583333333333333925e+00,1.685056093367761135e+09,-1.758936206153378645e-01,9.791191419784182060e-01,0.000000000000000000e+00,1.958238283956836412e+00,-9.664491215137547275e-01,-8.192200269136068469e-01,3.272061241338449639e-02
8.599999999999999645e+00,1.685056093384764671e+09,-1.763216430866963724e-01,9.630942787709145803e-01,0.000000000000000000e+00,1.926188557541829161e+00,-9.474315061782310199e-01,-8.186770394107312221e-01,3.243867112038688327e-02
8.616666666666667140e+00,1.685056093400715828e+09,-1.764885934561639114e-01,9.630942787709145803e-01,0.000000000000000000e+00,1.926188557541829161e+00,-9.203280703799461282e-01,-8.181349684474571449e-01,3.260937029696228673e-02
8.633333333333332860e+00,1.685056093418761969e+09,-1.763433767027970667e-01,9.791191419784182060e-01,0.000000000000000000e+00,1.958238283956836412e+00,-8.854986836234146619e-01,-8.175830520605824603e-01,3.361779488267095661e-02
8.650000000000000355e+00,1.685056093434762239e+09,-1.758371346319136941e-01,9.630942787709145803e-01,0.000000000000000000e+00,1.926188557541829161e+00,-8.433707031258168563e-01,-8.170108625058013496e-01,3.504099825530819501e-02
8.666666666666666075e+00,1.685056093453763485e+09,-1.749236833896570809e-01,9.630942787709145803e-01,0.000000000000000000e+00,1.926188557541829161e+00,-7.944349421306788894e-01,-8.164083904366434830e-01,3.724951513015422461e-02
8.683333333333333570e+00,1.685056093470763206e+09,-1.735599264666603248e-01,9.630942787709145803e-01,0.000000000000000000e+00,1.926188557541829161e+00,-7.392411147508283209e-01,-8.157617913953797428e-01,4.033380215589190548e-02
8.699999999999999289e+00,1.685056093487763166e+09,-1.717062395060707236e-01,9.630942787709145803e-01,0.000000000000000000e+00,1.926188557541829161e+00,-6.783927957718571822e-01,-8.150558091734376731e-01,4.437284465060083866e-02
8.716666666666666785e+00,1.685056093503748655e+09,-1.693268235007601152e-01,9.630942787709145803e-01,0.000000000000000000e+00,1.926188557541829161e+00,-6.125419377505694207e-01,-8.142739720977809625e-01,4.943354659194990758e-02
8.733333333333332504e+00,1.685056093522748947e+09,-1.663900232657081757e-01,9.791191419784182060e-01,0.000000000000000000e+00,1.958238283956836412e+00,-5.423829913035299599e-01,-8.133965852256530571e-01,5.583509556440343496e-02
