2023-05-24-16:59:04.864031,8.0,5.0,348.0
2023-05-24-16:59:04.867030,4.0,4.0,348.0
2023-05-24-16:59:04.868029,6.0,2.0,348.0
2023-05-24-16:59:04.868029,4.0,3.0,348.0
2023-05-24-16:59:04.871030,3.0,6.0,348.0
2023-05-24-16:59:04.871030,5.0,5.0,348.0
2023-05-24-16:59:04.872032,5.0,4.0,348.0
2023-05-24-16:59:04.873038,5.0,1.0,348.0
2023-05-24-16:59:04.874066,2.0,2.0,348.0
2023-05-24-16:59:04.875064,0.0,4.0,349.0
2023-05-24-16:59:04.876064,2.0,6.0,348.0
2023-05-24-16:59:04.877064,3.0,5.0,349.0
2023-05-24-16:59:04.878063,6.0,6.0,348.0
2023-05-24-16:59:04.879067,12.0,5.0,348.0
2023-05-24-16:59:04.880065,11.0,4.0,348.0
2023-05-24-16:59:04.881065,5.0,2.0,348.0
2023-05-24-16:59:04.882063,3.0,4.0,348.0
2023-05-24-16:59:04.883065,3.0,6.0,348.0
2023-05-24-16:59:04.884070,3.0,6.0,348.0
2023-05-24-16:59:04.885065,6.0,4.0,348.0
2023-05-24-16:59:04.886067,2.0,2.0,348.0
2023-05-24-16:59:04.887035,2.0,4.0,348.0
2023-05-24-16:59:04.888033,2.0,4.0,348.0
2023-05-24-16:59:04.889031,5.0,8.0,348.0
2023-05-24-16:59:04.890039,2.0,3.0,348.0
2023-05-24-16:59:04.891031,6.0,4.0,348.0
2023-05-24-16:59:04.892065,2.0,2.0,348.0
2023-05-24-16:59:04.893065,4.0,2.0,348.0
2023-05-24-16:59:04.894031,4.0,1.0,348.0
2023-05-24-16:59:04.895067,5.0,3.0,348.0
2023-05-24-16:59:04.896064,1.0,8.0,348.0
2023-05-24-16:59:04.897066,7.0,6.0,348.0
2023-05-24-16:59:04.898031,13.0,5.0,348.0
2023-05-24-16:59:04.899065,10.0,2.0,348.0
2023-05-24-16:59:04.900064,8.0,3.0,348.0
2023-05-24-16:59:04.901064,6.0,3.0,348.0
2023-05-24-16:59:04.902065,4.0,5.0,348.0
2023-05-24-16:59:04.903064,3.0,3.0,348.0
2023-05-24-16:59:04.904032,1.0,4.0,348.0
2023-05-24-16:59:04.906031,5.0,6.0,348.0
2023-05-24-16:59:04.907033,5.0,3.0,348.0
2023-05-24-16:59:04.907033,3.0,2.0,348.0
2023-05-24-16:59:04.908086,7.0,3.0,348.0
2023-05-24-16:59:04.909085,4.0,4.0,348.0
2023-05-24-16:59:04.910085,4.0,5.0,348.0
2023-05-24-16:59:04.911092,3.0,5.0,348.0
2023-05-24-16:59:04.912086,2.0,4.0,348.0
2023-05-24-16:59:04.913085,7.0,3.0,348.0
2023-05-24-16:59:04.914089,6.0,3.0,348.0
2023-05-24-16:59:04.915086,4.0,4.0,348.0
2023-05-24-16:59:04.916088,4.0,5.0,348.0
2023-05-24-16:59:04.917064,3.0,6.0,348.0
2023-05-24-16:59:04.918087,6.0,6.0,348.0
2023-05-24-16:59:04.919086,5.0,4.0,348.0
2023-05-24-16:59:04.920066,5.0,6.0,348.0
2023-05-24-16:59:04.921029,6.0,3.0,348.0
2023-05-24-16:59:04.922042,5.0,4.0,348.0
2023-05-24-16:59:04.923032,8.0,3.0,348.0
2023-05-24-16:59:04.924067,6.0,5.0,348.0
2023-05-24-16:59:04.925066,3.0,2.0,348.0
2023-05-24-16:59:04.926031,4.0,3.0,348.0
2023-05-24-16:59:04.927067,4.0,5.0,348.0
2023-05-24-16:59:04.928065,3.0,5.0,348.0
2023-05-24-16:59:04.929065,5.0,6.0,348.0
2023-05-24-16:59:04.930064,5.0,2.0,348.0
2023-05-24-16:59:04.931066,7.0,3.0,348.0
2023-05-24-16:59:04.932064,3.0,1.0,348.0
2023-05-24-16:59:04.933064,4.0,4.0,348.0
2023-05-24-16:59:04.934065,6.0,7.0,348.0
2023-05-24-16:59:04.935031,7.0,2.0,348.0
2023-05-24-16:59:04.936065,6.0,2.0,348.0
2023-05-24-16:59:04.937030,6.0,3.0,348.0
2023-05-24-16:59:04.939031,6.0,2.0,348.0
2023-05-24-16:59:04.940032,1.0,3.0,348.0
2023-05-24-16:59:04.940032,8.0,4.0,348.0
2023-05-24-16:59:04.941048,12.0,3.0,348.0
2023-05-24-16:59:04.942065,9.0,5.0,348.0
2023-05-24-16:59:04.943031,7.0,3.0,348.0
2023-05-24-16:59:04.944065,8.0,4.0,348.0
2023-05-24-16:59:04.945065,5.0,2.0,348.0
2023-05-24-16:59:04.946065,1.0,1.0,348.0
2023-05-24-16:59:04.947075,3.0,3.0,348.0
2023-05-24-16:59:04.948065,6.0,2.0,348.0
2023-05-24-16:59:04.949070,9.0,5.0,348.0
2023-05-24-16:59:04.950065,7.0,6.0,348.0
2023-05-24-16:59:04.951034,5.0,3.0,348.0
2023-05-24-16:59:04.952031,0.0,7.0,348.0
2023-05-24-16:59:04.953030,2.0,6.0,348.0
2023-05-24-16:59:04.954033,2.0,6.0,348.0
2023-05-24-16:59:04.955029,4.0,5.0,348.0
2023-05-24-16:59:04.956030,5.0,5.0,348.0
2023-05-24-16:59:04.957030,3.0,3.0,348.0
2023-05-24-16:59:04.958030,4.0,5.0,348.0
2023-05-24-16:59:04.959030,5.0,4.0,348.0
2023-05-24-16:59:04.960030,4.0,4.0,348.0
2023-05-24-16:59:04.961030,4.0,5.0,348.0
2023-05-24-16:59:04.962029,5.0,3.0,348.0
2023-05-24-16:59:04.963030,5.0,1.0,348.0
2023-05-24-16:59:04.964038,7.0,3.0,348.0
2023-05-24-16:59:04.965029,6.0,3.0,348.0
2023-05-24-16:59:04.966029,3.0,4.0,348.0
2023-05-24-16:59:04.967030,6.0,5.0,348.0
2023-05-24-16:59:04.968066,4.0,3.0,348.0
2023-05-24-16:59:04.969071,6.0,5.0,348.0
2023-05-24-16:59:04.970042,6.0,2.0,348.0
2023-05-24-16:59:04.971034,6.0,3.0,348.0
2023-05-24-16:59:04.972060,2.0,4.0,348.0
2023-05-24-16:59:04.973073,3.0,4.0,348.0
2023-05-24-16:59:04.975076,7.0,1.0,348.0
2023-05-24-16:59:04.976033,8.0,7.0,348.0
2023-05-24-16:59:04.976033,8.0,5.0,348.0
2023-05-24-16:59:04.977030,8.0,5.0,348.0
2023-05-24-16:59:04.978064,7.0,2.0,349.0
2023-05-24-16:59:04.979066,4.0,5.0,348.0
2023-05-24-16:59:04.980031,6.0,2.0,348.0
2023-05-24-16:59:04.981064,3.0,5.0,348.0
2023-05-24-16:59:04.982065,3.0,1.0,348.0
2023-05-24-16:59:04.983065,9.0,4.0,348.0
2023-05-24-16:59:04.984031,10.0,7.0,348.0
2023-05-24-16:59:04.985065,9.0,5.0,348.0
2023-05-24-16:59:04.986065,7.0,3.0,348.0
2023-05-24-16:59:04.987030,1.0,3.0,348.0
2023-05-24-16:59:04.988068,4.0,6.0,348.0
2023-05-24-16:59:04.989071,4.0,3.0,348.0
2023-05-24-16:59:04.990046,6.0,2.0,348.0
2023-05-24-16:59:04.991056,6.0,3.0,348.0
2023-05-24-16:59:04.992067,3.0,7.0,348.0
2023-05-24-16:59:04.993068,1.0,3.0,348.0
2023-05-24-16:59:04.994064,7.0,2.0,348.0
2023-05-24-16:59:04.995065,3.0,2.0,348.0
2023-05-24-16:59:04.996064,4.0,4.0,348.0
2023-05-24-16:59:04.997064,3.0,5.0,348.0
2023-05-24-16:59:04.998073,4.0,5.0,348.0
2023-05-24-16:59:04.999064,7.0,3.0,348.0
2023-05-24-16:59:05.000028,7.0,3.0,348.0
2023-05-24-16:59:05.001032,7.0,3.0,348.0
2023-05-24-16:59:05.002065,8.0,4.0,348.0
2023-05-24-16:59:05.003031,10.0,3.0,348.0
2023-05-24-16:59:05.004029,10.0,3.0,348.0
2023-05-24-16:59:05.005032,4.0,3.0,348.0
2023-05-24-16:59:05.007068,1.0,5.0,348.0
2023-05-24-16:59:05.007068,1.0,5.0,348.0
2023-05-24-16:59:05.008064,1.0,5.0,348.0
2023-05-24-16:59:05.009066,1.0,5.0,348.0
2023-05-24-16:59:05.010065,4.0,5.0,348.0
2023-05-24-16:59:05.011065,5.0,5.0,348.0
2023-05-24-16:59:05.012064,5.0,5.0,348.0
2023-05-24-16:59:05.013066,5.0,5.0,348.0
2023-05-24-16:59:05.014071,7.0,5.0,348.0
2023-05-24-16:59:05.015064,7.0,5.0,348.0
2023-05-24-16:59:05.016065,7.0,5.0,348.0
2023-05-24-16:59:05.017064,7.0,5.0,348.0
2023-05-24-16:59:05.018065,4.0,2.0,348.0
2023-05-24-16:59:05.019064,8.0,3.0,348.0
2023-05-24-16:59:05.020072,8.0,3.0,348.0
2023-05-24-16:59:05.021030,8.0,3.0,348.0
2023-05-24-16:59:05.022030,3.0,4.0,348.0
2023-05-24-16:59:05.023071,2.0,6.0,348.0
2023-05-24-16:59:05.024065,2.0,6.0,348.0
2023-05-24-16:59:05.025031,2.0,6.0,348.0
2023-05-24-16:59:05.026064,1.0,2.0,348.0
2023-05-24-16:59:05.027065,3.0,5.0,348.0
2023-05-24-16:59:05.028028,3.0,5.0,348.0
2023-05-24-16:59:05.029032,3.0,5.0,348.0
2023-05-24-16:59:05.030065,1.0,4.0,348.0
2023-05-24-16:59:05.031067,2.0,3.0,348.0
2023-05-24-16:59:05.032065,2.0,3.0,348.0
2023-05-24-16:59:05.033064,2.0,3.0,348.0
2023-05-24-16:59:05.034067,8.0,1.0,349.0
2023-05-24-16:59:05.035064,7.0,2.0,349.0
2023-05-24-16:59:05.036064,7.0,2.0,349.0
2023-05-24-16:59:05.037030,7.0,2.0,349.0
2023-05-24-16:59:05.038065,8.0,1.0,348.0
2023-05-24-16:59:05.040086,8.0,1.0,348.0
2023-05-24-16:59:05.041067,7.0,4.0,348.0
2023-05-24-16:59:05.041067,7.0,4.0,348.0
2023-05-24-16:59:05.042065,7.0,4.0,348.0
2023-05-24-16:59:05.043065,6.0,3.0,348.0
2023-05-24-16:59:05.044029,6.0,3.0,348.0
2023-05-24-16:59:05.045028,6.0,3.0,348.0
2023-05-24-16:59:05.046028,6.0,3.0,348.0
2023-05-24-16:59:05.047065,6.0,5.0,349.0
2023-05-24-16:59:05.048064,5.0,5.0,348.0
2023-05-24-16:59:05.049063,5.0,5.0,348.0
2023-05-24-16:59:05.050065,5.0,5.0,348.0
2023-05-24-16:59:05.051064,4.0,2.0,349.0
2023-05-24-16:59:05.052063,4.0,6.0,348.0
2023-05-24-16:59:05.053030,4.0,6.0,348.0
2023-05-24-16:59:05.054030,4.0,6.0,348.0
2023-05-24-16:59:05.055067,4.0,2.0,348.0
2023-05-24-16:59:05.056063,6.0,2.0,348.0
2023-05-24-16:59:05.057086,4.0,2.0,348.0
2023-05-24-16:59:05.058091,4.0,2.0,348.0
2023-05-24-16:59:05.059091,4.0,6.0,348.0
2023-05-24-16:59:05.060089,4.0,2.0,348.0
2023-05-24-16:59:05.061086,4.0,2.0,348.0
2023-05-24-16:59:05.062087,4.0,2.0,348.0
2023-05-24-16:59:05.063085,3.0,4.0,348.0
2023-05-24-16:59:05.064091,2.0,3.0,348.0
2023-05-24-16:59:05.065090,2.0,3.0,348.0
2023-05-24-16:59:05.066031,2.0,3.0,348.0
2023-05-24-16:59:05.067086,4.0,4.0,349.0
2023-05-24-16:59:05.068086,4.0,4.0,349.0
2023-05-24-16:59:05.069084,3.0,3.0,348.0
2023-05-24-16:59:05.070032,3.0,3.0,348.0
2023-05-24-16:59:05.071078,5.0,0.0,349.0
2023-05-24-16:59:05.072070,7.0,3.0,349.0
2023-05-24-16:59:05.074065,7.0,3.0,349.0
2023-05-24-16:59:05.074065,7.0,3.0,349.0
2023-05-24-16:59:05.075031,4.0,5.0,348.0
2023-05-24-16:59:05.076064,3.0,5.0,348.0
2023-05-24-16:59:05.077086,3.0,5.0,348.0
2023-05-24-16:59:05.078032,3.0,5.0,348.0
2023-05-24-16:59:05.079085,3.0,5.0,348.0
2023-05-24-16:59:05.080066,4.0,8.0,349.0
2023-05-24-16:59:05.081064,3.0,5.0,348.0
2023-05-24-16:59:05.082066,3.0,5.0,348.0
2023-05-24-16:59:05.083064,3.0,5.0,348.0
2023-05-24-16:59:05.084064,5.0,4.0,349.0
2023-05-24-16:59:05.085066,6.0,4.0,348.0
2023-05-24-16:59:05.086064,6.0,4.0,348.0
2023-05-24-16:59:05.087030,6.0,4.0,348.0
2023-05-24-16:59:05.088030,6.0,2.0,348.0
2023-05-24-16:59:05.089065,5.0,3.0,348.0
2023-05-24-16:59:05.090068,1.0,3.0,348.0
2023-05-24-16:59:05.091056,5.0,3.0,348.0
2023-05-24-16:59:05.092073,5.0,3.0,348.0
2023-05-24-16:59:05.093065,3.0,5.0,348.0
2023-05-24-16:59:05.094065,3.0,5.0,348.0
2023-05-24-16:59:05.095065,3.0,5.0,348.0
2023-05-24-16:59:05.096065,4.0,4.0,348.0
2023-05-24-16:59:05.097064,3.0,5.0,348.0
2023-05-24-16:59:05.098065,5.0,6.0,348.0
2023-05-24-16:59:05.099064,5.0,6.0,348.0
2023-05-24-16:59:05.100065,4.0,4.0,348.0
2023-05-24-16:59:05.101064,4.0,3.0,348.0
2023-05-24-16:59:05.102064,3.0,5.0,348.0
2023-05-24-16:59:05.103029,3.0,5.0,348.0
2023-05-24-16:59:05.104029,5.0,3.0,348.0
2023-05-24-16:59:05.105094,5.0,3.0,348.0
2023-05-24-16:59:05.106064,5.0,2.0,348.0
2023-05-24-16:59:05.107031,5.0,2.0,348.0
2023-05-24-16:59:05.109065,4.0,4.0,349.0
2023-05-24-16:59:05.109065,4.0,4.0,348.0
2023-05-24-16:59:05.110031,4.0,4.0,348.0
2023-05-24-16:59:05.111031,4.0,4.0,348.0
2023-05-24-16:59:05.112070,4.0,5.0,348.0
2023-05-24-16:59:05.113086,7.0,5.0,348.0
2023-05-24-16:59:05.114086,7.0,5.0,348.0
2023-05-24-16:59:05.115087,7.0,5.0,348.0
2023-05-24-16:59:05.116085,5.0,2.0,348.0
2023-05-24-16:59:05.117086,5.0,5.0,348.0
2023-05-24-16:59:05.118084,5.0,4.0,348.0
2023-05-24-16:59:05.119088,5.0,4.0,348.0
2023-05-24-16:59:05.120086,5.0,5.0,348.0
2023-05-24-16:59:05.121085,7.0,4.0,348.0
2023-05-24-16:59:05.122089,7.0,4.0,348.0
2023-05-24-16:59:05.123087,7.0,4.0,348.0
2023-05-24-16:59:05.124064,9.0,5.0,348.0
2023-05-24-16:59:05.125086,4.0,6.0,348.0
2023-05-24-16:59:05.126087,4.0,6.0,348.0
2023-05-24-16:59:05.127086,4.0,6.0,348.0
2023-05-24-16:59:05.128032,4.0,6.0,348.0
2023-05-24-16:59:05.129028,2.0,5.0,349.0
2023-05-24-16:59:05.130084,3.0,5.0,349.0
2023-05-24-16:59:05.131087,5.0,5.0,349.0
2023-05-24-16:59:05.132085,5.0,5.0,349.0
2023-05-24-16:59:05.133085,6.0,6.0,348.0
2023-05-24-16:59:05.134086,4.0,5.0,348.0
2023-05-24-16:59:05.135089,4.0,2.0,348.0
2023-05-24-16:59:05.136091,4.0,2.0,348.0
2023-05-24-16:59:05.137030,4.0,3.0,349.0
2023-05-24-16:59:05.138089,6.0,3.0,348.0
2023-05-24-16:59:05.139086,5.0,3.0,348.0
2023-05-24-16:59:05.141030,5.0,3.0,348.0
2023-05-24-16:59:05.142029,6.0,3.0,348.0
2023-05-24-16:59:05.142029,6.0,3.0,348.0
2023-05-24-16:59:05.143085,6.0,3.0,348.0
2023-05-24-16:59:05.144087,6.0,3.0,348.0
2023-05-24-16:59:05.145089,4.0,6.0,349.0
2023-05-24-16:59:05.146068,6.0,5.0,348.0
2023-05-24-16:59:05.147087,4.0,5.0,348.0
2023-05-24-16:59:05.148031,4.0,5.0,348.0
2023-05-24-16:59:05.149086,4.0,3.0,348.0
2023-05-24-16:59:05.150086,5.0,4.0,348.0
2023-05-24-16:59:05.151090,6.0,3.0,348.0
2023-05-24-16:59:05.152031,6.0,3.0,348.0
2023-05-24-16:59:05.153086,4.0,4.0,348.0
2023-05-24-16:59:05.154065,4.0,5.0,349.0
2023-05-24-16:59:05.155091,7.0,3.0,348.0
2023-05-24-16:59:05.156032,7.0,3.0,348.0
2023-05-24-16:59:05.157086,8.0,1.0,348.0
2023-05-24-16:59:05.158030,8.0,1.0,348.0
2023-05-24-16:59:05.159065,4.0,3.0,348.0
2023-05-24-16:59:05.160066,5.0,4.0,348.0
2023-05-24-16:59:05.161086,4.0,5.0,348.0
2023-05-24-16:59:05.162086,4.0,6.0,348.0
2023-05-24-16:59:05.163086,3.0,7.0,348.0
2023-05-24-16:59:05.164090,3.0,7.0,348.0
2023-05-24-16:59:05.165066,3.0,7.0,348.0
2023-05-24-16:59:05.166092,5.0,7.0,348.0
2023-05-24-16:59:05.167028,6.0,5.0,348.0
2023-05-24-16:59:05.168087,6.0,5.0,348.0
2023-05-24-16:59:05.169086,6.0,5.0,348.0
2023-05-24-16:59:05.170088,7.0,4.0,348.0
2023-05-24-16:59:05.171101,6.0,3.0,348.0
2023-05-24-16:59:05.172077,6.0,3.0,348.0
2023-05-24-16:59:05.173086,6.0,3.0,348.0
2023-05-24-16:59:05.174086,6.0,5.0,348.0
2023-05-24-16:59:05.175086,6.0,5.0,348.0
2023-05-24-16:59:05.176066,4.0,4.0,348.0
2023-05-24-16:59:05.178065,5.0,5.0,348.0
2023-05-24-16:59:05.178065,5.0,4.0,348.0
2023-05-24-16:59:05.179065,5.0,4.0,349.0
2023-05-24-16:59:05.180067,5.0,4.0,349.0
2023-05-24-16:59:05.181065,5.0,4.0,349.0
2023-05-24-16:59:05.182073,6.0,4.0,348.0
2023-05-24-16:59:05.183068,5.0,4.0,348.0
2023-05-24-16:59:05.184065,7.0,4.0,348.0
2023-05-24-16:59:05.185065,7.0,4.0,348.0
2023-05-24-16:59:05.186068,8.0,2.0,348.0
2023-05-24-16:59:05.187029,4.0,3.0,348.0
2023-05-24-16:59:05.188063,4.0,3.0,348.0
2023-05-24-16:59:05.189085,4.0,3.0,348.0
2023-05-24-16:59:05.190086,5.0,4.0,348.0
2023-05-24-16:59:05.191086,5.0,2.0,348.0
2023-05-24-16:59:05.192030,5.0,4.0,348.0
2023-05-24-16:59:05.193028,5.0,4.0,348.0
2023-05-24-16:59:05.194065,6.0,6.0,348.0
2023-05-24-16:59:05.195065,5.0,4.0,348.0
2023-05-24-16:59:05.196067,5.0,4.0,348.0
2023-05-24-16:59:05.197031,5.0,4.0,348.0
2023-05-24-16:59:05.198065,3.0,5.0,348.0
2023-05-24-16:59:05.199068,4.0,4.0,348.0
2023-05-24-16:59:05.200064,3.0,2.0,348.0
2023-05-24-16:59:05.201065,3.0,2.0,348.0
2023-05-24-16:59:05.202065,8.0,1.0,349.0
2023-05-24-16:59:05.203065,6.0,0.0,348.0
2023-05-24-16:59:05.204065,4.0,4.0,348.0
2023-05-24-16:59:05.205064,4.0,4.0,348.0
2023-05-24-16:59:05.206030,4.0,4.0,348.0
2023-05-24-16:59:05.207069,7.0,4.0,349.0
2023-05-24-16:59:05.208031,2.0,4.0,348.0
2023-05-24-16:59:05.209066,2.0,4.0,348.0
2023-05-24-16:59:05.211086,2.0,4.0,348.0
2023-05-24-16:59:05.211086,5.0,5.0,348.0
2023-05-24-16:59:05.212085,5.0,5.0,348.0
2023-05-24-16:59:05.213085,5.0,5.0,348.0
2023-05-24-16:59:05.214085,5.0,5.0,348.0
2023-05-24-16:59:05.215089,6.0,4.0,348.0
2023-05-24-16:59:05.216085,7.0,4.0,348.0
2023-05-24-16:59:05.217085,4.0,6.0,348.0
2023-05-24-16:59:05.218030,4.0,6.0,348.0
2023-05-24-16:59:05.219085,7.0,1.0,348.0
2023-05-24-16:59:05.220088,2.0,5.0,348.0
2023-05-24-16:59:05.221030,7.0,3.0,348.0
2023-05-24-16:59:05.222087,7.0,3.0,348.0
2023-05-24-16:59:05.223028,4.0,2.0,348.0
2023-05-24-16:59:05.224064,4.0,1.0,348.0
2023-05-24-16:59:05.225063,4.0,1.0,348.0
2023-05-24-16:59:05.226065,4.0,1.0,348.0
2023-05-24-16:59:05.227065,4.0,3.0,348.0
2023-05-24-16:59:05.228098,5.0,6.0,348.0
2023-05-24-16:59:05.229085,5.0,6.0,348.0
2023-05-24-16:59:05.230086,5.0,6.0,348.0
2023-05-24-16:59:05.231030,5.0,4.0,348.0
2023-05-24-16:59:05.232086,4.0,5.0,348.0
2023-05-24-16:59:05.233086,5.0,4.0,348.0
2023-05-24-16:59:05.234032,5.0,4.0,348.0
2023-05-24-16:59:05.235085,6.0,4.0,348.0
2023-05-24-16:59:05.236085,6.0,2.0,348.0
2023-05-24-16:59:05.237030,5.0,2.0,348.0
2023-05-24-16:59:05.238031,5.0,2.0,348.0
2023-05-24-16:59:05.239031,7.0,1.0,348.0
2023-05-24-16:59:05.240092,4.0,1.0,348.0
2023-05-24-16:59:05.241086,4.0,5.0,348.0
2023-05-24-16:59:05.242033,4.0,5.0,348.0
2023-05-24-16:59:05.244085,1.0,7.0,348.0
2023-05-24-16:59:05.244085,1.0,7.0,348.0
2023-05-24-16:59:05.245065,4.0,6.0,348.0
2023-05-24-16:59:05.246086,4.0,6.0,348.0
2023-05-24-16:59:05.247089,3.0,4.0,348.0
2023-05-24-16:59:05.248088,3.0,5.0,348.0
2023-05-24-16:59:05.249085,7.0,2.0,348.0
2023-05-24-16:59:05.250089,7.0,2.0,348.0
2023-05-24-16:59:05.251085,7.0,2.0,348.0
2023-05-24-16:59:05.252088,3.0,4.0,349.0
2023-05-24-16:59:05.253086,6.0,1.0,348.0
2023-05-24-16:59:05.254069,6.0,1.0,348.0
2023-05-24-16:59:05.255087,6.0,1.0,348.0
2023-05-24-16:59:05.256066,5.0,5.0,348.0
2023-05-24-16:59:05.257065,5.0,5.0,348.0
2023-05-24-16:59:05.258030,5.0,5.0,348.0
2023-05-24-16:59:05.259065,5.0,5.0,348.0
2023-05-24-16:59:05.260067,3.0,5.0,348.0
2023-05-24-16:59:05.261065,3.0,6.0,348.0
2023-05-24-16:59:05.262065,3.0,6.0,348.0
2023-05-24-16:59:05.263070,3.0,6.0,348.0
2023-05-24-16:59:05.264065,3.0,5.0,348.0
2023-05-24-16:59:05.265066,4.0,6.0,348.0
2023-05-24-16:59:05.266064,5.0,4.0,348.0
2023-05-24-16:59:05.267066,5.0,4.0,348.0
2023-05-24-16:59:05.268065,5.0,2.0,348.0
2023-05-24-16:59:05.269031,3.0,1.0,348.0
2023-05-24-16:59:05.270066,6.0,1.0,348.0
2023-05-24-16:59:05.271029,6.0,1.0,348.0
2023-05-24-16:59:05.272078,5.0,0.0,348.0
2023-05-24-16:59:05.273065,4.0,4.0,348.0
2023-05-24-16:59:05.274065,4.0,6.0,348.0
2023-05-24-16:59:05.275029,4.0,6.0,348.0
2023-05-24-16:59:05.276064,4.0,7.0,348.0
2023-05-24-16:59:05.277064,4.0,5.0,348.0
2023-05-24-16:59:05.279031,4.0,5.0,348.0
2023-05-24-16:59:05.279031,6.0,0.0,348.0
2023-05-24-16:59:05.280063,7.0,1.0,348.0
2023-05-24-16:59:05.281065,7.0,1.0,348.0
2023-05-24-16:59:05.282064,7.0,1.0,348.0
2023-05-24-16:59:05.283031,7.0,1.0,348.0
2023-05-24-16:59:05.284066,6.0,2.0,348.0
2023-05-24-16:59:05.285063,3.0,5.0,348.0
2023-05-24-16:59:05.286064,8.0,3.0,348.0
2023-05-24-16:59:05.287029,8.0,3.0,348.0
2023-05-24-16:59:05.288054,5.0,3.0,348.0
2023-05-24-16:59:05.289065,6.0,0.0,348.0
2023-05-24-16:59:05.290065,4.0,2.0,348.0
2023-05-24-16:59:05.291064,4.0,2.0,348.0
2023-05-24-16:59:05.292067,4.0,2.0,348.0
2023-05-24-16:59:05.293065,3.0,3.0,348.0
2023-05-24-16:59:05.294029,4.0,5.0,348.0
2023-05-24-16:59:05.295068,3.0,7.0,348.0
2023-05-24-16:59:05.296029,3.0,7.0,348.0
2023-05-24-16:59:05.297030,6.0,4.0,348.0
2023-05-24-16:59:05.298063,6.0,4.0,348.0
2023-05-24-16:59:05.299066,6.0,4.0,348.0
2023-05-24-16:59:05.300063,6.0,4.0,348.0
2023-05-24-16:59:05.301063,5.0,4.0,348.0
2023-05-24-16:59:05.302064,4.0,3.0,348.0
2023-05-24-16:59:05.303063,7.0,2.0,348.0
2023-05-24-16:59:05.304065,7.0,2.0,348.0
2023-05-24-16:59:05.305065,5.0,6.0,348.0
2023-05-24-16:59:05.306065,8.0,6.0,348.0
2023-05-24-16:59:05.307063,5.0,3.0,348.0
2023-05-24-16:59:05.308031,5.0,3.0,348.0
2023-05-24-16:59:05.309072,3.0,4.0,348.0
2023-05-24-16:59:05.310064,4.0,7.0,348.0
2023-05-24-16:59:05.311067,4.0,7.0,348.0
2023-05-24-16:59:05.313066,4.0,7.0,348.0
2023-05-24-16:59:05.313066,4.0,2.0,348.0
2023-05-24-16:59:05.314063,5.0,3.0,348.0
2023-05-24-16:59:05.315065,5.0,3.0,348.0
2023-05-24-16:59:05.316031,5.0,3.0,348.0
2023-05-24-16:59:05.317063,3.0,6.0,348.0
2023-05-24-16:59:05.318064,6.0,4.0,348.0
2023-05-24-16:59:05.319031,6.0,4.0,348.0
2023-05-24-16:59:05.320031,6.0,4.0,348.0
2023-05-24-16:59:05.321064,6.0,4.0,349.0
2023-05-24-16:59:05.322066,7.0,5.0,348.0
2023-05-24-16:59:05.323063,4.0,1.0,348.0
2023-05-24-16:59:05.324031,4.0,1.0,348.0
2023-05-24-16:59:05.325063,7.0,3.0,349.0
2023-05-24-16:59:05.326063,5.0,6.0,348.0
2023-05-24-16:59:05.327066,3.0,5.0,348.0
2023-05-24-16:59:05.328063,3.0,5.0,348.0
2023-05-24-16:59:05.329065,6.0,2.0,348.0
2023-05-24-16:59:05.330081,5.0,5.0,348.0
2023-05-24-16:59:05.331064,5.0,5.0,348.0
2023-05-24-16:59:05.332030,5.0,5.0,348.0
2023-05-24-16:59:05.333063,5.0,5.0,348.0
2023-05-24-16:59:05.334069,6.0,4.0,348.0
2023-05-24-16:59:05.335085,6.0,3.0,349.0
2023-05-24-16:59:05.336087,6.0,3.0,349.0
2023-05-24-16:59:05.337051,6.0,3.0,349.0
2023-05-24-16:59:05.338087,6.0,3.0,348.0
2023-05-24-16:59:05.339086,6.0,3.0,348.0
2023-05-24-16:59:05.340085,6.0,3.0,348.0
2023-05-24-16:59:05.341086,6.0,3.0,348.0
2023-05-24-16:59:05.342085,2.0,6.0,348.0
2023-05-24-16:59:05.343089,2.0,6.0,348.0
2023-05-24-16:59:05.344085,2.0,6.0,348.0
2023-05-24-16:59:05.346088,2.0,6.0,348.0
2023-05-24-16:59:05.346088,4.0,4.0,348.0
2023-05-24-16:59:05.347065,4.0,4.0,348.0
2023-05-24-16:59:05.348089,4.0,4.0,348.0
2023-05-24-16:59:05.349085,4.0,4.0,348.0
2023-05-24-16:59:05.350029,4.0,7.0,348.0
2023-05-24-16:59:05.351040,6.0,7.0,348.0
2023-05-24-16:59:05.352030,5.0,5.0,348.0
2023-05-24-16:59:05.353086,5.0,5.0,348.0
2023-05-24-16:59:05.354030,5.0,2.0,348.0
2023-05-24-16:59:05.355031,7.0,3.0,348.0
2023-05-24-16:59:05.356086,7.0,3.0,348.0
2023-05-24-16:59:05.357085,7.0,3.0,348.0
2023-05-24-16:59:05.358031,2.0,1.0,348.0
2023-05-24-16:59:05.359092,2.0,4.0,348.0
2023-05-24-16:59:05.360085,4.0,3.0,348.0
2023-05-24-16:59:05.361085,4.0,3.0,348.0
2023-05-24-16:59:05.362031,3.0,7.0,348.0
2023-05-24-16:59:05.363069,5.0,4.0,349.0
2023-05-24-16:59:05.364069,5.0,4.0,349.0
2023-05-24-16:59:05.365031,5.0,4.0,349.0
2023-05-24-16:59:05.366031,3.0,4.0,348.0
2023-05-24-16:59:05.367066,6.0,2.0,349.0
2023-05-24-16:59:05.368066,6.0,2.0,349.0
2023-05-24-16:59:05.369032,6.0,2.0,349.0
2023-05-24-16:59:05.370078,6.0,5.0,348.0
2023-05-24-16:59:05.371029,6.0,4.0,349.0
2023-05-24-16:59:05.372033,6.0,4.0,349.0
2023-05-24-16:59:05.373029,6.0,4.0,349.0
2023-05-24-16:59:05.374029,4.0,3.0,348.0
2023-05-24-16:59:05.375032,6.0,3.0,348.0
2023-05-24-16:59:05.376065,6.0,3.0,348.0
2023-05-24-16:59:05.377086,6.0,3.0,348.0
2023-05-24-16:59:05.378080,6.0,3.0,348.0
2023-05-24-16:59:05.379031,3.0,5.0,348.0
2023-05-24-16:59:05.380066,5.0,6.0,348.0
2023-05-24-16:59:05.382065,5.0,6.0,348.0
2023-05-24-16:59:05.383051,4.0,5.0,348.0
2023-05-24-16:59:05.383051,5.0,5.0,348.0
2023-05-24-16:59:05.384065,6.0,4.0,348.0
2023-05-24-16:59:05.385065,6.0,4.0,348.0
2023-05-24-16:59:05.386065,6.0,4.0,348.0
2023-05-24-16:59:05.387068,6.0,3.0,348.0
2023-05-24-16:59:05.388035,7.0,4.0,348.0
2023-05-24-16:59:05.389065,6.0,4.0,348.0
2023-05-24-16:59:05.390069,6.0,4.0,348.0
2023-05-24-16:59:05.391089,7.0,2.0,348.0
2023-05-24-16:59:05.392089,5.0,6.0,348.0
2023-05-24-16:59:05.393085,4.0,3.0,348.0
2023-05-24-16:59:05.394089,4.0,3.0,348.0
2023-05-24-16:59:05.395085,5.0,8.0,348.0
2023-05-24-16:59:05.396085,5.0,8.0,348.0
2023-05-24-16:59:05.397085,3.0,4.0,348.0
2023-05-24-16:59:05.398091,6.0,6.0,348.0
2023-05-24-16:59:05.399085,4.0,4.0,348.0
2023-05-24-16:59:05.400030,4.0,5.0,348.0
2023-05-24-16:59:05.401086,6.0,3.0,348.0
2023-05-24-16:59:05.402086,6.0,3.0,348.0
2023-05-24-16:59:05.403088,6.0,5.0,349.0
2023-05-24-16:59:05.404067,6.0,1.0,348.0
2023-05-24-16:59:05.405064,4.0,1.0,348.0
2023-05-24-16:59:05.406031,4.0,1.0,348.0
2023-05-24-16:59:05.407089,5.0,3.0,349.0
2023-05-24-16:59:05.408062,4.0,3.0,348.0
2023-05-24-16:59:05.409086,4.0,8.0,348.0
2023-05-24-16:59:05.410031,4.0,8.0,348.0
2023-05-24-16:59:05.411085,2.0,6.0,348.0
2023-05-24-16:59:05.412086,2.0,4.0,348.0
2023-05-24-16:59:05.413072,6.0,1.0,348.0
2023-05-24-16:59:05.415065,6.0,1.0,348.0
2023-05-24-16:59:05.415065,1.0,7.0,348.0
2023-05-24-16:59:05.416066,1.0,7.0,348.0
2023-05-24-16:59:05.417065,1.0,7.0,348.0
2023-05-24-16:59:05.418065,1.0,7.0,348.0
2023-05-24-16:59:05.419065,1.0,7.0,348.0
2023-05-24-16:59:05.420067,3.0,3.0,348.0
2023-05-24-16:59:05.421065,4.0,1.0,348.0
2023-05-24-16:59:05.422065,4.0,1.0,348.0
2023-05-24-16:59:05.423068,4.0,1.0,348.0
2023-05-24-16:59:05.424064,5.0,4.0,348.0
2023-05-24-16:59:05.425066,4.0,3.0,348.0
2023-05-24-16:59:05.426065,4.0,3.0,348.0
2023-05-24-16:59:05.427065,4.0,3.0,348.0
2023-05-24-16:59:05.428065,2.0,6.0,348.0
2023-05-24-16:59:05.429064,4.0,7.0,348.0
2023-05-24-16:59:05.430064,4.0,4.0,348.0
2023-05-24-16:59:05.431066,4.0,4.0,348.0
2023-05-24-16:59:05.432066,5.0,4.0,348.0
2023-05-24-16:59:05.433065,6.0,3.0,348.0
2023-05-24-16:59:05.434066,6.0,3.0,348.0
2023-05-24-16:59:05.435065,6.0,3.0,348.0
2023-05-24-16:59:05.436067,6.0,3.0,348.0
2023-05-24-16:59:05.437065,5.0,1.0,348.0
2023-05-24-16:59:05.438029,5.0,2.0,348.0
2023-05-24-16:59:05.439031,5.0,2.0,348.0
2023-05-24-16:59:05.440065,6.0,6.0,348.0
2023-05-24-16:59:05.441066,6.0,2.0,348.0
2023-05-24-16:59:05.442030,4.0,4.0,348.0
2023-05-24-16:59:05.443065,4.0,4.0,348.0
2023-05-24-16:59:05.444065,2.0,3.0,348.0
2023-05-24-16:59:05.445065,4.0,4.0,348.0
2023-05-24-16:59:05.446066,6.0,2.0,348.0
2023-05-24-16:59:05.447067,6.0,2.0,348.0
2023-05-24-16:59:05.449065,3.0,2.0,348.0
2023-05-24-16:59:05.449065,6.0,5.0,348.0
2023-05-24-16:59:05.450065,6.0,5.0,348.0
2023-05-24-16:59:05.451031,6.0,5.0,348.0
2023-05-24-16:59:05.452064,4.0,3.0,348.0
2023-05-24-16:59:05.453064,6.0,5.0,348.0
2023-05-24-16:59:05.454030,4.0,3.0,348.0
2023-05-24-16:59:05.455031,4.0,3.0,348.0
2023-05-24-16:59:05.456028,6.0,6.0,348.0
2023-05-24-16:59:05.457065,6.0,6.0,348.0
2023-05-24-16:59:05.458067,6.0,6.0,348.0
2023-05-24-16:59:05.459066,6.0,6.0,348.0
2023-05-24-16:59:05.460063,3.0,4.0,348.0
2023-05-24-16:59:05.461063,4.0,7.0,348.0
2023-05-24-16:59:05.462064,4.0,7.0,348.0
2023-05-24-16:59:05.463063,4.0,7.0,348.0
2023-05-24-16:59:05.464064,4.0,7.0,348.0
2023-05-24-16:59:05.465064,3.0,5.0,348.0
2023-05-24-16:59:05.466067,3.0,2.0,348.0
2023-05-24-16:59:05.467064,3.0,3.0,348.0
2023-05-24-16:59:05.468063,3.0,3.0,348.0
2023-05-24-16:59:05.469063,6.0,4.0,348.0
2023-05-24-16:59:05.470063,5.0,4.0,349.0
2023-05-24-16:59:05.471029,5.0,4.0,349.0
2023-05-24-16:59:05.472079,5.0,4.0,349.0
2023-05-24-16:59:05.473066,6.0,3.0,349.0
2023-05-24-16:59:05.474064,4.0,6.0,348.0
2023-05-24-16:59:05.475066,4.0,5.0,349.0
2023-05-24-16:59:05.476028,4.0,5.0,349.0
2023-05-24-16:59:05.477032,3.0,6.0,348.0
2023-05-24-16:59:05.478065,7.0,5.0,348.0
2023-05-24-16:59:05.479086,7.0,5.0,348.0
2023-05-24-16:59:05.480086,7.0,5.0,348.0
2023-05-24-16:59:05.482066,5.0,3.0,348.0
2023-05-24-16:59:05.482066,4.0,3.0,348.0
2023-05-24-16:59:05.483087,4.0,3.0,348.0
2023-05-24-16:59:05.484085,4.0,3.0,348.0
2023-05-24-16:59:05.485088,4.0,3.0,348.0
2023-05-24-16:59:05.486086,6.0,2.0,348.0
2023-05-24-16:59:05.487090,7.0,5.0,348.0
2023-05-24-16:59:05.488065,7.0,5.0,348.0
2023-05-24-16:59:05.489085,5.0,4.0,348.0
2023-05-24-16:59:05.490089,2.0,3.0,348.0
2023-05-24-16:59:05.491086,4.0,3.0,348.0
2023-05-24-16:59:05.492029,4.0,3.0,348.0
2023-05-24-16:59:05.493031,2.0,3.0,349.0
2023-05-24-16:59:05.494087,4.0,5.0,348.0
2023-05-24-16:59:05.495086,3.0,4.0,348.0
2023-05-24-16:59:05.496032,3.0,4.0,348.0
2023-05-24-16:59:05.497086,4.0,5.0,348.0
2023-05-24-16:59:05.498086,4.0,5.0,348.0
2023-05-24-16:59:05.499065,5.0,5.0,349.0
2023-05-24-16:59:05.500068,5.0,3.0,348.0
2023-05-24-16:59:05.501065,5.0,3.0,348.0
2023-05-24-16:59:05.502049,6.0,3.0,348.0
2023-05-24-16:59:05.503069,8.0,3.0,348.0
2023-05-24-16:59:05.504030,5.0,4.0,348.0
2023-05-24-16:59:05.505067,5.0,4.0,348.0
2023-05-24-16:59:05.506031,5.0,2.0,349.0
2023-05-24-16:59:05.507070,4.0,7.0,349.0
2023-05-24-16:59:05.508065,4.0,7.0,349.0
2023-05-24-16:59:05.509064,4.0,7.0,349.0
2023-05-24-16:59:05.510065,4.0,8.0,349.0
2023-05-24-16:59:05.511064,2.0,4.0,349.0
2023-05-24-16:59:05.512065,4.0,2.0,348.0
2023-05-24-16:59:05.513065,4.0,2.0,348.0
2023-05-24-16:59:05.514065,5.0,3.0,348.0
2023-05-24-16:59:05.515071,5.0,3.0,348.0
2023-05-24-16:59:05.517065,6.0,3.0,348.0
2023-05-24-16:59:05.517065,5.0,2.0,348.0
2023-05-24-16:59:05.518065,6.0,3.0,348.0
2023-05-24-16:59:05.519069,6.0,3.0,348.0
2023-05-24-16:59:05.520064,6.0,3.0,348.0
2023-05-24-16:59:05.521066,6.0,3.0,348.0
2023-05-24-16:59:05.522064,6.0,3.0,348.0
2023-05-24-16:59:05.523066,6.0,0.0,349.0
2023-05-24-16:59:05.524064,5.0,5.0,348.0
2023-05-24-16:59:05.525031,5.0,5.0,348.0
2023-05-24-16:59:05.526065,4.0,6.0,348.0
2023-05-24-16:59:05.527064,3.0,5.0,348.0
2023-05-24-16:59:05.528065,5.0,6.0,348.0
2023-05-24-16:59:05.529063,5.0,6.0,348.0
2023-05-24-16:59:05.530065,2.0,5.0,348.0
2023-05-24-16:59:05.531064,3.0,5.0,348.0
2023-05-24-16:59:05.533037,3.0,5.0,348.0
2023-05-24-16:59:05.533037,5.0,1.0,348.0
2023-05-24-16:59:05.534029,7.0,2.0,348.0
2023-05-24-16:59:05.535038,7.0,2.0,348.0
2023-05-24-16:59:05.536064,7.0,2.0,348.0
2023-05-24-16:59:05.537031,7.0,2.0,348.0
2023-05-24-16:59:05.538064,6.0,4.0,348.0
2023-05-24-16:59:05.539083,4.0,5.0,348.0
2023-05-24-16:59:05.540064,5.0,4.0,348.0
2023-05-24-16:59:05.541064,5.0,4.0,348.0
2023-05-24-16:59:05.542031,5.0,7.0,348.0
2023-05-24-16:59:05.543063,5.0,7.0,348.0
2023-05-24-16:59:05.544064,5.0,4.0,348.0
2023-05-24-16:59:05.545066,5.0,4.0,348.0
2023-05-24-16:59:05.546066,5.0,3.0,348.0
2023-05-24-16:59:05.547064,6.0,5.0,348.0
2023-05-24-16:59:05.548064,6.0,5.0,348.0
2023-05-24-16:59:05.549063,6.0,5.0,348.0
2023-05-24-16:59:05.551067,6.0,5.0,348.0
2023-05-24-16:59:05.551067,6.0,0.0,348.0
2023-05-24-16:59:05.552064,6.0,0.0,348.0
2023-05-24-16:59:05.553067,6.0,0.0,348.0
2023-05-24-16:59:05.554039,6.0,0.0,348.0
2023-05-24-16:59:05.555032,7.0,3.0,349.0
2023-05-24-16:59:05.556073,6.0,5.0,348.0
2023-05-24-16:59:05.557064,4.0,4.0,348.0
2023-05-24-16:59:05.558065,4.0,4.0,348.0
2023-05-24-16:59:05.559063,4.0,5.0,348.0
2023-05-24-16:59:05.560075,4.0,5.0,348.0
2023-05-24-16:59:05.561064,4.0,5.0,348.0
2023-05-24-16:59:05.562066,4.0,5.0,348.0
2023-05-24-16:59:05.563064,6.0,5.0,349.0
2023-05-24-16:59:05.564064,3.0,7.0,348.0
2023-05-24-16:59:05.565064,3.0,7.0,348.0
2023-05-24-16:59:05.566063,3.0,7.0,348.0
2023-05-24-16:59:05.567072,5.0,5.0,348.0
2023-05-24-16:59:05.568063,5.0,5.0,348.0
2023-05-24-16:59:05.569065,5.0,4.0,348.0
2023-05-24-16:59:05.570063,6.0,5.0,348.0
2023-05-24-16:59:05.571086,5.0,2.0,348.0
2023-05-24-16:59:05.572049,3.0,5.0,348.0
2023-05-24-16:59:05.573063,4.0,4.0,348.0
2023-05-24-16:59:05.574064,4.0,4.0,348.0
2023-05-24-16:59:05.575063,5.0,2.0,349.0
2023-05-24-16:59:05.576064,4.0,3.0,348.0
2023-05-24-16:59:05.577063,2.0,3.0,348.0
2023-05-24-16:59:05.578031,2.0,3.0,348.0
2023-05-24-16:59:05.579035,3.0,7.0,348.0
2023-05-24-16:59:05.580063,6.0,7.0,348.0
2023-05-24-16:59:05.581063,5.0,3.0,348.0
2023-05-24-16:59:05.582031,5.0,3.0,348.0
2023-05-24-16:59:05.583066,7.0,4.0,348.0
2023-05-24-16:59:05.585065,7.0,4.0,348.0
2023-05-24-16:59:05.585065,8.0,3.0,348.0
2023-05-24-16:59:05.586031,5.0,3.0,348.0
2023-05-24-16:59:05.587065,8.0,4.0,348.0
2023-05-24-16:59:05.588063,4.0,3.0,348.0
2023-05-24-16:59:05.589064,7.0,3.0,348.0
2023-05-24-16:59:05.590064,7.0,3.0,348.0
2023-05-24-16:59:05.591063,7.0,3.0,348.0
2023-05-24-16:59:05.592030,5.0,3.0,348.0
2023-05-24-16:59:05.593064,5.0,5.0,348.0
2023-05-24-16:59:05.594065,5.0,5.0,348.0
2023-05-24-16:59:05.595063,5.0,5.0,348.0
2023-05-24-16:59:05.596064,5.0,5.0,348.0
2023-05-24-16:59:05.597063,5.0,6.0,348.0
2023-05-24-16:59:05.598063,4.0,4.0,348.0
2023-05-24-16:59:05.599066,4.0,4.0,348.0
2023-05-24-16:59:05.600064,6.0,5.0,348.0
2023-05-24-16:59:05.601072,6.0,5.0,348.0
2023-05-24-16:59:05.602065,5.0,3.0,348.0
2023-05-24-16:59:05.603065,6.0,3.0,348.0
2023-05-24-16:59:05.604029,4.0,3.0,348.0
2023-05-24-16:59:05.605065,5.0,3.0,348.0
2023-05-24-16:59:05.606031,4.0,4.0,348.0
2023-05-24-16:59:05.607065,4.0,4.0,348.0
2023-05-24-16:59:05.608066,7.0,4.0,348.0
2023-05-24-16:59:05.609071,4.0,2.0,348.0
2023-05-24-16:59:05.610065,4.0,5.0,348.0
2023-05-24-16:59:05.611029,4.0,5.0,348.0
2023-05-24-16:59:05.612030,5.0,3.0,348.0
2023-05-24-16:59:05.613063,4.0,5.0,348.0
2023-05-24-16:59:05.614071,4.0,5.0,348.0
2023-05-24-16:59:05.615067,4.0,5.0,348.0
2023-05-24-16:59:05.616063,6.0,4.0,348.0
2023-05-24-16:59:05.617038,3.0,1.0,348.0
2023-05-24-16:59:05.618070,3.0,1.0,348.0
2023-05-24-16:59:05.619031,3.0,1.0,348.0
2023-05-24-16:59:05.621063,4.0,3.0,348.0
2023-05-24-16:59:05.621063,6.0,3.0,348.0
2023-05-24-16:59:05.622064,6.0,3.0,348.0
2023-05-24-16:59:05.623031,6.0,3.0,348.0
2023-05-24-16:59:05.624064,5.0,4.0,348.0
2023-05-24-16:59:05.625031,3.0,5.0,348.0
2023-05-24-16:59:05.626069,6.0,6.0,348.0
2023-05-24-16:59:05.627063,6.0,6.0,348.0
2023-05-24-16:59:05.628063,5.0,5.0,348.0
2023-05-24-16:59:05.629063,3.0,4.0,348.0
2023-05-24-16:59:05.630063,3.0,4.0,348.0
2023-05-24-16:59:05.631076,3.0,4.0,348.0
2023-05-24-16:59:05.632072,6.0,4.0,348.0
2023-05-24-16:59:05.633066,5.0,2.0,348.0
2023-05-24-16:59:05.634063,5.0,2.0,348.0
2023-05-24-16:59:05.635065,5.0,2.0,348.0
2023-05-24-16:59:05.636063,8.0,2.0,348.0
2023-05-24-16:59:05.637064,5.0,4.0,348.0
2023-05-24-16:59:05.638064,5.0,4.0,348.0
2023-05-24-16:59:05.639063,5.0,4.0,348.0
2023-05-24-16:59:05.640064,5.0,4.0,348.0
2023-05-24-16:59:05.641063,4.0,2.0,349.0
2023-05-24-16:59:05.642029,4.0,4.0,348.0
2023-05-24-16:59:05.643063,4.0,3.0,348.0
2023-05-24-16:59:05.644063,4.0,3.0,348.0
2023-05-24-16:59:05.645063,4.0,4.0,348.0
2023-05-24-16:59:05.646063,6.0,7.0,348.0
2023-05-24-16:59:05.647067,4.0,5.0,348.0
2023-05-24-16:59:05.648065,4.0,5.0,348.0
2023-05-24-16:59:05.649028,4.0,6.0,348.0
2023-05-24-16:59:05.650064,7.0,5.0,348.0
2023-05-24-16:59:05.651065,7.0,5.0,348.0
2023-05-24-16:59:05.652064,7.0,5.0,348.0
2023-05-24-16:59:05.653032,7.0,0.0,348.0
2023-05-24-16:59:05.655028,7.0,0.0,348.0
2023-05-24-16:59:05.655028,7.0,0.0,348.0
2023-05-24-16:59:05.656040,5.0,4.0,348.0
2023-05-24-16:59:05.657148,5.0,4.0,348.0
2023-05-24-16:59:05.658079,5.0,4.0,348.0
2023-05-24-16:59:05.659029,5.0,4.0,348.0
2023-05-24-16:59:05.660110,5.0,4.0,348.0
2023-05-24-16:59:05.661042,4.0,5.0,348.0
2023-05-24-16:59:05.662177,5.0,4.0,348.0
2023-05-24-16:59:05.663090,5.0,4.0,348.0
2023-05-24-16:59:05.664132,5.0,4.0,348.0
2023-05-24-16:59:05.665052,4.0,5.0,348.0
2023-05-24-16:59:05.666146,4.0,5.0,348.0
2023-05-24-16:59:05.667097,4.0,5.0,348.0
2023-05-24-16:59:05.668031,4.0,5.0,348.0
2023-05-24-16:59:05.669031,8.0,2.0,348.0
2023-05-24-16:59:05.670065,8.0,2.0,348.0
2023-05-24-16:59:05.671095,8.0,2.0,348.0
2023-05-24-16:59:05.672064,8.0,2.0,348.0
2023-05-24-16:59:05.673063,7.0,2.0,348.0
2023-05-24-16:59:05.674065,3.0,5.0,349.0
2023-05-24-16:59:05.675031,5.0,7.0,348.0
2023-05-24-16:59:05.676063,5.0,7.0,348.0
2023-05-24-16:59:05.677065,5.0,7.0,348.0
2023-05-24-16:59:05.678063,4.0,5.0,348.0
2023-05-24-16:59:05.679067,5.0,5.0,348.0
2023-05-24-16:59:05.680028,5.0,5.0,348.0
2023-05-24-16:59:05.681066,5.0,5.0,348.0
2023-05-24-16:59:05.682067,6.0,8.0,348.0
2023-05-24-16:59:05.683065,4.0,5.0,349.0
2023-05-24-16:59:05.684072,4.0,2.0,348.0
2023-05-24-16:59:05.685065,4.0,2.0,348.0
2023-05-24-16:59:05.687065,4.0,3.0,348.0
2023-05-24-16:59:05.687065,4.0,3.0,348.0
2023-05-24-16:59:05.688052,4.0,3.0,348.0
2023-05-24-16:59:05.689090,4.0,3.0,348.0
2023-05-24-16:59:05.690065,5.0,4.0,348.0
2023-05-24-16:59:05.691070,5.0,7.0,348.0
2023-05-24-16:59:05.692085,5.0,7.0,348.0
2023-05-24-16:59:05.693085,5.0,7.0,348.0
2023-05-24-16:59:05.694086,3.0,4.0,348.0
2023-05-24-16:59:05.695089,3.0,5.0,348.0
2023-05-24-16:59:05.696085,7.0,4.0,348.0
2023-05-24-16:59:05.697086,7.0,4.0,348.0
2023-05-24-16:59:05.698089,4.0,5.0,348.0
2023-05-24-16:59:05.699092,4.0,4.0,349.0
2023-05-24-16:59:05.700088,5.0,1.0,348.0
2023-05-24-16:59:05.701086,5.0,1.0,348.0
2023-05-24-16:59:05.702086,3.0,2.0,348.0
2023-05-24-16:59:05.703086,3.0,2.0,348.0
2023-05-24-16:59:05.704062,5.0,5.0,348.0
2023-05-24-16:59:05.705031,7.0,3.0,348.0
2023-05-24-16:59:05.706065,4.0,4.0,348.0
2023-05-24-16:59:05.707086,5.0,4.0,348.0
2023-05-24-16:59:05.708085,5.0,4.0,348.0
2023-05-24-16:59:05.709036,5.0,4.0,348.0
2023-05-24-16:59:05.710090,4.0,3.0,348.0
2023-05-24-16:59:05.711089,2.0,6.0,348.0
2023-05-24-16:59:05.712085,4.0,5.0,348.0
2023-05-24-16:59:05.713086,4.0,5.0,348.0
2023-05-24-16:59:05.714029,4.0,6.0,348.0
2023-05-24-16:59:05.715065,5.0,4.0,348.0
2023-05-24-16:59:05.716056,5.0,6.0,348.0
2023-05-24-16:59:05.717065,5.0,6.0,348.0
2023-05-24-16:59:05.718066,5.0,6.0,348.0
2023-05-24-16:59:05.719041,6.0,0.0,348.0
2023-05-24-16:59:05.720066,6.0,0.0,348.0
2023-05-24-16:59:05.721064,6.0,0.0,348.0
2023-05-24-16:59:05.722066,6.0,0.0,348.0
2023-05-24-16:59:05.724067,6.0,0.0,348.0
2023-05-24-16:59:05.724067,5.0,2.0,348.0
2023-05-24-16:59:05.725031,4.0,4.0,348.0
2023-05-24-16:59:05.726065,4.0,4.0,348.0
2023-05-24-16:59:05.727068,5.0,4.0,348.0
2023-05-24-16:59:05.728078,4.0,5.0,348.0
2023-05-24-16:59:05.729066,5.0,6.0,348.0
2023-05-24-16:59:05.730032,5.0,6.0,348.0
2023-05-24-16:59:05.731067,4.0,3.0,348.0
2023-05-24-16:59:05.732066,5.0,4.0,348.0
2023-05-24-16:59:05.733065,6.0,5.0,348.0
2023-05-24-16:59:05.734066,6.0,5.0,348.0
2023-05-24-16:59:05.735065,2.0,4.0,348.0
2023-05-24-16:59:05.736066,2.0,2.0,349.0
2023-05-24-16:59:05.737067,4.0,3.0,348.0
2023-05-24-16:59:05.738066,4.0,3.0,348.0
2023-05-24-16:59:05.739064,5.0,4.0,348.0
2023-05-24-16:59:05.740068,5.0,4.0,348.0
2023-05-24-16:59:05.741065,4.0,6.0,348.0
2023-05-24-16:59:05.742068,4.0,6.0,348.0
2023-05-24-16:59:05.743068,4.0,5.0,348.0
2023-05-24-16:59:05.744065,5.0,5.0,348.0
2023-05-24-16:59:05.745066,6.0,6.0,348.0
2023-05-24-16:59:05.746030,6.0,6.0,348.0
2023-05-24-16:59:05.747065,5.0,5.0,348.0
2023-05-24-16:59:05.748065,4.0,3.0,348.0
2023-05-24-16:59:05.749066,4.0,3.0,348.0
2023-05-24-16:59:05.750029,4.0,3.0,348.0
2023-05-24-16:59:05.751028,6.0,3.0,348.0
2023-05-24-16:59:05.752065,4.0,3.0,348.0
2023-05-24-16:59:05.753063,4.0,3.0,348.0
2023-05-24-16:59:05.754058,4.0,3.0,348.0
2023-05-24-16:59:05.755064,7.0,3.0,348.0
2023-05-24-16:59:05.757063,7.0,3.0,348.0
2023-05-24-16:59:05.757063,4.0,5.0,348.0
2023-05-24-16:59:05.758063,4.0,5.0,348.0
2023-05-24-16:59:05.759067,4.0,5.0,348.0
2023-05-24-16:59:05.760068,4.0,5.0,348.0
2023-05-24-16:59:05.761066,5.0,6.0,348.0
2023-05-24-16:59:05.762063,5.0,6.0,348.0
2023-05-24-16:59:05.763066,5.0,6.0,348.0
2023-05-24-16:59:05.764063,6.0,3.0,348.0
2023-05-24-16:59:05.765063,6.0,3.0,348.0
2023-05-24-16:59:05.766064,6.0,3.0,348.0
2023-05-24-16:59:05.767063,6.0,3.0,348.0
2023-05-24-16:59:05.768065,5.0,4.0,348.0
2023-05-24-16:59:05.769063,7.0,2.0,348.0
2023-05-24-16:59:05.770066,7.0,2.0,348.0
2023-05-24-16:59:05.771030,7.0,2.0,348.0
2023-05-24-16:59:05.772071,5.0,2.0,348.0
2023-05-24-16:59:05.773063,6.0,2.0,348.0
2023-05-24-16:59:05.774068,6.0,2.0,348.0
2023-05-24-16:59:05.775029,6.0,2.0,348.0
2023-05-24-16:59:05.776064,5.0,5.0,349.0
2023-05-24-16:59:05.777065,5.0,3.0,348.0
2023-05-24-16:59:05.778064,4.0,4.0,348.0
2023-05-24-16:59:05.779065,4.0,4.0,348.0
2023-05-24-16:59:05.780064,3.0,4.0,349.0
2023-05-24-16:59:05.781064,6.0,5.0,348.0
2023-05-24-16:59:05.782065,5.0,3.0,348.0
2023-05-24-16:59:05.783064,5.0,3.0,348.0
2023-05-24-16:59:05.784065,5.0,5.0,348.0
2023-05-24-16:59:05.785064,5.0,4.0,348.0
2023-05-24-16:59:05.786065,4.0,4.0,348.0
2023-05-24-16:59:05.787064,4.0,4.0,348.0
2023-05-24-16:59:05.789029,4.0,4.0,348.0
2023-05-24-16:59:05.789029,4.0,4.0,348.0
2023-05-24-16:59:05.790064,4.0,4.0,348.0
2023-05-24-16:59:05.791031,4.0,4.0,348.0
2023-05-24-16:59:05.792068,4.0,3.0,348.0
2023-05-24-16:59:05.793066,4.0,6.0,348.0
2023-05-24-16:59:05.794031,4.0,6.0,348.0
2023-05-24-16:59:05.795038,4.0,6.0,348.0
2023-05-24-16:59:05.796030,4.0,6.0,348.0
2023-05-24-16:59:05.797043,5.0,5.0,348.0
2023-05-24-16:59:05.798064,5.0,5.0,348.0
2023-05-24-16:59:05.799063,5.0,4.0,348.0
2023-05-24-16:59:05.800065,5.0,6.0,348.0
2023-05-24-16:59:05.801064,4.0,3.0,348.0
2023-05-24-16:59:05.802066,7.0,3.0,348.0
2023-05-24-16:59:05.803064,7.0,3.0,348.0
2023-05-24-16:59:05.804053,7.0,3.0,348.0
2023-05-24-16:59:05.805069,5.0,3.0,348.0
2023-05-24-16:59:05.806074,5.0,3.0,348.0
2023-05-24-16:59:05.807068,5.0,3.0,348.0
2023-05-24-16:59:05.808065,5.0,3.0,348.0
2023-05-24-16:59:05.809066,3.0,5.0,348.0
2023-05-24-16:59:05.810065,2.0,3.0,348.0
2023-05-24-16:59:05.811065,1.0,3.0,348.0
2023-05-24-16:59:05.812063,1.0,3.0,348.0
2023-05-24-16:59:05.813064,4.0,4.0,348.0
2023-05-24-16:59:05.814064,5.0,2.0,348.0
2023-05-24-16:59:05.815063,7.0,5.0,349.0
2023-05-24-16:59:05.816064,7.0,5.0,349.0
2023-05-24-16:59:05.817064,5.0,4.0,348.0
2023-05-24-16:59:05.818066,7.0,2.0,348.0
2023-05-24-16:59:05.819063,6.0,2.0,348.0
2023-05-24-16:59:05.820063,6.0,2.0,348.0
2023-05-24-16:59:05.821063,4.0,3.0,348.0
2023-05-24-16:59:05.822033,6.0,3.0,348.0
2023-05-24-16:59:05.824064,7.0,4.0,348.0
2023-05-24-16:59:05.824064,7.0,4.0,348.0
2023-05-24-16:59:05.825035,4.0,4.0,348.0
2023-05-24-16:59:05.826051,3.0,4.0,348.0
2023-05-24-16:59:05.827063,3.0,4.0,348.0
2023-05-24-16:59:05.828064,3.0,4.0,348.0
2023-05-24-16:59:05.829063,4.0,5.0,348.0
2023-05-24-16:59:05.830064,2.0,4.0,348.0
2023-05-24-16:59:05.831064,3.0,4.0,348.0
2023-05-24-16:59:05.832031,3.0,4.0,348.0
2023-05-24-16:59:05.833063,7.0,5.0,348.0
2023-05-24-16:59:05.834065,7.0,4.0,348.0
2023-05-24-16:59:05.835064,6.0,6.0,348.0
2023-05-24-16:59:05.836031,6.0,6.0,348.0
2023-05-24-16:59:05.837063,6.0,0.0,348.0
2023-05-24-16:59:05.838067,6.0,5.0,348.0
2023-05-24-16:59:05.839067,6.0,5.0,348.0
2023-05-24-16:59:05.840068,6.0,5.0,348.0
2023-05-24-16:59:05.841072,6.0,5.0,348.0
2023-05-24-16:59:05.842063,4.0,5.0,348.0
2023-05-24-16:59:05.843065,2.0,4.0,348.0
2023-05-24-16:59:05.844063,2.0,4.0,348.0
2023-05-24-16:59:05.845063,2.0,4.0,348.0
2023-05-24-16:59:05.846064,3.0,5.0,348.0
2023-05-24-16:59:05.847063,3.0,5.0,348.0
2023-05-24-16:59:05.848064,3.0,5.0,348.0
2023-05-24-16:59:05.849063,3.0,5.0,348.0
2023-05-24-16:59:05.850065,5.0,2.0,348.0
2023-05-24-16:59:05.851064,5.0,4.0,348.0
2023-05-24-16:59:05.852063,4.0,3.0,348.0
2023-05-24-16:59:05.853063,4.0,3.0,348.0
2023-05-24-16:59:05.854063,6.0,3.0,348.0
2023-05-24-16:59:05.855067,3.0,4.0,348.0
2023-05-24-16:59:05.856030,3.0,4.0,348.0
2023-05-24-16:59:05.857036,3.0,4.0,348.0
2023-05-24-16:59:05.858057,5.0,4.0,348.0
2023-05-24-16:59:05.859032,6.0,5.0,348.0
2023-05-24-16:59:05.861031,6.0,5.0,348.0
2023-05-24-16:59:05.862047,6.0,5.0,348.0
2023-05-24-16:59:05.862047,6.0,7.0,348.0
2023-05-24-16:59:05.863034,6.0,5.0,348.0
2023-05-24-16:59:05.864030,6.0,5.0,348.0
2023-05-24-16:59:05.865065,6.0,5.0,348.0
2023-05-24-16:59:05.866065,3.0,4.0,348.0
2023-05-24-16:59:05.867065,5.0,1.0,348.0
2023-05-24-16:59:05.868072,5.0,1.0,348.0
2023-05-24-16:59:05.869031,5.0,1.0,348.0
2023-05-24-16:59:05.870064,6.0,2.0,348.0
2023-05-24-16:59:05.871055,6.0,4.0,348.0
2023-05-24-16:59:05.872030,5.0,4.0,348.0
2023-05-24-16:59:05.873032,4.0,5.0,348.0
2023-05-24-16:59:05.874035,3.0,4.0,348.0
2023-05-24-16:59:05.875028,4.0,4.0,348.0
2023-05-24-16:59:05.876065,4.0,4.0,348.0
2023-05-24-16:59:05.877034,4.0,4.0,348.0
2023-05-24-16:59:05.878064,3.0,4.0,348.0
2023-05-24-16:59:05.879072,5.0,6.0,348.0
2023-05-24-16:59:05.880066,5.0,6.0,348.0
2023-05-24-16:59:05.881065,5.0,6.0,348.0
2023-05-24-16:59:05.882065,6.0,4.0,348.0
2023-05-24-16:59:05.883065,7.0,2.0,348.0
2023-05-24-16:59:05.884067,5.0,5.0,348.0
2023-05-24-16:59:05.885066,5.0,5.0,348.0
2023-05-24-16:59:05.886064,5.0,2.0,348.0
2023-05-24-16:59:05.887089,8.0,3.0,348.0
2023-05-24-16:59:05.888031,8.0,3.0,348.0
2023-05-24-16:59:05.889066,8.0,3.0,348.0
2023-05-24-16:59:05.890035,8.0,3.0,348.0
2023-05-24-16:59:05.891030,2.0,2.0,348.0
2023-05-24-16:59:05.893031,5.0,3.0,349.0
2023-05-24-16:59:05.893031,3.0,3.0,348.0
2023-05-24-16:59:05.894031,6.0,5.0,348.0
2023-05-24-16:59:05.895065,6.0,3.0,348.0
2023-05-24-16:59:05.896096,6.0,3.0,348.0
2023-05-24-16:59:05.897086,6.0,3.0,348.0
2023-05-24-16:59:05.898088,6.0,3.0,348.0
2023-05-24-16:59:05.899086,6.0,2.0,348.0
2023-05-24-16:59:05.900085,7.0,5.0,348.0
2023-05-24-16:59:05.901086,3.0,5.0,348.0
2023-05-24-16:59:05.902090,3.0,5.0,348.0
2023-05-24-16:59:05.903052,6.0,5.0,348.0
2023-05-24-16:59:05.904086,6.0,1.0,348.0
2023-05-24-16:59:05.905030,5.0,1.0,348.0
2023-05-24-16:59:05.906069,5.0,1.0,348.0
2023-05-24-16:59:05.907032,6.0,2.0,348.0
2023-05-24-16:59:05.908071,6.0,2.0,348.0
2023-05-24-16:59:05.909065,3.0,2.0,348.0
2023-05-24-16:59:05.910066,6.0,6.0,348.0
2023-05-24-16:59:05.911065,4.0,7.0,348.0
2023-05-24-16:59:05.912066,3.0,6.0,348.0
2023-05-24-16:59:05.913064,4.0,5.0,348.0
2023-05-24-16:59:05.914065,4.0,5.0,348.0
2023-05-24-16:59:05.915065,5.0,3.0,348.0
2023-05-24-16:59:05.916038,2.0,5.0,348.0
2023-05-24-16:59:05.917065,7.0,1.0,348.0
2023-05-24-16:59:05.918031,7.0,1.0,348.0
2023-05-24-16:59:05.919068,5.0,0.0,348.0
2023-05-24-16:59:05.920064,4.0,1.0,348.0
2023-05-24-16:59:05.921037,4.0,1.0,348.0
2023-05-24-16:59:05.922033,4.0,1.0,348.0
2023-05-24-16:59:05.923033,7.0,4.0,348.0
2023-05-24-16:59:05.924064,5.0,4.0,348.0
2023-05-24-16:59:05.925064,5.0,4.0,348.0
2023-05-24-16:59:05.927063,5.0,4.0,348.0
2023-05-24-16:59:05.927063,4.0,5.0,349.0
2023-05-24-16:59:05.928069,4.0,5.0,349.0
2023-05-24-16:59:05.929034,4.0,5.0,349.0
2023-05-24-16:59:05.930077,4.0,5.0,349.0
2023-05-24-16:59:05.931063,4.0,5.0,349.0
2023-05-24-16:59:05.932063,3.0,2.0,348.0
2023-05-24-16:59:05.933064,5.0,2.0,348.0
2023-05-24-16:59:05.934064,5.0,2.0,348.0
2023-05-24-16:59:05.935066,5.0,2.0,348.0
2023-05-24-16:59:05.936069,6.0,3.0,348.0
2023-05-24-16:59:05.937066,5.0,3.0,348.0
2023-05-24-16:59:05.938030,5.0,3.0,348.0
2023-05-24-16:59:05.939072,5.0,3.0,348.0
2023-05-24-16:59:05.940065,4.0,5.0,348.0
2023-05-24-16:59:05.941065,4.0,2.0,348.0
2023-05-24-16:59:05.942029,4.0,2.0,348.0
2023-05-24-16:59:05.943067,4.0,2.0,348.0
2023-05-24-16:59:05.944066,2.0,6.0,348.0
2023-05-24-16:59:05.945065,7.0,2.0,348.0
2023-05-24-16:59:05.946065,5.0,2.0,348.0
2023-05-24-16:59:05.947064,5.0,2.0,348.0
2023-05-24-16:59:05.948072,5.0,4.0,348.0
2023-05-24-16:59:05.949065,5.0,5.0,348.0
2023-05-24-16:59:05.950066,5.0,5.0,348.0
2023-05-24-16:59:05.951067,5.0,5.0,348.0
2023-05-24-16:59:05.952065,4.0,4.0,348.0
2023-05-24-16:59:05.953066,6.0,2.0,348.0
2023-05-24-16:59:05.954064,6.0,5.0,348.0
2023-05-24-16:59:05.955066,6.0,5.0,348.0
2023-05-24-16:59:05.956031,4.0,3.0,348.0
2023-05-24-16:59:05.957067,6.0,3.0,348.0
2023-05-24-16:59:05.958071,6.0,2.0,348.0
2023-05-24-16:59:05.959031,6.0,2.0,348.0
2023-05-24-16:59:05.960065,7.0,5.0,348.0
2023-05-24-16:59:05.962066,5.0,4.0,348.0
2023-05-24-16:59:05.962066,5.0,4.0,348.0
2023-05-24-16:59:05.963031,5.0,4.0,348.0
2023-05-24-16:59:05.964064,3.0,6.0,348.0
2023-05-24-16:59:05.965064,6.0,2.0,348.0
2023-05-24-16:59:05.966063,4.0,3.0,348.0
2023-05-24-16:59:05.967030,4.0,3.0,348.0
2023-05-24-16:59:05.968069,4.0,2.0,348.0
2023-05-24-16:59:05.969066,4.0,5.0,348.0
2023-05-24-16:59:05.970064,5.0,2.0,348.0
2023-05-24-16:59:05.971029,5.0,2.0,348.0
2023-05-24-16:59:05.972034,4.0,2.0,348.0
2023-05-24-16:59:05.973064,7.0,4.0,348.0
2023-05-24-16:59:05.974065,4.0,4.0,349.0
2023-05-24-16:59:05.975064,4.0,4.0,349.0
2023-05-24-16:59:05.976065,4.0,4.0,348.0
2023-05-24-16:59:05.977065,5.0,3.0,348.0
2023-05-24-16:59:05.978066,3.0,7.0,348.0
2023-05-24-16:59:05.979064,3.0,7.0,348.0
2023-05-24-16:59:05.980064,3.0,7.0,348.0
2023-05-24-16:59:05.981064,6.0,5.0,348.0
2023-05-24-16:59:05.982064,3.0,5.0,348.0
2023-05-24-16:59:05.983067,4.0,6.0,348.0
2023-05-24-16:59:05.984063,4.0,6.0,348.0
2023-05-24-16:59:05.985065,4.0,4.0,348.0
2023-05-24-16:59:05.986064,5.0,5.0,348.0
2023-05-24-16:59:05.987066,5.0,5.0,348.0
2023-05-24-16:59:05.988071,5.0,5.0,348.0
2023-05-24-16:59:05.989063,3.0,3.0,348.0
2023-05-24-16:59:05.990087,5.0,1.0,348.0
2023-05-24-16:59:05.991086,5.0,1.0,348.0
2023-05-24-16:59:05.992030,5.0,1.0,348.0
2023-05-24-16:59:05.994086,1.0,7.0,348.0
2023-05-24-16:59:05.994086,5.0,4.0,348.0
2023-05-24-16:59:05.995087,5.0,4.0,348.0
2023-05-24-16:59:05.996085,5.0,4.0,348.0
2023-05-24-16:59:05.997086,4.0,4.0,349.0
2023-05-24-16:59:05.998086,3.0,5.0,348.0
2023-05-24-16:59:05.999030,4.0,4.0,348.0
2023-05-24-16:59:06.000040,4.0,4.0,348.0
2023-05-24-16:59:06.001085,5.0,5.0,348.0
2023-05-24-16:59:06.002089,6.0,4.0,348.0
2023-05-24-16:59:06.003086,6.0,3.0,348.0
2023-05-24-16:59:06.004032,6.0,3.0,348.0
2023-05-24-16:59:06.005065,2.0,1.0,348.0
2023-05-24-16:59:06.006066,2.0,1.0,348.0
2023-05-24-16:59:06.007085,2.0,1.0,348.0
2023-05-24-16:59:06.008039,2.0,1.0,348.0
2023-05-24-16:59:06.009086,6.0,3.0,348.0
2023-05-24-16:59:06.010086,6.0,3.0,348.0
2023-05-24-16:59:06.011065,5.0,5.0,348.0
2023-05-24-16:59:06.012068,6.0,7.0,348.0
2023-05-24-16:59:06.013070,5.0,5.0,348.0
2023-05-24-16:59:06.014065,7.0,4.0,349.0
2023-05-24-16:59:06.015028,5.0,6.0,348.0
2023-05-24-16:59:06.016033,5.0,6.0,348.0
2023-05-24-16:59:06.017030,5.0,6.0,348.0
2023-05-24-16:59:06.018035,3.0,4.0,348.0
2023-05-24-16:59:06.019068,4.0,6.0,348.0
2023-05-24-16:59:06.020063,6.0,3.0,348.0
2023-05-24-16:59:06.021030,6.0,3.0,348.0
2023-05-24-16:59:06.022065,2.0,5.0,348.0
2023-05-24-16:59:06.023064,2.0,5.0,348.0
2023-05-24-16:59:06.024069,2.0,5.0,348.0
2023-05-24-16:59:06.025063,2.0,5.0,348.0
2023-05-24-16:59:06.026065,4.0,2.0,348.0
2023-05-24-16:59:06.028065,4.0,2.0,348.0
2023-05-24-16:59:06.029033,5.0,4.0,349.0
2023-05-24-16:59:06.029033,7.0,4.0,348.0
2023-05-24-16:59:06.030064,7.0,4.0,348.0
2023-05-24-16:59:06.031067,7.0,4.0,348.0
2023-05-24-16:59:06.032063,7.0,4.0,348.0
2023-05-24-16:59:06.033066,7.0,4.0,348.0
2023-05-24-16:59:06.034066,3.0,5.0,348.0
2023-05-24-16:59:06.035066,5.0,3.0,348.0
2023-05-24-16:59:06.036063,4.0,5.0,348.0
2023-05-24-16:59:06.037064,4.0,5.0,348.0
2023-05-24-16:59:06.038088,5.0,1.0,349.0
2023-05-24-16:59:06.039030,4.0,3.0,349.0
2023-05-24-16:59:06.040065,4.0,4.0,348.0
2023-05-24-16:59:06.041066,4.0,4.0,348.0
2023-05-24-16:59:06.042031,2.0,3.0,348.0
2023-05-24-16:59:06.043030,2.0,4.0,348.0
2023-05-24-16:59:06.044063,5.0,6.0,348.0
2023-05-24-16:59:06.045031,5.0,6.0,348.0
2023-05-24-16:59:06.046030,5.0,3.0,348.0
2023-05-24-16:59:06.047067,5.0,5.0,348.0
2023-05-24-16:59:06.048063,5.0,5.0,348.0
2023-05-24-16:59:06.049028,5.0,5.0,348.0
2023-05-24-16:59:06.050089,6.0,7.0,348.0
2023-05-24-16:59:06.051087,5.0,3.0,348.0
2023-05-24-16:59:06.052089,4.0,2.0,348.0
2023-05-24-16:59:06.053087,4.0,2.0,348.0
2023-05-24-16:59:06.054096,7.0,4.0,348.0
2023-05-24-16:59:06.055065,5.0,5.0,348.0
2023-05-24-16:59:06.056030,5.0,5.0,348.0
2023-05-24-16:59:06.057065,5.0,5.0,348.0
2023-05-24-16:59:06.058065,5.0,5.0,348.0
2023-05-24-16:59:06.059065,6.0,5.0,348.0
2023-05-24-16:59:06.060072,5.0,6.0,348.0
2023-05-24-16:59:06.062065,5.0,6.0,348.0
2023-05-24-16:59:06.063031,5.0,6.0,348.0
2023-05-24-16:59:06.064065,5.0,6.0,348.0
2023-05-24-16:59:06.065071,5.0,6.0,348.0
2023-05-24-16:59:06.066065,5.0,6.0,348.0
2023-05-24-16:59:06.067066,3.0,4.0,348.0
2023-05-24-16:59:06.068065,4.0,4.0,348.0
2023-05-24-16:59:06.069064,1.0,5.0,348.0
2023-05-24-16:59:06.070066,1.0,5.0,348.0
2023-05-24-16:59:06.071028,5.0,2.0,348.0
2023-05-24-16:59:06.072066,5.0,3.0,348.0
2023-05-24-16:59:06.073086,5.0,3.0,348.0
2023-05-24-16:59:06.074085,5.0,3.0,348.0
2023-05-24-16:59:06.075086,4.0,1.0,348.0
2023-05-24-16:59:06.076086,2.0,3.0,348.0
2023-05-24-16:59:06.077085,6.0,6.0,348.0
2023-05-24-16:59:06.078086,6.0,6.0,348.0
2023-05-24-16:59:06.079069,3.0,3.0,348.0
2023-05-24-16:59:06.080065,5.0,4.0,348.0
2023-05-24-16:59:06.081070,4.0,2.0,348.0
2023-05-24-16:59:06.082065,4.0,2.0,348.0
2023-05-24-16:59:06.083065,5.0,6.0,348.0
2023-05-24-16:59:06.084065,4.0,4.0,348.0
2023-05-24-16:59:06.085066,4.0,3.0,348.0
2023-05-24-16:59:06.086066,4.0,3.0,348.0
2023-05-24-16:59:06.087065,6.0,2.0,348.0
2023-05-24-16:59:06.088065,3.0,4.0,349.0
2023-05-24-16:59:06.089043,5.0,3.0,348.0
2023-05-24-16:59:06.090039,5.0,3.0,348.0
2023-05-24-16:59:06.091066,5.0,4.0,348.0
2023-05-24-16:59:06.092031,5.0,6.0,348.0
2023-05-24-16:59:06.093067,2.0,5.0,348.0
2023-05-24-16:59:06.094036,2.0,5.0,348.0
2023-05-24-16:59:06.095069,4.0,5.0,348.0
2023-05-24-16:59:06.097066,4.0,5.0,348.0
2023-05-24-16:59:06.097066,4.0,5.0,348.0
2023-05-24-16:59:06.098063,4.0,5.0,348.0
2023-05-24-16:59:06.099065,4.0,4.0,348.0
2023-05-24-16:59:06.100070,8.0,3.0,349.0
2023-05-24-16:59:06.101063,8.0,3.0,349.0
2023-05-24-16:59:06.102065,8.0,3.0,349.0
2023-05-24-16:59:06.103064,8.0,3.0,349.0
2023-05-24-16:59:06.104064,3.0,2.0,348.0
2023-05-24-16:59:06.105064,6.0,3.0,348.0
2023-05-24-16:59:06.106066,6.0,3.0,348.0
2023-05-24-16:59:06.107063,6.0,3.0,348.0
2023-05-24-16:59:06.108063,3.0,3.0,348.0
2023-05-24-16:59:06.109064,4.0,4.0,348.0
2023-05-24-16:59:06.110063,5.0,3.0,348.0
2023-05-24-16:59:06.111067,5.0,3.0,348.0
2023-05-24-16:59:06.112063,6.0,6.0,348.0
2023-05-24-16:59:06.113066,7.0,6.0,348.0
2023-05-24-16:59:06.114031,7.0,6.0,348.0
2023-05-24-16:59:06.115066,7.0,6.0,348.0
2023-05-24-16:59:06.116063,2.0,5.0,348.0
2023-05-24-16:59:06.117064,5.0,5.0,348.0
2023-05-24-16:59:06.118068,7.0,4.0,348.0
2023-05-24-16:59:06.119030,7.0,4.0,348.0
2023-05-24-16:59:06.120065,7.0,3.0,348.0
2023-05-24-16:59:06.121028,6.0,3.0,348.0
2023-05-24-16:59:06.122067,7.0,0.0,348.0
2023-05-24-16:59:06.123063,7.0,0.0,348.0
2023-05-24-16:59:06.124063,6.0,4.0,348.0
2023-05-24-16:59:06.125063,2.0,3.0,348.0
2023-05-24-16:59:06.126063,5.0,4.0,348.0
2023-05-24-16:59:06.127067,5.0,4.0,348.0
2023-05-24-16:59:06.128064,7.0,6.0,348.0
2023-05-24-16:59:06.130029,7.0,6.0,348.0
2023-05-24-16:59:06.131031,6.0,3.0,348.0
2023-05-24-16:59:06.131031,5.0,2.0,348.0
2023-05-24-16:59:06.132030,5.0,2.0,348.0
2023-05-24-16:59:06.133064,5.0,2.0,348.0
2023-05-24-16:59:06.134066,5.0,2.0,348.0
2023-05-24-16:59:06.135031,5.0,2.0,348.0
2023-05-24-16:59:06.136074,5.0,4.0,348.0
2023-05-24-16:59:06.137066,6.0,2.0,348.0
2023-05-24-16:59:06.138076,4.0,3.0,348.0
2023-05-24-16:59:06.139065,4.0,3.0,348.0
2023-05-24-16:59:06.140028,4.0,4.0,348.0
2023-05-24-16:59:06.141031,3.0,3.0,348.0
2023-05-24-16:59:06.142030,3.0,3.0,348.0
2023-05-24-16:59:06.143067,6.0,2.0,348.0
2023-05-24-16:59:06.144063,4.0,5.0,348.0
2023-05-24-16:59:06.145065,2.0,4.0,349.0
2023-05-24-16:59:06.146029,2.0,4.0,349.0
2023-05-24-16:59:06.147065,4.0,3.0,348.0
2023-05-24-16:59:06.148063,4.0,3.0,348.0
2023-05-24-16:59:06.149063,7.0,5.0,348.0
2023-05-24-16:59:06.150064,7.0,5.0,348.0
2023-05-24-16:59:06.151063,7.0,5.0,348.0
2023-05-24-16:59:06.152064,7.0,5.0,348.0
2023-05-24-16:59:06.153063,6.0,3.0,348.0
2023-05-24-16:59:06.154065,6.0,1.0,348.0
2023-05-24-16:59:06.155029,6.0,1.0,348.0
2023-05-24-16:59:06.156071,6.0,1.0,348.0
2023-05-24-16:59:06.157042,4.0,3.0,348.0
2023-05-24-16:59:06.158077,4.0,4.0,348.0
2023-05-24-16:59:06.159067,4.0,4.0,348.0
2023-05-24-16:59:06.160064,4.0,4.0,348.0
2023-05-24-16:59:06.161065,5.0,6.0,348.0
2023-05-24-16:59:06.162064,5.0,4.0,348.0
2023-05-24-16:59:06.164064,5.0,4.0,348.0
2023-05-24-16:59:06.164064,5.0,4.0,348.0
2023-05-24-16:59:06.165031,4.0,5.0,348.0
2023-05-24-16:59:06.166029,4.0,3.0,348.0
2023-05-24-16:59:06.167029,4.0,3.0,348.0
2023-05-24-16:59:06.168030,4.0,3.0,348.0
2023-05-24-16:59:06.169029,7.0,1.0,348.0
2023-05-24-16:59:06.170029,3.0,5.0,348.0
2023-05-24-16:59:06.171076,3.0,5.0,348.0
2023-05-24-16:59:06.172029,3.0,5.0,348.0
2023-05-24-16:59:06.173029,5.0,6.0,348.0
2023-05-24-16:59:06.174028,4.0,4.0,348.0
2023-05-24-16:59:06.175029,4.0,6.0,348.0
2023-05-24-16:59:06.176028,4.0,6.0,348.0
2023-05-24-16:59:06.177028,6.0,6.0,348.0
2023-05-24-16:59:06.178028,3.0,6.0,348.0
2023-05-24-16:59:06.179028,3.0,6.0,348.0
2023-05-24-16:59:06.180028,3.0,6.0,348.0
2023-05-24-16:59:06.181030,5.0,2.0,348.0
2023-05-24-16:59:06.182030,3.0,3.0,348.0
2023-05-24-16:59:06.183028,3.0,3.0,348.0
2023-05-24-16:59:06.184029,3.0,3.0,348.0
2023-05-24-16:59:06.185030,3.0,3.0,348.0
2023-05-24-16:59:06.186065,6.0,2.0,348.0
2023-05-24-16:59:06.187063,7.0,3.0,348.0
2023-05-24-16:59:06.188064,7.0,3.0,348.0
2023-05-24-16:59:06.189050,6.0,2.0,348.0
2023-05-24-16:59:06.190063,3.0,6.0,348.0
2023-05-24-16:59:06.191067,5.0,4.0,348.0
2023-05-24-16:59:06.192055,5.0,4.0,348.0
2023-05-24-16:59:06.193066,5.0,4.0,348.0
2023-05-24-16:59:06.194063,4.0,4.0,348.0
2023-05-24-16:59:06.195069,5.0,7.0,348.0
2023-05-24-16:59:06.196063,5.0,7.0,348.0
2023-05-24-16:59:06.197029,5.0,7.0,348.0
2023-05-24-16:59:06.199063,5.0,4.0,348.0
2023-05-24-16:59:06.199063,6.0,7.0,348.0
2023-05-24-16:59:06.200053,6.0,7.0,348.0
2023-05-24-16:59:06.201028,6.0,7.0,348.0
2023-05-24-16:59:06.202032,6.0,3.0,348.0
2023-05-24-16:59:06.203029,6.0,3.0,349.0
2023-05-24-16:59:06.204063,6.0,3.0,349.0
2023-05-24-16:59:06.205063,6.0,3.0,349.0
2023-05-24-16:59:06.206063,4.0,3.0,349.0
2023-05-24-16:59:06.207067,4.0,3.0,348.0
2023-05-24-16:59:06.208068,4.0,3.0,348.0
2023-05-24-16:59:06.209065,4.0,3.0,348.0
2023-05-24-16:59:06.210063,5.0,4.0,348.0
2023-05-24-16:59:06.211030,2.0,5.0,348.0
2023-05-24-16:59:06.212064,2.0,5.0,348.0
2023-05-24-16:59:06.213064,2.0,5.0,348.0
2023-05-24-16:59:06.214031,4.0,2.0,348.0
2023-05-24-16:59:06.215063,4.0,2.0,348.0
2023-05-24-16:59:06.216064,4.0,2.0,348.0
2023-05-24-16:59:06.217031,4.0,2.0,348.0
2023-05-24-16:59:06.218065,2.0,3.0,348.0
2023-05-24-16:59:06.219063,6.0,4.0,348.0
2023-05-24-16:59:06.220063,6.0,4.0,348.0
2023-05-24-16:59:06.221031,6.0,4.0,348.0
2023-05-24-16:59:06.222064,6.0,6.0,348.0
2023-05-24-16:59:06.223067,6.0,6.0,348.0
2023-05-24-16:59:06.224030,6.0,6.0,348.0
2023-05-24-16:59:06.225065,6.0,6.0,348.0
2023-05-24-16:59:06.226064,5.0,3.0,348.0
2023-05-24-16:59:06.227065,6.0,5.0,348.0
2023-05-24-16:59:06.228071,4.0,6.0,348.0
2023-05-24-16:59:06.229063,4.0,6.0,348.0
2023-05-24-16:59:06.230064,4.0,6.0,348.0
2023-05-24-16:59:06.231064,6.0,6.0,348.0
2023-05-24-16:59:06.233064,8.0,4.0,348.0
2023-05-24-16:59:06.233064,8.0,4.0,348.0
2023-05-24-16:59:06.234065,6.0,2.0,348.0
2023-05-24-16:59:06.235063,6.0,2.0,348.0
2023-05-24-16:59:06.236063,6.0,2.0,348.0
2023-05-24-16:59:06.237064,6.0,2.0,348.0
2023-05-24-16:59:06.238030,6.0,2.0,348.0
2023-05-24-16:59:06.239039,4.0,2.0,348.0
2023-05-24-16:59:06.240063,4.0,3.0,348.0
2023-05-24-16:59:06.241066,5.0,3.0,348.0
2023-05-24-16:59:06.242052,5.0,3.0,348.0
2023-05-24-16:59:06.243065,3.0,2.0,348.0
2023-05-24-16:59:06.244063,5.0,6.0,349.0
2023-05-24-16:59:06.245030,3.0,5.0,348.0
2023-05-24-16:59:06.246073,3.0,5.0,348.0
2023-05-24-16:59:06.247064,3.0,7.0,348.0
2023-05-24-16:59:06.248078,6.0,2.0,348.0
2023-05-24-16:59:06.249029,6.0,2.0,348.0
2023-05-24-16:59:06.250065,6.0,2.0,348.0
2023-05-24-16:59:06.251063,9.0,6.0,348.0
2023-05-24-16:59:06.252063,4.0,4.0,348.0
2023-05-24-16:59:06.253063,5.0,3.0,348.0
2023-05-24-16:59:06.254063,5.0,3.0,348.0
2023-05-24-16:59:06.255029,7.0,4.0,348.0
2023-05-24-16:59:06.256031,4.0,3.0,348.0
2023-05-24-16:59:06.257072,5.0,6.0,348.0
2023-05-24-16:59:06.258031,5.0,6.0,348.0
2023-05-24-16:59:06.259066,2.0,5.0,348.0
2023-05-24-16:59:06.260063,5.0,3.0,348.0
2023-05-24-16:59:06.261064,4.0,1.0,348.0
2023-05-24-16:59:06.262031,4.0,1.0,348.0
2023-05-24-16:59:06.263063,4.0,4.0,348.0
2023-05-24-16:59:06.264065,6.0,3.0,348.0
2023-05-24-16:59:06.265064,6.0,3.0,348.0
2023-05-24-16:59:06.267064,4.0,2.0,348.0
2023-05-24-16:59:06.267064,4.0,5.0,348.0
2023-05-24-16:59:06.268063,4.0,5.0,348.0
2023-05-24-16:59:06.269063,7.0,1.0,348.0
2023-05-24-16:59:06.270069,7.0,1.0,348.0
2023-05-24-16:59:06.271067,7.0,1.0,348.0
2023-05-24-16:59:06.272064,6.0,2.0,348.0
2023-05-24-16:59:06.273065,5.0,2.0,348.0
2023-05-24-16:59:06.274030,5.0,2.0,348.0
2023-05-24-16:59:06.275066,5.0,2.0,348.0
2023-05-24-16:59:06.276063,3.0,2.0,349.0
2023-05-24-16:59:06.277063,3.0,2.0,349.0
2023-05-24-16:59:06.278065,3.0,2.0,349.0
2023-05-24-16:59:06.279030,3.0,2.0,349.0
2023-05-24-16:59:06.280084,2.0,5.0,348.0
2023-05-24-16:59:06.281086,5.0,3.0,348.0
2023-05-24-16:59:06.282065,7.0,3.0,349.0
2023-05-24-16:59:06.283073,3.0,5.0,349.0
2023-05-24-16:59:06.284065,4.0,2.0,348.0
2023-05-24-16:59:06.285065,6.0,3.0,348.0
2023-05-24-16:59:06.286065,6.0,3.0,348.0
2023-05-24-16:59:06.287068,6.0,3.0,348.0
2023-05-24-16:59:06.288065,7.0,4.0,348.0
2023-05-24-16:59:06.289048,5.0,3.0,348.0
2023-05-24-16:59:06.290065,6.0,3.0,348.0
2023-05-24-16:59:06.291067,6.0,3.0,348.0
2023-05-24-16:59:06.292051,4.0,2.0,348.0
2023-05-24-16:59:06.293067,3.0,3.0,348.0
2023-05-24-16:59:06.294065,6.0,1.0,348.0
2023-05-24-16:59:06.295031,6.0,1.0,348.0
2023-05-24-16:59:06.296065,4.0,5.0,348.0
2023-05-24-16:59:06.297064,5.0,4.0,348.0
2023-05-24-16:59:06.298066,5.0,5.0,349.0
2023-05-24-16:59:06.299031,5.0,5.0,349.0
2023-05-24-16:59:06.301065,7.0,4.0,348.0
2023-05-24-16:59:06.301065,6.0,3.0,348.0
2023-05-24-16:59:06.302062,6.0,3.0,348.0
2023-05-24-16:59:06.303031,6.0,3.0,348.0
2023-05-24-16:59:06.304065,6.0,4.0,348.0
2023-05-24-16:59:06.305067,6.0,2.0,348.0
2023-05-24-16:59:06.306064,4.0,2.0,348.0
2023-05-24-16:59:06.307066,4.0,2.0,348.0
2023-05-24-16:59:06.308064,4.0,2.0,348.0
2023-05-24-16:59:06.309067,3.0,5.0,348.0
2023-05-24-16:59:06.310065,4.0,4.0,348.0
2023-05-24-16:59:06.311042,4.0,4.0,348.0
2023-05-24-16:59:06.312070,4.0,4.0,348.0
2023-05-24-16:59:06.313064,3.0,4.0,348.0
2023-05-24-16:59:06.314065,4.0,2.0,348.0
2023-05-24-16:59:06.315050,4.0,2.0,348.0
2023-05-24-16:59:06.316064,4.0,2.0,348.0
2023-05-24-16:59:06.317064,4.0,3.0,349.0
2023-05-24-16:59:06.318065,4.0,3.0,349.0
2023-05-24-16:59:06.319068,4.0,3.0,349.0
2023-05-24-16:59:06.320064,4.0,3.0,349.0
2023-05-24-16:59:06.321066,6.0,4.0,348.0
2023-05-24-16:59:06.322064,6.0,4.0,348.0
2023-05-24-16:59:06.323066,6.0,4.0,348.0
2023-05-24-16:59:06.324030,6.0,4.0,348.0
2023-05-24-16:59:06.325064,5.0,4.0,348.0
2023-05-24-16:59:06.326065,8.0,3.0,348.0
2023-05-24-16:59:06.327063,6.0,3.0,349.0
2023-05-24-16:59:06.328087,6.0,3.0,349.0
2023-05-24-16:59:06.329086,4.0,4.0,348.0
2023-05-24-16:59:06.330087,5.0,5.0,348.0
2023-05-24-16:59:06.331087,6.0,4.0,348.0
2023-05-24-16:59:06.332085,6.0,4.0,348.0
2023-05-24-16:59:06.333085,4.0,5.0,348.0
2023-05-24-16:59:06.335068,4.0,5.0,348.0
2023-05-24-16:59:06.336029,7.0,4.0,348.0
2023-05-24-16:59:06.336029,4.0,5.0,348.0
2023-05-24-16:59:06.337085,4.0,5.0,348.0
2023-05-24-16:59:06.338034,4.0,5.0,348.0
2023-05-24-16:59:06.339030,4.0,5.0,348.0
2023-05-24-16:59:06.340031,4.0,5.0,348.0
2023-05-24-16:59:06.341088,5.0,7.0,349.0
2023-05-24-16:59:06.342087,4.0,4.0,348.0
2023-05-24-16:59:06.343086,4.0,4.0,348.0
2023-05-24-16:59:06.344031,4.0,4.0,348.0
2023-05-24-16:59:06.345086,4.0,3.0,348.0
2023-05-24-16:59:06.346086,3.0,5.0,349.0
2023-05-24-16:59:06.347087,4.0,6.0,348.0
2023-05-24-16:59:06.348032,4.0,6.0,348.0
2023-05-24-16:59:06.349030,3.0,5.0,348.0
2023-05-24-16:59:06.350033,3.0,6.0,349.0
2023-05-24-16:59:06.351067,3.0,4.0,349.0
2023-05-24-16:59:06.352064,3.0,4.0,349.0
2023-05-24-16:59:06.353065,6.0,3.0,348.0
2023-05-24-16:59:06.354063,5.0,4.0,349.0
2023-05-24-16:59:06.355086,5.0,4.0,349.0
2023-05-24-16:59:06.356080,5.0,4.0,349.0
2023-05-24-16:59:06.357031,4.0,4.0,348.0
2023-05-24-16:59:06.358029,4.0,4.0,348.0
2023-05-24-16:59:06.359028,4.0,5.0,349.0
2023-05-24-16:59:06.360066,3.0,4.0,348.0
2023-05-24-16:59:06.361033,3.0,4.0,348.0
2023-05-24-16:59:06.362028,3.0,7.0,348.0
2023-05-24-16:59:06.363029,3.0,7.0,348.0
2023-05-24-16:59:06.364029,3.0,7.0,348.0
2023-05-24-16:59:06.365065,3.0,7.0,348.0
2023-05-24-16:59:06.366069,4.0,5.0,348.0
2023-05-24-16:59:06.367068,6.0,2.0,349.0
2023-05-24-16:59:06.369067,5.0,5.0,348.0
2023-05-24-16:59:06.369067,4.0,2.0,349.0
2023-05-24-16:59:06.370065,7.0,4.0,348.0
2023-05-24-16:59:06.371065,7.0,4.0,348.0
2023-05-24-16:59:06.372065,7.0,4.0,348.0
2023-05-24-16:59:06.373065,7.0,4.0,348.0
2023-05-24-16:59:06.374066,6.0,4.0,348.0
2023-05-24-16:59:06.375029,4.0,5.0,349.0
2023-05-24-16:59:06.376066,2.0,4.0,348.0
2023-05-24-16:59:06.377065,2.0,4.0,348.0
2023-05-24-16:59:06.378065,3.0,5.0,348.0
2023-05-24-16:59:06.379071,3.0,6.0,348.0
2023-05-24-16:59:06.380068,2.0,3.0,349.0
2023-05-24-16:59:06.381065,2.0,3.0,349.0
2023-05-24-16:59:06.382072,6.0,2.0,348.0
2023-05-24-16:59:06.383069,4.0,5.0,348.0
2023-05-24-16:59:06.384065,6.0,6.0,348.0
2023-05-24-16:59:06.385031,6.0,6.0,348.0
2023-05-24-16:59:06.386065,6.0,3.0,348.0
2023-05-24-16:59:06.387029,4.0,5.0,348.0
2023-05-24-16:59:06.388030,4.0,4.0,348.0
2023-05-24-16:59:06.389029,4.0,4.0,348.0
2023-05-24-16:59:06.390030,5.0,3.0,348.0
2023-05-24-16:59:06.391029,7.0,4.0,348.0
2023-05-24-16:59:06.392029,7.0,4.0,348.0
2023-05-24-16:59:06.393029,7.0,4.0,348.0
2023-05-24-16:59:06.394029,3.0,8.0,348.0
2023-05-24-16:59:06.395029,4.0,6.0,348.0
2023-05-24-16:59:06.396067,4.0,6.0,348.0
2023-05-24-16:59:06.397086,4.0,6.0,348.0
2023-05-24-16:59:06.398085,7.0,5.0,348.0
2023-05-24-16:59:06.399089,3.0,5.0,348.0
2023-05-24-16:59:06.400031,6.0,3.0,348.0
2023-05-24-16:59:06.401085,6.0,3.0,348.0
2023-05-24-16:59:06.402089,3.0,3.0,348.0
2023-05-24-16:59:06.404065,5.0,4.0,348.0
2023-05-24-16:59:06.404065,5.0,4.0,348.0
2023-05-24-16:59:06.405030,5.0,4.0,348.0
2023-05-24-16:59:06.406066,5.0,4.0,348.0
2023-05-24-16:59:06.407065,4.0,2.0,348.0
2023-05-24-16:59:06.408071,2.0,2.0,348.0
2023-05-24-16:59:06.409031,4.0,2.0,348.0
2023-05-24-16:59:06.410065,4.0,2.0,348.0
2023-05-24-16:59:06.411065,4.0,6.0,348.0
2023-05-24-16:59:06.412068,6.0,5.0,348.0
2023-05-24-16:59:06.413065,6.0,5.0,348.0
2023-05-24-16:59:06.414029,6.0,5.0,348.0
2023-05-24-16:59:06.415069,5.0,5.0,348.0
2023-05-24-16:59:06.416085,5.0,7.0,348.0
2023-05-24-16:59:06.417085,5.0,7.0,348.0
2023-05-24-16:59:06.418089,5.0,7.0,348.0
2023-05-24-16:59:06.419094,6.0,5.0,348.0
2023-05-24-16:59:06.420065,4.0,3.0,348.0
2023-05-24-16:59:06.421065,4.0,3.0,348.0
2023-05-24-16:59:06.422031,4.0,3.0,348.0
2023-05-24-16:59:06.423066,4.0,6.0,348.0
2023-05-24-16:59:06.424087,5.0,5.0,348.0
2023-05-24-16:59:06.425030,5.0,5.0,348.0
2023-05-24-16:59:06.426031,5.0,5.0,348.0
2023-05-24-16:59:06.427087,7.0,6.0,348.0
2023-05-24-16:59:06.428085,5.0,3.0,348.0
2023-05-24-16:59:06.429085,4.0,6.0,348.0
2023-05-24-16:59:06.430031,4.0,6.0,348.0
2023-05-24-16:59:06.431089,5.0,4.0,348.0
2023-05-24-16:59:06.432091,6.0,4.0,348.0
2023-05-24-16:59:06.433085,7.0,3.0,348.0
2023-05-24-16:59:06.435086,7.0,3.0,348.0
2023-05-24-16:59:06.436031,5.0,3.0,348.0
2023-05-24-16:59:06.436031,6.0,1.0,348.0
2023-05-24-16:59:06.437036,6.0,1.0,348.0
2023-05-24-16:59:06.438032,6.0,1.0,348.0
2023-05-24-16:59:06.439039,7.0,0.0,348.0
2023-05-24-16:59:06.440105,5.0,2.0,349.0
2023-05-24-16:59:06.441086,6.0,3.0,348.0
2023-05-24-16:59:06.442034,6.0,3.0,348.0
2023-05-24-16:59:06.443087,6.0,3.0,348.0
2023-05-24-16:59:06.444085,5.0,5.0,348.0
2023-05-24-16:59:06.445092,5.0,5.0,349.0
2023-05-24-16:59:06.446087,5.0,4.0,349.0
2023-05-24-16:59:06.447090,5.0,4.0,349.0
2023-05-24-16:59:06.448086,4.0,4.0,348.0
2023-05-24-16:59:06.449065,7.0,6.0,348.0
2023-05-24-16:59:06.450030,7.0,6.0,348.0
2023-05-24-16:59:06.451085,7.0,6.0,348.0
2023-05-24-16:59:06.452085,5.0,1.0,348.0
2023-05-24-16:59:06.453031,5.0,1.0,348.0
2023-05-24-16:59:06.454066,5.0,1.0,348.0
2023-05-24-16:59:06.455067,5.0,1.0,348.0
2023-05-24-16:59:06.456061,3.0,4.0,349.0
2023-05-24-16:59:06.457066,6.0,3.0,348.0
2023-05-24-16:59:06.458066,5.0,3.0,348.0
2023-05-24-16:59:06.459031,5.0,3.0,348.0
2023-05-24-16:59:06.460068,4.0,4.0,348.0
2023-05-24-16:59:06.461065,7.0,7.0,348.0
2023-05-24-16:59:06.462065,4.0,1.0,348.0
2023-05-24-16:59:06.463068,4.0,1.0,348.0
2023-05-24-16:59:06.464064,5.0,4.0,348.0
2023-05-24-16:59:06.465069,5.0,3.0,348.0
2023-05-24-16:59:06.466070,4.0,5.0,348.0
2023-05-24-16:59:06.467087,4.0,5.0,348.0
2023-05-24-16:59:06.468088,6.0,3.0,348.0
2023-05-24-16:59:06.470066,6.0,3.0,348.0
2023-05-24-16:59:06.470066,5.0,6.0,348.0
2023-05-24-16:59:06.471031,5.0,2.0,348.0
2023-05-24-16:59:06.472072,4.0,4.0,349.0
2023-05-24-16:59:06.473086,4.0,4.0,348.0
2023-05-24-16:59:06.474086,4.0,4.0,348.0
2023-05-24-16:59:06.475033,4.0,4.0,348.0
2023-05-24-16:59:06.476030,5.0,5.0,348.0
2023-05-24-16:59:06.477065,3.0,5.0,348.0
2023-05-24-16:59:06.478085,3.0,5.0,348.0
2023-05-24-16:59:06.479089,3.0,5.0,348.0
2023-05-24-16:59:06.480085,4.0,4.0,348.0
2023-05-24-16:59:06.481028,4.0,2.0,348.0
2023-05-24-16:59:06.482037,4.0,2.0,348.0
2023-05-24-16:59:06.483072,4.0,2.0,348.0
2023-05-24-16:59:06.484063,4.0,2.0,348.0
2023-05-24-16:59:06.485063,5.0,2.0,348.0
2023-05-24-16:59:06.486065,5.0,2.0,348.0
2023-05-24-16:59:06.487030,5.0,2.0,348.0
2023-05-24-16:59:06.488065,5.0,2.0,348.0
2023-05-24-16:59:06.489035,5.0,3.0,348.0
2023-05-24-16:59:06.490031,6.0,3.0,348.0
2023-05-24-16:59:06.491064,6.0,3.0,348.0
2023-05-24-16:59:06.492063,6.0,3.0,348.0
2023-05-24-16:59:06.493063,5.0,4.0,348.0
2023-05-24-16:59:06.494063,5.0,3.0,348.0
2023-05-24-16:59:06.495067,2.0,6.0,348.0
2023-05-24-16:59:06.496063,2.0,6.0,348.0
2023-05-24-16:59:06.497065,4.0,3.0,348.0
2023-05-24-16:59:06.498063,4.0,5.0,348.0
2023-05-24-16:59:06.499066,5.0,4.0,348.0
2023-05-24-16:59:06.500064,5.0,4.0,348.0
2023-05-24-16:59:06.501063,4.0,5.0,348.0
2023-05-24-16:59:06.502065,5.0,1.0,348.0
2023-05-24-16:59:06.503064,8.0,3.0,348.0
2023-05-24-16:59:06.505063,8.0,3.0,348.0
2023-05-24-16:59:06.505063,8.0,3.0,348.0
2023-05-24-16:59:06.506065,5.0,4.0,348.0
2023-05-24-16:59:06.507063,4.0,4.0,348.0
2023-05-24-16:59:06.508063,4.0,4.0,348.0
2023-05-24-16:59:06.509031,4.0,3.0,348.0
2023-05-24-16:59:06.510065,3.0,4.0,348.0
2023-05-24-16:59:06.511067,4.0,6.0,348.0
2023-05-24-16:59:06.512031,4.0,6.0,348.0
2023-05-24-16:59:06.513065,5.0,4.0,348.0
2023-05-24-16:59:06.514029,5.0,6.0,348.0
2023-05-24-16:59:06.515065,5.0,5.0,348.0
2023-05-24-16:59:06.516031,5.0,5.0,348.0
2023-05-24-16:59:06.517066,2.0,6.0,348.0
2023-05-24-16:59:06.518064,3.0,4.0,348.0
2023-05-24-16:59:06.519063,5.0,2.0,348.0
2023-05-24-16:59:06.520065,5.0,2.0,348.0
2023-05-24-16:59:06.521063,6.0,4.0,348.0
2023-05-24-16:59:06.522066,7.0,3.0,348.0
2023-05-24-16:59:06.523029,3.0,5.0,348.0
2023-05-24-16:59:06.524064,3.0,5.0,348.0
2023-05-24-16:59:06.525064,3.0,5.0,348.0
2023-05-24-16:59:06.526063,3.0,6.0,348.0
2023-05-24-16:59:06.527067,2.0,4.0,348.0
2023-05-24-16:59:06.528063,2.0,4.0,348.0
2023-05-24-16:59:06.529065,2.0,4.0,348.0
2023-05-24-16:59:06.530063,5.0,5.0,348.0
2023-05-24-16:59:06.531065,6.0,10.0,348.0
2023-05-24-16:59:06.532064,6.0,10.0,348.0
2023-05-24-16:59:06.533066,6.0,10.0,348.0
2023-05-24-16:59:06.534064,5.0,6.0,348.0
2023-05-24-16:59:06.535063,5.0,2.0,348.0
2023-05-24-16:59:06.536064,5.0,1.0,348.0
2023-05-24-16:59:06.537064,5.0,1.0,348.0
2023-05-24-16:59:06.539030,8.0,1.0,348.0
2023-05-24-16:59:06.540053,8.0,1.0,348.0
2023-05-24-16:59:06.540053,5.0,4.0,348.0
2023-05-24-16:59:06.541063,5.0,6.0,348.0
2023-05-24-16:59:06.542064,3.0,6.0,349.0
2023-05-24-16:59:06.543067,3.0,4.0,348.0
2023-05-24-16:59:06.544063,3.0,4.0,348.0
2023-05-24-16:59:06.545028,3.0,4.0,348.0
2023-05-24-16:59:06.546035,5.0,5.0,348.0
2023-05-24-16:59:06.547065,5.0,5.0,348.0
2023-05-24-16:59:06.548063,3.0,4.0,348.0
2023-05-24-16:59:06.549063,5.0,5.0,348.0
2023-05-24-16:59:06.550064,5.0,6.0,348.0
2023-05-24-16:59:06.551063,5.0,5.0,348.0
2023-05-24-16:59:06.552064,5.0,5.0,348.0
2023-05-24-16:59:06.553063,5.0,5.0,348.0
2023-05-24-16:59:06.554029,5.0,5.0,348.0
2023-05-24-16:59:06.555065,5.0,5.0,348.0
2023-05-24-16:59:06.556064,5.0,5.0,348.0
2023-05-24-16:59:06.557031,5.0,5.0,348.0
2023-05-24-16:59:06.558029,1.0,6.0,348.0
2023-05-24-16:59:06.559031,3.0,4.0,348.0
2023-05-24-16:59:06.560063,3.0,6.0,348.0
2023-05-24-16:59:06.561032,3.0,6.0,348.0
2023-05-24-16:59:06.562068,1.0,7.0,348.0
2023-05-24-16:59:06.563066,6.0,4.0,348.0
2023-05-24-16:59:06.564063,6.0,4.0,348.0
2023-05-24-16:59:06.565032,6.0,4.0,348.0
2023-05-24-16:59:06.566064,4.0,3.0,348.0
2023-05-24-16:59:06.567064,5.0,2.0,348.0
2023-05-24-16:59:06.568064,5.0,2.0,348.0
2023-05-24-16:59:06.569063,5.0,2.0,348.0
2023-05-24-16:59:06.570065,5.0,2.0,348.0
2023-05-24-16:59:06.571063,5.0,2.0,349.0
2023-05-24-16:59:06.573047,5.0,2.0,349.0
2023-05-24-16:59:06.573047,2.0,4.0,348.0
2023-05-24-16:59:06.574031,2.0,4.0,348.0
2023-05-24-16:59:06.575067,2.0,4.0,348.0
2023-05-24-16:59:06.576031,2.0,4.0,348.0
2023-05-24-16:59:06.577071,2.0,4.0,348.0
2023-05-24-16:59:06.578030,2.0,4.0,348.0
2023-05-24-16:59:06.579065,4.0,5.0,348.0
2023-05-24-16:59:06.580063,3.0,3.0,348.0
2023-05-24-16:59:06.581063,3.0,3.0,348.0
2023-05-24-16:59:06.582064,3.0,3.0,348.0
2023-05-24-16:59:06.583063,6.0,7.0,349.0
2023-05-24-16:59:06.584065,6.0,3.0,348.0
2023-05-24-16:59:06.585063,6.0,3.0,348.0
2023-05-24-16:59:06.586074,6.0,3.0,348.0
2023-05-24-16:59:06.587063,5.0,2.0,348.0
2023-05-24-16:59:06.588038,5.0,2.0,348.0
2023-05-24-16:59:06.589064,4.0,2.0,348.0
2023-05-24-16:59:06.590063,4.0,2.0,348.0
2023-05-24-16:59:06.591030,6.0,4.0,348.0
2023-05-24-16:59:06.592064,4.0,6.0,349.0
2023-05-24-16:59:06.593065,2.0,3.0,348.0
2023-05-24-16:59:06.594063,2.0,3.0,348.0
2023-05-24-16:59:06.595067,6.0,6.0,348.0
2023-05-24-16:59:06.596030,7.0,2.0,348.0
2023-05-24-16:59:06.597063,7.0,2.0,348.0
2023-05-24-16:59:06.598031,7.0,2.0,348.0
2023-05-24-16:59:06.599065,5.0,3.0,348.0
2023-05-24-16:59:06.600065,3.0,8.0,348.0
2023-05-24-16:59:06.601069,3.0,8.0,348.0
2023-05-24-16:59:06.602031,3.0,8.0,348.0
2023-05-24-16:59:06.603069,7.0,1.0,348.0
2023-05-24-16:59:06.604063,6.0,1.0,348.0
2023-05-24-16:59:06.607029,5.0,2.0,348.0
2023-05-24-16:59:06.607029,3.0,5.0,348.0
2023-05-24-16:59:06.608064,3.0,4.0,348.0
2023-05-24-16:59:06.609055,3.0,3.0,349.0
2023-05-24-16:59:06.610070,3.0,3.0,349.0
2023-05-24-16:59:06.611066,3.0,3.0,349.0
2023-05-24-16:59:06.612063,4.0,4.0,348.0
2023-05-24-16:59:06.613063,4.0,4.0,348.0
2023-05-24-16:59:06.614064,4.0,4.0,348.0
2023-05-24-16:59:06.615063,4.0,4.0,348.0
2023-05-24-16:59:06.616029,6.0,2.0,348.0
2023-05-24-16:59:06.617063,4.0,0.0,349.0
2023-05-24-16:59:06.618066,4.0,0.0,349.0
2023-05-24-16:59:06.619063,4.0,0.0,349.0
2023-05-24-16:59:06.620073,7.0,3.0,348.0
2023-05-24-16:59:06.621063,6.0,1.0,348.0
2023-05-24-16:59:06.622065,4.0,2.0,348.0
2023-05-24-16:59:06.623067,4.0,2.0,348.0
2023-05-24-16:59:06.624063,4.0,4.0,348.0
2023-05-24-16:59:06.625066,2.0,8.0,348.0
2023-05-24-16:59:06.626063,4.0,4.0,348.0
2023-05-24-16:59:06.627065,4.0,4.0,348.0
2023-05-24-16:59:06.628063,4.0,4.0,348.0
2023-05-24-16:59:06.629063,6.0,4.0,348.0
2023-05-24-16:59:06.630064,5.0,6.0,348.0
2023-05-24-16:59:06.631063,5.0,6.0,348.0
2023-05-24-16:59:06.632064,6.0,4.0,348.0
2023-05-24-16:59:06.633063,6.0,7.0,348.0
2023-05-24-16:59:06.634065,6.0,5.0,348.0
2023-05-24-16:59:06.635063,6.0,5.0,348.0
2023-05-24-16:59:06.636063,5.0,5.0,348.0
2023-05-24-16:59:06.637065,10.0,4.0,348.0
2023-05-24-16:59:06.638063,4.0,1.0,348.0
2023-05-24-16:59:06.639070,4.0,1.0,348.0
2023-05-24-16:59:06.641075,6.0,1.0,348.0
2023-05-24-16:59:06.641075,4.0,5.0,348.0
2023-05-24-16:59:06.642063,3.0,2.0,348.0
2023-05-24-16:59:06.643031,3.0,2.0,348.0
2023-05-24-16:59:06.644063,2.0,4.0,349.0
2023-05-24-16:59:06.645063,5.0,5.0,348.0
2023-05-24-16:59:06.646064,3.0,4.0,348.0
2023-05-24-16:59:06.647063,3.0,4.0,348.0
2023-05-24-16:59:06.648070,5.0,6.0,348.0
2023-05-24-16:59:06.649066,5.0,5.0,348.0
2023-05-24-16:59:06.650075,7.0,4.0,348.0
2023-05-24-16:59:06.651029,7.0,4.0,348.0
2023-05-24-16:59:06.652032,5.0,1.0,348.0
2023-05-24-16:59:06.653063,5.0,1.0,348.0
2023-05-24-16:59:06.654032,5.0,1.0,348.0
2023-05-24-16:59:06.655030,5.0,1.0,348.0
2023-05-24-16:59:06.656035,5.0,1.0,348.0
2023-05-24-16:59:06.657066,5.0,3.0,348.0
2023-05-24-16:59:06.658063,2.0,4.0,348.0
2023-05-24-16:59:06.659073,2.0,4.0,348.0
2023-05-24-16:59:06.660063,2.0,4.0,348.0
2023-05-24-16:59:06.661063,3.0,6.0,348.0
2023-05-24-16:59:06.662064,2.0,4.0,348.0
2023-05-24-16:59:06.663063,6.0,5.0,348.0
2023-05-24-16:59:06.664065,6.0,5.0,348.0
2023-05-24-16:59:06.665063,3.0,4.0,348.0
2023-05-24-16:59:06.666065,6.0,4.0,349.0
2023-05-24-16:59:06.667030,7.0,4.0,348.0
2023-05-24-16:59:06.668063,7.0,4.0,348.0
2023-05-24-16:59:06.669063,6.0,1.0,348.0
2023-05-24-16:59:06.670073,7.0,0.0,348.0
2023-05-24-16:59:06.671067,6.0,3.0,348.0
2023-05-24-16:59:06.672067,6.0,3.0,348.0
2023-05-24-16:59:06.673061,3.0,3.0,348.0
2023-05-24-16:59:06.675066,3.0,3.0,348.0
2023-05-24-16:59:06.675066,3.0,3.0,348.0
2023-05-24-16:59:06.676063,3.0,3.0,348.0
2023-05-24-16:59:06.677063,5.0,6.0,349.0
2023-05-24-16:59:06.678064,4.0,5.0,348.0
2023-05-24-16:59:06.679063,5.0,7.0,348.0
2023-05-24-16:59:06.680064,5.0,7.0,348.0
2023-05-24-16:59:06.681063,4.0,5.0,349.0
2023-05-24-16:59:06.682065,2.0,3.0,349.0
2023-05-24-16:59:06.683031,5.0,3.0,348.0
2023-05-24-16:59:06.684031,5.0,3.0,348.0
2023-05-24-16:59:06.685029,5.0,3.0,348.0
2023-05-24-16:59:06.686066,6.0,2.0,348.0
2023-05-24-16:59:06.687036,6.0,2.0,348.0
2023-05-24-16:59:06.688031,6.0,2.0,348.0
2023-05-24-16:59:06.689028,3.0,3.0,348.0
2023-05-24-16:59:06.690029,4.0,2.0,348.0
2023-05-24-16:59:06.691071,5.0,3.0,348.0
2023-05-24-16:59:06.692065,5.0,3.0,348.0
2023-05-24-16:59:06.693065,5.0,5.0,348.0
2023-05-24-16:59:06.694030,5.0,5.0,348.0
2023-05-24-16:59:06.695065,5.0,5.0,348.0
2023-05-24-16:59:06.696066,5.0,5.0,348.0
2023-05-24-16:59:06.697065,5.0,5.0,348.0
2023-05-24-16:59:06.698065,4.0,6.0,348.0
2023-05-24-16:59:06.699066,6.0,3.0,348.0
2023-05-24-16:59:06.700068,6.0,3.0,348.0
2023-05-24-16:59:06.701068,6.0,3.0,348.0
2023-05-24-16:59:06.702065,7.0,3.0,348.0
2023-05-24-16:59:06.703068,5.0,4.0,348.0
2023-05-24-16:59:06.704064,5.0,4.0,348.0
2023-05-24-16:59:06.705030,5.0,4.0,348.0
2023-05-24-16:59:06.706065,5.0,3.0,348.0
2023-05-24-16:59:06.707065,5.0,3.0,348.0
2023-05-24-16:59:06.709064,6.0,4.0,348.0
2023-05-24-16:59:06.709064,5.0,5.0,348.0
2023-05-24-16:59:06.710066,5.0,5.0,348.0
2023-05-24-16:59:06.711065,5.0,5.0,348.0
2023-05-24-16:59:06.712066,5.0,5.0,348.0
2023-05-24-16:59:06.713067,5.0,5.0,348.0
2023-05-24-16:59:06.714070,5.0,5.0,349.0
2023-05-24-16:59:06.715066,4.0,7.0,348.0
2023-05-24-16:59:06.716067,4.0,7.0,348.0
2023-05-24-16:59:06.717065,4.0,7.0,348.0
2023-05-24-16:59:06.718065,6.0,5.0,348.0
2023-05-24-16:59:06.719030,5.0,3.0,348.0
2023-05-24-16:59:06.720065,8.0,3.0,348.0
2023-05-24-16:59:06.721065,8.0,3.0,348.0
2023-05-24-16:59:06.722068,6.0,5.0,348.0
2023-05-24-16:59:06.723046,5.0,3.0,348.0
2023-05-24-16:59:06.724028,5.0,6.0,348.0
2023-05-24-16:59:06.725031,5.0,6.0,348.0
2023-05-24-16:59:06.726066,5.0,6.0,348.0
2023-05-24-16:59:06.727065,6.0,4.0,348.0
2023-05-24-16:59:06.728065,4.0,6.0,348.0
2023-05-24-16:59:06.729031,4.0,6.0,348.0
2023-05-24-16:59:06.730066,6.0,7.0,348.0
2023-05-24-16:59:06.731046,6.0,5.0,348.0
2023-05-24-16:59:06.732041,4.0,6.0,348.0
2023-05-24-16:59:06.733065,4.0,6.0,348.0
2023-05-24-16:59:06.734069,6.0,3.0,348.0
2023-05-24-16:59:06.735069,6.0,3.0,348.0
2023-05-24-16:59:06.736065,6.0,3.0,348.0
2023-05-24-16:59:06.737069,6.0,3.0,348.0
2023-05-24-16:59:06.738065,7.0,3.0,348.0
2023-05-24-16:59:06.739073,2.0,5.0,348.0
2023-05-24-16:59:06.740076,2.0,5.0,348.0
2023-05-24-16:59:06.742066,2.0,5.0,348.0
2023-05-24-16:59:06.742066,2.0,5.0,348.0
2023-05-24-16:59:06.743065,5.0,3.0,348.0
2023-05-24-16:59:06.744071,4.0,8.0,348.0
2023-05-24-16:59:06.745065,4.0,8.0,348.0
2023-05-24-16:59:06.746065,4.0,8.0,348.0
2023-05-24-16:59:06.747028,4.0,8.0,348.0
2023-05-24-16:59:06.748067,4.0,8.0,348.0
2023-05-24-16:59:06.749075,4.0,5.0,348.0
2023-05-24-16:59:06.750064,4.0,5.0,348.0
2023-05-24-16:59:06.751068,5.0,6.0,348.0
2023-05-24-16:59:06.752066,6.0,6.0,348.0
2023-05-24-16:59:06.753066,8.0,3.0,348.0
2023-05-24-16:59:06.754065,8.0,3.0,348.0
2023-05-24-16:59:06.755029,7.0,2.0,349.0
2023-05-24-16:59:06.756042,5.0,1.0,348.0
2023-05-24-16:59:06.757031,4.0,5.0,348.0
2023-05-24-16:59:06.758066,4.0,5.0,348.0
2023-05-24-16:59:06.759064,4.0,5.0,348.0
2023-05-24-16:59:06.760064,4.0,5.0,348.0
2023-05-24-16:59:06.761065,4.0,5.0,348.0
2023-05-24-16:59:06.762069,4.0,5.0,348.0
2023-05-24-16:59:06.763065,6.0,5.0,348.0
2023-05-24-16:59:06.764067,6.0,4.0,348.0
2023-05-24-16:59:06.765065,6.0,4.0,348.0
2023-05-24-16:59:06.766064,6.0,4.0,348.0
2023-05-24-16:59:06.767069,2.0,5.0,348.0
2023-05-24-16:59:06.768064,5.0,3.0,348.0
2023-05-24-16:59:06.769065,6.0,5.0,348.0
2023-05-24-16:59:06.770030,6.0,5.0,348.0
2023-05-24-16:59:06.771066,6.0,0.0,348.0
2023-05-24-16:59:06.772084,4.0,4.0,348.0
2023-05-24-16:59:06.773042,4.0,4.0,348.0
2023-05-24-16:59:06.775029,4.0,4.0,348.0
2023-05-24-16:59:06.776040,5.0,3.0,348.0
2023-05-24-16:59:06.777064,5.0,3.0,348.0
2023-05-24-16:59:06.778065,5.0,3.0,348.0
2023-05-24-16:59:06.779065,4.0,4.0,349.0
2023-05-24-16:59:06.780063,5.0,5.0,348.0
2023-05-24-16:59:06.781064,5.0,5.0,348.0
2023-05-24-16:59:06.782064,5.0,5.0,348.0
2023-05-24-16:59:06.783067,5.0,5.0,348.0
2023-05-24-16:59:06.784063,4.0,5.0,348.0
2023-05-24-16:59:06.785065,6.0,5.0,348.0
2023-05-24-16:59:06.786064,6.0,5.0,348.0
2023-05-24-16:59:06.787065,6.0,5.0,348.0
2023-05-24-16:59:06.788064,4.0,2.0,348.0
2023-05-24-16:59:06.789064,7.0,3.0,348.0
2023-05-24-16:59:06.790065,7.0,3.0,348.0
2023-05-24-16:59:06.791065,7.0,3.0,348.0
2023-05-24-16:59:06.792031,3.0,5.0,348.0
2023-05-24-16:59:06.793064,3.0,5.0,348.0
2023-05-24-16:59:06.794066,3.0,5.0,348.0
2023-05-24-16:59:06.795031,3.0,5.0,348.0
2023-05-24-16:59:06.796028,5.0,7.0,348.0
2023-05-24-16:59:06.797064,6.0,6.0,348.0
2023-05-24-16:59:06.798063,5.0,4.0,348.0
2023-05-24-16:59:06.799067,5.0,4.0,348.0
2023-05-24-16:59:06.800063,5.0,3.0,348.0
2023-05-24-16:59:06.801066,7.0,2.0,348.0
2023-05-24-16:59:06.802063,7.0,2.0,348.0
2023-05-24-16:59:06.803065,7.0,2.0,348.0
2023-05-24-16:59:06.804063,5.0,2.0,348.0
2023-05-24-16:59:06.805030,5.0,4.0,349.0
2023-05-24-16:59:06.806064,5.0,4.0,349.0
2023-05-24-16:59:06.807031,5.0,4.0,349.0
2023-05-24-16:59:06.808064,4.0,5.0,348.0
2023-05-24-16:59:06.810065,4.0,5.0,348.0
2023-05-24-16:59:06.811032,6.0,4.0,348.0
2023-05-24-16:59:06.811032,4.0,6.0,348.0
2023-05-24-16:59:06.812064,6.0,4.0,348.0
2023-05-24-16:59:06.813069,6.0,4.0,348.0
2023-05-24-16:59:06.814037,6.0,4.0,348.0
2023-05-24-16:59:06.815031,6.0,4.0,348.0
2023-05-24-16:59:06.816063,6.0,4.0,348.0
2023-05-24-16:59:06.817066,3.0,4.0,349.0
2023-05-24-16:59:06.818064,6.0,1.0,348.0
2023-05-24-16:59:06.819066,6.0,1.0,348.0
2023-05-24-16:59:06.820064,6.0,3.0,348.0
2023-05-24-16:59:06.821070,5.0,5.0,348.0
2023-05-24-16:59:06.822029,5.0,5.0,348.0
2023-05-24-16:59:06.823064,5.0,5.0,348.0
2023-05-24-16:59:06.824065,5.0,5.0,348.0
2023-05-24-16:59:06.825064,4.0,2.0,348.0
2023-05-24-16:59:06.826030,4.0,2.0,348.0
2023-05-24-16:59:06.827064,4.0,2.0,348.0
2023-05-24-16:59:06.828063,4.0,2.0,348.0
2023-05-24-16:59:06.829063,3.0,5.0,348.0
2023-05-24-16:59:06.830063,4.0,4.0,348.0
2023-05-24-16:59:06.831067,4.0,4.0,348.0
2023-05-24-16:59:06.832063,4.0,4.0,348.0
2023-05-24-16:59:06.833066,5.0,4.0,348.0
2023-05-24-16:59:06.834063,4.0,4.0,348.0
2023-05-24-16:59:06.835070,5.0,2.0,348.0
2023-05-24-16:59:06.836063,5.0,2.0,348.0
2023-05-24-16:59:06.837063,4.0,3.0,349.0
2023-05-24-16:59:06.838064,5.0,2.0,348.0
2023-05-24-16:59:06.839030,6.0,2.0,348.0
2023-05-24-16:59:06.840031,6.0,2.0,348.0
2023-05-24-16:59:06.841063,3.0,2.0,348.0
2023-05-24-16:59:06.842028,6.0,2.0,348.0
2023-05-24-16:59:06.843031,6.0,3.0,348.0
2023-05-24-16:59:06.845032,6.0,3.0,348.0
2023-05-24-16:59:06.846054,5.0,7.0,348.0
2023-05-24-16:59:06.847067,5.0,7.0,348.0
2023-05-24-16:59:06.848029,5.0,7.0,348.0
2023-05-24-16:59:06.849076,4.0,4.0,348.0
2023-05-24-16:59:06.850063,6.0,3.0,348.0
2023-05-24-16:59:06.851065,6.0,1.0,348.0
2023-05-24-16:59:06.852031,6.0,1.0,348.0
2023-05-24-16:59:06.853063,7.0,4.0,348.0
2023-05-24-16:59:06.854067,6.0,3.0,348.0
2023-05-24-16:59:06.855028,4.0,2.0,348.0
2023-05-24-16:59:06.856042,4.0,2.0,348.0
2023-05-24-16:59:06.857064,5.0,4.0,348.0
2023-05-24-16:59:06.858065,4.0,2.0,348.0
2023-05-24-16:59:06.859064,5.0,4.0,348.0
2023-05-24-16:59:06.860063,5.0,4.0,348.0
2023-05-24-16:59:06.861031,3.0,6.0,348.0
2023-05-24-16:59:06.862063,3.0,6.0,348.0
2023-05-24-16:59:06.863067,3.0,6.0,348.0
2023-05-24-16:59:06.864063,3.0,6.0,348.0
2023-05-24-16:59:06.865065,5.0,3.0,348.0
2023-05-24-16:59:06.866063,6.0,4.0,348.0
2023-05-24-16:59:06.867066,3.0,4.0,348.0
2023-05-24-16:59:06.868064,3.0,4.0,348.0
2023-05-24-16:59:06.869063,3.0,4.0,348.0
2023-05-24-16:59:06.870064,7.0,4.0,348.0
2023-05-24-16:59:06.871065,7.0,4.0,348.0
2023-05-24-16:59:06.872064,7.0,4.0,348.0
2023-05-24-16:59:06.873030,7.0,4.0,348.0
2023-05-24-16:59:06.874028,3.0,1.0,349.0
2023-05-24-16:59:06.875030,3.0,1.0,349.0
2023-05-24-16:59:06.876047,3.0,1.0,349.0
2023-05-24-16:59:06.877161,3.0,1.0,349.0
2023-05-24-16:59:06.878143,6.0,7.0,348.0
2023-05-24-16:59:06.879029,5.0,3.0,348.0
2023-05-24-16:59:06.880122,5.0,3.0,348.0
2023-05-24-16:59:06.881233,5.0,3.0,348.0
2023-05-24-16:59:06.882046,5.0,3.0,348.0
2023-05-24-16:59:06.884088,3.0,2.0,348.0
2023-05-24-16:59:06.884088,3.0,2.0,348.0
2023-05-24-16:59:06.885059,3.0,2.0,348.0
2023-05-24-16:59:06.886032,6.0,3.0,348.0
2023-05-24-16:59:06.887144,6.0,3.0,348.0
2023-05-24-16:59:06.888070,6.0,3.0,348.0
2023-05-24-16:59:06.889075,6.0,3.0,348.0
2023-05-24-16:59:06.890039,4.0,3.0,348.0
2023-05-24-16:59:06.891057,5.0,2.0,348.0
2023-05-24-16:59:06.892030,6.0,3.0,348.0
2023-05-24-16:59:06.893031,5.0,3.0,348.0
2023-05-24-16:59:06.894031,4.0,2.0,348.0
2023-05-24-16:59:06.895075,4.0,5.0,348.0
2023-05-24-16:59:06.896069,5.0,5.0,348.0
2023-05-24-16:59:06.897031,5.0,5.0,348.0
2023-05-24-16:59:06.898089,5.0,6.0,348.0
2023-05-24-16:59:06.899085,5.0,5.0,348.0
2023-05-24-16:59:06.900085,6.0,2.0,348.0
2023-05-24-16:59:06.901031,6.0,2.0,348.0
2023-05-24-16:59:06.902090,7.0,2.0,348.0
2023-05-24-16:59:06.903086,7.0,2.0,348.0
2023-05-24-16:59:06.904085,6.0,4.0,348.0
2023-05-24-16:59:06.905045,6.0,4.0,348.0
2023-05-24-16:59:06.906031,6.0,4.0,348.0
2023-05-24-16:59:06.907034,3.0,3.0,348.0
2023-05-24-16:59:06.908029,5.0,3.0,348.0
2023-05-24-16:59:06.909065,5.0,3.0,348.0
2023-05-24-16:59:06.910085,5.0,3.0,348.0
2023-05-24-16:59:06.911089,9.0,3.0,348.0
2023-05-24-16:59:06.912086,7.0,4.0,348.0
2023-05-24-16:59:06.914089,7.0,4.0,348.0
2023-05-24-16:59:06.915031,6.0,2.0,348.0
2023-05-24-16:59:06.915031,6.0,2.0,348.0
2023-05-24-16:59:06.916085,6.0,2.0,348.0
2023-05-24-16:59:06.917030,6.0,2.0,348.0
2023-05-24-16:59:06.918087,6.0,2.0,348.0
2023-05-24-16:59:06.919081,5.0,3.0,348.0
2023-05-24-16:59:06.920085,6.0,2.0,348.0
2023-05-24-16:59:06.921086,7.0,3.0,348.0
2023-05-24-16:59:06.922066,7.0,3.0,348.0
2023-05-24-16:59:06.923031,6.0,1.0,348.0
2023-05-24-16:59:06.924085,3.0,2.0,348.0
2023-05-24-16:59:06.925085,5.0,3.0,348.0
2023-05-24-16:59:06.926059,5.0,3.0,348.0
2023-05-24-16:59:06.927089,7.0,2.0,348.0
2023-05-24-16:59:06.928085,6.0,7.0,348.0
2023-05-24-16:59:06.929085,5.0,4.0,348.0
2023-05-24-16:59:06.930030,5.0,4.0,348.0
2023-05-24-16:59:06.931090,5.0,5.0,348.0
2023-05-24-16:59:06.932094,5.0,5.0,348.0
2023-05-24-16:59:06.933086,5.0,5.0,348.0
2023-05-24-16:59:06.934030,5.0,5.0,348.0
2023-05-24-16:59:06.935067,6.0,1.0,348.0
2023-05-24-16:59:06.936085,4.0,0.0,348.0
2023-05-24-16:59:06.937087,4.0,0.0,348.0
2023-05-24-16:59:06.938031,4.0,0.0,348.0
2023-05-24-16:59:06.939030,4.0,3.0,348.0
2023-05-24-16:59:06.940066,3.0,4.0,348.0
2023-05-24-16:59:06.941086,3.0,4.0,348.0
2023-05-24-16:59:06.942031,3.0,4.0,348.0
2023-05-24-16:59:06.943089,3.0,4.0,348.0
2023-05-24-16:59:06.944086,5.0,4.0,348.0
2023-05-24-16:59:06.945086,3.0,1.0,348.0
2023-05-24-16:59:06.946091,3.0,1.0,348.0
2023-05-24-16:59:06.947085,5.0,4.0,348.0
2023-05-24-16:59:06.949064,6.0,4.0,348.0
2023-05-24-16:59:06.949064,6.0,4.0,348.0
2023-05-24-16:59:06.950066,6.0,4.0,348.0
2023-05-24-16:59:06.951073,7.0,4.0,348.0
2023-05-24-16:59:06.952065,5.0,2.0,348.0
2023-05-24-16:59:06.953065,6.0,3.0,348.0
2023-05-24-16:59:06.954066,6.0,3.0,348.0
2023-05-24-16:59:06.955030,6.0,3.0,348.0
2023-05-24-16:59:06.956036,4.0,2.0,348.0
2023-05-24-16:59:06.957064,4.0,3.0,348.0
2023-05-24-16:59:06.958065,4.0,3.0,348.0
2023-05-24-16:59:06.959068,4.0,3.0,348.0
2023-05-24-16:59:06.960064,4.0,2.0,348.0
2023-05-24-16:59:06.961065,4.0,5.0,348.0
2023-05-24-16:59:06.962064,4.0,6.0,348.0
2023-05-24-16:59:06.963070,4.0,6.0,348.0
2023-05-24-16:59:06.964064,2.0,3.0,348.0
2023-05-24-16:59:06.965070,6.0,3.0,348.0
2023-05-24-16:59:06.966065,6.0,3.0,348.0
2023-05-24-16:59:06.967064,6.0,3.0,348.0
2023-05-24-16:59:06.968065,6.0,5.0,348.0
2023-05-24-16:59:06.969064,6.0,4.0,349.0
2023-05-24-16:59:06.970066,6.0,3.0,348.0
2023-05-24-16:59:06.971065,6.0,3.0,348.0
2023-05-24-16:59:06.972064,8.0,0.0,348.0
2023-05-24-16:59:06.973054,5.0,1.0,348.0
2023-05-24-16:59:06.974064,3.0,6.0,348.0
2023-05-24-16:59:06.975068,3.0,6.0,348.0
2023-05-24-16:59:06.976031,5.0,5.0,348.0
2023-05-24-16:59:06.977065,4.0,5.0,348.0
2023-05-24-16:59:06.978064,5.0,6.0,348.0
2023-05-24-16:59:06.979065,5.0,6.0,348.0
2023-05-24-16:59:06.980028,5.0,2.0,348.0
2023-05-24-16:59:06.982065,6.0,4.0,348.0
2023-05-24-16:59:06.982065,6.0,4.0,348.0
2023-05-24-16:59:06.983031,6.0,4.0,348.0
2023-05-24-16:59:06.984067,6.0,4.0,348.0
2023-05-24-16:59:06.985064,3.0,3.0,348.0
2023-05-24-16:59:06.986076,4.0,2.0,348.0
2023-05-24-16:59:06.987031,4.0,2.0,348.0
2023-05-24-16:59:06.988064,5.0,3.0,348.0
2023-05-24-16:59:06.989065,4.0,5.0,348.0
2023-05-24-16:59:06.990086,4.0,5.0,348.0
2023-05-24-16:59:06.991089,4.0,5.0,348.0
2023-05-24-16:59:06.992086,4.0,5.0,348.0
2023-05-24-16:59:06.993085,4.0,5.0,348.0
2023-05-24-16:59:06.994084,4.0,6.0,348.0
2023-05-24-16:59:06.995085,4.0,6.0,348.0
2023-05-24-16:59:06.996084,4.0,6.0,348.0
2023-05-24-16:59:06.997084,2.0,4.0,348.0
2023-05-24-16:59:06.998071,4.0,4.0,348.0
2023-05-24-16:59:06.999064,5.0,5.0,348.0
2023-05-24-16:59:07.000065,5.0,5.0,348.0
2023-05-24-16:59:07.001065,4.0,4.0,348.0
2023-05-24-16:59:07.002065,5.0,3.0,348.0
2023-05-24-16:59:07.003065,7.0,3.0,349.0
2023-05-24-16:59:07.004064,7.0,3.0,349.0
2023-05-24-16:59:07.005036,5.0,3.0,348.0
2023-05-24-16:59:07.006066,6.0,5.0,348.0
2023-05-24-16:59:07.007031,2.0,3.0,348.0
2023-05-24-16:59:07.008064,2.0,3.0,348.0
2023-05-24-16:59:07.009065,4.0,5.0,348.0
2023-05-24-16:59:07.010064,2.0,7.0,348.0
2023-05-24-16:59:07.011066,3.0,4.0,348.0
2023-05-24-16:59:07.012070,3.0,4.0,348.0
2023-05-24-16:59:07.013064,9.0,5.0,348.0
2023-05-24-16:59:07.014065,4.0,6.0,348.0
2023-05-24-16:59:07.016067,4.0,5.0,348.0
2023-05-24-16:59:07.016067,7.0,2.0,348.0
2023-05-24-16:59:07.017031,3.0,4.0,348.0
2023-05-24-16:59:07.018073,3.0,4.0,348.0
2023-05-24-16:59:07.019064,3.0,4.0,348.0
2023-05-24-16:59:07.020064,3.0,4.0,348.0
2023-05-24-16:59:07.021064,3.0,4.0,348.0
2023-05-24-16:59:07.022030,6.0,4.0,349.0
2023-05-24-16:59:07.023031,5.0,3.0,348.0
2023-05-24-16:59:07.024031,5.0,3.0,348.0
2023-05-24-16:59:07.025065,7.0,4.0,348.0
2023-05-24-16:59:07.026041,4.0,5.0,348.0
2023-05-24-16:59:07.027028,6.0,5.0,348.0
2023-05-24-16:59:07.028034,6.0,5.0,348.0
2023-05-24-16:59:07.029077,6.0,5.0,348.0
2023-05-24-16:59:07.030064,6.0,7.0,348.0
2023-05-24-16:59:07.031031,4.0,7.0,348.0
2023-05-24-16:59:07.032065,4.0,7.0,348.0
2023-05-24-16:59:07.033063,3.0,5.0,349.0
2023-05-24-16:59:07.034066,3.0,2.0,348.0
2023-05-24-16:59:07.035063,3.0,2.0,348.0
2023-05-24-16:59:07.036063,3.0,2.0,348.0
2023-05-24-16:59:07.037064,3.0,2.0,348.0
2023-05-24-16:59:07.038063,7.0,3.0,349.0
2023-05-24-16:59:07.039068,7.0,5.0,348.0
2023-05-24-16:59:07.040061,7.0,5.0,348.0
2023-05-24-16:59:07.041066,7.0,5.0,348.0
2023-05-24-16:59:07.042063,7.0,5.0,348.0
2023-05-24-16:59:07.043066,4.0,7.0,348.0
2023-05-24-16:59:07.044029,3.0,7.0,348.0
2023-05-24-16:59:07.045064,3.0,7.0,348.0
2023-05-24-16:59:07.046064,2.0,5.0,348.0
2023-05-24-16:59:07.047064,4.0,5.0,348.0
2023-05-24-16:59:07.048065,4.0,5.0,348.0
2023-05-24-16:59:07.050066,4.0,5.0,348.0
2023-05-24-16:59:07.050066,6.0,3.0,348.0
2023-05-24-16:59:07.051064,6.0,3.0,348.0
2023-05-24-16:59:07.052063,6.0,3.0,348.0
2023-05-24-16:59:07.053063,6.0,3.0,348.0
2023-05-24-16:59:07.054069,5.0,4.0,348.0
2023-05-24-16:59:07.055067,5.0,3.0,348.0
2023-05-24-16:59:07.056029,5.0,3.0,348.0
2023-05-24-16:59:07.057066,5.0,3.0,348.0
2023-05-24-16:59:07.058063,4.0,4.0,348.0
2023-05-24-16:59:07.059065,3.0,5.0,348.0
2023-05-24-16:59:07.060065,3.0,5.0,348.0
2023-05-24-16:59:07.061063,3.0,5.0,348.0
2023-05-24-16:59:07.062064,5.0,4.0,348.0
2023-05-24-16:59:07.063063,5.0,8.0,348.0
2023-05-24-16:59:07.064065,5.0,8.0,348.0
2023-05-24-16:59:07.065031,5.0,8.0,348.0
2023-05-24-16:59:07.066066,4.0,4.0,348.0
2023-05-24-16:59:07.067063,7.0,4.0,348.0
2023-05-24-16:59:07.068063,7.0,4.0,348.0
2023-05-24-16:59:07.069031,7.0,4.0,348.0
2023-05-24-16:59:07.070063,7.0,2.0,348.0
2023-05-24-16:59:07.071067,5.0,5.0,348.0
2023-05-24-16:59:07.072068,5.0,5.0,348.0
2023-05-24-16:59:07.073066,5.0,5.0,348.0
2023-05-24-16:59:07.074031,5.0,6.0,348.0
2023-05-24-16:59:07.075065,5.0,6.0,348.0
2023-05-24-16:59:07.076033,5.0,6.0,348.0
2023-05-24-16:59:07.077063,5.0,6.0,348.0
2023-05-24-16:59:07.078065,9.0,2.0,348.0
2023-05-24-16:59:07.079064,9.0,3.0,349.0
2023-05-24-16:59:07.080065,9.0,3.0,349.0
2023-05-24-16:59:07.081063,9.0,3.0,349.0
2023-05-24-16:59:07.082066,9.0,3.0,349.0
2023-05-24-16:59:07.083063,7.0,3.0,348.0
2023-05-24-16:59:07.085063,7.0,4.0,348.0
2023-05-24-16:59:07.085063,5.0,6.0,349.0
2023-05-24-16:59:07.086070,6.0,3.0,348.0
2023-05-24-16:59:07.087067,6.0,3.0,348.0
2023-05-24-16:59:07.088063,6.0,3.0,348.0
2023-05-24-16:59:07.089029,6.0,3.0,348.0
2023-05-24-16:59:07.090030,6.0,3.0,348.0
2023-05-24-16:59:07.091065,6.0,4.0,348.0
2023-05-24-16:59:07.092063,2.0,3.0,348.0
2023-05-24-16:59:07.093063,4.0,5.0,348.0
2023-05-24-16:59:07.094065,4.0,5.0,348.0
2023-05-24-16:59:07.095063,4.0,3.0,348.0
2023-05-24-16:59:07.096065,4.0,5.0,348.0
2023-05-24-16:59:07.097063,3.0,5.0,348.0
2023-05-24-16:59:07.098066,3.0,5.0,348.0
2023-05-24-16:59:07.099065,7.0,3.0,348.0
2023-05-24-16:59:07.100063,3.0,2.0,348.0
2023-05-24-16:59:07.101064,3.0,2.0,348.0
2023-05-24-16:59:07.102063,3.0,2.0,348.0
2023-05-24-16:59:07.103067,6.0,1.0,348.0
2023-05-24-16:59:07.104064,6.0,1.0,348.0
2023-05-24-16:59:07.105065,6.0,0.0,348.0
2023-05-24-16:59:07.106067,6.0,0.0,348.0
2023-05-24-16:59:07.107030,7.0,1.0,348.0
2023-05-24-16:59:07.108063,4.0,1.0,349.0
2023-05-24-16:59:07.109063,3.0,1.0,348.0
2023-05-24-16:59:07.110031,3.0,1.0,348.0
2023-05-24-16:59:07.111063,5.0,3.0,348.0
2023-05-24-16:59:07.112065,3.0,4.0,348.0
2023-05-24-16:59:07.113063,5.0,4.0,348.0
2023-05-24-16:59:07.114032,5.0,4.0,348.0
2023-05-24-16:59:07.115063,6.0,5.0,348.0
2023-05-24-16:59:07.116063,6.0,3.0,348.0
2023-05-24-16:59:07.118063,5.0,6.0,348.0
2023-05-24-16:59:07.118063,6.0,2.0,348.0
2023-05-24-16:59:07.119052,7.0,2.0,348.0
2023-05-24-16:59:07.120064,7.0,2.0,348.0
2023-05-24-16:59:07.121065,7.0,2.0,348.0
2023-05-24-16:59:07.122046,7.0,2.0,348.0
2023-05-24-16:59:07.123031,7.0,2.0,348.0
2023-05-24-16:59:07.124065,4.0,2.0,348.0
2023-05-24-16:59:07.125066,4.0,4.0,348.0
2023-05-24-16:59:07.126087,4.0,4.0,348.0
2023-05-24-16:59:07.127086,4.0,4.0,348.0
2023-05-24-16:59:07.128092,4.0,3.0,348.0
2023-05-24-16:59:07.129086,7.0,4.0,348.0
2023-05-24-16:59:07.130085,7.0,4.0,348.0
2023-05-24-16:59:07.131087,7.0,4.0,348.0
2023-05-24-16:59:07.132031,5.0,4.0,348.0
2023-05-24-16:59:07.133085,4.0,6.0,348.0
2023-05-24-16:59:07.134065,4.0,2.0,348.0
2023-05-24-16:59:07.135069,4.0,2.0,348.0
2023-05-24-16:59:07.136086,6.0,5.0,348.0
2023-05-24-16:59:07.137088,5.0,0.0,348.0
2023-05-24-16:59:07.138089,5.0,0.0,348.0
2023-05-24-16:59:07.139100,5.0,0.0,348.0
2023-05-24-16:59:07.140067,5.0,3.0,348.0
2023-05-24-16:59:07.141068,4.0,3.0,348.0
2023-05-24-16:59:07.142087,4.0,2.0,348.0
2023-05-24-16:59:07.143086,4.0,2.0,348.0
2023-05-24-16:59:07.144087,5.0,2.0,348.0
2023-05-24-16:59:07.145086,5.0,5.0,348.0
2023-05-24-16:59:07.146085,3.0,6.0,348.0
2023-05-24-16:59:07.147087,3.0,6.0,348.0
2023-05-24-16:59:07.148086,4.0,4.0,348.0
2023-05-24-16:59:07.149087,5.0,2.0,348.0
2023-05-24-16:59:07.150033,4.0,1.0,348.0
2023-05-24-16:59:07.151029,4.0,1.0,348.0
2023-05-24-16:59:07.153066,8.0,2.0,348.0
2023-05-24-16:59:07.154066,3.0,2.0,348.0
2023-05-24-16:59:07.154066,3.0,2.0,348.0
2023-05-24-16:59:07.155031,3.0,2.0,348.0
2023-05-24-16:59:07.156063,6.0,3.0,348.0
2023-05-24-16:59:07.157064,6.0,6.0,348.0
2023-05-24-16:59:07.158065,6.0,6.0,348.0
2023-05-24-16:59:07.159063,6.0,6.0,348.0
2023-05-24-16:59:07.160065,4.0,4.0,348.0
2023-05-24-16:59:07.161063,3.0,3.0,348.0
2023-05-24-16:59:07.162065,3.0,3.0,348.0
2023-05-24-16:59:07.163063,3.0,3.0,348.0
2023-05-24-16:59:07.164063,3.0,3.0,348.0
2023-05-24-16:59:07.165063,6.0,3.0,348.0
2023-05-24-16:59:07.166063,4.0,1.0,348.0
2023-05-24-16:59:07.167067,4.0,1.0,348.0
2023-05-24-16:59:07.168063,4.0,1.0,348.0
2023-05-24-16:59:07.169066,6.0,1.0,348.0
2023-05-24-16:59:07.170068,6.0,1.0,348.0
2023-05-24-16:59:07.171030,6.0,1.0,348.0
2023-05-24-16:59:07.172030,6.0,1.0,348.0
2023-05-24-16:59:07.174031,3.0,1.0,348.0
2023-05-24-16:59:07.174031,2.0,5.0,348.0
2023-05-24-16:59:07.175063,2.0,5.0,348.0
2023-05-24-16:59:07.176065,2.0,5.0,348.0
2023-05-24-16:59:07.177063,3.0,6.0,348.0
2023-05-24-16:59:07.178065,5.0,2.0,348.0
2023-05-24-16:59:07.179063,5.0,2.0,348.0
2023-05-24-16:59:07.180063,5.0,2.0,348.0
2023-05-24-16:59:07.181063,4.0,4.0,348.0
2023-05-24-16:59:07.182066,5.0,5.0,348.0
2023-05-24-16:59:07.183067,5.0,5.0,348.0
2023-05-24-16:59:07.184063,5.0,5.0,348.0
2023-05-24-16:59:07.185065,4.0,4.0,348.0
2023-05-24-16:59:07.186063,4.0,1.0,348.0
2023-05-24-16:59:07.187065,6.0,3.0,348.0
2023-05-24-16:59:07.189065,6.0,3.0,348.0
2023-05-24-16:59:07.189065,5.0,4.0,348.0
2023-05-24-16:59:07.190066,4.0,4.0,349.0
2023-05-24-16:59:07.191067,4.0,4.0,349.0
2023-05-24-16:59:07.192031,4.0,4.0,349.0
2023-05-24-16:59:07.193030,3.0,5.0,348.0
2023-05-24-16:59:07.194065,4.0,2.0,348.0
2023-05-24-16:59:07.195066,4.0,5.0,348.0
2023-05-24-16:59:07.196030,5.0,7.0,348.0
2023-05-24-16:59:07.197065,5.0,5.0,348.0
2023-05-24-16:59:07.198065,9.0,7.0,348.0
2023-05-24-16:59:07.199069,5.0,7.0,348.0
2023-05-24-16:59:07.200065,5.0,7.0,348.0
2023-05-24-16:59:07.201065,5.0,4.0,348.0
2023-05-24-16:59:07.202065,5.0,2.0,348.0
2023-05-24-16:59:07.203072,7.0,6.0,348.0
2023-05-24-16:59:07.204032,7.0,6.0,348.0
2023-05-24-16:59:07.205065,5.0,5.0,348.0
2023-05-24-16:59:07.206066,3.0,3.0,348.0
2023-05-24-16:59:07.207065,3.0,3.0,348.0
2023-05-24-16:59:07.208065,3.0,3.0,348.0
2023-05-24-16:59:07.209071,3.0,3.0,348.0
2023-05-24-16:59:07.210072,3.0,5.0,348.0
2023-05-24-16:59:07.211035,2.0,6.0,349.0
2023-05-24-16:59:07.212033,2.0,6.0,349.0
2023-05-24-16:59:07.213063,2.0,6.0,349.0
2023-05-24-16:59:07.214073,2.0,6.0,348.0
2023-05-24-16:59:07.215067,2.0,4.0,348.0
2023-05-24-16:59:07.216063,3.0,8.0,348.0
2023-05-24-16:59:07.217065,3.0,8.0,348.0
2023-05-24-16:59:07.218063,6.0,4.0,348.0
2023-05-24-16:59:07.219065,5.0,3.0,348.0
2023-05-24-16:59:07.220063,4.0,2.0,348.0
2023-05-24-16:59:07.221072,4.0,2.0,348.0
2023-05-24-16:59:07.222030,5.0,5.0,348.0
2023-05-24-16:59:07.224065,6.0,3.0,348.0
2023-05-24-16:59:07.225032,4.0,5.0,348.0
2023-05-24-16:59:07.225032,3.0,5.0,348.0
2023-05-24-16:59:07.226065,4.0,6.0,348.0
2023-05-24-16:59:07.227029,4.0,6.0,348.0
2023-05-24-16:59:07.228063,4.0,6.0,348.0
2023-05-24-16:59:07.229066,4.0,6.0,348.0
2023-05-24-16:59:07.230063,4.0,8.0,348.0
2023-05-24-16:59:07.231028,4.0,5.0,348.0
2023-05-24-16:59:07.232085,4.0,5.0,348.0
2023-05-24-16:59:07.233085,4.0,5.0,348.0
2023-05-24-16:59:07.234089,5.0,2.0,348.0
2023-05-24-16:59:07.235028,5.0,5.0,348.0
2023-05-24-16:59:07.236085,5.0,5.0,348.0
2023-05-24-16:59:07.237036,5.0,5.0,348.0
2023-05-24-16:59:07.238066,5.0,5.0,348.0
2023-05-24-16:59:07.239031,5.0,5.0,348.0
2023-05-24-16:59:07.240065,5.0,5.0,348.0
2023-05-24-16:59:07.241031,5.0,5.0,348.0
2023-05-24-16:59:07.242065,5.0,3.0,348.0
2023-05-24-16:59:07.243030,6.0,5.0,348.0
2023-05-24-16:59:07.244067,2.0,5.0,348.0
2023-05-24-16:59:07.245066,2.0,5.0,348.0
2023-05-24-16:59:07.246065,4.0,6.0,348.0
2023-05-24-16:59:07.247069,5.0,6.0,349.0
2023-05-24-16:59:07.248064,6.0,5.0,348.0
2023-05-24-16:59:07.249074,6.0,5.0,348.0
2023-05-24-16:59:07.250065,6.0,5.0,348.0
2023-05-24-16:59:07.251065,6.0,3.0,348.0
2023-05-24-16:59:07.252068,8.0,3.0,348.0
2023-05-24-16:59:07.253066,8.0,3.0,348.0
2023-05-24-16:59:07.254066,8.0,3.0,348.0
2023-05-24-16:59:07.255065,4.0,3.0,348.0
2023-05-24-16:59:07.257068,6.0,5.0,348.0
2023-05-24-16:59:07.257068,6.0,5.0,348.0
2023-05-24-16:59:07.258065,3.0,6.0,349.0
2023-05-24-16:59:07.259065,4.0,4.0,348.0
2023-05-24-16:59:07.260065,4.0,4.0,348.0
2023-05-24-16:59:07.261065,4.0,4.0,348.0
2023-05-24-16:59:07.262075,4.0,4.0,348.0
2023-05-24-16:59:07.263070,6.0,5.0,348.0
2023-05-24-16:59:07.264028,6.0,5.0,348.0
2023-05-24-16:59:07.265066,6.0,5.0,348.0
2023-05-24-16:59:07.266063,6.0,5.0,348.0
2023-05-24-16:59:07.267065,5.0,5.0,348.0
2023-05-24-16:59:07.268063,6.0,2.0,348.0
2023-05-24-16:59:07.269063,6.0,2.0,348.0
2023-05-24-16:59:07.270064,6.0,2.0,348.0
2023-05-24-16:59:07.271064,6.0,2.0,348.0
2023-05-24-16:59:07.272046,6.0,2.0,348.0
2023-05-24-16:59:07.273029,4.0,3.0,348.0
2023-05-24-16:59:07.274065,5.0,3.0,348.0
2023-05-24-16:59:07.275063,5.0,4.0,348.0
2023-05-24-16:59:07.276063,6.0,2.0,348.0
2023-05-24-16:59:07.277063,6.0,2.0,348.0
2023-05-24-16:59:07.278031,6.0,2.0,348.0
2023-05-24-16:59:07.279067,3.0,4.0,348.0
2023-05-24-16:59:07.280064,3.0,2.0,348.0
2023-05-24-16:59:07.281067,6.0,4.0,348.0
2023-05-24-16:59:07.282031,6.0,4.0,348.0
2023-05-24-16:59:07.283065,5.0,6.0,348.0
2023-05-24-16:59:07.284063,4.0,1.0,348.0
2023-05-24-16:59:07.285063,4.0,1.0,348.0
2023-05-24-16:59:07.286065,4.0,1.0,348.0
2023-05-24-16:59:07.287067,5.0,1.0,348.0
2023-05-24-16:59:07.288065,8.0,0.0,348.0
2023-05-24-16:59:07.289095,8.0,0.0,348.0
2023-05-24-16:59:07.290085,8.0,0.0,348.0
2023-05-24-16:59:07.292068,5.0,3.0,348.0
2023-05-24-16:59:07.292068,3.0,6.0,348.0
2023-05-24-16:59:07.293031,3.0,6.0,348.0
2023-05-24-16:59:07.294065,3.0,6.0,348.0
2023-05-24-16:59:07.295069,3.0,6.0,348.0
2023-05-24-16:59:07.296065,5.0,5.0,348.0
2023-05-24-16:59:07.297066,4.0,6.0,348.0
2023-05-24-16:59:07.298029,4.0,6.0,348.0
2023-05-24-16:59:07.299066,4.0,6.0,348.0
2023-05-24-16:59:07.300065,4.0,4.0,348.0
2023-05-24-16:59:07.301065,6.0,2.0,348.0
2023-05-24-16:59:07.302066,5.0,3.0,348.0
2023-05-24-16:59:07.303065,5.0,3.0,348.0
2023-05-24-16:59:07.304065,6.0,0.0,348.0
2023-05-24-16:59:07.305065,8.0,1.0,348.0
2023-05-24-16:59:07.306066,6.0,3.0,348.0
2023-05-24-16:59:07.307065,6.0,3.0,348.0
2023-05-24-16:59:07.308068,5.0,4.0,348.0
2023-05-24-16:59:07.309065,3.0,7.0,348.0
2023-05-24-16:59:07.310086,3.0,6.0,349.0
2023-05-24-16:59:07.311029,3.0,6.0,349.0
2023-05-24-16:59:07.312087,6.0,3.0,348.0
2023-05-24-16:59:07.313086,4.0,4.0,348.0
2023-05-24-16:59:07.314089,4.0,4.0,348.0
2023-05-24-16:59:07.315086,4.0,4.0,348.0
2023-05-24-16:59:07.316086,6.0,0.0,348.0
2023-05-24-16:59:07.317085,4.0,4.0,348.0
2023-05-24-16:59:07.318087,4.0,2.0,348.0
2023-05-24-16:59:07.319031,4.0,2.0,348.0
2023-05-24-16:59:07.320070,7.0,2.0,348.0
2023-05-24-16:59:07.321086,4.0,2.0,348.0
2023-05-24-16:59:07.322061,4.0,2.0,348.0
2023-05-24-16:59:07.325065,4.0,2.0,348.0
2023-05-24-16:59:07.325065,4.0,5.0,349.0
2023-05-24-16:59:07.326065,4.0,5.0,349.0
2023-05-24-16:59:07.327031,4.0,5.0,349.0
2023-05-24-16:59:07.328071,4.0,5.0,348.0
2023-05-24-16:59:07.329065,2.0,4.0,348.0
2023-05-24-16:59:07.330065,6.0,6.0,348.0
2023-05-24-16:59:07.331066,6.0,6.0,348.0
2023-05-24-16:59:07.332065,5.0,5.0,348.0
2023-05-24-16:59:07.333064,4.0,2.0,348.0
2023-05-24-16:59:07.334066,5.0,3.0,348.0
2023-05-24-16:59:07.335065,5.0,3.0,348.0
2023-05-24-16:59:07.336059,5.0,3.0,348.0
2023-05-24-16:59:07.337064,8.0,0.0,348.0
2023-05-24-16:59:07.338066,4.0,4.0,348.0
2023-05-24-16:59:07.339030,7.0,1.0,348.0
2023-05-24-16:59:07.340068,7.0,1.0,348.0
2023-05-24-16:59:07.341066,2.0,5.0,348.0
2023-05-24-16:59:07.342087,4.0,6.0,348.0
2023-05-24-16:59:07.343031,4.0,6.0,348.0
2023-05-24-16:59:07.344085,4.0,6.0,348.0
2023-05-24-16:59:07.345086,2.0,2.0,348.0
2023-05-24-16:59:07.346089,2.0,4.0,348.0
2023-05-24-16:59:07.347086,4.0,5.0,348.0
2023-05-24-16:59:07.348094,4.0,5.0,348.0
2023-05-24-16:59:07.349029,3.0,5.0,348.0
2023-05-24-16:59:07.350090,6.0,4.0,348.0
2023-05-24-16:59:07.351029,6.0,6.0,348.0
2023-05-24-16:59:07.352089,6.0,6.0,348.0
2023-05-24-16:59:07.353092,6.0,1.0,348.0
2023-05-24-16:59:07.354085,4.0,3.0,349.0
2023-05-24-16:59:07.355087,4.0,2.0,348.0
2023-05-24-16:59:07.356029,4.0,2.0,348.0
2023-05-24-16:59:07.357073,6.0,6.0,348.0
2023-05-24-16:59:07.358086,3.0,5.0,348.0
2023-05-24-16:59:07.359064,3.0,5.0,348.0
2023-05-24-16:59:07.361065,3.0,5.0,348.0
2023-05-24-16:59:07.361065,4.0,4.0,348.0
2023-05-24-16:59:07.362029,4.0,4.0,348.0
2023-05-24-16:59:07.363086,4.0,4.0,348.0
2023-05-24-16:59:07.364031,4.0,4.0,348.0
2023-05-24-16:59:07.365088,5.0,5.0,348.0
2023-05-24-16:59:07.366091,5.0,5.0,349.0
2023-05-24-16:59:07.367031,6.0,5.0,348.0
2023-05-24-16:59:07.368033,6.0,5.0,348.0
2023-05-24-16:59:07.369065,6.0,5.0,348.0
2023-05-24-16:59:07.370066,7.0,2.0,348.0
2023-05-24-16:59:07.371063,7.0,2.0,348.0
2023-05-24-16:59:07.372055,7.0,2.0,348.0
2023-05-24-16:59:07.373064,7.0,2.0,348.0
2023-05-24-16:59:07.374063,6.0,4.0,348.0
2023-05-24-16:59:07.375067,3.0,5.0,348.0
2023-05-24-16:59:07.376064,3.0,5.0,348.0
2023-05-24-16:59:07.377066,7.0,3.0,348.0
2023-05-24-16:59:07.378063,7.0,3.0,348.0
2023-05-24-16:59:07.379029,6.0,6.0,348.0
2023-05-24-16:59:07.380028,5.0,5.0,348.0
2023-05-24-16:59:07.381063,5.0,5.0,348.0
2023-05-24-16:59:07.382064,7.0,5.0,348.0
2023-05-24-16:59:07.383063,6.0,5.0,348.0
2023-05-24-16:59:07.384065,6.0,5.0,348.0
2023-05-24-16:59:07.385063,6.0,5.0,348.0
2023-05-24-16:59:07.386065,6.0,3.0,348.0
2023-05-24-16:59:07.387063,7.0,4.0,348.0
2023-05-24-16:59:07.388030,7.0,4.0,348.0
2023-05-24-16:59:07.389063,7.0,4.0,348.0
2023-05-24-16:59:07.390033,3.0,2.0,348.0
2023-05-24-16:59:07.391067,4.0,4.0,348.0
2023-05-24-16:59:07.392066,4.0,4.0,348.0
2023-05-24-16:59:07.394063,5.0,2.0,349.0
2023-05-24-16:59:07.394063,4.0,7.0,348.0
2023-05-24-16:59:07.395031,4.0,7.0,348.0
2023-05-24-16:59:07.396068,4.0,7.0,348.0
2023-05-24-16:59:07.397063,4.0,7.0,348.0
2023-05-24-16:59:07.398064,5.0,8.0,348.0
2023-05-24-16:59:07.399063,4.0,6.0,348.0
2023-05-24-16:59:07.400065,4.0,1.0,348.0
2023-05-24-16:59:07.401030,4.0,1.0,348.0
2023-05-24-16:59:07.402074,6.0,0.0,348.0
2023-05-24-16:59:07.403063,7.0,3.0,348.0
2023-05-24-16:59:07.404063,6.0,4.0,349.0
2023-05-24-16:59:07.405031,6.0,4.0,349.0
2023-05-24-16:59:07.406067,7.0,4.0,348.0
2023-05-24-16:59:07.407067,4.0,3.0,348.0
2023-05-24-16:59:07.408063,5.0,4.0,348.0
2023-05-24-16:59:07.409031,5.0,4.0,348.0
2023-05-24-16:59:07.410063,6.0,4.0,348.0
2023-05-24-16:59:07.411065,6.0,4.0,348.0
2023-05-24-16:59:07.412069,6.0,4.0,348.0
2023-05-24-16:59:07.413063,6.0,4.0,348.0
2023-05-24-16:59:07.414064,4.0,3.0,348.0
2023-05-24-16:59:07.415063,7.0,2.0,349.0
2023-05-24-16:59:07.416073,7.0,2.0,349.0
2023-05-24-16:59:07.417063,7.0,2.0,349.0
2023-05-24-16:59:07.418068,7.0,1.0,348.0
2023-05-24-16:59:07.419063,4.0,1.0,348.0
2023-05-24-16:59:07.420063,5.0,1.0,348.0
2023-05-24-16:59:07.421063,6.0,0.0,348.0
2023-05-24-16:59:07.422062,6.0,0.0,348.0
2023-05-24-16:59:07.423068,4.0,5.0,348.0
2023-05-24-16:59:07.424031,4.0,2.0,348.0
2023-05-24-16:59:07.425065,4.0,2.0,348.0
2023-05-24-16:59:07.427066,4.0,2.0,348.0
2023-05-24-16:59:07.428031,5.0,5.0,348.0
2023-05-24-16:59:07.429065,5.0,5.0,348.0
2023-05-24-16:59:07.430064,5.0,5.0,348.0
2023-05-24-16:59:07.431063,5.0,4.0,348.0
2023-05-24-16:59:07.432065,6.0,2.0,348.0
2023-05-24-16:59:07.433064,6.0,2.0,348.0
2023-05-24-16:59:07.434066,6.0,2.0,348.0
2023-05-24-16:59:07.435063,9.0,1.0,348.0
2023-05-24-16:59:07.436063,5.0,2.0,348.0
2023-05-24-16:59:07.437063,4.0,0.0,348.0
2023-05-24-16:59:07.438063,4.0,0.0,348.0
2023-05-24-16:59:07.439031,4.0,1.0,348.0
2023-05-24-16:59:07.440030,3.0,3.0,348.0
2023-05-24-16:59:07.441065,4.0,1.0,348.0
2023-05-24-16:59:07.442063,4.0,1.0,348.0
2023-05-24-16:59:07.443038,2.0,5.0,349.0
2023-05-24-16:59:07.444063,4.0,4.0,348.0
2023-05-24-16:59:07.445070,4.0,4.0,348.0
2023-05-24-16:59:07.446064,4.0,4.0,348.0
2023-05-24-16:59:07.447063,6.0,2.0,348.0
2023-05-24-16:59:07.448065,6.0,3.0,348.0
2023-05-24-16:59:07.449063,6.0,3.0,348.0
2023-05-24-16:59:07.450031,6.0,3.0,348.0
2023-05-24-16:59:07.451028,6.0,2.0,348.0
2023-05-24-16:59:07.452063,4.0,2.0,348.0
2023-05-24-16:59:07.453069,7.0,1.0,348.0
2023-05-24-16:59:07.454031,7.0,1.0,348.0
2023-05-24-16:59:07.455067,6.0,3.0,348.0
2023-05-24-16:59:07.456031,2.0,1.0,348.0
2023-05-24-16:59:07.457047,2.0,1.0,348.0
2023-05-24-16:59:07.458063,2.0,1.0,348.0
2023-05-24-16:59:07.459065,6.0,2.0,348.0
2023-05-24-16:59:07.460063,3.0,3.0,348.0
2023-05-24-16:59:07.461063,3.0,3.0,348.0
2023-05-24-16:59:07.463063,3.0,3.0,348.0
2023-05-24-16:59:07.463063,3.0,3.0,348.0
2023-05-24-16:59:07.464065,1.0,3.0,348.0
2023-05-24-16:59:07.465064,3.0,5.0,349.0
2023-05-24-16:59:07.466071,4.0,5.0,348.0
2023-05-24-16:59:07.467063,4.0,5.0,348.0
2023-05-24-16:59:07.468064,4.0,2.0,348.0
2023-05-24-16:59:07.469063,6.0,0.0,348.0
2023-05-24-16:59:07.470063,6.0,0.0,348.0
2023-05-24-16:59:07.471067,6.0,0.0,348.0
2023-05-24-16:59:07.472063,3.0,1.0,348.0
2023-05-24-16:59:07.473067,4.0,2.0,348.0
2023-05-24-16:59:07.474063,3.0,2.0,348.0
2023-05-24-16:59:07.475065,3.0,2.0,348.0
2023-05-24-16:59:07.476028,4.0,4.0,348.0
2023-05-24-16:59:07.477063,1.0,2.0,348.0
2023-05-24-16:59:07.478064,1.0,2.0,348.0
2023-05-24-16:59:07.479072,5.0,3.0,349.0
2023-05-24-16:59:07.480065,4.0,3.0,348.0
2023-05-24-16:59:07.481063,4.0,3.0,348.0
2023-05-24-16:59:07.482065,4.0,3.0,348.0
2023-05-24-16:59:07.483064,4.0,3.0,348.0
2023-05-24-16:59:07.484064,3.0,2.0,348.0
2023-05-24-16:59:07.485066,4.0,1.0,349.0
2023-05-24-16:59:07.486063,4.0,2.0,348.0
2023-05-24-16:59:07.487067,4.0,2.0,348.0
2023-05-24-16:59:07.488064,6.0,2.0,348.0
2023-05-24-16:59:07.489030,4.0,4.0,348.0
2023-05-24-16:59:07.490064,5.0,6.0,348.0
2023-05-24-16:59:07.491031,5.0,6.0,348.0
2023-05-24-16:59:07.492063,4.0,1.0,348.0
2023-05-24-16:59:07.493046,4.0,3.0,348.0
2023-05-24-16:59:07.494064,3.0,5.0,349.0
2023-05-24-16:59:07.495028,3.0,5.0,349.0
2023-05-24-16:59:07.497063,4.0,3.0,348.0
2023-05-24-16:59:07.497063,4.0,3.0,348.0
2023-05-24-16:59:07.498065,4.0,2.0,348.0
2023-05-24-16:59:07.499063,4.0,1.0,348.0
2023-05-24-16:59:07.500063,5.0,3.0,348.0
2023-05-24-16:59:07.501063,4.0,1.0,348.0
2023-05-24-16:59:07.502044,4.0,1.0,348.0
2023-05-24-16:59:07.503067,4.0,1.0,348.0
2023-05-24-16:59:07.504063,1.0,5.0,348.0
2023-05-24-16:59:07.505072,1.0,5.0,348.0
2023-05-24-16:59:07.506063,1.0,5.0,348.0
2023-05-24-16:59:07.507065,1.0,5.0,348.0
2023-05-24-16:59:07.508063,1.0,5.0,348.0
2023-05-24-16:59:07.509063,2.0,5.0,348.0
2023-05-24-16:59:07.510074,2.0,5.0,348.0
2023-05-24-16:59:07.511062,2.0,5.0,348.0
2023-05-24-16:59:07.512065,2.0,5.0,348.0
2023-05-24-16:59:07.513029,5.0,2.0,348.0
2023-05-24-16:59:07.514070,4.0,5.0,348.0
2023-05-24-16:59:07.515066,4.0,5.0,348.0
2023-05-24-16:59:07.516072,4.0,5.0,348.0
2023-05-24-16:59:07.517065,4.0,6.0,348.0
2023-05-24-16:59:07.518068,3.0,5.0,348.0
2023-05-24-16:59:07.519064,3.0,2.0,349.0
2023-05-24-16:59:07.520065,3.0,2.0,349.0
2023-05-24-16:59:07.521066,7.0,1.0,349.0
2023-05-24-16:59:07.522067,5.0,3.0,348.0
2023-05-24-16:59:07.523066,5.0,5.0,348.0
2023-05-24-16:59:07.524031,5.0,5.0,348.0
2023-05-24-16:59:07.525065,1.0,5.0,348.0
2023-05-24-16:59:07.526066,4.0,3.0,348.0
2023-05-24-16:59:07.527065,2.0,6.0,348.0
2023-05-24-16:59:07.528031,2.0,6.0,348.0
2023-05-24-16:59:07.529064,4.0,4.0,348.0
2023-05-24-16:59:07.531065,4.0,4.0,348.0
2023-05-24-16:59:07.531065,4.0,4.0,348.0
2023-05-24-16:59:07.532031,4.0,4.0,348.0
2023-05-24-16:59:07.533085,4.0,3.0,348.0
2023-05-24-16:59:07.534086,4.0,7.0,348.0
2023-05-24-16:59:07.535089,6.0,3.0,348.0
2023-05-24-16:59:07.536031,6.0,3.0,348.0
2023-05-24-16:59:07.537086,5.0,4.0,348.0
2023-05-24-16:59:07.538089,3.0,7.0,348.0
2023-05-24-16:59:07.539051,7.0,4.0,348.0
2023-05-24-16:59:07.540057,7.0,4.0,348.0
2023-05-24-16:59:07.541086,3.0,4.0,348.0
2023-05-24-16:59:07.542088,4.0,5.0,348.0
2023-05-24-16:59:07.543065,5.0,3.0,348.0
2023-05-24-16:59:07.544071,5.0,3.0,348.0
2023-05-24-16:59:07.545065,5.0,7.0,348.0
2023-05-24-16:59:07.546067,4.0,3.0,348.0
2023-05-24-16:59:07.547065,5.0,5.0,349.0
2023-05-24-16:59:07.548072,5.0,5.0,349.0
2023-05-24-16:59:07.549085,5.0,4.0,348.0
2023-05-24-16:59:07.550087,6.0,5.0,348.0
2023-05-24-16:59:07.551089,6.0,5.0,348.0
2023-05-24-16:59:07.552028,6.0,5.0,348.0
2023-05-24-16:59:07.553085,6.0,5.0,348.0
2023-05-24-16:59:07.554089,7.0,4.0,348.0
2023-05-24-16:59:07.555085,4.0,5.0,348.0
2023-05-24-16:59:07.556087,4.0,6.0,348.0
2023-05-24-16:59:07.557047,4.0,6.0,348.0
2023-05-24-16:59:07.558088,4.0,6.0,348.0
2023-05-24-16:59:07.559029,5.0,7.0,348.0
2023-05-24-16:59:07.560063,5.0,7.0,348.0
2023-05-24-16:59:07.561037,5.0,7.0,348.0
2023-05-24-16:59:07.562109,4.0,6.0,348.0
2023-05-24-16:59:07.563172,3.0,9.0,348.0
2023-05-24-16:59:07.564066,3.0,9.0,348.0
2023-05-24-16:59:07.566030,3.0,9.0,348.0
2023-05-24-16:59:07.566030,3.0,5.0,348.0
2023-05-24-16:59:07.567068,4.0,5.0,348.0
2023-05-24-16:59:07.568073,4.0,5.0,348.0
2023-05-24-16:59:07.569065,4.0,5.0,348.0
2023-05-24-16:59:07.570063,4.0,2.0,348.0
2023-05-24-16:59:07.571065,6.0,5.0,348.0
2023-05-24-16:59:07.572063,5.0,5.0,348.0
2023-05-24-16:59:07.573064,5.0,5.0,348.0
2023-05-24-16:59:07.574064,3.0,5.0,348.0
2023-05-24-16:59:07.575063,4.0,4.0,348.0
2023-05-24-16:59:07.576065,6.0,6.0,348.0
2023-05-24-16:59:07.577031,6.0,6.0,348.0
2023-05-24-16:59:07.578065,3.0,6.0,348.0
2023-05-24-16:59:07.579063,5.0,6.0,348.0
2023-05-24-16:59:07.580067,5.0,6.0,348.0
2023-05-24-16:59:07.581031,5.0,6.0,348.0
2023-05-24-16:59:07.582067,4.0,7.0,348.0
2023-05-24-16:59:07.583067,5.0,6.0,348.0
2023-05-24-16:59:07.584063,5.0,6.0,348.0
2023-05-24-16:59:07.585065,5.0,6.0,348.0
2023-05-24-16:59:07.586063,5.0,3.0,348.0
2023-05-24-16:59:07.587065,5.0,3.0,348.0
2023-05-24-16:59:07.588063,5.0,3.0,348.0
2023-05-24-16:59:07.589030,5.0,3.0,348.0
2023-05-24-16:59:07.590064,5.0,3.0,348.0
2023-05-24-16:59:07.591030,3.0,7.0,348.0
2023-05-24-16:59:07.592065,4.0,4.0,348.0
2023-05-24-16:59:07.593063,4.0,4.0,348.0
2023-05-24-16:59:07.594065,6.0,7.0,348.0
2023-05-24-16:59:07.595067,4.0,6.0,348.0
2023-05-24-16:59:07.596064,6.0,4.0,348.0
2023-05-24-16:59:07.597063,6.0,4.0,348.0
2023-05-24-16:59:07.598063,6.0,4.0,348.0
2023-05-24-16:59:07.600063,6.0,4.0,348.0
2023-05-24-16:59:07.600063,6.0,5.0,348.0
2023-05-24-16:59:07.601065,6.0,5.0,348.0
2023-05-24-16:59:07.602068,6.0,5.0,348.0
2023-05-24-16:59:07.603066,9.0,4.0,348.0
2023-05-24-16:59:07.604030,6.0,3.0,348.0
2023-05-24-16:59:07.605063,5.0,3.0,348.0
2023-05-24-16:59:07.606067,5.0,3.0,348.0
2023-05-24-16:59:07.607067,4.0,3.0,348.0
2023-05-24-16:59:07.608065,4.0,3.0,348.0
2023-05-24-16:59:07.609063,4.0,3.0,348.0
2023-05-24-16:59:07.610031,4.0,3.0,348.0
2023-05-24-16:59:07.611064,5.0,5.0,348.0
2023-05-24-16:59:07.612063,4.0,4.0,348.0
2023-05-24-16:59:07.613073,6.0,6.0,348.0
2023-05-24-16:59:07.614063,6.0,6.0,348.0
2023-05-24-16:59:07.615068,4.0,5.0,348.0
2023-05-24-16:59:07.616064,6.0,5.0,348.0
2023-05-24-16:59:07.617065,3.0,3.0,348.0
2023-05-24-16:59:07.618031,6.0,4.0,348.0
2023-05-24-16:59:07.619066,5.0,3.0,348.0
2023-05-24-16:59:07.620063,7.0,2.0,348.0
2023-05-24-16:59:07.621065,5.0,2.0,348.0
2023-05-24-16:59:07.622031,5.0,2.0,348.0
2023-05-24-16:59:07.623029,4.0,2.0,348.0
2023-05-24-16:59:07.624077,1.0,3.0,348.0
2023-05-24-16:59:07.625086,3.0,5.0,348.0
2023-05-24-16:59:07.626086,3.0,5.0,348.0
2023-05-24-16:59:07.627087,4.0,5.0,348.0
2023-05-24-16:59:07.628086,4.0,5.0,348.0
2023-05-24-16:59:07.629028,4.0,5.0,348.0
2023-05-24-16:59:07.630086,4.0,5.0,348.0
2023-05-24-16:59:07.632064,5.0,0.0,348.0
2023-05-24-16:59:07.632064,5.0,3.0,348.0
2023-05-24-16:59:07.633065,5.0,3.0,348.0
2023-05-24-16:59:07.634065,5.0,3.0,348.0
2023-05-24-16:59:07.635069,4.0,3.0,348.0
2023-05-24-16:59:07.636065,7.0,1.0,348.0
2023-05-24-16:59:07.637066,7.0,0.0,348.0
2023-05-24-16:59:07.638067,7.0,0.0,348.0
2023-05-24-16:59:07.639033,7.0,0.0,348.0
2023-05-24-16:59:07.640033,3.0,0.0,348.0
2023-05-24-16:59:07.641086,3.0,0.0,348.0
2023-05-24-16:59:07.642030,3.0,0.0,348.0
2023-05-24-16:59:07.643088,3.0,0.0,348.0
2023-05-24-16:59:07.644086,4.0,2.0,349.0
2023-05-24-16:59:07.645085,4.0,3.0,348.0
2023-05-24-16:59:07.646085,7.0,2.0,348.0
2023-05-24-16:59:07.647096,7.0,2.0,348.0
2023-05-24-16:59:07.648031,6.0,1.0,348.0
2023-05-24-16:59:07.649086,6.0,1.0,348.0
2023-05-24-16:59:07.650089,6.0,1.0,348.0
2023-05-24-16:59:07.651085,6.0,1.0,348.0
2023-05-24-16:59:07.652086,7.0,1.0,348.0
2023-05-24-16:59:07.653085,5.0,1.0,348.0
2023-05-24-16:59:07.654087,4.0,0.0,348.0
2023-05-24-16:59:07.655064,4.0,0.0,348.0
2023-05-24-16:59:07.656071,3.0,1.0,349.0
2023-05-24-16:59:07.657066,5.0,2.0,349.0
2023-05-24-16:59:07.658085,5.0,6.0,348.0
2023-05-24-16:59:07.659087,5.0,6.0,348.0
2023-05-24-16:59:07.660031,4.0,3.0,349.0
2023-05-24-16:59:07.661092,4.0,1.0,348.0
2023-05-24-16:59:07.662085,2.0,1.0,349.0
2023-05-24-16:59:07.663031,2.0,1.0,349.0
2023-05-24-16:59:07.664092,5.0,0.0,348.0
2023-05-24-16:59:07.665086,5.0,0.0,348.0
2023-05-24-16:59:07.667038,6.0,1.0,348.0
2023-05-24-16:59:07.667038,6.0,0.0,348.0
2023-05-24-16:59:07.668031,6.0,0.0,348.0
2023-05-24-16:59:07.669085,6.0,0.0,348.0
2023-05-24-16:59:07.670087,6.0,0.0,348.0
2023-05-24-16:59:07.671086,6.0,0.0,348.0
2023-05-24-16:59:07.672087,4.0,2.0,349.0
2023-05-24-16:59:07.673086,5.0,1.0,348.0
2023-05-24-16:59:07.674031,5.0,1.0,348.0
2023-05-24-16:59:07.675030,5.0,1.0,348.0
2023-05-24-16:59:07.676063,5.0,1.0,348.0
2023-05-24-16:59:07.677063,2.0,3.0,348.0
2023-05-24-16:59:07.678063,2.0,3.0,348.0
2023-05-24-16:59:07.679067,2.0,3.0,348.0
2023-05-24-16:59:07.680063,2.0,3.0,348.0
2023-05-24-16:59:07.681066,5.0,4.0,349.0
2023-05-24-16:59:07.682063,5.0,4.0,349.0
2023-05-24-16:59:07.683066,5.0,3.0,348.0
2023-05-24-16:59:07.684063,5.0,3.0,348.0
2023-05-24-16:59:07.685063,5.0,4.0,348.0
2023-05-24-16:59:07.686064,6.0,3.0,349.0
2023-05-24-16:59:07.687063,6.0,3.0,349.0
2023-05-24-16:59:07.688081,6.0,3.0,349.0
2023-05-24-16:59:07.689030,5.0,7.0,349.0
2023-05-24-16:59:07.690130,5.0,7.0,349.0
2023-05-24-16:59:07.691040,5.0,7.0,349.0
2023-05-24-16:59:07.692116,5.0,7.0,349.0
2023-05-24-16:59:07.693030,4.0,7.0,348.0
2023-05-24-16:59:07.694063,4.0,5.0,349.0
2023-05-24-16:59:07.695067,4.0,5.0,349.0
2023-05-24-16:59:07.696063,4.0,5.0,349.0
2023-05-24-16:59:07.697065,4.0,4.0,348.0
2023-05-24-16:59:07.698063,4.0,6.0,348.0
2023-05-24-16:59:07.700063,4.0,6.0,348.0
2023-05-24-16:59:07.701034,5.0,7.0,348.0
2023-05-24-16:59:07.701034,5.0,4.0,348.0
2023-05-24-16:59:07.702064,6.0,7.0,348.0
2023-05-24-16:59:07.703029,6.0,7.0,348.0
2023-05-24-16:59:07.704029,6.0,7.0,348.0
2023-05-24-16:59:07.705028,6.0,3.0,348.0
2023-05-24-16:59:07.706028,4.0,5.0,348.0
2023-05-24-16:59:07.707029,4.0,5.0,348.0
2023-05-24-16:59:07.708029,4.0,5.0,348.0
2023-05-24-16:59:07.709028,6.0,7.0,349.0
2023-05-24-16:59:07.710029,5.0,7.0,349.0
2023-05-24-16:59:07.711028,5.0,7.0,349.0
2023-05-24-16:59:07.712072,5.0,7.0,349.0
2023-05-24-16:59:07.713066,7.0,8.0,348.0
2023-05-24-16:59:07.714064,7.0,8.0,348.0
2023-05-24-16:59:07.715065,7.0,8.0,348.0
2023-05-24-16:59:07.716040,7.0,8.0,348.0
2023-05-24-16:59:07.717065,7.0,8.0,348.0
2023-05-24-16:59:07.718066,3.0,5.0,348.0
2023-05-24-16:59:07.719065,7.0,5.0,348.0
2023-05-24-16:59:07.720085,7.0,5.0,348.0
2023-05-24-16:59:07.721086,7.0,5.0,348.0
2023-05-24-16:59:07.722085,5.0,8.0,348.0
2023-05-24-16:59:07.723029,4.0,6.0,348.0
2023-05-24-16:59:07.724049,4.0,6.0,348.0
2023-05-24-16:59:07.725086,4.0,6.0,348.0
2023-05-24-16:59:07.726090,2.0,5.0,348.0
2023-05-24-16:59:07.727089,4.0,9.0,348.0
2023-05-24-16:59:07.728085,5.0,9.0,348.0
2023-05-24-16:59:07.729090,5.0,9.0,348.0
2023-05-24-16:59:07.730089,6.0,7.0,349.0
2023-05-24-16:59:07.731030,5.0,6.0,348.0
2023-05-24-16:59:07.732086,3.0,5.0,348.0
2023-05-24-16:59:07.733065,3.0,5.0,348.0
2023-05-24-16:59:07.734065,7.0,4.0,348.0
2023-05-24-16:59:07.735030,9.0,4.0,348.0
2023-05-24-16:59:07.737066,8.0,3.0,348.0
2023-05-24-16:59:07.737066,7.0,5.0,348.0
2023-05-24-16:59:07.738066,3.0,5.0,348.0
2023-05-24-16:59:07.739048,3.0,6.0,348.0
2023-05-24-16:59:07.740068,3.0,6.0,348.0
2023-05-24-16:59:07.741031,3.0,6.0,348.0
2023-05-24-16:59:07.742065,4.0,3.0,348.0
2023-05-24-16:59:07.743069,4.0,5.0,349.0
2023-05-24-16:59:07.744071,3.0,6.0,348.0
2023-05-24-16:59:07.745065,3.0,6.0,348.0
2023-05-24-16:59:07.746064,4.0,4.0,348.0
2023-05-24-16:59:07.747066,5.0,8.0,349.0
2023-05-24-16:59:07.748064,5.0,10.0,349.0
2023-05-24-16:59:07.749031,5.0,10.0,349.0
2023-05-24-16:59:07.750069,7.0,2.0,348.0
2023-05-24-16:59:07.751064,7.0,2.0,348.0
2023-05-24-16:59:07.752071,7.0,2.0,348.0
2023-05-24-16:59:07.753032,7.0,2.0,348.0
2023-05-24-16:59:07.754065,7.0,2.0,348.0
2023-05-24-16:59:07.755065,5.0,3.0,348.0
2023-05-24-16:59:07.756070,5.0,3.0,348.0
2023-05-24-16:59:07.757078,5.0,3.0,348.0
2023-05-24-16:59:07.758065,5.0,3.0,348.0
2023-05-24-16:59:07.759069,3.0,6.0,348.0
2023-05-24-16:59:07.760031,5.0,7.0,348.0
2023-05-24-16:59:07.761065,3.0,7.0,348.0
2023-05-24-16:59:07.762065,5.0,4.0,348.0
2023-05-24-16:59:07.763069,5.0,4.0,348.0
2023-05-24-16:59:07.764065,5.0,3.0,348.0
2023-05-24-16:59:07.765068,5.0,3.0,348.0
2023-05-24-16:59:07.766066,5.0,3.0,348.0
2023-05-24-16:59:07.767065,5.0,4.0,348.0
2023-05-24-16:59:07.769065,5.0,2.0,348.0
2023-05-24-16:59:07.769065,5.0,2.0,348.0
2023-05-24-16:59:07.770030,5.0,5.0,348.0
2023-05-24-16:59:07.771064,5.0,5.0,348.0
2023-05-24-16:59:07.772072,5.0,5.0,348.0
2023-05-24-16:59:07.773068,5.0,5.0,348.0
2023-05-24-16:59:07.774067,5.0,5.0,348.0
2023-05-24-16:59:07.775069,5.0,4.0,348.0
2023-05-24-16:59:07.776066,3.0,7.0,348.0
2023-05-24-16:59:07.777065,2.0,4.0,348.0
2023-05-24-16:59:07.778071,2.0,4.0,348.0
2023-05-24-16:59:07.779066,5.0,8.0,348.0
2023-05-24-16:59:07.780065,5.0,4.0,348.0
2023-05-24-16:59:07.781065,6.0,5.0,348.0
2023-05-24-16:59:07.782029,6.0,5.0,348.0
2023-05-24-16:59:07.783065,3.0,4.0,348.0
2023-05-24-16:59:07.784065,3.0,4.0,348.0
2023-05-24-16:59:07.785064,5.0,2.0,348.0
2023-05-24-16:59:07.786031,4.0,4.0,348.0
2023-05-24-16:59:07.787064,5.0,2.0,348.0
2023-05-24-16:59:07.788068,5.0,3.0,348.0
2023-05-24-16:59:07.789035,7.0,3.0,348.0
2023-05-24-16:59:07.790031,7.0,3.0,348.0
2023-05-24-16:59:07.791089,4.0,3.0,348.0
2023-05-24-16:59:07.792090,4.0,5.0,348.0
2023-05-24-16:59:07.793086,4.0,5.0,348.0
2023-05-24-16:59:07.794031,4.0,5.0,348.0
2023-05-24-16:59:07.795085,5.0,5.0,349.0
2023-05-24-16:59:07.796086,7.0,7.0,348.0
2023-05-24-16:59:07.797085,6.0,5.0,348.0
