# 
# 
# 
# 
# 
# 
# 
# 
# 
# 
# time,realtime,ref,inp,inp0,inp1,dis,state...
0.000000000000000000e+00,1.639369777023669004e+09,-0.000000000000000000e+00,0.000000000000000000e+00,0.000000000000000000e+00,-3.394066027349079917e+00,0.000000000000000000e+00,0.000000000000000000e+00,0.000000000000000000e+00
1.666666666666666644e-02,1.639369777024666786e+09,-6.418826485120109801e-06,0.000000000000000000e+00,0.000000000000000000e+00,-3.426115753764084726e+00,0.000000000000000000e+00,0.000000000000000000e+00,0.000000000000000000e+00
3.333333333333333287e-02,1.639369777026660919e+09,-2.573099529579324401e-05,0.000000000000000000e+00,0.000000000000000000e+00,-3.394066027349079917e+00,6.554416811020512150e-06,9.052993204033313402e-10,1.083349808632718697e-07
5.000000000000000278e-02,1.639369777043615580e+09,-5.798354769857891035e-05,0.000000000000000000e+00,0.000000000000000000e+00,-3.394066027349079917e+00,2.538228703685628090e-05,6.201733203738969727e-09,5.260766642608742679e-07
6.666666666666666574e-02,1.639369777060570002e+09,-1.031767434332470410e-04,0.000000000000000000e+00,0.000000000000000000e+00,-3.394066027349079917e+00,5.413036346579454239e-05,2.237352844810965914e-08,1.412077593446412548e-06
8.333333333333332871e-02,1.639369777076528311e+09,-1.612669257716369193e-04,0.000000000000000000e+00,0.000000000000000000e+00,-3.394066027349079917e+00,8.896668294798774196e-05,5.800124078434503287e-08,2.859227930243305948e-06
1.000000000000000056e-01,1.639369777094479322e+09,-2.321699459471909181e-04,0.000000000000000000e+00,0.000000000000000000e+00,-3.394066027349079917e+00,1.246019007009392427e-04,1.224701983309087082e-07,4.871457317712396143e-06
1.166666666666666685e-01,1.639369777110436440e+09,-3.157650632640398637e-04,0.000000000000000000e+00,0.000000000000000000e+00,-3.394066027349079917e+00,1.543540894588426703e-04,2.243077693649755733e-07,7.342187904325706975e-06
1.333333333333333315e-01,1.639369777128386974e+09,-4.118992299738261369e-04,0.000000000000000000e+00,0.000000000000000000e+00,-3.394066027349079917e+00,1.702564111404418457e-04,3.691793615732807785e-07,1.003492316445809830e-05
1.499999999999999944e-01,1.639369777144345760e+09,-5.203916641662132770e-04,0.000000000000000000e+00,0.000000000000000000e+00,-3.394066027349079917e+00,1.632062052751674652e-04,5.575841748941043096e-07,1.256662177239006617e-05
1.666666666666666574e-01,1.639369777162297487e+09,-6.410386095336579465e-04,0.000000000000000000e+00,0.000000000000000000e+00,-3.394066027349079917e+00,1.231531933766387356e-04,7.823021435500978734e-07,1.439445702667805132e-05
1.833333333333333204e-01,1.639369777178255081e+09,-7.736181780026473494e-04,0.000000000000000000e+00,0.000000000000000000e+00,-3.394066027349079917e+00,3.932368582160518410e-05,1.025652998181521012e-06,1.480650093574004774e-05
2.000000000000000111e-01,1.639369777198201895e+09,-9.178951699133207787e-04,0.000000000000000000e+00,0.000000000000000000e+00,-3.394066027349079917e+00,-9.952308881550196598e-05,1.256636753793575198e-06,1.291679903320296172e-05
2.166666666666666741e-01,1.639369777213161945e+09,-1.073625766698801812e-03,0.000000000000000000e+00,0.000000000000000000e+00,-3.394066027349079917e+00,-3.048111196377810655e-04,1.428031999016376173e-06,7.665218460683810066e-06
2.333333333333333370e-01,1.639369777229119062e+09,-1.240561992866332387e-03,0.000000000000000000e+00,0.000000000000000000e+00,-3.394066027349079917e+00,-5.878414386582611617e-04,1.473533963405837006e-06,-2.177640814676668520e-06
2.500000000000000000e-01,1.639369777247071266e+09,-1.418455847496296555e-03,0.000000000000000000e+00,0.000000000000000000e+00,-3.394066027349079917e+00,-9.594694137553362112e-04,1.305018332488310265e-06,-1.800028207968140768e-05
2.666666666666666630e-01,1.639369777264025688e+09,-1.607063010414450056e-03,0.000000000000000000e+00,0.000000000000000000e+00,-3.394066027349079917e+00,-1.429771749722111036e-03,8.100190516162204348e-07,-4.133481196084450157e-05
2.833333333333333259e-01,1.639369777281977892e+09,-1.806146034599806320e-03,0.000000000000000000e+00,0.000000000000000000e+00,-3.394066027349079917e+00,-2.007709798955984587e-03,-1.504911754327637906e-07,-7.383613171639525317e-05
2.999999999999999889e-01,1.639369777299929380e+09,-2.015476944189604092e-03,0.000000000000000000e+00,0.000000000000000000e+00,-3.426115753764084726e+00,-2.700796036533883223e-03,-1.743930383536728077e-06,-1.172559597838560035e-04
3.166666666666666519e-01,1.639369777317883492e+09,-2.234839166539458188e-03,0.000000000000000000e+00,0.000000000000000000e+00,-3.394066027349079917e+00,-3.514770694078084030e-03,-4.167462810297028089e-06,-1.734119389250637802e-04
3.333333333333333148e-01,1.639369777333838701e+09,-2.464028737080263196e-03,0.000000000000000000e+00,0.000000000000000000e+00,-3.394066027349079917e+00,-4.453295569053252780e-03,-7.648801454913372482e-06,-2.441521930980016485e-04
3.499999999999999778e-01,1.639369777350826979e+09,-2.702854727056849815e-03,0.000000000000000000e+00,0.000000000000000000e+00,-3.394066027349079917e+00,-5.517671928809983820e-03,-1.244638585044437475e-05,-3.313158075159703731e-04
3.666666666666666408e-01,1.639369777366749525e+09,-2.951138856495975123e-03,0.000000000000000000e+00,0.000000000000000000e+00,-3.394066027349079917e+00,-6.706589211462226849e-03,-1.884887191934138092e-05,-4.366898083047771485e-04
3.833333333333333037e-01,1.639369777383705616e+09,-3.208714267778974873e-03,0.000000000000000000e+00,0.000000000000000000e+00,-3.394066027349079917e+00,-8.015910890029865135e-03,-2.717388118870852436e-05,-5.619633138692411035e-04
4.000000000000000222e-01,1.639369777402653933e+09,-3.475423448822917254e-03,0.000000000000000000e+00,0.000000000000000000e+00,-3.394066027349079917e+00,-9.438503415479001027e-03,-3.776596856783468890e-05,-7.086796167480982666e-04
4.166666666666666852e-01,1.639369777420639277e+09,-3.751115308929227864e-03,0.000000000000000000e+00,0.000000000000000000e+00,-3.426115753764084726e+00,-1.096411359342054463e-02,-5.099378117166045697e-05,-8.781870307012815775e-04
4.333333333333333481e-01,1.639369777437606335e+09,-4.035641424659832874e-03,0.000000000000000000e+00,0.000000000000000000e+00,-3.394066027349079917e+00,-1.257929908507907091e-02,-6.724639511881699112e-05,-1.071589401505443004e-03
4.500000000000000111e-01,1.639369777453552723e+09,-4.328851487461654254e-03,0.000000000000000000e+00,0.000000000000000000e+00,-3.394066027349079917e+00,-1.426741596416379945e-02,-8.692883262641274116e-05,-1.289697230067243924e-03
4.666666666666666741e-01,1.639369777469475508e+09,-4.630587998991941498e-03,0.000000000000000000e+00,0.000000000000000000e+00,-3.394066027349079917e+00,-1.600866641745262581e-02,-1.104567778293701009e-04,-1.532980391821830383e-03
4.833333333333333370e-01,1.639369777488459110e+09,-4.940680274009745694e-03,0.000000000000000000e+00,0.000000000000000000e+00,-3.394066027349079917e+00,-1.778020875964936992e-02,-1.382505263154638669e-04,-1.801523455996559275e-03
5.000000000000000000e-01,1.639369777504417419e+09,-5.258937824104863330e-03,0.000000000000000000e+00,0.000000000000000000e+00,-3.394066027349079917e+00,-1.955633095507649730e-02,-1.707282201196502454e-04,-2.094984611443647705e-03
5.166666666666666075e-01,1.639369777521336317e+09,-5.585143208249859943e-03,0.000000000000000000e+00,0.000000000000000000e+00,-3.394066027349079917e+00,-2.130868781381353369e-02,-2.082984365837734636e-04,-2.412559191876416549e-03
5.333333333333333259e-01,1.639369777541282892e+09,-5.919044448005726308e-03,0.000000000000000000e+00,0.000000000000000000e+00,-3.394066027349079917e+00,-2.300660097269767099e-02,-2.513522157749810415e-04,-2.752948762230170328e-03
5.500000000000000444e-01,1.639369777556242466e+09,-6.260347116015798838e-03,0.000000000000000000e+00,0.000000000000000000e+00,-3.394066027349079917e+00,-2.461741969761430809e-02,-3.002546267808202949e-04,-3.114336679517902984e-03
5.666666666666666519e-01,1.639369777574194670e+09,-6.608706216026469064e-03,0.000000000000000000e+00,0.000000000000000000e+00,-3.394066027349079917e+00,-2.610693946867604504e-02,-3.553359878760036276e-04,-3.494370976233986993e-03
5.833333333333333703e-01,1.639369777592163324e+09,-6.963717980928388340e-03,0.000000000000000000e+00,0.000000000000000000e+00,-3.394066027349079917e+00,-2.743987425048068085e-02,-4.168828690069253766e-04,-3.890155332611076443e-03
5.999999999999999778e-01,1.639369777608105659e+09,-7.324911722083805865e-03,0.000000000000000000e+00,0.000000000000000000e+00,-3.394066027349079917e+00,-2.858037732197676525e-02,-4.851290169979906850e-04,-4.298248806652957277e-03
6.166666666666666963e-01,1.639369777625060558e+09,-7.691741868377056229e-03,0.000000000000000000e+00,0.000000000000000000e+00,-3.394066027349079917e+00,-2.949260456072227629e-02,-5.602463540968831380e-04,-4.714674878899436164e-03
6.333333333333333037e-01,1.639369777644009590e+09,-8.063580336893595366e-03,0.000000000000000000e+00,0.000000000000000000e+00,-3.394066027349079917e+00,-3.014131316027940030e-02,-6.423362087117913096e-04,-5.134940243622518156e-03
6.500000000000000222e-01,1.639369777663954735e+09,-8.439709378817075031e-03,0.000000000000000000e+00,0.000000000000000000e+00,-3.394066027349079917e+00,-3.049248792231269364e-02,-7.314209432435664652e-04,-5.554063641129288256e-03
6.666666666666666297e-01,1.639369777678915977e+09,-8.819315043970476012e-03,0.000000000000000000e+00,0.000000000000000000e+00,-3.394066027349079917e+00,-3.051398652097701489e-02,-8.274361475981683580e-04,-5.966614878790969974e-03
6.833333333333333481e-01,1.639369777696876287e+09,-9.201481405375270747e-03,0.000000000000000000e+00,0.000000000000000000e+00,-3.394066027349079917e+00,-3.017619449967067977e-02,-9.302235681284699289e-04,-6.366764033255179443e-03
6.999999999999999556e-01,1.639369777710863113e+09,-9.585185681241321573e-03,0.000000000000000000e+00,0.000000000000000000e+00,-3.426115753764084726e+00,-2.945268024121446698e-02,-1.039524940281906810e-03,-6.748340665121983772e-03
7.166666666666666741e-01,1.639369777727819920e+09,-9.969294385932513450e-03,0.000000000000000000e+00,0.000000000000000000e+00,-3.394066027349079917e+00,-2.832083976257127045e-02,-1.154976889040001823e-03,-7.104902712406743585e-03
7.333333333333332815e-01,1.639369777744776487e+09,-1.035256063370340943e-02,0.000000000000000000e+00,0.000000000000000000e+00,-3.394066027349079917e+00,-2.676252093332106077e-02,-1.276107054284038702e-03,-7.429814562718057777e-03
7.500000000000000000e-01,1.639369777763689756e+09,-1.073362270941788550e-02,0.000000000000000000e+00,0.000000000000000000e+00,-3.394066027349079917e+00,-2.476461661044907295e-02,-1.402331588504405731e-03,-7.716333638671841674e-03
7.666666666666666075e-01,1.639369777778682470e+09,-1.111100400911098178e-02,0.000000000000000000e+00,0.000000000000000000e+00,-3.394066027349079917e+00,-2.231961622590472247e-02,-1.532954161826502286e-03,-7.957704669114823784e-03
7.833333333333333259e-01,1.639369777795636177e+09,-1.148311444023239480e-02,0.000000000000000000e+00,0.000000000000000000e+00,-3.394066027349079917e+00,-1.942610556115960743e-02,-1.667166594232026957e-03,-8.147260662728625369e-03
8.000000000000000444e-01,1.639369777812557697e+09,-1.184825335682609081e-02,0.000000000000000000e+00,0.000000000000000000e+00,-3.394066027349079917e+00,-1.608920479585939853e-02,-1.804051217230640035e-03,-8.278529452994336235e-03
8.166666666666666519e-01,1.639369777829545736e+09,-1.220461408888904968e-02,0.000000000000000000e+00,0.000000000000000000e+00,-3.394066027349079917e+00,-1.232093542473720188e-02,-1.942585047243740315e-03,-8.345344546726855828e-03
8.333333333333333703e-01,1.639369777847499609e+09,-1.255029010786508532e-02,0.000000000000000000e+00,0.000000000000000000e+00,-3.394066027349079917e+00,-8.140507295160493220e-03,-2.081645830799127000e-03,-8.341958884757477363e-03
8.499999999999999778e-01,1.639369777863450527e+09,-1.288328285183712105e-02,0.000000000000000000e+00,0.000000000000000000e+00,-3.394066027349079917e+00,-3.574517821816305691e-03,-2.220019997539989139e-03,-8.263160015046887644e-03
8.666666666666666963e-01,1.639369777880410194e+09,-1.320151121466965963e-02,0.000000000000000000e+00,0.000000000000000000e+00,-3.394066027349079917e+00,1.342943622253527222e-03,-2.356412531296551028e-03,-8.104385087586100239e-03
8.833333333333333037e-01,1.639369777897365093e+09,-1.350282268332211183e-02,0.000000000000000000e+00,0.000000000000000000e+00,-3.394066027349079917e+00,6.570292067174739875e-03,-2.489458742358795912e-03,-7.861834008737609431e-03
9.000000000000000222e-01,1.639369777914318085e+09,-1.378500608701743908e-02,0.000000000000000000e+00,0.000000000000000000e+00,-3.426115753764084726e+00,1.205854879956235262e-02,-2.617737895957909615e-03,-7.532579041812456459e-03
9.166666666666666297e-01,1.639369777931239128e+09,-1.404580590113085198e-02,0.000000000000000000e+00,0.000000000000000000e+00,-3.394066027349079917e+00,1.775155215268021253e-02,-2.739788623171480943e-03,-7.114669112054215414e-03
9.333333333333333481e-01,1.639369777949225426e+09,-1.428293802779269546e-02,0.000000000000000000e+00,0.000000000000000000e+00,-3.394066027349079917e+00,2.358627929469264695e-02,-2.854126011392889035e-03,-6.607227068921263033e-03
9.499999999999999556e-01,1.639369777968143225e+09,-1.449410695451368997e-02,0.000000000000000000e+00,0.000000000000000000e+00,-3.394066027349079917e+00,2.949327961942512996e-02,-2.959260242544669260e-03,-6.010538177445731017e-03
9.666666666666666741e-01,1.639369777983103037e+09,-1.467702417188036269e-02,0.000000000000000000e+00,0.000000000000000000e+00,-3.426115753764084726e+00,3.539721883202222308e-02,-3.053716618776005851e-03,-5.326128154014024042e-03
9.833333333333332815e-01,1.639369778002052069e+09,-1.482942771177308411e-02,0.000000000000000000e+00,0.000000000000000000e+00,-3.394066027349079917e+00,4.121753127370803016e-02,-3.136056787878803778e-03,-4.556829130349425785e-03
1.000000000000000000e+00,1.639369778019005537e+09,-1.494910264886796514e-02,0.000000000000000000e+00,0.000000000000000000e+00,-3.394066027349079917e+00,4.686917646544908750e-02,-3.204900954498307326e-03,-3.706832022639104315e-03
1.016666666666666607e+00,1.639369778035959005e+09,-1.503390239063026601e-02,0.000000000000000000e+00,0.000000000000000000e+00,-3.394066027349079917e+00,5.226349429032181582e-02,-3.258950838811032393e-03,-2.781723900154349331e-03
1.033333333333333215e+00,1.639369778051917553e+09,-1.508177056481680225e-02,0.000000000000000000e+00,0.000000000000000000e+00,-3.394066027349079917e+00,5.730915169980767276e-02,-3.297013122092122116e-03,-1.788509088543131786e-03
1.050000000000000044e+00,1.639369778072895288e+09,-1.509076329889560628e-02,0.000000000000000000e+00,0.000000000000000000e+00,-3.394066027349079917e+00,6.191317234128070751e-02,-3.318023098876782869e-03,-7.356129060704591840e-04
1.066666666666666652e+00,1.639369778086858034e+09,-1.505907167296634611e-02,0.000000000000000000e+00,0.000000000000000000e+00,-3.394066027349079917e+00,6.598203908363452219e-02,-3.321068238594952760e-03,3.671328850416192505e-04
1.083333333333333259e+00,1.639369778104809999e+09,-1.498504411691448622e-02,0.000000000000000000e+00,0.000000000000000000e+00,-3.394066027349079917e+00,6.942285808597950525e-02,-3.305411345956021495e-03,1.508523627169012582e-03
1.100000000000000089e+00,1.639369778121730804e+09,-1.486720851382703802e-02,0.000000000000000000e+00,0.000000000000000000e+00,-3.394066027349079917e+00,7.214457183057673695e-02,-3.270512999279996582e-03,2.676034811002600024e-03
1.116666666666666696e+00,1.639369778139682293e+09,-1.470429376529374874e-02,0.000000000000000000e+00,0.000000000000000000e+00,-3.394066027349079917e+00,7.405920744465001315e-02,-3.216052939674313681e-03,3.855894875474417255e-03
1.133333333333333304e+00,1.639369778157634020e+09,-1.449525057024322709e-02,0.000000000000000000e+00,0.000000000000000000e+00,-3.394066027349079917e+00,7.508314568422917723e-02,-3.141950081661021819e-03,5.033177778864944552e-03
1.149999999999999911e+00,1.639369778173591852e+09,-1.423927116753008308e-02,0.000000000000000000e+00,0.000000000000000000e+00,-3.394066027349079917e+00,7.513839516300147015e-02,-3.048380817741025341e-03,6.191915100994972027e-03
1.166666666666666741e+00,1.639369778190546274e+09,-1.393580779368073716e-02,0.000000000000000000e+00,0.000000000000000000e+00,-3.394066027349079917e+00,7.415385579488108225e-02,-2.935795295564752085e-03,7.315227175400050054e-03
1.183333333333333348e+00,1.639369778209494829e+09,-1.358458961107843546e-02,0.000000000000000000e+00,0.000000000000000000e+00,-3.394066027349079917e+00,7.206655499327978276e-02,-2.804931356934165041e-03,8.385472486657458840e-03
1.199999999999999956e+00,1.639369778227447987e+09,-1.318563786845662958e-02,0.000000000000000000e+00,0.000000000000000000e+00,-3.394066027349079917e+00,6.882283994338064814e-02,-2.656825842806912613e-03,9.384414304919883390e-03
1.216666666666666563e+00,1.639369778241411209e+09,-1.273927906487498304e-02,0.000000000000000000e+00,0.000000000000000000e+00,-3.394066027349079917e+00,6.437950924425746291e-02,-2.492822987770924956e-03,1.029340327062151957e-02
1.233333333333333393e+00,1.639369778258364439e+09,-1.224615590035000971e-02,0.000000000000000000e+00,0.000000000000000000e+00,-3.394066027349079917e+00,5.870486741116399260e-02,-2.314579651010881690e-03,1.109357439071420939e-02
1.250000000000000000e+00,1.639369778279309750e+09,-1.170723581094914451e-02,0.000000000000000000e+00,0.000000000000000000e+00,-3.394066027349079917e+00,5.177968613784941082e-02,-2.124067158443266202e-03,1.176605666711075075e-02
1.266666666666666607e+00,1.639369778292273283e+09,-1.112381690334922346e-02,0.000000000000000000e+00,0.000000000000000000e+00,-3.394066027349079917e+00,4.359805684478403054e-02,-1.923569562243629015e-03,1.229219335165751374e-02
1.283333333333333215e+00,1.639369778312220812e+09,-1.049753112349894810e-02,0.000000000000000000e+00,0.000000000000000000e+00,-3.394066027349079917e+00,3.416811987938707385e-02,-1.715678159161869876e-03,1.265377061323220628e-02
1.300000000000000044e+00,1.639369778327180147e+09,-9.830344515967974484e-03,0.000000000000000000e+00,0.000000000000000000e+00,-3.394066027349079917e+00,2.351265678366064316e-02,-1.503282147498535403e-03,1.283325221462988316e-02
1.316666666666666652e+00,1.639369778344170332e+09,-9.124554454651835275e-03,0.000000000000000000e+00,0.000000000000000000e+00,-3.394066027349079917e+00,1.166953329521174844e-02,-1.289555344025849646e-03,1.281401763274405900e-02
1.333333333333333259e+00,1.639369778361088991e+09,-8.382783751534641364e-03,0.000000000000000000e+00,0.000000000000000000e+00,-3.394066027349079917e+00,-1.308017811069130771e-03,-1.077938926062103810e-03,1.258060091792916058e-02
1.350000000000000089e+00,1.639369778379041910e+09,-7.607971577980101978e-03,0.000000000000000000e+00,0.000000000000000000e+00,-3.394066027349079917e+00,-1.535128331462016181e-02,-8.721202098840231303e-04,1.211892747984074335e-02
1.366666666666666696e+00,1.639369778397026300e+09,-6.803361162285049071e-03,0.000000000000000000e+00,0.000000000000000000e+00,-3.394066027349079917e+00,-3.037613306747796380e-02,-6.760075241866174596e-04,1.141654590968537233e-02
1.383333333333333304e+00,1.639369778413947821e+09,-5.972484257727670928e-03,0.000000000000000000e+00,0.000000000000000000e+00,-3.394066027349079917e+00,-4.628326600832875087e-02,-4.937012858378547232e-04,1.046285190453113099e-02
1.399999999999999911e+00,1.639369778428909540e+09,-5.119142406803070533e-03,0.000000000000000000e+00,0.000000000000000000e+00,-3.394066027349079917e+00,-6.295864219386901328e-02,-3.294614341624174658e-04,9.249301349624544297e-03
1.416666666666666741e+00,1.639369778445863247e+09,-4.247385059463504656e-03,0.000000000000000000e+00,0.000000000000000000e+00,-3.394066027349079917e+00,-8.027410222033443121e-02,-1.876714288393573212e-04,7.769609640629244335e-03
1.433333333333333348e+00,1.639369778462844372e+09,-3.361484635665626126e-03,0.000000000000000000e+00,0.000000000000000000e+00,-3.394066027349079917e+00,-9.808817318242457617e-02,-7.279906461237433497e-05,6.019934390028519253e-03
1.449999999999999956e+00,1.639369778480770111e+09,-2.465908655056747289e-03,0.000000000000000000e+00,0.000000000000000000e+00,-3.426115753764084726e+00,-1.162470580397815256e-01,1.064559721932181106e-05,3.999038760867131351e-03
1.466666666666666563e+00,1.639369778497756958e+09,-1.565289088881013533e-03,0.000000000000000000e+00,0.000000000000000000e+00,-3.394066027349079917e+00,-1.345858029594486360e-01,5.815483574552012447e-05,1.708432806350122703e-03
1.483333333333333393e+00,1.639369778513680935e+09,-6.643891208254237065e-04,0.000000000000000000e+00,0.000000000000000000e+00,-3.394066027349079917e+00,-1.529296349040284442e-01,6.527002877925682683e-05,-8.475096350840879457e-04
1.500000000000000000e+00,1.639369778530670404e+09,2.319324657698447999e-04,0.000000000000000000e+00,0.000000000000000000e+00,-3.394066027349079917e+00,-1.710954594677910889e-01,2.763013641480583423e-05,-3.661460733849487750e-03
1.516666666666666607e+00,1.639369778547590017e+09,1.118759027476388989e-03,0.000000000000000000e+00,0.000000000000000000e+00,-3.394066027349079917e+00,-1.888935067552745262e-01,-5.897855177128659638e-05,-6.723077158251303601e-03
1.533333333333333215e+00,1.639369778565543175e+09,1.991155652404432656e-03,0.000000000000000000e+00,0.000000000000000000e+00,-3.394066027349079917e+00,-2.061291109773350783e-01,-1.985718986311001762e-04,-1.001896899434707479e-02
1.550000000000000044e+00,1.639369778583494425e+09,2.844210303226572117e-03,0.000000000000000000e+00,0.000000000000000000e+00,-3.394066027349079917e+00,-2.226046074360737703e-01,-3.949171496592324354e-04,-1.353270053392017190e-02
1.566666666666666652e+00,1.639369778603441477e+09,3.673076187179342717e-03,0.000000000000000000e+00,0.000000000000000000e+00,-3.394066027349079917e+00,-2.381213287097325437e-01,-6.514824519448009135e-04,-1.724482404346347822e-02
1.583333333333333259e+00,1.639369778618401051e+09,4.473015007356384055e-03,0.000000000000000000e+00,0.000000000000000000e+00,-3.394066027349079917e+00,-2.524816801574744085e-01,-9.713872179454075863e-04,-2.113294728008744544e-02
1.600000000000000089e+00,1.639369778635356665e+09,5.239440731090012904e-03,0.000000000000000000e+00,0.000000000000000000e+00,-3.394066027349079917e+00,-2.654912733664223090e-01,-1.357353899873675086e-03,-2.517183515426621443e-02
1.616666666666666696e+00,1.639369778651346922e+09,5.967963495698941703e-03,0.000000000000000000e+00,0.000000000000000000e+00,-3.394066027349079917e+00,-2.769610948821106255e-01,-1.811661743967309200e-03,-2.933354555820775686e-02
1.633333333333333304e+00,1.639369778668268919e+09,6.654433259580115612e-03,0.000000000000000000e+00,0.000000000000000000e+00,-3.394066027349079917e+00,-2.867096865191007815e-01,-2.336103090950237323e-03,-3.358759898654317677e-02
1.649999999999999911e+00,1.639369778686253786e+09,7.294982797735401377e-03,0.000000000000000000e+00,0.000000000000000000e+00,-3.394066027349079917e+00,-2.945653127590916465e-01,-2.931942779439249136e-03,-3.790118117737235892e-02
1.666666666666666741e+00,1.639369778701179266e+09,7.886069635514709325e-03,0.000000000000000000e+00,0.000000000000000000e+00,-3.394066027349079917e+00,-3.003680902247767848e-01,-3.599881192836509435e-03,-4.223937760105471451e-02
1.683333333333333348e+00,1.639369778719131947e+09,8.424516512763163475e-03,0.000000000000000000e+00,0.000000000000000000e+00,-3.394066027349079917e+00,-3.039720539815208844e-01,-4.340021467379490475e-03,-4.656543822620375084e-02
1.699999999999999956e+00,1.639369778736085892e+09,8.907549972774573416e-03,0.000000000000000000e+00,0.000000000000000000e+00,-3.394066027349079917e+00,-3.052471354749602961e-01,-5.151841349581599665e-03,-5.084107060191764282e-02
1.716666666666666563e+00,1.639369778754037857e+09,9.332836676551718030e-03,0.000000000000000000e+00,0.000000000000000000e+00,-3.394066027349079917e+00,-3.040810272669642877e-01,-6.034170155454246856e-03,-5.502675891716106438e-02
1.733333333333333393e+00,1.639369778768997669e+09,9.698517052878084105e-03,0.000000000000000000e+00,0.000000000000000000e+00,-3.394066027349079917e+00,-3.003809103876003417e-01,-6.985171241899348731e-03,-5.908210633717596999e-02
1.750000000000000000e+00,1.639369778785953045e+09,1.000323590861030253e-02,0.000000000000000000e+00,0.000000000000000000e+00,-3.394066027349079917e+00,-2.940750210759118799e-01,-8.002330352824023676e-03,-6.296619757751649449e-02
1.766666666666666607e+00,1.639369778803904295e+09,1.024616964136445402e-02,0.000000000000000000e+00,0.000000000000000000e+00,-3.394066027349079917e+00,-2.851140349328858958e-01,-9.082450149256860936e-03,-6.663797836329841962e-02
1.783333333333333215e+00,1.639369778820895195e+09,1.042704971830167755e-02,0.000000000000000000e+00,0.000000000000000000e+00,-3.394066027349079917e+00,-2.734722480477931872e-01,-1.022165117451166554e-02,-7.005664813884016073e-02
1.800000000000000044e+00,1.639369778837848186e+09,1.054618210990577142e-02,0.000000000000000000e+00,0.000000000000000000e+00,-3.394066027349079917e+00,-2.591485364724078200e-01,-1.141537944279370602e-02,-7.318206214509824503e-02
1.816666666666666652e+00,1.639369778854803562e+09,1.060446239632441973e-02,0.000000000000000000e+00,0.000000000000000000e+00,-3.394066027349079917e+00,-2.421670774911347246e-01,-1.265842077318359363e-02,-7.597513877289394091e-02
1.833333333333333259e+00,1.639369778870761395e+09,1.060338629582356640e-02,0.000000000000000000e+00,0.000000000000000000e+00,-3.394066027349079917e+00,-2.225778184501869816e-01,-1.394492192133270012e-02,-7.839826793224795309e-02
1.849999999999999867e+00,1.639369778887714863e+09,1.054505539994986772e-02,0.000000000000000000e+00,0.000000000000000000e+00,-3.394066027349079917e+00,-2.004566814436596345e-01,-1.526841848918132800e-02,-8.041571605512698451e-02
1.866666666666666696e+00,1.639369778904672861e+09,1.043217793784726073e-02,0.000000000000000000e+00,0.000000000000000000e+00,-3.394066027349079917e+00,-1.759054948837716348e-01,-1.662186951933190479e-02,-8.199402327303927096e-02
1.883333333333333304e+00,1.639369778922621489e+09,1.026806443253004686e-02,0.000000000000000000e+00,0.000000000000000000e+00,-3.394066027349079917e+00,-1.490516458788165854e-01,-1.799769860617669165e-02,-8.310238828417476631e-02
1.899999999999999911e+00,1.639369778938582420e+09,1.005661815445871646e-02,0.000000000000000000e+00,0.000000000000000000e+00,-3.394066027349079917e+00,-1.200474503752252953e-01,-1.938784128132347434e-02,-8.371303644861506632e-02
1.916666666666666741e+00,1.639369778956497192e+09,9.802320322134310329e-03,0.000000000000000000e+00,0.000000000000000000e+00,-3.394066027349079917e+00,-8.906924115705715239e-02,-2.078379835713398127e-02,-8.380156672542217466e-02
1.933333333333333348e+00,1.639369778971489906e+09,9.510210045256109468e-03,0.000000000000000000e+00,0.000000000000000000e+00,-3.394066027349079917e+00,-5.631617700274119814e-02,-2.217669484014810413e-02,-8.334727319245373300e-02
1.949999999999999956e+00,1.639369778990440369e+09,9.185859052866793620e-03,0.000000000000000000e+00,0.000000000000000000e+00,-3.394066027349079917e+00,-2.200877953911608773e-02,-2.355734395667279102e-02,-8.233343706824763908e-02
1.966666666666666563e+00,1.639369779006398678e+09,8.835341296438654901e-03,0.000000000000000000e+00,0.000000000000000000e+00,-3.394066027349079917e+00,1.361279243034509492e-02,-2.491631576671749990e-02,-8.074758538436384303e-02
1.983333333333333393e+00,1.639369779023317814e+09,8.465197565589372905e-03,0.000000000000000000e+00,0.000000000000000000e+00,-3.394066027349079917e+00,5.029071815045582650e-02,-2.624400978058832878e-02,-7.858171273465208717e-02
2.000000000000000000e+00,1.639369779042309999e+09,8.082395301629937204e-03,0.000000000000000000e+00,0.000000000000000000e+00,-3.394066027349079917e+00,8.775172360308873543e-02,-2.753073093560996776e-02,-7.583246285291229960e-02
2.016666666666666607e+00,1.639369779058258295e+09,7.694283840989027227e-03,0.000000000000000000e+00,0.000000000000000000e+00,-3.426115753764084726e+00,1.257095045708080394e-01,-2.876676823938763977e-02,-7.250126713962115610e-02
2.033333333333333215e+00,1.639369779075180054e+09,7.308545366281900268e-03,0.000000000000000000e+00,0.000000000000000000e+00,-3.394066027349079917e+00,1.638673421408594622e-01,-2.994247534145971085e-02,-6.859443766853476343e-02
2.049999999999999822e+00,1.639369779091170311e+09,6.933141886953909927e-03,0.000000000000000000e+00,0.000000000000000000e+00,-3.394066027349079917e+00,2.019208860598428190e-01,-3.104835225777590607e-02,-6.412321265122118696e-02
2.066666666666666430e+00,1.639369779109124899e+09,6.576258613589039577e-03,0.000000000000000000e+00,0.000000000000000000e+00,-3.394066027349079917e+00,2.395610789192026135e-01,-3.207512744274817335e-02,-5.910375281759554233e-02
2.083333333333333481e+00,1.639369779126077414e+09,6.246244129706408563e-03,0.000000000000000000e+00,0.000000000000000000e+00,-3.394066027349079917e+00,2.764771919791711441e-01,-3.301383938216754382e-02,-5.355708767852331714e-02
2.100000000000000089e+00,1.639369779141036987e+09,5.951547801757585410e-03,0.000000000000000000e+00,0.000000000000000000e+00,-3.394066027349079917e+00,3.123599415543415470e-01,-3.385591686748323087e-02,-4.750901116730193996e-02
2.116666666666666696e+00,1.639369779159986734e+09,5.700654901692490950e-03,0.000000000000000000e+00,0.000000000000000000e+00,-3.394066027349079917e+00,3.469046533151838863e-01,-3.459325710813222071e-02,-4.098992670473321914e-02
2.133333333333333304e+00,1.639369779176943064e+09,5.502019946510814524e-03,0.000000000000000000e+00,0.000000000000000000e+00,-3.394066027349079917e+00,3.798144406310978161e-01,-3.521830084402542693e-02,-3.403464229165505117e-02
2.149999999999999911e+00,1.639369779193896294e+09,5.363998785311595296e-03,0.000000000000000000e+00,0.000000000000000000e+00,-3.394066027349079917e+00,4.108033622128586249e-01,-3.572410363507616538e-02,-2.668211679705666944e-02
2.166666666666666519e+00,1.639369779209854603e+09,5.294779986190470758e-03,0.000000000000000000e+00,0.000000000000000000e+00,-3.394066027349079917e+00,4.395995238229488122e-01,-3.610440252883023726e-02,-1.897515917292012105e-02
2.183333333333333126e+00,1.639369779226773977e+09,5.302316092620021522e-03,0.000000000000000000e+00,0.000000000000000000e+00,-3.394066027349079917e+00,4.659480887242798408e-01,-3.635367734074994306e-02,-1.096008288226241537e-02
2.200000000000000178e+00,1.639369779243763685e+09,5.394255331456131348e-03,0.000000000000000000e+00,0.000000000000000000e+00,-3.394066027349079917e+00,4.896141618401966822e-01,-3.646720582433445740e-02,-2.686318368007959215e-03
2.216666666666666785e+00,1.639369779260716915e+09,5.577874362225394671e-03,0.000000000000000000e+00,0.000000000000000000e+00,-3.394066027349079917e+00,5.103855133057891846e-01,-3.644111205973574186e-02,5.794013089156476240e-03
2.233333333333333393e+00,1.639369779277671814e+09,5.860012659716810207e-03,0.000000000000000000e+00,0.000000000000000000e+00,-3.394066027349079917e+00,5.280751082023277254e-01,-3.627240744945621487e-02,1.442656028224907801e-02
2.250000000000000000e+00,1.639369779294625998e+09,6.247009119003307624e-03,0.000000000000000000e+00,0.000000000000000000e+00,-3.394066027349079917e+00,5.425234107781938819e-01,-3.595902377758978391e-02,2.315523345668587391e-02
2.266666666666666607e+00,1.639369779312578201e+09,6.744641463790195489e-03,0.000000000000000000e+00,0.000000000000000000e+00,-3.394066027349079917e+00,5.536004333615869299e-01,-3.549983786429061067e-02,3.192272143274648560e-02
2.283333333333333215e+00,1.639369779329533339e+09,7.358069025404439904e-03,0.000000000000000000e+00,0.000000000000000000e+00,-3.394066027349079917e+00,5.612075024482749974e-01,-3.489468742902644693e-02,4.067102937162023202e-02
2.299999999999999822e+00,1.639369779347486258e+09,8.091779440835170784e-03,0.000000000000000000e+00,0.000000000000000000e+00,-3.394066027349079917e+00,5.652787170830583241e-01,-3.414437786390861485e-02,4.934203175788670626e-02
2.316666666666666430e+00,1.639369779363447666e+09,8.949539794081142266e-03,0.000000000000000000e+00,0.000000000000000000e+00,-3.394066027349079917e+00,5.657820776230858550e-01,-3.325067971112023041e-02,5.787803489881641894e-02
2.333333333333333481e+00,1.639369779378368139e+09,9.934352695790798701e-03,0.000000000000000000e+00,0.000000000000000000e+00,-3.394066027349079917e+00,5.627202662473577144e-01,-3.221631673524436718e-02,6.622234302706317410e-02
2.350000000000000089e+00,1.639369779395358086e+09,1.104841776196637849e-02,0.000000000000000000e+00,0.000000000000000000e+00,-3.394066027349079917e+00,5.561310641280321487e-01,-3.104494458111784275e-02,7.431982194173718248e-02
2.366666666666666696e+00,1.639369779414271116e+09,1.229309891357312570e-02,0.000000000000000000e+00,0.000000000000000000e+00,-3.394066027349079917e+00,5.460873939703511093e-01,-2.974112010964186786e-02,8.211745403643372354e-02
2.383333333333333304e+00,1.639369779431226492e+09,1.366889787551760910e-02,0.000000000000000000e+00,0.000000000000000000e+00,-3.394066027349079917e+00,5.326969806204389091e-01,-2.831026160666332003e-02,8.956487854379582836e-02
2.399999999999999911e+00,1.639369779448221922e+09,1.517543420595341905e-02,0.000000000000000000e+00,0.000000000000000000e+00,-3.394066027349079917e+00,5.161016265922176993e-01,-2.675860016246339040e-02,9.661491087613285900e-02
2.416666666666666519e+00,1.639369779464174509e+09,1.681143213560177055e-02,0.000000000000000000e+00,0.000000000000000000e+00,-3.394066027349079917e+00,4.964761036320794463e-01,-2.509312262039850930e-02,1.032240350612693008e-01
2.433333333333333126e+00,1.639369779482124329e+09,1.857471444213260048e-02,0.000000000000000000e+00,0.000000000000000000e+00,-3.394066027349079917e+00,4.740266657762194913e-01,-2.332150659166984039e-02,1.093528634621442897e-01
2.450000000000000178e+00,1.639369779499085188e+09,2.046220352708257029e-02,0.000000000000000000e+00,0.000000000000000000e+00,-3.394066027349079917e+00,4.489891937127760690e-01,-2.145204812789780480e-02,1.149665582269185221e-01
2.466666666666666785e+00,1.639369779517033100e+09,2.246992980276170393e-02,0.000000000000000000e+00,0.000000000000000000e+00,-3.394066027349079917e+00,4.216269845900214031e-01,-1.949358273301183761e-02,1.200352092418662531e-01
2.483333333333333393e+00,1.639369779535983086e+09,2.459304743461733153e-02,0.000000000000000000e+00,0.000000000000000000e+00,-3.394066027349079917e+00,3.922282056629523561e-01,-1.745540047983192011e-02,1.245341637497355408e-01
2.500000000000000000e+00,1.639369779551904917e+09,2.682585742111583127e-02,0.000000000000000000e+00,0.000000000000000000e+00,-3.394066027349079917e+00,3.611030342942076476e-01,-1.534715607356234093e-02,1.284443032483694180e-01
2.516666666666666607e+00,1.639369779567860603e+09,2.916183792891973575e-02,0.000000000000000000e+00,0.000000000000000000e+00,-3.394066027349079917e+00,3.285805107720085605e-01,-1.317877477324415000e-02,1.317522637942513675e-01
2.533333333333333215e+00,1.639369779586845636e+09,3.159368173653646916e-02,0.000000000000000000e+00,0.000000000000000000e+00,-3.394066027349079917e+00,2.950051341297487140e-01,-1.096035514209740824e-02,1.344505963986004360e-01
2.549999999999999822e+00,1.639369779603798389e+09,3.411334057529457481e-02,0.000000000000000000e+00,0.000000000000000000e+00,-3.394066027349079917e+00,2.607332346026201564e-01,-8.702069647787262843e-03,1.365378648143339702e-01
2.566666666666666430e+00,1.639369779620754004e+09,3.671207609302104546e-02,0.000000000000000000e+00,0.000000000000000000e+00,-3.394066027349079917e+00,2.261291594920690207e-01,-6.414064173223999951e-03,1.380186786646385166e-01
2.583333333333333481e+00,1.639369779637708664e+09,3.938051710376162806e-02,0.000000000000000000e+00,0.000000000000000000e+00,-3.394066027349079917e+00,1.915613119877364046e-01,-4.106357526915873496e-03,1.389036605514593348e-01
2.600000000000000089e+00,1.639369779654628754e+09,4.210872272687235518e-02,0.000000000000000000e+00,0.000000000000000000e+00,-3.394066027349079917e+00,1.573980848805886790e-01,-1.788742058608360636e-03,1.392093464978282902e-01
2.616666666666666696e+00,1.639369779669628143e+09,4.488625096139374493e-02,0.000000000000000000e+00,0.000000000000000000e+00,-3.394066027349079917e+00,1.240037330561891832e-01,5.293135094397221838e-04,1.389580198140500378e-01
2.633333333333333304e+00,1.639369779688572407e+09,4.770223218735994419e-02,0.000000000000000000e+00,0.000000000000000000e+00,-3.394066027349079917e+00,9.173423015333520558e-02,2.838757932949307131e-03,1.381774792264293672e-01
2.649999999999999911e+00,1.639369779705526590e+09,5.054544703512409143e-02,0.000000000000000000e+00,0.000000000000000000e+00,-3.394066027349079917e+00,6.093315578532874227e-02,5.131046895560086377e-03,1.369007428602407317e-01
2.666666666666666519e+00,1.639369779722447634e+09,5.340440801743040478e-02,0.000000000000000000e+00,0.000000000000000000e+00,-3.394066027349079917e+00,3.192766022857902730e-02,7.398227008679135810e-03,1.351656904175979890e-01
2.683333333333333126e+00,1.639369779739435911e+09,5.626744427729130776e-02,0.000000000000000000e+00,0.000000000000000000e+00,-3.394066027349079917e+00,5.024553471168107313e-03,9.633013356867382165e-03,1.330146466272625339e-01
2.700000000000000178e+00,1.639369779755392790e+09,5.912278876820981771e-02,0.000000000000000000e+00,0.000000000000000000e+00,-3.394066027349079917e+00,-1.949343502702247100e-02,1.182885964165319471e-02,1.304939097586930163e-01
2.716666666666666785e+00,1.639369779773345470e+09,6.195866715230834848e-02,0.000000000000000000e+00,0.000000000000000000e+00,-3.394066027349079917e+00,-4.137118058453323477e-02,1.398002004559747644e-02,1.276532296783398357e-01
2.733333333333333393e+00,1.639369779789302111e+09,6.476338767686980191e-02,0.000000000000000000e+00,0.000000000000000000e+00,-3.394066027349079917e+00,-6.038442788444043502e-02,1.608160201848186227e-02,1.245452405740481161e-01
2.750000000000000000e+00,1.639369779807254553e+09,6.752543127097043740e-02,0.000000000000000000e+00,0.000000000000000000e+00,-3.394066027349079917e+00,-7.634275434729138887e-02,1.812960927795347413e-02,1.212248540754549825e-01
2.766666666666666607e+00,1.639369779824208975e+09,7.023354109155072189e-02,0.000000000000000000e+00,0.000000000000000000e+00,-3.394066027349079917e+00,-8.909219337445309361e-02,2.012097441700846229e-02,1.177486190468257782e-01
2.783333333333333215e+00,1.639369779841130495e+09,7.287681074265475734e-02,0.000000000000000000e+00,0.000000000000000000e+00,-3.394066027349079917e+00,-9.851748166511192784e-02,2.205358061938133760e-02,1.141740548167010372e-01
2.799999999999999822e+00,1.639369779858120203e+09,7.544477039280131359e-02,0.000000000000000000e+00,0.000000000000000000e+00,-3.394066027349079917e+00,-1.045438983904973945e-01,2.392627210016208539e-02,1.105589650294119958e-01
2.816666666666666430e+00,1.639369779875073195e+09,7.792747002364774911e-02,0.000000000000000000e+00,0.000000000000000000e+00,-3.394066027349079917e+00,-1.071386680180757139e-01,2.573885301161758440e-02,1.069607396509885677e-01
2.833333333333333481e+00,1.639369779892028809e+09,8.031555905828337283e-02,0.000000000000000000e+00,0.000000000000000000e+00,-3.394066027349079917e+00,-1.063119029792779224e-01,2.749207468198372820e-02,1.034356529309677919e-01
2.850000000000000089e+00,1.639369779907985687e+09,8.260036163962154732e-02,0.000000000000000000e+00,0.000000000000000000e+00,-3.394066027349079917e+00,-1.021170671243974704e-01,2.918761118657425824e-02,1.000381653076373029e-01
2.866666666666666696e+00,1.639369779925903320e+09,8.477394685835056010e-02,0.000000000000000000e+00,0.000000000000000000e+00,-3.394066027349079917e+00,-9.465094596076761846e-02,3.082802338450889648e-02,9.682023734368987167e-02
2.883333333333333304e+00,1.639369779941895247e+09,8.682919326559783435e-02,0.000000000000000000e+00,0.000000000000000000e+00,-3.394066027349079917e+00,-8.405311497390847986e-02,3.241671168923102725e-02,9.383066378940259356e-02
2.899999999999999911e+00,1.639369779961843729e+09,8.875984704762999999e-02,0.000000000000000000e+00,0.000000000000000000e+00,-3.394066027349079917e+00,-7.050490283120607049e-02,3.395785797526072042e-02,9.111443578951947120e-02
2.916666666666666519e+00,1.639369779976804018e+09,9.056057328828989728e-02,0.000000000000000000e+00,0.000000000000000000e+00,-3.394066027349079917e+00,-5.422785190580599324e-02,3.545635715578795283e-02,8.871213907722880210e-02
2.933333333333333126e+00,1.639369779994750977e+09,9.222699979907907075e-02,0.000000000000000000e+00,0.000000000000000000e+00,-3.394066027349079917e+00,-3.548168427399725489e-02,3.691773909422468858e-02,8.665939573422544451e-02
2.950000000000000178e+00,1.639369780012706518e+09,9.375575305649054558e-02,0.000000000000000000e+00,0.000000000000000000e+00,-3.394066027349079917e+00,-1.456178707013877464e-02,3.834808163618638743e-02,8.498635674109476790e-02
2.966666666666666785e+00,1.639369780029625893e+09,9.514448585084614440e-02,0.000000000000000000e+00,0.000000000000000000e+00,-3.394066027349079917e+00,8.203763235025779421e-03,3.975391566507727181e-02,8.371725209945431179e-02
2.983333333333333393e+00,1.639369780045616865e+09,9.639189632006296693e-02,0.000000000000000000e+00,0.000000000000000000e+00,-3.394066027349079917e+00,3.245761249801787374e-02,4.114212319306934096e-02,8.287000477976254331e-02
3.000000000000000000e+00,1.639369780064566135e+09,9.749773811485834552e-02,0.000000000000000000e+00,0.000000000000000000e+00,-3.394066027349079917e+00,5.781694598241498423e-02,4.251982959841687365e-02,8.245591414078859427e-02
3.016666666666666607e+00,1.639369780081523895e+09,9.846282151830719476e-02,0.000000000000000000e+00,0.000000000000000000e+00,-3.394066027349079917e+00,8.387767517855905519e-02,4.389429120844064169e-02,8.247941378374080978e-02
3.033333333333333215e+00,1.639369780096446037e+09,9.928900542179167066e-02,0.000000000000000000e+00,0.000000000000000000e+00,-3.394066027349079917e+00,1.102189538392623069e-01,4.527277950395001971e-02,8.293790805221913642e-02
3.049999999999999822e+00,1.639369780114397764e+09,9.997918014047628421e-02,0.000000000000000000e+00,0.000000000000000000e+00,-3.394066027349079917e+00,1.364079782221681858e-01,4.666246328425890239e-02,8.382169057561306147e-02
3.066666666666666430e+00,1.639369780130355358e+09,1.005372411338978367e-01,0.000000000000000000e+00,0.000000000000000000e+00,-3.394066027349079917e+00,1.620050224627889168e-01,4.807029018133060494e-02,8.511394738625450984e-02
3.083333333333333481e+00,1.639369780148307085e+09,1.009680537802685879e-01,0.000000000000000000e+00,0.000000000000000000e+00,-3.394066027349079917e+00,1.865686564072729370e-01,4.950286894613447480e-02,8.679084622823851625e-02
3.100000000000000089e+00,1.639369780165261745e+09,1.012774094359644994e-01,0.000000000000000000e+00,0.000000000000000000e+00,-3.394066027349079917e+00,2.096610901592592668e-01,5.096635394933891200e-02,8.882171272768839276e-02
3.116666666666666696e+00,1.639369780182218075e+09,1.014719730936435999e-01,0.000000000000000000e+00,0.000000000000000000e+00,-3.394066027349079917e+00,2.308535870844192484e-01,5.246633334148968764e-02,9.116929312027793886e-02
3.133333333333333304e+00,1.639369780198175430e+09,1.015592230327497514e-01,0.000000000000000000e+00,0.000000000000000000e+00,-3.394066027349079917e+00,2.497318851074702695e-01,5.400772230448442485e-02,9.379010224240770521e-02
3.149999999999999911e+00,1.639369780215130329e+09,1.015473829340650530e-01,0.000000000000000000e+00,0.000000000000000000e+00,-3.394066027349079917e+00,2.659015648619271199e-01,5.559466279628688667e-02,9.663485449830402918e-02
3.166666666666666519e+00,1.639369780233081818e+09,1.014453470047498168e-01,0.000000000000000000e+00,0.000000000000000000e+00,-3.394066027349079917e+00,2.789933026380931325e-01,5.723043114444063134e-02,9.964897452745183348e-02
3.183333333333333126e+00,1.639369780249040127e+09,1.012625987311929904e-01,0.000000000000000000e+00,0.000000000000000000e+00,-3.394066027349079917e+00,2.886679461387970935e-01,5.891735478123880793e-02,1.027731833263002686e-01
3.200000000000000178e+00,1.639369780267987967e+09,1.010091239433490162e-01,0.000000000000000000e+00,0.000000000000000000e+00,-3.394066027349079917e+00,2.946213518065470827e-01,6.065673933476768004e-02,1.059441546362138442e-01
3.216666666666666785e+00,1.639369780282982349e+09,1.006953189353231859e-01,0.000000000000000000e+00,0.000000000000000000e+00,-3.394066027349079917e+00,2.965889239346039541e-01,6.244880719603298352e-02,1.090952355071919400e-01
3.233333333333333393e+00,1.639369780299903154e+09,1.003318944422292719e-01,0.000000000000000000e+00,0.000000000000000000e+00,-3.394066027349079917e+00,2.943497979143024912e-01,6.429264857374920872e-02,1.121572240947140836e-01
3.250000000000000000e+00,1.639369780316890717e+09,9.992977632211409722e-02,0.000000000000000000e+00,0.000000000000000000e+00,-3.394066027349079917e+00,2.877306127909018962e-01,6.618618592604721962e-02,1.150591969555977701e-01
3.266666666666666607e+00,1.639369780333845854e+09,9.950000383356835676e-02,6.603593166943334536e-01,6.603593166943334536e-01,-3.394066027349079917e+00,2.766088217813976735e-01,6.821736168175215886e-02,1.286441568411550163e-01
3.283333333333333215e+00,1.639369780349803209e+09,9.905362643396427302e-02,7.011111553737991997e-01,7.011111553737991997e-01,-3.394066027349079917e+00,2.609154935238838791e-01,7.047653816807478155e-02,1.424187578364604356e-01
3.299999999999999822e+00,1.639369780367754698e+09,9.860160004970376646e-02,7.341739678873284713e-01,7.341739678873284713e-01,-3.394066027349079917e+00,2.406375615451874228e-01,7.296515463696864878e-02,1.561770001914418171e-01
3.316666666666666430e+00,1.639369780384711504e+09,9.815468378805157490e-02,6.857331030419252516e-01,6.857331030419252516e-01,-3.394066027349079917e+00,2.158194847107540448e-01,7.567105628823425634e-02,1.684969750027208724e-01
3.333333333333333481e+00,1.639369780400667191e+09,9.772333806975985748e-02,6.319099198803665995e-01,6.319099198803665995e-01,-3.394066027349079917e+00,1.865642872101807848e-01,7.856911438456215535e-02,1.792401536912354154e-01
3.350000000000000089e+00,1.639369780418620586e+09,9.731762516258064821e-02,6.465190695956468669e-01,6.465190695956468669e-01,-3.394066027349079917e+00,1.530339528789867176e-01,8.164212820237069790e-02,1.894930235813374331e-01
3.366666666666666696e+00,1.639369780434577942e+09,9.694711308772643865e-02,6.042294256829934262e-01,6.042294256829934262e-01,-3.394066027349079917e+00,1.154491553020522837e-01,8.487357475579557220e-02,1.982562200443299949e-01
3.383333333333333304e+00,1.639369780451497555e+09,9.662078385435400596e-02,7.241782338716101775e-01,7.241782338716101775e-01,-3.394066027349079917e+00,7.408831212068173189e-02,8.826071881547553621e-02,2.081735184178548914e-01
3.399999999999999911e+00,1.639369780469482899e+09,9.634694695118196928e-02,7.926105667484492079e-01,7.926105667484492079e-01,-3.394066027349079917e+00,2.928595920324895616e-02,9.181504518380378954e-02,2.183174674820549388e-01
3.416666666666666519e+00,1.639369780485407352e+09,9.613315898954552519e-02,7.034178632235804640e-01,7.034178632235804640e-01,-3.394066027349079917e+00,-1.856955223590530182e-02,9.551810711472848159e-02,2.260285440675914859e-01
3.433333333333333126e+00,1.639369780503392220e+09,9.598615034868866747e-02,6.826574925755505285e-01,6.826574925755505285e-01,-3.394066027349079917e+00,-6.903902495087560487e-02,9.933878362949291607e-02,2.324348420132383020e-01
3.449999999999999734e+00,1.639369780519349813e+09,9.591175962215979511e-02,6.419056538960845604e-01,6.419056538960845604e-01,-3.394066027349079917e+00,-1.216360332312930170e-01,1.032524535462955029e-01,2.371923324408489187e-01
3.466666666666666785e+00,1.639369780538264275e+09,9.591487660414847738e-02,0.000000000000000000e+00,0.000000000000000000e+00,-3.394066027349079917e+00,-1.758311630328090458e-01,1.071486120756946769e-01,2.303656545275696022e-01
3.483333333333333393e+00,1.639369780556250811e+09,9.599939448689277788e-02,0.000000000000000000e+00,0.000000000000000000e+00,-3.394066027349079917e+00,-2.310568416094007649e-01,1.109243077457511967e-01,2.227390114973563928e-01
3.500000000000000000e+00,1.639369780572208643e+09,9.616817186536899542e-02,6.980355449074244767e-01,6.980355449074244767e-01,-3.394066027349079917e+00,-2.867127164331614853e-01,1.146626718949392137e-01,2.258560278227394191e-01
3.516666666666666607e+00,1.639369780590125322e+09,9.642300506394425874e-02,7.795392222663565240e-01,7.795392222663565240e-01,-3.394066027349079917e+00,-3.421715363355747330e-01,1.184561531210743118e-01,2.293520080287840268e-01
3.533333333333333215e+00,1.639369780607114792e+09,9.676461121210142013e-02,8.379758211274773716e-01,8.379758211274773716e-01,-3.394066027349079917e+00,-3.967854813337456377e-01,1.223079458043053180e-01,2.328533876754485532e-01
3.549999999999999822e+00,1.639369780623071432e+09,9.719262240348147674e-02,1.030970377892495460e+00,1.030970377892495460e+00,-3.394066027349079917e+00,-4.498928815932904390e-01,1.262369324865330322e-01,2.386090259315409023e-01
3.566666666666666430e+00,1.639369780642021418e+09,9.770559117503699320e-02,1.094020392453178836e+00,1.094020392453178836e+00,-3.394066027349079917e+00,-5.008252604995125923e-01,1.302627251952840626e-01,2.444698187553509539e-01
3.583333333333333481e+00,1.639369780656983614e+09,9.830100744186549833e-02,1.044810624991182157e+00,1.044810624991182157e+00,-3.394066027349079917e+00,-5.489146319297244503e-01,1.343719492831894902e-01,2.486255278851364769e-01
3.600000000000000089e+00,1.639369780673936605e+09,9.897532691916215153e-02,9.979075653789666323e-01,9.979075653789666323e-01,-3.394066027349079917e+00,-5.935009776054948061e-01,1.385372246389971473e-01,2.512003623255533724e-01
3.616666666666666696e+00,1.639369780691887856e+09,9.972401095652513869e-02,9.510045057667507740e-01,9.510045057667507740e-01,-3.394066027349079917e+00,-6.339398269119382867e-01,1.427329945566864489e-01,2.522890037221109383e-01
3.633333333333333304e+00,1.639369780708849192e+09,1.005415776025625624e-01,8.210599635624160619e-01,8.210599635624160619e-01,-3.394066027349079917e+00,-6.696098588526372408e-01,1.469238833663410182e-01,2.506222833242860437e-01
3.649999999999999911e+00,1.639369780725762606e+09,1.014216636102451136e-01,8.149087426296665049e-01,8.149087426296665049e-01,-3.394066027349079917e+00,-6.999204439065548344e-01,1.510821875881152299e-01,2.483804507478970247e-01
3.666666666666666519e+00,1.639369780742751360e+09,1.023570969867470537e-01,8.579672891589136263e-01,8.579672891589136263e-01,-3.394066027349079917e+00,-7.243190425027609125e-01,1.552060148979696186e-01,2.464840942156451831e-01
3.683333333333333126e+00,1.639369780759707689e+09,1.033399795865409670e-01,7.034178632235804640e-01,7.034178632235804640e-01,-3.394066027349079917e+00,-7.422983766562273322e-01,1.592746684328999462e-01,2.417674321235040724e-01
3.699999999999999734e+00,1.639369780775668621e+09,1.043617791442585235e-01,0.000000000000000000e+00,0.000000000000000000e+00,-3.394066027349079917e+00,-7.534032920310733683e-01,1.631666721579765889e-01,2.253187068645761959e-01
3.716666666666666785e+00,1.639369780792618036e+09,1.054134300452225642e-01,0.000000000000000000e+00,0.000000000000000000e+00,-3.394066027349079917e+00,-7.572372293246378838e-01,1.667862728228793057e-01,2.090784857109295181e-01
3.733333333333333393e+00,1.639369780810569763e+09,1.064854420375642569e-01,0.000000000000000000e+00,0.000000000000000000e+00,-3.394066027349079917e+00,-7.534682263951374415e-01,1.701379668192356254e-01,1.931689879413209243e-01
3.750000000000000000e+00,1.639369780828524113e+09,1.075680160013563758e-01,0.000000000000000000e+00,0.000000000000000000e+00,-3.394066027349079917e+00,-7.418343759763982304e-01,1.732283068204269194e-01,1.777147416738563412e-01
3.766666666666666607e+00,1.639369780845483065e+09,1.086511658081063675e-01,0.000000000000000000e+00,0.000000000000000000e+00,-3.394066027349079917e+00,-7.221486681142834652e-01,1.760659295984919881e-01,1.628413077605531945e-01
3.783333333333333215e+00,1.639369780861439228e+09,1.097248452290881388e-01,0.000000000000000000e+00,0.000000000000000000e+00,-3.394066027349079917e+00,-6.943031515904058981e-01,1.786615621740852700e-01,1.486739559917864828e-01
3.799999999999999822e+00,1.639369780879387617e+09,1.107790787841615027e-01,0.000000000000000000e+00,0.000000000000000000e+00,-3.394066027349079917e+00,-6.582723545293931444e-01,1.810280056135628868e-01,1.353363066434856432e-01
3.816666666666666430e+00,1.639369780895344734e+09,1.118040953645940971e-01,0.000000000000000000e+00,0.000000000000000000e+00,-3.394066027349079917e+00,-6.141159110671190469e-01,1.831800960100223863e-01,1.229489510625741550e-01
3.833333333333333481e+00,1.639369780912301302e+09,1.127904634147258167e-01,0.000000000000000000e+00,0.000000000000000000e+00,-3.394066027349079917e+00,-5.619803483306361480e-01,1.851346424178064443e-01,1.116280655159461593e-01
3.850000000000000089e+00,1.639369780929261684e+09,1.137292264185828378e-01,0.000000000000000000e+00,0.000000000000000000e+00,-3.394066027349079917e+00,-5.020999959795402479e-01,1.869103417503191755e-01,1.014840329171077665e-01
3.866666666666666696e+00,1.639369780947170973e+09,1.146120374093294036e-01,0.000000000000000000e+00,0.000000000000000000e+00,-3.394066027349079917e+00,-4.347969891088647731e-01,1.885276708965866188e-01,9.262008728569257054e-02
3.883333333333333304e+00,1.639369780964159489e+09,1.154312912021711324e-01,0.000000000000000000e+00,0.000000000000000000e+00,-3.426115753764084726e+00,-3.604803443338747693e-01,1.900087565603154616e-01,8.513099588306580201e-02
3.899999999999999911e+00,1.639369780981115580e+09,1.161802530452753501e-01,0.000000000000000000e+00,0.000000000000000000e+00,-3.394066027349079917e+00,-2.796440982795669883e-01,1.913772235736818927e-01,7.910179389837326824e-02
3.916666666666666519e+00,1.639369780997071505e+09,1.168531823887657972e-01,0.000000000000000000e+00,0.000000000000000000e+00,-3.394066027349079917e+00,-1.928645073888675121e-01,1.926580226840843013e-01,7.460658633148972707e-02
3.933333333333333126e+00,1.639369781017018080e+09,1.174454504889663187e-01,0.000000000000000000e+00,0.000000000000000000e+00,-3.394066027349079917e+00,-1.007963178457941811e-01,1.938772390529631684e-01,7.170743133184762086e-02
3.949999999999999734e+00,1.639369781033972263e+09,1.179536505938987428e-01,0.000000000000000000e+00,0.000000000000000000e+00,-3.394066027349079917e+00,-4.168124381513541726e-03,1.950618829388791053e-01,7.045331870623977588e-02
3.966666666666666785e+00,1.639369781050926685e+09,1.183756994965096260e-01,0.000000000000000000e+00,0.000000000000000000e+00,-3.394066027349079917e+00,9.622315331182086651e-02,1.962396642597305507e-01,7.087925660725200028e-02
3.983333333333333393e+00,1.639369781065883398e+09,1.187109292940505823e-01,0.000000000000000000e+00,0.000000000000000000e+00,-3.394066027349079917e+00,1.995186379976788271e-01,1.974387529387297557e-01,7.300547856154745996e-02
4.000000000000000000e+00,1.639369781086832762e+09,1.189601682552259981e-01,0.000000000000000000e+00,0.000000000000000000e+00,-3.394066027349079917e+00,3.048046579701045311e-01,1.986875271330765802e-01,7.683678200003572767e-02
4.016666666666666607e+00,1.639369781102754354e+09,1.191258097707573599e-01,0.000000000000000000e+00,0.000000000000000000e+00,-3.394066027349079917e+00,4.111206483360457242e-01,2.000143116208268623e-01,8.236200831788620391e-02
4.033333333333333215e+00,1.639369781118712187e+09,1.192118684474667151e-01,0.000000000000000000e+00,0.000000000000000000e+00,-3.394066027349079917e+00,5.174677242105706343e-01,2.014471087780426162e-01,8.955367323084663378e-02
4.049999999999999822e+00,1.639369781135665894e+09,1.192240225002692278e-01,0.000000000000000000e+00,0.000000000000000000e+00,-3.394066027349079917e+00,6.228178512225338581e-01,2.030133247129043972e-01,9.836775481636041152e-02
4.066666666666666430e+00,1.639369781153653145e+09,1.191696416999363101e-01,0.000000000000000000e+00,0.000000000000000000e+00,-3.394066027349079917e+00,7.261235310527293096e-01,2.047394932342228857e-01,1.087436451459207476e-01
4.083333333333333037e+00,1.639369781170608282e+09,1.190578002464189739e-01,0.000000000000000000e+00,0.000000000000000000e+00,-3.394066027349079917e+00,8.263279127745634112e-01,2.066510004170869774e-01,1.206042698426327137e-01
4.099999999999999645e+00,1.639369781187561750e+09,1.188992740570461309e-01,0.000000000000000000e+00,0.000000000000000000e+00,-3.394066027349079917e+00,9.223752346239341149e-01,2.087718125868470720e-01,1.338563782499382071e-01
4.116666666666666252e+00,1.639369781204530716e+09,1.187065220851605679e-01,0.000000000000000000e+00,0.000000000000000000e+00,-3.394066027349079917e+00,1.013221495568402686e+00,2.111242105731279406e-01,1.483910051897973925e-01
4.133333333333332860e+00,1.639369781222434998e+09,1.184936514167220789e-01,0.000000000000000000e+00,0.000000000000000000e+00,-3.394066027349079917e+00,1.097845251745871442e+00,2.137285330872425448e-01,1.640841035381139790e-01
4.150000000000000355e+00,1.639369781237427950e+09,1.182763660290486601e-01,0.000000000000000000e+00,0.000000000000000000e+00,-3.394066027349079917e+00,1.175258429559895346e+00,2.166029320486680954e-01,1.807973450693533546e-01
4.166666666666666963e+00,1.639369781255346537e+09,1.180718992361130537e-01,0.000000000000000000e+00,0.000000000000000000e+00,-3.394066027349079917e+00,1.244517045004828404e+00,2.197631426288778889e-01,1.983790852392240400e-01
4.183333333333333570e+00,1.639369781272335291e+09,1.178989299874461938e-01,0.000000000000000000e+00,0.000000000000000000e+00,-3.394066027349079917e+00,1.304731717688544901e+00,2.232222706938302714e-01,2.166654858024140706e-01
4.200000000000000178e+00,1.639369781288292408e+09,1.177774833316323766e-01,0.000000000000000000e+00,0.000000000000000000e+00,-3.394066027349079917e+00,1.355077868054145984e+00,2.269906002101421127e-01,2.354817874203380124e-01
4.216666666666666785e+00,1.639369781305247068e+09,1.177288154992725960e-01,0.000000000000000000e+00,0.000000000000000000e+00,-3.394066027349079917e+00,1.394805487492158713e+00,2.310754230350707816e-01,2.546437227202786313e-01
4.233333333333333393e+00,1.639369781323220253e+09,1.177752842030360542e-01,0.000000000000000000e+00,0.000000000000000000e+00,-3.394066027349079917e+00,1.423248373388249499e+00,2.354808933378590707e-01,2.739590586406278061e-01
4.250000000000000000e+00,1.639369781340178013e+09,1.179402048926587038e-01,0.000000000000000000e+00,0.000000000000000000e+00,-3.394066027349079917e+00,1.439832724661952446e+00,2.402079087010244307e-01,2.932292553551616443e-01
4.266666666666666607e+00,1.639369781356135130e+09,1.182476938393007132e-01,0.000000000000000000e+00,0.000000000000000000e+00,-3.394066027349079917e+00,1.444084998001617048e+00,2.452540197263619881e-01,3.122512276298510248e-01
4.283333333333333215e+00,1.639369781375081778e+09,1.187224990553163162e-01,0.000000000000000000e+00,0.000000000000000000e+00,-3.394066027349079917e+00,1.435638930759532972e+00,2.506133697236205271e-01,3.308191931452513224e-01
4.299999999999999822e+00,1.639369781390043497e+09,1.193898201809426296e-01,0.000000000000000000e+00,0.000000000000000000e+00,-3.394066027349079917e+00,1.414241643296410889e+00,2.562766657921194957e-01,3.487265911316925204e-01
4.316666666666666430e+00,1.639369781406996250e+09,1.202751185876140688e-01,0.000000000000000000e+00,0.000000000000000000e+00,-3.394066027349079917e+00,1.379758741402209887e+00,2.622311823193650970e-01,3.657680536278171135e-01
4.333333333333333037e+00,1.639369781422930002e+09,1.214039190573081295e-01,0.000000000000000000e+00,0.000000000000000000e+00,-3.394066027349079917e+00,1.332178348205362628e+00,2.684607976185933165e-01,3.817414107986782379e-01
4.349999999999999645e+00,1.639369781441880703e+09,1.228016044975590165e-01,0.000000000000000000e+00,0.000000000000000000e+00,-3.394066027349079917e+00,1.271614004637968920e+00,2.749460641119198523e-01,3.964497110493178655e-01
4.366666666666666252e+00,1.639369781457838058e+09,1.244932052414408213e-01,0.000000000000000000e+00,0.000000000000000000e+00,-3.394066027349079917e+00,1.198306387964739539e+00,2.816643121403941130e-01,4.097032361535892786e-01
4.383333333333332860e+00,1.639369781475790262e+09,1.265031845600568805e-01,0.000000000000000000e+00,0.000000000000000000e+00,-3.394066027349079917e+00,1.112623809011530573e+00,2.885897871498808720e-01,4.213214912942946921e-01
4.400000000000000355e+00,1.639369781493708134e+09,1.288552220809635052e-01,0.000000000000000000e+00,0.000000000000000000e+00,-3.394066027349079917e+00,1.015061460441554431e+00,2.956938196655835571e-01,4.311351497859512438e-01
4.416666666666666963e+00,1.639369781510663748e+09,1.315719968588022759e-01,0.000000000000000000e+00,0.000000000000000000e+00,-3.394066027349079917e+00,9.062394006108476230e-01,3.029450271315367038e-01,4.389879323301789094e-01
4.433333333333333570e+00,1.639369781526653051e+09,1.346749718835014153e-01,0.000000000000000000e+00,0.000000000000000000e+00,-3.394066027349079917e+00,7.868992700714763089e-01,3.103095463579395585e-01,4.447384009383006376e-01
4.450000000000000178e+00,1.639369781542610645e+09,1.381841818362189167e-01,0.000000000000000000e+00,0.000000000000000000e+00,-3.394066027349079917e+00,6.578997505562343973e-01,3.177512949922151608e-01,4.482616481466289438e-01
4.466666666666666785e+00,1.639369781560563803e+09,1.421180259132763246e-01,0.000000000000000000e+00,0.000000000000000000e+00,-3.394066027349079917e+00,5.202107891453169319e-01,3.252322601125809398e-01,4.494508628453517951e-01
4.483333333333333393e+00,1.639369781577484608e+09,1.464930675333565580e-01,0.000000000000000000e+00,0.000000000000000000e+00,-3.394066027349079917e+00,3.749066231510983505e-01,3.327128117390881212e-01,4.482187549380295954e-01
4.500000000000000000e+00,1.639369781597457647e+09,1.513238427230065020e-01,0.000000000000000000e+00,0.000000000000000000e+00,-3.394066027349079917e+00,2.231576539305608342e-01,3.401520387698184766e-01,4.444988221394752803e-01
4.516666666666666607e+00,1.639369781611427784e+09,1.566226789399232100e-01,0.000000000000000000e+00,0.000000000000000000e+00,-3.394066027349079917e+00,6.622123021193228321e-02,3.475081045823963932e-01,4.382464434970962386e-01
4.533333333333333215e+00,1.639369781629381180e+09,1.623995260426657483e-01,0.000000000000000000e+00,0.000000000000000000e+00,-3.394066027349079917e+00,-9.456858652754357442e-02,3.547386192962083129e-01,4.294397856744919251e-01
4.549999999999999822e+00,1.639369781647297621e+09,1.686618010495084252e-01,0.000000000000000000e+00,0.000000000000000000e+00,-3.394066027349079917e+00,-2.578121907023153137e-01,3.618010254715537388e-01,4.180805096541079235e-01
4.566666666666666430e+00,1.639369781664277315e+09,1.754142482484256638e-01,0.000000000000000000e+00,0.000000000000000000e+00,-3.426115753764084726e+00,-4.220564406349524567e-01,3.686529938310108001e-01,4.041942672840683204e-01
4.583333333333333037e+00,1.639369781681207895e+09,1.826588161251603559e-01,0.000000000000000000e+00,0.000000000000000000e+00,-3.394066027349079917e+00,-5.858074013943049829e-01,3.752528254279517417e-01,3.878309789972222976e-01
4.599999999999999645e+00,1.639369781699158192e+09,1.903945524674983680e-01,0.000000000000000000e+00,0.000000000000000000e+00,-3.394066027349079917e+00,-7.475437089042307193e-01,3.815598565594932601e-01,3.690648860506102746e-01
4.616666666666666252e+00,1.639369781715115547e+09,1.986175188819636339e-01,0.000000000000000000e+00,0.000000000000000000e+00,-3.394066027349079917e+00,-9.057304337943531403e-01,3.875348626280069597e-01,3.479943727521906949e-01
4.633333333333332860e+00,1.639369781733067274e+09,2.073207258249851748e-01,0.000000000000000000e+00,0.000000000000000000e+00,-3.394066027349079917e+00,-1.058833316601558439e+00,3.931404570981234525e-01,3.247415563387149318e-01
4.650000000000000355e+00,1.639369781750022173e+09,2.164940891050749217e-01,0.000000000000000000e+00,0.000000000000000000e+00,-3.394066027349079917e+00,-1.205333240270365813e+00,3.983414816760644794e-01,2.994516444229344820e-01
4.666666666666666963e+00,1.639369781766014814e+09,2.261244086567253675e-01,0.000000000000000000e+00,0.000000000000000000e+00,-3.394066027349079917e+00,-1.343740801515016736e+00,4.031053838559080504e-01,2.722920622178406358e-01
4.683333333333333570e+00,1.639369781783965826e+09,2.361953702217707562e-01,0.000000000000000000e+00,0.000000000000000000e+00,-3.394066027349079917e+00,-1.472610839559349794e+00,4.074025780334223357e-01,2.434513540476705429e-01
4.700000000000000178e+00,1.639369781802914381e+09,2.466875704009861558e-01,0.000000000000000000e+00,0.000000000000000000e+00,-3.394066027349079917e+00,-1.590556779111868657e+00,4.112067864824142660e-01,2.131378659468141090e-01
4.716666666666666785e+00,1.639369781817840815e+09,2.575785653591733393e-01,0.000000000000000000e+00,0.000000000000000000e+00,-3.394066027349079917e+00,-1.696264644197786664e+00,4.144953566207564832e-01,1.815782184051754622e-01
4.733333333333333393e+00,1.639369781835793018e+09,2.688429432821383691e-01,0.000000000000000000e+00,0.000000000000000000e+00,-3.394066027349079917e+00,-1.788506600680323411e+00,4.172495511626150844e-01,1.490155805186448024e-01
4.750000000000000000e+00,1.639369781853778601e+09,2.804524204953735556e-01,0.000000000000000000e+00,0.000000000000000000e+00,-3.394066027349079917e+00,-1.866153887965681379e+00,4.194548079587606115e-01,1.157077589230712800e-01
4.766666666666666607e+00,1.639369781870734215e+09,2.923759609633491685e-01,0.000000000000000000e+00,0.000000000000000000e+00,-3.394066027349079917e+00,-1.928189004493175984e+00,4.211009665666697876e-01,8.192511690694248561e-02
4.783333333333333215e+00,1.639369781887689114e+09,3.045799186966404726e-01,0.000000000000000000e+00,0.000000000000000000e+00,-3.394066027349079917e+00,-1.973717017140721230e+00,4.221824588645246012e-01,4.794834099007563161e-02
4.799999999999999822e+00,1.639369781904641628e+09,3.170282024032789470e-01,0.000000000000000000e+00,0.000000000000000000e+00,-3.394066027349079917e+00,-2.001975871588547395e+00,4.226984613259313628e-01,1.406607400219306997e-02
4.816666666666666430e+00,1.639369781921600580e+09,3.296824615322356822e-01,0.000000000000000000e+00,0.000000000000000000e+00,-3.394066027349079917e+00,-2.012345588928425855e+00,4.226530069026295799e-01,-1.942756472331221701e-02
4.833333333333333037e+00,1.639369781937555075e+09,3.425022926724530237e-01,0.000000000000000000e+00,0.000000000000000000e+00,-3.394066027349079917e+00,-2.004356243314930897e+00,4.220550548177317562e-01,-5.223555002699655642e-02
4.849999999999999645e+00,1.639369781954510450e+09,3.554454650919174896e-01,0.000000000000000000e+00,0.000000000000000000e+00,-3.394066027349079917e+00,-1.977694626148740031e+00,4.209185169489392808e-01,-8.406058926068306347e-02
4.866666666666666252e+00,1.639369781971467733e+09,3.684681640293788196e-01,0.000000000000000000e+00,0.000000000000000000e+00,-3.394066027349079917e+00,-1.932209514065954759e+00,4.192622398762607117e-01,-1.146078040891037458e-01
4.883333333333332860e+00,1.639369781988420486e+09,3.815252501881093439e-01,0.000000000000000000e+00,0.000000000000000000e+00,-3.394066027349079917e+00,-1.867915470775785902e+00,4.171099420783361822e-01,-1.435874308041090175e-01
4.900000000000000355e+00,1.639369782006371498e+09,3.945705337278754832e-01,0.000000000000000000e+00,0.000000000000000000e+00,-3.394066027349079917e+00,-1.784995126424029355e+00,4.144901061816668730e-01,-1.707175136811735217e-01
4.916666666666666963e+00,1.639369782022293806e+09,4.075570609095763297e-01,0.000000000000000000e+00,0.000000000000000000e+00,-3.394066027349079917e+00,-1.683799892533708320e+00,4.114358265938289905e-01,-1.957265656355641203e-01
4.933333333333333570e+00,1.639369782040279865e+09,4.204374114180435273e-01,0.000000000000000000e+00,0.000000000000000000e+00,-3.394066027349079917e+00,-1.564849085550144236e+00,4.079846132809663017e-01,-2.183561704152038319e-01
4.950000000000000178e+00,1.639369782058231115e+09,4.331640042734940521e-01,0.000000000000000000e+00,0.000000000000000000e+00,-3.394066027349079917e+00,-1.428827447450298660e+00,4.041781528772718790e-01,-2.383635008023476942e-01
4.966666666666666785e+00,1.639369782075186968e+09,4.456894101423438115e-01,0.000000000000000000e+00,0.000000000000000000e+00,-3.394066027349079917e+00,-1.276581067614670717e+00,4.000620287355306504e-01,-2.555237277875176405e-01
4.983333333333333393e+00,1.639369782092143059e+09,4.579666677743476910e-01,0.000000000000000000e+00,0.000000000000000000e+00,-3.394066027349079917e+00,-1.109111726047627755e+00,3.956854019388365007e-01,-2.696322964249506238e-01
5.000000000000000000e+00,1.639369782112055540e+09,4.699496022264214590e-01,0.000000000000000000e+00,0.000000000000000000e+00,-3.394066027349079917e+00,-9.275696939092606952e-01,3.911006556901216458e-01,-2.805070450747234601e-01
5.016666666666666607e+00,1.639369782126017809e+09,4.783985035884716353e-01,0.000000000000000000e+00,0.000000000000000000e+00,-3.394066027349079917e+00,-7.332450430272764441e-01,3.863630058740291640e-01,-2.879901459757522320e-01
5.033333333333333215e+00,1.639369782142972469e+09,4.863473887758127390e-01,0.000000000000000000e+00,0.000000000000000000e+00,-3.394066027349079917e+00,-5.240579886386911301e-01,3.815305642995469593e-01,-2.918920042119149127e-01
5.049999999999999822e+00,1.639369782159926891e+09,4.937644918801066263e-01,0.000000000000000000e+00,0.000000000000000000e+00,-3.394066027349079917e+00,-3.079257841040264343e-01,3.766634829690025943e-01,-2.921570192831043355e-01
5.066666666666666430e+00,1.639369782176881313e+09,5.006209224043864925e-01,0.000000000000000000e+00,0.000000000000000000e+00,-3.394066027349079917e+00,-8.661053241500554778e-02,3.718225894976122103e-01,-2.887596346852973617e-01
5.083333333333333037e+00,1.639369782193835974e+09,5.068908595165568798e-01,0.000000000000000000e+00,0.000000000000000000e+00,-3.394066027349079917e+00,1.380817650206789260e-01,3.670688844666328832e-01,-2.817045669039733857e-01
5.099999999999999645e+00,1.639369782209793806e+09,5.125517256491787244e-01,0.000000000000000000e+00,0.000000000000000000e+00,-3.394066027349079917e+00,3.643173942374820506e-01,3.624630372271858691e-01,-2.710267630939016681e-01
5.116666666666666252e+00,1.639369782227746010e+09,5.175843381199269899e-01,0.000000000000000000e+00,0.000000000000000000e+00,-3.394066027349079917e+00,5.902513415780666906e-01,3.580648846705244415e-01,-2.567910881776057641e-01
5.133333333333332860e+00,1.639369782244699955e+09,5.219730376088727031e-01,0.000000000000000000e+00,0.000000000000000000e+00,-3.394066027349079917e+00,8.140437788744800951e-01,3.539329374470506773e-01,-2.390917446395573187e-01
5.150000000000000355e+00,1.639369782260657310e+09,5.257057924996476617e-01,0.000000000000000000e+00,0.000000000000000000e+00,-3.394066027349079917e+00,1.033876465746923490e+00,3.501238980407844203e-01,-2.180514308041756888e-01
5.166666666666666963e+00,1.639369782280603886e+09,5.287742782702724575e-01,0.000000000000000000e+00,0.000000000000000000e+00,-3.394066027349079917e+00,1.247968914816582675e+00,3.466921949890205412e-01,-1.938202458388021132e-01
5.183333333333333570e+00,1.639369782297558784e+09,5.311739313045966693e-01,0.000000000000000000e+00,0.000000000000000000e+00,-3.362016300934073776e+00,1.454594168111816188e+00,3.436895373797400066e-01,-1.665743520943246403e-01
5.200000000000000178e+00,1.639369782312518597e+09,5.329039766854765103e-01,0.000000000000000000e+00,0.000000000000000000e+00,-3.394066027349079917e+00,1.652094036892440165e+00,3.411644935635179121e-01,-1.365144076632285319e-01
5.216666666666666785e+00,1.639369782330470800e+09,5.339674297245745604e-01,0.000000000000000000e+00,0.000000000000000000e+00,-3.394066027349079917e+00,1.838893662486126734e+00,3.391620977841182105e-01,-1.038637841757266977e-01
5.233333333333333393e+00,1.639369782348422527e+09,5.343710711794604773e-01,0.000000000000000000e+00,0.000000000000000000e+00,-3.394066027349079917e+00,2.013515262470241485e+00,3.377234881649566756e-01,-6.886658684872778990e-02
5.250000000000000000e+00,1.639369782364380360e+09,5.341253963050387465e-01,0.000000000000000000e+00,0.000000000000000000e+00,-3.394066027349079917e+00,2.174590934575430623e+00,3.368855791897576446e-01,-3.178549563060494021e-02
5.266666666666666607e+00,1.639369782382331848e+09,5.332445380817381064e-01,0.000000000000000000e+00,0.000000000000000000e+00,-3.394066027349079917e+00,2.320874399953314793e+00,3.366807714879351265e-01,7.100552070439483665e-03
5.283333333333333215e+00,1.639369782398288965e+09,5.317461651558050839e-01,0.000000000000000000e+00,0.000000000000000000e+00,-3.394066027349079917e+00,2.451251577850175334e+00,3.371367013816841118e-01,4.749881514086008727e-02
5.299999999999999822e+00,1.639369782416241169e+09,5.296513552160064808e-01,0.000000000000000000e+00,0.000000000000000000e+00,-3.394066027349079917e+00,2.564749895156943182e+00,3.382760322759060245e-01,8.910531583258721189e-02
5.316666666666666430e+00,1.639369782433196783e+09,5.269844447145801691e-01,0.000000000000000000e+00,0.000000000000000000e+00,-3.394066027349079917e+00,2.660546246652382596e+00,3.401162895775555750e-01,1.316074959751440121e-01
5.333333333333333037e+00,1.639369782452145338e+09,5.237728560169789827e-01,0.000000000000000000e+00,0.000000000000000000e+00,-3.394066027349079917e+00,2.737973534898780148e+00,3.426697404216056952e-01,1.746869373794069091e-01
5.349999999999999645e+00,1.639369782469099760e+09,5.200469032334527064e-01,0.000000000000000000e+00,0.000000000000000000e+00,-3.394066027349079917e+00,2.796525732558869048e+00,3.459433190605413766e-01,2.180221209497857082e-01
5.366666666666666252e+00,1.639369782483062029e+09,5.158395781445064276e-01,0.000000000000000000e+00,0.000000000000000000e+00,-3.394066027349079917e+00,2.835861424243697471e+00,3.499385983471685058e-01,2.612911987338868980e-01
5.383333333333332860e+00,1.639369782501014471e+09,5.111863177805395786e-01,0.000000000000000000e+00,0.000000000000000000e+00,-3.394066027349079917e+00,2.855805799733091455e+00,3.546518073106780244e-01,3.041747530992622295e-01
5.400000000000000355e+00,1.639369782518966436e+09,5.061247553523802178e-01,0.000000000000000000e+00,0.000000000000000000e+00,-3.394066027349079917e+00,2.856351085388729061e+00,3.600738943974773343e-01,3.463585174356084151e-01
5.416666666666666963e+00,1.639369782535920858e+09,5.006944563528836767e-01,0.000000000000000000e+00,0.000000000000000000e+00,-3.394066027349079917e+00,2.837655415658377756e+00,3.661906355254053724e-01,3.875360332353199877e-01
5.433333333333333570e+00,1.639369782552875519e+09,4.949366417593810685e-01,0.000000000000000000e+00,0.000000000000000000e+00,-3.394066027349079917e+00,2.800040161600809263e+00,3.729827856866406166e-01,4.274112191007649053e-01
5.450000000000000178e+00,1.639369782568832636e+09,4.888939003616394885e-01,0.000000000000000000e+00,0.000000000000000000e+00,-3.394066027349079917e+00,2.743985748197470542e+00,3.804262724348494995e-01,4.657008281558472351e-01
5.466666666666666785e+00,1.639369782586784840e+09,4.826098923194351298e-01,0.000000000000000000e+00,0.000000000000000000e+00,-3.394066027349079917e+00,2.670126006714671263e+00,3.884924292097208243e-01,5.021367714928870463e-01
5.483333333333333393e+00,1.639369782603739500e+09,4.761290461172459909e-01,0.000000000000000000e+00,0.000000000000000000e+00,-3.394066027349079917e+00,2.579241122396894070e+00,3.971482660906310302e-01,5.364682866519250304e-01
5.500000000000000000e+00,1.639369782619697094e+09,4.694962511303980568e-01,0.000000000000000000e+00,0.000000000000000000e+00,-3.394066027349079917e+00,2.472249251172163653e+00,4.063567752342149286e-01,5.684639316945439003e-01
5.516666666666666607e+00,1.639369782637648582e+09,4.627565480470149928e-01,0.000000000000000000e+00,0.000000000000000000e+00,-3.394066027349079917e+00,2.350196891703073554e+00,4.160772679412604313e-01,5.979133871825496049e-01
5.533333333333333215e+00,1.639369782653606653e+09,4.559548194029326984e-01,0.000000000000000000e+00,0.000000000000000000e+00,-3.394066027349079917e+00,2.214248110900024713e+00,4.262657400195138946e-01,6.246290502859631610e-01
5.549999999999999822e+00,1.639369782671556711e+09,4.491354824824563274e-01,0.000000000000000000e+00,0.000000000000000000e+00,-3.394066027349079917e+00,2.065672731812012053e+00,4.368752618632782969e-01,6.484474073057323595e-01
5.566666666666666430e+00,1.639369782691536427e+09,4.423421868163064929e-01,0.000000000000000000e+00,0.000000000000000000e+00,-3.394066027349079917e+00,1.905833602520192294e+00,4.478563894603896922e-01,6.692301730839574914e-01
5.583333333333333037e+00,1.639369782705499887e+09,4.356175184696710057e-01,0.000000000000000000e+00,0.000000000000000000e+00,-3.394066027349079917e+00,1.736173073188128413e+00,4.591575923641917911e-01,6.868651880666242215e-01
5.599999999999999645e+00,1.639369782722455502e+09,4.290027132581500924e-01,0.000000000000000000e+00,0.000000000000000000e+00,-3.394066027349079917e+00,1.558198815686502536e+00,4.707256945340527743e-01,7.012670661582049991e-01
5.616666666666666252e+00,1.639369782738420486e+09,4.225373809580283413e-01,0.000000000000000000e+00,0.000000000000000000e+00,-3.394066027349079917e+00,1.373469126142094598e+00,4.825063238539573085e-01,7.123775889406687156e-01
5.633333333333332860e+00,1.639369782755366802e+09,4.162592424903130972e-01,0.000000000000000000e+00,0.000000000000000000e+00,-3.394066027349079917e+00,1.183577855302571535e+00,4.944443660855403766e-01,7.201658442974617769e-01
5.650000000000000355e+00,1.639369782772322655e+09,4.102038819560147598e-01,0.000000000000000000e+00,0.000000000000000000e+00,-3.394066027349079917e+00,9.901391147199717357e-01,5.064844189999844204e-01,7.246281099616839194e-01
5.666666666666666963e+00,1.639369782789276600e+09,4.044045152840115009e-01,0.000000000000000000e+00,0.000000000000000000e+00,-3.394066027349079917e+00,7.947719084071029894e-01,5.185712424624534522e-01,7.257874849726665412e-01
5.683333333333333570e+00,1.639369782807228327e+09,3.988917771234432585e-01,0.000000000000000000e+00,0.000000000000000000e+00,-3.394066027349079917e+00,5.990848397989285701e-01,5.306502003127588907e-01,7.236932744523433270e-01
5.700000000000000178e+00,1.639369782823181629e+09,3.936935274709912891e-01,0.000000000000000000e+00,0.000000000000000000e+00,-3.394066027349079917e+00,4.046610425568988312e-01,5.426676899959073097e-01,7.184201354784764959e-01
5.716666666666666785e+00,1.639369782841141224e+09,3.888346793706470850e-01,0.000000000000000000e+00,0.000000000000000000e+00,-3.394066027349079917e+00,2.130434810025612080e-01,5.545715560448639669e-01,7.100669941128958662e-01
5.733333333333333393e+00,1.639369782859089851e+09,3.843370488609142432e-01,0.000000000000000000e+00,0.000000000000000000e+00,-3.394066027349079917e+00,2.572076178745574815e-02,5.663114837036676841e-01,6.987557458172163338e-01
5.750000000000000000e+00,1.639369782876044750e+09,3.802192281730705226e-01,0.000000000000000000e+00,0.000000000000000000e+00,-3.394066027349079917e+00,-1.558864071563046405e-01,5.778393692000107773e-01,6.846297535349348262e-01
5.766666666666666607e+00,1.639369782892965078e+09,3.764964830055101963e-01,0.000000000000000000e+00,0.000000000000000000e+00,-3.394066027349079917e+00,-3.304379812297492114e-01,5.891096634302444013e-01,6.678521596175386321e-01
5.783333333333333215e+00,1.639369782909952879e+09,3.731806745146121207e-01,0.000000000000000000e+00,0.000000000000000000e+00,-3.394066027349079917e+00,-4.966864463357645310e-01,6.000796861038778518e-01,6.486040295049757543e-01
5.799999999999999822e+00,1.639369782926908255e+09,3.702802064736011034e-01,0.000000000000000000e+00,0.000000000000000000e+00,-3.394066027349079917e+00,-6.534876769118262985e-01,6.107099077060975656e-01,6.270823466208922392e-01
5.816666666666666430e+00,1.639369782943862915e+09,3.677999978587966345e-01,0.000000000000000000e+00,0.000000000000000000e+00,-3.426115753764084726e+00,-7.998106835344277465e-01,6.209641969724755128e-01,6.034978792956071647e-01
5.833333333333333037e+00,1.639369782961818457e+09,3.657414809291765767e-01,0.000000000000000000e+00,0.000000000000000000e+00,-3.394066027349079917e+00,-9.347461601748332516e-01,6.308100319264644540e-01,5.780729416720375990e-01
5.849999999999999645e+00,1.639369782978777409e+09,3.641026246715861059e-01,0.000000000000000000e+00,0.000000000000000000e+00,-3.394066027349079917e+00,-1.057513753419081493e+00,6.402186729038951141e-01,5.510390714709555438e-01
5.866666666666666252e+00,1.639369782996722221e+09,3.628779832919493686e-01,0.000000000000000000e+00,0.000000000000000000e+00,-3.394066027349079917e+00,-1.167467988935097400e+00,6.491652963757422734e-01,5.226346481835234536e-01
5.883333333333332860e+00,1.639369783012679338e+09,3.620587692437650662e-01,0.000000000000000000e+00,0.000000000000000000e+00,-3.394066027349079917e+00,-1.264102804048216511e+00,6.576290887770348537e-01,4.931024757147605686e-01
5.900000000000000355e+00,1.639369783029632807e+09,3.616329501006061431e-01,0.000000000000000000e+00,0.000000000000000000e+00,-3.426115753764084726e+00,-1.347054649336683063e+00,6.655932999519833526e-01,4.626873537175340001e-01
5.916666666666666963e+00,1.639369783045591116e+09,3.615853684006525848e-01,0.000000000000000000e+00,0.000000000000000000e+00,-3.394066027349079917e+00,-1.416104136541042280e+00,6.730452562291782126e-01,4.316336618313217355e-01
5.933333333333333570e+00,1.639369783063541889e+09,3.618978834198388062e-01,0.000000000000000000e+00,0.000000000000000000e+00,-3.394066027349079917e+00,-1.471176224652465780e+00,6.799763335420651034e-01,4.001829807742270928e-01
5.950000000000000178e+00,1.639369783081496000e+09,3.625495336673899005e-01,0.000000000000000000e+00,0.000000000000000000e+00,-3.394066027349079917e+00,-1.512338950659976033e+00,6.863818914048391839e-01,3.685717737337867450e-01
5.966666666666666785e+00,1.639369783098448515e+09,3.635167187444844350e-01,0.000000000000000000e+00,0.000000000000000000e+00,-3.394066027349079917e+00,-1.539800725949702631e+00,6.922611689385230749e-01,3.370291507676077547e-01
5.983333333333333393e+00,1.639369783114405870e+09,3.647733990648320823e-01,0.000000000000000000e+00,0.000000000000000000e+00,-3.394066027349079917e+00,-1.553906233617243338e+00,6.976171445125030068e-01,3.057747379666737597e-01
6.000000000000000000e+00,1.639369783134353399e+09,3.662913118060465711e-01,0.000000000000000000e+00,0.000000000000000000e+00,-3.394066027349079917e+00,-1.555130975834912999e+00,7.024563609195523251e-01,2.750166719623759470e-01
6.016666666666666607e+00,1.639369783150317192e+09,3.680402013439061371e-01,0.000000000000000000e+00,0.000000000000000000e+00,-3.394066027349079917e+00,-1.544074533771762514e+00,7.067887183339151003e-01,2.449497389851504059e-01
6.033333333333333215e+00,1.639369783167263985e+09,3.699880623187815076e-01,0.000000000000000000e+00,0.000000000000000000e+00,-3.394066027349079917e+00,-1.521452615263989339e+00,7.106272376091148368e-01,2.157536761222175192e-01
6.049999999999999822e+00,1.639369783184185028e+09,3.721013933954208097e-01,0.000000000000000000e+00,0.000000000000000000e+00,-3.394066027349079917e+00,-1.488087977350903923e+00,7.139877967518062363e-01,1.875916506903444470e-01
6.066666666666666430e+00,1.639369783202171564e+09,3.743454597046292354e-01,0.000000000000000000e+00,0.000000000000000000e+00,-3.394066027349079917e+00,-1.444900321809455601e+00,7.168888436575038270e-01,1.606089317544892592e-01
6.083333333333333037e+00,1.639369783217133284e+09,3.766845618986426891e-01,0.000000000000000000e+00,0.000000000000000000e+00,-3.394066027349079917e+00,-1.392895271830474568e+00,7.193510884109922676e-01,1.349317658038262091e-01
6.099999999999999645e+00,1.639369783234086037e+09,3.790823097116174933e-01,0.000000000000000000e+00,0.000000000000000000e+00,-3.394066027349079917e+00,-1.333152546883308531e+00,7.213971786365892536e-01,1.106664664635074180e-01
6.116666666666666252e+00,1.639369783251041174e+09,3.815018978928957916e-01,0.000000000000000000e+00,0.000000000000000000e+00,-3.394066027349079917e+00,-1.266813460525717083e+00,7.230513615294758001e-01,8.789872589519223678e-02
6.133333333333332860e+00,1.639369783268992662e+09,3.839063823737492998e-01,0.000000000000000000e+00,0.000000000000000000e+00,-3.394066027349079917e+00,-1.195067872357015837e+00,7.243391363076816525e-01,6.669315324436940473e-02
6.150000000000000355e+00,1.639369783284949541e+09,3.862589545380638589e-01,0.000000000000000000e+00,0.000000000000000000e+00,-3.394066027349079917e+00,-1.119140730422784724e+00,7.252869008940454609e-01,4.709304315095922538e-02
6.166666666666666963e+00,1.639369783302867651e+09,3.885232114939849990e-01,0.000000000000000000e+00,0.000000000000000000e+00,-3.394066027349079917e+00,-1.040278344108809039e+00,7.259215966679861687e-01,2.912037497520507390e-02
6.183333333333333570e+00,1.639369783318825960e+09,3.906634202863518701e-01,0.000000000000000000e+00,0.000000000000000000e+00,-3.394066027349079917e+00,-9.597345298755038945e-01,7.262703551180381689e-01,1.277604102722802032e-02
6.200000000000000178e+00,1.639369783336815119e+09,3.926447740488003268e-01,0.000000000000000000e+00,0.000000000000000000e+00,-3.394066027349079917e+00,-8.787567730606576921e-01,7.263601501780275749e-01,-1.959700250439061833e-03
6.216666666666666785e+00,1.639369783354729414e+09,3.944336381688055004e-01,0.000000000000000000e+00,0.000000000000000000e+00,-3.394066027349079917e+00,-7.985725484108617822e-01,7.262174599431121536e-01,-1.512655248903799383e-02
6.233333333333333393e+00,1.639369783371717215e+09,3.959977846284332137e-01,0.000000000000000000e+00,0.000000000000000000e+00,-3.394066027349079917e+00,-7.203759399973256317e-01,7.258679413376597500e-01,-2.678329955020767802e-02
6.250000000000000000e+00,1.639369783388639450e+09,3.973066127870656938e-01,0.000000000000000000e+00,0.000000000000000000e+00,-3.394066027349079917e+00,-6.453146977534375273e-01,7.253361211464737224e-01,-3.700672432157899039e-02
6.266666666666666607e+00,1.639369783404630423e+09,3.983313549893249816e-01,0.000000000000000000e+00,0.000000000000000000e+00,-3.394066027349079917e+00,-5.744778630730713598e-01,7.246451066259137486e-01,-4.589034085223689385e-02
6.283333333333333215e+00,1.639369783422580004e+09,3.990452655106329627e-01,0.000000000000000000e+00,0.000000000000000000e+00,-3.394066027349079917e+00,-5.088840897821125253e-01,7.238163186840870233e-01,-5.354295440677875328e-02
6.299999999999999822e+00,1.639369783438537598e+09,3.994237914934165579e-01,0.000000000000000000e+00,0.000000000000000000e+00,-3.394066027349079917e+00,-4.494707794019667801e-01,7.228692503618957543e-01,-6.008706574128697131e-02
6.316666666666666430e+00,1.639369783455497980e+09,3.994447246777074190e-01,0.000000000000000000e+00,0.000000000000000000e+00,-3.394066027349079917e+00,-3.970841410399574833e-01,7.218212530620154999e-01,-6.565713745873939799e-02
6.333333333333333037e+00,1.639369783472450018e+09,3.990883328895108439e-01,0.000000000000000000e+00,0.000000000000000000e+00,-3.394066027349079917e+00,-3.524702765538776372e-01,7.206873526638198912e-01,-7.039774166977505465e-02
6.349999999999999645e+00,1.639369783490401030e+09,3.983374704176657066e-01,0.000000000000000000e+00,0.000000000000000000e+00,-3.394066027349079917e+00,-3.162673809448732776e-01,7.194800973320650828e-01,-7.446160935376815171e-02
6.366666666666666252e+00,1.639369783506360292e+09,3.971776665835223818e-01,0.000000000000000000e+00,0.000000000000000000e+00,-3.394066027349079917e+00,-2.889991363435135963e-01,7.182094384792263586e-01,-7.800760277332137449e-02
6.383333333333332860e+00,1.639369783524309397e+09,3.955971919862653619e-01,0.000000000000000000e+00,0.000000000000000000e+00,-3.394066027349079917e+00,-2.710693655840354932e-01,7.168826459793260497e-01,-8.119863303315492942e-02
6.400000000000000355e+00,1.639369783540265799e+09,3.935871020887373728e-01,0.000000000000000000e+00,0.000000000000000000e+00,-3.394066027349079917e+00,-2.627579983377892336e-01,7.155042583586447291e-01,-8.419954538477006367e-02
6.416666666666666963e+00,1.639369783559181690e+09,3.911412579925803712e-01,0.000000000000000000e+00,0.000000000000000000e+00,-3.394066027349079917e+00,-2.642183892290066449e-01,7.140760683096959438e-01,-8.717499515630469653e-02
6.433333333333333570e+00,1.639369783574177504e+09,3.882563244360799914e-01,0.000000000000000000e+00,0.000000000000000000e+00,-3.394066027349079917e+00,-2.754760134215843426e-01,7.125971434931579473e-01,-9.028733723012644097e-02
6.450000000000000178e+00,1.639369783591096163e+09,3.849317452316935451e-01,0.000000000000000000e+00,0.000000000000000000e+00,-3.394066027349079917e+00,-2.964285509846085187e-01,7.110638822120202152e-01,-9.369455179873217854e-02
6.466666666666666785e+00,1.639369783608050823e+09,3.811696965414280158e-01,0.000000000000000000e+00,0.000000000000000000e+00,-3.394066027349079917e+00,-3.268473570595951117e-01,7.094701031669088387e-01,-9.754822870461406226e-02
6.483333333333333393e+00,1.639369783625005245e+09,3.769750185656260411e-01,0.000000000000000000e+00,0.000000000000000000e+00,-3.394066027349079917e+00,-3.663803006080683655e-01,7.078071681352544609e-01,-1.019916320164275386e-01
6.500000000000000000e+00,1.639369783641961575e+09,3.723551263927668553e-01,0.000000000000000000e+00,0.000000000000000000e+00,-3.394066027349079917e+00,-4.145559404567948913e-01,7.060641360634050123e-01,-1.071578656188579559e-01
6.516666666666666607e+00,1.639369783658916235e+09,3.673199009234053847e-01,0.000000000000000000e+00,0.000000000000000000e+00,-3.394066027349079917e+00,-4.707889936221461014e-01,7.042279467235827983e-01,-1.131681595060714807e-01
6.533333333333333215e+00,1.639369783676868439e+09,3.618815609388828514e-01,0.000000000000000000e+00,0.000000000000000000e+00,-3.394066027349079917e+00,-5.343870376215864582e-01,7.022836317701934838e-01,-1.201302951797086627e-01
6.549999999999999822e+00,1.639369783692825317e+09,3.560545175337755941e-01,0.000000000000000000e+00,0.000000000000000000e+00,-3.394066027349079917e+00,-6.045583758042513134e-01,7.002145507356535292e-01,-1.281371870752395226e-01
6.566666666666666430e+00,1.639369783710776806e+09,3.498552122691133137e-01,0.000000000000000000e+00,0.000000000000000000e+00,-3.394066027349079917e+00,-6.804209827797322863e-01,6.980026492376297798e-01,-1.372656352902113241e-01
6.583333333333333037e+00,1.639369783726734877e+09,3.433019405298151083e-01,0.000000000000000000e+00,0.000000000000000000e+00,-3.394066027349079917e+00,-7.610124359165095775e-01,6.956287364301253495e-01,-1.475752630813154387e-01
6.599999999999999645e+00,1.639369783743689299e+09,3.364146616840524295e-01,0.000000000000000000e+00,0.000000000000000000e+00,-3.394066027349079917e+00,-8.453007287294558303e-01,6.930727785226431514e-01,-1.591076506526575562e-01
6.616666666666666252e+00,1.639369783761639595e+09,3.292147977428774297e-01,0.000000000000000000e+00,0.000000000000000000e+00,-3.394066027349079917e+00,-9.321958528821647771e-01,6.903142050168581401e-01,-1.718856746949086745e-01
6.633333333333332860e+00,1.639369783777597189e+09,3.217250223052088298e-01,0.000000000000000000e+00,0.000000000000000000e+00,-3.394066027349079917e+00,-1.020562027586514597e+00,6.873322241706165681e-01,-1.859130609751090124e-01
6.649999999999999467e+00,1.639369783796546698e+09,3.139690416450681698e-01,0.000000000000000000e+00,0.000000000000000000e+00,-3.394066027349079917e+00,-1.109230448468175867e+00,6.841061440960953810e-01,-2.011741550417241453e-01
6.666666666666666963e+00,1.639369783811506510e+09,3.059713698544758165e-01,0.000000000000000000e+00,0.000000000000000000e+00,-3.394066027349079917e+00,-1.197012422551162469e+00,6.806156958336636587e-01,-2.176339138218117697e-01
6.683333333333333570e+00,1.639369783831453323e+09,2.977570999961894338e-01,0.000000000000000000e+00,0.000000000000000000e+00,-3.394066027349079917e+00,-1.282712751951520902e+00,6.768413547160673227e-01,-2.352381185700741228e-01
6.700000000000000178e+00,1.639369783847410440e+09,2.893516732450687190e-01,0.000000000000000000e+00,0.000000000000000000e+00,-3.394066027349079917e+00,-1.365143226201069648e+00,6.727646563493100418e-01,-2.539138073066679602e-01
6.716666666666666785e+00,1.639369783863404036e+09,2.807806480053098852e-01,0.000000000000000000e+00,0.000000000000000000e+00,-3.394066027349079917e+00,-1.443136081874657251e+00,6.683685035869145752e-01,-2.735699225755168218e-01
6.733333333333333393e+00,1.639369783880355597e+09,2.720694709828693769e-01,0.000000000000000000e+00,0.000000000000000000e+00,-3.394066027349079917e+00,-1.515557288380209089e+00,6.636374609626417564e-01,-2.940981680909141582e-01
6.750000000000000000e+00,1.639369783898308516e+09,2.632432521683358839e-01,0.000000000000000000e+00,0.000000000000000000e+00,-3.394066027349079917e+00,-1.581319520391337496e+00,6.585580331723270842e-01,-3.153740656404551146e-01
6.766666666666666607e+00,1.639369783915263891e+09,2.543265456454176787e-01,0.000000000000000000e+00,0.000000000000000000e+00,-3.394066027349079917e+00,-1.639394680438746921e+00,6.531189243570221237e-01,-3.372582014991292176e-01
6.783333333333333215e+00,1.639369783932218552e+09,2.453431380844984799e-01,0.000000000000000000e+00,0.000000000000000000e+00,-3.394066027349079917e+00,-1.688825839601816092e+00,6.473112751354686001e-01,-3.595976496042725956e-01
6.799999999999999822e+00,1.639369783949172497e+09,2.363158467098469551e-01,0.000000000000000000e+00,0.000000000000000000e+00,-3.394066027349079917e+00,-1.728738470010691142e+00,6.411288745621209761e-01,-3.822275568644365462e-01
6.816666666666666430e+00,1.639369783966094017e+09,2.272663284436090281e-01,0.000000000000000000e+00,0.000000000000000000e+00,-3.394066027349079917e+00,-1.758350849924697812e+00,6.345683444451636346e-01,-4.049728742462241904e-01
6.833333333333333037e+00,1.639369783982088089e+09,2.182149018303804200e-01,0.000000000000000000e+00,0.000000000000000000e+00,-3.394066027349079917e+00,-1.776983530425767732e+00,6.276292937446346087e-01,-4.276502157194579379e-01
6.849999999999999645e+00,1.639369784001037121e+09,2.091803832338466063e-01,0.000000000000000000e+00,0.000000000000000000e+00,-3.394066027349079917e+00,-1.784067762172361515e+00,6.203144410809809939e-01,-4.500698257586769890e-01
6.866666666666666252e+00,1.639369784015995502e+09,2.001799386724359420e-01,0.000000000000000000e+00,0.000000000000000000e+00,-3.394066027349079917e+00,-1.779152791107612597e+00,6.126297037159882386e-01,-4.720376349121444548e-01
6.883333333333332860e+00,1.639369784031950712e+09,1.912289525254772526e-01,0.000000000000000000e+00,0.000000000000000000e+00,-3.394066027349079917e+00,-1.761911943400030545e+00,6.045842517176873709e-01,-4.933573819705107666e-01
6.899999999999999467e+00,1.639369784050899029e+09,1.823409141957025859e-01,0.000000000000000000e+00,0.000000000000000000e+00,-3.394066027349079917e+00,-1.732147432102993267e+00,5.961905263850006964e-01,-5.138327805062072873e-01
6.916666666666666963e+00,1.639369784066857576e+09,1.735273236597008051e-01,0.000000000000000000e+00,0.000000000000000000e+00,-3.394066027349079917e+00,-1.689793830928894458e+00,5.874642223828421272e-01,-5.332697070195303590e-01
6.933333333333333570e+00,1.639369784084800243e+09,1.647976166760264372e-01,0.000000000000000000e+00,0.000000000000000000e+00,-3.394066027349079917e+00,-1.634920174015090932e+00,5.784242334203233415e-01,-5.514783876239297555e-01
6.950000000000000178e+00,1.639369784101764917e+09,1.561591102526322661e-01,0.000000000000000000e+00,0.000000000000000000e+00,-3.394066027349079917e+00,-1.567730654478651564e+00,5.690925616897459793e-01,-5.682755601346631824e-01
6.966666666666666785e+00,1.639369784118721008e+09,1.476169688024092097e-01,0.000000000000000000e+00,0.000000000000000000e+00,-3.394066027349079917e+00,-1.488563908774460209e+00,5.594941916682567573e-01,-5.834865885927482676e-01
6.983333333333333393e+00,1.639369784135673761e+09,1.391741912392920888e-01,0.000000000000000000e+00,0.000000000000000000e+00,-3.394066027349079917e+00,-1.397890888245324703e+00,5.496569292634786441e-01,-5.969475076587256179e-01
7.000000000000000000e+00,1.639369784151601315e+09,1.308316190891273545e-01,0.000000000000000000e+00,0.000000000000000000e+00,-3.394066027349079917e+00,-1.296311333638895835e+00,5.396112076552264103e-01,-6.085069749444550480e-01
7.016666666666666607e+00,1.639369784169582844e+09,1.225879655106267840e-01,0.000000000000000000e+00,0.000000000000000000e+00,-3.394066027349079917e+00,-1.184548882620097832e+00,5.293898615437689914e-01,-6.180281102099992596e-01
7.033333333333333215e+00,1.639369784185541153e+09,1.144398649438796295e-01,0.000000000000000000e+00,0.000000000000000000e+00,-3.394066027349079917e+00,-1.063444854286929697e+00,5.190278718573270167e-01,-6.253902014283394539e-01
7.049999999999999822e+00,1.639369784203492641e+09,1.063819429283267282e-01,0.000000000000000000e+00,0.000000000000000000e+00,-3.394066027349079917e+00,-9.339507682606975614e-01,5.085620832940676017e-01,-6.304902590027583464e-01
7.066666666666666430e+00,1.639369784220447540e+09,9.840690546039537745e-02,0.000000000000000000e+00,0.000000000000000000e+00,-3.394066027349079917e+00,-7.971196689334736352e-01,4.980308973734454137e-01,-6.332444008976940708e-01
7.083333333333333037e+00,1.639369784236371994e+09,9.050564709448041811e-02,0.000000000000000000e+00,0.000000000000000000e+00,-3.394066027349079917e+00,-6.540963377840128823e-01,4.874739439452232537e-01,-6.335890530992054348e-01
7.099999999999999645e+00,1.639369784254358053e+09,8.266737683097005740e-02,0.000000000000000000e+00,0.000000000000000000e+00,-3.394066027349079917e+00,-5.061064881948456051e-01,4.769317343490445671e-01,-6.314819516396075194e-01
7.116666666666666252e+00,1.639369784270315409e+09,7.487976068294829868e-02,0.000000000000000000e+00,0.000000000000000000e+00,-3.394066027349079917e+00,-3.544450478010751082e-01,4.664452996304427335e-01,-6.269029343843569579e-01
7.133333333333332860e+00,1.639369784287268162e+09,6.712907967020426137e-02,0.000000000000000000e+00,0.000000000000000000e+00,-3.394066027349079917e+00,-2.004636429679211851e-01,4.560558173984148311e-01,-6.198545128684610495e-01
7.149999999999999467e+00,1.639369784305185556e+09,5.940040185646910942e-02,0.000000000000000000e+00,0.000000000000000000e+00,-3.394066027349079917e+00,-4.555740843317424016e-02,4.458042310532294716e-01,-6.103622166638286162e-01
7.166666666666666963e+00,1.639369784322140217e+09,5.167776692444886466e-02,0.000000000000000000e+00,0.000000000000000000e+00,-3.394066027349079917e+00,1.088487476252231745e-01,4.357308652194188392e-01,-5.984747050362642096e-01
7.183333333333333570e+00,1.639369784339095116e+09,4.394438167423259795e-02,0.000000000000000000e+00,0.000000000000000000e+00,-3.394066027349079917e+00,2.613142868993340029e-01,4.258750412867238766e-01,-5.842636429885803562e-01
7.200000000000000178e+00,1.639369784357046604e+09,3.618282473489753404e-02,0.000000000000000000e+00,0.000000000000000000e+00,-3.394066027349079917e+00,4.103974518553971107e-01,4.162746969903079464e-01,-5.678233411612411130e-01
7.216666666666666785e+00,1.639369784372006893e+09,2.837525869745302978e-02,0.000000000000000000e+00,0.000000000000000000e+00,-3.394066027349079917e+00,5.546698002586087917e-01,4.069660139504052698e-01,-5.492701614503615604e-01
7.233333333333333393e+00,1.639369784387964010e+09,2.050364781023257532e-02,0.000000000000000000e+00,0.000000000000000000e+00,-3.394066027349079917e+00,6.927307175865713429e-01,3.979830570407011381e-01,-5.287416925808812174e-01
7.250000000000000000e+00,1.639369784405916214e+09,1.254997932619470249e-02,0.000000000000000000e+00,0.000000000000000000e+00,-3.394066027349079917e+00,8.232217612933282469e-01,3.893574293645263862e-01,-5.063957022164843336e-01
7.266666666666666607e+00,1.639369784423904181e+09,4.496486555496810068e-03,0.000000000000000000e+00,0.000000000000000000e+00,-3.394066027349079917e+00,9.448406920351613003e-01,3.811179464891508162e-01,-4.824088744738561085e-01
7.283333333333333215e+00,1.639369784440862894e+09,-3.674128343176326361e-03,0.000000000000000000e+00,0.000000000000000000e+00,-3.394066027349079917e+00,1.056355049567850202e+00,3.732903334222407166e-01,-4.569753439141485130e-01
7.299999999999999822e+00,1.639369784456815481e+09,-1.197847380295631418e-02,0.000000000000000000e+00,0.000000000000000000e+00,-3.394066027349079917e+00,1.156615135046947795e+00,3.658969476124275255e-01,-4.303050391868861735e-01
7.316666666666666430e+00,1.639369784473769426e+09,-2.043225247867235320e-02,0.000000000000000000e+00,0.000000000000000000e+00,-3.394066027349079917e+00,1.244566266872113136e+00,3.589565310198181702e-01,-4.026218514797416104e-01
7.333333333333333037e+00,1.639369784490724564e+09,-2.905005099558369622e-02,0.000000000000000000e+00,0.000000000000000000e+00,-3.394066027349079917e+00,1.319260183961764366e+00,3.524839940343938438e-01,-3.741616447616212260e-01
7.349999999999999645e+00,1.639369784507678747e+09,-3.784513770169495306e-02,0.000000000000000000e+00,0.000000000000000000e+00,-3.394066027349079917e+00,1.379865478359506792e+00,3.464902337231546281e-01,-3.451701264777236045e-01
7.366666666666666252e+00,1.639369784525632381e+09,-4.682927024814764749e-02,0.000000000000000000e+00,0.000000000000000000e+00,-3.394066027349079917e+00,1.425676948284147816e+00,3.409819885634270409e-01,-3.159005988465935499e-01
7.383333333333332860e+00,1.639369784542585373e+09,-5.601251474692363341e-02,0.000000000000000000e+00,0.000000000000000000e+00,-3.394066027349079917e+00,1.456123773048384695e+00,3.359617314730857229e-01,-2.866116122054458426e-01
7.399999999999999467e+00,1.639369784560537577e+09,-6.540307816510776417e-02,0.000000000000000000e+00,0.000000000000000000e+00,-3.394066027349079917e+00,1.470776422589624266e+00,3.314276025819135052e-01,-2.575645429377799167e-01
7.416666666666666963e+00,1.639369784576460838e+09,-7.500715551127280778e-02,0.000000000000000000e+00,0.000000000000000000e+00,-3.394066027349079917e+00,1.469352226567856246e+00,3.273733828055029882e-01,-2.290211193852385030e-01
7.433333333333333570e+00,1.639369784593448639e+09,-8.482879325273978699e-02,0.000000000000000000e+00,0.000000000000000000e+00,-3.394066027349079917e+00,1.451719540971711853e+00,3.237885088877320294e-01,-2.012409197846056763e-01
7.450000000000000178e+00,1.639369784610404015e+09,-9.486977027351173319e-02,0.000000000000000000e+00,0.000000000000000000e+00,-3.394066027349079917e+00,1.417900463807064249e+00,3.206581301737951861e-01,-1.744788666738844307e-01
7.466666666666666785e+00,1.639369784627357960e+09,-1.051294975427675416e-01,0.000000000000000000e+00,0.000000000000000000e+00,-3.394066027349079917e+00,1.368072065589002850e+00,3.179632069670164096e-01,-1.489827423739556178e-01
7.483333333333333393e+00,1.639369784645312071e+09,-1.156049375137360447e-01,0.000000000000000000e+00,0.000000000000000000e+00,-3.394066027349079917e+00,1.302566114879555759e+00,3.156806499132287502e-01,-1.249907500721753467e-01
7.500000000000000000e+00,1.639369784662266254e+09,-1.262905441140551588e-01,0.000000000000000000e+00,0.000000000000000000e+00,-3.394066027349079917e+00,1.221867293866276238e+00,3.137834994504313246e-01,-1.027291447116066292e-01
7.516666666666666607e+00,1.639369784678223133e+09,-1.371782240224190541e-01,0.000000000000000000e+00,0.000000000000000000e+00,-3.394066027349079917e+00,1.126609913815997510e+00,3.122411439627398311e-01,-8.240995732698183640e-02
7.533333333333333215e+00,1.639369784697172403e+09,-1.482573197537993270e-01,0.000000000000000000e+00,0.000000000000000000e+00,-3.394066027349079917e+00,1.017573155017631237e+00,3.110195748902937485e-01,-6.422883567090853507e-02
7.549999999999999822e+00,1.639369784712131500e+09,-1.595146148982843348e-01,0.000000000000000000e+00,0.000000000000000000e+00,-3.394066027349079917e+00,8.956748704013264284e-01,3.100816766746256059e-01,-4.836302294855161776e-02
7.566666666666666430e+00,1.639369784729088545e+09,-1.709343616777925234e-01,0.000000000000000000e+00,0.000000000000000000e+00,-3.394066027349079917e+00,7.619640062449872797e-01,3.093875490657517768e-01,-3.496949523559469281e-02
7.583333333333333037e+00,1.639369784745043278e+09,-1.824983308023345741e-01,0.000000000000000000e+00,0.000000000000000000e+00,-3.394066027349079917e+00,6.176117071123430335e-01,3.088948589864460303e-01,-2.418327670441658417e-02
7.599999999999999645e+00,1.639369784764991760e+09,-1.941858834243329612e-01,0.000000000000000000e+00,0.000000000000000000e+00,-3.394066027349079917e+00,4.639011852730453578e-01,3.085592188441341754e-01,-1.611595014088729877e-02
7.616666666666666252e+00,1.639369784780949116e+09,-2.059740648073119795e-01,0.000000000000000000e+00,0.000000000000000000e+00,-3.394066027349079917e+00,3.022164472049559958e-01,3.083345879046794913e-01,-1.085437841468334802e-02
7.633333333333332860e+00,1.639369784798899889e+09,-2.178377191456601358e-01,0.000000000000000000e+00,0.000000000000000000e+00,-3.394066027349079917e+00,1.340299812490605147e-01,3.081736930978180022e-01,-8.459650587004163141e-03
7.649999999999999467e+00,1.639369784815854311e+09,-2.297496247962383942e-01,0.000000000000000000e+00,0.000000000000000000e+00,-3.394066027349079917e+00,-3.911047903615916255e-02,3.080284654136486444e-01,-8.966264220104136137e-03
7.666666666666666963e+00,1.639369784831811428e+09,-2.416806490122471451e-01,0.000000000000000000e+00,0.000000000000000000e+00,-3.394066027349079917e+00,-2.155959918960286825e-01,3.078504878755580210e-01,-1.238155321361399802e-02
7.683333333333333570e+00,1.639369784850760460e+09,-2.535999211058658220e-01,0.000000000000000000e+00,0.000000000000000000e+00,-3.394066027349079917e+00,-3.937711126651670668e-01,3.075914509390772489e-01,-1.868536815488602842e-02
7.700000000000000178e+00,1.639369784866717815e+09,-2.654750228104894583e-01,0.000000000000000000e+00,0.000000000000000000e+00,-3.394066027349079917e+00,-5.719491282945610156e-01,3.072036110698826428e-01,-2.783001375726744039e-02
7.716666666666666785e+00,1.639369784883638382e+09,-2.772721944668574690e-01,0.000000000000000000e+00,0.000000000000000000e+00,-3.394066027349079917e+00,-7.484276765293901290e-01,3.066402481985219808e-01,-3.974044549472992294e-02
7.733333333333333393e+00,1.639369784899636984e+09,-2.889565555214035908e-01,0.000000000000000000e+00,0.000000000000000000e+00,-3.394066027349079917e+00,-9.215046009802687621e-01,3.058561177351459270e-01,-5.431472504769165738e-02
7.750000000000000000e+00,1.639369784916586161e+09,-3.004923377007459040e-01,0.000000000000000000e+00,0.000000000000000000e+00,-3.394066027349079917e+00,-1.089493890606901161e+00,3.048078928548128008e-01,-7.142473167747352691e-02
7.766666666666666607e+00,1.639369784934538364e+09,-3.118431291144353468e-01,0.000000000000000000e+00,0.000000000000000000e+00,-3.394066027349079917e+00,-1.250741550882428887e+00,3.034545928326745079e-01,-9.091712417004241265e-02
7.783333333333333215e+00,1.639369784950501204e+09,-3.229721274398614783e-01,0.000000000000000000e+00,0.000000000000000000e+00,-3.394066027349079917e+00,-1.403641254142821371e+00,3.017579933179970753e-01,-1.126145455577453602e-01
7.799999999999999822e+00,1.639369784968445778e+09,-3.338424002592784157e-01,0.000000000000000000e+00,0.000000000000000000e+00,-3.394066027349079917e+00,-1.546649618347128552e+00,2.996830145855721161e-01,-1.363170604644392270e-01
7.816666666666666430e+00,1.639369784984403610e+09,-3.444171505501027464e-01,0.000000000000000000e+00,0.000000000000000000e+00,-3.394066027349079917e+00,-1.678300966669262539e+00,2.971980839913008765e-01,-1.618038126479890426e-01
7.833333333333333037e+00,1.639369785002355576e+09,-3.546599852764268368e-01,0.000000000000000000e+00,0.000000000000000000e+00,-3.394066027349079917e+00,-1.797221424977176962e+00,2.942754690838598752e-01,-1.888348881568343296e-01
7.849999999999999645e+00,1.639369785018312454e+09,-3.645351849925824728e-01,0.000000000000000000e+00,0.000000000000000000e+00,-3.394066027349079917e+00,-1.902142220290614860e+00,2.908915780843073229e-01,-2.171533674954586879e-01
7.866666666666666252e+00,1.639369785035233498e+09,-3.740079723489427854e-01,0.000000000000000000e+00,0.000000000000000000e+00,-3.394066027349079917e+00,-1.991912050684715219e+00,2.870272247378408137e-01,-2.464875483270707324e-01
7.883333333333332860e+00,1.639369785053218842e+09,-3.830447773861320737e-01,0.000000000000000000e+00,0.000000000000000000e+00,-3.394066027349079917e+00,-2.065508405753924137e+00,2.826678548639228183e-01,-2.765533185490514634e-01
7.899999999999999467e+00,1.639369785069176197e+09,-3.916134975164758947e-01,0.000000000000000000e+00,0.000000000000000000e+00,-3.394066027349079917e+00,-2.122047726585979177e+00,2.778037322796186870e-01,-3.070566580745136553e-01
7.916666666666666963e+00,1.639369785087128639e+09,-3.996837501209491439e-01,0.000000000000000000e+00,0.000000000000000000e+00,-3.394066027349079917e+00,-2.160794305124045245e+00,2.724300821429379571e-01,-3.376962463565670314e-01
7.933333333333333570e+00,1.639369785104083061e+09,-4.072271157355786819e-01,0.000000000000000000e+00,0.000000000000000000e+00,-3.394066027349079917e+00,-2.181167834711526865e+00,2.665471901547056821e-01,-3.681661516135268930e-01
7.950000000000000178e+00,1.639369785120040178e+09,-4.142173698633573320e-01,0.000000000000000000e+00,0.000000000000000000e+00,-3.394066027349079917e+00,-2.182749536402504464e+00,2.601604564652816864e-01,-3.981585768641446310e-01
7.966666666666666785e+00,1.639369785137992144e+09,-4.206307015252330750e-01,0.000000000000000000e+00,0.000000000000000000e+00,-3.394066027349079917e+00,-2.165286799158300912e+00,2.532804035524032771e-01,-4.273666372705712257e-01
7.983333333333333393e+00,1.639369785158909321e+09,-4.264459167566189146e-01,0.000000000000000000e+00,0.000000000000000000e+00,-3.394066027349079917e+00,-2.128696286205189026e+00,2.459226377645351014e-01,-4.554871429194561894e-01
8.000000000000000000e+00,1.639369785174871922e+09,-4.316446253629973584e-01,0.000000000000000000e+00,0.000000000000000000e+00,-3.394066027349079917e+00,-2.073065474462787883e+00,2.381077646562664019e-01,-4.822233610522339564e-01
8.016666666666665719e+00,1.639369785188822508e+09,-4.362114093690050987e-01,0.000000000000000000e+00,0.000000000000000000e+00,-3.394066027349079917e+00,-1.998652608924880614e+00,2.298612586743584985e-01,-5.072877318857407225e-01
8.033333333333333215e+00,1.639369785205812693e+09,-4.401339717289263209e-01,0.000000000000000000e+00,0.000000000000000000e+00,-3.394066027349079917e+00,-1.905885069038604440e+00,2.212132881808621387e-01,-5.304045125428877849e-01
8.050000000000000711e+00,1.639369785223803997e+09,-4.434032640116206125e-01,0.000000000000000000e+00,0.000000000000000000e+00,-3.394066027349079917e+00,-1.795356159336761070e+00,2.121984972191844065e-01,-5.513123242368227483e-01
8.066666666666666430e+00,1.639369785239766836e+09,-4.460135919287290251e-01,0.000000000000000000e+00,0.000000000000000000e+00,-3.394066027349079917e+00,-1.667820351683221958e+00,2.028557458360477905e-01,-5.697665787150731909e-01
8.083333333333333925e+00,1.639369785256679773e+09,-4.479626977400368304e-01,0.000000000000000000e+00,0.000000000000000000e+00,-3.394066027349079917e+00,-1.524187021345727144e+00,1.932278111630321149e-01,-5.855417610644862991e-01
8.099999999999999645e+00,1.639369785272672653e+09,-4.492518187430939447e-01,0.000000000000000000e+00,0.000000000000000000e+00,-3.394066027349079917e+00,-1.365512733569778536e+00,1.833610518320518690e-01,-5.984335472930023547e-01
8.116666666666667140e+00,1.639369785291620731e+09,-4.498857212341171308e-01,0.000000000000000000e+00,0.000000000000000000e+00,-3.394066027349079917e+00,-1.192992151249979926e+00,1.733050386461223447e-01,-6.082607366279058070e-01
8.133333333333332860e+00,1.639369785308575392e+09,-4.498727095124862019e-01,0.000000000000000000e+00,0.000000000000000000e+00,-3.394066027349079917e+00,-1.007947647545540670e+00,1.631121547467557220e-01,-6.148669801876315288e-01
8.150000000000000355e+00,1.639369785325530767e+09,-4.492246096903659280e-01,0.000000000000000000e+00,0.000000000000000000e+00,-3.394066027349079917e+00,-8.118177197368469100e-01,1.528371688092092506e-01,-6.181222895790324801e-01
8.166666666666666075e+00,1.639369785342451096e+09,-4.479567282606261580e-01,0.000000000000000000e+00,0.000000000000000000e+00,-3.394066027349079917e+00,-6.061443121455520888e-01,1.425367850537784808e-01,-6.179243110260276284e-01
8.183333333333333570e+00,1.639369785359439135e+09,-4.460877855688358262e-01,0.000000000000000000e+00,0.000000000000000000e+00,-3.394066027349079917e+00,-3.925591664334827091e-01,1.322691740828998708e-01,-6.141993528290403681e-01
8.199999999999999289e+00,1.639369785375396490e+09,-4.436398245271838126e-01,0.000000000000000000e+00,0.000000000000000000e+00,-3.394066027349079917e+00,-1.727693269485229277e-01,1.220934887378513495e-01,-6.069031562664671808e-01
8.216666666666666785e+00,1.639369785392352819e+09,-4.406380950981532707e-01,0.000000000000000000e+00,0.000000000000000000e+00,-3.394066027349079917e+00,5.145806308785377814e-02,1.120693693135307312e-01,-5.960214024573490255e-01
8.233333333333332504e+00,1.639369785409305811e+09,-4.371109152622762450e-01,0.000000000000000000e+00,0.000000000000000000e+00,-3.394066027349079917e+00,2.783115319404815824e-01,1.022564425737408911e-01,-5.815699501852178432e-01
8.250000000000000000e+00,1.639369785426258564e+09,-4.330895093657590733e-01,0.000000000000000000e+00,0.000000000000000000e+00,-3.394066027349079917e+00,5.059514682122884244e-01,9.271381907160484992e-02,-5.635948022128769441e-01
8.266666666666665719e+00,1.639369785444212198e+09,-4.286078249188292055e-01,0.000000000000000000e+00,0.000000000000000000e+00,-3.394066027349079917e+00,7.325265761189077018e-01,8.349959329955931875e-02,-5.421718001721829161e-01
8.283333333333333215e+00,1.639369785460170984e+09,-4.237023290829469158e-01,0.000000000000000000e+00,0.000000000000000000e+00,-3.394066027349079917e+00,9.561904425657505868e-01,7.467035117062949257e-02,-5.174060506671572801e-01
8.300000000000000711e+00,1.639369785478121281e+09,-4.184117862431513957e-01,0.000000000000000000e+00,0.000000000000000000e+00,-3.394066027349079917e+00,1.175118060351786564e+00,6.628068926757825496e-02,-4.894310877582429553e-01
8.316666666666666430e+00,1.639369785494045496e+09,-4.127770182096843210e-01,0.000000000000000000e+00,0.000000000000000000e+00,-3.394066027349079917e+00,1.387522152265795672e+00,5.838275018966525981e-02,-4.584077794759000568e-01
8.333333333333333925e+00,1.639369785511998653e+09,-4.068406487292712259e-01,0.000000000000000000e+00,0.000000000000000000e+00,-3.394066027349079917e+00,1.591669142784010615e+00,5.102577817916546105e-02,-4.245229884190001024e-01
8.349999999999999645e+00,1.639369785528986692e+09,-4.006468341102442099e-01,0.000000000000000000e+00,0.000000000000000000e+00,-3.394066027349079917e+00,1.785894627495156373e+00,4.425569902289357149e-02,-3.879879988044755978e-01
8.366666666666667140e+00,1.639369785546942949e+09,-3.942409818757194317e-01,0.000000000000000000e+00,0.000000000000000000e+00,-3.394066027349079917e+00,1.968618195242713309e+00,3.811472799955271246e-02,-3.490367245270895036e-01
8.383333333333332860e+00,1.639369785563892603e+09,-3.876694594548774075e-01,0.000000000000000000e+00,0.000000000000000000e+00,-3.394066027349079917e+00,2.138357464234795113e+00,3.264100938392439089e-02,-3.079237148408812685e-01
8.400000000000000355e+00,1.639369785580848217e+09,-3.809792950027711678e-01,0.000000000000000000e+00,0.000000000000000000e+00,-3.394066027349079917e+00,2.293741200966207483e+00,2.786829072623682457e-02,-2.649219761670902340e-01
8.416666666666666075e+00,1.639369785598764658e+09,-3.742178725038380338e-01,0.000000000000000000e+00,0.000000000000000000e+00,-3.394066027349079917e+00,2.433521399655261597e+00,2.382563480229941619e-02,-2.203206302488984747e-01
8.433333333333333570e+00,1.639369785616750717e+09,-3.674326233624918836e-01,0.000000000000000000e+00,0.000000000000000000e+00,-3.394066027349079917e+00,2.556584209927516671e+00,2.053717178027179846e-02,-1.744224303947455867e-01
8.449999999999999289e+00,1.639369785632707596e+09,-3.606707167157639504e-01,0.000000000000000000e+00,0.000000000000000000e+00,-3.394066027349079917e+00,2.661959611587506380e+00,1.802189377660422601e-02,-1.275411588646195860e-01
8.466666666666666785e+00,1.639369785650660276e+09,-3.539787507174058101e-01,0.000000000000000000e+00,0.000000000000000000e+00,-3.394066027349079917e+00,2.748829747393541467e+00,1.629349358032583517e-02,-7.999892954511550469e-02
8.483333333333332504e+00,1.639369785667613268e+09,-3.474024470402354847e-01,0.000000000000000000e+00,0.000000000000000000e+00,-3.394066027349079917e+00,2.816535837676982013e+00,1.536024891524336890e-02,-3.212342091874999944e-02
8.500000000000000000e+00,1.639369785683571577e+09,-3.409863508236848917e-01,0.000000000000000000e+00,0.000000000000000000e+00,-3.394066027349079917e+00,2.864583614295198366e+00,1.522495318767465300e-02,1.575493504707201758e-02
8.516666666666665719e+00,1.639369785701523542e+09,-3.347735382567016416e-01,0.000000000000000000e+00,0.000000000000000000e+00,-3.394066027349079917e+00,2.892647225647328568e+00,1.588489323712327303e-02,6.330578209174553272e-02
8.533333333333333215e+00,1.639369785718478680e+09,-3.288053339325687774e-01,0.000000000000000000e+00,0.000000000000000000e+00,-3.394066027349079917e+00,2.900571579171777437e+00,1.733187417292562579e-02,1.102016608088061261e-01
8.550000000000000711e+00,1.639369785735433578e+09,-3.231210400423124018e-01,0.000000000000000000e+00,0.000000000000000000e+00,-3.394066027349079917e+00,2.888373102743469367e+00,1.955229094552659794e-02,1.561207957485963027e-01
8.566666666666666430e+00,1.639369785751391649e+09,-3.177576793876238370e-01,0.000000000000000000e+00,0.000000000000000000e+00,-3.394066027349079917e+00,2.856238921548710508e+00,2.252724587081987931e-02,2.007498228491148562e-01
8.583333333333333925e+00,1.639369785768352032e+09,-3.127497540933399933e-01,0.000000000000000000e+00,0.000000000000000000e+00,-3.394066027349079917e+00,2.804524462190177481e+00,2.623271090403278549e-02,2.437864321857382277e-01
8.599999999999999645e+00,1.639369785786297321e+09,-3.081290217842548862e-01,0.000000000000000000e+00,0.000000000000000000e+00,-3.394066027349079917e+00,2.733749510814957429e+00,3.063973304996853858e-02,2.849419018867184183e-01
8.616666666666667140e+00,1.639369785801223516e+09,-3.039242908621864192e-01,0.000000000000000000e+00,0.000000000000000000e+00,-3.394066027349079917e+00,2.644592766819196861e+00,3.571468090294279557e-02,3.239435001473974229e-01
8.633333333333332860e+00,1.639369785819209337e+09,-3.001612363779689874e-01,0.000000000000000000e+00,0.000000000000000000e+00,-3.394066027349079917e+00,2.537884948019287101e+00,4.141952993620582474e-02,3.605367335811224816e-01
8.650000000000000355e+00,1.639369785836166143e+09,-2.968622378402102080e-01,0.000000000000000000e+00,0.000000000000000000e+00,-3.394066027349079917e+00,2.414600516953962828e+00,4.771218381056931135e-02,3.944874216559917102e-01
8.666666666666666075e+00,1.639369785854115486e+09,-2.940462401396705672e-01,0.000000000000000000e+00,0.000000000000000000e+00,-3.394066027349079917e+00,2.275848111057769074e+00,5.454682864866747249e-02,4.255835786688563771e-01
8.683333333333333570e+00,1.639369785870073318e+09,-2.917286385960604078e-01,0.000000000000000000e+00,0.000000000000000000e+00,-3.394066027349079917e+00,2.122859771701285148e+00,6.187431692782197762e-02,4.536370865847232925e-01
8.699999999999999289e+00,1.639369785888024807e+09,-2.899211889543271692e-01,0.000000000000000000e+00,0.000000000000000000e+00,-3.394066027349079917e+00,1.956979078403629169e+00,6.964257738360174477e-02,4.784851441023373342e-01
8.716666666666666785e+00,1.639369785903982401e+09,-2.886319429715011320e-01,0.000000000000000000e+00,0.000000000000000000e+00,-3.394066027349079917e+00,1.779648304784815727e+00,7.779704709030377252e-02,4.999914794753822500e-01
8.733333333333332504e+00,1.639369785920937300e+09,-2.878652100442342654e-01,0.000000000000000000e+00,0.000000000000000000e+00,-3.394066027349079917e+00,1.592394721933977353e+00,8.628112169581961255e-02,5.180473169020993751e-01
8.750000000000000000e+00,1.639369785937892199e+09,-2.876215451329398598e-01,0.000000000000000000e+00,0.000000000000000000e+00,-3.394066027349079917e+00,1.396816182743816359e+00,9.503661963841833482e-02,5.325720886718975366e-01
