# 
# 
# 
# 
# 
# 
# 
# 
# 
# 
# time,realtime,ref,inp,dis,state...
0.000000000000000000e+00,1.643939492255909681e+09,0.000000000000000000e+00,9.150196891484072559e-01,0.000000000000000000e+00,5.095791295802324372e-01
1.666666666666666644e-02,1.643939492256932974e+09,0.000000000000000000e+00,5.095791295802324372e-01,7.148236327194282813e-01,5.095791295802324372e-01
3.333333333333333287e-02,1.643939492259898901e+09,0.000000000000000000e+00,9.310445523559096603e-01,0.000000000000000000e+00,9.310445523559096603e-01
5.000000000000000278e-02,1.643939492275886297e+09,0.000000000000000000e+00,9.310445523559096603e-01,0.000000000000000000e+00,9.310445523559096603e-01
6.666666666666666574e-02,1.643939492292837143e+09,0.000000000000000000e+00,9.150196891484072559e-01,0.000000000000000000e+00,9.150196891484072559e-01
8.333333333333332871e-02,1.643939492308794737e+09,0.000000000000000000e+00,9.310445523559096603e-01,0.000000000000000000e+00,9.310445523559096603e-01
1.000000000000000056e-01,1.643939492324751854e+09,0.000000000000000000e+00,9.310445523559096603e-01,0.000000000000000000e+00,9.310445523559096603e-01
1.166666666666666685e-01,1.643939492342703581e+09,0.000000000000000000e+00,9.150196891484072559e-01,0.000000000000000000e+00,9.150196891484072559e-01
1.333333333333333315e-01,1.643939492360856295e+09,0.000000000000000000e+00,9.310445523559096603e-01,0.000000000000000000e+00,9.310445523559096603e-01
1.499999999999999944e-01,1.643939492376904011e+09,0.000000000000000000e+00,9.310445523559096603e-01,0.000000000000000000e+00,9.310445523559096603e-01
1.666666666666666574e-01,1.643939492392630339e+09,0.000000000000000000e+00,9.150196891484072559e-01,0.000000000000000000e+00,9.150196891484072559e-01
1.833333333333333204e-01,1.643939492408555508e+09,0.000000000000000000e+00,9.310445523559096603e-01,0.000000000000000000e+00,9.310445523559096603e-01
2.000000000000000111e-01,1.643939492425510645e+09,0.000000000000000000e+00,9.310445523559096603e-01,0.000000000000000000e+00,9.310445523559096603e-01
2.166666666666666741e-01,1.643939492442464828e+09,0.000000000000000000e+00,9.310445523559096603e-01,0.000000000000000000e+00,9.310445523559096603e-01
2.333333333333333370e-01,1.643939492460417509e+09,0.000000000000000000e+00,9.150196891484072559e-01,0.000000000000000000e+00,9.150196891484072559e-01
2.500000000000000000e-01,1.643939492478369236e+09,0.000000000000000000e+00,9.150196891484072559e-01,0.000000000000000000e+00,9.150196891484072559e-01
2.666666666666666630e-01,1.643939492493328810e+09,0.000000000000000000e+00,9.150196891484072559e-01,0.000000000000000000e+00,9.150196891484072559e-01
2.833333333333333259e-01,1.643939492511281013e+09,0.000000000000000000e+00,9.310445523559096603e-01,0.000000000000000000e+00,9.310445523559096603e-01
2.999999999999999889e-01,1.643939492527491808e+09,0.000000000000000000e+00,9.310445523559096603e-01,0.000000000000000000e+00,9.310445523559096603e-01
3.166666666666666519e-01,1.643939492543448448e+09,0.000000000000000000e+00,9.310445523559096603e-01,0.000000000000000000e+00,9.310445523559096603e-01
3.333333333333333148e-01,1.643939492562588453e+09,0.000000000000000000e+00,9.150196891484072559e-01,0.000000000000000000e+00,9.150196891484072559e-01
3.499999999999999778e-01,1.643939492579543829e+09,0.000000000000000000e+00,9.150196891484072559e-01,0.000000000000000000e+00,9.150196891484072559e-01
3.666666666666666408e-01,1.643939492595502615e+09,0.000000000000000000e+00,9.150196891484072559e-01,0.000000000000000000e+00,9.150196891484072559e-01
3.833333333333333037e-01,1.643939492611624479e+09,0.000000000000000000e+00,9.150196891484072559e-01,0.000000000000000000e+00,9.150196891484072559e-01
4.000000000000000222e-01,1.643939492628923893e+09,0.000000000000000000e+00,9.150196891484072559e-01,0.000000000000000000e+00,9.150196891484072559e-01
4.166666666666666852e-01,1.643939492646191359e+09,0.000000000000000000e+00,9.150196891484072559e-01,0.000000000000000000e+00,9.150196891484072559e-01
4.333333333333333481e-01,1.643939492663146257e+09,0.000000000000000000e+00,9.150196891484072559e-01,0.000000000000000000e+00,9.150196891484072559e-01
4.500000000000000111e-01,1.643939492681099892e+09,0.000000000000000000e+00,9.310445523559096603e-01,0.000000000000000000e+00,9.310445523559096603e-01
4.666666666666666741e-01,1.643939492698028326e+09,0.000000000000000000e+00,9.150196891484072559e-01,0.000000000000000000e+00,9.150196891484072559e-01
4.833333333333333370e-01,1.643939492714309454e+09,0.000000000000000000e+00,9.310445523559096603e-01,0.000000000000000000e+00,9.310445523559096603e-01
5.000000000000000000e-01,1.643939492731495380e+09,0.000000000000000000e+00,9.310445523559096603e-01,0.000000000000000000e+00,9.310445523559096603e-01
5.166666666666666075e-01,1.643939492749474049e+09,0.000000000000000000e+00,9.150196891484072559e-01,0.000000000000000000e+00,9.150196891484072559e-01
5.333333333333333259e-01,1.643939492765556097e+09,0.000000000000000000e+00,9.150196891484072559e-01,0.000000000000000000e+00,9.150196891484072559e-01
5.500000000000000444e-01,1.643939492782573938e+09,0.000000000000000000e+00,9.150196891484072559e-01,0.000000000000000000e+00,9.150196891484072559e-01
5.666666666666666519e-01,1.643939492799528122e+09,0.000000000000000000e+00,9.310445523559096603e-01,0.000000000000000000e+00,9.310445523559096603e-01
5.833333333333333703e-01,1.643939492817436695e+09,0.000000000000000000e+00,9.150196891484072559e-01,0.000000000000000000e+00,9.150196891484072559e-01
5.999999999999999778e-01,1.643939492833525658e+09,0.000000000000000000e+00,9.150196891484072559e-01,0.000000000000000000e+00,9.150196891484072559e-01
6.166666666666666963e-01,1.643939492849848509e+09,0.000000000000000000e+00,9.150196891484072559e-01,0.000000000000000000e+00,9.150196891484072559e-01
6.333333333333333037e-01,1.643939492866806269e+09,0.000000000000000000e+00,9.150196891484072559e-01,0.000000000000000000e+00,9.150196891484072559e-01
6.500000000000000222e-01,1.643939492884756088e+09,0.000000000000000000e+00,9.150196891484072559e-01,0.000000000000000000e+00,9.150196891484072559e-01
6.666666666666666297e-01,1.643939492901712418e+09,0.000000000000000000e+00,9.150196891484072559e-01,0.000000000000000000e+00,9.150196891484072559e-01
6.833333333333333481e-01,1.643939492918665171e+09,0.000000000000000000e+00,9.150196891484072559e-01,0.000000000000000000e+00,9.150196891484072559e-01
6.999999999999999556e-01,1.643939492938136816e+09,0.000000000000000000e+00,9.150196891484072559e-01,0.000000000000000000e+00,9.150196891484072559e-01
7.166666666666666741e-01,1.643939492952102423e+09,0.000000000000000000e+00,9.150196891484072559e-01,0.000000000000000000e+00,9.150196891484072559e-01
7.333333333333332815e-01,1.643939492970051527e+09,0.000000000000000000e+00,9.310445523559096603e-01,0.000000000000000000e+00,9.310445523559096603e-01
7.500000000000000000e-01,1.643939492985314608e+09,0.000000000000000000e+00,9.310445523559096603e-01,0.000000000000000000e+00,9.310445523559096603e-01
7.666666666666666075e-01,1.643939493003312826e+09,0.000000000000000000e+00,9.150196891484072559e-01,0.000000000000000000e+00,9.150196891484072559e-01
7.833333333333333259e-01,1.643939493020229816e+09,0.000000000000000000e+00,9.150196891484072559e-01,0.000000000000000000e+00,9.150196891484072559e-01
8.000000000000000444e-01,1.643939493037199497e+09,0.000000000000000000e+00,9.310445523559096603e-01,0.000000000000000000e+00,9.310445523559096603e-01
8.166666666666666519e-01,1.643939493055277824e+09,0.000000000000000000e+00,9.150196891484072559e-01,0.000000000000000000e+00,9.150196891484072559e-01
8.333333333333333703e-01,1.643939493071402788e+09,0.000000000000000000e+00,9.310445523559096603e-01,0.000000000000000000e+00,9.310445523559096603e-01
8.499999999999999778e-01,1.643939493089386225e+09,0.000000000000000000e+00,9.150196891484072559e-01,0.000000000000000000e+00,9.150196891484072559e-01
8.666666666666666963e-01,1.643939493104692221e+09,0.000000000000000000e+00,9.150196891484072559e-01,0.000000000000000000e+00,9.150196891484072559e-01
8.833333333333333037e-01,1.643939493122647762e+09,0.000000000000000000e+00,9.310445523559096603e-01,0.000000000000000000e+00,9.310445523559096603e-01
9.000000000000000222e-01,1.643939493138605356e+09,0.000000000000000000e+00,9.310445523559096603e-01,0.000000000000000000e+00,9.310445523559096603e-01
9.166666666666666297e-01,1.643939493154713392e+09,0.000000000000000000e+00,9.310445523559096603e-01,0.000000000000000000e+00,9.310445523559096603e-01
9.333333333333333481e-01,1.643939493171093702e+09,0.000000000000000000e+00,9.150196891484072559e-01,0.000000000000000000e+00,9.150196891484072559e-01
9.499999999999999556e-01,1.643939493189075232e+09,0.000000000000000000e+00,9.150196891484072559e-01,0.000000000000000000e+00,9.150196891484072559e-01
9.666666666666666741e-01,1.643939493205051661e+09,0.000000000000000000e+00,9.310445523559096603e-01,0.000000000000000000e+00,9.310445523559096603e-01
9.833333333333332815e-01,1.643939493222957611e+09,0.000000000000000000e+00,9.150196891484072559e-01,0.000000000000000000e+00,9.150196891484072559e-01
1.000000000000000000e+00,1.643939493239905119e+09,0.000000000000000000e+00,9.150196891484072559e-01,0.000000000000000000e+00,9.150196891484072559e-01
1.016666666666666607e+00,1.643939493254949331e+09,0.000000000000000000e+00,9.310445523559096603e-01,0.000000000000000000e+00,9.310445523559096603e-01
1.033333333333333215e+00,1.643939493272895813e+09,0.000000000000000000e+00,9.150196891484072559e-01,0.000000000000000000e+00,9.150196891484072559e-01
1.050000000000000044e+00,1.643939493289858103e+09,0.000000000000000000e+00,9.310445523559096603e-01,0.000000000000000000e+00,9.310445523559096603e-01
1.066666666666666652e+00,1.643939493306353569e+09,0.000000000000000000e+00,9.150196891484072559e-01,0.000000000000000000e+00,9.150196891484072559e-01
1.083333333333333259e+00,1.643939493322333097e+09,0.000000000000000000e+00,9.150196891484072559e-01,0.000000000000000000e+00,9.150196891484072559e-01
1.100000000000000089e+00,1.643939493341236591e+09,0.000000000000000000e+00,9.150196891484072559e-01,0.000000000000000000e+00,9.150196891484072559e-01
1.116666666666666696e+00,1.643939493356197357e+09,0.000000000000000000e+00,9.150196891484072559e-01,0.000000000000000000e+00,9.150196891484072559e-01
1.133333333333333304e+00,1.643939493373184443e+09,0.000000000000000000e+00,9.310445523559096603e-01,0.000000000000000000e+00,9.310445523559096603e-01
1.149999999999999911e+00,1.643939493391134739e+09,0.000000000000000000e+00,9.150196891484072559e-01,0.000000000000000000e+00,9.150196891484072559e-01
1.166666666666666741e+00,1.643939493408056736e+09,0.000000000000000000e+00,9.150196891484072559e-01,0.000000000000000000e+00,9.150196891484072559e-01
1.183333333333333348e+00,1.643939493426041126e+09,0.000000000000000000e+00,9.150196891484072559e-01,0.000000000000000000e+00,9.150196891484072559e-01
1.199999999999999956e+00,1.643939493441966295e+09,0.000000000000000000e+00,9.150196891484072559e-01,0.000000000000000000e+00,9.150196891484072559e-01
1.216666666666666563e+00,1.643939493460915804e+09,0.000000000000000000e+00,9.150196891484072559e-01,0.000000000000000000e+00,9.150196891484072559e-01
1.233333333333333393e+00,1.643939493476873159e+09,0.000000000000000000e+00,9.150196891484072559e-01,0.000000000000000000e+00,9.150196891484072559e-01
1.250000000000000000e+00,1.643939493495848894e+09,0.000000000000000000e+00,9.150196891484072559e-01,0.000000000000000000e+00,9.150196891484072559e-01
1.266666666666666607e+00,1.643939493511779785e+09,0.000000000000000000e+00,9.150196891484072559e-01,0.000000000000000000e+00,9.150196891484072559e-01
1.283333333333333215e+00,1.643939493528734446e+09,0.000000000000000000e+00,9.310445523559096603e-01,0.000000000000000000e+00,9.310445523559096603e-01
1.300000000000000044e+00,1.643939493545721292e+09,0.000000000000000000e+00,9.150196891484072559e-01,0.000000000000000000e+00,9.150196891484072559e-01
1.316666666666666652e+00,1.643939493564640284e+09,0.000000000000000000e+00,9.150196891484072559e-01,0.000000000000000000e+00,9.150196891484072559e-01
1.333333333333333259e+00,1.643939493582590818e+09,0.000000000000000000e+00,9.150196891484072559e-01,0.000000000000000000e+00,9.150196891484072559e-01
1.350000000000000089e+00,1.643939493596772432e+09,0.000000000000000000e+00,9.150196891484072559e-01,0.000000000000000000e+00,9.150196891484072559e-01
1.366666666666666696e+00,1.643939493615086794e+09,0.000000000000000000e+00,9.310445523559096603e-01,0.000000000000000000e+00,9.310445523559096603e-01
1.383333333333333304e+00,1.643939493632567406e+09,0.000000000000000000e+00,9.150196891484072559e-01,0.000000000000000000e+00,9.150196891484072559e-01
1.399999999999999911e+00,1.643939493645558834e+09,0.000000000000000000e+00,9.150196891484072559e-01,0.000000000000000000e+00,9.150196891484072559e-01
1.416666666666666741e+00,1.643939493662513018e+09,0.000000000000000000e+00,9.150196891484072559e-01,0.000000000000000000e+00,9.150196891484072559e-01
1.433333333333333348e+00,1.643939493679466963e+09,0.000000000000000000e+00,9.150196891484072559e-01,0.000000000000000000e+00,9.150196891484072559e-01
1.449999999999999956e+00,1.643939493698391438e+09,0.000000000000000000e+00,9.150196891484072559e-01,0.000000000000000000e+00,9.150196891484072559e-01
1.466666666666666563e+00,1.643939493713375807e+09,0.000000000000000000e+00,9.310445523559096603e-01,0.000000000000000000e+00,9.310445523559096603e-01
1.483333333333333393e+00,1.643939493729333162e+09,0.000000000000000000e+00,9.150196891484072559e-01,0.000000000000000000e+00,9.150196891484072559e-01
1.500000000000000000e+00,1.643939493747260809e+09,0.000000000000000000e+00,9.310445523559096603e-01,0.000000000000000000e+00,9.310445523559096603e-01
1.516666666666666607e+00,1.643939493765247583e+09,0.000000000000000000e+00,9.150196891484072559e-01,0.000000000000000000e+00,9.150196891484072559e-01
1.533333333333333215e+00,1.643939493782191992e+09,0.000000000000000000e+00,9.150196891484072559e-01,0.000000000000000000e+00,9.150196891484072559e-01
1.550000000000000044e+00,1.643939493804133892e+09,0.000000000000000000e+00,9.150196891484072559e-01,0.000000000000000000e+00,9.150196891484072559e-01
1.566666666666666652e+00,1.643939493818230867e+09,0.000000000000000000e+00,9.310445523559096603e-01,0.000000000000000000e+00,9.310445523559096603e-01
1.583333333333333259e+00,1.643939493841207027e+09,0.000000000000000000e+00,9.150196891484072559e-01,0.000000000000000000e+00,9.150196891484072559e-01
1.600000000000000089e+00,1.643939493861173630e+09,0.000000000000000000e+00,9.150196891484072559e-01,0.000000000000000000e+00,9.150196891484072559e-01
1.616666666666666696e+00,1.643939493870517969e+09,0.000000000000000000e+00,9.150196891484072559e-01,0.000000000000000000e+00,9.150196891484072559e-01
1.633333333333333304e+00,1.643939493888146400e+09,0.000000000000000000e+00,9.310445523559096603e-01,0.000000000000000000e+00,9.310445523559096603e-01
1.649999999999999911e+00,1.643939493906076908e+09,0.000000000000000000e+00,9.310445523559096603e-01,0.000000000000000000e+00,9.310445523559096603e-01
1.666666666666666741e+00,1.643939493922031164e+09,0.000000000000000000e+00,9.150196891484072559e-01,0.000000000000000000e+00,9.150196891484072559e-01
1.683333333333333348e+00,1.643939493940043688e+09,0.000000000000000000e+00,9.150196891484072559e-01,0.000000000000000000e+00,9.150196891484072559e-01
1.699999999999999956e+00,1.643939493957026958e+09,0.000000000000000000e+00,9.150196891484072559e-01,0.000000000000000000e+00,9.150196891484072559e-01
1.716666666666666563e+00,1.643939493972189426e+09,0.000000000000000000e+00,9.150196891484072559e-01,0.000000000000000000e+00,9.150196891484072559e-01
1.733333333333333393e+00,1.643939493990725517e+09,0.000000000000000000e+00,9.150196891484072559e-01,0.000000000000000000e+00,9.150196891484072559e-01
1.750000000000000000e+00,1.643939494007680416e+09,0.000000000000000000e+00,9.150196891484072559e-01,0.000000000000000000e+00,9.150196891484072559e-01
1.766666666666666607e+00,1.643939494025279522e+09,0.000000000000000000e+00,9.150196891484072559e-01,0.000000000000000000e+00,9.150196891484072559e-01
1.783333333333333215e+00,1.643939494042095184e+09,0.000000000000000000e+00,9.150196891484072559e-01,0.000000000000000000e+00,9.150196891484072559e-01
1.800000000000000044e+00,1.643939494058026314e+09,0.000000000000000000e+00,9.150196891484072559e-01,0.000000000000000000e+00,9.150196891484072559e-01
1.816666666666666652e+00,1.643939494074309587e+09,0.000000000000000000e+00,9.310445523559096603e-01,0.000000000000000000e+00,9.310445523559096603e-01
1.833333333333333259e+00,1.643939494090775728e+09,0.000000000000000000e+00,9.310445523559096603e-01,0.000000000000000000e+00,9.310445523559096603e-01
1.849999999999999867e+00,1.643939494109116793e+09,0.000000000000000000e+00,9.150196891484072559e-01,0.000000000000000000e+00,9.150196891484072559e-01
1.866666666666666696e+00,1.643939494124044895e+09,0.000000000000000000e+00,9.310445523559096603e-01,0.000000000000000000e+00,9.310445523559096603e-01
1.883333333333333304e+00,1.643939494141175270e+09,0.000000000000000000e+00,9.310445523559096603e-01,0.000000000000000000e+00,9.310445523559096603e-01
1.899999999999999911e+00,1.643939494159585238e+09,0.000000000000000000e+00,9.310445523559096603e-01,0.000000000000000000e+00,9.310445523559096603e-01
1.916666666666666741e+00,1.643939494176602840e+09,0.000000000000000000e+00,9.310445523559096603e-01,0.000000000000000000e+00,9.310445523559096603e-01
1.933333333333333348e+00,1.643939494194554329e+09,0.000000000000000000e+00,9.150196891484072559e-01,0.000000000000000000e+00,9.150196891484072559e-01
1.949999999999999956e+00,1.643939494210928202e+09,0.000000000000000000e+00,9.310445523559096603e-01,0.000000000000000000e+00,9.310445523559096603e-01
1.966666666666666563e+00,1.643939494227873802e+09,0.000000000000000000e+00,9.150196891484072559e-01,0.000000000000000000e+00,9.150196891484072559e-01
1.983333333333333393e+00,1.643939494245825052e+09,0.000000000000000000e+00,9.150196891484072559e-01,0.000000000000000000e+00,9.150196891484072559e-01
2.000000000000000000e+00,1.643939494262781143e+09,0.000000000000000000e+00,9.150196891484072559e-01,0.000000000000000000e+00,9.150196891484072559e-01
2.016666666666666607e+00,1.643939494279709101e+09,0.000000000000000000e+00,9.150196891484072559e-01,0.000000000000000000e+00,9.150196891484072559e-01
2.033333333333333215e+00,1.643939494297689676e+09,0.000000000000000000e+00,9.150196891484072559e-01,0.000000000000000000e+00,9.150196891484072559e-01
2.049999999999999822e+00,1.643939494313648224e+09,0.000000000000000000e+00,9.150196891484072559e-01,0.000000000000000000e+00,9.150196891484072559e-01
2.066666666666666430e+00,1.643939494329818726e+09,0.000000000000000000e+00,9.150196891484072559e-01,0.000000000000000000e+00,9.150196891484072559e-01
2.083333333333333481e+00,1.643939494346126318e+09,0.000000000000000000e+00,9.150196891484072559e-01,0.000000000000000000e+00,9.150196891484072559e-01
2.100000000000000089e+00,1.643939494362083435e+09,0.000000000000000000e+00,9.310445523559096603e-01,0.000000000000000000e+00,9.310445523559096603e-01
2.116666666666666696e+00,1.643939494380036592e+09,0.000000000000000000e+00,9.310445523559096603e-01,0.000000000000000000e+00,9.310445523559096603e-01
2.133333333333333304e+00,1.643939494397367239e+09,0.000000000000000000e+00,9.310445523559096603e-01,0.000000000000000000e+00,9.310445523559096603e-01
2.149999999999999911e+00,1.643939494413472891e+09,0.000000000000000000e+00,9.150196891484072559e-01,0.000000000000000000e+00,9.150196891484072559e-01
2.166666666666666519e+00,1.643939494430456400e+09,0.000000000000000000e+00,9.310445523559096603e-01,0.000000000000000000e+00,9.310445523559096603e-01
2.183333333333333126e+00,1.643939494447410345e+09,0.000000000000000000e+00,9.150196891484072559e-01,0.000000000000000000e+00,9.150196891484072559e-01
2.200000000000000178e+00,1.643939494463995218e+09,0.000000000000000000e+00,9.310445523559096603e-01,0.000000000000000000e+00,9.310445523559096603e-01
2.216666666666666785e+00,1.643939494481338978e+09,0.000000000000000000e+00,9.150196891484072559e-01,0.000000000000000000e+00,9.150196891484072559e-01
2.233333333333333393e+00,1.643939494497878075e+09,0.000000000000000000e+00,9.310445523559096603e-01,0.000000000000000000e+00,9.310445523559096603e-01
2.250000000000000000e+00,1.643939494513881683e+09,0.000000000000000000e+00,9.150196891484072559e-01,0.000000000000000000e+00,9.150196891484072559e-01
2.266666666666666607e+00,1.643939494530815601e+09,0.000000000000000000e+00,9.310445523559096603e-01,0.000000000000000000e+00,9.310445523559096603e-01
2.283333333333333215e+00,1.643939494547794104e+09,0.000000000000000000e+00,9.310445523559096603e-01,0.000000000000000000e+00,9.310445523559096603e-01
2.299999999999999822e+00,1.643939494565175056e+09,0.000000000000000000e+00,9.310445523559096603e-01,0.000000000000000000e+00,9.310445523559096603e-01
2.316666666666666430e+00,1.643939494583684444e+09,0.000000000000000000e+00,9.150196891484072559e-01,0.000000000000000000e+00,9.150196891484072559e-01
2.333333333333333481e+00,1.643939494599789143e+09,0.000000000000000000e+00,9.150196891484072559e-01,0.000000000000000000e+00,9.150196891484072559e-01
2.350000000000000089e+00,1.643939494616943121e+09,0.000000000000000000e+00,9.150196891484072559e-01,0.000000000000000000e+00,9.150196891484072559e-01
2.366666666666666696e+00,1.643939494635268450e+09,0.000000000000000000e+00,9.310445523559096603e-01,0.000000000000000000e+00,9.310445523559096603e-01
2.383333333333333304e+00,1.643939494651226282e+09,0.000000000000000000e+00,9.150196891484072559e-01,0.000000000000000000e+00,9.150196891484072559e-01
2.399999999999999911e+00,1.643939494669178724e+09,0.000000000000000000e+00,9.150196891484072559e-01,0.000000000000000000e+00,9.150196891484072559e-01
2.416666666666666519e+00,1.643939494685569286e+09,0.000000000000000000e+00,9.150196891484072559e-01,0.000000000000000000e+00,9.150196891484072559e-01
2.433333333333333126e+00,1.643939494702603817e+09,0.000000000000000000e+00,9.310445523559096603e-01,0.000000000000000000e+00,9.310445523559096603e-01
2.450000000000000178e+00,1.643939494719233990e+09,0.000000000000000000e+00,9.150196891484072559e-01,0.000000000000000000e+00,9.150196891484072559e-01
2.466666666666666785e+00,1.643939494736219168e+09,0.000000000000000000e+00,9.310445523559096603e-01,0.000000000000000000e+00,9.310445523559096603e-01
2.483333333333333393e+00,1.643939494754169941e+09,0.000000000000000000e+00,9.150196891484072559e-01,0.000000000000000000e+00,9.150196891484072559e-01
2.500000000000000000e+00,1.643939494770127058e+09,0.000000000000000000e+00,9.150196891484072559e-01,0.000000000000000000e+00,9.150196891484072559e-01
2.516666666666666607e+00,1.643939494787480593e+09,0.000000000000000000e+00,9.150196891484072559e-01,0.000000000000000000e+00,9.150196891484072559e-01
2.533333333333333215e+00,1.643939494805424213e+09,0.000000000000000000e+00,9.310445523559096603e-01,0.000000000000000000e+00,9.310445523559096603e-01
2.549999999999999822e+00,1.643939494820897818e+09,0.000000000000000000e+00,9.310445523559096603e-01,0.000000000000000000e+00,9.310445523559096603e-01
2.566666666666666430e+00,1.643939494839279890e+09,0.000000000000000000e+00,9.150196891484072559e-01,0.000000000000000000e+00,9.150196891484072559e-01
2.583333333333333481e+00,1.643939494855935097e+09,0.000000000000000000e+00,9.150196891484072559e-01,0.000000000000000000e+00,9.150196891484072559e-01
2.600000000000000089e+00,1.643939494870498180e+09,0.000000000000000000e+00,9.150196891484072559e-01,0.000000000000000000e+00,9.150196891484072559e-01
2.616666666666666696e+00,1.643939494890098810e+09,0.000000000000000000e+00,9.150196891484072559e-01,0.000000000000000000e+00,9.150196891484072559e-01
2.633333333333333304e+00,1.643939494906685591e+09,0.000000000000000000e+00,9.310445523559096603e-01,0.000000000000000000e+00,9.310445523559096603e-01
2.649999999999999911e+00,1.643939494925032139e+09,0.000000000000000000e+00,9.150196891484072559e-01,0.000000000000000000e+00,9.150196891484072559e-01
2.666666666666666519e+00,1.643939494942160368e+09,0.000000000000000000e+00,9.150196891484072559e-01,0.000000000000000000e+00,9.150196891484072559e-01
2.683333333333333126e+00,1.643939494959722042e+09,0.000000000000000000e+00,1.208966320466077216e+00,0.000000000000000000e+00,1.208966320466077216e+00
2.700000000000000178e+00,1.643939494974667788e+09,0.000000000000000000e+00,1.191990325551195440e+00,0.000000000000000000e+00,1.191990325551195440e+00
2.716666666666666785e+00,1.643939494993232489e+09,0.000000000000000000e+00,1.211012959698782421e+00,0.000000000000000000e+00,1.211012959698782421e+00
2.733333333333333393e+00,1.643939495008914948e+09,0.000000000000000000e+00,9.150196891484072559e-01,0.000000000000000000e+00,9.150196891484072559e-01
2.750000000000000000e+00,1.643939495026820898e+09,0.000000000000000000e+00,9.150196891484072559e-01,0.000000000000000000e+00,9.150196891484072559e-01
2.766666666666666607e+00,1.643939495042936087e+09,0.000000000000000000e+00,9.310445523559096603e-01,0.000000000000000000e+00,9.310445523559096603e-01
2.783333333333333215e+00,1.643939495060102224e+09,0.000000000000000000e+00,9.150196891484072559e-01,0.000000000000000000e+00,9.150196891484072559e-01
2.799999999999999822e+00,1.643939495078416109e+09,0.000000000000000000e+00,9.150196891484072559e-01,0.000000000000000000e+00,9.150196891484072559e-01
2.816666666666666430e+00,1.643939495094472408e+09,0.000000000000000000e+00,9.470694155634121758e-01,0.000000000000000000e+00,9.470694155634121758e-01
2.833333333333333481e+00,1.643939495109646797e+09,0.000000000000000000e+00,9.791191419784182060e-01,0.000000000000000000e+00,9.791191419784182060e-01
2.850000000000000089e+00,1.643939495128623009e+09,0.000000000000000000e+00,1.043218594808429156e+00,0.000000000000000000e+00,1.043218594808429156e+00
2.866666666666666696e+00,1.643939495144580364e+09,0.000000000000000000e+00,1.075268321223434187e+00,0.000000000000000000e+00,1.075268321223434187e+00
2.883333333333333304e+00,1.643939495161532402e+09,0.000000000000000000e+00,1.075268321223434187e+00,0.000000000000000000e+00,1.075268321223434187e+00
2.899999999999999911e+00,1.643939495179615974e+09,0.000000000000000000e+00,1.091293184430936591e+00,0.000000000000000000e+00,1.091293184430936591e+00
2.916666666666666519e+00,1.643939495195573807e+09,0.000000000000000000e+00,1.107318047638440106e+00,0.000000000000000000e+00,1.107318047638440106e+00
2.933333333333333126e+00,1.643939495212520123e+09,0.000000000000000000e+00,1.123342910845942733e+00,0.000000000000000000e+00,1.123342910845942733e+00
2.950000000000000178e+00,1.643939495231472015e+09,0.000000000000000000e+00,1.155392637260947541e+00,0.000000000000000000e+00,1.155392637260947541e+00
2.966666666666666785e+00,1.643939495246408463e+09,0.000000000000000000e+00,1.203467226883456087e+00,0.000000000000000000e+00,1.203467226883456087e+00
2.983333333333333393e+00,1.643939495263387918e+09,0.000000000000000000e+00,1.219492090090958492e+00,0.000000000000000000e+00,1.219492090090958492e+00
3.000000000000000000e+00,1.643939495283310413e+09,0.000000000000000000e+00,1.267566679713467037e+00,0.000000000000000000e+00,1.267566679713467037e+00
