2022-02-03-17:41:12.951569,2.0,23.0,357.0
2022-02-03-17:41:12.953530,2.0,20.0,357.0
2022-02-03-17:41:12.954535,14.0,27.0,358.0
2022-02-03-17:41:12.955529,1.0,32.0,358.0
2022-02-03-17:41:12.957519,12.0,63.0,359.0
2022-02-03-17:41:12.958517,7.0,33.0,360.0
2022-02-03-17:41:12.958517,11.0,35.0,360.0
2022-02-03-17:41:12.959526,4.0,37.0,361.0
2022-02-03-17:41:12.960546,30.0,20.0,361.0
2022-02-03-17:41:12.961543,1.0,36.0,361.0
2022-02-03-17:41:12.962541,2.0,22.0,361.0
2022-02-03-17:41:12.963537,1.0,12.0,362.0
2022-02-03-17:41:12.964534,2.0,18.0,362.0
2022-02-03-17:41:12.965498,29.0,12.0,361.0
2022-02-03-17:41:12.966496,0.0,37.0,362.0
2022-02-03-17:41:12.967530,3.0,11.0,362.0
2022-02-03-17:41:12.968524,7.0,22.0,362.0
2022-02-03-17:41:12.969522,11.0,40.0,362.0
2022-02-03-17:41:12.970519,15.0,21.0,362.0
2022-02-03-17:41:12.971516,5.0,15.0,362.0
2022-02-03-17:41:12.972514,17.0,37.0,362.0
2022-02-03-17:41:12.973514,3.0,15.0,362.0
2022-02-03-17:41:12.974474,1.0,0.0,362.0
2022-02-03-17:41:12.975472,2.0,18.0,362.0
2022-02-03-17:41:12.976469,10.0,25.0,362.0
2022-02-03-17:41:12.977501,21.0,28.0,363.0
2022-02-03-17:41:12.978506,15.0,20.0,362.0
2022-02-03-17:41:12.979497,1.0,22.0,362.0
2022-02-03-17:41:12.980493,11.0,3.0,362.0
2022-02-03-17:41:12.981493,14.0,15.0,362.0
2022-02-03-17:41:12.982453,20.0,17.0,362.0
2022-02-03-17:41:12.983478,20.0,28.0,362.0
2022-02-03-17:41:12.984473,3.0,16.0,362.0
2022-02-03-17:41:12.985471,10.0,15.0,362.0
2022-02-03-17:41:12.986469,28.0,33.0,362.0
2022-02-03-17:41:12.987466,5.0,38.0,363.0
2022-02-03-17:41:12.988463,3.0,14.0,362.0
2022-02-03-17:41:12.989463,9.0,41.0,362.0
2022-02-03-17:41:12.991461,25.0,34.0,363.0
2022-02-03-17:41:12.992460,1.0,29.0,362.0
2022-02-03-17:41:12.992460,1.0,10.0,362.0
2022-02-03-17:41:12.993448,8.0,14.0,362.0
2022-02-03-17:41:12.994447,27.0,26.0,362.0
2022-02-03-17:41:12.995443,1.0,39.0,362.0
2022-02-03-17:41:12.996440,11.0,14.0,363.0
2022-02-03-17:41:12.997441,9.0,12.0,362.0
2022-02-03-17:41:12.998443,8.0,34.0,362.0
2022-02-03-17:41:12.999408,0.0,31.0,362.0
2022-02-03-17:41:13.000432,2.0,1.0,362.0
2022-02-03-17:41:13.001429,4.0,33.0,363.0
2022-02-03-17:41:13.002426,32.0,8.0,362.0
2022-02-03-17:41:13.003422,3.0,23.0,362.0
2022-02-03-17:41:13.004420,1.0,18.0,362.0
2022-02-03-17:41:13.005421,11.0,39.0,362.0
2022-02-03-17:41:13.006416,8.0,30.0,362.0
2022-02-03-17:41:13.007487,2.0,31.0,363.0
2022-02-03-17:41:13.008279,1.0,20.0,362.0
2022-02-03-17:41:13.008279,1.0,6.0,362.0
2022-02-03-17:41:13.009280,22.0,19.0,362.0
2022-02-03-17:41:13.010301,2.0,27.0,362.0
2022-02-03-17:41:13.011301,5.0,22.0,362.0
2022-02-03-17:41:13.012296,10.0,1.0,362.0
2022-02-03-17:41:13.013282,7.0,33.0,362.0
2022-02-03-17:41:13.014295,24.0,6.0,363.0
2022-02-03-17:41:13.015284,1.0,28.0,362.0
2022-02-03-17:41:13.016288,3.0,28.0,362.0
2022-02-03-17:41:13.017284,11.0,8.0,362.0
2022-02-03-17:41:13.018281,1.0,21.0,363.0
2022-02-03-17:41:13.019279,7.0,22.0,362.0
2022-02-03-17:41:13.020275,1.0,21.0,363.0
2022-02-03-17:41:13.021273,27.0,29.0,362.0
2022-02-03-17:41:13.022274,4.0,37.0,362.0
2022-02-03-17:41:13.023268,4.0,26.0,362.0
2022-02-03-17:41:13.024265,2.0,2.0,362.0
2022-02-03-17:41:13.025262,4.0,12.0,362.0
2022-02-03-17:41:13.027279,17.0,12.0,362.0
2022-02-03-17:41:13.028229,4.0,30.0,362.0
2022-02-03-17:41:13.028229,2.0,16.0,362.0
2022-02-03-17:41:13.029251,5.0,26.0,362.0
2022-02-03-17:41:13.030253,28.0,14.0,362.0
2022-02-03-17:41:13.031484,7.0,28.0,362.0
2022-02-03-17:41:13.031484,7.0,28.0,362.0
2022-02-03-17:41:13.032486,7.0,28.0,362.0
2022-02-03-17:41:13.033516,7.0,28.0,362.0
2022-02-03-17:41:13.033516,7.0,28.0,362.0
2022-02-03-17:41:13.034550,7.0,28.0,362.0
2022-02-03-17:41:13.035792,3.0,10.0,363.0
2022-02-03-17:41:13.036025,3.0,10.0,363.0
2022-02-03-17:41:13.036256,3.0,10.0,363.0
2022-02-03-17:41:13.036481,3.0,10.0,363.0
2022-02-03-17:41:13.036695,3.0,10.0,363.0
2022-02-03-17:41:13.036908,3.0,10.0,363.0
2022-02-03-17:41:13.037114,3.0,10.0,363.0
2022-02-03-17:41:13.037201,3.0,10.0,363.0
2022-02-03-17:41:13.037201,3.0,10.0,363.0
2022-02-03-17:41:13.038335,3.0,10.0,363.0
2022-02-03-17:41:13.038335,12.0,19.0,362.0
2022-02-03-17:41:13.039361,7.0,1.0,363.0
2022-02-03-17:41:13.040365,3.0,13.0,362.0
2022-02-03-17:41:13.041356,9.0,20.0,362.0
2022-02-03-17:41:13.042377,9.0,20.0,362.0
2022-02-03-17:41:13.043372,9.0,20.0,362.0
2022-02-03-17:41:13.044348,28.0,25.0,362.0
2022-02-03-17:41:13.045346,27.0,10.0,362.0
2022-02-03-17:41:13.046316,27.0,10.0,362.0
2022-02-03-17:41:13.047338,1.0,22.0,363.0
2022-02-03-17:41:13.048337,5.0,24.0,363.0
2022-02-03-17:41:13.049308,5.0,24.0,363.0
2022-02-03-17:41:13.050306,5.0,24.0,363.0
2022-02-03-17:41:13.051330,0.0,20.0,362.0
2022-02-03-17:41:13.052326,1.0,15.0,362.0
2022-02-03-17:41:13.053324,1.0,15.0,362.0
2022-02-03-17:41:13.054294,1.0,15.0,362.0
2022-02-03-17:41:13.055318,14.0,10.0,362.0
2022-02-03-17:41:13.056316,10.0,45.0,362.0
2022-02-03-17:41:13.057311,10.0,45.0,362.0
2022-02-03-17:41:13.059308,10.0,45.0,362.0
2022-02-03-17:41:13.060279,26.0,11.0,362.0
2022-02-03-17:41:13.060279,26.0,11.0,362.0
2022-02-03-17:41:13.061303,26.0,11.0,362.0
2022-02-03-17:41:13.062298,26.0,11.0,362.0
2022-02-03-17:41:13.063296,14.0,17.0,362.0
2022-02-03-17:41:13.064294,5.0,35.0,362.0
2022-02-03-17:41:13.065266,5.0,35.0,362.0
2022-02-03-17:41:13.066265,5.0,35.0,362.0
2022-02-03-17:41:13.067286,5.0,35.0,362.0
2022-02-03-17:41:13.068282,4.0,25.0,363.0
2022-02-03-17:41:13.069281,3.0,5.0,362.0
2022-02-03-17:41:13.070277,3.0,5.0,362.0
2022-02-03-17:41:13.071274,3.0,5.0,362.0
2022-02-03-17:41:13.072273,1.0,26.0,362.0
2022-02-03-17:41:13.073269,12.0,34.0,362.0
2022-02-03-17:41:13.074266,12.0,34.0,362.0
2022-02-03-17:41:13.075265,12.0,34.0,362.0
2022-02-03-17:41:13.076530,25.0,1.0,362.0
2022-02-03-17:41:13.076811,25.0,1.0,362.0
2022-02-03-17:41:13.077098,25.0,1.0,362.0
2022-02-03-17:41:13.077205,25.0,1.0,362.0
2022-02-03-17:41:13.077205,25.0,1.0,362.0
2022-02-03-17:41:13.078229,25.0,1.0,362.0
2022-02-03-17:41:13.079420,25.0,1.0,362.0
2022-02-03-17:41:13.079420,1.0,23.0,362.0
2022-02-03-17:41:13.080445,6.0,24.0,363.0
2022-02-03-17:41:13.081443,6.0,24.0,363.0
2022-02-03-17:41:13.082415,6.0,24.0,363.0
2022-02-03-17:41:13.083437,6.0,24.0,363.0
2022-02-03-17:41:13.084714,5.0,14.0,362.0
2022-02-03-17:41:13.084966,3.0,8.0,362.0
2022-02-03-17:41:13.085212,3.0,8.0,362.0
2022-02-03-17:41:13.085457,3.0,8.0,362.0
2022-02-03-17:41:13.085690,3.0,8.0,362.0
2022-02-03-17:41:13.085918,3.0,8.0,362.0
2022-02-03-17:41:13.085918,3.0,8.0,362.0
2022-02-03-17:41:13.086917,3.0,8.0,362.0
2022-02-03-17:41:13.088228,3.0,8.0,362.0
2022-02-03-17:41:13.088315,6.0,40.0,362.0
2022-02-03-17:41:13.088315,6.0,40.0,362.0
2022-02-03-17:41:13.089340,6.0,40.0,362.0
2022-02-03-17:41:13.090335,6.0,40.0,362.0
2022-02-03-17:41:13.091333,6.0,40.0,362.0
2022-02-03-17:41:13.092331,29.0,5.0,362.0
2022-02-03-17:41:13.094376,29.0,5.0,362.0
2022-02-03-17:41:13.094376,29.0,5.0,362.0
2022-02-03-17:41:13.095374,29.0,5.0,362.0
2022-02-03-17:41:13.096622,4.0,33.0,362.0
2022-02-03-17:41:13.096921,0.0,22.0,362.0
2022-02-03-17:41:13.097126,0.0,22.0,362.0
2022-02-03-17:41:13.097331,0.0,22.0,362.0
2022-02-03-17:41:13.097536,0.0,22.0,362.0
2022-02-03-17:41:13.097740,0.0,22.0,362.0
2022-02-03-17:41:13.097951,0.0,22.0,362.0
2022-02-03-17:41:13.097951,0.0,22.0,362.0
2022-02-03-17:41:13.098950,0.0,22.0,362.0
2022-02-03-17:41:13.099947,0.0,22.0,362.0
2022-02-03-17:41:13.101022,4.0,15.0,362.0
2022-02-03-17:41:13.101022,3.0,9.0,363.0
2022-02-03-17:41:13.102076,3.0,10.0,362.0
2022-02-03-17:41:13.103073,1.0,14.0,362.0
2022-02-03-17:41:13.104070,1.0,14.0,362.0
2022-02-03-17:41:13.105076,9.0,11.0,363.0
2022-02-03-17:41:13.106376,10.0,10.0,362.0
2022-02-03-17:41:13.106625,4.0,30.0,362.0
2022-02-03-17:41:13.106625,4.0,30.0,362.0
2022-02-03-17:41:13.107625,4.0,30.0,362.0
2022-02-03-17:41:13.108622,11.0,34.0,362.0
2022-02-03-17:41:13.109954,26.0,7.0,362.0
2022-02-03-17:41:13.110209,26.0,7.0,362.0
2022-02-03-17:41:13.110462,26.0,7.0,362.0
2022-02-03-17:41:13.110710,26.0,7.0,362.0
2022-02-03-17:41:13.110710,26.0,7.0,362.0
2022-02-03-17:41:13.111709,26.0,7.0,362.0
2022-02-03-17:41:13.112706,19.0,21.0,362.0
2022-02-03-17:41:13.113704,1.0,34.0,363.0
2022-02-03-17:41:13.114896,1.0,34.0,363.0
2022-02-03-17:41:13.115150,1.0,34.0,363.0
2022-02-03-17:41:13.115150,1.0,34.0,363.0
2022-02-03-17:41:13.116361,1.0,34.0,363.0
2022-02-03-17:41:13.116361,5.0,28.0,362.0
2022-02-03-17:41:13.117420,1.0,1.0,362.0
2022-02-03-17:41:13.118412,1.0,1.0,362.0
2022-02-03-17:41:13.119412,1.0,1.0,362.0
2022-02-03-17:41:13.120402,1.0,1.0,362.0
2022-02-03-17:41:13.121399,11.0,6.0,362.0
2022-02-03-17:41:13.122399,4.0,36.0,362.0
2022-02-03-17:41:13.123391,4.0,36.0,362.0
2022-02-03-17:41:13.124388,4.0,36.0,362.0
2022-02-03-17:41:13.125391,11.0,34.0,362.0
2022-02-03-17:41:13.127383,23.0,6.0,362.0
2022-02-03-17:41:13.127383,23.0,6.0,362.0
2022-02-03-17:41:13.128378,23.0,6.0,362.0
2022-02-03-17:41:13.129376,2.0,42.0,362.0
2022-02-03-17:41:13.130372,4.0,40.0,363.0
2022-02-03-17:41:13.131372,4.0,40.0,363.0
2022-02-03-17:41:13.132321,4.0,40.0,363.0
2022-02-03-17:41:13.133488,3.0,22.0,363.0
2022-02-03-17:41:13.133488,6.0,21.0,362.0
2022-02-03-17:41:13.134543,6.0,21.0,362.0
2022-02-03-17:41:13.135540,6.0,21.0,362.0
2022-02-03-17:41:13.136538,6.0,21.0,362.0
2022-02-03-17:41:13.137479,6.0,21.0,362.0
2022-02-03-17:41:13.138511,13.0,1.0,363.0
2022-02-03-17:41:13.139516,6.0,18.0,362.0
2022-02-03-17:41:13.140507,6.0,18.0,362.0
2022-02-03-17:41:13.141526,18.0,34.0,362.0
2022-02-03-17:41:13.142693,30.0,27.0,363.0
2022-02-03-17:41:13.142693,30.0,27.0,363.0
2022-02-03-17:41:13.143724,30.0,27.0,363.0
2022-02-03-17:41:13.144724,30.0,27.0,363.0
2022-02-03-17:41:13.145761,25.0,6.0,362.0
2022-02-03-17:41:13.145761,5.0,31.0,362.0
2022-02-03-17:41:13.146817,5.0,31.0,362.0
2022-02-03-17:41:13.147812,5.0,31.0,362.0
2022-02-03-17:41:13.148756,5.0,31.0,362.0
2022-02-03-17:41:13.149770,0.0,31.0,362.0
2022-02-03-17:41:13.150804,7.0,20.0,362.0
2022-02-03-17:41:13.151804,7.0,20.0,362.0
2022-02-03-17:41:13.152744,7.0,20.0,362.0
2022-02-03-17:41:13.153797,2.0,14.0,362.0
2022-02-03-17:41:13.154796,6.0,7.0,362.0
2022-02-03-17:41:13.155790,6.0,7.0,362.0
2022-02-03-17:41:13.156733,6.0,7.0,362.0
2022-02-03-17:41:13.157785,2.0,27.0,362.0
2022-02-03-17:41:13.158788,22.0,28.0,362.0
2022-02-03-17:41:13.159782,29.0,34.0,362.0
2022-02-03-17:41:13.160827,29.0,34.0,362.0
2022-02-03-17:41:13.161381,33.0,13.0,362.0
2022-02-03-17:41:13.161381,18.0,6.0,363.0
2022-02-03-17:41:13.163432,18.0,6.0,363.0
2022-02-03-17:41:13.164056,2.0,35.0,362.0
2022-02-03-17:41:13.164056,2.0,35.0,362.0
2022-02-03-17:41:13.165088,2.0,35.0,362.0
2022-02-03-17:41:13.166086,3.0,26.0,362.0
2022-02-03-17:41:13.167085,5.0,21.0,362.0
2022-02-03-17:41:13.168136,1.0,14.0,362.0
2022-02-03-17:41:13.168136,1.0,14.0,362.0
2022-02-03-17:41:13.169190,1.0,14.0,362.0
2022-02-03-17:41:13.170194,3.0,10.0,362.0
2022-02-03-17:41:13.171185,15.0,18.0,362.0
2022-02-03-17:41:13.172182,9.0,1.0,362.0
2022-02-03-17:41:13.173186,9.0,1.0,362.0
2022-02-03-17:41:13.173186,0.0,24.0,362.0
2022-02-03-17:41:13.174549,0.0,24.0,362.0
2022-02-03-17:41:13.174549,24.0,33.0,362.0
2022-02-03-17:41:13.175604,24.0,33.0,362.0
2022-02-03-17:41:13.176601,24.0,33.0,362.0
2022-02-03-17:41:13.177544,24.0,33.0,362.0
2022-02-03-17:41:13.178598,29.0,21.0,363.0
2022-02-03-17:41:13.179592,29.0,21.0,363.0
2022-02-03-17:41:13.180591,29.0,21.0,363.0
2022-02-03-17:41:13.181533,13.0,25.0,362.0
2022-02-03-17:41:13.182531,3.0,37.0,362.0
2022-02-03-17:41:13.183575,3.0,33.0,362.0
2022-02-03-17:41:13.184571,5.0,20.0,362.0
2022-02-03-17:41:13.185522,3.0,21.0,362.0
2022-02-03-17:41:13.186566,1.0,12.0,362.0
2022-02-03-17:41:13.187563,6.0,17.0,363.0
2022-02-03-17:41:13.188562,8.0,3.0,362.0
2022-02-03-17:41:13.189512,8.0,3.0,362.0
2022-02-03-17:41:13.190556,1.0,12.0,362.0
2022-02-03-17:41:13.191554,16.0,35.0,362.0
2022-02-03-17:41:13.192550,17.0,32.0,362.0
2022-02-03-17:41:13.194544,17.0,32.0,362.0
2022-02-03-17:41:13.194544,6.0,29.0,362.0
2022-02-03-17:41:13.195515,6.0,29.0,362.0
2022-02-03-17:41:13.196541,6.0,29.0,362.0
2022-02-03-17:41:13.197539,6.0,29.0,362.0
2022-02-03-17:41:13.198488,6.0,29.0,362.0
2022-02-03-17:41:13.199486,3.0,16.0,362.0
2022-02-03-17:41:13.200528,3.0,16.0,362.0
2022-02-03-17:41:13.201526,3.0,16.0,362.0
2022-02-03-17:41:13.202523,3.0,16.0,362.0
2022-02-03-17:41:13.203520,0.0,26.0,362.0
2022-02-03-17:41:13.204519,7.0,24.0,362.0
2022-02-03-17:41:13.205519,15.0,16.0,362.0
2022-02-03-17:41:13.206513,15.0,16.0,362.0
2022-02-03-17:41:13.207511,7.0,3.0,362.0
2022-02-03-17:41:13.208508,12.0,33.0,362.0
2022-02-03-17:41:13.209504,17.0,40.0,362.0
2022-02-03-17:41:13.210502,17.0,40.0,362.0
2022-02-03-17:41:13.211499,28.0,52.0,363.0
2022-02-03-17:41:13.212503,12.0,14.0,362.0
2022-02-03-17:41:13.213497,12.0,14.0,362.0
2022-02-03-17:41:13.214492,12.0,14.0,362.0
2022-02-03-17:41:13.215443,5.0,24.0,362.0
2022-02-03-17:41:13.216479,3.0,26.0,362.0
2022-02-03-17:41:13.217490,3.0,26.0,362.0
2022-02-03-17:41:13.218481,3.0,26.0,362.0
2022-02-03-17:41:13.219478,4.0,32.0,362.0
2022-02-03-17:41:13.220477,7.0,15.0,362.0
2022-02-03-17:41:13.221476,12.0,22.0,362.0
2022-02-03-17:41:13.222424,12.0,22.0,362.0
2022-02-03-17:41:13.223476,9.0,0.0,362.0
2022-02-03-17:41:13.224465,5.0,26.0,362.0
2022-02-03-17:41:13.225462,16.0,33.0,362.0
2022-02-03-17:41:13.226413,16.0,33.0,362.0
2022-02-03-17:41:13.227457,23.0,33.0,362.0
2022-02-03-17:41:13.228455,29.0,33.0,362.0
2022-02-03-17:41:13.231401,10.0,20.0,362.0
2022-02-03-17:41:13.231401,2.0,28.0,362.0
2022-02-03-17:41:13.232399,2.0,28.0,362.0
2022-02-03-17:41:13.233420,2.0,28.0,362.0
2022-02-03-17:41:13.234415,2.0,28.0,362.0
2022-02-03-17:41:13.235414,2.0,28.0,362.0
2022-02-03-17:41:13.236412,2.0,16.0,363.0
2022-02-03-17:41:13.237410,9.0,19.0,362.0
2022-02-03-17:41:13.238404,9.0,19.0,362.0
2022-02-03-17:41:13.239405,9.0,19.0,362.0
2022-02-03-17:41:13.240401,4.0,42.0,362.0
2022-02-03-17:41:13.241402,9.0,30.0,362.0
2022-02-03-17:41:13.242395,9.0,30.0,362.0
2022-02-03-17:41:13.243394,9.0,30.0,362.0
2022-02-03-17:41:13.244390,14.0,28.0,362.0
2022-02-03-17:41:13.245388,14.0,28.0,362.0
2022-02-03-17:41:13.246384,27.0,37.0,362.0
2022-02-03-17:41:13.247383,18.0,22.0,362.0
2022-02-03-17:41:13.248461,3.0,30.0,362.0
2022-02-03-17:41:13.248461,4.0,23.0,362.0
2022-02-03-17:41:13.249493,4.0,23.0,362.0
2022-02-03-17:41:13.250484,4.0,23.0,362.0
2022-02-03-17:41:13.251479,4.0,23.0,362.0
2022-02-03-17:41:13.252476,3.0,19.0,363.0
2022-02-03-17:41:13.253476,1.0,16.0,362.0
2022-02-03-17:41:13.254471,4.0,15.0,362.0
2022-02-03-17:41:13.255468,4.0,15.0,362.0
2022-02-03-17:41:13.256704,16.0,17.0,362.0
2022-02-03-17:41:13.256704,9.0,39.0,362.0
2022-02-03-17:41:13.257728,9.0,39.0,362.0
2022-02-03-17:41:13.258726,9.0,39.0,362.0
2022-02-03-17:41:13.259723,9.0,39.0,362.0
2022-02-03-17:41:13.260728,16.0,34.0,362.0
2022-02-03-17:41:13.262692,24.0,7.0,362.0
2022-02-03-17:41:13.262692,24.0,7.0,362.0
2022-02-03-17:41:13.263715,24.0,7.0,362.0
2022-02-03-17:41:13.264686,4.0,21.0,362.0
2022-02-03-17:41:13.265696,4.0,21.0,362.0
2022-02-03-17:41:13.266681,4.0,21.0,362.0
2022-02-03-17:41:13.267703,4.0,21.0,362.0
2022-02-03-17:41:13.268703,0.0,22.0,363.0
2022-02-03-17:41:13.269698,2.0,16.0,362.0
2022-02-03-17:41:13.270695,2.0,16.0,362.0
2022-02-03-17:41:13.271693,2.0,16.0,362.0
2022-02-03-17:41:13.272667,9.0,3.0,362.0
2022-02-03-17:41:13.273686,6.0,18.0,362.0
2022-02-03-17:41:13.274685,11.0,39.0,362.0
2022-02-03-17:41:13.275656,11.0,39.0,362.0
2022-02-03-17:41:13.276700,16.0,49.0,362.0
2022-02-03-17:41:13.277677,24.0,41.0,362.0
2022-02-03-17:41:13.278672,27.0,3.0,362.0
2022-02-03-17:41:13.279646,27.0,3.0,362.0
2022-02-03-17:41:13.280668,12.0,24.0,362.0
2022-02-03-17:41:13.281666,2.0,48.0,362.0
2022-02-03-17:41:13.282638,3.0,30.0,362.0
2022-02-03-17:41:13.283660,3.0,30.0,362.0
2022-02-03-17:41:13.284657,1.0,19.0,362.0
2022-02-03-17:41:13.285655,0.0,14.0,362.0
2022-02-03-17:41:13.286651,0.0,14.0,362.0
2022-02-03-17:41:13.287651,0.0,14.0,362.0
2022-02-03-17:41:13.288634,0.0,14.0,362.0
2022-02-03-17:41:13.289619,8.0,11.0,362.0
2022-02-03-17:41:13.290616,7.0,32.0,362.0
2022-02-03-17:41:13.291640,7.0,32.0,362.0
2022-02-03-17:41:13.292639,7.0,32.0,362.0
2022-02-03-17:41:13.293609,19.0,27.0,362.0
2022-02-03-17:41:13.294606,18.0,16.0,362.0
2022-02-03-17:41:13.296628,18.0,16.0,362.0
2022-02-03-17:41:13.296628,18.0,16.0,362.0
2022-02-03-17:41:13.297622,3.0,32.0,361.0
2022-02-03-17:41:13.298626,2.0,25.0,362.0
2022-02-03-17:41:13.299593,2.0,25.0,362.0
2022-02-03-17:41:13.300621,2.0,25.0,362.0
2022-02-03-17:41:13.301613,0.0,16.0,362.0
2022-02-03-17:41:13.302616,3.0,5.0,362.0
2022-02-03-17:41:13.303607,3.0,5.0,362.0
2022-02-03-17:41:13.304605,3.0,5.0,362.0
2022-02-03-17:41:13.305602,12.0,1.0,362.0
2022-02-03-17:41:13.306600,9.0,30.0,361.0
2022-02-03-17:41:13.307596,9.0,30.0,361.0
2022-02-03-17:41:13.308596,9.0,30.0,361.0
2022-02-03-17:41:13.309592,16.0,37.0,362.0
2022-02-03-17:41:13.310589,28.0,20.0,361.0
2022-02-03-17:41:13.311590,19.0,7.0,362.0
2022-02-03-17:41:13.312558,19.0,7.0,362.0
2022-02-03-17:41:13.313580,6.0,35.0,362.0
2022-02-03-17:41:13.314600,0.0,37.0,361.0
2022-02-03-17:41:13.315551,0.0,37.0,361.0
2022-02-03-17:41:13.316548,0.0,37.0,361.0
2022-02-03-17:41:13.317570,6.0,45.0,361.0
2022-02-03-17:41:13.318567,2.0,10.0,361.0
2022-02-03-17:41:13.319565,4.0,10.0,362.0
2022-02-03-17:41:13.320536,4.0,10.0,362.0
2022-02-03-17:41:13.321567,12.0,18.0,362.0
2022-02-03-17:41:13.322556,4.0,46.0,361.0
2022-02-03-17:41:13.323554,4.0,46.0,361.0
2022-02-03-17:41:13.324553,4.0,46.0,361.0
2022-02-03-17:41:13.325549,12.0,35.0,361.0
2022-02-03-17:41:13.326552,27.0,30.0,361.0
2022-02-03-17:41:13.327544,31.0,16.0,361.0
2022-02-03-17:41:13.328540,31.0,16.0,361.0
2022-02-03-17:41:13.329536,20.0,27.0,360.0
2022-02-03-17:41:13.331556,1.0,56.0,361.0
2022-02-03-17:41:13.331556,5.0,44.0,360.0
2022-02-03-17:41:13.332505,5.0,44.0,360.0
2022-02-03-17:41:13.333552,5.0,44.0,360.0
2022-02-03-17:41:13.334545,5.0,18.0,361.0
2022-02-03-17:41:13.335543,4.0,14.0,361.0
2022-02-03-17:41:13.336542,2.0,9.0,361.0
2022-02-03-17:41:13.337537,2.0,9.0,361.0
2022-02-03-17:41:13.338536,9.0,8.0,361.0
2022-02-03-17:41:13.339536,9.0,16.0,360.0
2022-02-03-17:41:13.340529,1.0,41.0,361.0
2022-02-03-17:41:13.341527,1.0,41.0,361.0
2022-02-03-17:41:13.342524,12.0,38.0,361.0
2022-02-03-17:41:13.343522,28.0,32.0,361.0
2022-02-03-17:41:13.344518,28.0,11.0,360.0
2022-02-03-17:41:13.345516,28.0,11.0,360.0
2022-02-03-17:41:13.346514,3.0,32.0,360.0
2022-02-03-17:41:13.347513,4.0,29.0,360.0
2022-02-03-17:41:13.348462,4.0,29.0,360.0
2022-02-03-17:41:13.349525,4.0,29.0,360.0
2022-02-03-17:41:13.349525,2.0,21.0,360.0
2022-02-03-17:41:13.350564,3.0,17.0,360.0
2022-02-03-17:41:13.351589,6.0,16.0,360.0
2022-02-03-17:41:13.352587,6.0,16.0,360.0
2022-02-03-17:41:13.353584,6.0,16.0,360.0
2022-02-03-17:41:13.354581,3.0,13.0,360.0
2022-02-03-17:41:13.355579,10.0,6.0,360.0
2022-02-03-17:41:13.356662,3.0,26.0,360.0
2022-02-03-17:41:13.356662,3.0,26.0,360.0
2022-02-03-17:41:13.357688,3.0,26.0,360.0
2022-02-03-17:41:13.358736,9.0,37.0,359.0
2022-02-03-17:41:13.359057,27.0,15.0,360.0
2022-02-03-17:41:13.359057,27.0,15.0,360.0
2022-02-03-17:41:13.360083,27.0,15.0,360.0
2022-02-03-17:41:13.361081,27.0,15.0,360.0
2022-02-03-17:41:13.362077,27.0,15.0,360.0
2022-02-03-17:41:13.363092,9.0,30.0,360.0
2022-02-03-17:41:13.364128,4.0,32.0,360.0
2022-02-03-17:41:13.364128,4.0,32.0,360.0
2022-02-03-17:41:13.365089,4.0,32.0,360.0
2022-02-03-17:41:13.366089,4.0,32.0,360.0
2022-02-03-17:41:13.367117,3.0,17.0,359.0
2022-02-03-17:41:13.368114,1.0,15.0,359.0
2022-02-03-17:41:13.369132,1.0,15.0,359.0
2022-02-03-17:41:13.370130,1.0,15.0,359.0
2022-02-03-17:41:13.371126,4.0,10.0,359.0
2022-02-03-17:41:13.372127,12.0,14.0,359.0
2022-02-03-17:41:13.373157,13.0,2.0,359.0
2022-02-03-17:41:13.373157,7.0,16.0,359.0
2022-02-03-17:41:13.374205,7.0,16.0,359.0
2022-02-03-17:41:13.375204,8.0,34.0,359.0
2022-02-03-17:41:13.376197,21.0,30.0,358.0
2022-02-03-17:41:13.377290,31.0,27.0,359.0
2022-02-03-17:41:13.377290,31.0,27.0,359.0
2022-02-03-17:41:13.378336,31.0,27.0,359.0
2022-02-03-17:41:13.379333,26.0,6.0,359.0
2022-02-03-17:41:13.380558,19.0,23.0,359.0
2022-02-03-17:41:13.380954,3.0,30.0,359.0
2022-02-03-17:41:13.380954,3.0,30.0,359.0
2022-02-03-17:41:13.382008,3.0,30.0,359.0
2022-02-03-17:41:13.383052,1.0,26.0,359.0
2022-02-03-17:41:13.383052,1.0,22.0,359.0
2022-02-03-17:41:13.384099,1.0,20.0,358.0
2022-02-03-17:41:13.385097,1.0,20.0,358.0
2022-02-03-17:41:13.386094,1.0,20.0,358.0
2022-02-03-17:41:13.387095,0.0,13.0,358.0
2022-02-03-17:41:13.388066,10.0,17.0,358.0
2022-02-03-17:41:13.389086,8.0,12.0,358.0
2022-02-03-17:41:13.390083,8.0,12.0,358.0
2022-02-03-17:41:13.391080,8.0,12.0,358.0
2022-02-03-17:41:13.392077,9.0,46.0,358.0
2022-02-03-17:41:13.393076,28.0,32.0,357.0
2022-02-03-17:41:13.394072,28.0,32.0,357.0
2022-02-03-17:41:13.395074,28.0,32.0,357.0
2022-02-03-17:41:13.396071,30.0,7.0,358.0
2022-02-03-17:41:13.398061,30.0,7.0,358.0
2022-02-03-17:41:13.398061,7.0,48.0,357.0
2022-02-03-17:41:13.399023,5.0,8.0,357.0
2022-02-03-17:41:13.400056,5.0,8.0,357.0
2022-02-03-17:41:13.401055,5.0,8.0,357.0
2022-02-03-17:41:13.402050,5.0,8.0,357.0
2022-02-03-17:41:13.403053,5.0,8.0,357.0
2022-02-03-17:41:13.404025,4.0,7.0,357.0
2022-02-03-17:41:13.405150,10.0,13.0,357.0
2022-02-03-17:41:13.405150,10.0,13.0,357.0
2022-02-03-17:41:13.406197,10.0,13.0,357.0
2022-02-03-17:41:13.407364,10.0,13.0,357.0
2022-02-03-17:41:13.407364,4.0,21.0,357.0
2022-02-03-17:41:13.408410,15.0,27.0,357.0
2022-02-03-17:41:13.409410,25.0,26.0,357.0
2022-02-03-17:41:13.410404,25.0,26.0,357.0
2022-02-03-17:41:13.411403,25.0,26.0,357.0
2022-02-03-17:41:13.412399,27.0,18.0,357.0
2022-02-03-17:41:13.413398,14.0,35.0,357.0
2022-02-03-17:41:13.414394,4.0,41.0,356.0
2022-02-03-17:41:13.415372,4.0,41.0,356.0
2022-02-03-17:41:13.416342,2.0,38.0,356.0
2022-02-03-17:41:13.417389,5.0,26.0,356.0
2022-02-03-17:41:13.418385,3.0,13.0,356.0
2022-02-03-17:41:13.419381,3.0,13.0,356.0
2022-02-03-17:41:13.420378,4.0,13.0,356.0
2022-02-03-17:41:13.421375,12.0,13.0,356.0
2022-02-03-17:41:13.422372,11.0,3.0,356.0
2022-02-03-17:41:13.423370,11.0,3.0,356.0
2022-02-03-17:41:13.424367,8.0,22.0,355.0
2022-02-03-17:41:13.425367,13.0,43.0,355.0
2022-02-03-17:41:13.426363,18.0,31.0,355.0
2022-02-03-17:41:13.427359,18.0,31.0,355.0
2022-02-03-17:41:13.428357,29.0,21.0,355.0
2022-02-03-17:41:13.429353,16.0,29.0,355.0
2022-02-03-17:41:13.430351,5.0,41.0,355.0
2022-02-03-17:41:13.431302,5.0,41.0,355.0
2022-02-03-17:41:13.433317,5.0,23.0,355.0
2022-02-03-17:41:13.433317,2.0,18.0,355.0
2022-02-03-17:41:13.434340,2.0,18.0,355.0
2022-02-03-17:41:13.435292,2.0,18.0,355.0
2022-02-03-17:41:13.436335,2.0,20.0,355.0
2022-02-03-17:41:13.437333,6.0,11.0,354.0
2022-02-03-17:41:13.438330,9.0,11.0,354.0
2022-02-03-17:41:13.439332,9.0,11.0,354.0
2022-02-03-17:41:13.440324,7.0,7.0,354.0
2022-02-03-17:41:13.441325,13.0,39.0,353.0
2022-02-03-17:41:13.442319,17.0,37.0,354.0
2022-02-03-17:41:13.443320,17.0,37.0,354.0
2022-02-03-17:41:13.444314,17.0,37.0,354.0
2022-02-03-17:41:13.445311,22.0,14.0,354.0
2022-02-03-17:41:13.446308,7.0,30.0,354.0
2022-02-03-17:41:13.447305,7.0,30.0,354.0
2022-02-03-17:41:13.448303,7.0,30.0,354.0
2022-02-03-17:41:13.449255,4.0,19.0,353.0
2022-02-03-17:41:13.450298,4.0,19.0,353.0
2022-02-03-17:41:13.451275,4.0,19.0,353.0
2022-02-03-17:41:13.452271,4.0,19.0,353.0
2022-02-03-17:41:13.453268,4.0,17.0,353.0
2022-02-03-17:41:13.454267,2.0,7.0,352.0
2022-02-03-17:41:13.455264,9.0,16.0,353.0
2022-02-03-17:41:13.456260,9.0,16.0,353.0
2022-02-03-17:41:13.457260,8.0,1.0,352.0
2022-02-03-17:41:13.458374,7.0,48.0,352.0
2022-02-03-17:41:13.458374,17.0,43.0,351.0
2022-02-03-17:41:13.459410,17.0,43.0,351.0
2022-02-03-17:41:13.460592,17.0,43.0,351.0
2022-02-03-17:41:13.460592,22.0,32.0,352.0
2022-02-03-17:41:13.461618,24.0,8.0,351.0
2022-02-03-17:41:13.462615,12.0,34.0,351.0
2022-02-03-17:41:13.463613,12.0,34.0,351.0
2022-02-03-17:41:13.464610,12.0,34.0,351.0
2022-02-03-17:41:13.465582,4.0,25.0,351.0
2022-02-03-17:41:13.466606,1.0,21.0,351.0
2022-02-03-17:41:13.468621,1.0,21.0,351.0
2022-02-03-17:41:13.468621,1.0,21.0,351.0
2022-02-03-17:41:13.469617,3.0,15.0,350.0
2022-02-03-17:41:13.470615,8.0,20.0,350.0
2022-02-03-17:41:13.471613,8.0,20.0,350.0
2022-02-03-17:41:13.472612,8.0,20.0,350.0
2022-02-03-17:41:13.473607,13.0,2.0,350.0
2022-02-03-17:41:13.474605,8.0,34.0,350.0
2022-02-03-17:41:13.475601,15.0,37.0,349.0
2022-02-03-17:41:13.476599,15.0,37.0,349.0
2022-02-03-17:41:13.477596,19.0,31.0,349.0
2022-02-03-17:41:13.478680,31.0,8.0,349.0
2022-02-03-17:41:13.478680,19.0,19.0,349.0
2022-02-03-17:41:13.479734,19.0,19.0,349.0
2022-02-03-17:41:13.480941,19.0,19.0,349.0
2022-02-03-17:41:13.480941,2.0,19.0,349.0
2022-02-03-17:41:13.481940,2.0,19.0,349.0
2022-02-03-17:41:13.482984,2.0,19.0,349.0
2022-02-03-17:41:13.483981,2.0,19.0,349.0
2022-02-03-17:41:13.484981,2.0,19.0,349.0
2022-02-03-17:41:13.485976,1.0,16.0,349.0
2022-02-03-17:41:13.486978,3.0,7.0,348.0
2022-02-03-17:41:13.487972,4.0,5.0,348.0
2022-02-03-17:41:13.488968,4.0,5.0,348.0
2022-02-03-17:41:13.489965,9.0,6.0,347.0
2022-02-03-17:41:13.490963,1.0,13.0,347.0
2022-02-03-17:41:13.491961,7.0,15.0,347.0
2022-02-03-17:41:13.492959,7.0,15.0,347.0
2022-02-03-17:41:13.493955,14.0,24.0,347.0
2022-02-03-17:41:13.494952,27.0,12.0,346.0
2022-02-03-17:41:13.495951,21.0,15.0,346.0
2022-02-03-17:41:13.496901,21.0,15.0,346.0
2022-02-03-17:41:13.497923,7.0,38.0,346.0
2022-02-03-17:41:13.498908,7.0,38.0,346.0
2022-02-03-17:41:13.500260,1.0,27.0,345.0
2022-02-03-17:41:13.501308,3.0,26.0,345.0
2022-02-03-17:41:13.501308,3.0,26.0,345.0
2022-02-03-17:41:13.502257,5.0,7.0,344.0
2022-02-03-17:41:13.503301,2.0,2.0,345.0
2022-02-03-17:41:13.504358,2.0,2.0,345.0
2022-02-03-17:41:13.504358,2.0,2.0,345.0
2022-02-03-17:41:13.505413,2.0,2.0,345.0
2022-02-03-17:41:13.506412,13.0,15.0,345.0
2022-02-03-17:41:13.507408,7.0,20.0,344.0
2022-02-03-17:41:13.508386,6.0,33.0,343.0
2022-02-03-17:41:13.509401,6.0,33.0,343.0
2022-02-03-17:41:13.510399,13.0,35.0,344.0
2022-02-03-17:41:13.511398,30.0,21.0,343.0
2022-02-03-17:41:13.512394,28.0,3.0,343.0
2022-02-03-17:41:13.513560,28.0,3.0,343.0
2022-02-03-17:41:13.513560,10.0,29.0,342.0
2022-02-03-17:41:13.514614,2.0,31.0,342.0
2022-02-03-17:41:13.515616,0.0,19.0,342.0
2022-02-03-17:41:13.516609,0.0,19.0,342.0
2022-02-03-17:41:13.517606,0.0,19.0,342.0
2022-02-03-17:41:13.518678,11.0,11.0,341.0
2022-02-03-17:41:13.518678,11.0,11.0,341.0
2022-02-03-17:41:13.519727,11.0,11.0,341.0
2022-02-03-17:41:13.520756,11.0,11.0,341.0
2022-02-03-17:41:13.520756,11.0,11.0,341.0
2022-02-03-17:41:13.521810,11.0,11.0,341.0
2022-02-03-17:41:13.522808,12.0,6.0,340.0
2022-02-03-17:41:13.523807,7.0,32.0,340.0
2022-02-03-17:41:13.524802,15.0,38.0,340.0
2022-02-03-17:41:13.525799,15.0,38.0,340.0
2022-02-03-17:41:13.526797,21.0,42.0,339.0
2022-02-03-17:41:13.527774,28.0,36.0,339.0
2022-02-03-17:41:13.528791,28.0,36.0,339.0
2022-02-03-17:41:13.529793,20.0,20.0,339.0
2022-02-03-17:41:13.530786,1.0,33.0,339.0
2022-02-03-17:41:13.531765,1.0,27.0,338.0
2022-02-03-17:41:13.532726,1.0,27.0,338.0
2022-02-03-17:41:13.533762,1.0,27.0,338.0
2022-02-03-17:41:13.535773,1.0,27.0,338.0
2022-02-03-17:41:13.535773,3.0,13.0,337.0
2022-02-03-17:41:13.536770,3.0,13.0,337.0
2022-02-03-17:41:13.537754,3.0,13.0,337.0
2022-02-03-17:41:13.538764,12.0,11.0,337.0
2022-02-03-17:41:13.539764,8.0,8.0,337.0
2022-02-03-17:41:13.540751,7.0,41.0,336.0
2022-02-03-17:41:13.541749,7.0,41.0,336.0
2022-02-03-17:41:13.542746,12.0,30.0,335.0
2022-02-03-17:41:13.543743,22.0,18.0,335.0
2022-02-03-17:41:13.544740,22.0,18.0,335.0
2022-02-03-17:41:13.545738,22.0,18.0,335.0
2022-02-03-17:41:13.546735,22.0,18.0,335.0
2022-02-03-17:41:13.547735,2.0,28.0,335.0
2022-02-03-17:41:13.548684,5.0,18.0,334.0
2022-02-03-17:41:13.549727,5.0,18.0,334.0
2022-02-03-17:41:13.550724,5.0,18.0,334.0
2022-02-03-17:41:13.551702,6.0,9.0,333.0
2022-02-03-17:41:13.552700,3.0,9.0,333.0
2022-02-03-17:41:13.553721,4.0,24.0,333.0
2022-02-03-17:41:13.554717,4.0,24.0,333.0
2022-02-03-17:41:13.555714,10.0,25.0,333.0
2022-02-03-17:41:13.556708,6.0,22.0,333.0
2022-02-03-17:41:13.557706,11.0,43.0,333.0
2022-02-03-17:41:13.558893,11.0,43.0,333.0
2022-02-03-17:41:13.558893,13.0,39.0,333.0
2022-02-03-17:41:13.559947,31.0,28.0,332.0
2022-02-03-17:41:13.560944,26.0,14.0,332.0
2022-02-03-17:41:13.561942,26.0,14.0,332.0
2022-02-03-17:41:13.562940,26.0,14.0,332.0
2022-02-03-17:41:13.563936,16.0,32.0,332.0
2022-02-03-17:41:13.564938,2.0,33.0,331.0
2022-02-03-17:41:13.565909,3.0,29.0,331.0
2022-02-03-17:41:13.566874,3.0,29.0,331.0
2022-02-03-17:41:13.568915,2.0,19.0,329.0
2022-02-03-17:41:13.568915,2.0,19.0,329.0
2022-02-03-17:41:13.569917,2.0,19.0,329.0
2022-02-03-17:41:13.570911,2.0,19.0,329.0
2022-02-03-17:41:13.571907,4.0,22.0,330.0
2022-02-03-17:41:13.572909,4.0,39.0,329.0
2022-02-03-17:41:13.573882,4.0,39.0,329.0
2022-02-03-17:41:13.574899,4.0,39.0,329.0
2022-02-03-17:41:13.575896,15.0,45.0,328.0
2022-02-03-17:41:13.576894,29.0,7.0,327.0
2022-02-03-17:41:13.577891,29.0,7.0,327.0
2022-02-03-17:41:13.578842,29.0,7.0,327.0
2022-02-03-17:41:13.579886,18.0,14.0,327.0
2022-02-03-17:41:13.580887,3.0,35.0,327.0
2022-02-03-17:41:13.581835,4.0,27.0,327.0
2022-02-03-17:41:13.582835,4.0,27.0,327.0
2022-02-03-17:41:13.583875,2.0,24.0,327.0
2022-02-03-17:41:13.584878,2.0,24.0,327.0
2022-02-03-17:41:13.585850,4.0,10.0,326.0
2022-02-03-17:41:13.586822,4.0,10.0,326.0
2022-02-03-17:41:13.587864,5.0,10.0,326.0
2022-02-03-17:41:13.588866,8.0,4.0,325.0
2022-02-03-17:41:13.589839,2.0,26.0,325.0
2022-02-03-17:41:13.590856,2.0,26.0,325.0
2022-02-03-17:41:13.591854,18.0,32.0,325.0
2022-02-03-17:41:13.592851,29.0,18.0,324.0
2022-02-03-17:41:13.593848,29.0,18.0,324.0
2022-02-03-17:41:13.594847,29.0,18.0,324.0
2022-02-03-17:41:13.595843,29.0,18.0,324.0
2022-02-03-17:41:13.596846,4.0,32.0,324.0
2022-02-03-17:41:13.597839,1.0,34.0,324.0
2022-02-03-17:41:13.598835,1.0,34.0,324.0
2022-02-03-17:41:13.599786,1.0,34.0,324.0
2022-02-03-17:41:13.600833,3.0,26.0,324.0
2022-02-03-17:41:13.602826,3.0,26.0,324.0
2022-02-03-17:41:13.602826,2.0,11.0,323.0
2022-02-03-17:41:13.603775,6.0,15.0,322.0
2022-02-03-17:41:13.604823,6.0,15.0,322.0
2022-02-03-17:41:13.605796,6.0,15.0,322.0
2022-02-03-17:41:13.606814,6.0,15.0,322.0
2022-02-03-17:41:13.607811,6.0,15.0,322.0
2022-02-03-17:41:13.608809,7.0,31.0,322.0
2022-02-03-17:41:13.609806,20.0,28.0,322.0
2022-02-03-17:41:13.610805,26.0,28.0,322.0
2022-02-03-17:41:13.611800,26.0,28.0,322.0
2022-02-03-17:41:13.612802,25.0,5.0,322.0
2022-02-03-17:41:13.613796,7.0,30.0,322.0
2022-02-03-17:41:13.614792,1.0,34.0,322.0
2022-02-03-17:41:13.615746,1.0,34.0,322.0
2022-02-03-17:41:13.616766,7.0,14.0,320.0
2022-02-03-17:41:13.617784,1.0,17.0,321.0
2022-02-03-17:41:13.618783,1.0,17.0,321.0
2022-02-03-17:41:13.619733,1.0,17.0,321.0
2022-02-03-17:41:13.620776,1.0,13.0,321.0
2022-02-03-17:41:13.621728,8.0,16.0,320.0
2022-02-03-17:41:13.622874,15.0,16.0,320.0
2022-02-03-17:41:13.622874,12.0,6.0,320.0
2022-02-03-17:41:13.624097,12.0,6.0,320.0
2022-02-03-17:41:13.624097,1.0,25.0,320.0
2022-02-03-17:41:13.625146,23.0,35.0,320.0
2022-02-03-17:41:13.626141,28.0,31.0,320.0
2022-02-03-17:41:13.627138,28.0,31.0,320.0
2022-02-03-17:41:13.628136,28.0,31.0,320.0
2022-02-03-17:41:13.629134,30.0,13.0,320.0
2022-02-03-17:41:13.630133,3.0,28.0,320.0
2022-02-03-17:41:13.631128,1.0,36.0,320.0
2022-02-03-17:41:13.632079,1.0,36.0,320.0
2022-02-03-17:41:13.633125,3.0,35.0,320.0
2022-02-03-17:41:13.634120,3.0,28.0,319.0
2022-02-03-17:41:13.636068,3.0,28.0,319.0
2022-02-03-17:41:13.636068,1.0,26.0,320.0
2022-02-03-17:41:13.637066,2.0,12.0,319.0
2022-02-03-17:41:13.638111,13.0,7.0,320.0
2022-02-03-17:41:13.639107,10.0,15.0,319.0
2022-02-03-17:41:13.640058,10.0,15.0,319.0
2022-02-03-17:41:13.641103,1.0,30.0,320.0
2022-02-03-17:41:13.642099,17.0,34.0,320.0
2022-02-03-17:41:13.643096,25.0,28.0,320.0
2022-02-03-17:41:13.644092,25.0,28.0,320.0
2022-02-03-17:41:13.645091,25.0,28.0,320.0
2022-02-03-17:41:13.646090,26.0,1.0,319.0
2022-02-03-17:41:13.647184,2.0,34.0,319.0
2022-02-03-17:41:13.647184,2.0,34.0,319.0
2022-02-03-17:41:13.648405,2.0,34.0,319.0
2022-02-03-17:41:13.648405,3.0,29.0,318.0
2022-02-03-17:41:13.649412,3.0,29.0,318.0
2022-02-03-17:41:13.650435,4.0,10.0,319.0
2022-02-03-17:41:13.651433,3.0,16.0,319.0
2022-02-03-17:41:13.652430,3.0,16.0,319.0
2022-02-03-17:41:13.653428,0.0,19.0,318.0
2022-02-03-17:41:13.654426,10.0,22.0,319.0
2022-02-03-17:41:13.655422,10.0,9.0,319.0
2022-02-03-17:41:13.656418,10.0,9.0,319.0
2022-02-03-17:41:13.657418,16.0,31.0,318.0
2022-02-03-17:41:13.658413,20.0,34.0,318.0
2022-02-03-17:41:13.659413,20.0,34.0,318.0
2022-02-03-17:41:13.660409,20.0,34.0,318.0
2022-02-03-17:41:13.661407,20.0,34.0,318.0
2022-02-03-17:41:13.662404,26.0,11.0,319.0
2022-02-03-17:41:13.663400,8.0,33.0,319.0
2022-02-03-17:41:13.664397,8.0,33.0,319.0
2022-02-03-17:41:13.665396,8.0,33.0,319.0
2022-02-03-17:41:13.666394,1.0,30.0,318.0
2022-02-03-17:41:13.668380,7.0,22.0,318.0
2022-02-03-17:41:13.669355,5.0,22.0,318.0
2022-02-03-17:41:13.669355,3.0,21.0,318.0
2022-02-03-17:41:13.670374,8.0,12.0,318.0
2022-02-03-17:41:13.671371,8.0,12.0,318.0
2022-02-03-17:41:13.672368,8.0,12.0,318.0
2022-02-03-17:41:13.673367,8.0,12.0,318.0
2022-02-03-17:41:13.674365,7.0,1.0,318.0
2022-02-03-17:41:13.675364,14.0,31.0,318.0
2022-02-03-17:41:13.676357,14.0,34.0,318.0
2022-02-03-17:41:13.677354,14.0,34.0,318.0
2022-02-03-17:41:13.678354,30.0,33.0,317.0
2022-02-03-17:41:13.679324,5.0,34.0,318.0
2022-02-03-17:41:13.680321,5.0,34.0,318.0
2022-02-03-17:41:13.681318,5.0,34.0,318.0
2022-02-03-17:41:13.682316,3.0,34.0,318.0
2022-02-03-17:41:13.683314,5.0,19.0,318.0
2022-02-03-17:41:13.684344,5.0,19.0,318.0
2022-02-03-17:41:13.685340,5.0,19.0,318.0
2022-02-03-17:41:13.686340,5.0,13.0,318.0
2022-02-03-17:41:13.687335,5.0,13.0,318.0
2022-02-03-17:41:13.688333,10.0,14.0,317.0
2022-02-03-17:41:13.689332,10.0,14.0,317.0
2022-02-03-17:41:13.690327,9.0,2.0,318.0
2022-02-03-17:41:13.691327,15.0,33.0,318.0
2022-02-03-17:41:13.692322,15.0,33.0,318.0
2022-02-03-17:41:13.693319,15.0,33.0,318.0
2022-02-03-17:41:13.694319,24.0,29.0,317.0
2022-02-03-17:41:13.695313,28.0,24.0,317.0
2022-02-03-17:41:13.696311,11.0,29.0,317.0
2022-02-03-17:41:13.697310,11.0,29.0,317.0
2022-02-03-17:41:13.698305,11.0,29.0,317.0
2022-02-03-17:41:13.699281,4.0,33.0,318.0
2022-02-03-17:41:13.700303,4.0,21.0,318.0
2022-02-03-17:41:13.701320,4.0,21.0,318.0
2022-02-03-17:41:13.703319,4.0,15.0,317.0
2022-02-03-17:41:13.704044,9.0,15.0,317.0
2022-02-03-17:41:13.704044,9.0,15.0,317.0
2022-02-03-17:41:13.705099,9.0,15.0,317.0
2022-02-03-17:41:13.706096,9.0,15.0,317.0
2022-02-03-17:41:13.707093,13.0,5.0,317.0
2022-02-03-17:41:13.708092,6.0,34.0,317.0
2022-02-03-17:41:13.709088,14.0,33.0,317.0
2022-02-03-17:41:13.710085,14.0,33.0,317.0
2022-02-03-17:41:13.711084,18.0,27.0,316.0
2022-02-03-17:41:13.712079,25.0,5.0,317.0
2022-02-03-17:41:13.713077,14.0,22.0,317.0
2022-02-03-17:41:13.714074,14.0,22.0,317.0
2022-02-03-17:41:13.715071,6.0,36.0,317.0
2022-02-03-17:41:13.716015,1.0,27.0,317.0
2022-02-03-17:41:13.717066,1.0,22.0,317.0
2022-02-03-17:41:13.718731,1.0,22.0,317.0
2022-02-03-17:41:13.718731,5.0,14.0,316.0
2022-02-03-17:41:13.719781,5.0,14.0,316.0
2022-02-03-17:41:13.720775,5.0,14.0,316.0
2022-02-03-17:41:13.721773,5.0,14.0,316.0
2022-02-03-17:41:13.722822,5.0,14.0,316.0
2022-02-03-17:41:13.722822,11.0,6.0,316.0
2022-02-03-17:41:13.723853,11.0,6.0,316.0
2022-02-03-17:41:13.724851,8.0,37.0,316.0
2022-02-03-17:41:13.725849,8.0,37.0,316.0
2022-02-03-17:41:13.726846,8.0,37.0,316.0
2022-02-03-17:41:13.727843,16.0,32.0,316.0
2022-02-03-17:41:13.728841,24.0,11.0,316.0
2022-02-03-17:41:13.729838,24.0,11.0,316.0
2022-02-03-17:41:13.730837,24.0,11.0,316.0
2022-02-03-17:41:13.731801,11.0,38.0,316.0
2022-02-03-17:41:13.732828,0.0,19.0,316.0
2022-02-03-17:41:13.733833,0.0,19.0,316.0
2022-02-03-17:41:13.735813,0.0,19.0,316.0
2022-02-03-17:41:13.735813,3.0,5.0,316.0
2022-02-03-17:41:13.736787,3.0,5.0,316.0
2022-02-03-17:41:13.737808,3.0,5.0,316.0
2022-02-03-17:41:13.738807,3.0,5.0,316.0
2022-02-03-17:41:13.739807,10.0,10.0,316.0
2022-02-03-17:41:13.740800,7.0,29.0,316.0
2022-02-03-17:41:13.741799,13.0,32.0,316.0
2022-02-03-17:41:13.742795,13.0,32.0,316.0
2022-02-03-17:41:13.743792,23.0,34.0,316.0
2022-02-03-17:41:13.744790,13.0,28.0,315.0
2022-02-03-17:41:13.745787,13.0,28.0,315.0
2022-02-03-17:41:13.746760,13.0,28.0,315.0
2022-02-03-17:41:13.747782,2.0,28.0,316.0
2022-02-03-17:41:13.748779,1.0,23.0,315.0
2022-02-03-17:41:13.749778,1.0,23.0,315.0
2022-02-03-17:41:13.750750,1.0,23.0,315.0
2022-02-03-17:41:13.751771,0.0,20.0,315.0
2022-02-03-17:41:13.752769,0.0,20.0,315.0
2022-02-03-17:41:13.753765,2.0,11.0,315.0
2022-02-03-17:41:13.754739,8.0,11.0,316.0
2022-02-03-17:41:13.755760,8.0,5.0,315.0
2022-02-03-17:41:13.756864,8.0,36.0,314.0
2022-02-03-17:41:13.756864,8.0,36.0,314.0
2022-02-03-17:41:13.757912,8.0,36.0,314.0
2022-02-03-17:41:13.758914,8.0,36.0,314.0
2022-02-03-17:41:13.759905,19.0,30.0,315.0
2022-02-03-17:41:13.760902,19.0,19.0,314.0
2022-02-03-17:41:13.761853,19.0,19.0,314.0
2022-02-03-17:41:13.762854,19.0,19.0,314.0
2022-02-03-17:41:13.763848,19.0,19.0,314.0
2022-02-03-17:41:13.764944,6.0,33.0,315.0
2022-02-03-17:41:13.764944,6.0,36.0,315.0
2022-02-03-17:41:13.765958,6.0,36.0,315.0
2022-02-03-17:41:13.766968,4.0,28.0,314.0
2022-02-03-17:41:13.767962,4.0,28.0,314.0
2022-02-03-17:41:13.768959,0.0,14.0,314.0
2022-02-03-17:41:13.770954,5.0,11.0,314.0
2022-02-03-17:41:13.770954,3.0,25.0,313.0
2022-02-03-17:41:13.771951,9.0,36.0,313.0
2022-02-03-17:41:13.772950,9.0,36.0,313.0
2022-02-03-17:41:13.773945,9.0,36.0,313.0
2022-02-03-17:41:13.774945,9.0,36.0,313.0
2022-02-03-17:41:13.775941,9.0,36.0,313.0
2022-02-03-17:41:13.776938,17.0,33.0,313.0
2022-02-03-17:41:13.777937,21.0,7.0,313.0
2022-02-03-17:41:13.778933,21.0,7.0,313.0
2022-02-03-17:41:13.779937,21.0,7.0,313.0
2022-02-03-17:41:13.780929,14.0,26.0,314.0
2022-02-03-17:41:13.781900,2.0,30.0,313.0
2022-02-03-17:41:13.782919,6.0,34.0,313.0
2022-02-03-17:41:13.783919,6.0,34.0,313.0
2022-02-03-17:41:13.784917,10.0,26.0,313.0
2022-02-03-17:41:13.785916,2.0,20.0,313.0
2022-02-03-17:41:13.786911,3.0,8.0,313.0
2022-02-03-17:41:13.787909,3.0,8.0,313.0
2022-02-03-17:41:13.788908,14.0,15.0,313.0
2022-02-03-17:41:13.789903,12.0,4.0,312.0
2022-02-03-17:41:13.790903,6.0,35.0,312.0
2022-02-03-17:41:13.791898,6.0,35.0,312.0
2022-02-03-17:41:13.792895,6.0,35.0,312.0
2022-02-03-17:41:13.793895,30.0,21.0,312.0
2022-02-03-17:41:13.794890,25.0,5.0,313.0
2022-02-03-17:41:13.795863,25.0,5.0,313.0
2022-02-03-17:41:13.796890,18.0,16.0,312.0
2022-02-03-17:41:13.797887,5.0,23.0,312.0
2022-02-03-17:41:13.798882,5.0,23.0,312.0
2022-02-03-17:41:13.799853,5.0,23.0,312.0
2022-02-03-17:41:13.800876,5.0,19.0,312.0
2022-02-03-17:41:13.801873,6.0,32.0,311.0
2022-02-03-17:41:13.802868,6.0,32.0,311.0
2022-02-03-17:41:13.803871,6.0,32.0,311.0
2022-02-03-17:41:13.805860,10.0,18.0,311.0
2022-02-03-17:41:13.805860,6.0,38.0,312.0
2022-02-03-17:41:13.806865,6.0,38.0,312.0
2022-02-03-17:41:13.807856,6.0,38.0,312.0
2022-02-03-17:41:13.808852,17.0,34.0,311.0
2022-02-03-17:41:13.809947,28.0,11.0,310.0
2022-02-03-17:41:13.809947,28.0,11.0,310.0
2022-02-03-17:41:13.811002,28.0,11.0,310.0
2022-02-03-17:41:13.811991,28.0,11.0,310.0
2022-02-03-17:41:13.813026,28.0,11.0,310.0
2022-02-03-17:41:13.813026,7.0,36.0,311.0
2022-02-03-17:41:13.814082,3.0,29.0,311.0
2022-02-03-17:41:13.815076,3.0,29.0,311.0
2022-02-03-17:41:13.816021,3.0,29.0,311.0
2022-02-03-17:41:13.817280,3.0,29.0,311.0
2022-02-03-17:41:13.817280,1.0,22.0,311.0
2022-02-03-17:41:13.818305,1.0,22.0,311.0
2022-02-03-17:41:13.819302,1.0,14.0,311.0
2022-02-03-17:41:13.820284,1.0,14.0,311.0
2022-02-03-17:41:13.821299,10.0,8.0,310.0
2022-02-03-17:41:13.822293,0.0,27.0,310.0
2022-02-03-17:41:13.823292,0.0,27.0,310.0
2022-02-03-17:41:13.824289,0.0,27.0,310.0
2022-02-03-17:41:13.825286,0.0,27.0,310.0
2022-02-03-17:41:13.826284,26.0,36.0,310.0
2022-02-03-17:41:13.827281,28.0,26.0,310.0
2022-02-03-17:41:13.828279,28.0,26.0,310.0
2022-02-03-17:41:13.829275,28.0,26.0,310.0
2022-02-03-17:41:13.830272,26.0,0.0,309.0
2022-02-03-17:41:13.831385,1.0,30.0,309.0
2022-02-03-17:41:13.831385,1.0,30.0,309.0
2022-02-03-17:41:13.832431,1.0,30.0,309.0
2022-02-03-17:41:13.833626,1.0,30.0,309.0
2022-02-03-17:41:13.833626,2.0,26.0,309.0
2022-02-03-17:41:13.834650,2.0,26.0,309.0
2022-02-03-17:41:13.835647,6.0,18.0,309.0
2022-02-03-17:41:13.836647,6.0,18.0,309.0
2022-02-03-17:41:13.837642,2.0,8.0,309.0
2022-02-03-17:41:13.838639,2.0,8.0,309.0
2022-02-03-17:41:13.840634,11.0,14.0,308.0
2022-02-03-17:41:13.840634,29.0,20.0,308.0
2022-02-03-17:41:13.841634,29.0,20.0,308.0
2022-02-03-17:41:13.842628,29.0,20.0,308.0
2022-02-03-17:41:13.843625,29.0,20.0,308.0
2022-02-03-17:41:13.844630,29.0,20.0,308.0
2022-02-03-17:41:13.845620,29.0,20.0,308.0
2022-02-03-17:41:13.846618,26.0,5.0,308.0
2022-02-03-17:41:13.847713,0.0,31.0,308.0
2022-02-03-17:41:13.847713,0.0,31.0,308.0
2022-02-03-17:41:13.848771,0.0,31.0,308.0
2022-02-03-17:41:13.849745,0.0,31.0,308.0
2022-02-03-17:41:13.849745,0.0,16.0,308.0
2022-02-03-17:41:13.850881,0.0,16.0,308.0
2022-02-03-17:41:13.850881,1.0,11.0,308.0
2022-02-03-17:41:13.851927,1.0,11.0,308.0
2022-02-03-17:41:13.852925,1.0,11.0,308.0
2022-02-03-17:41:13.853924,1.0,11.0,308.0
2022-02-03-17:41:13.854925,8.0,13.0,308.0
2022-02-03-17:41:13.855397,8.0,11.0,308.0
2022-02-03-17:41:13.855397,8.0,11.0,308.0
2022-02-03-17:41:13.856423,8.0,11.0,308.0
2022-02-03-17:41:13.857423,8.0,11.0,308.0
2022-02-03-17:41:13.858457,5.0,29.0,307.0
2022-02-03-17:41:13.858457,16.0,28.0,307.0
2022-02-03-17:41:13.859481,29.0,33.0,307.0
2022-02-03-17:41:13.860478,29.0,33.0,307.0
2022-02-03-17:41:13.861452,29.0,33.0,307.0
2022-02-03-17:41:13.862473,26.0,6.0,307.0
2022-02-03-17:41:13.863470,6.0,28.0,307.0
2022-02-03-17:41:13.864470,2.0,29.0,308.0
2022-02-03-17:41:13.865441,2.0,29.0,308.0
2022-02-03-17:41:13.866439,4.0,32.0,307.0
2022-02-03-17:41:13.867460,2.0,20.0,307.0
2022-02-03-17:41:13.868457,2.0,18.0,307.0
2022-02-03-17:41:13.869435,2.0,18.0,307.0
2022-02-03-17:41:13.870452,1.0,13.0,306.0
2022-02-03-17:41:13.872449,9.0,1.0,306.0
2022-02-03-17:41:13.872449,9.0,1.0,306.0
2022-02-03-17:41:13.873443,9.0,1.0,306.0
2022-02-03-17:41:13.874444,9.0,1.0,306.0
2022-02-03-17:41:13.875438,17.0,31.0,306.0
2022-02-03-17:41:13.876437,26.0,25.0,305.0
2022-02-03-17:41:13.877435,26.0,25.0,305.0
2022-02-03-17:41:13.878431,26.0,25.0,305.0
2022-02-03-17:41:13.879544,1.0,32.0,306.0
2022-02-03-17:41:13.879544,1.0,32.0,306.0
2022-02-03-17:41:13.880591,1.0,32.0,306.0
2022-02-03-17:41:13.881588,1.0,32.0,306.0
2022-02-03-17:41:13.882599,1.0,32.0,306.0
2022-02-03-17:41:13.883582,0.0,10.0,305.0
2022-02-03-17:41:13.884580,0.0,10.0,305.0
2022-02-03-17:41:13.885532,0.0,10.0,305.0
2022-02-03-17:41:13.886575,0.0,10.0,305.0
2022-02-03-17:41:13.887571,1.0,1.0,306.0
2022-02-03-17:41:13.888584,13.0,9.0,305.0
2022-02-03-17:41:13.888584,13.0,9.0,305.0
2022-02-03-17:41:13.889615,13.0,9.0,305.0
2022-02-03-17:41:13.890840,13.0,9.0,305.0
2022-02-03-17:41:13.890840,8.0,7.0,305.0
2022-02-03-17:41:13.891878,8.0,7.0,305.0
2022-02-03-17:41:13.893006,17.0,22.0,305.0
2022-02-03-17:41:13.893006,17.0,22.0,305.0
2022-02-03-17:41:13.894053,17.0,22.0,305.0
2022-02-03-17:41:13.895107,31.0,23.0,305.0
2022-02-03-17:41:13.895107,14.0,17.0,304.0
2022-02-03-17:41:13.896258,14.0,17.0,304.0
2022-02-03-17:41:13.896258,4.0,31.0,305.0
2022-02-03-17:41:13.897304,4.0,31.0,305.0
2022-02-03-17:41:13.898302,4.0,31.0,305.0
2022-02-03-17:41:13.899300,2.0,30.0,305.0
2022-02-03-17:41:13.900276,4.0,28.0,304.0
2022-02-03-17:41:13.901294,1.0,27.0,304.0
2022-02-03-17:41:13.902291,1.0,27.0,304.0
2022-02-03-17:41:13.903290,0.0,26.0,303.0
2022-02-03-17:41:13.904285,1.0,21.0,304.0
2022-02-03-17:41:13.905282,12.0,8.0,304.0
2022-02-03-17:41:13.907277,12.0,8.0,304.0
2022-02-03-17:41:13.907277,17.0,28.0,304.0
2022-02-03-17:41:13.908277,17.0,28.0,304.0
2022-02-03-17:41:13.909328,17.0,28.0,304.0
2022-02-03-17:41:13.909328,17.0,28.0,304.0
2022-02-03-17:41:13.910382,17.0,28.0,304.0
2022-02-03-17:41:13.911387,25.0,31.0,303.0
2022-02-03-17:41:13.912377,9.0,32.0,303.0
2022-02-03-17:41:13.913373,9.0,32.0,303.0
2022-02-03-17:41:13.914352,9.0,32.0,303.0
2022-02-03-17:41:13.915352,9.0,32.0,303.0
2022-02-03-17:41:13.916312,0.0,30.0,303.0
2022-02-03-17:41:13.917344,0.0,25.0,303.0
2022-02-03-17:41:13.918339,3.0,17.0,302.0
2022-02-03-17:41:13.919337,3.0,17.0,302.0
2022-02-03-17:41:13.920334,4.0,13.0,302.0
2022-02-03-17:41:13.921332,2.0,6.0,302.0
2022-02-03-17:41:13.922329,8.0,16.0,302.0
2022-02-03-17:41:13.923541,8.0,16.0,302.0
2022-02-03-17:41:13.923541,12.0,2.0,302.0
2022-02-03-17:41:13.924573,7.0,31.0,301.0
2022-02-03-17:41:13.925572,15.0,33.0,301.0
2022-02-03-17:41:13.926567,15.0,33.0,301.0
2022-02-03-17:41:13.927572,15.0,33.0,301.0
2022-02-03-17:41:13.928563,25.0,33.0,302.0
2022-02-03-17:41:13.929668,13.0,29.0,301.0
2022-02-03-17:41:13.929668,13.0,29.0,301.0
2022-02-03-17:41:13.930692,13.0,29.0,301.0
2022-02-03-17:41:13.931692,13.0,29.0,301.0
2022-02-03-17:41:13.932663,13.0,29.0,301.0
2022-02-03-17:41:13.933890,2.0,38.0,302.0
2022-02-03-17:41:13.933890,0.0,24.0,301.0
2022-02-03-17:41:13.934922,0.0,24.0,301.0
2022-02-03-17:41:13.935919,0.0,15.0,301.0
2022-02-03-17:41:13.936919,3.0,11.0,300.0
2022-02-03-17:41:13.937914,7.0,15.0,301.0
2022-02-03-17:41:13.938880,7.0,15.0,301.0
2022-02-03-17:41:13.939908,7.0,15.0,301.0
2022-02-03-17:41:13.940898,10.0,31.0,301.0
2022-02-03-17:41:13.942899,10.0,31.0,301.0
2022-02-03-17:41:13.942899,10.0,31.0,301.0
2022-02-03-17:41:13.943867,26.0,8.0,300.0
2022-02-03-17:41:13.944894,15.0,20.0,300.0
2022-02-03-17:41:13.945886,15.0,20.0,300.0
2022-02-03-17:41:13.946884,15.0,20.0,300.0
2022-02-03-17:41:13.947860,15.0,20.0,300.0
2022-02-03-17:41:13.948879,2.0,32.0,300.0
2022-02-03-17:41:13.949858,3.0,21.0,300.0
2022-02-03-17:41:13.950875,3.0,21.0,300.0
2022-02-03-17:41:13.951869,3.0,21.0,300.0
2022-02-03-17:41:13.952868,6.0,17.0,300.0
2022-02-03-17:41:13.953864,3.0,8.0,299.0
2022-02-03-17:41:13.954861,4.0,13.0,299.0
2022-02-03-17:41:13.955862,4.0,13.0,299.0
2022-02-03-17:41:13.956858,13.0,18.0,299.0
2022-02-03-17:41:13.957856,2.0,28.0,299.0
2022-02-03-17:41:13.958852,8.0,35.0,299.0
2022-02-03-17:41:13.959824,8.0,35.0,299.0
2022-02-03-17:41:13.960868,16.0,37.0,299.0
2022-02-03-17:41:13.961866,29.0,35.0,299.0
2022-02-03-17:41:13.962862,28.0,15.0,299.0
2022-02-03-17:41:13.963813,10.0,29.0,298.0
2022-02-03-17:41:13.964858,1.0,35.0,299.0
2022-02-03-17:41:13.965855,0.0,24.0,298.0
2022-02-03-17:41:13.966831,0.0,22.0,298.0
2022-02-03-17:41:13.967802,0.0,22.0,298.0
2022-02-03-17:41:13.968826,1.0,18.0,297.0
2022-02-03-17:41:13.969823,3.0,4.0,297.0
2022-02-03-17:41:13.970820,13.0,18.0,298.0
2022-02-03-17:41:13.971821,13.0,18.0,298.0
2022-02-03-17:41:13.973813,12.0,32.0,297.0
2022-02-03-17:41:13.973813,19.0,27.0,297.0
2022-02-03-17:41:13.974809,19.0,27.0,297.0
2022-02-03-17:41:13.975806,19.0,27.0,297.0
2022-02-03-17:41:13.976805,19.0,27.0,297.0
2022-02-03-17:41:13.977824,27.0,16.0,297.0
2022-02-03-17:41:13.978797,11.0,28.0,296.0
2022-02-03-17:41:13.979795,11.0,28.0,296.0
2022-02-03-17:41:13.980793,11.0,28.0,296.0
2022-02-03-17:41:13.981765,5.0,31.0,297.0
2022-02-03-17:41:13.982763,5.0,25.0,296.0
2022-02-03-17:41:13.983786,5.0,18.0,297.0
2022-02-03-17:41:13.984784,5.0,18.0,297.0
2022-02-03-17:41:13.985754,2.0,21.0,296.0
2022-02-03-17:41:13.986778,3.0,2.0,296.0
2022-02-03-17:41:13.987774,5.0,10.0,296.0
2022-02-03-17:41:13.988771,5.0,10.0,296.0
2022-02-03-17:41:13.989770,10.0,37.0,296.0
2022-02-03-17:41:13.990765,10.0,37.0,296.0
2022-02-03-17:41:13.991784,10.0,37.0,296.0
2022-02-03-17:41:13.992783,10.0,37.0,296.0
2022-02-03-17:41:13.993781,14.0,30.0,295.0
2022-02-03-17:41:13.994776,28.0,31.0,295.0
2022-02-03-17:41:13.995773,19.0,35.0,295.0
2022-02-03-17:41:13.996772,19.0,35.0,295.0
2022-02-03-17:41:13.997770,9.0,41.0,295.0
2022-02-03-17:41:13.998766,0.0,21.0,295.0
2022-02-03-17:41:13.999718,1.0,21.0,295.0
2022-02-03-17:41:14.000714,1.0,21.0,295.0
2022-02-03-17:41:14.001760,1.0,21.0,295.0
2022-02-03-17:41:14.002755,5.0,14.0,295.0
2022-02-03-17:41:14.003752,11.0,10.0,294.0
2022-02-03-17:41:14.004704,11.0,10.0,294.0
2022-02-03-17:41:14.005748,12.0,14.0,295.0
2022-02-03-17:41:14.007742,3.0,34.0,295.0
2022-02-03-17:41:14.007742,5.0,41.0,294.0
2022-02-03-17:41:14.008726,5.0,41.0,294.0
2022-02-03-17:41:14.009738,15.0,34.0,295.0
2022-02-03-17:41:14.010734,24.0,15.0,295.0
2022-02-03-17:41:14.011731,23.0,1.0,294.0
2022-02-03-17:41:14.012729,23.0,1.0,294.0
2022-02-03-17:41:14.013726,23.0,1.0,294.0
2022-02-03-17:41:14.014723,0.0,30.0,294.0
2022-02-03-17:41:14.015721,0.0,20.0,294.0
2022-02-03-17:41:14.016717,0.0,20.0,294.0
2022-02-03-17:41:14.017717,0.0,20.0,294.0
2022-02-03-17:41:14.018712,2.0,18.0,294.0
2022-02-03-17:41:14.019709,3.0,12.0,294.0
2022-02-03-17:41:14.020709,3.0,12.0,294.0
2022-02-03-17:41:14.021704,3.0,12.0,294.0
2022-02-03-17:41:14.022703,12.0,15.0,294.0
2022-02-03-17:41:14.023699,12.0,15.0,294.0
2022-02-03-17:41:14.024676,9.0,32.0,294.0
2022-02-03-17:41:14.025675,9.0,32.0,294.0
2022-02-03-17:41:14.026670,13.0,33.0,293.0
2022-02-03-17:41:14.027666,29.0,23.0,293.0
2022-02-03-17:41:14.028640,29.0,2.0,293.0
2022-02-03-17:41:14.029638,29.0,2.0,293.0
2022-02-03-17:41:14.030660,13.0,25.0,293.0
2022-02-03-17:41:14.031632,5.0,28.0,293.0
2022-02-03-17:41:14.032629,5.0,28.0,293.0
2022-02-03-17:41:14.033627,5.0,28.0,293.0
2022-02-03-17:41:14.034625,1.0,17.0,293.0
2022-02-03-17:41:14.035621,0.0,16.0,292.0
2022-02-03-17:41:14.036643,0.0,16.0,292.0
2022-02-03-17:41:14.037616,0.0,16.0,292.0
2022-02-03-17:41:14.038613,12.0,9.0,292.0
2022-02-03-17:41:14.039610,3.0,27.0,292.0
2022-02-03-17:41:14.040633,3.0,27.0,292.0
2022-02-03-17:41:14.041605,3.0,27.0,292.0
2022-02-03-17:41:14.043629,12.0,37.0,292.0
2022-02-03-17:41:14.043629,28.0,34.0,292.0
2022-02-03-17:41:14.044629,28.0,10.0,292.0
2022-02-03-17:41:14.045594,28.0,10.0,292.0
2022-02-03-17:41:14.046616,17.0,18.0,292.0
2022-02-03-17:41:14.047614,1.0,32.0,291.0
2022-02-03-17:41:14.048586,2.0,30.0,291.0
2022-02-03-17:41:14.049584,2.0,30.0,291.0
2022-02-03-17:41:14.050606,2.0,30.0,291.0
2022-02-03-17:41:14.051607,1.0,21.0,291.0
2022-02-03-17:41:14.052601,2.0,13.0,291.0
2022-02-03-17:41:14.053600,2.0,13.0,291.0
2022-02-03-17:41:14.054596,12.0,18.0,291.0
2022-02-03-17:41:14.055605,5.0,27.0,290.0
2022-02-03-17:41:14.056591,5.0,27.0,290.0
2022-02-03-17:41:14.057562,5.0,27.0,290.0
2022-02-03-17:41:14.058561,5.0,27.0,290.0
2022-02-03-17:41:14.059557,16.0,34.0,290.0
2022-02-03-17:41:14.060579,27.0,17.0,290.0
2022-02-03-17:41:14.061552,27.0,17.0,290.0
2022-02-03-17:41:14.062578,27.0,17.0,290.0
2022-02-03-17:41:14.063546,12.0,28.0,290.0
2022-02-03-17:41:14.064570,2.0,33.0,290.0
2022-02-03-17:41:14.065571,2.0,33.0,290.0
2022-02-03-17:41:14.066539,2.0,33.0,290.0
2022-02-03-17:41:14.067560,4.0,23.0,290.0
2022-02-03-17:41:14.068534,1.0,15.0,289.0
2022-02-03-17:41:14.069530,1.0,15.0,289.0
2022-02-03-17:41:14.070527,1.0,15.0,289.0
2022-02-03-17:41:14.071524,9.0,9.0,289.0
2022-02-03-17:41:14.072522,9.0,9.0,289.0
2022-02-03-17:41:14.073521,9.0,9.0,289.0
2022-02-03-17:41:14.075547,9.0,9.0,289.0
2022-02-03-17:41:14.075547,17.0,36.0,289.0
2022-02-03-17:41:14.076550,26.0,21.0,288.0
2022-02-03-17:41:14.077544,26.0,21.0,288.0
2022-02-03-17:41:14.078508,26.0,21.0,288.0
2022-02-03-17:41:14.079536,15.0,25.0,289.0
2022-02-03-17:41:14.080535,0.0,32.0,288.0
2022-02-03-17:41:14.081536,0.0,32.0,288.0
2022-02-03-17:41:14.082496,0.0,32.0,288.0
2022-02-03-17:41:14.083532,3.0,25.0,288.0
2022-02-03-17:41:14.084516,1.0,18.0,288.0
2022-02-03-17:41:14.085514,1.0,18.0,288.0
2022-02-03-17:41:14.086510,1.0,18.0,288.0
2022-02-03-17:41:14.087505,9.0,7.0,288.0
2022-02-03-17:41:14.088479,9.0,7.0,288.0
2022-02-03-17:41:14.089476,9.0,7.0,288.0
2022-02-03-17:41:14.090475,9.0,7.0,288.0
2022-02-03-17:41:14.091472,28.0,34.0,287.0
2022-02-03-17:41:14.092494,28.0,34.0,287.0
2022-02-03-17:41:14.093467,28.0,34.0,287.0
2022-02-03-17:41:14.094465,28.0,34.0,287.0
2022-02-03-17:41:14.095462,28.0,34.0,287.0
2022-02-03-17:41:14.096459,28.0,13.0,287.0
2022-02-03-17:41:14.097481,19.0,11.0,287.0
2022-02-03-17:41:14.098453,3.0,31.0,287.0
2022-02-03-17:41:14.099451,3.0,31.0,287.0
2022-02-03-17:41:14.100448,3.0,17.0,287.0
2022-02-03-17:41:14.101445,3.0,17.0,287.0
2022-02-03-17:41:14.102442,3.0,17.0,287.0
2022-02-03-17:41:14.103440,3.0,17.0,287.0
2022-02-03-17:41:14.104437,4.0,10.0,286.0
2022-02-03-17:41:14.105434,9.0,5.0,286.0
2022-02-03-17:41:14.106431,9.0,5.0,286.0
2022-02-03-17:41:14.107466,9.0,5.0,286.0
2022-02-03-17:41:14.109460,22.0,38.0,285.0
2022-02-03-17:41:14.109460,22.0,38.0,285.0
2022-02-03-17:41:14.110422,22.0,38.0,285.0
2022-02-03-17:41:14.111417,22.0,38.0,285.0
2022-02-03-17:41:14.112450,24.0,9.0,286.0
2022-02-03-17:41:14.113413,5.0,47.0,286.0
2022-02-03-17:41:14.114444,5.0,47.0,286.0
2022-02-03-17:41:14.115408,5.0,47.0,286.0
2022-02-03-17:41:14.116406,1.0,39.0,285.0
2022-02-03-17:41:14.117402,3.0,18.0,284.0
2022-02-03-17:41:14.118434,3.0,18.0,284.0
2022-02-03-17:41:14.119398,3.0,18.0,284.0
2022-02-03-17:41:14.120421,1.0,1.0,285.0
2022-02-03-17:41:14.121392,10.0,4.0,284.0
2022-02-03-17:41:14.122414,10.0,4.0,284.0
2022-02-03-17:41:14.123409,10.0,4.0,284.0
2022-02-03-17:41:14.124410,21.0,32.0,284.0
2022-02-03-17:41:14.125409,21.0,32.0,284.0
2022-02-03-17:41:14.126404,21.0,32.0,284.0
2022-02-03-17:41:14.127402,21.0,32.0,284.0
2022-02-03-17:41:14.128405,21.0,32.0,284.0
2022-02-03-17:41:14.129370,5.0,35.0,283.0
2022-02-03-17:41:14.130368,5.0,35.0,283.0
2022-02-03-17:41:14.131399,5.0,35.0,283.0
2022-02-03-17:41:14.132387,0.0,25.0,283.0
2022-02-03-17:41:14.133359,2.0,13.0,283.0
2022-02-03-17:41:14.134358,2.0,13.0,283.0
2022-02-03-17:41:14.135381,2.0,13.0,283.0
2022-02-03-17:41:14.136352,2.0,13.0,283.0
2022-02-03-17:41:14.137350,2.0,13.0,283.0
2022-02-03-17:41:14.138348,13.0,8.0,283.0
2022-02-03-17:41:14.139373,13.0,8.0,283.0
2022-02-03-17:41:14.140369,13.0,8.0,283.0
2022-02-03-17:41:14.141338,16.0,25.0,283.0
2022-02-03-17:41:14.142337,16.0,25.0,283.0
2022-02-03-17:41:14.144331,16.0,25.0,283.0
2022-02-03-17:41:14.144331,20.0,17.0,282.0
2022-02-03-17:41:14.145328,10.0,53.0,283.0
2022-02-03-17:41:14.146324,10.0,53.0,283.0
2022-02-03-17:41:14.147322,10.0,53.0,283.0
2022-02-03-17:41:14.148335,10.0,53.0,283.0
2022-02-03-17:41:14.149324,2.0,29.0,283.0
2022-02-03-17:41:14.150316,4.0,19.0,282.0
2022-02-03-17:41:14.151346,4.0,19.0,282.0
2022-02-03-17:41:14.152309,4.0,19.0,282.0
2022-02-03-17:41:14.153332,0.0,13.0,282.0
2022-02-03-17:41:14.154339,14.0,19.0,282.0
2022-02-03-17:41:14.155330,14.0,19.0,282.0
2022-02-03-17:41:14.156299,14.0,19.0,282.0
2022-02-03-17:41:14.157330,1.0,12.0,282.0
2022-02-03-17:41:14.158318,17.0,30.0,282.0
2022-02-03-17:41:14.159291,17.0,30.0,282.0
2022-02-03-17:41:14.160288,17.0,30.0,282.0
2022-02-03-17:41:14.161286,27.0,23.0,282.0
2022-02-03-17:41:14.162282,13.0,15.0,281.0
2022-02-03-17:41:14.163280,13.0,15.0,281.0
2022-02-03-17:41:14.164310,13.0,15.0,281.0
2022-02-03-17:41:14.165318,2.0,15.0,281.0
2022-02-03-17:41:14.166272,0.0,22.0,281.0
2022-02-03-17:41:14.167294,0.0,22.0,281.0
2022-02-03-17:41:14.168294,0.0,22.0,281.0
2022-02-03-17:41:14.169289,1.0,19.0,281.0
2022-02-03-17:41:14.170287,11.0,20.0,281.0
2022-02-03-17:41:14.171288,11.0,20.0,281.0
2022-02-03-17:41:14.172281,11.0,20.0,281.0
2022-02-03-17:41:14.173253,11.0,20.0,281.0
2022-02-03-17:41:14.174256,6.0,35.0,281.0
2022-02-03-17:41:14.175248,13.0,35.0,281.0
2022-02-03-17:41:14.176272,13.0,35.0,281.0
2022-02-03-17:41:14.178240,13.0,35.0,281.0
2022-02-03-17:41:14.179238,19.0,27.0,280.0
2022-02-03-17:41:14.179238,16.0,24.0,281.0
2022-02-03-17:41:14.180235,16.0,24.0,281.0
2022-02-03-17:41:14.181233,16.0,24.0,281.0
2022-02-03-17:41:14.182230,4.0,35.0,281.0
2022-02-03-17:41:14.183226,1.0,23.0,280.0
2022-02-03-17:41:14.184225,1.0,23.0,280.0
2022-02-03-17:41:14.185222,1.0,23.0,280.0
2022-02-03-17:41:14.186220,1.0,18.0,280.0
2022-02-03-17:41:14.187217,13.0,13.0,280.0
2022-02-03-17:41:14.188214,13.0,13.0,280.0
2022-02-03-17:41:14.189212,13.0,13.0,280.0
2022-02-03-17:41:14.190209,1.0,29.0,280.0
2022-02-03-17:41:14.191206,17.0,37.0,280.0
2022-02-03-17:41:14.192202,17.0,37.0,280.0
2022-02-03-17:41:14.193200,17.0,37.0,280.0
2022-02-03-17:41:14.194229,28.0,17.0,280.0
2022-02-03-17:41:14.195232,13.0,28.0,280.0
2022-02-03-17:41:14.196217,13.0,28.0,280.0
2022-02-03-17:41:14.197190,13.0,28.0,280.0
2022-02-03-17:41:14.198219,2.0,30.0,280.0
2022-02-03-17:41:14.199184,2.0,19.0,279.0
2022-02-03-17:41:14.200208,2.0,19.0,279.0
2022-02-03-17:41:14.201200,2.0,19.0,279.0
2022-02-03-17:41:14.202176,2.0,19.0,279.0
2022-02-03-17:41:14.203202,2.0,15.0,278.0
2022-02-03-17:41:14.204170,14.0,16.0,279.0
2022-02-03-17:41:14.205169,14.0,16.0,279.0
2022-02-03-17:41:14.206166,12.0,1.0,279.0
2022-02-03-17:41:14.207164,4.0,22.0,278.0
2022-02-03-17:41:14.208161,16.0,37.0,279.0
2022-02-03-17:41:14.209158,16.0,37.0,279.0
2022-02-03-17:41:14.210153,16.0,37.0,279.0
2022-02-03-17:41:14.211152,12.0,31.0,279.0
2022-02-03-17:41:14.212150,12.0,31.0,279.0
2022-02-03-17:41:14.214143,12.0,31.0,279.0
2022-02-03-17:41:14.214143,12.0,31.0,279.0
2022-02-03-17:41:14.215142,3.0,37.0,279.0
2022-02-03-17:41:14.216139,1.0,34.0,278.0
2022-02-03-17:41:14.217137,1.0,21.0,279.0
2022-02-03-17:41:14.218157,1.0,21.0,279.0
2022-02-03-17:41:14.219130,4.0,19.0,278.0
2022-02-03-17:41:14.220152,11.0,17.0,278.0
2022-02-03-17:41:14.221152,11.0,17.0,278.0
2022-02-03-17:41:14.222123,11.0,17.0,278.0
2022-02-03-17:41:14.223120,8.0,10.0,277.0
2022-02-03-17:41:14.224117,12.0,43.0,278.0
2022-02-03-17:41:14.225114,12.0,43.0,278.0
2022-02-03-17:41:14.226112,12.0,43.0,278.0
2022-02-03-17:41:14.227109,17.0,15.0,278.0
2022-02-03-17:41:14.228141,17.0,15.0,278.0
2022-02-03-17:41:14.229139,17.0,15.0,278.0
2022-02-03-17:41:14.230101,17.0,15.0,278.0
2022-02-03-17:41:14.231132,3.0,37.0,277.0
2022-02-03-17:41:14.232130,1.0,24.0,277.0
2022-02-03-17:41:14.233096,1.0,24.0,277.0
2022-02-03-17:41:14.234091,1.0,24.0,277.0
2022-02-03-17:41:14.235125,1.0,17.0,277.0
2022-02-03-17:41:14.236119,7.0,17.0,277.0
2022-02-03-17:41:14.237106,7.0,17.0,277.0
2022-02-03-17:41:14.238113,7.0,17.0,277.0
2022-02-03-17:41:14.239077,8.0,6.0,276.0
2022-02-03-17:41:14.240076,11.0,42.0,277.0
2022-02-03-17:41:14.241073,11.0,42.0,277.0
2022-02-03-17:41:14.242071,11.0,42.0,277.0
2022-02-03-17:41:14.243068,11.0,42.0,277.0
2022-02-03-17:41:14.244096,19.0,36.0,277.0
2022-02-03-17:41:14.246064,20.0,2.0,277.0
2022-02-03-17:41:14.247055,20.0,2.0,277.0
2022-02-03-17:41:14.247055,2.0,27.0,276.0
2022-02-03-17:41:14.248053,2.0,27.0,276.0
2022-02-03-17:41:14.249051,2.0,27.0,276.0
2022-02-03-17:41:14.250049,2.0,27.0,276.0
2022-02-03-17:41:14.251045,2.0,27.0,276.0
2022-02-03-17:41:14.252043,4.0,20.0,276.0
2022-02-03-17:41:14.253040,1.0,20.0,277.0
2022-02-03-17:41:14.254037,1.0,20.0,277.0
2022-02-03-17:41:14.255066,1.0,20.0,277.0
2022-02-03-17:41:14.256066,8.0,14.0,276.0
2022-02-03-17:41:14.257061,7.0,40.0,276.0
2022-02-03-17:41:14.258076,7.0,40.0,276.0
2022-02-03-17:41:14.259025,7.0,40.0,276.0
2022-02-03-17:41:14.260053,18.0,45.0,276.0
2022-02-03-17:41:14.261024,20.0,38.0,276.0
2022-02-03-17:41:14.262042,25.0,8.0,276.0
2022-02-03-17:41:14.263038,25.0,8.0,276.0
2022-02-03-17:41:14.264037,3.0,29.0,276.0
2022-02-03-17:41:14.265007,2.0,27.0,276.0
2022-02-03-17:41:14.266005,2.0,27.0,276.0
2022-02-03-17:41:14.267003,2.0,27.0,276.0
2022-02-03-17:41:14.268001,3.0,20.0,276.0
2022-02-03-17:41:14.268997,2.0,11.0,276.0
2022-02-03-17:41:14.269995,2.0,11.0,276.0
2022-02-03-17:41:14.270992,2.0,11.0,276.0
2022-02-03-17:41:14.271989,10.0,0.0,276.0
2022-02-03-17:41:14.272987,5.0,27.0,276.0
2022-02-03-17:41:14.273983,5.0,27.0,276.0
2022-02-03-17:41:14.274981,5.0,27.0,276.0
2022-02-03-17:41:14.276010,19.0,28.0,276.0
2022-02-03-17:41:14.277012,24.0,4.0,276.0
2022-02-03-17:41:14.277981,24.0,4.0,276.0
2022-02-03-17:41:14.280013,24.0,4.0,276.0
2022-02-03-17:41:14.280013,5.0,31.0,276.0
2022-02-03-17:41:14.280965,3.0,20.0,276.0
2022-02-03-17:41:14.281987,3.0,20.0,276.0
2022-02-03-17:41:14.282960,3.0,20.0,276.0
2022-02-03-17:41:14.283957,3.0,20.0,276.0
2022-02-03-17:41:14.284981,1.0,9.0,276.0
2022-02-03-17:41:14.285977,8.0,22.0,276.0
2022-02-03-17:41:14.286973,8.0,22.0,276.0
2022-02-03-17:41:14.287972,8.0,22.0,276.0
2022-02-03-17:41:14.288970,11.0,3.0,276.0
2022-02-03-17:41:14.289966,2.0,23.0,276.0
2022-02-03-17:41:14.290968,2.0,23.0,276.0
2022-02-03-17:41:14.291961,2.0,23.0,276.0
2022-02-03-17:41:14.292960,16.0,31.0,276.0
2022-02-03-17:41:14.293956,30.0,24.0,276.0
2022-02-03-17:41:14.294952,30.0,24.0,276.0
2022-02-03-17:41:14.295951,30.0,24.0,276.0
2022-02-03-17:41:14.296947,2.0,25.0,276.0
2022-02-03-17:41:14.297945,2.0,25.0,276.0
2022-02-03-17:41:14.298941,2.0,25.0,276.0
2022-02-03-17:41:14.299915,2.0,25.0,276.0
2022-02-03-17:41:14.300939,0.0,17.0,276.0
2022-02-03-17:41:14.301934,4.0,14.0,276.0
2022-02-03-17:41:14.302931,4.0,14.0,276.0
2022-02-03-17:41:14.303930,4.0,14.0,276.0
2022-02-03-17:41:14.304925,12.0,20.0,276.0
2022-02-03-17:41:14.305923,4.0,15.0,276.0
2022-02-03-17:41:14.306897,4.0,15.0,276.0
2022-02-03-17:41:14.307893,4.0,15.0,276.0
2022-02-03-17:41:14.308917,4.0,33.0,276.0
2022-02-03-17:41:14.309912,25.0,28.0,276.0
2022-02-03-17:41:14.310909,25.0,28.0,276.0
2022-02-03-17:41:14.311883,25.0,28.0,276.0
2022-02-03-17:41:14.312925,28.0,6.0,276.0
2022-02-03-17:41:14.313921,0.0,36.0,276.0
2022-02-03-17:41:14.315919,0.0,36.0,276.0
2022-02-03-17:41:14.315919,2.0,18.0,276.0
2022-02-03-17:41:14.316913,0.0,16.0,276.0
2022-02-03-17:41:14.317911,0.0,16.0,276.0
2022-02-03-17:41:14.318908,0.0,16.0,276.0
2022-02-03-17:41:14.319905,0.0,16.0,276.0
2022-02-03-17:41:14.320902,0.0,16.0,276.0
2022-02-03-17:41:14.321899,7.0,11.0,276.0
2022-02-03-17:41:14.322902,7.0,11.0,276.0
2022-02-03-17:41:14.323898,7.0,11.0,276.0
2022-02-03-17:41:14.324892,7.0,11.0,276.0
2022-02-03-17:41:14.325890,29.0,36.0,276.0
2022-02-03-17:41:14.326886,29.0,36.0,276.0
2022-02-03-17:41:14.327883,29.0,36.0,276.0
2022-02-03-17:41:14.328881,30.0,14.0,276.0
2022-02-03-17:41:14.329878,2.0,32.0,276.0
2022-02-03-17:41:14.330875,2.0,32.0,276.0
2022-02-03-17:41:14.331829,2.0,32.0,276.0
2022-02-03-17:41:14.332826,2.0,32.0,276.0
2022-02-03-17:41:14.333839,1.0,33.0,276.0
2022-02-03-17:41:14.334865,1.0,32.0,276.0
2022-02-03-17:41:14.335862,1.0,32.0,276.0
2022-02-03-17:41:14.336860,1.0,32.0,276.0
2022-02-03-17:41:14.337858,2.0,14.0,276.0
2022-02-03-17:41:14.338840,12.0,2.0,276.0
2022-02-03-17:41:14.339837,12.0,2.0,276.0
2022-02-03-17:41:14.340832,12.0,2.0,276.0
2022-02-03-17:41:14.341804,9.0,41.0,276.0
2022-02-03-17:41:14.342800,25.0,32.0,276.0
2022-02-03-17:41:14.343824,25.0,32.0,276.0
2022-02-03-17:41:14.344795,25.0,32.0,276.0
2022-02-03-17:41:14.346815,6.0,32.0,276.0
2022-02-03-17:41:14.346815,6.0,32.0,276.0
2022-02-03-17:41:14.347811,6.0,32.0,276.0
2022-02-03-17:41:14.348784,6.0,32.0,276.0
2022-02-03-17:41:14.349782,2.0,29.0,276.0
2022-02-03-17:41:14.350779,7.0,18.0,276.0
2022-02-03-17:41:14.351803,2.0,13.0,276.0
2022-02-03-17:41:14.352786,2.0,13.0,276.0
2022-02-03-17:41:14.353795,13.0,17.0,276.0
2022-02-03-17:41:14.354792,10.0,3.0,276.0
2022-02-03-17:41:14.355790,10.0,3.0,276.0
2022-02-03-17:41:14.356794,10.0,3.0,276.0
2022-02-03-17:41:14.357785,5.0,27.0,276.0
2022-02-03-17:41:14.358782,19.0,26.0,276.0
2022-02-03-17:41:14.359780,19.0,26.0,276.0
2022-02-03-17:41:14.360776,19.0,26.0,276.0
2022-02-03-17:41:14.361774,19.0,26.0,276.0
2022-02-03-17:41:14.362776,29.0,9.0,276.0
2022-02-03-17:41:14.363768,6.0,32.0,276.0
2022-02-03-17:41:14.364768,6.0,32.0,276.0
2022-02-03-17:41:14.365765,6.0,32.0,276.0
2022-02-03-17:41:14.366736,3.0,24.0,276.0
2022-02-03-17:41:14.367759,3.0,23.0,276.0
2022-02-03-17:41:14.368756,3.0,23.0,276.0
2022-02-03-17:41:14.369728,3.0,23.0,276.0
2022-02-03-17:41:14.370751,5.0,15.0,276.0
2022-02-03-17:41:14.371747,15.0,14.0,276.0
2022-02-03-17:41:14.372746,15.0,14.0,276.0
2022-02-03-17:41:14.373743,15.0,14.0,276.0
2022-02-03-17:41:14.374740,4.0,36.0,276.0
2022-02-03-17:41:14.375738,13.0,37.0,276.0
2022-02-03-17:41:14.376734,13.0,37.0,276.0
2022-02-03-17:41:14.377733,13.0,37.0,276.0
2022-02-03-17:41:14.378729,20.0,9.0,276.0
2022-02-03-17:41:14.379727,7.0,30.0,276.0
2022-02-03-17:41:14.381696,7.0,30.0,276.0
2022-02-03-17:41:14.381696,6.0,34.0,276.0
2022-02-03-17:41:14.382719,4.0,24.0,276.0
2022-02-03-17:41:14.383717,4.0,24.0,276.0
2022-02-03-17:41:14.384713,4.0,24.0,276.0
2022-02-03-17:41:14.385685,4.0,24.0,276.0
2022-02-03-17:41:14.386712,0.0,9.0,276.0
2022-02-03-17:41:14.387705,15.0,17.0,276.0
2022-02-03-17:41:14.388704,15.0,17.0,276.0
2022-02-03-17:41:14.389678,15.0,17.0,276.0
2022-02-03-17:41:14.390697,6.0,34.0,276.0
2022-02-03-17:41:14.391695,13.0,35.0,277.0
2022-02-03-17:41:14.392691,13.0,35.0,277.0
2022-02-03-17:41:14.393689,13.0,35.0,277.0
2022-02-03-17:41:14.394698,25.0,23.0,277.0
2022-02-03-17:41:14.395691,11.0,26.0,277.0
2022-02-03-17:41:14.396691,11.0,26.0,277.0
2022-02-03-17:41:14.397687,11.0,26.0,277.0
2022-02-03-17:41:14.398686,0.0,40.0,277.0
2022-02-03-17:41:14.399656,1.0,28.0,277.0
2022-02-03-17:41:14.400646,1.0,28.0,277.0
2022-02-03-17:41:14.401643,1.0,28.0,277.0
2022-02-03-17:41:14.402676,1.0,28.0,277.0
2022-02-03-17:41:14.403669,1.0,19.0,277.0
2022-02-03-17:41:14.404669,10.0,24.0,277.0
2022-02-03-17:41:14.405668,10.0,24.0,277.0
2022-02-03-17:41:14.406661,10.0,24.0,277.0
2022-02-03-17:41:14.407661,9.0,9.0,277.0
2022-02-03-17:41:14.408656,19.0,43.0,278.0
2022-02-03-17:41:14.409661,19.0,43.0,278.0
2022-02-03-17:41:14.410655,19.0,43.0,278.0
2022-02-03-17:41:14.411647,26.0,18.0,278.0
2022-02-03-17:41:14.412647,5.0,34.0,278.0
2022-02-03-17:41:14.414639,5.0,34.0,278.0
2022-02-03-17:41:14.414639,5.0,34.0,278.0
2022-02-03-17:41:14.415605,3.0,25.0,278.0
2022-02-03-17:41:14.416603,4.0,20.0,279.0
2022-02-03-17:41:14.417623,4.0,20.0,279.0
2022-02-03-17:41:14.418628,4.0,20.0,279.0
2022-02-03-17:41:14.419619,1.0,13.0,279.0
2022-02-03-17:41:14.420621,10.0,17.0,279.0
2022-02-03-17:41:14.421613,10.0,17.0,279.0
2022-02-03-17:41:14.422586,10.0,17.0,279.0
2022-02-03-17:41:14.423618,13.0,35.0,279.0
2022-02-03-17:41:14.424613,18.0,34.0,279.0
2022-02-03-17:41:14.425611,18.0,34.0,279.0
2022-02-03-17:41:14.426576,18.0,34.0,279.0
2022-02-03-17:41:14.427605,33.0,26.0,280.0
2022-02-03-17:41:14.428605,7.0,33.0,280.0
2022-02-03-17:41:14.429599,7.0,33.0,280.0
2022-02-03-17:41:14.430598,7.0,33.0,280.0
2022-02-03-17:41:14.431596,3.0,38.0,280.0
2022-02-03-17:41:14.432580,2.0,36.0,280.0
2022-02-03-17:41:14.433557,2.0,36.0,280.0
2022-02-03-17:41:14.434586,2.0,36.0,280.0
2022-02-03-17:41:14.435583,2.0,36.0,280.0
2022-02-03-17:41:14.436581,12.0,19.0,281.0
2022-02-03-17:41:14.437578,12.0,19.0,281.0
2022-02-03-17:41:14.438575,12.0,19.0,281.0
2022-02-03-17:41:14.439575,12.0,19.0,281.0
2022-02-03-17:41:14.440571,15.0,36.0,282.0
2022-02-03-17:41:14.441567,15.0,36.0,282.0
2022-02-03-17:41:14.442565,15.0,36.0,282.0
2022-02-03-17:41:14.443562,15.0,36.0,282.0
2022-02-03-17:41:14.444562,23.0,1.0,282.0
2022-02-03-17:41:14.445557,11.0,31.0,281.0
2022-02-03-17:41:14.446554,11.0,31.0,281.0
2022-02-03-17:41:14.448549,11.0,31.0,281.0
2022-02-03-17:41:14.448549,3.0,19.0,283.0
2022-02-03-17:41:14.449563,3.0,19.0,283.0
2022-02-03-17:41:14.450543,3.0,19.0,283.0
2022-02-03-17:41:14.451542,3.0,19.0,283.0
2022-02-03-17:41:14.452541,2.0,15.0,283.0
2022-02-03-17:41:14.453535,12.0,1.0,283.0
2022-02-03-17:41:14.454533,12.0,1.0,283.0
2022-02-03-17:41:14.455533,12.0,1.0,283.0
2022-02-03-17:41:14.456792,12.0,33.0,284.0
2022-02-03-17:41:14.457047,12.0,33.0,284.0
2022-02-03-17:41:14.457301,12.0,33.0,284.0
2022-02-03-17:41:14.457557,12.0,33.0,284.0
2022-02-03-17:41:14.457557,12.0,33.0,284.0
2022-02-03-17:41:14.458773,12.0,33.0,284.0
2022-02-03-17:41:14.459015,12.0,33.0,284.0
2022-02-03-17:41:14.459237,12.0,33.0,284.0
2022-02-03-17:41:14.459237,12.0,33.0,284.0
2022-02-03-17:41:14.460355,27.0,16.0,284.0
2022-02-03-17:41:14.460355,17.0,35.0,284.0
2022-02-03-17:41:14.461382,17.0,35.0,284.0
2022-02-03-17:41:14.462379,17.0,35.0,284.0
2022-02-03-17:41:14.463378,17.0,35.0,284.0
2022-02-03-17:41:14.464371,4.0,22.0,284.0
2022-02-03-17:41:14.465344,6.0,22.0,284.0
2022-02-03-17:41:14.466367,6.0,22.0,284.0
2022-02-03-17:41:14.467338,6.0,22.0,284.0
2022-02-03-17:41:14.468357,6.0,22.0,284.0
2022-02-03-17:41:14.469373,2.0,18.0,285.0
2022-02-03-17:41:14.469373,0.0,16.0,285.0
2022-02-03-17:41:14.470400,0.0,16.0,285.0
2022-02-03-17:41:14.471399,0.0,16.0,285.0
2022-02-03-17:41:14.472395,0.0,16.0,285.0
2022-02-03-17:41:14.473392,11.0,44.0,285.0
2022-02-03-17:41:14.474594,11.0,44.0,285.0
2022-02-03-17:41:14.474828,11.0,44.0,285.0
2022-02-03-17:41:14.475062,11.0,44.0,285.0
2022-02-03-17:41:14.475296,11.0,44.0,285.0
2022-02-03-17:41:14.475530,11.0,44.0,285.0
2022-02-03-17:41:14.475763,11.0,44.0,285.0
2022-02-03-17:41:14.475858,11.0,44.0,285.0
2022-02-03-17:41:14.475858,27.0,13.0,286.0
2022-02-03-17:41:14.476890,22.0,12.0,286.0
2022-02-03-17:41:14.477889,22.0,12.0,286.0
2022-02-03-17:41:14.478892,22.0,12.0,286.0
2022-02-03-17:41:14.479850,22.0,12.0,286.0
2022-02-03-17:41:14.480881,0.0,32.0,286.0
2022-02-03-17:41:14.481844,1.0,32.0,287.0
2022-02-03-17:41:14.483864,2.0,22.0,287.0
2022-02-03-17:41:14.483864,2.0,22.0,287.0
2022-02-03-17:41:14.484866,3.0,14.0,287.0
2022-02-03-17:41:14.485868,3.0,14.0,287.0
2022-02-03-17:41:14.486857,3.0,14.0,287.0
2022-02-03-17:41:14.487854,3.0,14.0,287.0
2022-02-03-17:41:14.488852,3.0,14.0,287.0
2022-02-03-17:41:14.489849,6.0,34.0,288.0
2022-02-03-17:41:14.490848,6.0,34.0,288.0
2022-02-03-17:41:14.491844,6.0,34.0,288.0
2022-02-03-17:41:14.492840,6.0,34.0,288.0
2022-02-03-17:41:14.493838,23.0,32.0,287.0
2022-02-03-17:41:14.495052,31.0,8.0,288.0
2022-02-03-17:41:14.495261,31.0,8.0,288.0
2022-02-03-17:41:14.495471,31.0,8.0,288.0
2022-02-03-17:41:14.495678,31.0,8.0,288.0
2022-02-03-17:41:14.495889,31.0,8.0,288.0
2022-02-03-17:41:14.495889,31.0,8.0,288.0
2022-02-03-17:41:14.496888,31.0,8.0,288.0
2022-02-03-17:41:14.497885,13.0,25.0,288.0
2022-02-03-17:41:14.498882,13.0,25.0,288.0
2022-02-03-17:41:14.499880,0.0,30.0,288.0
2022-02-03-17:41:14.500920,4.0,33.0,288.0
2022-02-03-17:41:14.500920,0.0,20.0,288.0
2022-02-03-17:41:14.501947,3.0,12.0,289.0
2022-02-03-17:41:14.502942,3.0,12.0,289.0
2022-02-03-17:41:14.503940,3.0,12.0,289.0
2022-02-03-17:41:14.504942,3.0,12.0,289.0
2022-02-03-17:41:14.505935,5.0,14.0,289.0
2022-02-03-17:41:14.506940,8.0,14.0,289.0
2022-02-03-17:41:14.507930,4.0,35.0,289.0
2022-02-03-17:41:14.508927,4.0,35.0,289.0
2022-02-03-17:41:14.509945,25.0,4.0,289.0
2022-02-03-17:41:14.511155,25.0,4.0,289.0
2022-02-03-17:41:14.511419,25.0,4.0,289.0
2022-02-03-17:41:14.511517,25.0,4.0,289.0
2022-02-03-17:41:14.511517,25.0,4.0,289.0
2022-02-03-17:41:14.512516,25.0,4.0,289.0
2022-02-03-17:41:14.513516,9.0,33.0,290.0
2022-02-03-17:41:14.514514,2.0,25.0,290.0
2022-02-03-17:41:14.515567,2.0,25.0,290.0
2022-02-03-17:41:14.517507,2.0,25.0,290.0
2022-02-03-17:41:14.517507,3.0,16.0,291.0
2022-02-03-17:41:14.518787,6.0,11.0,291.0
2022-02-03-17:41:14.519053,1.0,9.0,291.0
2022-02-03-17:41:14.519318,1.0,9.0,291.0
2022-02-03-17:41:14.519569,1.0,9.0,291.0
2022-02-03-17:41:14.519812,1.0,9.0,291.0
2022-02-03-17:41:14.520041,1.0,9.0,291.0
2022-02-03-17:41:14.520273,1.0,9.0,291.0
2022-02-03-17:41:14.520356,1.0,9.0,291.0
2022-02-03-17:41:14.520356,1.0,9.0,291.0
2022-02-03-17:41:14.521499,1.0,9.0,291.0
2022-02-03-17:41:14.521499,2.0,5.0,291.0
2022-02-03-17:41:14.522533,14.0,12.0,291.0
2022-02-03-17:41:14.523530,10.0,3.0,291.0
2022-02-03-17:41:14.524527,1.0,26.0,292.0
2022-02-03-17:41:14.525515,1.0,26.0,292.0
2022-02-03-17:41:14.526534,24.0,24.0,292.0
2022-02-03-17:41:14.527541,26.0,17.0,292.0
2022-02-03-17:41:14.528536,26.0,17.0,292.0
2022-02-03-17:41:14.529531,26.0,17.0,292.0
2022-02-03-17:41:14.530524,10.0,30.0,292.0
2022-02-03-17:41:14.531520,1.0,28.0,292.0
2022-02-03-17:41:14.532518,1.0,28.0,292.0
2022-02-03-17:41:14.533470,1.0,28.0,292.0
2022-02-03-17:41:14.534829,5.0,24.0,292.0
2022-02-03-17:41:14.535087,6.0,15.0,293.0
2022-02-03-17:41:14.535335,6.0,15.0,293.0
2022-02-03-17:41:14.535591,6.0,15.0,293.0
2022-02-03-17:41:14.535821,6.0,15.0,293.0
2022-02-03-17:41:14.536043,6.0,15.0,293.0
2022-02-03-17:41:14.536257,6.0,15.0,293.0
2022-02-03-17:41:14.536341,6.0,15.0,293.0
2022-02-03-17:41:14.536341,6.0,15.0,293.0
2022-02-03-17:41:14.537341,6.0,15.0,293.0
2022-02-03-17:41:14.538563,1.0,13.0,292.0
2022-02-03-17:41:14.538563,12.0,7.0,293.0
2022-02-03-17:41:14.539610,5.0,21.0,292.0
2022-02-03-17:41:14.540606,5.0,21.0,292.0
2022-02-03-17:41:14.541560,5.0,21.0,292.0
2022-02-03-17:41:14.542870,10.0,40.0,294.0
2022-02-03-17:41:14.542870,28.0,17.0,293.0
2022-02-03-17:41:14.544072,28.0,17.0,293.0
2022-02-03-17:41:14.544336,28.0,17.0,293.0
2022-02-03-17:41:14.544579,28.0,17.0,293.0
2022-02-03-17:41:14.544828,28.0,17.0,293.0
2022-02-03-17:41:14.545068,28.0,17.0,293.0
2022-02-03-17:41:14.545302,28.0,17.0,293.0
2022-02-03-17:41:14.545384,28.0,17.0,293.0
2022-02-03-17:41:14.545384,3.0,36.0,294.0
2022-02-03-17:41:14.546438,2.0,31.0,294.0
2022-02-03-17:41:14.547437,2.0,31.0,294.0
2022-02-03-17:41:14.548378,2.0,31.0,294.0
2022-02-03-17:41:14.549430,2.0,31.0,294.0
2022-02-03-17:41:14.551417,1.0,20.0,294.0
2022-02-03-17:41:14.551417,2.0,17.0,294.0
2022-02-03-17:41:14.552415,2.0,17.0,294.0
2022-02-03-17:41:14.553413,2.0,17.0,294.0
2022-02-03-17:41:14.554413,2.0,17.0,294.0
2022-02-03-17:41:14.555408,5.0,15.0,294.0
2022-02-03-17:41:14.556403,5.0,15.0,294.0
2022-02-03-17:41:14.557380,5.0,15.0,294.0
2022-02-03-17:41:14.558403,5.0,15.0,294.0
2022-02-03-17:41:14.559398,9.0,31.0,294.0
2022-02-03-17:41:14.560395,30.0,30.0,295.0
2022-02-03-17:41:14.561393,30.0,30.0,295.0
2022-02-03-17:41:14.562392,30.0,30.0,295.0
2022-02-03-17:41:14.563386,19.0,20.0,295.0
2022-02-03-17:41:14.564381,0.0,27.0,295.0
2022-02-03-17:41:14.565397,0.0,27.0,295.0
2022-02-03-17:41:14.566357,0.0,27.0,295.0
2022-02-03-17:41:14.567789,5.0,22.0,296.0
2022-02-03-17:41:14.568043,1.0,23.0,296.0
2022-02-03-17:41:14.568277,1.0,23.0,296.0
2022-02-03-17:41:14.568376,1.0,23.0,296.0
2022-02-03-17:41:14.568376,1.0,23.0,296.0
2022-02-03-17:41:14.569424,1.0,23.0,296.0
2022-02-03-17:41:14.570421,1.0,23.0,296.0
2022-02-03-17:41:14.571418,11.0,22.0,296.0
2022-02-03-17:41:14.572419,8.0,10.0,296.0
2022-02-03-17:41:14.573599,8.0,10.0,296.0
2022-02-03-17:41:14.573845,8.0,10.0,296.0
2022-02-03-17:41:14.574075,8.0,10.0,296.0
2022-02-03-17:41:14.574075,8.0,10.0,296.0
2022-02-03-17:41:14.575106,16.0,42.0,296.0
2022-02-03-17:41:14.576106,23.0,35.0,297.0
2022-02-03-17:41:14.577102,23.0,35.0,297.0
2022-02-03-17:41:14.578297,23.0,35.0,297.0
2022-02-03-17:41:14.578297,11.0,40.0,297.0
2022-02-03-17:41:14.579321,5.0,32.0,297.0
2022-02-03-17:41:14.580325,5.0,32.0,297.0
2022-02-03-17:41:14.581315,5.0,32.0,297.0
2022-02-03-17:41:14.583286,5.0,32.0,297.0
2022-02-03-17:41:14.583286,1.0,24.0,298.0
2022-02-03-17:41:14.584307,1.0,24.0,298.0
2022-02-03-17:41:14.585306,1.0,24.0,298.0
2022-02-03-17:41:14.586284,1.0,24.0,298.0
2022-02-03-17:41:14.587299,10.0,4.0,297.0
2022-02-03-17:41:14.588298,10.0,4.0,297.0
2022-02-03-17:41:14.589293,10.0,4.0,297.0
2022-02-03-17:41:14.590290,10.0,4.0,297.0
2022-02-03-17:41:14.591409,4.0,41.0,298.0
2022-02-03-17:41:14.591409,17.0,24.0,297.0
2022-02-03-17:41:14.592455,17.0,24.0,297.0
2022-02-03-17:41:14.593455,17.0,24.0,297.0
2022-02-03-17:41:14.594725,17.0,24.0,297.0
2022-02-03-17:41:14.594725,5.0,26.0,298.0
2022-02-03-17:41:14.595921,5.0,26.0,298.0
2022-02-03-17:41:14.596159,5.0,26.0,298.0
2022-02-03-17:41:14.596395,5.0,26.0,298.0
2022-02-03-17:41:14.596638,5.0,26.0,298.0
2022-02-03-17:41:14.596882,5.0,26.0,298.0
2022-02-03-17:41:14.597114,5.0,26.0,298.0
2022-02-03-17:41:14.597345,5.0,26.0,298.0
2022-02-03-17:41:14.597345,5.0,26.0,298.0
2022-02-03-17:41:14.598344,5.0,26.0,298.0
2022-02-03-17:41:14.599700,5.0,26.0,298.0
2022-02-03-17:41:14.599700,1.0,31.0,298.0
2022-02-03-17:41:14.600737,6.0,26.0,298.0
2022-02-03-17:41:14.601723,5.0,15.0,298.0
2022-02-03-17:41:14.602695,5.0,15.0,298.0
2022-02-03-17:41:14.603718,1.0,16.0,298.0
2022-02-03-17:41:14.604718,6.0,13.0,299.0
2022-02-03-17:41:14.605713,12.0,15.0,299.0
2022-02-03-17:41:14.606707,12.0,15.0,299.0
2022-02-03-17:41:14.607705,12.0,15.0,299.0
2022-02-03-17:41:14.608706,12.0,31.0,300.0
2022-02-03-17:41:14.609700,17.0,33.0,299.0
2022-02-03-17:41:14.610699,17.0,33.0,299.0
2022-02-03-17:41:14.611697,17.0,33.0,299.0
2022-02-03-17:41:14.612692,8.0,29.0,300.0
2022-02-03-17:41:14.613770,8.0,29.0,300.0
2022-02-03-17:41:14.613770,8.0,29.0,300.0
2022-02-03-17:41:14.614823,8.0,29.0,300.0
2022-02-03-17:41:14.615821,8.0,29.0,300.0
2022-02-03-17:41:14.616763,5.0,23.0,300.0
2022-02-03-17:41:14.617795,3.0,18.0,300.0
2022-02-03-17:41:14.618792,3.0,18.0,300.0
2022-02-03-17:41:14.620811,2.0,18.0,300.0
2022-02-03-17:41:14.620811,9.0,18.0,301.0
2022-02-03-17:41:14.621805,9.0,18.0,301.0
2022-02-03-17:41:14.622783,9.0,18.0,301.0
2022-02-03-17:41:14.623805,9.0,18.0,301.0
2022-02-03-17:41:14.624796,12.0,6.0,301.0
2022-02-03-17:41:14.625794,7.0,36.0,301.0
2022-02-03-17:41:14.626792,18.0,33.0,301.0
2022-02-03-17:41:14.627788,18.0,33.0,301.0
2022-02-03-17:41:14.628791,19.0,32.0,301.0
2022-02-03-17:41:14.629784,25.0,2.0,302.0
2022-02-03-17:41:14.630786,11.0,28.0,301.0
2022-02-03-17:41:14.631758,11.0,28.0,301.0
2022-02-03-17:41:14.632722,3.0,40.0,301.0
2022-02-03-17:41:14.633722,0.0,18.0,302.0
2022-02-03-17:41:14.634776,6.0,14.0,302.0
2022-02-03-17:41:14.635724,6.0,14.0,302.0
2022-02-03-17:41:14.636748,8.0,11.0,303.0
2022-02-03-17:41:14.637740,8.0,11.0,303.0
2022-02-03-17:41:14.638739,8.0,11.0,303.0
2022-02-03-17:41:14.639736,8.0,11.0,303.0
2022-02-03-17:41:14.640733,4.0,10.0,303.0
2022-02-03-17:41:14.641732,12.0,20.0,302.0
2022-02-03-17:41:14.642770,20.0,30.0,303.0
2022-02-03-17:41:14.642770,20.0,30.0,303.0
2022-02-03-17:41:14.643962,20.0,30.0,303.0
2022-02-03-17:41:14.643962,33.0,37.0,303.0
2022-02-03-17:41:14.644994,4.0,26.0,303.0
2022-02-03-17:41:14.645993,4.0,26.0,303.0
2022-02-03-17:41:14.646988,4.0,26.0,303.0
2022-02-03-17:41:14.647954,4.0,26.0,303.0
2022-02-03-17:41:14.648991,3.0,30.0,303.0
2022-02-03-17:41:14.649967,8.0,19.0,304.0
2022-02-03-17:41:14.650947,3.0,20.0,303.0
2022-02-03-17:41:14.652995,3.0,20.0,303.0
2022-02-03-17:41:14.652995,4.0,16.0,304.0
2022-02-03-17:41:14.653973,9.0,15.0,304.0
2022-02-03-17:41:14.654990,14.0,14.0,304.0
2022-02-03-17:41:14.656129,14.0,14.0,304.0
2022-02-03-17:41:14.656129,9.0,6.0,304.0
2022-02-03-17:41:14.657182,6.0,38.0,305.0
2022-02-03-17:41:14.658180,15.0,34.0,305.0
2022-02-03-17:41:14.659181,15.0,34.0,305.0
2022-02-03-17:41:14.660121,15.0,34.0,305.0
2022-02-03-17:41:14.661173,27.0,41.0,305.0
2022-02-03-17:41:14.662171,9.0,25.0,305.0
2022-02-03-17:41:14.663166,9.0,25.0,305.0
2022-02-03-17:41:14.664140,9.0,25.0,305.0
2022-02-03-17:41:14.665107,1.0,26.0,305.0
2022-02-03-17:41:14.666104,4.0,31.0,305.0
2022-02-03-17:41:14.667102,4.0,31.0,305.0
2022-02-03-17:41:14.668099,4.0,31.0,305.0
2022-02-03-17:41:14.669124,4.0,31.0,305.0
2022-02-03-17:41:14.670118,7.0,24.0,305.0
2022-02-03-17:41:14.671117,12.0,27.0,305.0
2022-02-03-17:41:14.672114,12.0,27.0,305.0
2022-02-03-17:41:14.673132,12.0,27.0,305.0
2022-02-03-17:41:14.674129,1.0,27.0,306.0
2022-02-03-17:41:14.675233,16.0,39.0,306.0
2022-02-03-17:41:14.675233,16.0,39.0,306.0
2022-02-03-17:41:14.676283,16.0,39.0,306.0
2022-02-03-17:41:14.677481,16.0,39.0,306.0
2022-02-03-17:41:14.677481,23.0,38.0,307.0
2022-02-03-17:41:14.678526,26.0,1.0,306.0
2022-02-03-17:41:14.679531,14.0,28.0,307.0
2022-02-03-17:41:14.680507,14.0,28.0,307.0
2022-02-03-17:41:14.681497,1.0,49.0,307.0
2022-02-03-17:41:14.682495,4.0,26.0,307.0
2022-02-03-17:41:14.683468,4.0,26.0,307.0
2022-02-03-17:41:14.684464,4.0,26.0,307.0
2022-02-03-17:41:14.686484,4.0,26.0,307.0
2022-02-03-17:41:14.686484,4.0,5.0,307.0
2022-02-03-17:41:14.687482,11.0,11.0,308.0
2022-02-03-17:41:14.688480,11.0,11.0,308.0
2022-02-03-17:41:14.689477,11.0,11.0,308.0
2022-02-03-17:41:14.690474,12.0,5.0,307.0
2022-02-03-17:41:14.691472,6.0,39.0,308.0
2022-02-03-17:41:14.692469,13.0,38.0,308.0
2022-02-03-17:41:14.693466,13.0,38.0,308.0
2022-02-03-17:41:14.694463,19.0,32.0,308.0
2022-02-03-17:41:14.695436,13.0,25.0,309.0
2022-02-03-17:41:14.696433,13.0,25.0,309.0
2022-02-03-17:41:14.697431,13.0,25.0,309.0
2022-02-03-17:41:14.698428,4.0,27.0,309.0
2022-02-03-17:41:14.699425,3.0,21.0,310.0
2022-02-03-17:41:14.700422,3.0,21.0,310.0
2022-02-03-17:41:14.701435,3.0,21.0,310.0
2022-02-03-17:41:14.702462,4.0,16.0,309.0
2022-02-03-17:41:14.703461,8.0,13.0,310.0
2022-02-03-17:41:14.704457,8.0,13.0,310.0
2022-02-03-17:41:14.705455,8.0,13.0,310.0
2022-02-03-17:41:14.706452,15.0,15.0,310.0
2022-02-03-17:41:14.707449,1.0,25.0,310.0
2022-02-03-17:41:14.708448,9.0,38.0,310.0
2022-02-03-17:41:14.709398,9.0,38.0,310.0
2022-02-03-17:41:14.710446,15.0,38.0,311.0
2022-02-03-17:41:14.711440,26.0,20.0,311.0
2022-02-03-17:41:14.712436,25.0,2.0,311.0
2022-02-03-17:41:14.713387,25.0,2.0,311.0
2022-02-03-17:41:14.714430,9.0,27.0,311.0
2022-02-03-17:41:14.715428,0.0,33.0,311.0
2022-02-03-17:41:14.716427,3.0,29.0,311.0
2022-02-03-17:41:14.718424,3.0,29.0,311.0
2022-02-03-17:41:14.719371,0.0,12.0,312.0
2022-02-03-17:41:14.719371,0.0,12.0,312.0
2022-02-03-17:41:14.720414,0.0,12.0,312.0
2022-02-03-17:41:14.721413,0.0,12.0,312.0
2022-02-03-17:41:14.722411,10.0,19.0,312.0
2022-02-03-17:41:14.723409,3.0,17.0,312.0
2022-02-03-17:41:14.724406,9.0,33.0,313.0
2022-02-03-17:41:14.725401,9.0,33.0,313.0
2022-02-03-17:41:14.726398,9.0,33.0,313.0
2022-02-03-17:41:14.727398,29.0,28.0,313.0
2022-02-03-17:41:14.728454,27.0,6.0,313.0
2022-02-03-17:41:14.728454,27.0,6.0,313.0
2022-02-03-17:41:14.729501,27.0,6.0,313.0
2022-02-03-17:41:14.730537,27.0,6.0,313.0
2022-02-03-17:41:14.730537,1.0,37.0,313.0
2022-02-03-17:41:14.731583,4.0,36.0,313.0
2022-02-03-17:41:14.732580,4.0,36.0,313.0
2022-02-03-17:41:14.733531,4.0,36.0,313.0
2022-02-03-17:41:14.734528,1.0,28.0,313.0
2022-02-03-17:41:14.735551,2.0,21.0,313.0
2022-02-03-17:41:14.736576,1.0,16.0,313.0
2022-02-03-17:41:14.737566,1.0,16.0,313.0
2022-02-03-17:41:14.738564,1.0,16.0,313.0
2022-02-03-17:41:14.739561,9.0,16.0,314.0
2022-02-03-17:41:14.740559,3.0,39.0,314.0
2022-02-03-17:41:14.741557,3.0,39.0,314.0
2022-02-03-17:41:14.742554,3.0,39.0,314.0
2022-02-03-17:41:14.743538,10.0,52.0,315.0
2022-02-03-17:41:14.744526,28.0,36.0,314.0
2022-02-03-17:41:14.745526,32.0,13.0,315.0
2022-02-03-17:41:14.746523,32.0,13.0,315.0
2022-02-03-17:41:14.747523,17.0,16.0,315.0
2022-02-03-17:41:14.748517,1.0,37.0,315.0
2022-02-03-17:41:14.749514,2.0,45.0,315.0
2022-02-03-17:41:14.751515,2.0,45.0,315.0
2022-02-03-17:41:14.751515,4.0,13.0,315.0
2022-02-03-17:41:14.752506,4.0,13.0,315.0
2022-02-03-17:41:14.753504,4.0,13.0,315.0
2022-02-03-17:41:14.754500,4.0,13.0,315.0
2022-02-03-17:41:14.755500,2.0,10.0,316.0
2022-02-03-17:41:14.756505,12.0,1.0,316.0
2022-02-03-17:41:14.757493,2.0,21.0,317.0
2022-02-03-17:41:14.758464,2.0,21.0,317.0
2022-02-03-17:41:14.759463,17.0,33.0,316.0
2022-02-03-17:41:14.760604,30.0,17.0,317.0
2022-02-03-17:41:14.760604,30.0,17.0,317.0
2022-02-03-17:41:14.761628,30.0,17.0,317.0
2022-02-03-17:41:14.762631,30.0,17.0,317.0
2022-02-03-17:41:14.763624,25.0,12.0,316.0
2022-02-03-17:41:14.764883,9.0,32.0,316.0
2022-02-03-17:41:14.764883,4.0,31.0,317.0
2022-02-03-17:41:14.765929,1.0,28.0,317.0
2022-02-03-17:41:14.766880,1.0,28.0,317.0
2022-02-03-17:41:14.767877,1.0,24.0,317.0
2022-02-03-17:41:14.769193,4.0,15.0,318.0
2022-02-03-17:41:14.769193,4.0,15.0,318.0
2022-02-03-17:41:14.770244,4.0,15.0,318.0
2022-02-03-17:41:14.771423,4.0,15.0,318.0
2022-02-03-17:41:14.771423,2.0,16.0,317.0
2022-02-03-17:41:14.772469,12.0,2.0,318.0
2022-02-03-17:41:14.773472,8.0,19.0,318.0
2022-02-03-17:41:14.774464,8.0,19.0,318.0
2022-02-03-17:41:14.775416,8.0,19.0,318.0
2022-02-03-17:41:14.776415,8.0,38.0,318.0
2022-02-03-17:41:14.777411,17.0,28.0,319.0
2022-02-03-17:41:14.778464,29.0,24.0,319.0
2022-02-03-17:41:14.779460,29.0,24.0,319.0
2022-02-03-17:41:14.780459,26.0,1.0,320.0
2022-02-03-17:41:14.781445,7.0,26.0,319.0
2022-02-03-17:41:14.782447,2.0,29.0,320.0
2022-02-03-17:41:14.783394,2.0,29.0,320.0
2022-02-03-17:41:14.785435,3.0,22.0,320.0
2022-02-03-17:41:14.785435,2.0,24.0,320.0
2022-02-03-17:41:14.786414,2.0,24.0,320.0
2022-02-03-17:41:14.787430,2.0,24.0,320.0
2022-02-03-17:41:14.788429,0.0,25.0,320.0
2022-02-03-17:41:14.789426,11.0,21.0,321.0
2022-02-03-17:41:14.790424,5.0,8.0,320.0
2022-02-03-17:41:14.791373,5.0,8.0,320.0
2022-02-03-17:41:14.792416,1.0,28.0,321.0
2022-02-03-17:41:14.793415,21.0,34.0,321.0
2022-02-03-17:41:14.794414,30.0,32.0,321.0
2022-02-03-17:41:14.795362,30.0,32.0,321.0
2022-02-03-17:41:14.796406,25.0,17.0,322.0
2022-02-03-17:41:14.797405,8.0,20.0,322.0
2022-02-03-17:41:14.798354,1.0,29.0,322.0
2022-02-03-17:41:14.799352,1.0,29.0,322.0
2022-02-03-17:41:14.800349,1.0,27.0,323.0
2022-02-03-17:41:14.801346,1.0,23.0,323.0
2022-02-03-17:41:14.802392,1.0,23.0,323.0
2022-02-03-17:41:14.803389,1.0,23.0,323.0
2022-02-03-17:41:14.804384,1.0,18.0,323.0
2022-02-03-17:41:14.805382,15.0,9.0,324.0
2022-02-03-17:41:14.806379,11.0,8.0,324.0
2022-02-03-17:41:14.807357,11.0,8.0,324.0
2022-02-03-17:41:14.808374,11.0,8.0,324.0
2022-02-03-17:41:14.809371,10.0,37.0,324.0
2022-02-03-17:41:14.810371,25.0,23.0,325.0
2022-02-03-17:41:14.811366,25.0,23.0,325.0
2022-02-03-17:41:14.812363,25.0,23.0,325.0
2022-02-03-17:41:14.813360,28.0,12.0,324.0
2022-02-03-17:41:14.814357,3.0,35.0,326.0
2022-02-03-17:41:14.815363,3.0,35.0,326.0
2022-02-03-17:41:14.816352,3.0,35.0,326.0
2022-02-03-17:41:14.817350,2.0,33.0,325.0
2022-02-03-17:41:14.819344,2.0,33.0,325.0
2022-02-03-17:41:14.819344,3.0,20.0,326.0
2022-02-03-17:41:14.820295,1.0,17.0,327.0
2022-02-03-17:41:14.821339,12.0,4.0,327.0
2022-02-03-17:41:14.822316,12.0,4.0,327.0
2022-02-03-17:41:14.823333,12.0,4.0,327.0
2022-02-03-17:41:14.824331,12.0,4.0,327.0
2022-02-03-17:41:14.825328,7.0,14.0,327.0
2022-02-03-17:41:14.826328,14.0,35.0,328.0
2022-02-03-17:41:14.827324,21.0,26.0,328.0
2022-02-03-17:41:14.828320,21.0,26.0,328.0
2022-02-03-17:41:14.829318,26.0,36.0,328.0
2022-02-03-17:41:14.830315,7.0,32.0,328.0
2022-02-03-17:41:14.831321,7.0,32.0,328.0
2022-02-03-17:41:14.832263,7.0,32.0,328.0
2022-02-03-17:41:14.833313,2.0,32.0,328.0
2022-02-03-17:41:14.834306,2.0,17.0,329.0
2022-02-03-17:41:14.835287,2.0,17.0,329.0
2022-02-03-17:41:14.836253,2.0,17.0,329.0
2022-02-03-17:41:14.837298,3.0,16.0,329.0
2022-02-03-17:41:14.838294,4.0,20.0,329.0
2022-02-03-17:41:14.839291,14.0,19.0,330.0
2022-02-03-17:41:14.840282,14.0,19.0,330.0
2022-02-03-17:41:14.841287,5.0,18.0,330.0
2022-02-03-17:41:14.842286,11.0,39.0,331.0
2022-02-03-17:41:14.843280,19.0,39.0,331.0
2022-02-03-17:41:14.844278,19.0,39.0,331.0
2022-02-03-17:41:14.845275,27.0,35.0,331.0
2022-02-03-17:41:14.846390,17.0,21.0,331.0
2022-02-03-17:41:14.846390,9.0,33.0,331.0
2022-02-03-17:41:14.847447,9.0,33.0,331.0
2022-02-03-17:41:14.848426,9.0,33.0,331.0
2022-02-03-17:41:14.849441,5.0,29.0,331.0
2022-02-03-17:41:14.850382,3.0,21.0,332.0
2022-02-03-17:41:14.851437,3.0,21.0,332.0
2022-02-03-17:41:14.852432,3.0,21.0,332.0
2022-02-03-17:41:14.854428,3.0,21.0,332.0
2022-02-03-17:41:14.855039,3.0,21.0,332.0
2022-02-03-17:41:14.855039,10.0,2.0,333.0
2022-02-03-17:41:14.856085,10.0,2.0,333.0
2022-02-03-17:41:14.857082,10.0,2.0,333.0
2022-02-03-17:41:14.858085,2.0,20.0,333.0
2022-02-03-17:41:14.859192,16.0,36.0,333.0
2022-02-03-17:41:14.859192,24.0,27.0,333.0
2022-02-03-17:41:14.860246,24.0,27.0,333.0
2022-02-03-17:41:14.861435,24.0,27.0,333.0
2022-02-03-17:41:14.861435,26.0,23.0,333.0
2022-02-03-17:41:14.862481,16.0,32.0,334.0
2022-02-03-17:41:14.863479,2.0,34.0,334.0
2022-02-03-17:41:14.864476,2.0,34.0,334.0
2022-02-03-17:41:14.865476,2.0,34.0,334.0
2022-02-03-17:41:14.866470,3.0,33.0,334.0
2022-02-03-17:41:14.867422,4.0,11.0,334.0
2022-02-03-17:41:14.868442,4.0,11.0,334.0
2022-02-03-17:41:14.869444,4.0,11.0,334.0
2022-02-03-17:41:14.870460,2.0,13.0,335.0
2022-02-03-17:41:14.871439,2.0,13.0,335.0
2022-02-03-17:41:14.872455,8.0,17.0,334.0
2022-02-03-17:41:14.873452,9.0,5.0,335.0
2022-02-03-17:41:14.874449,7.0,10.0,335.0
2022-02-03-17:41:14.875451,9.0,29.0,335.0
2022-02-03-17:41:14.876446,18.0,31.0,336.0
2022-02-03-17:41:14.877443,18.0,31.0,336.0
2022-02-03-17:41:14.878440,29.0,29.0,335.0
2022-02-03-17:41:14.879436,16.0,16.0,336.0
2022-02-03-17:41:14.880438,3.0,25.0,335.0
2022-02-03-17:41:14.881384,3.0,25.0,335.0
2022-02-03-17:41:14.882428,1.0,32.0,336.0
2022-02-03-17:41:14.883417,1.0,16.0,336.0
2022-02-03-17:41:14.884406,1.0,16.0,336.0
2022-02-03-17:41:14.886419,1.0,16.0,336.0
2022-02-03-17:41:14.886419,1.0,10.0,336.0
2022-02-03-17:41:14.887417,10.0,15.0,336.0
2022-02-03-17:41:14.888412,10.0,15.0,336.0
2022-02-03-17:41:14.889409,10.0,15.0,336.0
2022-02-03-17:41:14.890406,13.0,6.0,336.0
2022-02-03-17:41:14.891408,12.0,33.0,337.0
2022-02-03-17:41:14.892404,17.0,26.0,337.0
2022-02-03-17:41:14.893400,17.0,26.0,337.0
2022-02-03-17:41:14.894398,17.0,26.0,337.0
2022-02-03-17:41:14.895393,27.0,12.0,338.0
2022-02-03-17:41:14.896391,8.0,29.0,338.0
2022-02-03-17:41:14.897390,8.0,29.0,338.0
2022-02-03-17:41:14.898339,8.0,29.0,338.0
2022-02-03-17:41:14.899337,2.0,34.0,338.0
2022-02-03-17:41:14.900339,2.0,18.0,338.0
2022-02-03-17:41:14.901338,2.0,18.0,338.0
2022-02-03-17:41:14.902352,2.0,18.0,338.0
2022-02-03-17:41:14.903477,14.0,19.0,339.0
2022-02-03-17:41:14.903477,14.0,19.0,339.0
2022-02-03-17:41:14.904525,14.0,19.0,339.0
2022-02-03-17:41:14.905526,14.0,19.0,339.0
2022-02-03-17:41:14.906709,14.0,19.0,339.0
2022-02-03-17:41:14.906709,9.0,4.0,338.0
2022-02-03-17:41:14.907732,9.0,4.0,338.0
2022-02-03-17:41:14.908833,13.0,35.0,339.0
2022-02-03-17:41:14.908833,13.0,35.0,339.0
2022-02-03-17:41:14.909883,13.0,35.0,339.0
2022-02-03-17:41:14.910920,29.0,26.0,339.0
2022-02-03-17:41:14.910920,14.0,25.0,339.0
2022-02-03-17:41:14.911943,14.0,25.0,339.0
2022-02-03-17:41:14.912941,14.0,25.0,339.0
2022-02-03-17:41:14.913943,14.0,25.0,339.0
2022-02-03-17:41:14.914936,5.0,27.0,340.0
2022-02-03-17:41:14.916056,5.0,30.0,340.0
2022-02-03-17:41:14.916056,3.0,25.0,340.0
2022-02-03-17:41:14.917057,3.0,25.0,340.0
2022-02-03-17:41:14.918100,3.0,25.0,340.0
2022-02-03-17:41:14.920095,4.0,12.0,340.0
2022-02-03-17:41:14.920095,11.0,20.0,340.0
2022-02-03-17:41:14.921110,11.0,20.0,340.0
2022-02-03-17:41:14.921110,11.0,20.0,340.0
2022-02-03-17:41:14.922166,11.0,20.0,340.0
2022-02-03-17:41:14.923162,11.0,20.0,340.0
2022-02-03-17:41:14.924158,9.0,11.0,341.0
2022-02-03-17:41:14.925269,12.0,33.0,340.0
2022-02-03-17:41:14.925269,12.0,33.0,340.0
2022-02-03-17:41:14.926519,12.0,33.0,340.0
2022-02-03-17:41:14.926519,18.0,29.0,341.0
2022-02-03-17:41:14.927557,18.0,29.0,341.0
2022-02-03-17:41:14.928548,18.0,17.0,342.0
2022-02-03-17:41:14.929546,18.0,17.0,342.0
2022-02-03-17:41:14.930511,18.0,17.0,342.0
2022-02-03-17:41:14.931540,9.0,34.0,341.0
2022-02-03-17:41:14.932539,2.0,29.0,342.0
2022-02-03-17:41:14.933505,4.0,19.0,342.0
2022-02-03-17:41:14.934501,4.0,19.0,342.0
2022-02-03-17:41:14.935524,3.0,12.0,342.0
2022-02-03-17:41:14.936519,3.0,12.0,342.0
2022-02-03-17:41:14.937516,8.0,13.0,342.0
2022-02-03-17:41:14.938514,8.0,13.0,342.0
2022-02-03-17:41:14.939512,8.0,13.0,342.0
2022-02-03-17:41:14.940619,5.0,21.0,342.0
2022-02-03-17:41:14.940619,5.0,21.0,342.0
2022-02-03-17:41:14.941665,5.0,21.0,342.0
2022-02-03-17:41:14.942662,5.0,21.0,342.0
2022-02-03-17:41:14.943697,14.0,17.0,343.0
2022-02-03-17:41:14.943697,33.0,15.0,342.0
2022-02-03-17:41:14.944721,33.0,15.0,342.0
2022-02-03-17:41:14.945720,24.0,4.0,343.0
2022-02-03-17:41:14.946716,24.0,4.0,343.0
2022-02-03-17:41:14.947712,11.0,29.0,343.0
2022-02-03-17:41:14.948840,1.0,24.0,343.0
2022-02-03-17:41:14.948840,1.0,24.0,343.0
2022-02-03-17:41:14.949886,1.0,24.0,343.0
2022-02-03-17:41:14.950886,1.0,24.0,343.0
2022-02-03-17:41:14.951880,1.0,9.0,343.0
2022-02-03-17:41:14.952923,2.0,11.0,343.0
2022-02-03-17:41:14.952923,2.0,11.0,343.0
2022-02-03-17:41:14.953925,4.0,10.0,344.0
2022-02-03-17:41:14.955920,4.0,10.0,344.0
2022-02-03-17:41:14.955920,7.0,39.0,344.0
2022-02-03-17:41:14.956916,7.0,39.0,344.0
2022-02-03-17:41:14.957945,7.0,39.0,344.0
2022-02-03-17:41:14.958945,7.0,39.0,344.0
2022-02-03-17:41:14.959941,15.0,35.0,344.0
2022-02-03-17:41:14.960945,27.0,6.0,344.0
2022-02-03-17:41:14.961902,27.0,6.0,344.0
2022-02-03-17:41:14.962899,27.0,6.0,344.0
2022-02-03-17:41:14.963896,27.0,6.0,344.0
2022-02-03-17:41:14.964893,11.0,18.0,345.0
2022-02-03-17:41:14.965893,1.0,27.0,345.0
2022-02-03-17:41:14.966911,3.0,25.0,345.0
2022-02-03-17:41:14.967920,3.0,25.0,345.0
2022-02-03-17:41:14.968917,2.0,19.0,345.0
2022-02-03-17:41:14.969882,3.0,26.0,345.0
2022-02-03-17:41:14.970878,4.0,22.0,345.0
2022-02-03-17:41:14.971909,4.0,22.0,345.0
2022-02-03-17:41:14.972906,10.0,3.0,345.0
2022-02-03-17:41:14.973903,4.0,30.0,345.0
2022-02-03-17:41:14.974900,4.0,30.0,345.0
2022-02-03-17:41:14.975898,4.0,30.0,345.0
2022-02-03-17:41:14.976895,11.0,34.0,346.0
2022-02-03-17:41:14.977859,29.0,7.0,346.0
2022-02-03-17:41:14.978892,29.0,7.0,346.0
2022-02-03-17:41:14.979879,29.0,7.0,346.0
2022-02-03-17:41:14.980878,20.0,14.0,346.0
2022-02-03-17:41:14.981873,2.0,27.0,346.0
2022-02-03-17:41:14.982871,2.0,27.0,346.0
2022-02-03-17:41:14.983845,2.0,27.0,346.0
2022-02-03-17:41:14.984842,3.0,21.0,346.0
2022-02-03-17:41:14.985872,4.0,17.0,346.0
2022-02-03-17:41:14.987229,4.0,13.0,346.0
2022-02-03-17:41:14.987229,4.0,13.0,346.0
2022-02-03-17:41:14.989281,4.0,13.0,346.0
2022-02-03-17:41:14.990227,4.0,8.0,346.0
2022-02-03-17:41:14.990227,2.0,21.0,347.0
2022-02-03-17:41:14.991275,2.0,21.0,347.0
2022-02-03-17:41:14.992253,2.0,21.0,347.0
2022-02-03-17:41:14.993264,11.0,30.0,347.0
2022-02-03-17:41:14.994260,25.0,28.0,348.0
2022-02-03-17:41:14.995259,29.0,10.0,347.0
2022-02-03-17:41:14.996256,29.0,10.0,347.0
2022-02-03-17:41:14.997250,23.0,7.0,347.0
2022-02-03-17:41:14.998249,3.0,32.0,348.0
2022-02-03-17:41:14.999247,1.0,32.0,348.0
2022-02-03-17:41:15.000201,1.0,32.0,348.0
2022-02-03-17:41:15.001194,2.0,23.0,348.0
2022-02-03-17:41:15.002238,6.0,17.0,348.0
2022-02-03-17:41:15.003237,3.0,13.0,348.0
2022-02-03-17:41:15.004186,3.0,13.0,348.0
2022-02-03-17:41:15.005209,10.0,1.0,348.0
2022-02-03-17:41:15.006207,4.0,19.0,349.0
2022-02-03-17:41:15.007224,4.0,19.0,349.0
2022-02-03-17:41:15.008221,4.0,19.0,349.0
2022-02-03-17:41:15.009197,12.0,35.0,349.0
2022-02-03-17:41:15.010195,27.0,24.0,349.0
2022-02-03-17:41:15.011191,27.0,24.0,349.0
2022-02-03-17:41:15.012195,27.0,24.0,349.0
2022-02-03-17:41:15.013187,27.0,24.0,349.0
2022-02-03-17:41:15.014184,2.0,34.0,350.0
2022-02-03-17:41:15.015185,2.0,31.0,349.0
2022-02-03-17:41:15.016183,2.0,31.0,349.0
2022-02-03-17:41:15.017152,2.0,31.0,349.0
2022-02-03-17:41:15.018175,5.0,17.0,350.0
2022-02-03-17:41:15.019174,5.0,16.0,350.0
2022-02-03-17:41:15.020143,5.0,16.0,350.0
2022-02-03-17:41:15.021166,5.0,16.0,350.0
2022-02-03-17:41:15.023181,7.0,9.0,350.0
2022-02-03-17:41:15.023181,7.0,9.0,350.0
2022-02-03-17:41:15.024158,7.0,9.0,350.0
2022-02-03-17:41:15.025181,7.0,9.0,350.0
2022-02-03-17:41:15.026174,1.0,28.0,350.0
2022-02-03-17:41:15.027173,16.0,30.0,350.0
2022-02-03-17:41:15.028169,29.0,33.0,351.0
2022-02-03-17:41:15.029166,29.0,33.0,351.0
2022-02-03-17:41:15.030163,26.0,14.0,350.0
2022-02-03-17:41:15.031160,9.0,32.0,351.0
2022-02-03-17:41:15.032160,1.0,36.0,352.0
2022-02-03-17:41:15.033155,1.0,36.0,352.0
2022-02-03-17:41:15.034106,2.0,30.0,351.0
2022-02-03-17:41:15.035153,3.0,16.0,352.0
2022-02-03-17:41:15.036147,3.0,16.0,352.0
2022-02-03-17:41:15.037098,3.0,16.0,352.0
2022-02-03-17:41:15.038142,2.0,16.0,352.0
2022-02-03-17:41:15.039145,2.0,16.0,352.0
2022-02-03-17:41:15.040115,9.0,1.0,352.0
2022-02-03-17:41:15.041087,9.0,1.0,352.0
2022-02-03-17:41:15.042132,0.0,19.0,352.0
2022-02-03-17:41:15.043241,23.0,32.0,353.0
2022-02-03-17:41:15.043241,23.0,32.0,353.0
2022-02-03-17:41:15.044300,23.0,32.0,353.0
2022-02-03-17:41:15.045275,23.0,32.0,353.0
2022-02-03-17:41:15.046342,28.0,17.0,352.0
2022-02-03-17:41:15.046342,8.0,27.0,353.0
2022-02-03-17:41:15.047388,3.0,31.0,353.0
2022-02-03-17:41:15.048339,3.0,31.0,353.0
2022-02-03-17:41:15.049336,3.0,31.0,353.0
2022-02-03-17:41:15.050333,0.0,25.0,353.0
2022-02-03-17:41:15.051377,9.0,26.0,353.0
2022-02-03-17:41:15.052377,2.0,20.0,353.0
2022-02-03-17:41:15.053326,2.0,20.0,353.0
2022-02-03-17:41:15.054369,1.0,17.0,354.0
2022-02-03-17:41:15.055371,1.0,15.0,354.0
2022-02-03-17:41:15.056798,10.0,0.0,353.0
2022-02-03-17:41:15.056798,10.0,0.0,353.0
2022-02-03-17:41:15.058852,10.0,0.0,353.0
2022-02-03-17:41:15.059151,6.0,37.0,354.0
2022-02-03-17:41:15.059469,22.0,32.0,354.0
2022-02-03-17:41:15.059469,22.0,32.0,354.0
2022-02-03-17:41:15.060524,22.0,32.0,354.0
2022-02-03-17:41:15.061499,22.0,32.0,354.0
2022-02-03-17:41:15.062523,29.0,25.0,354.0
2022-02-03-17:41:15.063588,3.0,27.0,354.0
2022-02-03-17:41:15.063588,3.0,27.0,354.0
2022-02-03-17:41:15.064635,3.0,27.0,354.0
2022-02-03-17:41:15.065603,3.0,27.0,354.0
2022-02-03-17:41:15.066629,1.0,32.0,354.0
2022-02-03-17:41:15.067680,3.0,19.0,355.0
2022-02-03-17:41:15.067680,3.0,19.0,355.0
2022-02-03-17:41:15.068734,3.0,19.0,355.0
2022-02-03-17:41:15.069711,3.0,19.0,355.0
2022-02-03-17:41:15.070731,2.0,18.0,355.0
2022-02-03-17:41:15.071672,1.0,14.0,355.0
2022-02-03-17:41:15.072753,12.0,20.0,355.0
2022-02-03-17:41:15.072753,12.0,20.0,355.0
2022-02-03-17:41:15.074086,12.0,20.0,355.0
2022-02-03-17:41:15.074086,6.0,7.0,355.0
2022-02-03-17:41:15.075132,13.0,34.0,356.0
2022-02-03-17:41:15.076130,19.0,38.0,356.0
2022-02-03-17:41:15.077127,19.0,38.0,356.0
2022-02-03-17:41:15.078078,19.0,38.0,356.0
2022-02-03-17:41:15.079124,27.0,40.0,356.0
2022-02-03-17:41:15.080123,19.0,6.0,356.0
2022-02-03-17:41:15.081122,3.0,35.0,356.0
2022-02-03-17:41:15.082067,3.0,35.0,356.0
2022-02-03-17:41:15.083111,0.0,43.0,356.0
2022-02-03-17:41:15.084062,2.0,22.0,356.0
2022-02-03-17:41:15.085110,2.0,19.0,356.0
2022-02-03-17:41:15.086059,2.0,19.0,356.0
2022-02-03-17:41:15.087093,11.0,19.0,357.0
2022-02-03-17:41:15.088076,11.0,1.0,357.0
2022-02-03-17:41:15.089073,11.0,1.0,357.0
2022-02-03-17:41:15.091090,11.0,1.0,357.0
2022-02-03-17:41:15.091090,14.0,39.0,357.0
2022-02-03-17:41:15.092088,24.0,33.0,357.0
2022-02-03-17:41:15.093084,24.0,33.0,357.0
2022-02-03-17:41:15.094081,24.0,33.0,357.0
2022-02-03-17:41:15.095079,24.0,33.0,357.0
2022-02-03-17:41:15.096080,27.0,5.0,357.0
2022-02-03-17:41:15.097172,1.0,32.0,358.0
2022-02-03-17:41:15.097172,1.0,32.0,358.0
2022-02-03-17:41:15.098218,1.0,32.0,358.0
2022-02-03-17:41:15.099215,1.0,32.0,358.0
2022-02-03-17:41:15.100214,1.0,29.0,358.0
2022-02-03-17:41:15.101526,1.0,18.0,358.0
2022-02-03-17:41:15.101526,4.0,16.0,358.0
2022-02-03-17:41:15.102734,4.0,16.0,358.0
2022-02-03-17:41:15.102734,0.0,15.0,358.0
2022-02-03-17:41:15.103780,7.0,21.0,358.0
2022-02-03-17:41:15.104779,15.0,5.0,358.0
2022-02-03-17:41:15.105775,15.0,5.0,358.0
2022-02-03-17:41:15.106726,15.0,5.0,358.0
2022-02-03-17:41:15.107749,11.0,14.0,358.0
2022-02-03-17:41:15.108767,13.0,35.0,359.0
2022-02-03-17:41:15.109765,20.0,32.0,358.0
2022-02-03-17:41:15.110716,20.0,32.0,358.0
2022-02-03-17:41:15.111759,29.0,33.0,358.0
2022-02-03-17:41:15.112758,17.0,17.0,358.0
2022-02-03-17:41:15.113755,4.0,32.0,358.0
2022-02-03-17:41:15.114708,4.0,32.0,358.0
2022-02-03-17:41:15.115749,2.0,31.0,358.0
2022-02-03-17:41:15.116746,1.0,26.0,358.0
2022-02-03-17:41:15.117744,1.0,17.0,359.0
2022-02-03-17:41:15.118740,1.0,17.0,359.0
2022-02-03-17:41:15.119738,1.0,17.0,359.0
2022-02-03-17:41:15.120737,2.0,10.0,359.0
2022-02-03-17:41:15.121733,15.0,25.0,359.0
2022-02-03-17:41:15.122729,15.0,25.0,359.0
2022-02-03-17:41:15.124725,11.0,1.0,359.0
2022-02-03-17:41:15.124725,15.0,25.0,359.0
2022-02-03-17:41:15.125722,15.0,25.0,359.0
2022-02-03-17:41:15.126719,15.0,25.0,359.0
2022-02-03-17:41:15.127716,15.0,25.0,359.0
2022-02-03-17:41:15.128715,26.0,19.0,359.0
2022-02-03-17:41:15.129711,21.0,6.0,359.0
2022-02-03-17:41:15.130713,12.0,15.0,360.0
2022-02-03-17:41:15.131660,12.0,15.0,360.0
2022-02-03-17:41:15.132657,0.0,22.0,360.0
2022-02-03-17:41:15.133673,2.0,28.0,360.0
2022-02-03-17:41:15.134699,4.0,16.0,360.0
2022-02-03-17:41:15.135649,4.0,16.0,360.0
2022-02-03-17:41:15.136694,2.0,23.0,359.0
2022-02-03-17:41:15.137690,1.0,16.0,360.0
2022-02-03-17:41:15.138686,8.0,19.0,359.0
2022-02-03-17:41:15.139685,8.0,19.0,359.0
2022-02-03-17:41:15.140682,5.0,29.0,360.0
2022-02-03-17:41:15.141679,15.0,33.0,360.0
2022-02-03-17:41:15.142676,15.0,33.0,360.0
2022-02-03-17:41:15.143628,15.0,33.0,360.0
2022-02-03-17:41:15.144673,22.0,33.0,360.0
2022-02-03-17:41:15.145669,28.0,1.0,360.0
2022-02-03-17:41:15.146665,8.0,37.0,360.0
2022-02-03-17:41:15.147617,8.0,37.0,360.0
2022-02-03-17:41:15.148661,0.0,38.0,360.0
2022-02-03-17:41:15.149647,1.0,24.0,360.0
2022-02-03-17:41:15.150610,1.0,24.0,360.0
2022-02-03-17:41:15.151607,1.0,24.0,360.0
2022-02-03-17:41:15.152632,3.0,21.0,360.0
2022-02-03-17:41:15.153646,2.0,3.0,360.0
2022-02-03-17:41:15.154628,10.0,6.0,360.0
2022-02-03-17:41:15.155648,10.0,6.0,360.0
2022-02-03-17:41:15.156639,13.0,9.0,360.0
2022-02-03-17:41:15.158634,13.0,9.0,360.0
2022-02-03-17:41:15.158634,14.0,34.0,360.0
2022-02-03-17:41:15.159631,14.0,34.0,360.0
2022-02-03-17:41:15.160635,14.0,34.0,360.0
2022-02-03-17:41:15.161627,32.0,26.0,360.0
2022-02-03-17:41:15.162695,18.0,29.0,361.0
2022-02-03-17:41:15.162695,18.0,29.0,361.0
2022-02-03-17:41:15.163745,18.0,29.0,361.0
2022-02-03-17:41:15.164739,18.0,29.0,361.0
2022-02-03-17:41:15.165690,1.0,28.0,360.0
2022-02-03-17:41:15.166736,1.0,28.0,360.0
2022-02-03-17:41:15.167685,1.0,28.0,360.0
2022-02-03-17:41:15.168729,1.0,28.0,360.0
2022-02-03-17:41:15.169945,2.0,23.0,361.0
2022-02-03-17:41:15.169945,2.0,15.0,361.0
2022-02-03-17:41:15.170991,2.0,7.0,360.0
2022-02-03-17:41:15.171989,2.0,7.0,360.0
2022-02-03-17:41:15.172988,14.0,10.0,360.0
2022-02-03-17:41:15.173985,8.0,38.0,361.0
2022-02-03-17:41:15.174981,8.0,38.0,361.0
2022-02-03-17:41:15.175982,8.0,38.0,361.0
2022-02-03-17:41:15.176976,8.0,38.0,361.0
2022-02-03-17:41:15.177973,25.0,38.0,360.0
2022-02-03-17:41:15.178977,23.0,0.0,361.0
2022-02-03-17:41:15.179947,23.0,0.0,361.0
2022-02-03-17:41:15.180965,23.0,0.0,361.0
2022-02-03-17:41:15.181963,8.0,25.0,360.0
2022-02-03-17:41:15.182960,1.0,26.0,360.0
2022-02-03-17:41:15.183911,1.0,27.0,361.0
2022-02-03-17:41:15.184955,1.0,27.0,361.0
2022-02-03-17:41:15.185952,3.0,42.0,360.0
2022-02-03-17:41:15.186950,2.0,17.0,360.0
2022-02-03-17:41:15.187948,1.0,9.0,361.0
2022-02-03-17:41:15.188945,1.0,9.0,361.0
2022-02-03-17:41:15.189942,9.0,16.0,361.0
2022-02-03-17:41:15.190938,9.0,16.0,361.0
2022-02-03-17:41:15.192933,5.0,18.0,361.0
2022-02-03-17:41:15.192933,24.0,30.0,360.0
2022-02-03-17:41:15.194038,27.0,3.0,361.0
2022-02-03-17:41:15.194038,27.0,3.0,361.0
2022-02-03-17:41:15.195085,27.0,3.0,361.0
2022-02-03-17:41:15.196081,27.0,3.0,361.0
2022-02-03-17:41:15.197079,27.0,3.0,361.0
2022-02-03-17:41:15.198112,12.0,27.0,361.0
2022-02-03-17:41:15.198421,0.0,30.0,361.0
2022-02-03-17:41:15.198421,4.0,25.0,361.0
2022-02-03-17:41:15.199420,4.0,25.0,361.0
2022-02-03-17:41:15.200418,4.0,25.0,361.0
2022-02-03-17:41:15.201442,4.0,25.0,361.0
2022-02-03-17:41:15.202458,4.0,20.0,361.0
2022-02-03-17:41:15.203642,3.0,16.0,361.0
2022-02-03-17:41:15.203779,0.0,12.0,361.0
2022-02-03-17:41:15.203779,0.0,12.0,361.0
2022-02-03-17:41:15.205002,0.0,12.0,361.0
2022-02-03-17:41:15.205002,9.0,18.0,360.0
2022-02-03-17:41:15.206049,8.0,9.0,361.0
2022-02-03-17:41:15.207046,3.0,30.0,361.0
2022-02-03-17:41:15.208043,3.0,30.0,361.0
2022-02-03-17:41:15.208994,3.0,30.0,361.0
2022-02-03-17:41:15.210017,3.0,30.0,361.0
2022-02-03-17:41:15.211035,17.0,34.0,361.0
2022-02-03-17:41:15.212035,25.0,29.0,361.0
2022-02-03-17:41:15.213031,30.0,5.0,361.0
2022-02-03-17:41:15.214028,8.0,30.0,360.0
2022-02-03-17:41:15.214978,4.0,31.0,360.0
2022-02-03-17:41:15.216023,4.0,31.0,360.0
2022-02-03-17:41:15.217020,4.0,31.0,360.0
2022-02-03-17:41:15.217996,5.0,15.0,361.0
2022-02-03-17:41:15.219014,2.0,12.0,361.0
2022-02-03-17:41:15.220014,2.0,12.0,361.0
2022-02-03-17:41:15.221008,2.0,12.0,361.0
2022-02-03-17:41:15.222006,2.0,12.0,361.0
2022-02-03-17:41:15.223004,7.0,15.0,360.0
2022-02-03-17:41:15.224007,12.0,2.0,360.0
2022-02-03-17:41:15.224998,3.0,27.0,361.0
2022-02-03-17:41:15.226993,8.0,41.0,360.0
2022-02-03-17:41:15.227579,29.0,17.0,360.0
2022-02-03-17:41:15.227579,29.0,17.0,360.0
2022-02-03-17:41:15.228626,29.0,17.0,360.0
2022-02-03-17:41:15.229622,29.0,17.0,360.0
2022-02-03-17:41:15.230670,25.0,5.0,361.0
2022-02-03-17:41:15.230670,3.0,39.0,361.0
2022-02-03-17:41:15.231670,2.0,33.0,361.0
2022-02-03-17:41:15.232668,2.0,33.0,361.0
2022-02-03-17:41:15.233665,2.0,33.0,361.0
2022-02-03-17:41:15.234709,2.0,27.0,361.0
2022-02-03-17:41:15.235706,5.0,19.0,361.0
2022-02-03-17:41:15.236705,2.0,6.0,361.0
2022-02-03-17:41:15.237654,2.0,6.0,361.0
2022-02-03-17:41:15.238697,3.0,5.0,361.0
2022-02-03-17:41:15.239696,12.0,0.0,361.0
2022-02-03-17:41:15.240693,7.0,19.0,360.0
2022-02-03-17:41:15.241689,7.0,19.0,360.0
2022-02-03-17:41:15.242687,15.0,32.0,361.0
2022-02-03-17:41:15.243684,19.0,32.0,361.0
2022-02-03-17:41:15.244683,27.0,29.0,361.0
2022-02-03-17:41:15.245685,27.0,29.0,361.0
2022-02-03-17:41:15.246676,27.0,29.0,361.0
2022-02-03-17:41:15.247675,13.0,21.0,361.0
2022-02-03-17:41:15.248676,2.0,26.0,360.0
2022-02-03-17:41:15.249725,2.0,26.0,360.0
2022-02-03-17:41:15.249725,2.0,26.0,360.0
2022-02-03-17:41:15.250726,6.0,35.0,360.0
2022-02-03-17:41:15.251779,3.0,29.0,361.0
2022-02-03-17:41:15.252774,3.0,29.0,361.0
2022-02-03-17:41:15.253771,3.0,29.0,361.0
2022-02-03-17:41:15.254769,3.0,29.0,361.0
2022-02-03-17:41:15.255768,10.0,19.0,361.0
2022-02-03-17:41:15.256763,6.0,14.0,361.0
2022-02-03-17:41:15.257760,6.0,14.0,361.0
2022-02-03-17:41:15.258758,6.0,14.0,361.0
2022-02-03-17:41:15.260752,3.0,46.0,361.0
2022-02-03-17:41:15.260752,17.0,40.0,361.0
2022-02-03-17:41:15.261695,29.0,34.0,361.0
2022-02-03-17:41:15.262747,29.0,34.0,361.0
2022-02-03-17:41:15.263746,28.0,20.0,361.0
2022-02-03-17:41:15.264741,7.0,46.0,361.0
2022-02-03-17:41:15.265740,2.0,43.0,361.0
2022-02-03-17:41:15.266737,2.0,43.0,361.0
2022-02-03-17:41:15.267679,2.0,38.0,361.0
2022-02-03-17:41:15.268731,4.0,25.0,361.0
2022-02-03-17:41:15.269729,4.0,23.0,361.0
2022-02-03-17:41:15.270730,4.0,23.0,361.0
2022-02-03-17:41:15.271723,3.0,20.0,362.0
2022-02-03-17:41:15.272720,13.0,13.0,361.0
2022-02-03-17:41:15.273718,10.0,8.0,361.0
2022-02-03-17:41:15.274948,10.0,8.0,361.0
2022-02-03-17:41:15.274948,11.0,40.0,362.0
2022-02-03-17:41:15.276002,11.0,40.0,362.0
2022-02-03-17:41:15.276999,20.0,36.0,361.0
2022-02-03-17:41:15.277997,20.0,36.0,361.0
2022-02-03-17:41:15.278995,20.0,36.0,361.0
2022-02-03-17:41:15.279985,27.0,24.0,361.0
2022-02-03-17:41:15.280985,9.0,30.0,361.0
2022-02-03-17:41:15.281979,4.0,34.0,362.0
2022-02-03-17:41:15.282975,4.0,34.0,362.0
2022-02-03-17:41:15.283926,3.0,36.0,361.0
2022-02-03-17:41:15.284974,3.0,28.0,362.0
2022-02-03-17:41:15.285968,5.0,23.0,361.0
2022-02-03-17:41:15.286918,5.0,23.0,361.0
2022-02-03-17:41:15.287962,3.0,17.0,362.0
2022-02-03-17:41:15.288963,13.0,3.0,361.0
2022-02-03-17:41:15.289958,13.0,3.0,361.0
2022-02-03-17:41:15.290908,13.0,3.0,361.0
2022-02-03-17:41:15.291952,7.0,15.0,362.0
2022-02-03-17:41:15.293947,7.0,15.0,362.0
2022-02-03-17:41:15.293947,12.0,34.0,362.0
2022-02-03-17:41:15.295184,22.0,28.0,361.0
2022-02-03-17:41:15.295184,30.0,27.0,361.0
2022-02-03-17:41:15.296231,14.0,21.0,362.0
2022-02-03-17:41:15.297227,4.0,37.0,362.0
2022-02-03-17:41:15.298224,4.0,37.0,362.0
2022-02-03-17:41:15.299225,4.0,37.0,362.0
2022-02-03-17:41:15.299620,1.0,35.0,361.0
2022-02-03-17:41:15.299620,6.0,28.0,362.0
2022-02-03-17:41:15.300620,3.0,21.0,361.0
2022-02-03-17:41:15.301617,5.0,16.0,362.0
2022-02-03-17:41:15.302661,5.0,16.0,362.0
2022-02-03-17:41:15.303658,5.0,16.0,362.0
2022-02-03-17:41:15.304655,1.0,10.0,362.0
2022-02-03-17:41:15.305654,13.0,11.0,362.0
2022-02-03-17:41:15.306749,13.0,8.0,362.0
2022-02-03-17:41:15.306749,13.0,8.0,362.0
2022-02-03-17:41:15.307795,13.0,8.0,362.0
2022-02-03-17:41:15.308792,4.0,25.0,361.0
2022-02-03-17:41:15.309744,30.0,35.0,362.0
2022-02-03-17:41:15.310838,30.0,35.0,362.0
2022-02-03-17:41:15.310838,30.0,35.0,362.0
2022-02-03-17:41:15.311891,30.0,35.0,362.0
2022-02-03-17:41:15.312889,26.0,11.0,362.0
2022-02-03-17:41:15.313889,14.0,33.0,362.0
2022-02-03-17:41:15.314883,5.0,35.0,361.0
2022-02-03-17:41:15.315880,5.0,35.0,361.0
2022-02-03-17:41:15.316883,2.0,27.0,362.0
2022-02-03-17:41:15.317879,4.0,18.0,362.0
2022-02-03-17:41:15.318872,1.0,19.0,362.0
2022-02-03-17:41:15.319870,1.0,19.0,362.0
2022-02-03-17:41:15.320867,1.0,18.0,362.0
2022-02-03-17:41:15.321847,8.0,0.0,362.0
2022-02-03-17:41:15.322848,8.0,0.0,362.0
2022-02-03-17:41:15.323839,8.0,0.0,362.0
2022-02-03-17:41:15.324857,1.0,22.0,362.0
2022-02-03-17:41:15.326201,27.0,32.0,362.0
2022-02-03-17:41:15.326201,27.0,32.0,362.0
2022-02-03-17:41:15.327325,27.0,32.0,362.0
2022-02-03-17:41:15.327325,27.0,32.0,362.0
2022-02-03-17:41:15.329346,27.0,32.0,362.0
2022-02-03-17:41:15.329346,29.0,6.0,362.0
2022-02-03-17:41:15.330390,29.0,6.0,362.0
2022-02-03-17:41:15.330749,2.0,29.0,361.0
2022-02-03-17:41:15.330749,2.0,29.0,361.0
2022-02-03-17:41:15.331774,2.0,29.0,361.0
2022-02-03-17:41:15.332747,2.0,27.0,362.0
2022-02-03-17:41:15.333839,6.0,23.0,362.0
2022-02-03-17:41:15.333839,6.0,23.0,362.0
2022-02-03-17:41:15.334894,6.0,23.0,362.0
2022-02-03-17:41:15.335890,6.0,23.0,362.0
2022-02-03-17:41:15.336887,5.0,17.0,362.0
2022-02-03-17:41:15.337830,15.0,13.0,362.0
2022-02-03-17:41:15.338882,12.0,4.0,362.0
2022-02-03-17:41:15.339881,12.0,4.0,362.0
2022-02-03-17:41:15.340878,12.0,4.0,362.0
2022-02-03-17:41:15.341878,1.0,33.0,362.0
2022-02-03-17:41:15.342872,16.0,32.0,362.0
2022-02-03-17:41:15.343869,16.0,32.0,362.0
2022-02-03-17:41:15.344866,16.0,32.0,362.0
2022-02-03-17:41:15.345866,16.0,23.0,362.0
2022-02-03-17:41:15.346861,6.0,35.0,361.0
2022-02-03-17:41:15.347859,6.0,35.0,361.0
2022-02-03-17:41:15.349070,6.0,35.0,361.0
2022-02-03-17:41:15.349070,2.0,32.0,362.0
2022-02-03-17:41:15.350101,4.0,25.0,361.0
2022-02-03-17:41:15.351098,5.0,24.0,362.0
2022-02-03-17:41:15.352096,5.0,24.0,362.0
2022-02-03-17:41:15.353094,5.0,24.0,362.0
2022-02-03-17:41:15.354096,2.0,13.0,362.0
2022-02-03-17:41:15.355173,9.0,10.0,361.0
2022-02-03-17:41:15.355173,9.0,10.0,361.0
2022-02-03-17:41:15.356201,9.0,10.0,361.0
2022-02-03-17:41:15.357201,9.0,10.0,361.0
2022-02-03-17:41:15.358191,3.0,27.0,362.0
2022-02-03-17:41:15.359190,16.0,36.0,362.0
2022-02-03-17:41:15.360163,16.0,36.0,362.0
2022-02-03-17:41:15.362184,16.0,36.0,362.0
2022-02-03-17:41:15.362184,27.0,14.0,361.0
2022-02-03-17:41:15.363227,27.0,14.0,361.0
2022-02-03-17:41:15.363578,13.0,29.0,361.0
2022-02-03-17:41:15.363578,13.0,29.0,361.0
2022-02-03-17:41:15.364793,13.0,29.0,361.0
2022-02-03-17:41:15.364793,4.0,33.0,361.0
2022-02-03-17:41:15.365827,0.0,31.0,361.0
2022-02-03-17:41:15.366821,4.0,32.0,362.0
2022-02-03-17:41:15.367876,4.0,32.0,362.0
2022-02-03-17:41:15.367876,4.0,32.0,362.0
2022-02-03-17:41:15.368930,4.0,32.0,362.0
2022-02-03-17:41:15.369927,2.0,30.0,362.0
2022-02-03-17:41:15.370925,5.0,8.0,362.0
2022-02-03-17:41:15.371928,12.0,13.0,362.0
2022-02-03-17:41:15.372920,12.0,13.0,362.0
2022-02-03-17:41:15.373916,8.0,1.0,361.0
2022-02-03-17:41:15.374915,8.0,35.0,363.0
2022-02-03-17:41:15.375911,15.0,38.0,362.0
2022-02-03-17:41:15.376909,15.0,38.0,362.0
2022-02-03-17:41:15.377906,26.0,22.0,362.0
2022-02-03-17:41:15.379005,11.0,20.0,361.0
2022-02-03-17:41:15.379005,11.0,20.0,361.0
2022-02-03-17:41:15.380030,11.0,20.0,361.0
2022-02-03-17:41:15.381203,11.0,20.0,361.0
2022-02-03-17:41:15.381203,8.0,38.0,361.0
2022-02-03-17:41:15.382236,4.0,29.0,362.0
2022-02-03-17:41:15.383234,0.0,22.0,362.0
2022-02-03-17:41:15.384197,0.0,22.0,362.0
2022-02-03-17:41:15.385195,0.0,22.0,362.0
2022-02-03-17:41:15.386224,4.0,13.0,361.0
2022-02-03-17:41:15.387221,4.0,9.0,361.0
2022-02-03-17:41:15.388224,7.0,13.0,362.0
2022-02-03-17:41:15.389184,7.0,13.0,362.0
2022-02-03-17:41:15.390216,11.0,8.0,361.0
2022-02-03-17:41:15.391212,1.0,22.0,362.0
2022-02-03-17:41:15.392200,9.0,27.0,361.0
2022-02-03-17:41:15.394200,9.0,27.0,361.0
2022-02-03-17:41:15.394200,29.0,34.0,362.0
2022-02-03-17:41:15.395191,29.0,9.0,362.0
2022-02-03-17:41:15.396197,17.0,16.0,361.0
2022-02-03-17:41:15.397186,17.0,16.0,361.0
2022-02-03-17:41:15.398184,17.0,16.0,361.0
2022-02-03-17:41:15.399184,2.0,29.0,362.0
2022-02-03-17:41:15.400178,4.0,24.0,362.0
2022-02-03-17:41:15.401152,4.0,24.0,362.0
2022-02-03-17:41:15.402173,4.0,24.0,362.0
2022-02-03-17:41:15.403170,4.0,16.0,361.0
2022-02-03-17:41:15.404167,3.0,10.0,362.0
2022-02-03-17:41:15.405165,6.0,9.0,362.0
2022-02-03-17:41:15.406162,6.0,9.0,362.0
2022-02-03-17:41:15.407162,12.0,12.0,361.0
2022-02-03-17:41:15.408157,2.0,24.0,361.0
2022-02-03-17:41:15.409155,12.0,32.0,362.0
2022-02-03-17:41:15.410152,12.0,32.0,362.0
2022-02-03-17:41:15.411149,14.0,32.0,362.0
2022-02-03-17:41:15.412146,30.0,15.0,361.0
2022-02-03-17:41:15.413144,24.0,7.0,361.0
2022-02-03-17:41:15.414141,24.0,7.0,361.0
2022-02-03-17:41:15.415142,12.0,31.0,361.0
2022-02-03-17:41:15.416136,4.0,26.0,360.0
2022-02-03-17:41:15.417133,2.0,18.0,360.0
2022-02-03-17:41:15.418131,2.0,18.0,360.0
2022-02-03-17:41:15.419128,1.0,23.0,361.0
2022-02-03-17:41:15.420125,2.0,15.0,360.0
2022-02-03-17:41:15.421122,0.0,13.0,359.0
2022-02-03-17:41:15.422096,0.0,13.0,359.0
2022-02-03-17:41:15.423119,15.0,15.0,360.0
2022-02-03-17:41:15.424114,5.0,34.0,358.0
2022-02-03-17:41:15.425113,5.0,34.0,358.0
2022-02-03-17:41:15.426085,5.0,34.0,358.0
2022-02-03-17:41:15.428103,30.0,23.0,358.0
2022-02-03-17:41:15.428103,26.0,7.0,358.0
2022-02-03-17:41:15.429101,26.0,7.0,358.0
2022-02-03-17:41:15.430098,26.0,7.0,358.0
2022-02-03-17:41:15.431098,2.0,30.0,358.0
2022-02-03-17:41:15.432094,1.0,27.0,358.0
2022-02-03-17:41:15.433093,1.0,27.0,358.0
2022-02-03-17:41:15.434077,1.0,27.0,358.0
2022-02-03-17:41:15.435061,1.0,27.0,358.0
2022-02-03-17:41:15.436082,1.0,20.0,357.0
2022-02-03-17:41:15.437080,2.0,10.0,357.0
2022-02-03-17:41:15.438077,2.0,10.0,357.0
2022-02-03-17:41:15.439076,2.0,10.0,357.0
2022-02-03-17:41:15.440072,9.0,16.0,357.0
2022-02-03-17:41:15.441069,8.0,16.0,356.0
2022-02-03-17:41:15.442067,4.0,33.0,356.0
2022-02-03-17:41:15.443737,4.0,33.0,356.0
2022-02-03-17:41:15.443737,28.0,7.0,355.0
2022-02-03-17:41:15.444761,28.0,7.0,355.0
2022-02-03-17:41:15.445761,28.0,7.0,355.0
2022-02-03-17:41:15.446807,28.0,7.0,355.0
2022-02-03-17:41:15.446807,17.0,16.0,354.0
2022-02-03-17:41:15.447834,10.0,33.0,355.0
2022-02-03-17:41:15.448140,3.0,32.0,354.0
2022-02-03-17:41:15.448140,3.0,32.0,354.0
2022-02-03-17:41:15.449168,3.0,32.0,354.0
2022-02-03-17:41:15.450160,3.0,32.0,354.0
2022-02-03-17:41:15.451160,3.0,32.0,354.0
2022-02-03-17:41:15.452155,4.0,19.0,353.0
2022-02-03-17:41:15.453155,0.0,14.0,353.0
2022-02-03-17:41:15.454151,0.0,14.0,353.0
2022-02-03-17:41:15.455147,0.0,14.0,353.0
2022-02-03-17:41:15.456147,6.0,13.0,352.0
2022-02-03-17:41:15.457190,15.0,17.0,352.0
2022-02-03-17:41:15.457489,1.0,21.0,352.0
2022-02-03-17:41:15.457489,1.0,21.0,352.0
2022-02-03-17:41:15.458513,1.0,21.0,352.0
2022-02-03-17:41:15.459512,1.0,21.0,352.0
2022-02-03-17:41:15.460508,7.0,38.0,352.0
2022-02-03-17:41:15.462504,32.0,15.0,351.0
2022-02-03-17:41:15.462504,32.0,15.0,351.0
2022-02-03-17:41:15.463755,22.0,8.0,350.0
2022-02-03-17:41:15.463755,2.0,29.0,350.0
2022-02-03-17:41:15.464784,3.0,21.0,350.0
2022-02-03-17:41:15.465777,3.0,21.0,350.0
2022-02-03-17:41:15.466776,3.0,21.0,350.0
2022-02-03-17:41:15.467748,3.0,21.0,350.0
2022-02-03-17:41:15.468770,3.0,28.0,350.0
2022-02-03-17:41:15.469765,1.0,15.0,349.0
2022-02-03-17:41:15.470763,2.0,28.0,349.0
2022-02-03-17:41:15.471762,2.0,28.0,349.0
2022-02-03-17:41:15.472760,2.0,22.0,349.0
2022-02-03-17:41:15.473761,9.0,7.0,348.0
2022-02-03-17:41:15.474759,4.0,12.0,348.0
2022-02-03-17:41:15.475749,4.0,12.0,348.0
2022-02-03-17:41:15.476749,10.0,30.0,348.0
2022-02-03-17:41:15.477744,27.0,37.0,347.0
2022-02-03-17:41:15.478742,27.0,37.0,347.0
2022-02-03-17:41:15.479741,27.0,37.0,347.0
2022-02-03-17:41:15.480738,26.0,17.0,348.0
2022-02-03-17:41:15.481710,5.0,31.0,346.0
2022-02-03-17:41:15.482737,2.0,36.0,346.0
2022-02-03-17:41:15.483728,2.0,36.0,346.0
2022-02-03-17:41:15.484729,1.0,23.0,345.0
2022-02-03-17:41:15.485723,1.0,23.0,345.0
2022-02-03-17:41:15.486721,1.0,23.0,345.0
2022-02-03-17:41:15.487694,1.0,23.0,345.0
2022-02-03-17:41:15.488715,0.0,10.0,346.0
2022-02-03-17:41:15.489713,13.0,10.0,345.0
2022-02-03-17:41:15.490712,5.0,9.0,345.0
2022-02-03-17:41:15.491683,5.0,9.0,345.0
2022-02-03-17:41:15.492706,3.0,30.0,345.0
2022-02-03-17:41:15.493701,19.0,31.0,344.0
2022-02-03-17:41:15.494699,26.0,29.0,344.0
2022-02-03-17:41:15.495673,26.0,29.0,344.0
2022-02-03-17:41:15.497691,25.0,8.0,343.0
2022-02-03-17:41:15.497691,2.0,35.0,343.0
2022-02-03-17:41:15.498696,2.0,35.0,343.0
2022-02-03-17:41:15.499685,2.0,35.0,343.0
2022-02-03-17:41:15.500659,2.0,35.0,343.0
2022-02-03-17:41:15.501681,2.0,21.0,342.0
2022-02-03-17:41:15.502681,1.0,19.0,342.0
2022-02-03-17:41:15.503677,1.0,19.0,342.0
2022-02-03-17:41:15.504673,1.0,19.0,342.0
2022-02-03-17:41:15.505669,10.0,8.0,341.0
2022-02-03-17:41:15.506669,8.0,1.0,341.0
2022-02-03-17:41:15.507664,8.0,1.0,341.0
2022-02-03-17:41:15.508664,8.0,1.0,341.0
2022-02-03-17:41:15.509659,20.0,38.0,341.0
2022-02-03-17:41:15.510656,26.0,33.0,340.0
2022-02-03-17:41:15.511655,26.0,33.0,340.0
2022-02-03-17:41:15.512651,26.0,33.0,340.0
2022-02-03-17:41:15.513648,25.0,2.0,341.0
2022-02-03-17:41:15.514745,9.0,30.0,340.0
2022-02-03-17:41:15.514745,9.0,30.0,340.0
2022-02-03-17:41:15.515769,9.0,30.0,340.0
2022-02-03-17:41:15.516941,9.0,30.0,340.0
2022-02-03-17:41:15.516941,1.0,33.0,340.0
2022-02-03-17:41:15.517968,1.0,30.0,339.0
2022-02-03-17:41:15.518962,0.0,19.0,339.0
2022-02-03-17:41:15.519960,0.0,19.0,339.0
2022-02-03-17:41:15.520963,0.0,19.0,339.0
2022-02-03-17:41:15.521954,2.0,14.0,339.0
2022-02-03-17:41:15.522952,12.0,22.0,338.0
2022-02-03-17:41:15.523950,8.0,5.0,337.0
2022-02-03-17:41:15.524946,8.0,5.0,337.0
2022-02-03-17:41:15.525946,4.0,12.0,338.0
2022-02-03-17:41:15.526945,30.0,31.0,337.0
2022-02-03-17:41:15.527938,30.0,31.0,337.0
2022-02-03-17:41:15.528936,30.0,31.0,337.0
2022-02-03-17:41:15.530930,3.0,33.0,336.0
2022-02-03-17:41:15.530930,3.0,33.0,336.0
2022-02-03-17:41:15.531903,3.0,33.0,336.0
2022-02-03-17:41:15.532925,3.0,33.0,336.0
2022-02-03-17:41:15.533925,3.0,33.0,336.0
2022-02-03-17:41:15.534910,1.0,22.0,335.0
2022-02-03-17:41:15.535916,1.0,17.0,334.0
2022-02-03-17:41:15.536915,1.0,17.0,334.0
2022-02-03-17:41:15.537911,1.0,7.0,335.0
2022-02-03-17:41:15.538908,13.0,13.0,335.0
2022-02-03-17:41:15.539907,7.0,7.0,334.0
2022-02-03-17:41:15.540879,7.0,7.0,334.0
2022-02-03-17:41:15.541903,5.0,29.0,334.0
2022-02-03-17:41:15.543030,18.0,32.0,334.0
2022-02-03-17:41:15.543274,29.0,29.0,333.0
2022-02-03-17:41:15.543274,29.0,29.0,333.0
2022-02-03-17:41:15.544309,29.0,29.0,333.0
2022-02-03-17:41:15.545472,29.0,29.0,333.0
2022-02-03-17:41:15.545472,7.0,27.0,332.0
2022-02-03-17:41:15.546496,7.0,27.0,332.0
2022-02-03-17:41:15.547495,0.0,31.0,332.0
2022-02-03-17:41:15.548490,0.0,31.0,332.0
2022-02-03-17:41:15.549487,0.0,31.0,332.0
2022-02-03-17:41:15.550488,1.0,27.0,332.0
2022-02-03-17:41:15.551482,0.0,23.0,332.0
2022-02-03-17:41:15.552482,3.0,18.0,331.0
2022-02-03-17:41:15.553477,3.0,18.0,331.0
2022-02-03-17:41:15.554475,4.0,12.0,331.0
2022-02-03-17:41:15.555454,4.0,14.0,331.0
2022-02-03-17:41:15.556469,15.0,25.0,330.0
2022-02-03-17:41:15.557466,9.0,6.0,331.0
2022-02-03-17:41:15.558467,4.0,27.0,330.0
2022-02-03-17:41:15.559541,23.0,38.0,330.0
2022-02-03-17:41:15.559541,23.0,38.0,330.0
2022-02-03-17:41:15.560573,23.0,38.0,330.0
2022-02-03-17:41:15.561570,23.0,38.0,330.0
2022-02-03-17:41:15.562783,26.0,25.0,330.0
2022-02-03-17:41:15.562783,28.0,5.0,329.0
2022-02-03-17:41:15.564803,6.0,36.0,329.0
2022-02-03-17:41:15.564803,6.0,36.0,329.0
2022-02-03-17:41:15.565805,2.0,32.0,329.0
2022-02-03-17:41:15.566798,0.0,24.0,327.0
2022-02-03-17:41:15.567806,4.0,25.0,327.0
2022-02-03-17:41:15.568793,4.0,25.0,327.0
2022-02-03-17:41:15.569791,4.0,25.0,327.0
2022-02-03-17:41:15.570792,4.0,25.0,327.0
2022-02-03-17:41:15.571785,6.0,28.0,327.0
2022-02-03-17:41:15.572783,10.0,4.0,327.0
2022-02-03-17:41:15.573779,10.0,4.0,327.0
2022-02-03-17:41:15.574777,5.0,5.0,327.0
2022-02-03-17:41:15.575780,14.0,38.0,326.0
2022-02-03-17:41:15.576772,17.0,40.0,325.0
2022-02-03-17:41:15.577745,17.0,40.0,325.0
2022-02-03-17:41:15.578769,28.0,40.0,325.0
2022-02-03-17:41:15.579764,16.0,21.0,325.0
2022-02-03-17:41:15.580763,9.0,29.0,325.0
