# 
# 
# 
# 
# 
# 
# 
# 
# 
# 
# time,realtime,ref,inp,inp0,inp1,dis,state...
0.000000000000000000e+00,1.643392376285851002e+09,-0.000000000000000000e+00,-1.361799772246531995e-02,8.012557043907838628e-01,-2.852425650935483947e-01,-0.000000000000000000e+00,0.000000000000000000e+00,0.000000000000000000e+00
1.666666666666666644e-02,1.643392376287866831e+09,-2.775066791840610147e-06,-3.475705098217696937e-02,1.101296208332003257e+00,-4.134414707535703504e-01,0.000000000000000000e+00,-4.800661224425490479e-06,-5.744835218118573769e-04
3.333333333333333287e-02,1.643392376288816929e+09,-1.102979831570291005e-05,-1.361799772246531995e-02,8.012557043907838628e-01,-2.852425650935483947e-01,-2.206953967052913926e-05,-1.618001153351990830e-05,-7.904386258716937421e-04
5.000000000000000278e-02,1.643392376306814909e+09,-2.465770011267145130e-05,-3.608092315121985000e-02,7.114040026757657564e-01,-2.852425650935483947e-01,-9.410389500094621545e-05,-3.424132563989040507e-05,-1.375294429202336428e-03
6.666666666666666574e-02,1.643392376323139429e+09,-4.354858521338314151e-05,7.620357870157005997e-02,1.064392830841907056e+00,-2.531928386785423091e-01,-2.241069114426098472e-04,-4.647862055191550169e-05,-9.673260445485377251e-05
8.333333333333332871e-02,1.643392376340447426e+09,-6.758497937871917798e-05,5.858426258424534461e-02,1.090064745617626452e+00,-2.852425650935483947e-01,-4.189368712703131275e-04,-4.004364606027087647e-05,8.662545162697521048e-04
1.000000000000000056e-01,1.643392376357496500e+09,-9.663828845901796213e-05,5.654851895140985962e-02,9.857725918412663102e-01,-2.531928386785423091e-01,-6.841128928631049150e-04,-1.800969865559572802e-05,1.775294003174189388e-03
1.166666666666666685e-01,1.643392376373951674e+09,-1.305648725077065248e-04,7.697570074732799916e-02,9.713321397799241641e-01,-2.211431122635373892e-01,-1.023640574077647105e-03,2.182386668612121722e-05,3.001328107386644871e-03
1.333333333333333315e-01,1.643392376389935493e+09,-1.692021748001812170e-04,1.082042075715975923e-02,8.028601990642658670e-01,-2.531928386785423091e-01,-1.439859857052283457e-03,7.272710462561597471e-05,3.106767551115607873e-03
1.499999999999999944e-01,1.643392376408893108e+09,-2.123650544980587118e-04,3.726445757863721536e-02,8.124871671051610011e-01,-2.211431122635373892e-01,-1.933317807446571779e-03,1.289574101809463295e-04,3.639389575080121363e-03
1.666666666666666574e-01,1.643392376424818277e+09,-2.598424693387369660e-04,3.565996290515466988e-02,8.060691884112308747e-01,-2.211431122635373892e-01,-2.502668679339375979e-03,1.936909308178919997e-04,4.127277624873430285e-03
1.833333333333333204e-01,1.643392376441668034e+09,-3.113946494440260034e-04,1.199366647128839898e-02,7.114040026757657564e-01,-2.211431122635373892e-01,-3.144603281600389429e-03,2.631310666106963410e-04,4.205321875575426110e-03
2.000000000000000111e-01,1.643392376458734989e+09,-3.667508951999933950e-04,-1.284587567670647176e-02,7.081950133288009708e-01,-2.531928386785423091e-01,-3.853809276753450159e-03,3.303323545627308679e-04,3.859792505065726131e-03
2.166666666666666741e-01,1.643392376478070021e+09,-4.256081212798666917e-04,-6.458022273759772558e-03,6.375972476955731327e-01,-2.211431122635373892e-01,-4.622963633772314909e-03,3.925986018777935602e-04,3.612843159291795163e-03
2.333333333333333370e-01,1.643392376492631912e+09,-4.876302554243204935e-04,3.964107429787850495e-02,7.258444547371079025e-01,-1.890933858485313035e-01,-5.442758026815340544e-03,4.570371353401246682e-04,4.118376563680517174e-03
2.500000000000000000e-01,1.643392376509635448e+09,-5.524485847625858811e-04,1.560377948662392857e-02,7.258444547371079025e-01,-2.211431122635373892e-01,-6.301957527800925753e-03,5.263926847991669006e-04,4.204051380201858160e-03
2.666666666666666630e-01,1.643392376525791883e+09,-6.196631244971581402e-04,3.570069435505597664e-03,6.777096145326345633e-01,-2.211431122635373892e-01,-7.187492487340453769e-03,5.953799018512878150e-04,4.074773778952489600e-03
2.833333333333333259e-01,1.643392376544768572e+09,-6.888450639642092503e-04,2.803861320611306454e-02,7.755837896150644672e-01,-2.211431122635373892e-01,-8.084583041411646034e-03,6.654860489824537990e-04,4.337234801233013672e-03
2.999999999999999889e-01,1.643392376562243223e+09,-7.595403237332122841e-04,-2.728632773804859010e-02,6.504332050834324974e-01,-2.531928386785423091e-01,-8.976895225884335902e-03,7.321655401846871363e-04,3.666168260631898039e-03
3.166666666666666519e-01,1.643392376579282045e+09,-8.312742348628023937e-04,-1.658573341976530557e-01,0.000000000000000000e+00,-2.211431122635373892e-01,-9.846727233229598392e-03,7.684936389029825782e-04,7.014391380655588676e-04
3.333333333333333148e-01,1.643392376595638514e+09,-9.035573280484666828e-04,-1.658573341976530557e-01,0.000000000000000000e+00,-2.211431122635373892e-01,-1.067522391103068943e-02,7.557046430696950966e-04,-2.227981167912549288e-03
3.499999999999999778e-01,1.643392376613586664e+09,-9.758921965621116532e-04,-1.658573341976530557e-01,0.000000000000000000e+00,-2.211431122635373892e-01,-1.144261718573518112e-02,6.943905957224545721e-04,-5.121666310288446392e-03
3.666666666666666408e-01,1.643392376629273415e+09,-1.047781372987092183e-03,5.174564108988034296e-03,6.841275932265643567e-01,-2.211431122635373892e-01,-1.212848970273189622e-02,6.087764179845049726e-04,-5.151950892446227788e-03
3.833333333333333037e-01,1.643392376646314144e+09,-1.118736136194422226e-03,9.988048129435420086e-03,7.033815293083538478e-01,-2.211431122635373892e-01,-1.271205861035543810e-02,5.232459181181802052e-04,-5.111820567261903675e-03
4.000000000000000222e-01,1.643392376662970066e+09,-1.188286142187209692e-03,-1.568386664628392338e-02,6.006938702054764878e-01,-2.211431122635373892e-01,-1.317247608556980538e-02,4.347693034146091901e-04,-5.504282998089228551e-03
4.166666666666666852e-01,1.643392376682916403e+09,-1.255989750755865135e-03,-1.658573341976530557e-01,0.000000000000000000e+00,-2.211431122635373892e-01,-1.348914290726376669e-02,3.190200828541733293e-04,-8.377641729277405733e-03
4.333333333333333481e-01,1.643392376698848963e+09,-1.321444899720450230e-03,-1.898946290089067179e-01,0.000000000000000000e+00,-2.531928386785423091e-01,-1.364203113329895412e-02,1.524372596976279358e-04,-1.160333657515762174e-02
4.500000000000000111e-01,1.643392376714805365e+09,-1.384300360255700689e-03,-1.658573341976530557e-01,0.000000000000000000e+00,-2.211431122635373892e-01,-1.361201173323067087e-02,-6.413742019418166782e-05,-1.437791766078054014e-02
4.666666666666666741e-01,1.643392376731787443e+09,-1.444267190743270301e-03,-1.658573341976530557e-01,0.000000000000000000e+00,-2.211431122635373892e-01,-1.338118287301418019e-02,-3.265400094583742431e-04,-1.710282368936080072e-02
4.833333333333333370e-01,1.643392376748741150e+09,-1.501130193091192817e-03,-1.658573341976530557e-01,0.000000000000000000e+00,-2.211431122635373892e-01,-1.293319444352332079e-02,-6.339194574331727611e-04,-1.977528638540560629e-02
5.000000000000000000e-01,1.643392376766696453e+09,-1.554759164786111147e-03,-1.658573341976530557e-01,0.000000000000000000e+00,-2.211431122635373892e-01,-1.225356437328242384e-02,-9.853769576165741922e-04,-2.239234386140446370e-02
5.166666666666666075e-01,1.643392376783646107e+09,-1.605119732345322309e-03,-1.658573341976530557e-01,0.000000000000000000e+00,-2.211431122635373892e-01,-1.132998226878763337e-02,-1.379963047494421700e-03,-2.495087971263396098e-02
5.333333333333333259e-01,1.643392376800576687e+09,-1.652283547517746903e-03,-1.898946290089067179e-01,0.000000000000000000e+00,-2.531928386785423091e-01,-1.015259598389558864e-02,-1.819995437283116867e-03,-2.784496773939196951e-02
5.500000000000000444e-01,1.643392376818527937e+09,-1.696437626704120098e-03,-1.658573341976530557e-01,0.000000000000000000e+00,-2.211431122635373892e-01,-8.714276833080399770e-03,-2.304344190123418148e-03,-3.027014583706389220e-02
5.666666666666666519e-01,1.643392376836481571e+09,-1.737892616738030216e-03,-1.898946290089067179e-01,0.000000000000000000e+00,-2.531928386785423091e-01,-7.010859331360999765e-03,-2.831862377393927835e-03,-3.302438578879784287e-02
5.833333333333333703e-01,1.643392376853435755e+09,-1.777089776450523810e-03,-1.898946290089067179e-01,0.000000000000000000e+00,-2.531928386785423091e-01,-5.041351565199092728e-03,-3.404632117468193477e-03,-3.570054905829200820e-02
5.999999999999999778e-01,1.643392376871387959e+09,-1.814606473339355850e-03,-1.898946290089067179e-01,0.000000000000000000e+00,-2.531928386785423091e-01,-2.808112571853206042e-03,-4.021326489610501861e-03,-3.829556704582903065e-02
6.166666666666666963e-01,1.643392376888342857e+09,-1.851160008133711284e-03,-1.898946290089067179e-01,0.000000000000000000e+00,-2.531928386785423091e-01,-3.169934271174617386e-04,-4.680568661746548585e-03,-4.080651858096005086e-02
6.333333333333333037e-01,1.643392376906293154e+09,-1.887609596986521360e-03,-2.139319238201612960e-01,0.000000000000000000e+00,-2.852425650935483947e-01,2.422560889949788160e-03,-5.384254866799869504e-03,-4.362798842474358701e-02
6.500000000000000222e-01,1.643392376923247814e+09,-1.924956361286600266e-03,-1.898946290089067179e-01,0.000000000000000000e+00,-2.531928386785423091e-01,5.397451375381627850e-03,-6.130844929915446606e-03,-4.595635132218676283e-02
6.666666666666666297e-01,1.643392376941324234e+09,-1.964341198456624488e-03,-1.898946290089067179e-01,0.000000000000000000e+00,-2.531928386785423091e-01,8.590908691985178758e-03,-6.915478364758550697e-03,-4.819344655929234944e-02
6.833333333333333481e-01,1.643392376955325127e+09,-2.007040433335713532e-03,-1.898946290089067179e-01,0.000000000000000000e+00,-2.531928386785423091e-01,1.198252226086451988e-02,-7.736619280151234811e-03,-5.033750742303370190e-02
6.999999999999999556e-01,1.643392376971257687e+09,-2.054459178534273536e-03,-1.898946290089067179e-01,0.000000000000000000e+00,-2.531928386785423091e-01,1.554831582675072522e-02,-8.592705895330067858e-03,-5.238719269422413560e-02
7.166666666666666741e-01,1.643392376990233183e+09,-2.108122363147907612e-03,-1.898946290089067179e-01,0.000000000000000000e+00,-2.531928386785423091e-01,1.926087003519805912e-02,-9.482158048303289399e-03,-5.434163652414605861e-02
7.333333333333332815e-01,1.643392377007185459e+09,-2.169663422039451190e-03,-1.898946290089067179e-01,0.000000000000000000e+00,-2.531928386785423091e-01,2.308949200625955503e-02,-1.040338550517452831e-02,-5.620049468398560788e-02
7.500000000000000000e-01,1.643392377024141788e+09,-2.240810672122219623e-03,-1.898946290089067179e-01,0.000000000000000000e+00,-2.531928386785423091e-01,2.700043132434727308e-02,-1.135479700406981200e-02,-5.796398647983298097e-02
7.666666666666666075e-01,1.643392377041095018e+09,-2.323371437250668688e-03,-1.898946290089067179e-01,0.000000000000000000e+00,-2.531928386785423091e-01,3.095714129393443981e-02,-1.233480995577382680e-02,-5.963293165671183782e-02
7.833333333333333259e-01,1.643392377056948900e+09,-2.419214018970387587e-03,-1.898946290089067179e-01,0.000000000000000000e+00,-2.531928386785423091e-01,3.492058374201655047e-02,-1.334186071223666427e-02,-6.120878165469716831e-02
8.000000000000000444e-01,1.643392377074159861e+09,-2.530247646002247146e-03,-1.898946290089067179e-01,0.000000000000000000e+00,-2.531928386785423091e-01,3.884957508736318343e-02,-1.437441530389949214e-02,-6.269364462839339958e-02
8.166666666666666519e-01,1.643392377090507507e+09,-2.658400570428119235e-03,-1.898946290089067179e-01,0.000000000000000000e+00,-2.531928386785423091e-01,4.270117085010933372e-02,-1.543098053744717396e-02,-6.409030369749234290e-02
8.333333333333333703e-01,1.643392377109528065e+09,-2.805596512595356831e-03,-1.898946290089067179e-01,0.000000000000000000e+00,-2.531928386785423091e-01,4.643108524964364298e-02,-1.651011533726100614e-02,-6.540222796033288988e-02
8.499999999999999778e-01,1.643392377123305082e+09,-2.973729689252517516e-03,-1.898946290089067179e-01,0.000000000000000000e+00,-2.531928386785423091e-01,4.999414204040918824e-02,-1.761044220663991397e-02,-6.663357587376227131e-02
8.666666666666666963e-01,1.643392377141743660e+09,-3.164638689867453961e-03,-1.898946290089067179e-01,0.000000000000000000e+00,-2.531928386785423091e-01,5.334475227028782907e-02,-1.873065867889762634e-02,-6.778919068048154528e-02
8.833333333333333037e-01,1.643392377158697844e+09,-3.380079493972990359e-03,-1.898946290089067179e-01,0.000000000000000000e+00,-2.531928386785423091e-01,5.643741422057667323e-02,-1.986954862382854861e-02,-6.887458764868946426e-02
9.000000000000000222e-01,1.643392377176599503e+09,-3.621697947270645281e-03,-1.898946290089067179e-01,0.000000000000000000e+00,-2.531928386785423091e-01,5.922723040570912478e-02,-2.102599327185524294e-02,-6.989593297738272426e-02
9.166666666666666297e-01,1.643392377193268299e+09,-3.891002035663203903e-03,-1.898946290089067179e-01,0.000000000000000000e+00,-2.531928386785423091e-01,6.167043617996430249e-02,-2.219898181649977362e-02,-7.086001431322057342e-02
9.333333333333333481e-01,1.643392377212538958e+09,-4.189334313982327404e-03,-2.139319238201612960e-01,0.000000000000000000e+00,-2.852425650935483947e-01,6.372493422209542235e-02,-2.339094149887164728e-02,-7.217150445748313214e-02
9.499999999999999556e-01,1.643392377228496313e+09,-4.517844859569566593e-03,-1.898946290089067179e-01,0.000000000000000000e+00,-2.531928386785423091e-01,6.535082895123695002e-02,-2.460103359409692922e-02,-7.303714236321900977e-02
9.666666666666666741e-01,1.643392377246758938e+09,-4.877465129746866995e-03,-1.898946290089067179e-01,0.000000000000000000e+00,-2.531928386785423091e-01,6.651095477216839580e-02,-2.582527318825441828e-02,-7.386929733967383116e-02
9.833333333333332815e-01,1.643392377262717485e+09,-5.268883106317183602e-03,-1.898946290089067179e-01,0.000000000000000000e+00,-2.531928386785423091e-01,6.717139195796177631e-02,-2.706317587444527842e-02,-7.467678193766538741e-02
1.000000000000000000e+00,1.643392377282638311e+09,-5.692520109366613380e-03,-1.898946290089067179e-01,0.000000000000000000e+00,-2.531928386785423091e-01,6.730196395548598831e-02,-2.831440707242429550e-02,-7.546876182391004662e-02
1.016666666666666607e+00,1.643392377298622131e+09,-6.148509656654247389e-03,-1.898946290089067179e-01,0.000000000000000000e+00,-2.531928386785423091e-01,6.687670994575153904e-02,-2.957878728281300787e-02,-7.625468026457392356e-02
1.033333333333333215e+00,1.643392377315551519e+09,-6.636678733700478866e-03,-1.898946290089067179e-01,0.000000000000000000e+00,-2.531928386785423091e-01,6.587432660750719426e-02,-3.085629603211911473e-02,-7.704417655529113840e-02
1.050000000000000044e+00,1.643392377333528996e+09,-7.156531823306951090e-03,-1.898946290089067179e-01,0.000000000000000000e+00,-2.531928386785423091e-01,6.427857321893279408e-02,-3.214707441356982887e-02,-7.784699910367331999e-02
1.066666666666666652e+00,1.643392377349488735e+09,-7.707238021721001670e-03,-1.898946290089067179e-01,0.000000000000000000e+00,-2.531928386785423091e-01,6.207863448806283380e-02,-3.345142614121116020e-02,-7.867291395137938903e-02
1.083333333333333259e+00,1.643392377367445230e+09,-8.287621542121228341e-03,-1.898946290089067179e-01,0.000000000000000000e+00,-2.531928386785423091e-01,5.926943582629633223e-02,-3.476981704846425492e-02,-7.953160959716980283e-02
1.100000000000000089e+00,1.643392377385562897e+09,-8.896155874743334399e-03,-1.898946290089067179e-01,0.000000000000000000e+00,-2.531928386785423091e-01,5.585190616881790387e-02,-3.610287297724433520e-02,-8.043259904905786239e-02
1.116666666666666696e+00,1.643392377402517319e+09,-9.530961837051602631e-03,-1.898946290089067179e-01,0.000000000000000000e+00,-2.531928386785423091e-01,5.183318389805906257e-02,-3.745137601970181807e-02,-8.138512009178117124e-02
1.133333333333333304e+00,1.643392377419426441e+09,-1.018980970721857816e-02,-1.898946290089067179e-01,0.000000000000000000e+00,-2.531928386785423091e-01,4.722676193779771353e-02,-3.881625909148928022e-02,-8.239803480451218798e-02
1.149999999999999911e+00,1.643392377434410095e+09,-1.087012559019621266e-02,-1.898946290089067179e-01,0.000000000000000000e+00,-2.531928386785423091e-01,4.205256865178843423e-02,-4.019859883302849546e-02,-8.347972940225828475e-02
1.166666666666666741e+00,1.643392377453358889e+09,-1.156900211829725578e-02,-1.898946290089067179e-01,0.000000000000000000e+00,-2.531928386785423091e-01,3.633698179691077085e-02,-4.159960685337420888e-02,-8.463801550211250135e-02
1.183333333333333348e+00,1.643392377470423222e+09,-1.228321353796124789e-02,-1.898946290089067179e-01,0.000000000000000000e+00,-2.531928386785423091e-01,3.011277344107996315e-02,-4.302061934976057073e-02,-8.588003393185658640e-02
1.199999999999999956e+00,1.643392377487828016e+09,-1.300923518181063172e-02,-1.898946290089067179e-01,0.000000000000000000e+00,-2.531928386785423091e-01,2.341898445437431975e-02,-4.446308515457893934e-02,-8.721216220294708554e-02
1.216666666666666563e+00,1.643392377504016876e+09,-1.374326727080802182e-02,-1.898946290089067179e-01,0.000000000000000000e+00,-2.531928386785423091e-01,1.630072791126111267e-02,-4.592855228017286157e-02,-8.863992676231392809e-02
1.233333333333333393e+00,1.643392377522963285e+09,-1.448126293594162624e-02,-1.898946290089067179e-01,0.000000000000000000e+00,-2.531928386785423091e-01,8.808921495277287003e-03,-4.741865305024324517e-02,-9.016792111747069793e-02
1.250000000000000000e+00,1.643392377540053129e+09,-1.521896029305660515e-02,-1.898946290089067179e-01,0.000000000000000000e+00,-2.531928386785423091e-01,9.999497674626689134e-04,-4.893508792462831353e-02,-9.179973089710970202e-02
1.266666666666666607e+00,1.643392377558396816e+09,-1.595191834890418228e-02,-1.898946290089067179e-01,0.000000000000000000e+00,-2.531928386785423091e-01,-7.064742061618820013e-03,-5.047960814155252884e-02,-9.353786686469424405e-02
1.283333333333333215e+00,1.643392377574354649e+09,-1.667555646189766705e-02,-1.898946290089067179e-01,0.000000000000000000e+00,-2.531928386785423091e-01,-1.531912043742033810e-02,-5.205399731792265811e-02,-9.538370684576290282e-02
1.300000000000000044e+00,1.643392377590673208e+09,-1.738519702815128840e-02,-1.898946290089067179e-01,0.000000000000000000e+00,-2.531928386785423091e-01,-2.369309865444102492e-02,-5.366005216368776448e-02,-9.733744746105359169e-02
1.316666666666666652e+00,1.643392377606798887e+09,-1.807611101283846528e-02,-1.898946290089067179e-01,0.000000000000000000e+00,-2.531928386785423091e-01,-3.211313099158139006e-02,-5.529956248048016609e-02,-9.939806647760265901e-02
1.333333333333333259e+00,1.643392377624748945e+09,-1.874356589942741819e-02,-1.898946290089067179e-01,0.000000000000000000e+00,-2.531928386785423091e-01,-4.050286111402932182e-02,-5.697429062753237711e-02,-1.015632964992660564e-01
1.350000000000000089e+00,1.643392377642018080e+09,-1.938287558560824672e-02,-1.898946290089067179e-01,0.000000000000000000e+00,-2.531928386785423091e-01,-4.878381936793578511e-02,-5.868595064904731651e-02,-1.038296106173651479e-01
1.366666666666666696e+00,1.643392377661108494e+09,-1.998945171535092269e-02,-1.898946290089067179e-01,0.000000000000000000e+00,-2.531928386785423091e-01,-5.687616293690881536e-02,-6.043618726662535606e-02,-1.061922205322173712e-01
1.383333333333333304e+00,1.643392377676153898e+09,-2.055885590213318848e-02,-1.898946290089067179e-01,0.000000000000000000e+00,-2.531928386785423091e-01,-6.469945222061088130e-02,-6.222655494787674574e-02,-1.086450875381246156e-01
1.399999999999999911e+00,1.643392377693370819e+09,-2.108685226950226047e-02,-1.898946290089067179e-01,0.000000000000000000e+00,-2.531928386785423091e-01,-7.217345624288531991e-02,-6.405849726784335063e-02,-1.111809466390211998e-01
1.416666666666666741e+00,1.643392377709305286e+09,-2.156945971228598630e-02,-1.898946290089067179e-01,0.000000000000000000e+00,-2.531928386785423091e-01,-7.921897940682212647e-02,-6.593332678320881768e-02,-1.137913439305845431e-01
1.433333333333333348e+00,1.643392377725670099e+09,-2.200300326538470741e-02,-1.898946290089067179e-01,0.000000000000000000e+00,-2.531928386785423091e-01,-8.575870149345442284e-02,-6.785220564040166102e-02,-1.164666872484310528e-01
1.449999999999999956e+00,1.643392377743732929e+09,-2.238416395752416618e-02,-1.898946290089067179e-01,0.000000000000000000e+00,-2.531928386785423091e-01,-9.171802245518292929e-02,-6.981612713752272104e-02,-1.191963099423781480e-01
1.466666666666666563e+00,1.643392377760784626e+09,-2.271002652492693993e-02,-1.898946290089067179e-01,0.000000000000000000e+00,-2.531928386785423091e-01,-9.702590328975606304e-02,-7.182589845651042582e-02,-1.219685474950348153e-01
1.483333333333333393e+00,1.643392377776769161e+09,-2.297812436478096146e-02,-1.898946290089067179e-01,0.000000000000000000e+00,-2.531928386785423091e-01,-1.016156941001235686e-01,-7.388212477607193629e-02,-1.247708265606238126e-01
1.500000000000000000e+00,1.643392377795717716e+09,-2.318648112077969364e-02,-1.898946290089067179e-01,0.000000000000000000e+00,-2.531928386785423091e-01,-1.054259403534030526e-01,-7.598519496765751557e-02,-1.275897658584100591e-01
1.516666666666666607e+00,1.643392377811956644e+09,-2.333364831292410874e-02,-1.898946290089067179e-01,0.000000000000000000e+00,-2.531928386785423091e-01,-1.084011583513749544e-01,-7.813526906616491408e-02,-1.304112882159073616e-01
1.533333333333333215e+00,1.643392377828313112e+09,-2.341873845116557856e-02,-1.898946290089067179e-01,0.000000000000000000e+00,-2.531928386785423091e-01,-1.104925710172923181e-01,-8.033226769418236324e-02,-1.332207429216598904e-01
1.550000000000000044e+00,1.643392377846750736e+09,-2.344145310719608979e-02,-1.898946290089067179e-01,0.000000000000000000e+00,-2.531928386785423091e-01,-1.116587952903860675e-01,-8.257586360348839749e-02,-1.360030374173420709e-01
1.566666666666666652e+00,1.643392377862802505e+09,-2.340210546052978041e-02,-1.898946290089067179e-01,0.000000000000000000e+00,-2.531928386785423091e-01,-1.118664727003461645e-01,-8.486547548032592758e-02,-1.387427772356587541e-01
1.583333333333333259e+00,1.643392377878928661e+09,-2.330163688365085445e-02,-1.898946290089067179e-01,0.000000000000000000e+00,-2.531928386785423091e-01,-1.110908350683878359e-01,-8.720026414178123908e-02,-1.414244129754916868e-01
1.600000000000000089e+00,1.643392377896194696e+09,-2.314162718601961780e-02,-1.898946290089067179e-01,0.000000000000000000e+00,-2.531928386785423091e-01,-1.093161977474286367e-01,-8.957913122957505969e-02,-1.440323930003034603e-01
1.616666666666666696e+00,1.643392377916141510e+09,-2.292429819764445209e-02,-1.898946290089067179e-01,0.000000000000000000e+00,-2.531928386785423091e-01,-1.065363733685759651e-01,-9.200072048488314169e-02,-1.465513204512867429e-01
1.633333333333333304e+00,1.643392377931101561e+09,-2.265251043916410162e-02,-1.898946290089067179e-01,0.000000000000000000e+00,-2.531928386785423091e-01,-1.027549997008384425e-01,-9.446342166364009307e-02,-1.489661130843588643e-01
1.649999999999999911e+00,1.643392377947059155e+09,-2.232975269630193410e-02,-1.898946290089067179e-01,0.000000000000000000e+00,-2.531928386785423091e-01,-9.798577595094613846e-02,-9.696537712635414086e-02,-1.512621643709756991e-01
1.666666666666666741e+00,1.643392377965010881e+09,-2.196012439142830050e-02,-1.898946290089067179e-01,0.000000000000000000e+00,-2.531928386785423091e-01,-9.225260262490767027e-02,-9.950449111000195246e-02,-1.534255042478914477e-01
1.683333333333333348e+00,1.643392377981965303e+09,-2.154831072302029749e-02,-1.898946290089067179e-01,0.000000000000000000e+00,-2.531928386785423091e-01,-8.558962093584063235e-02,-1.020784416623262553e-01,-1.554429578613129304e-01
1.699999999999999956e+00,1.643392377999917746e+09,-2.109955062421072641e-02,-1.898946290089067179e-01,0.000000000000000000e+00,-2.531928386785423091e-01,-7.804114866655960381e-02,-1.046846951910848783e-01,-1.573023006271454249e-01
1.716666666666666563e+00,1.643392378016872168e+09,-2.061959767348235315e-02,-1.898946290089067179e-01,0.000000000000000000e+00,-2.531928386785423091e-01,-6.966151037222020892e-02,-1.073205235527677215e-01,-1.589924079218147102e-01
1.733333333333333393e+00,1.643392378032829762e+09,-2.011467417297924803e-02,-1.898946290089067179e-01,0.000000000000000000e+00,-2.531928386785423091e-01,-6.051476082940999285e-02,-1.099830235772880499e-01,-1.605033977279329838e-01
1.750000000000000000e+00,1.643392378049784184e+09,-1.959141869193315941e-02,-1.898946290089067179e-01,0.000000000000000000e+00,-2.531928386785423091e-01,-5.067430169397606210e-02,-1.126691388974518232e-01,-1.618267645861505843e-01
1.766666666666666607e+00,1.643392378066738605e+09,-1.905682745337463138e-02,-1.418200393863984776e-01,0.000000000000000000e+00,-1.890933858485313035e-01,-4.022239241087574579e-02,-1.153690438385965716e-01,-1.621609001749604040e-01
1.783333333333333215e+00,1.643392378082695961e+09,-1.851819002066708297e-02,-9.374544976389022344e-02,0.000000000000000000e+00,-1.249939330185202979e-01,-2.924955751497740689e-02,-1.180663158955097825e-01,-1.615135449060283168e-01
1.800000000000000044e+00,1.643392378101645231e+09,-1.798301981549930290e-02,-2.163356533012830360e-02,0.000000000000000000e+00,-2.884475377350440711e-02,-1.785389356148495144e-02,-1.207413540067224372e-01,-1.594966311096758793e-01
1.816666666666666652e+00,1.643392378118600845e+09,-1.745898006987137152e-02,2.403729481126268882e-03,0.000000000000000000e+00,3.204972641501691987e-03,-6.140280017537954292e-03,-1.233781175318351270e-01,-1.569221434268367188e-01
1.833333333333333259e+00,1.643392378134557486e+09,-1.695380588040078240e-02,2.403729481126268882e-03,0.000000000000000000e+00,3.204972641501691987e-03,5.780500478467196467e-03,-1.259706820142736106e-01,-1.541931751117383287e-01
1.849999999999999867e+00,1.643392378153506517e+09,-1.647522309309052899e-02,2.403729481126268882e-03,0.000000000000000000e+00,3.204972641501691987e-03,1.779272603727974356e-02,-1.285164814833378855e-01,-1.513107680507006225e-01
1.866666666666666696e+00,1.643392378168466330e+09,-1.603086479973080472e-02,2.403729481126268882e-03,0.000000000000000000e+00,3.204972641501691987e-03,2.977677616033552396e-02,-1.310129837112370133e-01,-1.482779240621104611e-01
1.883333333333333304e+00,1.643392378185421228e+09,-1.562818627259500437e-02,2.644102429237994017e-02,0.000000000000000000e+00,3.525469905650659153e-02,4.161024068867811426e-02,-1.334544029500728535e-01,-1.447023170735903252e-01
1.899999999999999911e+00,1.643392378203397512e+09,-1.527437920135556182e-02,2.644102429237994017e-02,0.000000000000000000e+00,3.525469905650659153e-02,5.316908775170856721e-02,-1.358351260899975099e-01,-1.409947587329308527e-01
1.916666666666666741e+00,1.643392378220352888e+09,-1.497628612459786686e-02,2.644102429237994017e-02,0.000000000000000000e+00,3.525469905650659153e-02,6.432888058594833647e-02,-1.381530272845644669e-01,-1.371640257903917470e-01
1.933333333333333348e+00,1.643392378237318277e+09,-1.474031596742839470e-02,2.644102429237994017e-02,0.000000000000000000e+00,3.525469905650659153e-02,7.496603235292652323e-02,-1.404061428241248910e-01,-1.332207926400762188e-01
1.949999999999999956e+00,1.643392378255267620e+09,-1.457236160605612091e-02,2.644102429237994017e-02,0.000000000000000000e+00,3.525469905650659153e-02,8.495908743446498046e-02,-1.425927022067562111e-01,-1.291775647286641515e-01
1.966666666666666563e+00,1.643392378270227909e+09,-1.447772037956122394e-02,2.403729481126268882e-03,0.000000000000000000e+00,3.204972641501691987e-03,9.419001713136351817e-02,-1.447144779727247976e-01,-1.254458931858207504e-01
1.983333333333333393e+00,1.643392378286151648e+09,-1.446101845815474934e-02,2.403729481126268882e-03,0.000000000000000000e+00,3.204972641501691987e-03,1.025455172452941766e-01,-1.467734205674699199e-01,-1.216377964789686072e-01
2.000000000000000000e+00,1.643392378305696726e+09,-1.452613995599506824e-02,2.403729481126268882e-03,0.000000000000000000e+00,3.204972641501691987e-03,1.099182946902995950e-01,-1.487684025282852984e-01,-1.177707807819628055e-01
2.016666666666666607e+00,1.643392378320656776e+09,-1.467616164509295135e-02,2.403729481126268882e-03,0.000000000000000000e+00,3.204972641501691987e-03,1.162083300652738682e-01,-1.506985995587969696e-01,-1.138637160923444691e-01
2.033333333333333215e+00,1.643392378337878227e+09,-1.491329408515494961e-02,2.644102429237994017e-02,0.000000000000000000e+00,3.525469905650659153e-02,1.213241030268710774e-01,-1.525601918539387647e-01,-1.095393716752151442e-01
2.049999999999999822e+00,1.643392378355780602e+09,-1.523882993266377495e-02,2.644102429237994017e-02,0.000000000000000000e+00,3.525469905650659153e-02,1.251837673369402826e-01,-1.543497759239766676e-01,-1.052227077446885734e-01
2.066666666666666430e+00,1.643392378371737719e+09,-1.565310013144902840e-02,5.047831910363361624e-02,0.000000000000000000e+00,6.730442547151148369e-02,1.277162626222132502e-01,-1.560643419822827505e-01,-1.005382319909517153e-01
2.083333333333333481e+00,1.643392378390713453e+09,-1.615543861697873312e-02,5.047831910363361624e-02,0.000000000000000000e+00,6.730442547151148369e-02,1.288623501777467761e-01,-1.577013221686366928e-01,-9.591224064990809539e-02
2.100000000000000089e+00,1.643392378406071663e+09,-1.674415608820681300e-02,7.451561391488908948e-02,0.000000000000000000e+00,9.935415188651879059e-02,1.285755605694732240e-01,-1.592585610119093831e-01,-9.097014889856269715e-02
2.116666666666666696e+00,1.643392378423029661e+09,-1.741652331477152454e-02,5.047831910363361624e-02,0.000000000000000000e+00,6.730442547151148369e-02,1.268230413438272142e-01,-1.607376763654881358e-01,-8.653601087085960319e-02
2.133333333333333304e+00,1.643392378440976143e+09,-1.816876435447557434e-02,5.047831910363361624e-02,0.000000000000000000e+00,6.730442547151148369e-02,1.235862938312062009e-01,-1.621439489251435551e-01,-8.222866142895686459e-02
2.149999999999999911e+00,1.643392378457092285e+09,-1.899605995720383966e-02,5.047831910363361624e-02,0.000000000000000000e+00,6.730442547151148369e-02,1.188617888311344073e-01,-1.634796798116760763e-01,-7.807059541017820348e-02
2.166666666666666519e+00,1.643392378474519253e+09,-1.989256132774734273e-02,5.047831910363361624e-02,0.000000000000000000e+00,6.730442547151148369e-02,1.126614518853250452e-01,-1.647475403056816445e-01,-7.408373873302333268e-02
2.183333333333333126e+00,1.643392378491499186e+09,-2.085141431248070665e-02,9.855290872614276554e-02,0.000000000000000000e+00,1.314038783015236689e-01,1.050130098740655882e-01,-1.659439201753553084e-01,-6.949459355334618171e-02
2.200000000000000178e+00,1.643392378508452892e+09,-2.186479396460556945e-02,1.225902035373964277e-01,0.000000000000000000e+00,1.634536047165285888e-01,9.596019180394922687e-02,-1.670623784836521297e-01,-6.473362865602694249e-02
2.216666666666666785e+00,1.643392378525096893e+09,-2.292394933092796114e-02,1.466274983486501038e-01,0.000000000000000000e+00,1.955033311315334810e-01,8.556277788230698400e-02,-1.681002610166864586e-01,-5.982590818581001030e-02
2.233333333333333393e+00,1.643392378541183949e+09,-2.401925819109162336e-02,1.706647931599055701e-01,0.000000000000000000e+00,2.275530575465407879e-01,7.389649228604563969e-02,-1.690553173753850946e-01,-5.479483040301218189e-02
2.250000000000000000e+00,1.643392378559301376e+09,-2.514029136909530157e-02,1.706647931599055701e-01,0.000000000000000000e+00,2.275530575465407879e-01,6.105273641921653283e-02,-1.699289913186464718e-01,-5.005919763343209122e-02
2.266666666666666607e+00,1.643392378577199221e+09,-2.627588612804671042e-02,1.947020879711592600e-01,0.000000000000000000e+00,2.596027839615456800e-01,4.713816090292590605e-02,-1.707229939820026354e-01,-4.523452415550784089e-02
2.283333333333333215e+00,1.643392378594369411e+09,-2.741422805368931570e-02,2.187393827824129222e-01,0.000000000000000000e+00,2.916525103765505444e-01,3.227407604065674063e-02,-1.714359847986995644e-01,-4.033797569175975872e-02
2.299999999999999822e+00,1.643392378610610962e+09,-2.854294073153364197e-02,2.427766775936666122e-01,0.000000000000000000e+00,3.237022367915554644e-01,1.659570203854403986e-02,-1.720668882497380370e-01,-3.538419924685110018e-02
2.316666666666666430e+00,1.643392378626582623e+09,-2.964918242763198153e-02,2.427766775936666122e-01,0.000000000000000000e+00,3.237022367915554644e-01,2.512618198383564016e-04,-1.726181704803408101e-01,-3.078245135935657115e-02
2.333333333333333481e+00,1.643392378643505335e+09,-3.071974889530962316e-02,2.427766775936666122e-01,0.000000000000000000e+00,3.237022367915554644e-01,-1.659907915858498118e-02,-1.730957198860368085e-01,-2.653527531307587478e-02
2.350000000000000089e+00,1.643392378659512043e+09,-3.174118135061903406e-02,2.668139724049202743e-01,0.000000000000000000e+00,3.557519632065603843e-01,-3.378442011686573487e-02,-1.735021232510844391e-01,-2.224504607656067542e-02
2.366666666666666696e+00,1.643392378678437710e+09,-3.269987858892808158e-02,2.668139724049202743e-01,0.000000000000000000e+00,3.557519632065603843e-01,-5.112447167676800047e-02,-1.738400103806999608e-01,-1.831233393480927868e-02
2.383333333333333304e+00,1.643392378694395065e+09,-3.358221215483619265e-02,2.668139724049202743e-01,0.000000000000000000e+00,3.557519632065603843e-01,-6.843103308024285625e-02,-1.741152858870128051e-01,-1.473067610641846589e-02
2.399999999999999911e+00,1.643392378711324215e+09,-3.437464342837426995e-02,2.427766775936666122e-01,0.000000000000000000e+00,3.237022367915554644e-01,-8.550958942550693220e-02,-1.743370407384295662e-01,-1.188780311886569740e-02
2.416666666666666519e+00,1.643392378729324102e+09,-3.506384145291015220e-02,2.668139724049202743e-01,0.000000000000000000e+00,3.557519632065603843e-01,-1.021610170529894390e-01,-1.745107868927619210e-01,-8.969841042001162196e-03
2.433333333333333126e+00,1.643392378746048450e+09,-3.563680030496622214e-02,2.427766775936666122e-01,0.000000000000000000e+00,3.237022367915554644e-01,-1.181833839018484045e-01,-1.746418364366483511e-01,-6.762236603251097974e-03
2.450000000000000178e+00,1.643392378761949062e+09,-3.608095479374263254e-02,2.427766775936666122e-01,0.000000000000000000e+00,3.237022367915554644e-01,-1.333738304396588914e-01,-1.747384956007042855e-01,-4.842196653295034389e-03
2.466666666666666785e+00,1.643392378779448032e+09,-3.638429327886508191e-02,2.427766775936666122e-01,0.000000000000000000e+00,3.237022367915554644e-01,-1.475305156566284193e-01,-1.748053746242294870e-01,-3.187881597485852075e-03
2.483333333333333393e+00,1.643392378795403957e+09,-3.653546640895775910e-02,2.427766775936666122e-01,0.000000000000000000e+00,3.237022367915554644e-01,-1.604546116238810549e-01,-1.748466953075625829e-01,-1.774526481322987338e-03
2.500000000000000000e+00,1.643392378814385891e+09,-3.652389061111703528e-02,2.187393827824129222e-01,0.000000000000000000e+00,2.916525103765505444e-01,-1.719523292548207349e-01,-1.748695633992563003e-01,-9.718741641693952674e-04
2.516666666666666607e+00,1.643392378830335140e+09,-3.633984520215304687e-02,1.947020879711592600e-01,0.000000000000000000e+00,2.596027839615456800e-01,-1.818369571897850978e-01,-1.748838501279651181e-01,-7.431685891043479826e-04
2.533333333333333215e+00,1.643392378847265720e+09,-3.597456204631589022e-02,2.187393827824129222e-01,0.000000000000000000e+00,2.916525103765505444e-01,-1.899308951571572757e-01,-1.748921545816151113e-01,-2.547226750334339674e-04
2.549999999999999822e+00,1.643392378864747286e+09,-3.542030675074171742e-02,1.706647931599055701e-01,0.000000000000000000e+00,2.275530575465407879e-01,-1.960676627567785879e-01,-1.748998734341333794e-01,-6.703849824630483045e-04
2.566666666666666430e+00,1.643392378881929398e+09,-3.467045046848957895e-02,1.706647931599055701e-01,0.000000000000000000e+00,2.275530575465407879e-01,-2.000938643713069121e-01,-1.749150186812661323e-01,-1.145724255520322874e-03
2.583333333333333481e+00,1.643392378897487402e+09,-3.371953146910856847e-02,1.706647931599055701e-01,0.000000000000000000e+00,2.275530575465407879e-01,-2.018710908435867590e-01,-1.749382660669260570e-01,-1.642581831255079472e-03
2.600000000000000089e+00,1.643392378915545225e+09,-3.256330573733608180e-02,1.706647931599055701e-01,0.000000000000000000e+00,2.275530575465407879e-01,-2.012777386673415270e-01,-1.749696438318666392e-01,-2.121419824771763295e-03
2.616666666666666696e+00,1.643392378934719801e+09,-3.119878597083377766e-02,1.706647931599055701e-01,0.000000000000000000e+00,2.275530575465407879e-01,-1.982107277272257273e-01,-1.750085124756085020e-01,-2.541650090485228584e-03
2.633333333333333304e+00,1.643392378951406956e+09,-2.962426846671248337e-02,1.706647931599055701e-01,0.000000000000000000e+00,2.275530575465407879e-01,-1.925870990934941407e-01,-1.750535501763053614e-01,-2.861984155348179341e-03
2.649999999999999911e+00,1.643392378966387749e+09,-2.783934751279749931e-02,1.706647931599055701e-01,0.000000000000000000e+00,2.275530575465407879e-01,-1.843454750256042773e-01,-1.751027441961537923e-01,-3.040801499928049573e-03
2.666666666666666519e+00,1.643392378985316753e+09,-2.584491703183161224e-02,1.706647931599055701e-01,0.000000000000000000e+00,2.275530575465407879e-01,-1.734473641657560128e-01,-1.751533885542279068e-01,-3.036533325284780996e-03
2.683333333333333126e+00,1.643392379001834393e+09,-2.364315936371456234e-02,1.706647931599055701e-01,0.000000000000000000e+00,2.275530575465407879e-01,-1.598782959036369744e-01,-1.752020881991014356e-01,-2.808058726140109408e-03
2.700000000000000178e+00,1.643392379019114494e+09,-2.123752121097420217e-02,1.706647931599055701e-01,0.000000000000000000e+00,2.275530575465407879e-01,-1.436487690619931701e-01,-1.752447698606694193e-01,-2.315109996273583687e-03
2.716666666666666785e+00,1.643392379035254717e+09,-1.863267691442930044e-02,1.706647931599055701e-01,0.000000000000000000e+00,2.275530575465407879e-01,-1.247950013817042819e-01,-1.752766997045979991e-01,-1.518683622708304464e-03
2.733333333333333393e+00,1.643392379051919460e+09,-1.583447936787157548e-02,1.706647931599055701e-01,0.000000000000000000e+00,2.275530575465407879e-01,-1.033794677660145878e-01,-1.752925078542532100e-01,-3.814533831549076718e-04
2.750000000000000000e+00,1.643392379069386959e+09,-1.284989902098238393e-02,1.706647931599055701e-01,0.000000000000000000e+00,2.275530575465407879e-01,-7.949121686604766757e-02,-1.752862197842568193e-01,1.131818151746327673e-03
2.766666666666666607e+00,1.643392379086333990e+09,-9.686951556987974041e-03,1.706647931599055701e-01,0.000000000000000000e+00,2.275530575465407879e-01,-5.324595734178355633e-02,-1.752512945274904421e-01,3.053873491948637560e-03
2.783333333333333215e+00,1.643392379102533817e+09,-6.354614964181909409e-03,1.706647931599055701e-01,0.000000000000000000e+00,2.275530575465407879e-01,-2.478590700103745770e-02,-1.751806695739428488e-01,5.414563307715506563e-03
2.799999999999999822e+00,1.643392379119563341e+09,-2.862736846826398340e-03,1.947020879711592600e-01,0.000000000000000000e+00,2.596027839615456800e-01,5.720600010951540186e-03,-1.750634922326641252e-01,8.637764099471962817e-03
2.816666666666666430e+00,1.643392379138705015e+09,7.780670604333757680e-04,2.427766775936666122e-01,0.000000000000000000e+00,3.237022367915554644e-01,3.807975074272630656e-02,-1.748819305199392493e-01,1.313714285902030203e-02
2.833333333333333481e+00,1.643392379154823303e+09,4.556522101076414082e-03,2.908512672161757684e-01,0.000000000000000000e+00,3.878016896215676357e-01,7.207313633497104688e-02,-1.746146653479750122e-01,1.891861774624184825e-02
2.850000000000000089e+00,1.643392379172771692e+09,8.460810455725931850e-03,3.629631516499367549e-01,0.000000000000000000e+00,4.839508688665823399e-01,1.074588787560096376e-01,-1.742369931755605728e-01,2.638131274725983438e-02
2.866666666666666696e+00,1.643392379188727856e+09,1.247869219228277607e-02,4.110377412724459112e-01,0.000000000000000000e+00,5.480503216965945112e-01,1.439729976354465202e-01,-1.737242900696607528e-01,3.511878862315821748e-02
2.883333333333333304e+00,1.643392379205682516e+09,1.659763027377295780e-02,4.831496257062087296e-01,0.000000000000000000e+00,6.441995009416116025e-01,1.813310112343826663e-01,-1.730520491534184024e-01,4.552122498925906258e-02
2.899999999999999911e+00,1.643392379222636700e+09,2.080491813058055542e-02,6.273733945737325346e-01,0.000000000000000000e+00,8.364978594316434535e-01,2.192297633743010843e-01,-1.721827162339669981e-01,5.876194470227489447e-02
2.916666666666666519e+00,1.643392379240518808e+09,2.508780835871403034e-02,7.956344582525118891e-01,0.000000000000000000e+00,1.060845944336682445e+00,2.573494659565481180e-01,-1.710660280530314770e-01,7.519498859149037484e-02
2.933333333333333126e+00,1.643392379257719994e+09,2.943364107641289334e-02,8.437090478750192135e-01,0.000000000000000000e+00,1.124945397166692285e+00,2.953559445604487799e-01,-1.696658359874018973e-01,9.277921306645191268e-02
2.950000000000000178e+00,1.643392379273697853e+09,3.382997045829656824e-02,9.158209323087820319e-01,0.000000000000000000e+00,1.221094576411709376e+00,3.329030725305029415e-01,-1.679598560982048794e-01,1.118852999245763119e-01
2.966666666666666785e+00,1.643392379292626381e+09,3.826468796977892245e-02,9.398582271200357496e-01,0.000000000000000000e+00,1.253144302826714185e+00,3.696353769717133364e-01,-1.659296868429183391e-01,1.316800240708189129e-01
2.983333333333333393e+00,1.643392379308959961e+09,4.272614084486277969e-02,9.398582271200357496e-01,0.000000000000000000e+00,1.253144302826714185e+00,4.051907981862154506e-01,-1.635674286431845481e-01,1.517352496261893113e-01
3.000000000000000000e+00,1.643392379328313589e+09,4.720324438768445235e-02,9.638955219312912437e-01,0.000000000000000000e+00,1.285194029241721658e+00,4.392035823228601643e-01,-1.608656688160856607e-01,1.724184748699929548e-01
3.016666666666666607e+00,1.643392379343272209e+09,5.168558673216411270e-02,9.638955219312912437e-01,0.000000000000000000e+00,1.285194029241721658e+00,4.713072853923114813e-01,-1.578176111661609426e-01,1.932904640087949599e-01
3.033333333333333215e+00,1.643392379360357046e+09,5.616352476448665393e-02,1.036007406365052175e+00,0.000000000000000000e+00,1.381343208486736307e+00,5.011378653404645611e-01,-1.544104895360971230e-01,2.155024302404897618e-01
3.049999999999999822e+00,1.643392379375298023e+09,6.062826999931909822e-02,1.036007406365052175e+00,0.000000000000000000e+00,1.381343208486736307e+00,5.283368375888232160e-01,-1.506324796610789829e-01,2.377968244313695689e-01
3.066666666666666430e+00,1.643392379391473055e+09,6.507196330198229683e-02,1.084081995987561386e+00,0.000000000000000000e+00,1.445442661316748589e+00,5.525544683562387815e-01,-1.464759908248441100e-01,2.609176100008646637e-01
3.083333333333333481e+00,1.643392379407783031e+09,6.948773746429279252e-02,1.132156585610068600e+00,0.000000000000000000e+00,1.509542114146758207e+00,5.734529791855811354e-01,-1.419278224178404380e-01,2.847962676737885168e-01
3.100000000000000089e+00,1.643392379426001310e+09,7.386976677041671990e-02,1.132156585610068600e+00,0.000000000000000000e+00,1.509542114146758207e+00,5.907097354230977926e-01,-1.369825910032851091e-01,3.085654749431193111e-01
3.116666666666666696e+00,1.643392379442069292e+09,7.821330282957125735e-02,1.132156585610068600e+00,0.000000000000000000e+00,1.509542114146758207e+00,6.040203909472834365e-01,-1.316426506746264935e-01,3.321618175570832387e-01
3.133333333333333304e+00,1.643392379459943771e+09,8.251469610338388327e-02,1.338457241442340573e+00,7.290534440840732433e-01,1.541591840561763238e+00,6.131019612263356455e-01,-1.258829484071441740e-01,3.589281020007455414e-01
3.149999999999999911e+00,1.643392379477115870e+09,8.677140271562275298e-02,1.378569608279402114e+00,8.895029114323191877e-01,1.541591840561763238e+00,6.176957968047953607e-01,-1.196746635285123872e-01,3.859909072068503644e-01
3.166666666666666519e+00,1.643392379496365786e+09,9.098197629919380081e-02,1.352496569835312190e+00,7.852107576559589353e-01,1.541591840561763238e+00,6.175704295850097392e-01,-1.130226883614666861e-01,4.121733820301433648e-01
3.183333333333333126e+00,1.643392379512323141e+09,9.514604480796962083e-02,1.358914548529241983e+00,8.108826724316784418e-01,1.541591840561763238e+00,6.125242647798474493e-01,-1.059377654749008441e-01,4.379457726987290300e-01
3.200000000000000178e+00,1.643392379528280258e+09,9.926427239732993346e-02,1.333242633753522588e+00,7.081950133288009708e-01,1.541591840561763238e+00,6.023880921693797186e-01,-9.843180827021438817e-02,4.627003275927575876e-01
3.216666666666666785e+00,1.643392379545214415e+09,1.033383066552995000e-01,1.342067354457676220e+00,7.434938961454153894e-01,1.541591840561763238e+00,5.870273912942186589e-01,-9.051759701494371813e-02,4.869376954333518581e-01
3.233333333333333393e+00,1.643392379562801600e+09,1.073707116438958054e-01,1.368942640238507202e+00,8.509950392687398724e-01,1.541591840561763238e+00,5.663444064571596659e-01,-8.220192202264023362e-02,5.108768045526428381e-01
3.250000000000000000e+00,1.643392379578786135e+09,1.113648873857206317e-01,1.356106682850647838e+00,7.996512097173010813e-01,1.541591840561763238e+00,5.402799688764224895e-01,-7.349594130200828856e-02,5.337772680274620596e-01
3.266666666666666607e+00,1.643392379597056627e+09,1.153249766019367045e-01,1.353298817172053470e+00,7.884197470029238319e-01,1.541591840561763238e+00,5.088150450294138816e-01,-6.441618298836157552e-02,5.557327407505064931e-01
3.283333333333333215e+00,1.643392379613037348e+09,1.192557596725398184e-01,1.402637028381638951e+00,9.857725918412663102e-01,1.541591840561763238e+00,4.719719921346104408e-01,-5.497180679267728298e-02,5.775318482300930700e-01
3.299999999999999822e+00,1.643392379631496668e+09,1.231625389463207182e-01,1.515352779193781529e+00,1.436635595089837514e+00,1.541591840561763238e+00,4.298155038282342466e-01,-4.515737736205775732e-02,6.001368901831738434e-01
3.316666666666666430e+00,1.643392379646174669e+09,1.270510136741749563e-01,1.859516886655768975e+00,2.813292024937786628e+00,1.541591840561763238e+00,3.824532313869779543e-01,-3.492832503434541158e-02,6.272740064895072631e-01
3.333333333333333481e+00,1.643392379662533283e+09,1.309271469736631166e-01,2.200472004770791745e+00,4.177112497397876822e+00,1.541591840561763238e+00,3.300360683113324756e-01,-2.421088262058354590e-02,6.587316986271141150e-01
3.350000000000000089e+00,1.643392379680512667e+09,1.347970263532003721e-01,2.401063964247082350e+00,5.075629514548054111e+00,1.509542114146758207e+00,2.727580886979370511e-01,-1.295369569158788363e-02,6.920382125805354390e-01
3.366666666666666696e+00,1.643392379698811293e+09,1.386667194293883520e-01,2.716718165963772247e+00,6.242097142169800605e+00,1.541591840561763238e+00,2.108561325734362168e-01,-1.110952122251849389e-03,7.289883739868194823e-01
3.383333333333333304e+00,1.643392379714768171e+09,1.425421265593139752e-01,3.425904811643019521e+00,9.078843724886789701e+00,1.541591840561763238e+00,1.446090342153169284e-01,1.143132702687605848e-02,7.759546589353305546e-01
3.399999999999999911e+00,1.643392379732087374e+09,1.464288321798700165e-01,3.657754291961235360e+00,1.000624164615964951e+01,1.541591840561763238e+00,7.433649242423158443e-02,2.477220767247217958e-02,8.248152913628254979e-01
3.416666666666666519e+00,1.643392379748409986e+09,1.503319566971564880e-01,3.801757688906286070e+00,1.058225523393985412e+01,1.541591840561763238e+00,3.975847133579232221e-04,3.893036087914213128e-02,8.740263927164829694e-01
3.433333333333333126e+00,1.643392379766476154e+09,1.542560107999169650e-01,3.971834124295426260e+00,1.126256097549641666e+01,1.541591840561763238e+00,-7.681106958124711559e-02,5.391472899076227288e-02,9.239590755167658154e-01
3.449999999999999734e+00,1.643392379784647703e+09,1.582047540810033459e-01,4.250334451308563466e+00,1.276115900052903207e+01,1.413392934901741116e+00,-1.568574892153526135e-01,6.975182230803375627e-02,9.763465982343811911e-01
3.466666666666666785e+00,1.643392379802846193e+09,1.621810598396093428e-01,4.569719267204522595e+00,1.432714580184791231e+01,1.317243755656726467e+00,-2.392768428867925179e-01,8.648753500103593950e-02,1.031784925946674480e+00
3.483333333333333393e+00,1.643392379819009781e+09,1.661867879041468432e-01,5.037920964065977891e+00,1.648840012702878255e+01,1.221094576411709376e+00,-3.235742789368969974e-01,1.041925877011510293e-01,1.092652317998710654e+00
3.500000000000000000e+00,1.643392379834734917e+09,1.702226672611981406e-01,5.031162112285644028e+00,1.665366307839747861e+01,1.156995123581699536e+00,-4.092280558912463340e-01,1.228909258225133472e-01,1.150986214150588216e+00
3.516666666666666607e+00,1.643392379851691961e+09,1.742881902001095773e-01,4.824272675279354772e+00,1.611455286810737064e+01,1.060845944336682445e+00,-4.956929539939647911e-01,1.425129201924228983e-01,1.203507215135435127e+00
3.533333333333333215e+00,1.643392379867669106e+09,1.783815195860249947e-01,4.716771532156029956e+00,1.568454829561407315e+01,1.060845944336682445e+00,-5.824039451750048224e-01,1.629761856749877003e-01,1.251950076102554155e+00
3.549999999999999822e+00,1.643392379885600567e+09,1.824994107571145385e-01,4.803043246146694756e+00,1.612578433082174811e+01,1.028796217921677636e+00,-6.687800963201795401e-01,1.842401267966308764e-01,1.299590520811352956e+00
3.566666666666666430e+00,1.643392379903539419e+09,1.866371494054211433e-01,5.224253223226821952e+00,1.790677341838727443e+01,9.967464915066702735e-01,-7.542286783126596061e-01,2.063378707395177591e-01,1.351993185950368881e+00
3.583333333333333481e+00,1.643392379920523882e+09,1.907885066462512991e-01,4.670020814702564138e+00,1.607444050127030977e+01,8.685475858466483734e-01,-8.381494511063342090e-01,2.292136125166414629e-01,1.392981966899849100e+00
3.600000000000000089e+00,1.643392379936075211e+09,1.949457123097724787e-01,4.885885598867920621e+00,1.713019799642176721e+01,8.044481330166385336e-01,-9.199390930972877189e-01,2.527853577775829863e-01,1.435509330068418077e+00
3.616666666666666696e+00,1.643392379954027653e+09,1.990994473020344657e-01,4.857837067372960504e+00,1.711415304968694429e+01,7.723984066016336136e-01,-9.989957413004467712e-01,2.770452251031842450e-01,1.475563484844025330e+00
3.633333333333333304e+00,1.643392379970005989e+09,2.032388556827821324e-01,4.776037964316336648e+00,1.688310581670546995e+01,7.403486801866263622e-01,-1.074723607333093467e+00,3.019453716716301028e-01,1.512351910891966966e+00
3.649999999999999911e+00,1.643392379987084627e+09,2.073515768961495809e-01,4.677361541897165687e+00,1.648840012702878255e+01,7.403486801866263622e-01,-1.146537632971823317e+00,3.274300292126906542e-01,1.545714318499662232e+00
3.666666666666666519e+00,1.643392380003233194e+09,2.114237983697313250e-01,4.704637951346367863e+00,1.659750576482559126e+01,7.403486801866263622e-01,-1.213868148100180511e+00,3.534605865550982107e-01,1.577863257878024505e+00
3.683333333333333126e+00,1.643392380020439863e+09,2.154403284698832299e-01,3.934972007616107437e+00,1.380728952763959505e+01,6.441995009416116025e-01,-1.276165493212554347e+00,3.799076079416828233e-01,1.595729678398165818e+00
3.699999999999999734e+00,1.643392380037465334e+09,2.193846895687897036e-01,3.923399671815324563e+00,1.395329854292650040e+01,5.801000481115994312e-01,-1.332904568296514602e+00,4.066405000785291990e-01,1.612171704653299509e+00
3.716666666666666785e+00,1.643392380054254293e+09,2.232392307443237800e-01,4.441711701932125500e+00,1.621884502188373034e+01,5.160005952815897023e-01,-1.383589269888380935e+00,4.337097439253724263e-01,1.636071168007185328e+00
3.733333333333333393e+00,1.643392380071447134e+09,2.269852593995562162e-01,4.287369465482385955e+00,1.588992361381982832e+01,4.198514160365725556e-01,-1.427756778390216752e+00,4.611465928906201550e-01,1.656294530493473749e+00
3.750000000000000000e+00,1.643392380088402510e+09,2.306031908575191802e-01,3.942092362888234724e+00,1.479726274117827245e+01,3.237022367915554644e-01,-1.464981658353468941e+00,4.888648732717002510e-01,1.669861428521306479e+00
3.766666666666666607e+00,1.643392380105909824e+09,2.340727147611021408e-01,3.449231875624680033e+00,1.321041750910412027e+01,1.955033311315334810e-01,-1.494879735374556429e+00,5.167351910794453218e-01,1.674563646384396698e+00
3.783333333333333215e+00,1.643392380120036125e+09,2.373729768903275195e-01,3.124412080117432211e+00,1.219958586481017271e+01,9.935415188651879059e-02,-1.517111714507818565e+00,5.446352947479489170e-01,1.673451882142720004e+00
3.799999999999999822e+00,1.643392380138319254e+09,2.404827748022474454e-01,3.039464238295809473e+00,1.214824203525873259e+01,3.204972641501691987e-03,-1.531386506675610937e+00,5.725033178901404174e-01,1.670718487860865187e+00
3.816666666666666430e+00,1.643392380153808117e+09,2.433807655048201846e-01,3.449041628993189779e+00,1.388270077729327134e+01,-2.884475377350440711e-02,-1.537464231435187623e+00,6.003818935739438922e-01,1.674699535469695189e+00
3.833333333333333481e+00,1.643392380171505451e+09,2.460456831976881309e-01,3.447898508570042875e+00,1.407042665409071880e+01,-9.294420660351540575e-02,-1.535158866636026742e+00,6.283264307167187868e-01,1.678633992359153781e+00
3.850000000000000089e+00,1.643392380188448191e+09,2.484565649520713571e-01,3.273068839742420799e+00,1.356340633727026024e+01,-1.570436594335263836e-01,-1.524340517955436791e+00,6.563133453864603561e-01,1.679792549719195227e+00
3.866666666666666696e+00,1.643392380206399918e+09,2.505929820610793279e-01,2.972747713296761241e+00,1.274671854846768859e+01,-2.852425650935483947e-01,-1.504937284017765942e+00,6.842806088055320979e-01,1.676288793454773440e+00
3.883333333333333304e+00,1.643392380222795486e+09,2.524352746725423424e-01,2.834911797832184277e+00,1.267612078283446131e+01,-4.454911971685752703e-01,-1.476936695764447638e+00,7.121747897172279185e-01,1.671027530910873304e+00
3.899999999999999911e+00,1.643392380237757206e+09,2.539647872206881041e-01,2.387378285094508445e+00,1.127058344886382635e+01,-5.736901028285972259e-01,-1.440386711926665120e+00,7.399252443579859007e-01,1.659060269156245937e+00
3.916666666666666519e+00,1.643392380255465031e+09,2.551641021021386346e-01,1.761745863600281403e+00,9.152650479866982991e+00,-7.018890084886192371e-01,-1.395396255836143018e+00,7.673976990023464451e-01,1.637693641307954362e+00
3.933333333333333126e+00,1.643392380272766352e+09,2.560172689969869575e-01,1.762578236228005579e+00,9.252129149622893678e+00,-7.339387349036241570e-01,-1.342135282366484050e+00,7.945244657518225617e-01,1.617574257122836867e+00
3.949999999999999734e+00,1.643392380290903568e+09,2.565100272181723429e-01,1.335100906908860852e+00,7.926816549326382244e+00,-8.621376405636461682e-01,-1.280834367500214510e+00,8.212681118618536669e-01,1.591735053336283290e+00
3.966666666666666785e+00,1.643392380305863142e+09,2.566300184826620367e-01,1.158325870321351259e+00,7.604313119956409572e+00,-9.903365462236681793e-01,-1.211783816835859451e+00,8.475697945394150556e-01,1.564542404883480176e+00
3.983333333333333393e+00,1.643392380324890852e+09,2.563669875365425233e-01,1.117932880979850330e+00,7.827337879570471557e+00,-1.118535451883690079e+00,-1.135332293254424307e+00,8.734270026943438125e-01,1.538395206523975212e+00
4.000000000000000000e+00,1.643392380343138218e+09,2.557129681331141713e-01,4.513858453118195779e-01,5.545746453878415139e+00,-1.246734357543712202e+00,-1.051884967923981895e+00,8.987714976510897680e-01,1.503042392857026455e+00
4.016666666666666607e+00,1.643392380357532978e+09,2.546624519583221558e-01,-2.169392310412827207e+00,-4.745067810530140484e+00,-1.310833810373723152e+00,-9.619012028014712890e-01,9.231821074109601843e-01,1.426443557876917678e+00
4.033333333333333215e+00,1.643392380375523090e+09,2.532125382208495479e-01,-2.230957321919450731e+00,-4.702880318821582861e+00,-1.406982989618740243e+00,-8.658917767599029203e-01,9.463314072701924928e-01,1.351680106373029489e+00
4.049999999999999822e+00,1.643392380390656948e+09,2.513630617741796081e-01,-2.228190575380363914e+00,-4.499514974175201409e+00,-1.471082442448751193e+00,-7.644156713922555246e-01,9.682593740443060648e-01,1.279875368819372250e+00
4.066666666666666430e+00,1.643392380409026146e+09,2.491166978137948629e-01,-2.333472044209219831e+00,-4.343745774020526085e+00,-1.663380800938784265e+00,-6.580764363874962442e-01,9.890006589978967977e-01,1.209274942522502894e+00
4.083333333333333037e+00,1.643392380423985481e+09,2.464790413930750268e-01,-2.432835205050367655e+00,-4.260452521160038586e+00,-1.823629433013810974e+00,-5.475181581055559299e-01,1.008576567821187764e+00,1.140026477646613356e+00
4.099999999999999645e+00,1.643392380440913439e+09,2.434586602246785192e-01,-2.542141953392828668e+00,-4.024635259814766997e+00,-2.047977517918849077e+00,-4.334210585636781854e-01,1.027008561841433298e+00,1.072001766760426023e+00
4.116666666666666252e+00,1.643392380457892656e+09,2.400671194783517981e-01,-2.724319921963661795e+00,-4.464899596363050449e+00,-2.144126697163866169e+00,-3.164967554542771344e-01,1.044307193418419155e+00,1.004022857226474441e+00
4.133333333333332860e+00,1.643392380474898100e+09,2.363189775489783206e-01,-2.701239517414011360e+00,-4.084130440429399655e+00,-2.240275876408881928e+00,-1.974832170131433640e-01,1.060501858537050257e+00,9.395161465340574614e-01
4.150000000000000355e+00,1.643392380491334915e+09,2.322317520478521802e-01,-2.784407929979471508e+00,-4.032207373711174547e+00,-2.368474782068903828e+00,-7.713944851676737824e-02,1.075635456188586137e+00,8.766900925742509010e-01
4.166666666666666963e+00,1.643392380509931564e+09,2.278258555629950055e-01,-2.827552311949633523e+00,-3.820188184611755577e+00,-2.496673687728925728e+00,4.376005011976831505e-02,1.089741370082224714e+00,8.161876409834478707e-01
4.183333333333333570e+00,1.643392380525889397e+09,2.231245010379714067e-01,-2.748159498307726434e+00,-3.021871033819043983e+00,-2.656922319803954213e+00,1.644310137725265020e-01,1.102874899320231972e+00,7.599919703365205503e-01
4.200000000000000178e+00,1.643392380544540167e+09,2.181535769301662375e-01,-2.726670479519263335e+00,-2.551318241685128552e+00,-2.785121225463974781e+00,2.840852846124803377e-01,1.115099090603116849e+00,7.070580258051892830e-01
4.216666666666666785e+00,1.643392380560343742e+09,2.129414926256590068e-01,-2.664710195078457300e+00,-2.207327924676886877e+00,-2.817170951878980922e+00,4.019367819852965318e-01,1.126473196433002366e+00,6.579710297570844357e-01
4.233333333333333393e+00,1.643392380576660872e+09,2.075189949055041005e-01,-2.642805151306705902e+00,-2.119707749589881729e+00,-2.817170951878980922e+00,5.172075225842804880e-01,1.137054912370257354e+00,6.119626866744557470e-01
4.250000000000000000e+00,1.643392380595612764e+09,2.019189565740796832e-01,-2.682558749262847098e+00,-2.278722141414446067e+00,-2.817170951878980922e+00,6.291336428219956867e-01,1.146886145789561384e+00,5.679077014811374502e-01
4.266666666666666607e+00,1.643392380612565994e+09,1.961761386708396337e-01,-2.620359242256640186e+00,-2.029924113389617535e+00,-2.817170951878980922e+00,7.369713746829797962e-01,1.156012699980456526e+00,5.273913494973478944e-01
4.283333333333333215e+00,1.643392380628874540e+09,1.903269279890146826e-01,-2.586284729722804876e+00,-1.893626063254276071e+00,-2.817170951878980922e+00,8.400029261147042847e-01,1.164488514935007935e+00,4.898108378159947707e-01
4.299999999999999822e+00,1.643392380646850824e+09,1.844090519151898311e-01,-1.792628310968725991e+00,1.280999611762038803e+00,-2.817170951878980922e+00,9.375422171932957793e-01,1.172466271063351551e+00,4.675816467913939123e-01
4.316666666666666430e+00,1.643392380663356543e+09,1.784612728790643255e-01,-1.851964488596593572e+00,1.139804080495582461e+00,-2.849220678293985731e+00,1.028940423889450395e+00,1.180081039405027621e+00,4.462498107045989038e-01
4.333333333333333037e+00,1.643392380678489685e+09,1.725230649598947785e-01,-1.865171444361841679e+00,1.183125436679608899e+00,-2.881270404708991872e+00,1.113591282257056170e+00,1.187353091376577297e+00,4.264514226979695954e-01
4.349999999999999645e+00,1.643392380698014736e+09,1.666342754321725184e-01,-2.460200699727932871e+00,-1.196991584784755647e+00,-2.881270404708991872e+00,1.190936107270413435e+00,1.194226401946083316e+00,3.984237022541715079e-01
4.366666666666666252e+00,1.643392380716203928e+09,1.608347742451681772e-01,-2.416120179545273139e+00,-1.020669504054116272e+00,-2.881270404708991872e+00,1.260468482338204188e+00,1.200652147314040352e+00,3.727370952660966075e-01
4.383333333333332860e+00,1.643392380733159781e+09,1.551640946164492829e-01,-2.416661044823587901e+00,-1.022832965167375541e+00,-2.881270404708991872e+00,1.321738577713794882e+00,1.206661718364066660e+00,3.484788164309070013e-01
4.400000000000000355e+00,1.643392380748091936e+09,1.496610680759952738e-01,-2.414736806275728842e+00,-9.189868317309251022e-01,-2.913320131123996681e+00,1.374357058588008051e+00,1.212277868800038627e+00,3.255230035334730210e-01
4.416666666666666963e+00,1.643392380767601013e+09,1.443634574229543666e-01,-2.503345081698094443e+00,-9.849723956853365658e-01,-3.009469310369013773e+00,1.417998546576003660e+00,1.217508382187600713e+00,3.022033812272093001e-01
4.433333333333333570e+00,1.643392380782581091e+09,1.393075911495779418e-01,-2.478402858748098847e+00,-6.929051453953198880e-01,-3.073568763199024723e+00,1.452404601573367815e+00,1.222361653335023668e+00,2.802501391268740760e-01
4.450000000000000178e+00,1.643392380800825357e+09,1.345280029449336667e-01,-2.498893319176549888e+00,-5.825686286190914220e-01,-3.137668216029035673e+00,1.477386194535554198e+00,1.226852689624327253e+00,2.587339840935539148e-01
4.466666666666666785e+00,1.643392380818773031e+09,1.300570799134312672e-01,-2.377288456833030583e+00,0.000000000000000000e+00,-3.169717942444040926e+00,1.492825645602354756e+00,1.231007023780760656e+00,2.398386030832758697e-01
4.483333333333333393e+00,1.643392380835730314e+09,1.259247231291727998e-01,-2.515899365369710594e+00,-5.544436341467197105e-01,-3.169717942444040926e+00,1.498678006117041273e+00,1.234830708082913953e+00,2.190612294602446719e-01
4.500000000000000000e+00,1.643392380851838589e+09,1.221580240961842589e-01,-2.614877711301327068e+00,-9.503570178731864937e-01,-3.169717942444040926e+00,1.494971867445896718e+00,1.238296789773645656e+00,1.969300503719224604e-01
4.516666666666666607e+00,1.643392380868793249e+09,1.187809605966223120e-01,-2.628097700546284887e+00,-9.070877956079986815e-01,-3.201767668859047067e+00,1.481809584054734508e+00,1.241393431316410112e+00,1.747286068876322540e-01
4.533333333333333215e+00,1.643392380885063171e+09,1.158141152843196464e-01,-2.473437636078047230e+00,0.000000000000000000e+00,-3.297916848104062826e+00,1.459366903008611605e+00,1.244141377206525734e+00,1.550794821130259682e-01
4.549999999999999822e+00,1.643392380904010296e+09,1.132744202202585759e-01,-2.545549520511809938e+00,0.000000000000000000e+00,-3.394066027349079917e+00,1.427891996891501147e+00,1.246550244171451771e+00,1.340429897544280491e-01
4.566666666666666430e+00,1.643392380918945074e+09,1.111749303507482689e-01,-2.617661404945571757e+00,0.000000000000000000e+00,-3.490215206594095676e+00,1.387703902055380745e+00,1.248595897572051250e+00,1.114980446389920998e-01
4.583333333333333037e+00,1.643392380935925007e+09,1.095246286996802848e-01,-2.838931070843153659e+00,-5.966311258552776664e-01,-3.586364385839112767e+00,1.339190369062194019e+00,1.250231653216417271e+00,8.486661063161014817e-02
4.599999999999999645e+00,1.643392380954293013e+09,1.083282657850264674e-01,-2.943224439336649123e+00,-7.253570620942106917e-01,-3.682513565084128526e+00,1.282805137137000173e+00,1.251405036965816508e+00,5.601957184555014790e-02
4.616666666666666252e+00,1.643392380968834162e+09,1.075862354788884867e-01,-2.964526197682572306e+00,-6.182657369878714615e-01,-3.746613017914139920e+00,1.219064649363761577e+00,1.252089875025371501e+00,2.624370798068175609e-02
4.633333333333332860e+00,1.643392380986077785e+09,1.072944892123617044e-01,-3.079605661668608718e+00,-6.939868759519497443e-01,-3.874811923574161820e+00,1.148544230186090642e+00,1.252256926195881359e+00,-6.107700381203361173e-03
4.650000000000000355e+00,1.643392381003290653e+09,1.074444900840881151e-01,-3.190659846141039591e+00,-8.497560761066252910e-01,-3.970961102819177579e+00,1.071873751480673098e+00,1.251863326995544368e+00,-4.102720275853925097e-02
4.666666666666666963e+00,1.643392381020237684e+09,1.080232080676469669e-01,-3.251444769803946588e+00,-9.005974122682206540e-01,-4.035060555649188530e+00,9.897328180118524221e-01,1.250872818197307890e+00,-7.773189315683759482e-02
4.683333333333333570e+00,1.643392381036197662e+09,1.090131571313527198e-01,-3.306550608044548145e+00,-9.287224067405923655e-01,-4.099160008479199924e+00,9.028455074099270838e-01,1.249256022064683558e+00,-1.161768487014568640e-01
4.700000000000000178e+00,1.643392381053151369e+09,1.103924746880101670e-01,-3.290532662186746560e+00,-6.723522648193559492e-01,-4.163259461309210430e+00,8.119747039059140858e-01,1.246993447995377480e+00,-1.552235739368312273e-01
4.716666666666666785e+00,1.643392381069399595e+09,1.121350433856814627e-01,-3.344255127157804708e+00,-5.987945869685370459e-01,-4.259408640554227965e+00,7.179160688635126686e-01,1.244065076726048824e+00,-1.960675203057406779e-01
4.733333333333333393e+00,1.643392381089374542e+09,1.142106548373348351e-01,-3.440404306402821799e+00,-5.987945869685370459e-01,-4.387607546214249865e+00,6.214916946396209507e-01,1.240435016048196948e+00,-2.394193364906087584e-01
4.750000000000000000e+00,1.643392381105334997e+09,1.165852144715621985e-01,-3.567892461716342556e+00,-6.280013119975386138e-01,-4.547856178289276130e+00,5.235434914457365307e-01,1.236057275492756791e+00,-2.857807454396785740e-01
4.766666666666666607e+00,1.643392381121374130e+09,1.192209862724269154e-01,-3.410892133716957542e+00,0.000000000000000000e+00,-4.547856178289276130e+00,4.249263596419045608e-01,1.230921312165292436e+00,-3.304108783467984978e-01
4.783333333333333215e+00,1.643392381139587164e+09,1.220768757682030581e-01,-3.410892133716957542e+00,0.000000000000000000e+00,-4.547856178289276130e+00,3.265012022468491981e-01,1.225034083093751613e+00,-3.759301647997595475e-01
4.799999999999999822e+00,1.643392381155536413e+09,1.251087492304446269e-01,-3.410892133716957542e+00,0.000000000000000000e+00,-4.547856178289276130e+00,2.291278343659078065e-01,1.218381037136394340e+00,-4.223065238315864001e-01
4.816666666666666430e+00,1.643392381172671318e+09,1.282697866606140324e-01,-3.434929428528211925e+00,0.000000000000000000e+00,-4.579905904704282271e+00,1.336578477034261470e-01,1.210944950982342005e+00,-4.698916306912805374e-01
4.833333333333333037e+00,1.643392381189628601e+09,1.315108657755278687e-01,-3.410892133716957542e+00,0.000000000000000000e+00,-4.547856178289276130e+00,4.092748931863303408e-02,1.202712864272447835e+00,-5.178256213880251257e-01
4.849999999999999645e+00,1.643392381206457853e+09,1.347809738589871853e-01,-3.434929428528211925e+00,0.000000000000000000e+00,-4.579905904704282271e+00,-4.824938570815127947e-02,1.193672861186692025e+00,-5.668385985395421045e-01
4.866666666666666252e+00,1.643392381223839998e+09,1.380276440289910922e-01,-3.434929428528211925e+00,0.000000000000000000e+00,-4.579905904704282271e+00,-1.330882280201301504e-01,1.183811026862038984e+00,-6.164437251573613441e-01
4.883333333333332860e+00,1.643392381241333485e+09,1.411974121813801830e-01,-3.483004018150720693e+00,0.000000000000000000e+00,-4.644005357534293665e+00,-2.128405149494121684e-01,1.173111636399957636e+00,-6.673417435802821984e-01
4.900000000000000355e+00,1.643392381259261608e+09,1.442362906149251556e-01,-3.483004018150720693e+00,0.000000000000000000e+00,-4.644005357534293665e+00,-2.868002205047578967e-01,1.161560760339093834e+00,-7.186209381636762261e-01
4.916666666666666963e+00,1.643392381276635885e+09,1.470902541227989690e-01,-3.531078607773228573e+00,0.000000000000000000e+00,-4.708104810364305060e+00,-3.543099776748580565e-01,1.149146349175463877e+00,-7.709630034241810037e-01
4.933333333333333570e+00,1.643392381293978453e+09,1.497057341536903452e-01,-3.555115902584482068e+00,0.000000000000000000e+00,-4.740154536779309424e+00,-4.147668783253633529e-01,1.135855129389225615e+00,-8.238364966531069866e-01
4.950000000000000178e+00,1.643392381311006308e+09,1.520301165048877634e-01,-3.555115902584482068e+00,0.000000000000000000e+00,-4.740154536779309424e+00,-4.676278584351420409e-01,1.121682686444156918e+00,-8.767097830583654439e-01
4.966666666666666785e+00,1.643392381326022863e+09,1.540122379114224338e-01,-3.531078607773228573e+00,0.000000000000000000e+00,-4.708104810364305060e+00,-5.124146193512563174e-01,1.106633459017089427e+00,-9.290521094167060179e-01
4.983333333333333393e+00,1.643392381343258142e+09,1.556028768413465491e-01,-3.555115902584482068e+00,0.000000000000000000e+00,-4.740154536779309424e+00,-5.487180391240660260e-01,1.090710754742676869e+00,-9.815266375041025171e-01
5.000000000000000000e+00,1.643392381361726284e+09,1.567552337985471944e-01,-3.555115902584482068e+00,0.000000000000000000e+00,-4.740154536779309424e+00,-5.762020317897357247e-01,1.073916926705362984e+00,-1.033588108373025616e+00
5.016666666666666607e+00,1.643392381376711845e+09,1.563811181163894948e-01,-3.555115902584482068e+00,0.000000000000000000e+00,-4.740154536779309424e+00,-5.946068166706546254e-01,1.056260056165162720e+00,-1.085093283153744315e+00
5.033333333333333215e+00,1.643392381391857386e+09,1.554926391793735874e-01,-3.555115902584482068e+00,0.000000000000000000e+00,-4.740154536779309424e+00,-5.997465898830081077e-01,1.037751170057683581e+00,-1.135832105254056534e+00
5.049999999999999822e+00,1.643392381410942793e+09,1.540638897871275392e-01,-3.555115902584482068e+00,0.000000000000000000e+00,-4.740154536779309424e+00,-5.955690009971408294e-01,1.018404221997286196e+00,-1.185663238920019680e+00
5.066666666666666430e+00,1.643392381427162409e+09,1.520737483962354974e-01,-3.531078607773228573e+00,0.000000000000000000e+00,-4.708104810364305060e+00,-5.822406395049054550e-01,9.982387987065954871e-01,-1.234053136417297747e+00
5.083333333333333037e+00,1.643392381444137812e+09,1.495060766015011700e-01,-3.531078607773228573e+00,0.000000000000000000e+00,-4.708104810364305060e+00,-5.600056517290837865e-01,9.772766318686770814e-01,-1.281275707237751194e+00
5.099999999999999645e+00,1.643392381461546659e+09,1.463498724600973688e-01,-3.531078607773228573e+00,0.000000000000000000e+00,-4.708104810364305060e+00,-5.291830900684406647e-01,9.555382018163917079e-01,-1.327208305482826978e+00
5.116666666666666252e+00,1.643392381479872704e+09,1.425993782462126880e-01,-3.531078607773228573e+00,0.000000000000000000e+00,-4.708104810364305060e+00,-4.901636574371852628e-01,9.330459620769150364e-01,-1.371736770163523911e+00
5.133333333333332860e+00,1.643392381496847391e+09,1.382541416449269978e-01,-3.507041312961973745e+00,0.000000000000000000e+00,-4.676055083949298918e+00,-4.434058752503580170e-01,9.098275098045465192e-01,-1.414359104361361030e+00
5.150000000000000355e+00,1.643392381512977123e+09,1.333190298245928163e-01,-3.531078607773228573e+00,0.000000000000000000e+00,-4.708104810364305060e+00,-3.894317078998236203e-01,8.859087072093868587e-01,-1.455782140360752264e+00
5.166666666666666963e+00,1.643392381529032707e+09,1.278041962628155837e-01,-3.507041312961973745e+00,0.000000000000000000e+00,-4.676055083949298918e+00,-3.288216809885085579e-01,8.613169335816180938e-01,-1.495121416632158251e+00
5.183333333333333570e+00,1.643392381546829224e+09,1.217250006380763694e-01,-3.434929428528211925e+00,0.000000000000000000e+00,-4.579905904704282271e+00,-2.622095346104897917e-01,8.360940995421486388e-01,-1.531517565311667273e+00
5.200000000000000178e+00,1.643392381564448833e+09,1.151018825329707673e-01,-3.362817544094449218e+00,0.000000000000000000e+00,-4.483756725459265624e+00,-1.902764566479786534e-01,8.102895856409840780e-01,-1.564931284756209795e+00
5.216666666666666785e+00,1.643392381581873894e+09,1.079601901217473181e-01,-3.290705659660687399e+00,0.000000000000000000e+00,-4.387607546214249865e+00,-1.137449443751787914e-01,7.839533222354678754e-01,-1.595335864751291410e+00
5.233333333333333393e+00,1.643392381598509312e+09,1.003299654303083099e-01,-3.170519185604416368e+00,0.000000000000000000e+00,-4.227358914139221824e+00,-3.337234558669804896e-02,7.571422166450080260e-01,-1.621922951347350095e+00
5.250000000000000000e+00,1.643392381615456820e+09,9.224568815706495062e-02,-2.848474541358932743e+00,6.151343222668186339e-01,-4.003010829234183277e+00,5.005586701861758359e-02,7.299476692795883181e-01,-1.641368715220935526e+00
5.266666666666666607e+00,1.643392381632201433e+09,8.374598042427185141e-02,-2.516735772730840370e+00,6.921500665939767094e-01,-3.586364385839112767e+00,1.357330323880175937e-01,7.024893654053001590e-01,-1.653593790352360982e+00
5.283333333333333215e+00,1.643392381650145531e+09,7.487327518798718440e-02,-2.206256558526389355e+00,6.841275932265643567e-01,-3.169717942444040926e+00,2.228383911605719137e-01,6.748839133919015687e-01,-1.659045307795059321e+00
5.299999999999999822e+00,1.643392381666231155e+09,6.567345136726643329e-02,-1.909756422132945275e+00,8.124871671051610011e-01,-2.817170951878980922e+00,3.105442706036601885e-01,6.472414224473823641e-01,-1.658056352709361470e+00
5.316666666666666430e+00,1.643392381684181929e+09,5.619543905646436077e-02,-1.697401880224381765e+00,8.927119007792839733e-01,-2.560773140558937122e+00,3.980233051424951207e-01,6.196566906558421683e-01,-1.652127930502519382e+00
5.333333333333333037e+00,1.643392381700139046e+09,4.649079845561077118e-02,-1.568821934423310971e+00,8.301366085134679329e-01,-2.368474782068903828e+00,4.844556329693782137e-01,5.921996446669677283e-01,-1.642743656204543878e+00
5.349999999999999645e+00,1.643392381718482494e+09,3.661327639032803394e-02,-1.434596131974069211e+00,8.862939220853538469e-01,-2.208226149993877119e+00,5.690360094825986925e-01,5.649279287076939271e-01,-1.629897942286794743e+00
5.366666666666666252e+00,1.643392381736008644e+09,2.661834449232793401e-02,-1.370877719285107155e+00,9.488692143511696653e-01,-2.144126697163866169e+00,6.509807790453563392e-01,5.378886527953810059e-01,-1.614856948711810958e+00
5.383333333333332860e+00,1.643392381753963709e+09,1.656272327237977640e-02,-1.308362677601256685e+00,1.006631022596538250e+00,-2.080027244333855219e+00,7.295346477654970352e-01,5.111174671480746001e-01,-1.597732896895100563e+00
5.400000000000000355e+00,1.643392381767902136e+09,6.503896438232968473e-03,-1.280314146106295903e+00,1.022675969331362955e+00,-2.047977517918849077e+00,8.039772016687875000e-01,4.846434733016539709e-01,-1.579197852122638412e+00
5.416666666666666963e+00,1.643392381785137892e+09,-3.500380110743663356e-03,-1.402225615999980635e+00,6.311792690016427843e-01,-2.080027244333855219e+00,8.736291167566593296e-01,4.584686186826895105e-01,-1.561832939157729250e+00
5.433333333333333570e+00,1.643392381803140163e+09,-1.339257014320978552e-02,-1.417468315398063838e+00,5.702084714093095252e-01,-2.080027244333855219e+00,9.378580099884816779e-01,4.325875468268985946e-01,-1.543945372392097948e+00
5.450000000000000178e+00,1.643392381822228432e+09,-2.311584534585796324e-02,-1.535983138439136697e+00,0.000000000000000000e+00,-2.047977517918849077e+00,9.960838831863656484e-01,4.069938033043863368e-01,-1.527349949790465233e+00
5.466666666666666785e+00,1.643392381838543177e+09,-3.261456554715736617e-02,-1.535983138439136697e+00,0.000000000000000000e+00,-2.047977517918849077e+00,1.047784115204599242e+00,3.816814988523608565e-01,-1.510174295725682070e+00
5.483333333333333393e+00,1.643392381855503082e+09,-4.183474658712650618e-02,-1.411451460372504796e+00,5.942758915115464724e-01,-2.080027244333855219e+00,1.092497961408448237e+00,3.566764592677664214e-01,-1.490485147790488574e+00
5.500000000000000000e+00,1.643392381870434046e+09,-5.072451163516093070e-02,-1.180835476350383662e+00,1.420590648355012808e+00,-2.047977517918849077e+00,1.129830523538939424e+00,3.320338618607145964e-01,-1.466692632930294060e+00
5.516666666666666607e+00,1.643392381887415409e+09,-5.923452192703394792e-02,-9.530574832978397914e-01,2.139404262075154772e+00,-1.983878065088837905e+00,1.159456157368875751e+00,3.078200728513570961e-01,-1.439038866019752616e+00
5.533333333333333215e+00,1.643392381905363798e+09,-6.731838309901445883e-02,-8.300330182719922734e-01,2.246905405198479144e+00,-1.855679159428816005e+00,1.181121290145600078e+00,2.840833450045355812e-01,-1.409450666975037736e+00
5.549999999999999822e+00,1.643392381923394203e+09,-7.493302353952743800e-02,-7.711582148944605697e-01,2.193957080973558238e+00,-1.759529980183800024e+00,1.194646624632195397e+00,2.608456670148109890e-01,-1.379154848823017643e+00
5.566666666666666430e+00,1.643392381939316034e+09,-8.203904145448702445e-02,-6.813667637614083672e-01,2.360824527015733754e+00,-1.695430527353789074e+00,1.199928711560701799e+00,2.381218664586161882e-01,-1.347788349136834540e+00
5.583333333333333037e+00,1.643392381956276655e+09,-8.860101764866032403e-02,-5.939519293475975514e-01,2.614334685425962590e+00,-1.663380800938784265e+00,1.196940877460048069e+00,2.159281696400133510e-01,-1.315544836516357563e+00
5.599999999999999645e+00,1.643392381975228548e+09,-9.458779135911810076e-02,-5.278267746484116563e-01,2.686536945732672876e+00,-1.599281348108773093e+00,1.185733500075278002e+00,1.942749964791717909e-01,-1.282926551265068271e+00
5.616666666666666252e+00,1.643392381990187407e+09,-9.997269683476593671e-02,-4.889780293984275494e-01,2.649633568242576231e+00,-1.535181895278762143e+00,1.166433628911865972e+00,1.731636562522604061e-01,-1.250524284379599615e+00
5.633333333333332860e+00,1.643392382007109165e+09,-1.047337587345653215e-01,-4.417056871126605611e-01,2.646424578895611113e+00,-1.471082442448751193e+00,1.139243953776637008e+00,1.525906522175109747e-01,-1.218325642567117173e+00
5.650000000000000355e+00,1.643392382026058435e+09,-1.088538448126614711e-01,-4.489560384343139199e-01,2.521273994363979476e+00,-1.439032716033745052e+00,1.104441129502190533e+00,1.325440365148995991e-01,-1.187354275346707899e+00
5.666666666666666963e+00,1.643392382043048143e+09,-1.123207747673939522e-01,-5.131057000826300118e-01,2.360824527015733754e+00,-1.471082442448751193e+00,1.062373470292383271e+00,1.129946616959111028e-01,-1.158650437690890156e+00
5.683333333333333570e+00,1.643392382059967518e+09,-1.151273845490638909e-01,-4.613908721538029223e-01,2.471534659486023688e+00,-1.439032716033745052e+00,1.013458032270062148e+00,9.392010623593752272e-02,-1.130374762895645535e+00
5.700000000000000178e+00,1.643392382076923609e+09,-1.172715458442906977e-01,-4.514230310265031076e-01,2.319107665505189875e+00,-1.374933263203734102e+00,9.581771078037324418e-01,7.530664790655917928e-02,-1.103315403286646790e+00
5.716666666666666785e+00,1.643392382092880964e+09,-1.187561408787723150e-01,-7.483147962027235645e-01,9.392422463102751973e-01,-1.310833810373723152e+00,8.970741599971820968e-01,5.709099504336021674e-02,-1.082620427693540277e+00
5.733333333333333393e+00,1.643392382112827063e+09,-1.195889931010737928e-01,-7.583730132029721238e-01,8.028601990642658670e-01,-1.278784083958718121e+00,8.307492303065382444e-01,3.920684996135730821e-02,-1.063530012326477925e+00
5.750000000000000000e+00,1.643392382126788855e+09,-1.197827547237058782e-01,-6.805851468300552209e-01,1.017862485310915499e+00,-1.246734357543712202e+00,7.598538565661249189e-01,2.163919368563093151e-02,-1.044641210888483718e+00
5.766666666666666607e+00,1.643392382144741535e+09,-1.193547525001899534e-01,-6.172377325184812413e-01,1.175102963312196547e+00,-1.214684631128707171e+00,6.850855427234601169e-01,4.382164376182943327e-03,-1.026253384742286112e+00
5.783333333333333215e+00,1.643392382162693024e+09,-1.183267935042064956e-01,-6.149213663812054254e-01,8.959208901262487590e-01,-1.118535451883690079e+00,6.071818252715582842e-01,-1.258138106256354721e-02,-1.009418831655367166e+00
5.799999999999999822e+00,1.643392382178702354e+09,-1.167249330455203959e-01,-6.105692566110940689e-01,7.210309707166608906e-01,-1.054435999053679129e+00,5.269139846952286543e-01,-2.927716133201909571e-02,-9.941173059178427529e-01
5.816666666666666430e+00,1.643392382195783615e+09,-1.145792072037077058e-01,-6.030081574940180378e-01,5.589770086949322758e-01,-9.903365462236681793e-01,4.450804531887539994e-01,-4.573028817230721799e-02,-9.802963074826424039e-01
5.833333333333333037e+00,1.643392382210522413e+09,-1.119233327814405238e-01,-5.693438946418696300e-01,5.974848808585112581e-01,-9.582868198086632594e-01,3.624999724330233430e-01,-6.196173033430011495e-02,-9.675122640241302641e-01
5.849999999999999645e+00,1.643392382228904009e+09,-1.087943777711583987e-01,-5.437021051571324648e-01,6.039028595524413845e-01,-9.262370933936571182e-01,2.800045573191960457e-01,-7.798972349491938016e-02,-9.558792299941433201e-01
5.866666666666666252e+00,1.643392382245882511e+09,-1.052324056897010335e-01,-4.951962665752713821e-01,7.017770346348711774e-01,-8.941873669786521983e-01,1.984323231572025503e-01,-9.383000666256033351e-02,-9.449850125501368936e-01
5.883333333333332860e+00,1.643392382262846231e+09,-1.012800973623529943e-01,-6.466032304227345984e-01,0.000000000000000000e+00,-8.621376405636461682e-01,1.186202350967879016e-01,-1.095221603450382830e-01,-9.380925754564247709e-01
5.900000000000000355e+00,1.643392382279767752e+09,-9.698235392873497118e-02,-6.466032304227345984e-01,0.000000000000000000e+00,-8.621376405636461682e-01,4.139683920677833529e-02,-1.251110581967774527e-01,-9.325904507916181752e-01
5.916666666666666963e+00,1.643392382297750235e+09,-9.238588499630499828e-02,-6.466032304227345984e-01,0.000000000000000000e+00,-8.621376405636461682e-01,-3.242496510108910934e-02,-1.406192102314199055e-01,-9.283994353490394591e-01
5.933333333333333570e+00,1.643392382314161062e+09,-8.753878598151111634e-02,-6.225659356114808807e-01,0.000000000000000000e+00,-8.300879141486412482e-01,-1.020550518565362941e-01,-1.560643881730029991e-01,-9.250312738652566313e-01
5.950000000000000178e+00,1.643392382330158949e+09,-8.249010875295824385e-02,-6.225659356114808807e-01,0.000000000000000000e+00,-8.300879141486412482e-01,-1.667330357931020579e-01,-1.714628286574149119e-01,-9.227878162375877658e-01
5.966666666666666785e+00,1.643392382346045971e+09,-7.728942972461673444e-02,-6.225659356114808807e-01,0.000000000000000000e+00,-8.300879141486412482e-01,-2.257350225484219264e-01,-1.868323374327035546e-01,-9.215566567649641216e-01
5.983333333333333393e+00,1.643392382362255573e+09,-7.198641954006305965e-02,-3.901922413351181507e-01,8.333455978604329406e-01,-7.980381877336351071e-01,-2.783800859149413442e-01,-2.021566727236284722e-01,-9.173751935948735170e-01
6.000000000000000000e+00,1.643392382383141518e+09,-6.663041844110720313e-02,5.419253263755741123e-02,2.418586335261101894e+00,-7.339387349036241570e-01,-3.240364183583587243e-01,-2.173568219361999843e-01,-9.066724424776486657e-01
6.016666666666666607e+00,1.643392382399094820e+09,-6.127002132661639455e-02,1.243289240204485946e-01,2.506833542302637330e+00,-6.698392820736143172e-01,-3.621271035581705711e-01,-2.323756440638811982e-01,-8.956169233422628384e-01
6.033333333333333215e+00,1.643392382415052176e+09,-5.595267638086542927e-02,1.728046373113275025e-01,2.508438036976119889e+00,-6.057398292436033671e-01,-3.921354626778720265e-01,-2.472091838129525654e-01,-8.844388973493005901e-01
6.049999999999999822e+00,1.643392382432310343e+09,-5.072430098675837634e-02,2.453778959954263372e-01,2.702581892467497138e+00,-5.736901028285972259e-01,-4.136099294146600158e-01,-2.618509092526949411e-01,-8.726010391332120752e-01
6.066666666666666430e+00,1.643392382448676109e+09,-4.562891843950359072e-02,3.551954052560261088e-01,2.853404391774848392e+00,-4.775409235835813559e-01,-4.261684125871335604e-01,-2.762835386411733318e-01,-8.593512932002521643e-01
6.083333333333333037e+00,1.643392382465605974e+09,-4.070831874289752156e-02,5.252115900632011725e-01,3.341170772513515796e+00,-4.134414707535703504e-01,-4.295021090621422566e-01,-2.904741467238303732e-01,-8.435655271009108169e-01
6.099999999999999645e+00,1.643392382482593298e+09,-3.600174650576439678e-02,6.166376611607190528e-01,3.610725877658569338e+00,-3.813917443385642647e-01,-4.233787341686005012e-01,-3.043903654645673806e-01,-8.264283262436384891e-01
6.116666666666666252e+00,1.643392382500540018e+09,-3.154561866297814904e-02,5.985870960840415922e-01,3.538523617351859052e+00,-3.813917443385642647e-01,-4.076451413617874220e-01,-3.180236512111158653e-01,-8.096126745850523720e-01
6.133333333333332860e+00,1.643392382516191721e+09,-2.737327442694405949e-02,5.736873033540800249e-01,3.342775267186998356e+00,-3.493420179235594003e-01,-3.822293077493224001e-01,-3.313789274070613744e-01,-7.930664317956942488e-01
6.150000000000000355e+00,1.643392382533144474e+09,-2.351475953467655616e-02,6.117036759763407883e-01,3.206393219940989692e+00,-2.531928386785423091e-01,-3.471416671322082870e-01,-3.444506211023756759e-01,-7.755853712863111094e-01
6.166666666666666963e+00,1.643392382551196098e+09,-1.999664649613278056e-02,6.565692762518838821e-01,3.193557262553129661e+00,-1.890933858485313035e-01,-3.024757774101680674e-01,-3.572210121479282297e-01,-7.569134219267299457e-01
6.183333333333333570e+00,1.643392382568150759e+09,-1.684189217492283036e-02,5.410456597611468244e-01,2.731462796590180986e+00,-1.890933858485313035e-01,-2.484083145092523814e-01,-3.696912713710487353e-01,-7.395658736160778401e-01
6.200000000000000178e+00,1.643392382583802938e+09,-1.406973364673511778e-02,2.943244784222356358e-01,1.648428891989521583e+00,-1.570436594335263836e-01,-1.851983903692093758e-01,-3.819001475074314533e-01,-7.255382293454780696e-01
6.216666666666666785e+00,1.643392382601053238e+09,-1.169562288762039659e-02,4.302752767088918184e-01,2.096082905891128334e+00,-1.249939330185202979e-01,-1.131861979351049818e-01,-3.938484431258176821e-01,-7.083051157475287463e-01
6.233333333333333393e+00,1.643392382618422985e+09,-9.731200447677210152e-03,5.325015615614329123e-01,2.312689686811259637e+00,-6.089448018850930622e-02,-3.279099149011255321e-02,-4.054866766589861893e-01,-6.883383727131715535e-01
6.250000000000000000e+00,1.643392382635497093e+09,-8.184307869671988978e-03,5.528986180663688632e-01,2.201979554340970147e+00,3.204972641501691987e-03,5.549158399979603473e-02,-4.167798780730936348e-01,-6.669053345979613079e-01
6.266666666666666607e+00,1.643392382651452780e+09,-7.059038220632550542e-03,6.161857817959780492e-01,2.166680671524356061e+00,9.935415188651879059e-02,1.510927956246856940e-01,-4.276968767855151565e-01,-6.432003595951953923e-01
6.283333333333333215e+00,1.643392382668736935e+09,-6.355823721410962246e-03,5.178803577541943870e-01,1.677309796112206541e+00,1.314038783015236689e-01,2.533747333571412241e-01,-4.382215174861442963e-01,-6.198214673760440441e-01
6.299999999999999822e+00,1.643392382686692476e+09,-6.071559088466869925e-03,4.733255052740729107e-01,1.402941206946705988e+00,1.634536047165285888e-01,3.616348000618868630e-01,-4.483509400914038601e-01,-5.957760396818517767e-01
6.316666666666666430e+00,1.643392382703645229e+09,-6.199758847324907812e-03,5.006019147232746436e-01,1.512046844743513141e+00,1.634536047165285888e-01,4.751107470972791846e-01,-4.580634859491889421e-01,-5.698016161270574864e-01
6.333333333333333037e+00,1.643392382719776154e+09,-6.730746541849387532e-03,5.354996738715182003e-01,1.651637881336487146e+00,1.634536047165285888e-01,5.929862174901827654e-01,-4.673256112333756818e-01,-5.417313926535091140e-01
6.349999999999999645e+00,1.643392382735340595e+09,-7.651873450986935304e-03,6.053253174589884322e-01,2.027089634931382722e+00,1.314038783015236689e-01,7.143967545333952396e-01,-4.760973628962522630e-01,-5.109642731240927604e-01
6.366666666666666252e+00,1.643392382753395319e+09,-8.947764137998255596e-03,6.382174582653787898e-01,2.158658198156944152e+00,1.314038783015236689e-01,8.384362298498807542e-01,-4.843389033304166813e-01,-4.781118378880073738e-01
6.383333333333332860e+00,1.643392382771348000e+09,-1.060058589932478049e-02,6.133176655354173334e-01,1.962909847992083678e+00,1.634536047165285888e-01,9.641636415225498524e-01,-4.920235144110217673e-01,-4.441358716897695347e-01
6.400000000000000355e+00,1.643392382786334515e+09,-1.259033895350508692e-02,5.603693413104962051e-01,1.751116551092399165e+00,1.634536047165285888e-01,1.090610229827529976e+00,-4.991364005488189703e-01,-4.095066593663385657e-01
6.416666666666666963e+00,1.643392382805258751e+09,-1.489516401735762122e-02,4.379964971664755957e-01,1.165475995271301857e+00,1.955033311315334810e-01,1.216786855460534555e+00,-5.056763907717801709e-01,-3.753869465995938737e-01
6.433333333333333570e+00,1.643392382821207762e+09,-1.749166375865356809e-02,4.300041490900464169e-01,1.229655782210600012e+00,1.634536047165285888e-01,1.341691582927897031e+00,-5.116362837508703354e-01,-3.398987914202046268e-01
6.450000000000000178e+00,1.643392382838160515e+09,-2.035523449335263635e-02,6.787008234798274087e-01,2.224442479769724201e+00,1.634536047165285888e-01,1.464317410008237008e+00,-5.169583218694893123e-01,-2.988597827434512078e-01
6.466666666666666785e+00,1.643392382855115652e+09,-2.346040441224056528e-02,7.328525187098605675e-01,2.441049260689856393e+00,1.634536047165285888e-01,1.583660082887222931e+00,-5.215780817098262245e-01,-2.556314795431628983e-01
6.483333333333333393e+00,1.643392382871471167e+09,-2.678117457725891909e-02,7.661156578936383355e-01,2.477952638179953038e+00,1.955033311315334810e-01,1.698725935742416482e+00,-5.254628532705737376e-01,-2.106660147551478179e-01
6.500000000000000000e+00,1.643392382888804674e+09,-3.029135892226969204e-02,7.801549862866098417e-01,2.534109951751839507e+00,1.955033311315334810e-01,1.808539693210222454e+00,-5.285873044206024218e-01,-1.643966522801719177e-01
6.516666666666666607e+00,1.643392382907335281e+09,-3.396491952647218149e-02,7.937630657202293660e-01,2.492393090241295184e+00,2.275530575465407879e-01,1.912152174308852093e+00,-5.309307997145032987e-01,-1.169545696524530720e-01
6.533333333333333215e+00,1.643392382923565149e+09,-3.777629350070338399e-02,8.880572530783051866e-01,2.965719018918620442e+00,1.955033311315334810e-01,2.008647837017716320e+00,-5.324637943661103545e-01,-6.714315683257898737e-02
6.549999999999999822e+00,1.643392382940573454e+09,-4.170070793660360375e-02,8.880572530783051866e-01,2.965719018918620442e+00,1.955033311315334810e-01,2.097152103821020130e+00,-5.331612545277540915e-01,-1.669220738927987280e-02
6.566666666666666430e+00,1.643392382957527876e+09,-4.571447951492152439e-02,9.024977051396473327e-01,3.023480827163988582e+00,1.955033311315334810e-01,2.176838410102963639e+00,-5.330118330074912203e-01,3.448063967783410871e-02
6.583333333333333037e+00,1.643392382974346161e+09,-4.979529555047502998e-02,9.136990425630431290e-01,2.972136997612550235e+00,2.275530575465407879e-01,2.246934919322044699e+00,-5.320053698228035532e-01,8.615140919123129293e-02
6.599999999999999645e+00,1.643392382990923882e+09,-5.392247346558926707e-02,9.369642153285389075e-01,3.065197688674533349e+00,2.275530575465407879e-01,2.306730851376812552e+00,-5.301333914974505346e-01,1.383410153109674301e-01
6.616666666666666252e+00,1.643392383006280899e+09,-5.807719592889593052e-02,9.550147804052165901e-01,3.137399948981244080e+00,2.275530575465407879e-01,2.355582373485738401e+00,-5.273895543082093296e-01,1.907737973532421250e-01
6.633333333333332860e+00,1.643392383023843288e+09,-6.224271916970319091e-02,7.508428332045735676e-01,2.320712160178672434e+00,2.275530575465407879e-01,2.392918006217593430e+00,-5.238021229752826136e-01,2.395823800106848256e-01
6.649999999999999467e+00,1.643392383040825367e+09,-6.640455227682096062e-02,5.554956067080842885e-01,1.539323254192714652e+00,2.275530575465407879e-01,2.418243500999037288e+00,-5.194314402169429856e-01,2.847740157141305795e-01
6.666666666666666963e+00,1.643392383058778048e+09,-7.055060561168441380e-02,5.972124682186282785e-01,1.706190700234890834e+00,2.275530575465407879e-01,2.431146149465964967e+00,-5.143062613475136713e-01,3.301214804727777841e-01
6.683333333333333570e+00,1.643392383075731039e+09,-7.467130680555507383e-02,6.212798883208651146e-01,1.802460380643837956e+00,2.275530575465407879e-01,2.431298489381276795e+00,-5.084282095678944735e-01,3.751197349881942866e-01
6.700000000000000178e+00,1.643392383091037512e+09,-7.875968316591992757e-02,5.931711062439387616e-01,1.593876073091118117e+00,2.596027839615456800e-01,2.418461376481243263e+00,-5.018120575284965579e-01,4.186974576608827325e-01
6.716666666666666785e+00,1.643392383109189510e+09,-8.281140968435618532e-02,5.663259457540907871e-01,1.582644610376741090e+00,2.275530575465407879e-01,2.392486396499021950e+00,-4.944829246321778005e-01,4.606818638021158430e-01
6.733333333333333393e+00,1.643392383124294758e+09,-8.682482221324211435e-02,4.203169304671871553e-01,9.986085492291262300e-01,2.275530575465407879e-01,2.353317596708427217e+00,-4.864854273928472805e-01,4.989116086823789376e-01
6.750000000000000000e+00,1.643392383142715454e+09,-9.080089575795460832e-02,3.272562394052045409e-01,6.263657849811958833e-01,2.275530575465407879e-01,2.300992521594732665e+00,-4.778761288048516409e-01,5.341064561110488995e-01
6.766666666666666607e+00,1.643392383158823490e+09,-9.474318821064836582e-02,1.466274983486501038e-01,0.000000000000000000e+00,1.955033311315334810e-01,2.235642542649780129e+00,-4.687190852598090984e-01,5.646539132493135771e-01
6.783333333333333215e+00,1.643392383177135468e+09,-9.865775022751177570e-02,9.855290872614276554e-02,0.000000000000000000e+00,1.314038783015236689e-01,2.157492477764603400e+00,-4.590745708714141227e-01,5.926101553024311075e-01
6.799999999999999822e+00,1.643392383192335606e+09,-1.025530023196244700e-01,2.403729481126268882e-03,0.000000000000000000e+00,3.204972641501691987e-03,2.066859501210736028e+00,-4.489937788901268156e-01,6.170170838326748397e-01
6.816666666666666430e+00,1.643392383209808588e+09,-1.064395805844383924e-01,-2.139319238201612960e-01,0.000000000000000000e+00,-2.852425650935483947e-01,1.964151350717902034e+00,-4.385536423531894434e-01,6.357472710773665048e-01
6.833333333333333037e+00,1.643392383227785110e+09,-1.103301528467933307e-01,-4.302675771214479750e-01,0.000000000000000000e+00,-5.736901028285972259e-01,1.849863843627890247e+00,-4.278495888875332720e-01,6.487031553868176648e-01
6.849999999999999645e+00,1.643392383242718935e+09,-1.142392073017333975e-01,-8.103643744010547989e-01,-6.550445759132809131e-01,-8.621376405636461682e-01,1.724577719488970651e+00,-4.170011972312028803e-01,6.530916528152858058e-01
6.866666666666666252e+00,1.643392383260163307e+09,-1.181828160528741456e-01,-1.146772119488238095e+00,-1.135332943056863275e+00,-1.150585178298696221e+00,1.588954831709383120e+00,-4.061454671990604726e-01,6.496056346534958559e-01
6.883333333333332860e+00,1.643392383278652906e+09,-1.221783762165820075e-01,-1.701419004375460231e+00,-2.488577869400605991e+00,-1.439032716033745052e+00,1.443733715972077114e+00,-3.954440220965068642e-01,6.346094347442191586e-01
6.899999999999999467e+00,1.643392383294748545e+09,-1.262443315109153807e-01,-1.944017833748774127e+00,-2.689779752933729284e+00,-1.695430527353789074e+00,1.289724567984199766e+00,-3.850452220682227811e-01,6.133057469531921768e-01
6.916666666666666963e+00,1.643392383312446594e+09,-1.303998774665195426e-01,-2.200439937792872058e+00,-3.042423914395008033e+00,-1.919778612258826955e+00,1.127803667757330874e+00,-3.750563227716258718e-01,5.854395764893363108e-01
6.933333333333333570e+00,1.643392383330821991e+09,-1.346646535822739188e-01,-2.417441296667500517e+00,-3.429683453668436854e+00,-2.080027244333855219e+00,9.589072919506119730e-01,-3.655813111477237420e-01,5.516556647868193775e-01
6.950000000000000178e+00,1.643392383345797777e+09,-1.390584258994462530e-01,-2.623115694771273265e+00,-3.867784329103461705e+00,-2.208226149993877119e+00,7.840251598242363729e-01,-3.567172611259641357e-01,5.121401058492758285e-01
6.966666666666666785e+00,1.643392383361773252e+09,-1.436007635828583096e-01,-2.729302091738870839e+00,-4.004082379238803391e+00,-2.304375329238892878e+00,6.041934620151179214e-01,-3.485458508064113725e-01,4.685502183676605314e-01
6.983333333333333393e+00,1.643392383379745483e+09,-1.483107131749152041e-01,-2.711422327480724537e+00,-3.836414142961199758e+00,-2.336425055653899019e+00,4.204875246291970292e-01,-3.411178219483180230e-01,4.229399427953750568e-01
7.000000000000000000e+00,1.643392383398070335e+09,-1.532064742273988034e-01,-2.683297333008352492e+00,-3.723914165071712912e+00,-2.336425055653899019e+00,2.340141640211341745e-01,-3.344655357910844562e-01,3.754662704883545143e-01
7.016666666666666607e+00,1.643392383416254282e+09,-1.583050800162610072e-01,-2.712441637889841051e+00,-3.648193026107634740e+00,-2.400524508483909969e+00,4.590379007874738349e-02,-3.286279277429705048e-01,3.251863649767223197e-01
7.033333333333333215e+00,1.643392383432213306e+09,-1.636220870062047583e-01,-2.704869523993433500e+00,-3.617904570522002761e+00,-2.400524508483909969e+00,-1.426976821726882727e-01,-3.236463772997173471e-01,2.727453610973671339e-01
7.049999999999999822e+00,1.643392383449167490e+09,-1.691712766549235969e-01,-2.645103910739643016e+00,-3.378842117506841713e+00,-2.400524508483909969e+00,-3.306370512982388377e-01,-3.195493038332804514e-01,2.190526049302988776e-01
7.066666666666666430e+00,1.643392383466121197e+09,-1.749643730322291701e-01,-2.561269792600841644e+00,-3.043505644951637112e+00,-2.400524508483909969e+00,-5.167621161087071480e-01,-3.163538220426162506e-01,1.645565913278088932e-01
7.083333333333333037e+00,1.643392383482105732e+09,-1.810107795780233619e-01,-1.200961405236474766e+00,2.397727904505830399e+00,-2.400524508483909969e+00,-6.999299672690042495e-01,-3.138964928905164653e-01,1.304177393006177854e-01
7.099999999999999645e+00,1.643392383499057770e+09,-1.873173381366136370e-01,-1.316454896436228816e+00,2.031903118951829512e+00,-2.432574234898914778e+00,-8.790152208035122428e-01,-3.120441166934692090e-01,9.197419448290820865e-02
7.116666666666666252e+00,1.643392383516979694e+09,-1.938881131851636352e-01,-1.415101193564417770e+00,1.733467109684092122e+00,-2.464623961313920919e+00,-1.052918130852799949e+00,-3.108648010342809354e-01,4.966122341676629248e-02
7.133333333333332860e+00,1.643392383534257650e+09,-2.007242039231267317e-01,-2.203424990848058762e+00,-1.419828079450472069e+00,-2.464623961313920919e+00,-1.220572519933721400e+00,-3.105168974549579741e-01,-7.753305342253005716e-03
7.149999999999999467e+00,1.643392383551210642e+09,-2.078235866099985008e-01,-2.155256771004280480e+00,-1.131006020830344516e+00,-2.496673687728925728e+00,-1.380953466333244561e+00,-3.111334714427077541e-01,-6.607356864346199121e-02
7.166666666666666963e+00,1.643392383567483902e+09,-2.151809892332839369e-01,-2.221148704737422541e+00,-1.106126218027861707e+00,-2.592822866973942819e+00,-1.533084690115037008e+00,-3.127441080622469505e-01,-1.270334886047971290e-01
7.183333333333333570e+00,1.643392383584440470e+09,-2.227878002603715935e-01,-2.298398809315175484e+00,-1.126679098603825979e+00,-2.688972046218959022e+00,-1.676045581522037864e+00,-3.153927391858904472e-01,-1.906255973284405048e-01
7.200000000000000178e+00,1.643392383601392508e+09,-2.306320128802480940e-01,-2.344008295111509987e+00,-1.020669504054116272e+00,-2.785121225463974781e+00,-1.808977818299935647e+00,-3.191171156862829261e-01,-2.561176560515721068e-01
7.216666666666666785e+00,1.643392383618349791e+09,-2.386982057771964705e-01,-2.392051674660262250e+00,-9.243954845140736065e-01,-2.881270404708991872e+00,-1.931091521625265539e+00,-3.239474828840881448e-01,-3.233396754585256549e-01
7.233333333333333393e+00,1.643392383634620190e+09,-2.469675611024846063e-01,-2.501992918502307539e+00,-9.795637429021880616e-01,-3.009469310369013773e+00,-2.041670903870746123e+00,-3.299193907520555635e-01,-3.930954979634424529e-01
7.250000000000000000e+00,1.643392383651575804e+09,-2.554179199253030497e-01,-2.543577124785037391e+00,-9.536022095430752854e-01,-3.073568763199024723e+00,-2.140079365355252783e+00,-3.370635968098854018e-01,-4.640122334079507804e-01
7.266666666666666607e+00,1.643392383669534445e+09,-2.640238750547782565e-01,-2.658354946058159030e+00,-9.319675984104816013e-01,-3.233817395274051876e+00,-2.225764001471622677e+00,-3.454076413782116717e-01,-5.370701712984542464e-01
7.283333333333333215e+00,1.643392383685456991e+09,-2.727569007347003249e-01,-2.685335789826388542e+00,-8.475926149933655784e-01,-3.297916848104062826e+00,-2.298259486133265472e+00,-3.549729671659963004e-01,-6.105647667766638254e-01
7.299999999999999822e+00,1.643392383704432964e+09,-2.815855183256091299e-01,-2.123133583300724325e+00,1.305067031864275862e+00,-3.265867121689058017e+00,-2.357191302291071100e+00,-3.656835398107836088e-01,-6.745262755584064962e-01
7.316666666666666430e+00,1.643392383722385406e+09,-2.904754967090219520e-01,-2.064168404050243932e+00,1.540927748866197211e+00,-3.265867121689058017e+00,-2.402278295310530165e+00,-3.774493863444183805e-01,-7.372012073474513150e-01
7.333333333333333037e+00,1.643392383739686489e+09,-2.993900857797282544e-01,-1.996779627763980658e+00,1.810482854011250309e+00,-3.265867121689058017e+00,-2.433334530223866032e+00,-3.902461401129422303e-01,-7.982396895453915953e-01
7.349999999999999645e+00,1.643392383755799294e+09,-3.082902810379646863e-01,-1.950680531192342304e+00,1.898730061052785523e+00,-3.233817395274051876e+00,-2.450270439243618981e+00,-4.040477432184644835e-01,-8.577872692804686672e-01
7.366666666666666252e+00,1.643392383771756411e+09,-3.171351169575941653e-01,-1.843269763941966621e+00,2.039925592319241865e+00,-3.137668216029035673e+00,-2.453093251399818264e+00,-4.188191355042685249e-01,-9.146219272503610664e-01
7.383333333333332860e+00,1.643392383788190365e+09,-3.258819864925387999e-01,-1.672200834584592899e+00,2.051157055033618892e+00,-2.913320131123996681e+00,-2.441906701700019333e+00,-4.345047488405455183e-01,-9.675047728521609658e-01
7.399999999999999467e+00,1.643392383805136681e+09,-3.344869837949294156e-01,-1.366444728527642205e+00,2.312689686811259637e+00,-2.592822866973942819e+00,-2.416910022766624699e+00,-4.510187549921319539e-01,-1.014046679222145642e+00
7.416666666666666963e+00,1.643392383821723700e+09,-3.429052669577505319e-01,-1.024216493939947181e+00,2.623961653466857058e+00,-2.240275876408881928e+00,-2.378396227435629395e+00,-4.682494429127355695e-01,-1.053526203324468336e+00
7.433333333333333570e+00,1.643392383837337971e+09,-3.510914373648073572e-01,-8.210877964039076105e-01,2.667283009650883496e+00,-1.983878065088837905e+00,-2.326749696261700251e+00,-4.860974802884281964e-01,-1.088142124159869217e+00
7.450000000000000178e+00,1.643392383856316566e+09,-3.589999320342097677e-01,-5.755002406025493400e-01,2.688141440406154992e+00,-1.663380800938784265e+00,-2.262443089224183801e+00,-5.044748657733864050e-01,-1.117063794172023172e+00
7.466666666666666785e+00,1.643392383871970654e+09,-3.665854251801404784e-01,-3.708574242659750664e-01,2.449071734057268745e+00,-1.310833810373723152e+00,-2.186033606124401896e+00,-5.232914653325522192e-01,-1.140862045119363621e+00
7.483333333333333393e+00,1.643392383889046907e+09,-3.738032350933847558e-01,-2.187015579039868762e-01,2.192352586300075235e+00,-1.022386272638674320e+00,-2.098158625167036551e+00,-5.424682622008113464e-01,-1.160299584635621439e+00
7.500000000000000000e+00,1.643392383904597998e+09,-3.806097323552172784e-01,-3.041443609765992484e-02,2.176307639565250973e+00,-7.659884613186302982e-01,-1.999530753987239340e+00,-5.619267044963578428e-01,-1.174673562174823216e+00
7.516666666666666607e+00,1.643392383923829556e+09,-3.869627453527976768e-01,1.458389756575483864e-01,2.112127852625952595e+00,-5.095906499985862759e-01,-1.890932331883959261e+00,-5.815833838658490684e-01,-1.184101772075772274e+00
7.533333333333333215e+00,1.643392383940785646e+09,-3.928219590578525544e-01,2.154537422081388431e-01,1.813691843358215205e+00,-3.172922915085532591e-01,-1.773209426213303797e+00,-6.013700226652034520e-01,-1.190277728009837332e+00
7.549999999999999822e+00,1.643392383957738400e+09,-3.981493030642920816e-01,3.612217551671805249e-01,1.627570461234250088e+00,-6.089448018850930622e-02,-1.647265369750890551e+00,-6.212212120307387675e-01,-1.191860598887363842e+00
7.566666666666666430e+00,1.643392383975809813e+09,-4.029093249543763688e-01,6.060974395047462604e-01,1.934028943869399386e+00,1.634536047165285888e-01,-1.514053889319243451e+00,-6.410463423627982271e-01,-1.187168076052212751e+00
7.583333333333333037e+00,1.643392383992799044e+09,-4.070695451765071193e-01,8.590859730826732044e-01,2.561386361201040796e+00,2.916525103765505444e-01,-1.374571879068018809e+00,-6.607397038871887229e-01,-1.176066146294244552e+00
7.599999999999999645e+00,1.643392384008721113e+09,-4.106007897696670739e-01,9.331432252763226520e-01,2.376869473750558459e+00,4.519011424515774755e-01,-1.229851874467344341e+00,-6.802193490291521538e-01,-1.161531645305464711e+00
7.616666666666666252e+00,1.643392384025699615e+09,-4.134774974586764018e-01,9.767753292557718181e-01,2.262950351933303850e+00,5.480503216965945112e-01,-1.080954285306986007e+00,-6.994321677032149243e-01,-1.144055142565588934e+00
7.633333333333332860e+00,1.643392384041357279e+09,-4.156779978689493782e-01,1.140714408455422157e+00,2.534109951751839507e+00,6.762492273566165224e-01,-9.289594477694446129e-01,-7.183124882446700887e-01,-1.121645572679367486e+00
7.649999999999999467e+00,1.643392384059332609e+09,-4.171847578673076318e-01,1.199188088164584221e+00,2.479557132853435597e+00,7.723984066016336136e-01,-7.749595569495314473e-01,-7.367930642200829494e-01,-1.096094521183703652e+00
7.666666666666666963e+00,1.643392384076289415e+09,-4.179845933241574385e-01,1.325451667828378088e+00,2.696163913773567788e+00,8.685475858466483734e-01,-6.200505420165939308e-01,-7.548124827621538468e-01,-1.066318417211436387e+00
7.683333333333333570e+00,1.643392384092529774e+09,-4.180688439092607456e-01,1.434126056665833371e+00,3.034712289878366054e+00,9.005973122616556248e-01,-4.653239465527032048e-01,-7.723033645196438757e-01,-1.032680833618727423e+00
7.700000000000000178e+00,1.643392384109800100e+09,-4.174335088753854395e-01,1.479763778987133627e+00,2.928815641428523797e+00,9.967464915066702735e-01,-3.118588764476110109e-01,-7.892107657467155590e-01,-9.963083506826636571e-01
7.716666666666666785e+00,1.643392384126747847e+09,-4.160793421480408760e-01,1.473315675002222491e+00,2.806874046243857723e+00,1.028796217921677636e+00,-1.607140770918158434e-01,-8.054969971305807608e-01,-9.581454260002917334e-01
7.733333333333333393e+00,1.643392384144700289e+09,-4.140119054217625827e-01,1.575912958232150052e+00,2.928815641428523797e+00,1.124945397166692285e+00,-1.292020048670783350e-02,-8.211178667000046394e-01,-9.164746771351104382e-01
7.750000000000000000e+00,1.643392384162654161e+09,-4.112415783603626251e-01,1.633243517518166765e+00,3.061988699327568231e+00,1.156995123581699536e+00,1.305276787035851704e-01,-8.360222477548630016e-01,-8.721741094765562696e-01
7.766666666666666607e+00,1.643392384176675558e+09,-4.077835254062992520e-01,1.642810234977094996e+00,2.907957210673252302e+00,1.221094576411709376e+00,2.686772411891830137e-01,-8.501740021856296625e-01,-8.261642304430183437e-01
7.783333333333333215e+00,1.643392384195797205e+09,-4.036576191189326646e-01,1.795608227335315998e+00,3.423000000861120995e+00,1.253144302826714185e+00,4.006257407094206968e-01,-8.635259508790819050e-01,-7.762083822821538304e-01
7.799999999999999822e+00,1.643392384213059664e+09,-3.988883203788495813e-01,1.943191612004721014e+00,3.917184360293719081e+00,1.285194029241721658e+00,5.255264097559202430e-01,-8.760145663963999629e-01,-7.225744664021583885e-01
7.816666666666666430e+00,1.643392384230015993e+09,-3.935045162116080353e-01,1.997283056652787270e+00,3.941251780395955695e+00,1.349293482071731276e+00,6.425944051368026599e-01,-8.875930506316808133e-01,-6.669980244703843653e-01
7.833333333333333037e+00,1.643392384244427681e+09,-3.875393163950747732e-01,1.969946396621619300e+00,3.639606781781253186e+00,1.413392934901741116e+00,7.511122488494506033e-01,-8.982417242950588854e-01,-6.109983733824884133e-01
7.849999999999999645e+00,1.643392384262854099e+09,-3.810298104159839938e-01,1.995959184483744542e+00,3.551359574739718195e+00,1.477492387731753398e+00,8.504347237697198469e-01,-9.079474937710216853e-01,-5.538527054356345847e-01
7.866666666666666252e+00,1.643392384278605700e+09,-3.740167867294992843e-01,1.959858054330389177e+00,3.406955054126297178e+00,1.477492387731753398e+00,9.399931880164164033e-01,-9.167013448823824184e-01,-4.967680002851603827e-01
7.883333333333332860e+00,1.643392384294833183e+09,-3.665444166465574027e-01,1.906879604814484930e+00,3.098892076817665320e+00,1.509542114146758207e+00,1.019299276479415317e+00,-9.245080324225661839e-01,-4.401916647234116464e-01
7.899999999999999467e+00,1.643392384311776638e+09,-3.586599055239725886e-01,2.046841639784846123e+00,3.562591037454095666e+00,1.541591840561763238e+00,1.087947962869071361e+00,-9.313507819714935687e-01,-3.811024217969189998e-01
7.916666666666666963e+00,1.643392384328930616e+09,-3.504131142581878855e-01,2.244595608291559241e+00,4.353606911480947694e+00,1.541591840561763238e+00,1.145619960717093155e+00,-9.371815926787731010e-01,-3.187680182728285794e-01
7.933333333333333570e+00,1.643392384348849535e+09,-3.418561543819562121e-01,2.279062118480450483e+00,4.395323772991490685e+00,1.573641566976770489e+00,1.192083446992128204e+00,-9.419709282280755991e-01,-2.561262566323164180e-01
7.950000000000000178e+00,1.643392384366151094e+09,-3.330429603310953723e-01,2.266597159469978529e+00,4.249314757704587997e+00,1.605691293391775298e+00,1.227195097348175779e+00,-9.457217585557684547e-01,-1.941455553576543203e-01
7.966666666666666785e+00,1.643392384382137060e+09,-3.240288426832011459e-01,2.114170165489145159e+00,3.639606781781253186e+00,1.605691293391775298e+00,1.250900427456019370e+00,-9.484659171013793966e-01,-1.353168869296239307e-01
7.983333333333333393e+00,1.643392384400086403e+09,-3.148700263692753576e-01,1.874268086512534071e+00,2.583849286629795738e+00,1.637741019806780329e+00,1.263233440335604696e+00,-9.502691552378533801e-01,-8.122195667901432881e-02
8.000000000000000000e+00,1.643392384419232130e+09,-3.056231780208033544e-01,1.823355505920449149e+00,2.476348143506470478e+00,1.605691293391775298e+00,1.264315585066730252e+00,-9.511851654269068979e-01,-2.884476164017443778e-02
8.016666666666665719e+00,1.643392384433219671e+09,-2.963449267370928952e-01,1.893552147885306791e+00,2.757134711365900603e+00,1.605691293391775298e+00,1.254354037663860888e+00,-9.512271370283101879e-01,2.366231305371492566e-02
8.033333333333333215e+00,1.643392384449177027e+09,-2.870913826394132506e-01,1.903981363262942539e+00,2.798851572876444926e+00,1.605691293391775298e+00,1.233639320215642377e+00,-9.504026636601830003e-01,7.513151774356414958e-02
8.050000000000000711e+00,1.643392384468126297e+09,-2.779176576188028824e-01,1.932461143717256524e+00,2.912770694693699980e+00,1.605691293391775298e+00,1.202542279568259875e+00,-9.487278406634088723e-01,1.257067518015486107e-01
8.066666666666666430e+00,1.643392384484488249e+09,-2.688773926827817684e-01,1.964922035564292901e+00,2.946465082836831062e+00,1.637741019806780329e+00,1.161510451834448343e+00,-9.462182663975067243e-01,1.753043856589587557e-01
8.083333333333333925e+00,1.643392384500367403e+09,-2.600222962625641232e-01,2.023887214814773294e+00,3.182325799838752189e+00,1.637741019806780329e+00,1.111063843796362693e+00,-9.428877387612775163e-01,2.242230423329151234e-01
8.099999999999999645e+00,1.643392384516343117e+09,-2.514016977570824318e-01,1.831347853996878161e+00,2.412168356567172101e+00,1.637741019806780329e+00,1.051790166803376003e+00,-9.387834373921810638e-01,2.681710413104895219e-01
8.116666666666667140e+00,1.643392384533827782e+09,-2.430621204638080124e-01,1.856618645104226806e+00,2.513251520996567123e+00,1.637741019806780329e+00,9.843395630097362403e-01,-9.339585653897806150e-01,3.106954727766551572e-01
8.133333333333332860e+00,1.643392384550460100e+09,-2.350468778802839998e-01,1.905956856313812731e+00,2.710604365834909490e+00,1.637741019806780329e+00,9.094188677184922298e-01,-9.284343598241029394e-01,3.520941959448492531e-01
8.150000000000000355e+00,1.643392384567856312e+09,-2.273956971558225848e-01,1.930796398461807506e+00,2.713813355181874165e+00,1.669790746221785138e+00,8.277854551660860372e-01,-9.222337379489748965e-01,3.918699382968527933e-01
8.166666666666666075e+00,1.643392384585017920e+09,-2.201443732319980362e-01,1.935980880859644371e+00,2.638402105528199204e+00,1.701840472636792390e+00,7.402407182692034571e-01,-9.153870565194742737e-01,4.296269501861662565e-01
8.183333333333333570e+00,1.643392384603610992e+09,-2.133244569355098041e-01,2.108433932968025282e+00,3.232065134716708865e+00,1.733890199051797421e+00,6.476232356369717724e-01,-9.079052796471152043e-01,4.680794594572237344e-01
8.199999999999999289e+00,1.643392384618897915e+09,-2.069629799803683889e-01,2.215473701841012666e+00,3.467925851718629549e+00,1.797989651881807038e+00,5.508016815045998493e-01,-8.997865273550871290e-01,5.060652968876224733e-01
8.216666666666666785e+00,1.643392384636875153e+09,-2.010822195009973057e-01,2.330997318331749835e+00,3.930020317681578668e+00,1.797989651881807038e+00,4.506675361533216684e-01,-8.910377987939394062e-01,5.436776492345593015e-01
8.233333333333332504e+00,1.643392384651809692e+09,-1.956995043770032860e-01,2.568432404716172179e+00,4.783611483974246958e+00,1.830039378296814512e+00,3.481276558277879851e-01,-8.816487609373800938e-01,5.828979457203993242e-01
8.250000000000000000e+00,1.643392384669256449e+09,-1.908270652272966161e-01,2.543933735654581696e+00,4.589467628482869266e+00,1.862089104711819321e+00,2.440967621393521636e-01,-8.716292211669833812e-01,6.193455809132348833e-01
8.266666666666665719e+00,1.643392384686223984e+09,-1.864719295498350471e-01,2.500151005220218714e+00,4.222038348255386708e+00,1.926188557541829161e+00,1.394899114391278672e-01,-8.610277506185870511e-01,6.527381256424943379e-01
8.283333333333333215e+00,1.643392384703226089e+09,-1.826358630670870120e-01,2.412274796556072243e+00,3.774384334353780179e+00,1.958238283956836412e+00,3.521500466166127552e-02,-8.499008898609189400e-01,6.824027615717884743e-01
8.300000000000000711e+00,1.643392384721775770e+09,-1.793153579105091766e-01,2.301133415126428883e+00,3.233669629390190536e+00,1.990288010371841443e+00,-6.783460232903626430e-02,-8.383132999649414163e-01,7.080368185557674998e-01
8.316666666666666430e+00,1.643392384737930298e+09,-1.765016678438828257e-01,2.281047106416914882e+00,3.057175215307120553e+00,2.022337736786846030e+00,-1.687873288019181572e-01,-8.263187343465732138e-01,7.312465825643159612e-01
8.333333333333333925e+00,1.643392384753934860e+09,-1.741808902894502187e-01,2.247382843564766475e+00,3.018667343143541792e+00,1.990288010371841443e+00,-2.668003819565986090e-01,-8.139587324088384257e-01,7.518962883200506209e-01
8.349999999999999645e+00,1.643392384771504402e+09,-1.723340944865965896e-01,2.241767112207578183e+00,2.996204417714787294e+00,1.990288010371841443e+00,-3.610664966543117860e-01,-8.012712165865859548e-01,7.705537827570192455e-01
8.366666666666667140e+00,1.643392384786791325e+09,-1.709374946844225973e-01,2.011923250231215654e+00,2.076828969809338510e+00,1.990288010371841443e+00,-4.508203485956050471e-01,-7.883194625018749013e-01,7.836204103662349763e-01
8.383333333333332860e+00,1.643392384804744959e+09,-1.699626668511669547e-01,1.941786858848322694e+00,1.988581762767803296e+00,1.926188557541829161e+00,-5.353445901971962684e-01,-7.751730978632678237e-01,7.939147502051466798e-01
8.400000000000000355e+00,1.643392384820723057e+09,-1.693768069789876596e-01,1.671118758571107143e+00,1.194356899393986149e+00,1.830039378296814512e+00,-6.139754615602981414e-01,-7.619048281016204127e-01,7.982655353936795040e-01
8.416666666666666075e+00,1.643392384840351582e+09,-1.691430286759512402e-01,1.276380354477594237e+00,0.000000000000000000e+00,1.701840472636792390e+00,-6.861079324402112878e-01,-7.486291306243251231e-01,7.948277116170072709e-01
8.433333333333333570e+00,1.643392384855727911e+09,-1.692206973720258578e-01,1.156193880421322318e+00,0.000000000000000000e+00,1.541591840561763238e+00,-7.512003349908185079e-01,-7.354358461869247021e-01,7.883843196034485690e-01
8.449999999999999289e+00,1.643392384870796680e+09,-1.695657981257831515e-01,1.084081995987561386e+00,0.000000000000000000e+00,1.445442661316748589e+00,-8.087784512398255021e-01,-7.223669744995028230e-01,7.799038403284889176e-01
8.466666666666666785e+00,1.643392384888746500e+09,-1.701313337067426601e-01,1.011970111553798457e+00,0.000000000000000000e+00,1.349293482071731276e+00,-8.584390237144696734e-01,-7.094550920778104341e-01,7.695508093707853492e-01
8.483333333333332504e+00,1.643392384903809547e+09,-1.708677493477900600e-01,8.917836374975284253e-01,0.000000000000000000e+00,1.189044849996704567e+00,-8.998526623501303945e-01,-6.967366504944768613e-01,7.566978840399083417e-01
8.500000000000000000e+00,1.643392384922014952e+09,-1.717233803155149841e-01,7.956344582525118891e-01,0.000000000000000000e+00,1.060845944336682445e+00,-9.327661257352244384e-01,-6.842484752774632417e-01,7.419241810315161390e-01
8.516666666666665719e+00,1.643392384938993454e+09,-1.726449182360762502e-01,6.754479841962417463e-01,0.000000000000000000e+00,9.005973122616556248e-01,-9.570039598379814771e-01,-6.720244358501981097e-01,7.250075420102219947e-01
8.533333333333333215e+00,1.643392384955237389e+09,-1.735778919422258371e-01,6.273733945737325346e-01,0.000000000000000000e+00,8.364978594316434535e-01,-9.724694825812987276e-01,-6.600887800640233838e-01,7.073202847572545027e-01
8.550000000000000711e+00,1.643392384973904610e+09,-1.744671584751024407e-01,5.792988049512252102e-01,0.000000000000000000e+00,7.723984066016336136e-01,-9.791451079409250191e-01,-6.484530310529462716e-01,6.890204306963491065e-01
8.566666666666666430e+00,1.643392384988985538e+09,-1.752573997836113229e-01,5.552615101399697162e-01,0.000000000000000000e+00,7.403486801866263622e-01,-9.770920085955407952e-01,-6.371227884926241591e-01,6.706596798284342187e-01
8.583333333333333925e+00,1.643392385007188797e+09,-1.758936206153378645e-01,5.071869205174623918e-01,0.000000000000000000e+00,6.762492273566165224e-01,-9.664491215137547275e-01,-6.261011925361282815e-01,6.519837138553333800e-01
8.599999999999999645e+00,1.643392385024142742e+09,-1.763216430866963724e-01,4.831496257062087296e-01,0.000000000000000000e+00,6.441995009416116025e-01,-9.474315061782310199e-01,-6.153889764660789297e-01,6.335334664440837038e-01
8.616666666666667140e+00,1.643392385042094946e+09,-1.764885934561639114e-01,4.591123308949532356e-01,0.000000000000000000e+00,6.121497745266043511e-01,-9.203280703799461282e-01,-6.049812926652488043e-01,6.154388536518370367e-01
8.633333333333332860e+00,1.643392385059733629e+09,-1.763433767027970667e-01,4.110377412724459112e-01,0.000000000000000000e+00,5.480503216965945112e-01,-8.854986836234146619e-01,-5.948745159413706407e-01,5.974243945554428281e-01
8.650000000000000355e+00,1.643392385076687098e+09,-1.758371346319136941e-01,3.870004464611922490e-01,0.000000000000000000e+00,5.160005952815897023e-01,-8.433707031258168563e-01,-5.850629933418196593e-01,5.800067010114814403e-01
8.666666666666666075e+00,1.643392385093024254e+09,-1.749236833896570809e-01,3.148885620274294306e-01,0.000000000000000000e+00,4.198514160365725556e-01,-7.944349421306788894e-01,-5.755425609918782826e-01,5.624938289931525892e-01
8.683333333333333570e+00,1.643392385111102581e+09,-1.735599264666603248e-01,2.668139724049202743e-01,0.000000000000000000e+00,3.557519632065603843e-01,-7.392411147508283209e-01,-5.663106076429494928e-01,5.453880899384586645e-01
8.699999999999999289e+00,1.643392385127473593e+09,-1.717062395060707236e-01,2.427766775936666122e-01,0.000000000000000000e+00,3.237022367915554644e-01,-6.783927957718571822e-01,-5.573563029346930708e-01,5.291735165938991070e-01
8.716666666666666785e+00,1.643392385143405199e+09,-1.693268235007601152e-01,4.712596363502551955e-01,1.202379372761398502e+00,2.275530575465407879e-01,-6.125419377505694207e-01,-5.486293480169142089e-01,5.180918566527816793e-01
