# 
# 
# 
# 
# 
# 
# 
# 
# 
# 
# time,realtime,ref,inp,dis,state...
0.000000000000000000e+00,1.643392422643175602e+09,0.000000000000000000e+00,-1.391759369571611948e+00,0.000000000000000000e+00,-8.629388837240221655e-01
1.666666666666666644e-02,1.643392422644204378e+09,0.000000000000000000e+00,-8.629388837240221655e-01,-5.997465898830154352e-01,-8.629388837240221655e-01
3.333333333333333287e-02,1.643392422644204378e+09,0.000000000000000000e+00,-1.391759369571611948e+00,0.000000000000000000e+00,-1.391759369571611948e+00
5.000000000000000278e-02,1.643392422664144278e+09,0.000000000000000000e+00,-1.103311831836563339e+00,0.000000000000000000e+00,-1.103311831836563339e+00
6.666666666666666574e-02,1.643392422680074930e+09,0.000000000000000000e+00,-8.629388837240221655e-01,0.000000000000000000e+00,-8.629388837240221655e-01
8.333333333333332871e-02,1.643392422696066141e+09,0.000000000000000000e+00,-8.148642941015139529e-01,0.000000000000000000e+00,-8.148642941015139529e-01
1.000000000000000056e-01,1.643392422714981318e+09,0.000000000000000000e+00,-8.148642941015139529e-01,0.000000000000000000e+00,-8.148642941015139529e-01
1.166666666666666685e-01,1.643392422732867718e+09,0.000000000000000000e+00,-8.389015889127675596e-01,0.000000000000000000e+00,-8.389015889127675596e-01
1.333333333333333315e-01,1.643392422749399662e+09,0.000000000000000000e+00,-8.148642941015139529e-01,0.000000000000000000e+00,-8.148642941015139529e-01
1.499999999999999944e-01,1.643392422766247988e+09,0.000000000000000000e+00,-8.148642941015139529e-01,0.000000000000000000e+00,-8.148642941015139529e-01
1.666666666666666574e-01,1.643392422780386209e+09,0.000000000000000000e+00,-8.148642941015139529e-01,0.000000000000000000e+00,-8.148642941015139529e-01
1.833333333333333204e-01,1.643392422797448635e+09,0.000000000000000000e+00,-8.148642941015139529e-01,0.000000000000000000e+00,-8.148642941015139529e-01
2.000000000000000111e-01,1.643392422816133976e+09,0.000000000000000000e+00,-8.148642941015139529e-01,0.000000000000000000e+00,-8.148642941015139529e-01
2.166666666666666741e-01,1.643392422833428144e+09,0.000000000000000000e+00,-8.148642941015139529e-01,0.000000000000000000e+00,-8.148642941015139529e-01
2.333333333333333370e-01,1.643392422849644423e+09,0.000000000000000000e+00,-8.148642941015139529e-01,0.000000000000000000e+00,-8.148642941015139529e-01
2.500000000000000000e-01,1.643392422867016315e+09,0.000000000000000000e+00,-8.148642941015139529e-01,0.000000000000000000e+00,-8.148642941015139529e-01
2.666666666666666630e-01,1.643392422882658958e+09,0.000000000000000000e+00,-8.148642941015139529e-01,0.000000000000000000e+00,-8.148642941015139529e-01
2.833333333333333259e-01,1.643392422900404930e+09,0.000000000000000000e+00,-8.148642941015139529e-01,0.000000000000000000e+00,-8.148642941015139529e-01
2.999999999999999889e-01,1.643392422918755293e+09,0.000000000000000000e+00,-8.148642941015139529e-01,0.000000000000000000e+00,-8.148642941015139529e-01
3.166666666666666519e-01,1.643392422934974909e+09,0.000000000000000000e+00,-8.148642941015139529e-01,0.000000000000000000e+00,-8.148642941015139529e-01
3.333333333333333148e-01,1.643392422950927019e+09,0.000000000000000000e+00,-8.148642941015139529e-01,0.000000000000000000e+00,-8.148642941015139529e-01
3.499999999999999778e-01,1.643392422968880415e+09,0.000000000000000000e+00,-8.148642941015139529e-01,0.000000000000000000e+00,-8.148642941015139529e-01
3.666666666666666408e-01,1.643392422985195637e+09,0.000000000000000000e+00,-8.389015889127675596e-01,0.000000000000000000e+00,-8.389015889127675596e-01
3.833333333333333037e-01,1.643392423001151800e+09,0.000000000000000000e+00,-7.908269992902593470e-01,0.000000000000000000e+00,-7.908269992902593470e-01
4.000000000000000222e-01,1.643392423018391132e+09,0.000000000000000000e+00,-8.148642941015139529e-01,0.000000000000000000e+00,-8.148642941015139529e-01
4.166666666666666852e-01,1.643392423035784483e+09,0.000000000000000000e+00,-8.148642941015139529e-01,0.000000000000000000e+00,-8.148642941015139529e-01
4.333333333333333481e-01,1.643392423053109169e+09,0.000000000000000000e+00,-8.148642941015139529e-01,0.000000000000000000e+00,-8.148642941015139529e-01
4.500000000000000111e-01,1.643392423069066048e+09,0.000000000000000000e+00,-8.148642941015139529e-01,0.000000000000000000e+00,-8.148642941015139529e-01
4.666666666666666741e-01,1.643392423085471392e+09,0.000000000000000000e+00,-8.148642941015139529e-01,0.000000000000000000e+00,-8.148642941015139529e-01
4.833333333333333370e-01,1.643392423104446888e+09,0.000000000000000000e+00,-8.148642941015139529e-01,0.000000000000000000e+00,-8.148642941015139529e-01
5.000000000000000000e-01,1.643392423119999886e+09,0.000000000000000000e+00,-8.148642941015139529e-01,0.000000000000000000e+00,-8.148642941015139529e-01
5.166666666666666075e-01,1.643392423138313770e+09,0.000000000000000000e+00,-8.148642941015139529e-01,0.000000000000000000e+00,-8.148642941015139529e-01
5.333333333333333259e-01,1.643392423153865099e+09,0.000000000000000000e+00,-8.148642941015139529e-01,0.000000000000000000e+00,-8.148642941015139529e-01
5.500000000000000444e-01,1.643392423171692610e+09,0.000000000000000000e+00,-8.148642941015139529e-01,0.000000000000000000e+00,-8.148642941015139529e-01
5.666666666666666519e-01,1.643392423189644814e+09,0.000000000000000000e+00,-8.148642941015139529e-01,0.000000000000000000e+00,-8.148642941015139529e-01
5.833333333333333703e-01,1.643392423204259872e+09,0.000000000000000000e+00,-8.148642941015139529e-01,0.000000000000000000e+00,-8.148642941015139529e-01
5.999999999999999778e-01,1.643392423223305941e+09,0.000000000000000000e+00,-8.148642941015139529e-01,0.000000000000000000e+00,-8.148642941015139529e-01
6.166666666666666963e-01,1.643392423239069223e+09,0.000000000000000000e+00,-8.148642941015139529e-01,0.000000000000000000e+00,-8.148642941015139529e-01
6.333333333333333037e-01,1.643392423257610559e+09,0.000000000000000000e+00,-8.148642941015139529e-01,0.000000000000000000e+00,-8.148642941015139529e-01
6.500000000000000222e-01,1.643392423271438360e+09,0.000000000000000000e+00,-8.389015889127675596e-01,0.000000000000000000e+00,-8.389015889127675596e-01
6.666666666666666297e-01,1.643392423289738655e+09,0.000000000000000000e+00,-8.148642941015139529e-01,0.000000000000000000e+00,-8.148642941015139529e-01
6.833333333333333481e-01,1.643392423307014942e+09,0.000000000000000000e+00,-8.148642941015139529e-01,0.000000000000000000e+00,-8.148642941015139529e-01
6.999999999999999556e-01,1.643392423325685501e+09,0.000000000000000000e+00,-8.148642941015139529e-01,0.000000000000000000e+00,-8.148642941015139529e-01
7.166666666666666741e-01,1.643392423340236902e+09,0.000000000000000000e+00,-8.148642941015139529e-01,0.000000000000000000e+00,-8.148642941015139529e-01
7.333333333333332815e-01,1.643392423358126879e+09,0.000000000000000000e+00,-8.148642941015139529e-01,0.000000000000000000e+00,-8.148642941015139529e-01
7.500000000000000000e-01,1.643392423375918388e+09,0.000000000000000000e+00,-8.148642941015139529e-01,0.000000000000000000e+00,-8.148642941015139529e-01
7.666666666666666075e-01,1.643392423393273592e+09,0.000000000000000000e+00,-8.148642941015139529e-01,0.000000000000000000e+00,-8.148642941015139529e-01
7.833333333333333259e-01,1.643392423410495281e+09,0.000000000000000000e+00,-8.148642941015139529e-01,0.000000000000000000e+00,-8.148642941015139529e-01
8.000000000000000444e-01,1.643392423426696062e+09,0.000000000000000000e+00,-8.148642941015139529e-01,0.000000000000000000e+00,-8.148642941015139529e-01
8.166666666666666519e-01,1.643392423444837093e+09,0.000000000000000000e+00,-8.148642941015139529e-01,0.000000000000000000e+00,-8.148642941015139529e-01
8.333333333333333703e-01,1.643392423461781740e+09,0.000000000000000000e+00,-8.389015889127675596e-01,0.000000000000000000e+00,-8.389015889127675596e-01
8.499999999999999778e-01,1.643392423479960442e+09,0.000000000000000000e+00,-8.148642941015139529e-01,0.000000000000000000e+00,-8.148642941015139529e-01
8.666666666666666963e-01,1.643392423496295214e+09,0.000000000000000000e+00,-8.148642941015139529e-01,0.000000000000000000e+00,-8.148642941015139529e-01
8.833333333333333037e-01,1.643392423510693312e+09,0.000000000000000000e+00,-8.148642941015139529e-01,0.000000000000000000e+00,-8.148642941015139529e-01
9.000000000000000222e-01,1.643392423528671980e+09,0.000000000000000000e+00,-8.148642941015139529e-01,0.000000000000000000e+00,-8.148642941015139529e-01
9.166666666666666297e-01,1.643392423546259165e+09,0.000000000000000000e+00,-8.148642941015139529e-01,0.000000000000000000e+00,-8.148642941015139529e-01
9.333333333333333481e-01,1.643392423563216209e+09,0.000000000000000000e+00,-8.389015889127675596e-01,0.000000000000000000e+00,-8.389015889127675596e-01
9.499999999999999556e-01,1.643392423579173565e+09,0.000000000000000000e+00,-8.148642941015139529e-01,0.000000000000000000e+00,-8.148642941015139529e-01
9.666666666666666741e-01,1.643392423595487118e+09,0.000000000000000000e+00,-8.148642941015139529e-01,0.000000000000000000e+00,-8.148642941015139529e-01
9.833333333333332815e-01,1.643392423613622665e+09,0.000000000000000000e+00,-8.148642941015139529e-01,0.000000000000000000e+00,-8.148642941015139529e-01
1.000000000000000000e+00,1.643392423631575346e+09,0.000000000000000000e+00,-8.148642941015139529e-01,0.000000000000000000e+00,-8.148642941015139529e-01
1.016666666666666607e+00,1.643392423647561073e+09,0.000000000000000000e+00,-8.148642941015139529e-01,0.000000000000000000e+00,-8.148642941015139529e-01
1.033333333333333215e+00,1.643392423663514137e+09,0.000000000000000000e+00,-8.148642941015139529e-01,0.000000000000000000e+00,-8.148642941015139529e-01
1.050000000000000044e+00,1.643392423681778193e+09,0.000000000000000000e+00,-8.148642941015139529e-01,0.000000000000000000e+00,-8.148642941015139529e-01
1.066666666666666652e+00,1.643392423698998451e+09,0.000000000000000000e+00,-8.148642941015139529e-01,0.000000000000000000e+00,-8.148642941015139529e-01
1.083333333333333259e+00,1.643392423714928627e+09,0.000000000000000000e+00,-8.148642941015139529e-01,0.000000000000000000e+00,-8.148642941015139529e-01
1.100000000000000089e+00,1.643392423733881474e+09,0.000000000000000000e+00,-8.148642941015139529e-01,0.000000000000000000e+00,-8.148642941015139529e-01
1.116666666666666696e+00,1.643392423751830816e+09,0.000000000000000000e+00,-8.148642941015139529e-01,0.000000000000000000e+00,-8.148642941015139529e-01
1.133333333333333304e+00,1.643392423765794039e+09,0.000000000000000000e+00,-8.148642941015139529e-01,0.000000000000000000e+00,-8.148642941015139529e-01
1.149999999999999911e+00,1.643392423783745289e+09,0.000000000000000000e+00,-8.148642941015139529e-01,0.000000000000000000e+00,-8.148642941015139529e-01
1.166666666666666741e+00,1.643392423801697254e+09,0.000000000000000000e+00,-8.148642941015139529e-01,0.000000000000000000e+00,-8.148642941015139529e-01
1.183333333333333348e+00,1.643392423818676710e+09,0.000000000000000000e+00,-8.148642941015139529e-01,0.000000000000000000e+00,-8.148642941015139529e-01
1.199999999999999956e+00,1.643392423833611965e+09,0.000000000000000000e+00,-8.148642941015139529e-01,0.000000000000000000e+00,-8.148642941015139529e-01
1.216666666666666563e+00,1.643392423852596045e+09,0.000000000000000000e+00,-8.148642941015139529e-01,0.000000000000000000e+00,-8.148642941015139529e-01
1.233333333333333393e+00,1.643392423869515181e+09,0.000000000000000000e+00,-8.148642941015139529e-01,0.000000000000000000e+00,-8.148642941015139529e-01
1.250000000000000000e+00,1.643392423884476423e+09,0.000000000000000000e+00,-8.148642941015139529e-01,0.000000000000000000e+00,-8.148642941015139529e-01
1.266666666666666607e+00,1.643392423902428150e+09,0.000000000000000000e+00,-8.148642941015139529e-01,0.000000000000000000e+00,-8.148642941015139529e-01
1.283333333333333215e+00,1.643392423920405865e+09,0.000000000000000000e+00,-8.148642941015139529e-01,0.000000000000000000e+00,-8.148642941015139529e-01
1.300000000000000044e+00,1.643392423935340881e+09,0.000000000000000000e+00,-8.148642941015139529e-01,0.000000000000000000e+00,-8.148642941015139529e-01
1.316666666666666652e+00,1.643392423960273027e+09,0.000000000000000000e+00,-8.148642941015139529e-01,0.000000000000000000e+00,-8.148642941015139529e-01
1.333333333333333259e+00,1.643392423969248772e+09,0.000000000000000000e+00,-8.148642941015139529e-01,0.000000000000000000e+00,-8.148642941015139529e-01
1.350000000000000089e+00,1.643392423990193605e+09,0.000000000000000000e+00,-8.389015889127675596e-01,0.000000000000000000e+00,-8.389015889127675596e-01
1.366666666666666696e+00,1.643392424005152702e+09,0.000000000000000000e+00,-8.148642941015139529e-01,0.000000000000000000e+00,-8.148642941015139529e-01
1.383333333333333304e+00,1.643392424027096033e+09,0.000000000000000000e+00,-8.148642941015139529e-01,0.000000000000000000e+00,-8.148642941015139529e-01
1.399999999999999911e+00,1.643392424044050694e+09,0.000000000000000000e+00,-8.148642941015139529e-01,0.000000000000000000e+00,-8.148642941015139529e-01
1.416666666666666741e+00,1.643392424061004162e+09,0.000000000000000000e+00,-8.148642941015139529e-01,0.000000000000000000e+00,-8.148642941015139529e-01
1.433333333333333348e+00,1.643392424076961517e+09,0.000000000000000000e+00,-8.148642941015139529e-01,0.000000000000000000e+00,-8.148642941015139529e-01
1.449999999999999956e+00,1.643392424093915224e+09,0.000000000000000000e+00,-8.148642941015139529e-01,0.000000000000000000e+00,-8.148642941015139529e-01
1.466666666666666563e+00,1.643392424111867428e+09,0.000000000000000000e+00,-8.148642941015139529e-01,0.000000000000000000e+00,-8.148642941015139529e-01
1.483333333333333393e+00,1.643392424128822327e+09,0.000000000000000000e+00,-8.148642941015139529e-01,0.000000000000000000e+00,-8.148642941015139529e-01
1.500000000000000000e+00,1.643392424143815994e+09,0.000000000000000000e+00,-8.148642941015139529e-01,0.000000000000000000e+00,-8.148642941015139529e-01
1.516666666666666607e+00,1.643392424162731171e+09,0.000000000000000000e+00,-8.148642941015139529e-01,0.000000000000000000e+00,-8.148642941015139529e-01
1.533333333333333215e+00,1.643392424177724838e+09,0.000000000000000000e+00,-8.148642941015139529e-01,0.000000000000000000e+00,-8.148642941015139529e-01
1.550000000000000044e+00,1.643392424195697784e+09,0.000000000000000000e+00,-8.148642941015139529e-01,0.000000000000000000e+00,-8.148642941015139529e-01
1.566666666666666652e+00,1.643392424212598801e+09,0.000000000000000000e+00,-8.148642941015139529e-01,0.000000000000000000e+00,-8.148642941015139529e-01
1.583333333333333259e+00,1.643392424229553461e+09,0.000000000000000000e+00,-8.148642941015139529e-01,0.000000000000000000e+00,-8.148642941015139529e-01
1.600000000000000089e+00,1.643392424246552706e+09,0.000000000000000000e+00,-8.148642941015139529e-01,0.000000000000000000e+00,-8.148642941015139529e-01
1.616666666666666696e+00,1.643392424263506889e+09,0.000000000000000000e+00,-8.148642941015139529e-01,0.000000000000000000e+00,-8.148642941015139529e-01
1.633333333333333304e+00,1.643392424278692245e+09,0.000000000000000000e+00,-8.148642941015139529e-01,0.000000000000000000e+00,-8.148642941015139529e-01
1.649999999999999911e+00,1.643392424296654940e+09,0.000000000000000000e+00,-8.148642941015139529e-01,0.000000000000000000e+00,-8.148642941015139529e-01
1.666666666666666741e+00,1.643392424313610077e+09,0.000000000000000000e+00,-8.148642941015139529e-01,0.000000000000000000e+00,-8.148642941015139529e-01
1.683333333333333348e+00,1.643392424333105803e+09,0.000000000000000000e+00,-8.148642941015139529e-01,0.000000000000000000e+00,-8.148642941015139529e-01
1.699999999999999956e+00,1.643392424347266674e+09,0.000000000000000000e+00,-8.148642941015139529e-01,0.000000000000000000e+00,-8.148642941015139529e-01
1.716666666666666563e+00,1.643392424363643646e+09,0.000000000000000000e+00,-8.148642941015139529e-01,0.000000000000000000e+00,-8.148642941015139529e-01
1.733333333333333393e+00,1.643392424381562710e+09,0.000000000000000000e+00,-8.148642941015139529e-01,0.000000000000000000e+00,-8.148642941015139529e-01
1.750000000000000000e+00,1.643392424398572922e+09,0.000000000000000000e+00,-8.148642941015139529e-01,0.000000000000000000e+00,-8.148642941015139529e-01
1.766666666666666607e+00,1.643392424413502216e+09,0.000000000000000000e+00,-8.148642941015139529e-01,0.000000000000000000e+00,-8.148642941015139529e-01
1.783333333333333215e+00,1.643392424429869652e+09,0.000000000000000000e+00,-8.148642941015139529e-01,0.000000000000000000e+00,-8.148642941015139529e-01
1.800000000000000044e+00,1.643392424447801113e+09,0.000000000000000000e+00,-8.148642941015139529e-01,0.000000000000000000e+00,-8.148642941015139529e-01
1.816666666666666652e+00,1.643392424464756489e+09,0.000000000000000000e+00,-7.908269992902593470e-01,0.000000000000000000e+00,-7.908269992902593470e-01
1.833333333333333259e+00,1.643392424480713844e+09,0.000000000000000000e+00,-8.148642941015139529e-01,0.000000000000000000e+00,-8.148642941015139529e-01
1.849999999999999867e+00,1.643392424497086287e+09,0.000000000000000000e+00,-8.148642941015139529e-01,0.000000000000000000e+00,-8.148642941015139529e-01
1.866666666666666696e+00,1.643392424513762951e+09,0.000000000000000000e+00,-8.389015889127675596e-01,0.000000000000000000e+00,-8.389015889127675596e-01
1.883333333333333304e+00,1.643392424530716896e+09,0.000000000000000000e+00,-8.148642941015139529e-01,0.000000000000000000e+00,-8.148642941015139529e-01
1.899999999999999911e+00,1.643392424548623085e+09,0.000000000000000000e+00,-8.148642941015139529e-01,0.000000000000000000e+00,-8.148642941015139529e-01
1.916666666666666741e+00,1.643392424565947771e+09,0.000000000000000000e+00,-8.148642941015139529e-01,0.000000000000000000e+00,-8.148642941015139529e-01
1.933333333333333348e+00,1.643392424582927704e+09,0.000000000000000000e+00,-8.148642941015139529e-01,0.000000000000000000e+00,-8.148642941015139529e-01
1.949999999999999956e+00,1.643392424598886728e+09,0.000000000000000000e+00,-8.148642941015139529e-01,0.000000000000000000e+00,-8.148642941015139529e-01
1.966666666666666563e+00,1.643392424617407560e+09,0.000000000000000000e+00,-8.148642941015139529e-01,0.000000000000000000e+00,-8.148642941015139529e-01
1.983333333333333393e+00,1.643392424632585764e+09,0.000000000000000000e+00,-8.148642941015139529e-01,0.000000000000000000e+00,-8.148642941015139529e-01
2.000000000000000000e+00,1.643392424652557850e+09,0.000000000000000000e+00,-8.148642941015139529e-01,0.000000000000000000e+00,-8.148642941015139529e-01
2.016666666666666607e+00,1.643392424667500496e+09,0.000000000000000000e+00,-8.148642941015139529e-01,0.000000000000000000e+00,-8.148642941015139529e-01
2.033333333333333215e+00,1.643392424684447289e+09,0.000000000000000000e+00,-8.148642941015139529e-01,0.000000000000000000e+00,-8.148642941015139529e-01
2.049999999999999822e+00,1.643392424701841116e+09,0.000000000000000000e+00,-8.148642941015139529e-01,0.000000000000000000e+00,-8.148642941015139529e-01
2.066666666666666430e+00,1.643392424717882395e+09,0.000000000000000000e+00,-8.148642941015139529e-01,0.000000000000000000e+00,-8.148642941015139529e-01
2.083333333333333481e+00,1.643392424734402657e+09,0.000000000000000000e+00,-8.148642941015139529e-01,0.000000000000000000e+00,-8.148642941015139529e-01
2.100000000000000089e+00,1.643392424752713919e+09,0.000000000000000000e+00,-8.148642941015139529e-01,0.000000000000000000e+00,-8.148642941015139529e-01
2.116666666666666696e+00,1.643392424768049002e+09,0.000000000000000000e+00,-8.148642941015139529e-01,0.000000000000000000e+00,-8.148642941015139529e-01
2.133333333333333304e+00,1.643392424784431458e+09,0.000000000000000000e+00,-8.148642941015139529e-01,0.000000000000000000e+00,-8.148642941015139529e-01
2.149999999999999911e+00,1.643392424802716732e+09,0.000000000000000000e+00,-8.148642941015139529e-01,0.000000000000000000e+00,-8.148642941015139529e-01
2.166666666666666519e+00,1.643392424817910910e+09,0.000000000000000000e+00,-8.148642941015139529e-01,0.000000000000000000e+00,-8.148642941015139529e-01
2.183333333333333126e+00,1.643392424834845304e+09,0.000000000000000000e+00,-8.148642941015139529e-01,0.000000000000000000e+00,-8.148642941015139529e-01
2.200000000000000178e+00,1.643392424852919102e+09,0.000000000000000000e+00,-8.148642941015139529e-01,0.000000000000000000e+00,-8.148642941015139529e-01
2.216666666666666785e+00,1.643392424869429350e+09,0.000000000000000000e+00,-8.148642941015139529e-01,0.000000000000000000e+00,-8.148642941015139529e-01
2.233333333333333393e+00,1.643392424885381699e+09,0.000000000000000000e+00,-8.148642941015139529e-01,0.000000000000000000e+00,-8.148642941015139529e-01
2.250000000000000000e+00,1.643392424903312922e+09,0.000000000000000000e+00,-8.148642941015139529e-01,0.000000000000000000e+00,-8.148642941015139529e-01
2.266666666666666607e+00,1.643392424920288324e+09,0.000000000000000000e+00,-8.148642941015139529e-01,0.000000000000000000e+00,-8.148642941015139529e-01
2.283333333333333215e+00,1.643392424937223196e+09,0.000000000000000000e+00,-8.148642941015139529e-01,0.000000000000000000e+00,-8.148642941015139529e-01
2.299999999999999822e+00,1.643392424955310583e+09,0.000000000000000000e+00,-8.148642941015139529e-01,0.000000000000000000e+00,-8.148642941015139529e-01
2.316666666666666430e+00,1.643392424969970942e+09,0.000000000000000000e+00,-8.148642941015139529e-01,0.000000000000000000e+00,-8.148642941015139529e-01
2.333333333333333481e+00,1.643392424986284971e+09,0.000000000000000000e+00,-8.148642941015139529e-01,0.000000000000000000e+00,-8.148642941015139529e-01
2.350000000000000089e+00,1.643392425005262375e+09,0.000000000000000000e+00,-8.148642941015139529e-01,0.000000000000000000e+00,-8.148642941015139529e-01
2.366666666666666696e+00,1.643392425020492077e+09,0.000000000000000000e+00,-8.148642941015139529e-01,0.000000000000000000e+00,-8.148642941015139529e-01
2.383333333333333304e+00,1.643392425038442612e+09,0.000000000000000000e+00,-8.148642941015139529e-01,0.000000000000000000e+00,-8.148642941015139529e-01
2.399999999999999911e+00,1.643392425056494236e+09,0.000000000000000000e+00,-8.389015889127675596e-01,0.000000000000000000e+00,-8.389015889127675596e-01
2.416666666666666519e+00,1.643392425073586226e+09,0.000000000000000000e+00,-8.148642941015139529e-01,0.000000000000000000e+00,-8.148642941015139529e-01
2.433333333333333126e+00,1.643392425090539694e+09,0.000000000000000000e+00,-8.148642941015139529e-01,0.000000000000000000e+00,-8.148642941015139529e-01
2.450000000000000178e+00,1.643392425107494831e+09,0.000000000000000000e+00,-8.148642941015139529e-01,0.000000000000000000e+00,-8.148642941015139529e-01
2.466666666666666785e+00,1.643392425124440908e+09,0.000000000000000000e+00,-8.148642941015139529e-01,0.000000000000000000e+00,-8.148642941015139529e-01
2.483333333333333393e+00,1.643392425141655922e+09,0.000000000000000000e+00,-8.148642941015139529e-01,0.000000000000000000e+00,-8.148642941015139529e-01
2.500000000000000000e+00,1.643392425158955574e+09,0.000000000000000000e+00,-8.389015889127675596e-01,0.000000000000000000e+00,-8.389015889127675596e-01
2.516666666666666607e+00,1.643392425176777840e+09,0.000000000000000000e+00,-8.148642941015139529e-01,0.000000000000000000e+00,-8.148642941015139529e-01
2.533333333333333215e+00,1.643392425193139553e+09,0.000000000000000000e+00,-8.148642941015139529e-01,0.000000000000000000e+00,-8.148642941015139529e-01
2.549999999999999822e+00,1.643392425209097385e+09,0.000000000000000000e+00,-8.148642941015139529e-01,0.000000000000000000e+00,-8.148642941015139529e-01
2.566666666666666430e+00,1.643392425225030899e+09,0.000000000000000000e+00,-8.148642941015139529e-01,0.000000000000000000e+00,-8.148642941015139529e-01
2.583333333333333481e+00,1.643392425243010521e+09,0.000000000000000000e+00,-8.148642941015139529e-01,0.000000000000000000e+00,-8.148642941015139529e-01
2.600000000000000089e+00,1.643392425260963202e+09,0.000000000000000000e+00,-8.389015889127675596e-01,0.000000000000000000e+00,-8.389015889127675596e-01
2.616666666666666696e+00,1.643392425276736498e+09,0.000000000000000000e+00,-8.148642941015139529e-01,0.000000000000000000e+00,-8.148642941015139529e-01
2.633333333333333304e+00,1.643392425294690847e+09,0.000000000000000000e+00,-8.148642941015139529e-01,0.000000000000000000e+00,-8.148642941015139529e-01
2.649999999999999911e+00,1.643392425311693907e+09,0.000000000000000000e+00,-8.148642941015139529e-01,0.000000000000000000e+00,-8.148642941015139529e-01
2.666666666666666519e+00,1.643392425328626633e+09,0.000000000000000000e+00,-8.148642941015139529e-01,0.000000000000000000e+00,-8.148642941015139529e-01
2.683333333333333126e+00,1.643392425343741417e+09,0.000000000000000000e+00,-8.148642941015139529e-01,0.000000000000000000e+00,-8.148642941015139529e-01
2.700000000000000178e+00,1.643392425361552000e+09,0.000000000000000000e+00,-8.148642941015139529e-01,0.000000000000000000e+00,-8.148642941015139529e-01
2.716666666666666785e+00,1.643392425378566027e+09,0.000000000000000000e+00,-8.148642941015139529e-01,0.000000000000000000e+00,-8.148642941015139529e-01
2.733333333333333393e+00,1.643392425395483494e+09,0.000000000000000000e+00,-8.148642941015139529e-01,0.000000000000000000e+00,-8.148642941015139529e-01
2.750000000000000000e+00,1.643392425413465023e+09,0.000000000000000000e+00,-8.148642941015139529e-01,0.000000000000000000e+00,-8.148642941015139529e-01
2.766666666666666607e+00,1.643392425429426193e+09,0.000000000000000000e+00,-8.389015889127675596e-01,0.000000000000000000e+00,-8.389015889127675596e-01
2.783333333333333215e+00,1.643392425447382450e+09,0.000000000000000000e+00,-8.148642941015139529e-01,0.000000000000000000e+00,-8.148642941015139529e-01
2.799999999999999822e+00,1.643392425465324879e+09,0.000000000000000000e+00,-8.148642941015139529e-01,0.000000000000000000e+00,-8.148642941015139529e-01
2.816666666666666430e+00,1.643392425482257605e+09,0.000000000000000000e+00,-8.148642941015139529e-01,0.000000000000000000e+00,-8.148642941015139529e-01
2.833333333333333481e+00,1.643392425498247385e+09,0.000000000000000000e+00,-8.148642941015139529e-01,0.000000000000000000e+00,-8.148642941015139529e-01
2.850000000000000089e+00,1.643392425515163422e+09,0.000000000000000000e+00,-8.148642941015139529e-01,0.000000000000000000e+00,-8.148642941015139529e-01
2.866666666666666696e+00,1.643392425534112692e+09,0.000000000000000000e+00,-8.148642941015139529e-01,0.000000000000000000e+00,-8.148642941015139529e-01
2.883333333333333304e+00,1.643392425550103903e+09,0.000000000000000000e+00,-8.148642941015139529e-01,0.000000000000000000e+00,-8.148642941015139529e-01
2.899999999999999911e+00,1.643392425565064669e+09,0.000000000000000000e+00,-8.148642941015139529e-01,0.000000000000000000e+00,-8.148642941015139529e-01
2.916666666666666519e+00,1.643392425583856821e+09,0.000000000000000000e+00,-8.148642941015139529e-01,0.000000000000000000e+00,-8.148642941015139529e-01
2.933333333333333126e+00,1.643392425601039648e+09,0.000000000000000000e+00,-8.148642941015139529e-01,0.000000000000000000e+00,-8.148642941015139529e-01
2.950000000000000178e+00,1.643392425618399858e+09,0.000000000000000000e+00,-8.148642941015139529e-01,0.000000000000000000e+00,-8.148642941015139529e-01
2.966666666666666785e+00,1.643392425634401560e+09,0.000000000000000000e+00,-8.148642941015139529e-01,0.000000000000000000e+00,-8.148642941015139529e-01
2.983333333333333393e+00,1.643392425652336836e+09,0.000000000000000000e+00,-8.148642941015139529e-01,0.000000000000000000e+00,-8.148642941015139529e-01
3.000000000000000000e+00,1.643392425671285391e+09,0.000000000000000000e+00,-8.148642941015139529e-01,0.000000000000000000e+00,-8.148642941015139529e-01
