# 
# 
# 
# 
# 
# 
# 
# 
# 
# 
# time,realtime,ref,inp,inp0,inp1,dis,state...
0.000000000000000000e+00,1.644183196383269072e+09,0.000000000000000000e+00,0.000000000000000000e+00,0.000000000000000000e+00,5.801000481115994312e-01,0.000000000000000000e+00,0.000000000000000000e+00,0.000000000000000000e+00
1.666666666666666644e-02,1.644183196386261463e+09,2.537716967436259765e-06,0.000000000000000000e+00,0.000000000000000000e+00,5.801000481115994312e-01,0.000000000000000000e+00,0.000000000000000000e+00,0.000000000000000000e+00
3.333333333333333287e-02,1.644183196387209177e+09,1.002728298462691938e-05,0.000000000000000000e+00,0.000000000000000000e+00,5.801000481115994312e-01,1.534360808770999588e-05,2.119266805092943252e-09,2.536075346567402795e-07
5.000000000000000278e-02,1.644183196404212475e+09,2.232416077884093970e-05,0.000000000000000000e+00,0.000000000000000000e+00,5.801000481115994312e-01,6.051499343320659153e-05,1.466939173837529221e-08,1.249640633610234277e-06
6.666666666666666574e-02,1.644183196421949148e+09,3.934369752774784788e-05,0.000000000000000000e+00,0.000000000000000000e+00,5.801000481115994312e-01,1.327691581124119458e-04,5.366227701050187842e-08,3.423467050211639687e-06
8.333333333333332871e-02,1.644183196441873074e+09,6.106724489134100092e-05,0.000000000000000000e+00,0.000000000000000000e+00,5.801000481115994312e-01,2.274097886478464951e-04,1.416571636824833951e-07,7.125635307670432801e-06
1.000000000000000056e-01,1.644183196458828926e+09,8.754738564290822592e-05,0.000000000000000000e+00,0.000000000000000000e+00,5.801000481115994312e-01,3.378177501246435203e-04,3.060931120480167850e-07,1.259149519471562488e-05
1.166666666666666685e-01,1.644183196473042727e+09,1.189121701541276881e-04,0.000000000000000000e+00,0.000000000000000000e+00,5.801000481115994312e-01,4.555294262742111151e-04,5.771301733472452058e-07,1.991261523798658231e-05
1.333333333333333315e-01,1.644183196491016388e+09,1.553682777569048723e-04,0.000000000000000000e+00,0.000000000000000000e+00,5.801000481115994312e-01,5.703645162415551086e-04,9.850357852066097534e-07,2.901078489681980209e-05
1.499999999999999944e-01,1.644183196509033680e+09,1.972030309646440320e-04,0.000000000000000000e+00,0.000000000000000000e+00,5.801000481115994312e-01,6.706019737223388151e-04,1.557165761956374831e-06,3.961535448210901658e-05
1.666666666666666574e-01,1.644183196527042389e+09,2.447852045395989846e-04,0.000000000000000000e+00,0.000000000000000000e+00,5.801000481115994312e-01,7.432018604293217333e-04,2.314601389262352887e-06,5.124461652862506754e-05
1.833333333333333204e-01,1.644183196542709827e+09,2.985645862790907283e-04,0.000000000000000000e+00,0.000000000000000000e+00,5.801000481115994312e-01,7.740699980696812144e-04,3.268515333773597897e-06,6.319186921860850642e-05
2.000000000000000111e-01,1.644183196561566591e+09,3.590702619888348854e-04,0.000000000000000000e+00,0.000000000000000000e+00,5.801000481115994312e-01,7.483614555323801678e-04,4.416349119225284033e-06,7.451672635869648661e-05
2.166666666666666741e-01,1.644183196578548431e+09,4.269076132342104518e-04,0.000000000000000000e+00,0.000000000000000000e+00,5.801000481115994312e-01,6.508181146387358434e-04,5.737893593843922319e-06,8.404215046139011159e-05
2.333333333333333370e-01,1.644183196595492363e+09,5.027540329205627649e-04,0.000000000000000000e+00,0.000000000000000000e+00,5.801000481115994312e-01,4.661348317298549034e-04,7.191370933323798457e-06,9.035758698407448102e-05
2.500000000000000000e-01,1.644183196612444401e+09,5.873533803569831995e-04,0.000000000000000000e+00,0.000000000000000000e+00,5.801000481115994312e-01,1.793480657771368480e-04,8.709622125726290212e-06,9.182847022129094351e-05
2.666666666666666630e-01,1.644183196630396843e+09,6.815092140068418260e-04,0.000000000000000000e+00,0.000000000000000000e+00,5.801000481115994312e-01,-2.237597122550572307e-04,1.019650743218142808e-05,8.661225637725151756e-05
2.833333333333333259e-01,1.644183196645356417e+09,7.860768564243343637e-04,0.000000000000000000e+00,0.000000000000000000e+00,5.801000481115994312e-01,-7.562469695094666553e-04,1.152362890162700661e-05,7.268101874931483556e-05
2.999999999999999889e-01,1.644183196663308144e+09,9.019543617225884644e-04,0.000000000000000000e+00,0.000000000000000000e+00,5.801000481115994312e-01,-1.429598907968711525e-03,1.252748356104288601e-05,4.785051562375376781e-05
3.166666666666666519e-01,1.644183196680596352e+09,1.030072471122305813e-03,0.000000000000000000e+00,0.000000000000000000e+00,5.801000481115994312e-01,-2.253319825521561855e-03,1.300715335903541239e-05,9.815515400401881815e-06
3.333333333333333148e-01,1.644183196695442438e+09,1.171383656503239591e-03,0.000000000000000000e+00,0.000000000000000000e+00,5.801000481115994312e-01,-3.234539868385928954e-03,1.272263329792699787e-05,-4.380896234492184793e-05
3.499999999999999778e-01,1.644183196713838100e+09,1.326850365244858958e-03,0.000000000000000000e+00,0.000000000000000000e+00,5.801000481115994312e-01,-4.377643986485462400e-03,1.139389246951850865e-05,-1.154409546246043880e-04
3.666666666666666408e-01,1.644183196729746580e+09,1.497432591828334967e-03,0.000000000000000000e+00,0.000000000000000000e+00,5.801000481115994312e-01,-5.683930761467300037e-03,8.700753968471318435e-06,-2.074799954813455190e-04
3.833333333333333037e-01,1.644183196748094797e+09,1.684074912522431130e-03,0.000000000000000000e+00,0.000000000000000000e+00,5.801000481115994312e-01,-7.151308508774559258e-03,4.283668984755768002e-06,-3.222513856438725911e-04
4.000000000000000222e-01,1.644183196766045332e+09,1.887693128848101859e-03,0.000000000000000000e+00,0.000000000000000000e+00,5.801000481115994312e-01,-8.774035662530368582e-03,-2.254552104162557783e-06,-4.619470922637937058e-04
4.166666666666666852e-01,1.644183196782001495e+09,2.109160673283224860e-03,0.000000000000000000e+00,0.000000000000000000e+00,5.801000481115994312e-01,-1.054251193879190973e-02,-1.134600295507305501e-05,-6.285641737260817732e-04
4.333333333333333481e-01,1.644183196798670769e+09,2.349294936719678421e-03,0.000000000000000000e+00,0.000000000000000000e+00,5.801000481115994312e-01,-1.244312614465283885e-02,-2.345390571172490868e-05,-8.238417067136438385e-04
4.500000000000000111e-01,1.644183196816623688e+09,2.608843681428460112e-03,0.000000000000000000e+00,0.000000000000000000e+00,5.801000481115994312e-01,-1.445816576513400328e-02,-3.906778046570294027e-05,-1.049197261378565903e-03
4.666666666666666741e-01,1.644183196832579374e+09,2.888471705652703465e-03,0.000000000000000000e+00,0.000000000000000000e+00,5.801000481115994312e-01,-1.656579262590074375e-02,-5.869756138276094657e-05,-1.305664024226520312e-03
4.833333333333333370e-01,1.644183196851530075e+09,3.188747926382302488e-03,0.000000000000000000e+00,0.000000000000000000e+00,5.801000481115994312e-01,-1.874008800824337323e-02,-8.286667979315070120e-05,-1.593829705953520200e-03
5.000000000000000000e-01,1.644183196867859364e+09,3.510133045337464168e-03,0.000000000000000000e+00,0.000000000000000000e+00,5.801000481115994312e-01,-2.095116959555070810e-02,-1.121041536700155241e-04,-1.913778392002500432e-03
5.166666666666666075e-01,1.644183196883495808e+09,3.852967959694223073e-03,0.000000000000000000e+00,0.000000000000000000e+00,5.801000481115994312e-01,-2.316538157106997134e-02,-1.469357422384211177e-04,-2.265036496285260936e-03
5.333333333333333259e-01,1.644183196902444839e+09,4.217463073637281457e-03,0.000000000000000000e+00,0.000000000000000000e+00,5.801000481115994312e-01,-2.534555807956367923e-02,-1.878742436674399417e-04,-2.646523962848970277e-03
5.500000000000000444e-01,1.644183196916794777e+09,4.603688659460825235e-03,0.000000000000000000e+00,0.000000000000000000e+00,5.801000481115994312e-01,-2.745135912594803482e-02,-2.354090325912148920e-04,-3.056511826024329269e-03
5.666666666666666519e-01,1.644183196934796810e+09,5.011566407715730385e-03,0.000000000000000000e+00,0.000000000000000000e+00,6.121497745266043511e-01,-2.943967682824349258e-02,-2.899949522728328694e-04,-3.492587186813436370e-03
5.833333333333333703e-01,1.644183196951192856e+09,5.440862294901322414e-03,0.000000000000000000e+00,0.000000000000000000e+00,5.801000481115994312e-01,-3.126510878680632821e-02,-3.520406932608027384e-04,-3.951626592272238815e-03
5.999999999999999778e-01,1.644183196968894243e+09,5.891180884523656777e-03,0.000000000000000000e+00,0.000000000000000000e+00,5.801000481115994312e-01,-3.288049419372893190e-02,-4.218968060931248135e-04,-4.429778716002065464e-03
6.166666666666666963e-01,1.644183196984826326e+09,6.361961163111223491e-03,0.000000000000000000e+00,0.000000000000000000e+00,5.801000481115994312e-01,-3.423750720243225187e-02,-4.998435096915694728e-04,-4.922457132444157946e-03
6.333333333333333037e-01,1.644183197001828194e+09,6.852473997133331184e-03,0.000000000000000000e+00,0.000000000000000000e+00,5.801000481115994312e-01,-3.528730102457278833e-02,-5.860784692885353002e-04,-5.424343856590072184e-03
6.500000000000000222e-01,1.644183197019146204e+09,7.361821279864001061e-03,0.000000000000000000e+00,0.000000000000000000e+00,5.801000481115994312e-01,-3.598119523576344403e-02,-6.807047277911831883e-04,-5.929404185350148522e-03
6.666666666666666297e-01,1.644183197035102606e+09,7.888936819248812057e-03,0.000000000000000000e+00,0.000000000000000000e+00,5.801000481115994312e-01,-3.627139786892919632e-02,-7.837189821877090738e-04,-6.430913228769109466e-03
6.833333333333333481e-01,1.644183197055170536e+09,8.432588998951875622e-03,0.000000000000000000e+00,0.000000000000000000e+00,5.801000481115994312e-01,-3.611175306916204059e-02,-8.950004017425000147e-04,-6.921494360367019469e-03
6.999999999999999556e-01,1.644183197070192814e+09,8.991385225185034857e-03,0.000000000000000000e+00,0.000000000000000000e+00,5.801000481115994312e-01,-3.545850439038798763e-02,-1.014300187146442754e-03,-7.393169648136209415e-03
7.166666666666666741e-01,1.644183197087119579e+09,9.563778151862437765e-03,0.000000000000000000e+00,0.000000000000000000e+00,5.801000481115994312e-01,-3.427106324438921464e-02,-1.141232069356855382e-03,-7.837422153332284508e-03
7.333333333333332815e-01,1.644183197103100777e+09,1.014807365629941290e-02,0.000000000000000000e+00,0.000000000000000000e+00,5.801000481115994312e-01,-3.251277157762374331e-02,-1.275263943487165135e-03,-8.245269805495704374e-03
7.500000000000000000e-01,1.644183197121514797e+09,1.074244051730912676e-02,0.000000000000000000e+00,0.000000000000000000e+00,5.801000481115994312e-01,-3.015164756007677332e-02,-1.415710826738207770e-03,-8.607350381579274845e-03
7.666666666666666075e-01,1.644183197138848782e+09,1.134492172737245133e-02,0.000000000000000000e+00,0.000000000000000000e+00,5.801000481115994312e-01,-2.716110293046297003e-02,-1.561729319991035604e-03,-8.914016937167496685e-03
7.833333333333333259e-01,1.644183197154911041e+09,1.195344735079392415e-02,0.000000000000000000e+00,0.000000000000000000e+00,5.801000481115994312e-01,-2.352062065894651791e-02,-1.712313740338153875e-03,-9.155442861136153451e-03
8.000000000000000444e-01,1.644183197172795773e+09,1.256584882063691705e-02,0.000000000000000000e+00,0.000000000000000000e+00,5.801000481115994312e-01,-1.921638176555604330e-02,-1.866294076592020165e-03,-9.321735554308221983e-03
8.166666666666666519e-01,1.644183197191747427e+09,1.317987454897840728e-02,0.000000000000000000e+00,0.000000000000000000e+00,5.801000481115994312e-01,-1.424183047093397457e-02,-2.022335901795360713e-03,-9.403057570287113795e-03
8.333333333333333703e-01,1.644183197206704617e+09,1.379320670785291574e-02,0.000000000000000000e+00,0.000000000000000000e+00,5.801000481115994312e-01,-8.598167355060240200e-03,-2.178942356128668340e-03,-9.389753905204809362e-03
8.499999999999999778e-01,1.644183197224005699e+09,1.440347902237621748e-02,0.000000000000000000e+00,0.000000000000000000e+00,5.801000481115994312e-01,-2.294760856031356332e-03,-2.334458290568599322e-03,-9.272483985032067832e-03
8.666666666666666963e-01,1.644183197240933895e+09,1.500829540314745254e-02,0.000000000000000000e+00,0.000000000000000000e+00,5.801000481115994312e-01,4.650531750463371417e-03,-2.487076636438563266e-03,-9.042356776654381090e-03
8.833333333333333037e-01,1.644183197257915497e+09,1.560524923230668416e-02,0.000000000000000000e+00,0.000000000000000000e+00,5.801000481115994312e-01,1.221114179712339681e-02,-2.634847038888242510e-03,-8.691067344252645724e-03
9.000000000000000222e-01,1.644183197272871733e+09,1.619194310674173382e-02,0.000000000000000000e+00,0.000000000000000000e+00,6.121497745266043511e-01,2.035167191436238268e-02,-2.775686763654563061e-03,-8.211033087580286299e-03
9.166666666666666297e-01,1.644183197291243315e+09,1.676600883304191908e-02,0.000000000000000000e+00,0.000000000000000000e+00,5.801000481115994312e-01,2.902788956913754728e-02,-2.907393856535738907e-03,-7.595527835213484666e-03
9.333333333333333481e-01,1.644183197307641506e+09,1.732512746201838108e-02,0.000000000000000000e+00,0.000000000000000000e+00,5.801000481115994312e-01,3.818683573773970497e-02,-3.027662504221853481e-03,-6.838811925231708284e-03
9.499999999999999556e-01,1.644183197323935986e+09,1.786704914605943134e-02,0.000000000000000000e+00,0.000000000000000000e+00,5.801000481115994312e-01,4.776705158056335221e-02,-3.134100513861541766e-03,-5.936256389249296855e-03
9.666666666666666741e-01,1.644183197342884779e+09,1.838961260035113648e-02,0.000000000000000000e+00,0.000000000000000000e+00,5.801000481115994312e-01,5.769892449251535355e-02,-3.224248797413518768e-03,-4.884459364155397526e-03
9.833333333333332815e-01,1.644183197358264446e+09,1.889076394913169130e-02,0.000000000000000000e+00,0.000000000000000000e+00,5.801000481115994312e-01,6.790515334863869712e-02,-3.295602715854964188e-03,-3.681352889903307009e-03
1.000000000000000000e+00,1.644183197378248215e+09,1.936857474069922716e-02,0.000000000000000000e+00,0.000000000000000000e+00,5.801000481115994312e-01,7.830133117007063992e-02,-3.345635108123991112e-03,-2.326298311466436057e-03
1.016666666666666607e+00,1.644183197394232750e+09,1.982125891987091687e-02,0.000000000000000000e+00,0.000000000000000000e+00,5.801000481115994312e-01,8.879664182093958968e-02,-3.371820800689621575e-03,-8.201685885518125631e-04
1.033333333333333215e+00,1.644183197410188437e+09,2.024718855398086048e-02,0.000000000000000000e+00,0.000000000000000000e+00,5.801000481115994312e-01,9.929466573318494749e-02,-3.371662366294548609e-03,8.345840726061966395e-04
1.050000000000000044e+00,1.644183197426119804e+09,2.064490811826615035e-02,0.000000000000000000e+00,0.000000000000000000e+00,5.801000481115994312e-01,1.096942880649798002e-01,-3.342716875117828813e-03,2.633876715845806949e-03
1.066666666666666652e+00,1.644183197443121195e+09,2.101314715855960580e-02,0.000000000000000000e+00,0.000000000000000000e+00,5.801000481115994312e-01,1.198907011509697529e-01,-3.282623358754975084e-03,4.571961551999115941e-03
1.083333333333333259e+00,1.644183197461053848e+09,2.135083116348973978e-02,0.000000000000000000e+00,0.000000000000000000e+00,5.801000481115994312e-01,1.297764916203598684e-01,-3.189130687388493871e-03,6.641410407638632420e-03
1.100000000000000089e+00,1.644183197478260040e+09,2.165709049476821288e-02,0.000000000000000000e+00,0.000000000000000000e+00,5.801000481115994312e-01,1.392428011629607831e-01,-3.060125543672450720e-03,8.833118616638602205e-03
1.116666666666666696e+00,1.644183197496241570e+09,2.193126724248080014e-02,0.000000000000000000e+00,0.000000000000000000e+00,6.121497745266043511e-01,1.481805486339826672e-01,-2.893660163497458349e-03,1.113632904702998791e-02
1.133333333333333304e+00,1.644183197512493849e+09,2.217291989242424488e-02,0.000000000000000000e+00,0.000000000000000000e+00,5.801000481115994312e-01,1.564817000249898449e-01,-2.687979504217662911e-03,1.353867672150002241e-02
1.149999999999999911e+00,1.644183197529664040e+09,2.238182571426211229e-02,0.000000000000000000e+00,0.000000000000000000e+00,5.801000481115994312e-01,1.640405718091121068e-01,-2.441547495347051212e-03,1.602625424278127791e-02
1.166666666666666741e+00,1.644183197547993898e+09,2.255798080240295836e-02,0.000000000000000000e+00,0.000000000000000000e+00,5.480503216965945112e-01,1.707551523099738733e-01,-2.153072025361059839e-03,1.858369797796151704e-02
1.183333333333333348e+00,1.644183197564940214e+09,2.270159772580666174e-02,0.000000000000000000e+00,0.000000000000000000e+00,5.801000481115994312e-01,1.765284250607681016e-01,-1.821528321213821810e-03,2.119429469149374662e-02
1.199999999999999956e+00,1.644183197579900026e+09,2.281310076816079474e-02,0.000000000000000000e+00,0.000000000000000000e+00,5.801000481115994312e-01,1.812696776253830966e-01,-1.446180384591759082e-03,2.384010804862806907e-02
1.216666666666666563e+00,1.644183197596854925e+09,2.289311876578346491e-02,0.000000000000000000e+00,0.000000000000000000e+00,5.801000481115994312e-01,1.848957790582922700e-01,-1.026600160805962855e-03,2.650212414248047724e-02
1.233333333333333393e+00,1.644183197614806890e+09,2.294247557693516668e-02,0.000000000000000000e+00,0.000000000000000000e+00,5.801000481115994312e-01,1.873324090924865515e-01,-5.626841325576475115e-04,2.916041493244026991e-02
1.250000000000000000e+00,1.644183197633755207e+09,2.296217824268689811e-02,0.000000000000000000e+00,0.000000000000000000e+00,5.801000481115994312e-01,1.885152222710284320e-01,-5.466705151391216492e-05,3.179431822258034501e-02
1.266666666666666607e+00,1.644183197649712801e+09,2.295340292581284428e-02,0.000000000000000000e+00,0.000000000000000000e+00,5.801000481115994312e-01,1.883909305812043744e-01,4.968674544319319833e-04,3.438263255965457593e-02
1.283333333333333215e+00,1.644183197667259455e+09,2.291747874007080479e-02,0.000000000000000000e+00,0.000000000000000000e+00,5.801000481115994312e-01,1.869182887113978730e-01,1.090979631364752097e-03,3.690382519457838933e-02
1.300000000000000044e+00,1.644183197682389021e+09,2.285586960741700646e-02,0.000000000000000000e+00,0.000000000000000000e+00,5.801000481115994312e-01,1.840689668276124791e-01,1.726369907401246323e-03,3.933625103233543557e-02
1.316666666666666652e+00,1.644183197699341536e+09,2.277015430489449238e-02,0.000000000000000000e+00,0.000000000000000000e+00,5.801000481115994312e-01,1.798282967541477428e-01,2.401378922730083767e-03,4.165838029624239353e-02
1.333333333333333259e+00,1.644183197716653824e+09,2.266200488585765407e-02,0.000000000000000000e+00,0.000000000000000000e+00,5.801000481115994312e-01,1.741958786336429699e-01,3.113991406403545780e-03,4.384903245646298159e-02
1.350000000000000089e+00,1.644183197733936071e+09,2.253316368158527275e-02,0.000000000000000000e+00,0.000000000000000000e+00,5.801000481115994312e-01,1.671860365251356118e-01,3.861843982554839360e-03,4.588761382239728293e-02
1.366666666666666696e+00,1.644183197753426313e+09,2.238541910893506251e-02,0.000000000000000000e+00,0.000000000000000000e+00,5.801000481115994312e-01,1.588281129619432130e-01,4.642236944356670225e-03,4.775435607662784077e-02
1.383333333333333304e+00,1.644183197767890930e+09,2.222058052725958688e-02,0.000000000000000000e+00,0.000000000000000000e+00,5.801000481115994312e-01,1.491665942184737248e-01,5.452149987901071596e-03,4.943055293672466571e-02
1.399999999999999911e+00,1.644183197785841465e+09,2.204045240311882856e-02,0.000000000000000000e+00,0.000000000000000000e+00,5.801000481115994312e-01,1.382610599085583036e-01,6.288261850793296776e-03,5.089879207230841446e-02
1.416666666666666741e+00,1.644183197803226948e+09,2.184680805417868465e-02,0.000000000000000000e+00,0.000000000000000000e+00,6.121497745266043511e-01,1.261859525374258439e-01,7.146973752168003270e-03,5.214317937989080415e-02
1.433333333333333348e+00,1.644183197820991993e+09,2.164136325389805909e-02,0.000000000000000000e+00,0.000000000000000000e+00,5.480503216965945112e-01,1.130301647328441211e-01,8.024436482630651832e-03,5.314955272830888811e-02
1.449999999999999956e+00,1.644183197835433960e+09,2.142574998602175124e-02,0.000000000000000000e+00,0.000000000000000000e+00,5.801000481115994312e-01,9.889644406430328494e-02,8.916580944893509261e-03,5.390568233378442015e-02
1.466666666666666563e+00,1.644183197854436159e+09,2.120149064238135983e-02,0.000000000000000000e+00,0.000000000000000000e+00,5.801000481115994312e-01,8.390061759704882383e-02,9.819151899215087728e-03,5.440145500608032508e-02
1.483333333333333393e+00,1.644183197871392250e+09,2.096997295895505764e-02,0.000000000000000000e+00,0.000000000000000000e+00,5.801000481115994312e-01,6.817064059362078210e-02,1.072774462276687192e-02,5.462903962575555578e-02
1.500000000000000000e+00,1.644183197888196945e+09,2.073242598348248172e-02,0.000000000000000000e+00,0.000000000000000000e+00,5.480503216965945112e-01,5.184547604186030140e-02,1.163784414933833819e-02,5.458303136654842763e-02
1.516666666666666607e+00,1.644183197907511711e+09,2.048989736312227528e-02,0.000000000000000000e+00,0.000000000000000000e+00,5.801000481115994312e-01,3.507381392698727396e-02,1.254486671593352254e-02,5.426057236540303419e-02
1.533333333333333215e+00,1.644183197921307325e+09,2.024323223267286351e-02,0.000000000000000000e+00,0.000000000000000000e+00,5.801000481115994312e-01,1.801264134803246333e-02,1.344420300637144683e-02,5.366144676409898701e-02
1.550000000000000044e+00,1.644183197939382315e+09,1.999305397277014243e-02,0.000000000000000000e+00,0.000000000000000000e+00,5.801000481115994312e-01,8.256766774212553894e-04,1.433126274951186316e-02,5.278814829891559368e-02
1.566666666666666652e+00,1.644183197957328320e+09,1.973974709328236293e-02,0.000000000000000000e+00,0.000000000000000000e+00,5.801000481115994312e-01,-1.631831705092201545e-02,1.520152020168420194e-02,5.164591889589455198e-02
1.583333333333333259e+00,1.644183197974280357e+09,1.948344247993324951e-02,0.000000000000000000e+00,0.000000000000000000e+00,5.801000481115994312e-01,-3.324732249185450433e-02,1.605056001975602165e-02,5.024275703629182271e-02
1.600000000000000089e+00,1.644183197992236853e+09,1.922400522211553317e-02,0.000000000000000000e+00,0.000000000000000000e+00,5.801000481115994312e-01,-4.978794336152818356e-02,1.687412301344283494e-02,4.858939498657954131e-02
1.616666666666666696e+00,1.644183198009186983e+09,1.896102521706091726e-02,0.000000000000000000e+00,0.000000000000000000e+00,5.801000481115994312e-01,-6.576734462183976559e-02,1.766815125328372732e-02,4.669924433637465122e-02
1.633333333333333304e+00,1.644183198026165724e+09,1.869381072019197718e-02,0.000000000000000000e+00,0.000000000000000000e+00,5.480503216965945112e-01,-8.101523598379768709e-02,1.842883200447563430e-02,4.458830965211944830e-02
1.649999999999999911e+00,1.644183198044117689e+09,1.842138498380771483e-02,0.000000000000000000e+00,0.000000000000000000e+00,5.801000481115994312e-01,-9.536587618580144587e-02,1.915263995669658562e-02,4.227507043013514071e-02
1.666666666666666741e+00,1.644183198059056759e+09,1.814248609648534682e-02,0.000000000000000000e+00,0.000000000000000000e+00,5.480503216965945112e-01,-1.086600747014822843e-01,1.983637722630763461e-02,3.978033191549938674e-02
1.683333333333333348e+00,1.644183198076754570e+09,1.785557010398410027e-02,0.000000000000000000e+00,0.000000000000000000e+00,5.801000481115994312e-01,-1.207471669953258525e-01,2.047721061998446224e-02,3.712704573856712847e-02
1.699999999999999956e+00,1.644183198094617605e+09,1.755881745929889839e-02,0.000000000000000000e+00,0.000000000000000000e+00,5.801000481115994312e-01,-1.314869391850442548e-01,2.107270566789607585e-02,3.434010170423811015e-02
1.716666666666666563e+00,1.644183198109124184e+09,1.725014281514460762e-02,0.000000000000000000e+00,0.000000000000000000e+00,5.801000481115994312e-01,-1.407514779968268848e-01,2.162085695994607829e-02,3.144609244557432237e-02
1.733333333333333393e+00,1.644183198126411200e+09,1.692720813688081138e-02,0.000000000000000000e+00,0.000000000000000000e+00,5.801000481115994312e-01,-1.484269222190197635e-01,2.212011435016872363e-02,2.847305301836801361e-02
1.750000000000000000e+00,1.644183198143514872e+09,1.658743907806073392e-02,0.000000000000000000e+00,0.000000000000000000e+00,5.801000481115994312e-01,-1.544150924739755570e-01,2.256940463189687288e-02,2.545017786207360438e-02
1.766666666666666607e+00,1.644183198161665678e+09,1.622804452475558670e-02,0.000000000000000000e+00,0.000000000000000000e+00,5.801000481115994312e-01,-1.586349770356682287e-01,2.296814832948376739e-02,2.240751788055890537e-02
1.783333333333333215e+00,1.644183198177623510e+09,1.584603917893933483e-02,0.000000000000000000e+00,0.000000000000000000e+00,5.801000481115994312e-01,-1.610240526175834019e-01,2.331627130078214177e-02,1.937566069896747359e-02
1.800000000000000044e+00,1.644183198196932316e+09,1.543826901588298862e-02,0.000000000000000000e+00,0.000000000000000000e+00,5.801000481115994312e-01,-1.615394205331114608e-01,2.361421089780707874e-02,1.638539742639067917e-02
1.816666666666666652e+00,1.644183198213883638e+09,1.500143941607595503e-02,0.000000000000000000e+00,0.000000000000000000e+00,5.801000481115994312e-01,-1.601587403774382412e-01,2.386291649050968633e-02,1.346737949406410194e-02
1.833333333333333259e+00,1.644183198230840921e+09,1.453214573903565884e-02,0.000000000000000000e+00,0.000000000000000000e+00,5.801000481115994312e-01,-1.568809453804413667e-01,2.406384421978018107e-02,1.065176934178625051e-02
1.849999999999999867e+00,1.644183198246190548e+09,1.402690607484939796e-02,0.000000000000000000e+00,0.000000000000000000e+00,5.801000481115994312e-01,-1.517267258157521670e-01,2.421894591003660030e-02,7.967888887933961828e-03
1.866666666666666696e+00,1.644183198265540123e+09,1.348219587976587884e-02,0.000000000000000000e+00,0.000000000000000000e+00,5.801000481115994312e-01,-1.447387693001083164e-01,2.433065213834367801e-02,5.443869837958413213e-03
1.883333333333333304e+00,1.644183198281490564e+09,1.289448417496777757e-02,0.000000000000000000e+00,0.000000000000000000e+00,5.801000481115994312e-01,-1.359817494545136896e-01,2.440184952520566691e-02,3.106309960187864355e-03
1.899999999999999911e+00,1.644183198300440788e+09,1.226027096312626297e-02,0.000000000000000000e+00,0.000000000000000000e+00,5.801000481115994312e-01,-1.255420571970080890e-01,2.443585238121188247e-02,9.799394842315129438e-04
1.916666666666666741e+00,1.644183198316351414e+09,1.157612549577778649e-02,0.000000000000000000e+00,0.000000000000000000e+00,5.801000481115994312e-01,-1.135272718659199181e-01,2.443636891278158987e-02,-9.126982451035281670e-04
1.933333333333333348e+00,1.644183198332334995e+09,1.083872500624846053e-02,0.000000000000000000e+00,0.000000000000000000e+00,5.801000481115994312e-01,-1.000653724000428735e-01,2.440746225853459087e-02,-2.551547797523908822e-03
1.949999999999999956e+00,1.644183198350286484e+09,1.004489350803867628e-02,5.844248468094903615e-01,5.844248468094903615e-01,5.801000481115994312e-01,-8.530369189428013699e-02,2.443422774592810334e-02,5.740372630336082471e-03
1.966666666666666563e+00,1.644183198366217136e+09,9.191640247494869270e-03,6.194920742334965036e-01,6.194920742334965036e-01,5.801000481115994312e-01,-6.940762197028030323e-02,2.460508569899128029e-02,1.473758888165984174e-02
1.983333333333333393e+00,1.644183198385214806e+09,8.276197392431633090e-03,5.703979558398878380e-01,5.703979558398878380e-01,5.801000481115994312e-01,-5.255907651497420535e-02,2.492020078162135097e-02,2.305312178777833149e-02
2.000000000000000000e+00,1.644183198403117895e+09,7.296056535276244752e-03,5.727357710014885361e-01,5.727357710014885361e-01,5.480503216965945112e-01,-3.495472740844536574e-02,2.537551395547847297e-02,3.156082600713859543e-02
2.016666666666666607e+00,1.644183198420099258e+09,6.249003590419181797e-03,5.914382922942917897e-01,5.914382922942917897e-01,5.801000481115994312e-01,-1.680402784879254235e-02,2.597653729655922256e-02,4.053704040681616050e-02
2.033333333333333215e+00,1.644183198438025475e+09,5.133151670841252200e-03,6.241677045566972337e-01,6.241677045566972337e-01,5.801000481115994312e-01,1.672958251601815551e-03,2.673299706504856516e-02,5.021125835179846703e-02
2.049999999999999822e+00,1.644183198454009295e+09,3.946971538796031735e-03,5.657223255166871079e-01,5.657223255166871079e-01,5.801000481115994312e-01,2.024789961322820062e-02,2.764385066673155644e-02,5.906657516894739390e-02
2.066666666666666430e+00,1.644183198473930120e+09,2.689319239351290001e-03,5.820870316478899964e-01,5.820870316478899964e-01,5.801000481115994312e-01,3.868668997555274602e-02,2.870587685755799159e-02,6.835077767184499775e-02
2.083333333333333481e+00,1.644183198487891912e+09,1.359460543899872458e-03,6.101408135870950433e-01,6.101408135870950433e-01,5.801000481115994312e-01,5.675206352345826821e-02,2.992772741885181553e-02,7.824380839572706026e-02
2.100000000000000089e+00,1.644183198506843567e+09,-4.290814676497515585e-05,0.000000000000000000e+00,0.000000000000000000e+00,5.801000481115994312e-01,7.420630531848175504e-02,3.123123323017430730e-02,7.817707433971260444e-02
2.116666666666666696e+00,1.644183198523796797e+09,-1.517642763655676708e-03,0.000000000000000000e+00,0.000000000000000000e+00,5.801000481115994312e-01,9.081402694883208837e-02,3.253592989136936536e-02,7.838594479433141915e-02
2.133333333333333304e+00,1.644183198540750742e+09,-3.064138688485043387e-03,0.000000000000000000e+00,0.000000000000000000e+00,5.801000481115994312e-01,1.063449761749813149e-01,3.384622401997326724e-02,7.884806693531053179e-02
2.149999999999999911e+00,1.644183198561719418e+09,-4.681322289537570049e-03,0.000000000000000000e+00,0.000000000000000000e+00,5.801000481115994312e-01,1.205768482470621211e-01,3.516612206899134840e-02,7.953778302374348019e-02
2.166666666666666519e+00,1.644183198579081535e+09,-6.367647096260017903e-03,0.000000000000000000e+00,0.000000000000000000e+00,5.801000481115994312e-01,1.332980658265034146e-01,3.649917718313928916e-02,8.042636234003726348e-02
2.183333333333333126e+00,1.644183198594067812e+09,-8.121094793636400230e-03,0.000000000000000000e+00,0.000000000000000000e+00,5.801000481115994312e-01,1.443104940733762609e-01,3.784844026362459146e-02,8.148227416077490071e-02
2.200000000000000178e+00,1.644183198613038540e+09,-9.939181173928912996e-03,0.000000000000000000e+00,0.000000000000000000e+00,5.801000481115994312e-01,1.534320574750421273e-01,3.921641590627640561e-02,8.267149947604045257e-02
2.216666666666666785e+00,1.644183198626853466e+09,-1.181896713743531280e-02,0.000000000000000000e+00,0.000000000000000000e+00,5.801000481115994312e-01,1.604992253986881334e-01,4.060502383521531061e-02,8.395787863707968035e-02
2.233333333333333393e+00,1.644183198645800591e+09,-1.375707478593051966e-02,0.000000000000000000e+00,0.000000000000000000e+00,5.801000481115994312e-01,1.653693341536784656e-01,4.201556640335789294e-02,8.530349163816507152e-02
2.250000000000000000e+00,1.644183198663308382e+09,-1.574970860284357135e-02,0.000000000000000000e+00,0.000000000000000000e+00,5.801000481115994312e-01,1.679227145481459738e-01,4.344870267228691935e-02,8.666906727837181412e-02
2.266666666666666607e+00,1.644183198681256533e+09,-1.779268166341399504e-02,0.000000000000000000e+00,0.000000000000000000e+00,5.801000481115994312e-01,1.680645955121355117e-01,4.490442951790012127e-02,8.801441702462753369e-02
2.283333333333333215e+00,1.644183198697715998e+09,-1.988144676654170911e-02,0.000000000000000000e+00,0.000000000000000000e+00,5.801000481115994312e-01,1.657267563264268329e-01,4.638207013539116103e-02,8.929888901257693190e-02
2.299999999999999822e+00,1.644183198714200497e+09,-2.201113232826795718e-02,0.000000000000000000e+00,0.000000000000000000e+00,5.801000481115994312e-01,1.608689023268127793e-01,4.788027023821778139e-02,9.048183728186386110e-02
2.316666666666666430e+00,1.644183198729163408e+09,-2.417658282530523242e-02,0.000000000000000000e+00,0.000000000000000000e+00,5.801000481115994312e-01,1.534797416285020311e-01,4.939700216156467372e-02,9.152310105232533410e-02
2.333333333333333481e+00,1.644183198747394323e+09,-2.637240352625164902e-02,0.000000000000000000e+00,0.000000000000000000e+00,5.801000481115994312e-01,1.435777434103976680e-01,5.092957699227969315e-02,9.238348861178360960e-02
2.350000000000000089e+00,1.644183198765324116e+09,-2.859300919861700735e-02,0.000000000000000000e+00,0.000000000000000000e+00,5.801000481115994312e-01,1.312115615861466356e-01,5.247466475528939772e-02,9.302526020854301469e-02
2.366666666666666696e+00,1.644183198786437511e+09,-3.083267643201699146e-02,0.000000000000000000e+00,0.000000000000000000e+00,5.801000481115994312e-01,1.164601112358043394e-01,5.402832259208231735e-02,9.341260422568016530e-02
2.383333333333333304e+00,1.644183198802937508e+09,-3.308559917239034531e-02,0.000000000000000000e+00,0.000000000000000000e+00,5.801000481115994312e-01,9.943228894298684895e-02,5.558603077103378698e-02,9.351210086244514386e-02
2.399999999999999911e+00,1.644183198817689419e+09,-3.534594701932373961e-02,0.000000000000000000e+00,0.000000000000000000e+00,5.801000481115994312e-01,8.026633213839066971e-02,5.714273627322245114e-02,9.329316756256299248e-02
2.416666666666666519e+00,1.644183198835620403e+09,-3.760792579900610472e-02,0.000000000000000000e+00,0.000000000000000000e+00,5.801000481115994312e-01,5.912881664947808313e-02,5.869290360207002344e-02,9.272848051120671786e-02
2.433333333333333126e+00,1.644183198851560116e+09,-3.986583988943099427e-02,0.000000000000000000e+00,0.000000000000000000e+00,5.801000481115994312e-01,3.621329585352661001e-02,6.023057237175243744e-02,9.179436667241641645e-02
2.450000000000000178e+00,1.644183198869946957e+09,-4.211415574263756290e-02,0.000000000000000000e+00,0.000000000000000000e+00,5.801000481115994312e-01,1.173858908057189530e-02,6.174942113901286250e-02,9.047116105649885553e-02
2.466666666666666785e+00,1.644183198887264252e+09,-4.434756602142651827e-02,0.000000000000000000e+00,0.000000000000000000e+00,5.480503216965945112e-01,-1.405326883391224031e-02,6.324283685687670520e-02,8.874352419140314752e-02
2.483333333333333393e+00,1.644183198904195547e+09,-4.656105374546324477e-02,0.000000000000000000e+00,0.000000000000000000e+00,5.801000481115994312e-01,-4.089940073854606700e-02,6.470398924792068740e-02,8.660071512138339811e-02
2.500000000000000000e+00,1.644183198924144506e+09,-4.874995582431258800e-02,0.000000000000000000e+00,0.000000000000000000e+00,5.801000481115994312e-01,-6.851876287600330850e-02,6.612590932024259294e-02,8.403681566779476475e-02
2.516666666666666607e+00,1.644183198938109636e+09,-5.091002534300337334e-02,0.000000000000000000e+00,0.000000000000000000e+00,5.801000481115994312e-01,-9.661509892173002212e-02,6.750157118212263274e-02,8.105090215721921787e-02
2.533333333333333215e+00,1.644183198955060482e+09,-5.303749195945840766e-02,0.000000000000000000e+00,0.000000000000000000e+00,5.801000481115994312e-01,-1.248801443823178425e-01,6.882397625250791240e-02,7.764716134712863760e-02
2.549999999999999822e+00,1.644183198973038912e+09,-5.512911977269642494e-02,0.000000000000000000e+00,0.000000000000000000e+00,5.801000481115994312e-01,-1.529970498468964935e-01,7.008623891475845857e-02,7.383494785409648598e-02
2.566666666666666430e+00,1.644183198990115643e+09,-5.718226202628992616e-02,0.000000000000000000e+00,0.000000000000000000e+00,5.801000481115994312e-01,-1.806439883327723983e-01,7.128167262134961490e-02,6.962878100862579522e-02
2.583333333333333481e+00,1.644183199006206512e+09,-5.919491202319565604e-02,0.000000000000000000e+00,0.000000000000000000e+00,5.801000481115994312e-01,-2.074979090430328077e-01,7.240387542811854704e-02,6.504827971780632878e-02
2.600000000000000089e+00,1.644183199022239208e+09,-6.116574964582402463e-02,0.000000000000000000e+00,0.000000000000000000e+00,5.801000481115994312e-01,-2.332383972992355670e-01,7.344681391874927079e-02,6.011803460552168216e-02
2.616666666666666696e+00,1.644183199038224697e+09,-6.309418289901858046e-02,0.000000000000000000e+00,0.000000000000000000e+00,5.801000481115994312e-01,-2.575515982634520862e-01,7.440490447397477003e-02,5.486741741257197824e-02
2.633333333333333304e+00,1.644183199055239439e+09,-6.498038392342349312e-02,0.000000000000000000e+00,0.000000000000000000e+00,5.801000481115994312e-01,-2.801341603537512714e-01,7.527309084577374354e-02,4.933032836821048261e-02
2.649999999999999911e+00,1.644183199072190285e+09,-6.682531896236036661e-02,0.000000000000000000e+00,0.000000000000000000e+00,5.801000481115994312e-01,-3.006971530143597859e-01,7.604691701486172850e-02,4.354488298221650261e-02
2.666666666666666519e+00,1.644183199092134237e+09,-6.863077180663480770e-02,0.000000000000000000e+00,0.000000000000000000e+00,5.480503216965945112e-01,-3.189699127499353026e-01,7.672259434009437440e-02,3.755304044448493778e-02
2.683333333333333126e+00,1.644183199109208822e+09,-7.039936028838320037e-02,0.000000000000000000e+00,0.000000000000000000e+00,5.801000481115994312e-01,-3.347037710914625985e-01,7.729706205094769023e-02,3.140017654877391706e-02
2.700000000000000178e+00,1.644183199124165297e+09,-7.213454544684672065e-02,0.000000000000000000e+00,0.000000000000000000e+00,5.801000481115994312e-01,-3.476756184423873686e-01,7.776804018880850711e-02,2.513460477020664635e-02
2.716666666666666785e+00,1.644183199142470837e+09,-7.384063304546645279e-02,0.000000000000000000e+00,0.000000000000000000e+00,5.801000481115994312e-01,-3.576912585654670740e-01,7.813407416904895320e-02,1.880704981387508468e-02
2.733333333333333393e+00,1.644183199159472942e+09,-7.552276718050594806e-02,0.000000000000000000e+00,0.000000000000000000e+00,6.121497745266043511e-01,-3.645885098151043779e-01,7.839457021328090358e-02,1.247007860605805520e-02
2.750000000000000000e+00,1.644183199175430298e+09,-7.718691578608577464e-02,0.000000000000000000e+00,0.000000000000000000e+00,5.801000481115994312e-01,-3.682400110923962910e-01,7.854982098916268862e-02,6.177494311969668368e-03
2.766666666666666607e+00,1.644183199194672108e+09,-7.883984790853144908e-02,0.000000000000000000e+00,0.000000000000000000e+00,5.801000481115994312e-01,-3.685556928905066032e-01,7.860102089289804084e-02,-1.630047327413116504e-05
2.783333333333333215e+00,1.644183199211626768e+09,-8.048910269377654303e-02,0.000000000000000000e+00,0.000000000000000000e+00,5.801000481115994312e-01,-3.654848766898730061e-01,7.855027051623814094e-02,-6.056964708112116437e-03
2.799999999999999822e+00,1.644183199226588011e+09,-8.214295010461455937e-02,0.000000000000000000e+00,0.000000000000000000e+00,5.801000481115994312e-01,-3.590179693338849676e-01,7.840056995435998322e-02,-1.189089696846537883e-02
2.816666666666666430e+00,1.644183199243725061e+09,-8.381034345927944329e-02,0.000000000000000000e+00,0.000000000000000000e+00,5.801000481115994312e-01,-3.491877228378404974e-01,7.815580073232841762e-02,-1.746592312706448519e-02
2.833333333333333481e+00,1.644183199262603045e+09,-8.550086395848134624e-02,0.000000000000000000e+00,0.000000000000000000e+00,5.801000481115994312e-01,-3.360700343234576670e-01,7.782069625473128638e-02,-2.273198588819165186e-02
2.850000000000000089e+00,1.644183199277553558e+09,-8.722465744400788312e-02,5.470198042238838543e-01,5.470198042238838543e-01,5.801000481115994312e-01,-3.197842653888353648e-01,7.747635546250279670e-02,-1.860038611537901884e-02
2.866666666666666696e+00,1.644183199297820807e+09,-8.899236370761383352e-02,6.031273681022936151e-01,6.031273681022936151e-01,5.801000481115994312e-01,-3.004930651754734172e-01,7.721071812278385016e-02,-1.329084372687973012e-02
2.883333333333333304e+00,1.644183199312249899e+09,-9.081503874350764505e-02,6.078029984254942342e-01,6.078029984254942342e-01,5.801000481115994312e-01,-2.784016866309563798e-01,7.703653687218331436e-02,-7.626640613036902994e-03
2.899999999999999911e+00,1.644183199328387022e+09,-9.270407041058614794e-02,5.867626619710906155e-01,5.867626619710906155e-01,5.801000481115994312e-01,-2.537567909354737639e-01,7.695647452777408526e-02,-1.996480418034063224e-03
2.916666666666666519e+00,1.644183199344673395e+09,-9.467108804100986263e-02,5.961139226174925199e-01,5.961139226174925199e-01,5.801000481115994312e-01,-2.268447407059037413e-01,7.697447925267202062e-02,4.140001222261145176e-03
2.933333333333333126e+00,1.644183199364656448e+09,-9.672786659904400453e-02,5.680601406782874729e-01,5.680601406782874729e-01,5.801000481115994312e-01,-1.979893883533259680e-01,7.709402181097424478e-02,1.018830453604160913e-02
2.950000000000000178e+00,1.644183199379636765e+09,-9.888622605767756479e-02,0.000000000000000000e+00,0.000000000000000000e+00,5.801000481115994312e-01,-1.675493717865427779e-01,7.723927767003528622e-02,7.250559147204858716e-03
2.966666666666666785e+00,1.644183199397274256e+09,-1.011579267197111054e-01,0.000000000000000000e+00,0.000000000000000000e+00,5.801000481115994312e-01,-1.359149354617313898e-01,7.734034623293785382e-02,4.884241659940098332e-03
2.983333333333333393e+00,1.644183199414197922e+09,-1.035545612641751850e-01,0.000000000000000000e+00,0.000000000000000000e+00,5.801000481115994312e-01,-1.035043005119738180e-01,7.740677958107597401e-02,3.092736636602411420e-03
3.000000000000000000e+00,1.644183199433124542e+09,-1.060874443475038065e-01,5.797492164862896313e-01,5.797492164862896313e-01,5.801000481115994312e-01,-7.075961328470227463e-02,7.752819991932392851e-02,1.145447635171424269e-02
3.016666666666666607e+00,1.644183199448078871e+09,-1.087675006313218867e-01,5.633845103550867428e-01,5.633845103550867428e-01,5.801000481115994312e-01,-3.814250700515749853e-02,7.779007244811333988e-02,1.994663721209032070e-02
3.033333333333333215e+00,1.644183199463263988e+09,-1.116051521444862138e-01,6.171542590718961385e-01,6.171542590718961385e-01,5.801000481115994312e-01,-6.129316405996583679e-03,7.820415643212851042e-02,2.971630227250681225e-02
3.049999999999999822e+00,1.644183199481821060e+09,-1.146102059157204089e-01,6.101408135870950433e-01,6.101408135870950433e-01,5.801000481115994312e-01,2.479401004521003191e-02,7.878302122082711523e-02,3.971968454434662843e-02
3.066666666666666430e+00,1.644183199498673677e+09,-1.177917428343898676e-01,5.727357710014885361e-01,5.727357710014885361e-01,5.801000481115994312e-01,5.413725128723015367e-02,7.952611387521474340e-02,4.942447559477097796e-02
3.083333333333333481e+00,1.644183199515684605e+09,-1.211580087103540232e-01,0.000000000000000000e+00,0.000000000000000000e+00,5.801000481115994312e-01,8.141145518649021973e-02,8.035427319270938007e-02,4.995317386371784379e-02
3.100000000000000089e+00,1.644183199530991554e+09,-1.247163085091217150e-01,6.171542590718961385e-01,6.171542590718961385e-01,5.801000481115994312e-01,1.061346239938652236e-01,8.127982755456811259e-02,6.108243421962179093e-02
3.116666666666666696e+00,1.644183199549990654e+09,-1.284729047355247511e-01,6.218298893950967576e-01,6.218298893950967576e-01,5.801000481115994312e-01,1.278374843833486041e-01,8.239297582033106027e-02,7.246374218349960206e-02
3.133333333333333304e+00,1.644183199566169024e+09,-1.324329209276671193e-01,5.493576193854842193e-01,5.493576193854842193e-01,5.801000481115994312e-01,1.460692804004509737e-01,8.368674883889143379e-02,8.276041749470480768e-02
3.149999999999999911e+00,1.644183199583499432e+09,-1.366002512029453886e-01,5.867626619710906155e-01,5.867626619710906155e-01,5.801000481115994312e-01,1.604035259569107086e-01,8.515785718700143170e-02,9.374207894539482444e-02
3.166666666666666519e+00,1.644183199601442814e+09,-1.409774767694706998e-01,6.101408135870950433e-01,6.101408135870950433e-01,5.801000481115994312e-01,1.704436524757798888e-01,8.681509218264790717e-02,1.050945850507962603e-01
3.183333333333333126e+00,1.644183199615841150e+09,-1.455657902793341951e-01,0.000000000000000000e+00,0.000000000000000000e+00,5.801000481115994312e-01,1.758284869412974072e-01,8.857643840198448082e-02,1.062637136138146476e-01
3.200000000000000178e+00,1.644183199635015249e+09,-1.503649288550087670e-01,0.000000000000000000e+00,0.000000000000000000e+00,5.801000481115994312e-01,1.762374959587915679e-01,9.035716510928044898e-02,1.074202785058318704e-01
3.216666666666666785e+00,1.644183199650433779e+09,-1.553731165669990921e-01,0.000000000000000000e+00,0.000000000000000000e+00,5.801000481115994312e-01,1.713957324910776181e-01,9.215633940600399809e-02,1.084776997506262802e-01
3.233333333333333393e+00,1.644183199669113874e+09,-1.605870170799371943e-01,0.000000000000000000e+00,0.000000000000000000e+00,5.801000481115994312e-01,1.610784237119395335e-01,9.397156630675421174e-02,1.093471132450750533e-01
3.250000000000000000e+00,1.644183199685687065e+09,-1.660016971160668819e-01,0.000000000000000000e+00,0.000000000000000000e+00,5.801000481115994312e-01,1.451151408990276059e-01,9.579895849199890345e-02,1.099383067414808207e-01
3.266666666666666607e+00,1.644183199702697515e+09,-1.716106013099021332e-01,0.000000000000000000e+00,0.000000000000000000e+00,5.801000481115994312e-01,1.233934954646475901e-01,9.763312204173711650e-02,1.101607014494867393e-01
3.283333333333333215e+00,1.644183199721638918e+09,-1.774055389462966537e-01,0.000000000000000000e+00,0.000000000000000000e+00,5.801000481115994312e-01,9.586230907266812817e-02,9.946715883147232151e-02,1.099243698109626660e-01
3.299999999999999822e+00,1.644183199738355160e+09,-1.833766829868305470e-01,0.000000000000000000e+00,0.000000000000000000e+00,5.801000481115994312e-01,6.253421028432067097e-02,1.012926861091748842e-01,1.091410793713321059e-01
3.316666666666666430e+00,1.644183199754317284e+09,-1.895125816969026045e-01,0.000000000000000000e+00,0.000000000000000000e+00,5.801000481115994312e-01,2.348761527891355880e-02,1.030998735994980292e-01,1.077253521356575233e-01
3.333333333333333481e+00,1.644183199774164200e+09,-1.958001830889574413e-01,0.000000000000000000e+00,0.000000000000000000e+00,5.801000481115994312e-01,-2.113194413604843266e-02,1.048774983010351963e-01,1.055955283651862225e-01
3.350000000000000089e+00,1.644183199789213896e+09,-2.022248722965891421e-01,0.000000000000000000e+00,0.000000000000000000e+00,5.480503216965945112e-01,-7.111117582771571410e-02,1.066130169556336188e-01,1.026748234467925319e-01
3.366666666666666696e+00,1.644183199807261944e+09,-2.087705218906510951e-01,0.000000000000000000e+00,0.000000000000000000e+00,5.480503216965945112e-01,-1.261690899149058853e-01,1.082926559775801156e-01,9.889236625959760274e-02
3.383333333333333304e+00,1.644183199824045420e+09,-2.154195550428030792e-01,0.000000000000000000e+00,0.000000000000000000e+00,5.801000481115994312e-01,-1.859577855444625727e-01,1.099015184368075521e-01,9.418420737462912529e-02
3.399999999999999911e+00,1.644183199842187881e+09,-2.221530213349850735e-01,0.000000000000000000e+00,0.000000000000000000e+00,5.801000481115994312e-01,-2.500639714292403615e-01,1.114237074961583890e-01,8.849428545812428049e-02
3.416666666666666519e+00,1.644183199859129190e+09,-2.289506849060348181e-01,0.000000000000000000e+00,0.000000000000000000e+00,5.801000481115994312e-01,-3.180112220936568979e-01,1.128424655102562013e-01,8.177534040913218838e-02
3.433333333333333126e+00,1.644183199874599934e+09,-2.357911245199433570e-01,0.000000000000000000e+00,0.000000000000000000e+00,5.801000481115994312e-01,-3.892629639795951446e-01,1.141403278047716935e-01,7.398976204829010861e-02
3.449999999999999734e+00,1.644183199894652843e+09,-2.426518450349976486e-01,0.000000000000000000e+00,0.000000000000000000e+00,5.801000481115994312e-01,-4.632261776762416350e-01,1.152992899719264969e-01,6.511036358653127243e-02
3.466666666666666785e+00,1.644183199911784410e+09,-2.495093996502181222e-01,0.000000000000000000e+00,0.000000000000000000e+00,5.801000481115994312e-01,-5.392557946348512932e-01,1.163009873430338459e-01,5.512106963817640232e-02
3.483333333333333393e+00,1.644183199928451061e+09,-2.563395222059400846e-01,0.000000000000000000e+00,0.000000000000000000e+00,5.480503216965945112e-01,-6.166597588977061895e-01,1.171268851337667893e-01,4.401750919914834692e-02
3.500000000000000000e+00,1.644183199944803715e+09,-2.631172687200563076e-01,-5.737834838872004628e-01,-5.737834838872004628e-01,5.801000481115994312e-01,-6.947047166952220465e-01,1.176792263435483543e-01,2.232369797965973873e-02
3.516666666666666607e+00,1.644183199963752031e+09,-2.698171672511647801e-01,-7.242336913040767765e-01,-7.242336913040767765e-01,5.801000481115994312e-01,-7.726222893308707373e-01,1.178414581213055312e-01,-2.786133475346570798e-03
3.533333333333333215e+00,1.644183199980327129e+09,-2.764133750955219959e-01,-7.872128478971874843e-01,-7.872128478971874843e-01,5.801000481115994312e-01,-8.496158776642663835e-01,1.175693277852239704e-01,-2.979448189862257679e-02
3.549999999999999822e+00,1.644183199998593569e+09,-2.828798422471023866e-01,-8.991757929516067671e-01,-8.991757929516067671e-01,5.801000481115994312e-01,-9.248679398003781804e-01,1.168249304851070314e-01,-5.945081347770539426e-02
3.566666666666666430e+00,1.644183200014549732e+09,-2.891904799799437931e-01,-8.851804248198035241e-01,-8.851804248198035241e-01,5.801000481115994312e-01,-9.975476773761021709e-01,1.155822516249313398e-01,-8.958693632079479940e-02
3.583333333333333481e+00,1.644183200032803535e+09,-2.953193333500668261e-01,-1.102108630862741023e+00,-1.102108630862741023e+00,5.801000481115994312e-01,-1.066819060179462042e+00,1.138019364370115027e-01,-1.239554159835783431e-01
3.600000000000000089e+00,1.644183200049363613e+09,-3.012407563612113370e-01,-8.466931624573471593e-01,-8.466931624573471593e-01,5.801000481115994312e-01,-1.131849113811824292e+00,1.114798563747571303e-01,-1.546090405258101486e-01
3.616666666666666696e+00,1.644183200067140341e+09,-3.069295884950524744e-01,-9.551572654788151873e-01,-9.551572654788151873e-01,5.801000481115994312e-01,-1.191816390774581791e+00,1.086278526378034459e-01,-1.875399310597464231e-01
3.633333333333333304e+00,1.644183200082216501e+09,-3.123613312729316416e-01,-9.166700031163587115e-01,-9.166700031163587115e-01,5.801000481115994312e-01,-1.245919541787202434e+00,1.052293922819840383e-01,-2.201846297856530354e-01
3.649999999999999911e+00,1.644183200097522020e+09,-3.175123234929316252e-01,-9.831480017424206741e-01,-9.831480017424206741e-01,5.801000481115994312e-01,-1.293385901374685787e+00,1.012756244645315606e-01,-2.541730936868190072e-01
3.666666666666666519e+00,1.644183200119958401e+09,-3.223599137736644638e-01,-1.105607472895692167e+00,-1.105607472895692167e+00,5.801000481115994312e-01,-1.333479999843314667e+00,9.673762477217388855e-02,-2.902865518734447647e-01
3.683333333333333126e+00,1.644183200134023190e+09,-3.268826290347292551e-01,-7.907116899301372959e-01,-7.907116899301372959e-01,5.801000481115994312e-01,-1.365511912729163058e+00,9.164179141777976934e-02,-3.211277785633723236e-01
3.699999999999999734e+00,1.644183200149981737e+09,-3.310603375535920989e-01,-7.487255855347297873e-01,-7.487255855347297873e-01,5.801000481115994312e-01,-1.388845358681094488e+00,8.603877373866417044e-02,-3.511509432878537895e-01
3.716666666666666785e+00,1.644183200167953968e+09,-3.348744052597416587e-01,-7.207348492711255217e-01,-7.207348492711255217e-01,5.801000481115994312e-01,-1.402905457545912338e+00,7.994144090188814999e-02,-3.804476155646950852e-01
3.733333333333333393e+00,1.644183200185134649e+09,-3.383078439593729669e-01,0.000000000000000000e+00,0.000000000000000000e+00,5.801000481115994312e-01,-1.407186062166106089e+00,7.345883368258573909e-02,-3.974181093814944665e-01
3.750000000000000000e+00,1.644183200202506065e+09,-3.413454502274482216e-01,-7.347302174029277655e-01,-7.347302174029277655e-01,5.801000481115994312e-01,-1.401256580077922864e+00,6.659506655153152321e-02,-4.261541222084544445e-01
3.766666666666666607e+00,1.644183200216889858e+09,-3.439739337585792645e-01,-9.831480017424206741e-01,-9.831480017424206741e-01,5.801000481115994312e-01,-1.384768204897338206e+00,5.922430070007228542e-02,-4.582486264676578491e-01
3.783333333333333215e+00,1.644183200234389305e+09,-3.461820340334700319e-01,-1.130099367126345067e+00,-1.130099367126345067e+00,5.801000481115994312e-01,-1.357459481682383506e+00,5.130653425180090044e-02,-4.917901741661985793e-01
3.799999999999999822e+00,1.644183200251647711e+09,-3.479606242332800026e-01,-1.028632948170778105e+00,-1.028632948170778105e+00,5.801000481115994312e-01,-1.319161135929708850e+00,4.285367916289831158e-02,-5.224672204789707619e-01
3.816666666666666430e+00,1.644183200266567707e+09,-3.493028014197061548e-01,-7.417279014688287209e-01,-7.417279014688287209e-01,5.801000481115994312e-01,-1.269800102060497204e+00,3.394022233656211751e-02,-5.470792303781233379e-01
3.833333333333333481e+00,1.644183200285725355e+09,-3.502039620933046216e-01,-9.026746349845566897e-01,-9.026746349845566897e-01,5.801000481115994312e-01,-1.209402694224218644e+00,2.460607684529393657e-02,-5.729463737070014107e-01
3.850000000000000089e+00,1.644183200303658247e+09,-3.506618623458762629e-01,-6.927441130075201459e-01,-6.927441130075201459e-01,5.480503216965945112e-01,-1.138096869939097422e+00,1.488322958576256475e-02,-5.937375428299136448e-01
3.866666666666666696e+00,1.644183200320576191e+09,-3.506766619339297120e-01,-5.492915896565461198e-01,-5.492915896565461198e-01,5.801000481115994312e-01,-1.056113545426265343e+00,4.847871839295716384e-03,-6.104589373348270342e-01
3.883333333333333304e+00,1.644183200337923765e+09,-3.502509517184601573e-01,7.597609839295207390e-01,7.597609839295207390e-01,5.801000481115994312e-01,-9.637869304049928587e-01,-5.270307055455551726e-03,-6.037411908813336003e-01
3.899999999999999911e+00,1.644183200353929996e+09,-3.493897640406745664e-01,9.467861968575531639e-01,9.467861968575531639e-01,5.801000481115994312e-01,-8.615538595146339240e-01,-1.523749886931483402e-02,-5.923534601117590448e-01
3.916666666666666519e+00,1.644183200370205402e+09,-3.481005657328945513e-01,1.246026537542404666e+00,1.246026537542404666e+00,5.801000481115994312e-01,-7.499521073257003900e-01,-2.495972233453781775e-02,-5.743633294762576780e-01
3.933333333333333126e+00,1.644183200386773109e+09,-3.463932335976835919e-01,1.239013092057603682e+00,1.239013092057603682e+00,5.801000481115994312e-01,-6.296176840018261611e-01,-3.436894314498600833e-02,-5.547975185315465740e-01
3.949999999999999734e+00,1.644183200404728651e+09,-3.442800123251761324e-01,1.353566034976023458e+00,1.353566034976023458e+00,5.801000481115994312e-01,-5.012811189761211539e-01,-4.342122152589403261e-02,-5.315404915506402039e-01
3.966666666666666785e+00,1.644183200423930407e+09,-3.417754549576196288e-01,1.374606371430427076e+00,1.374606371430427076e+00,5.801000481115994312e-01,-3.657627504054355994e-01,-5.206747109616845226e-02,-5.060801816299492772e-01
3.983333333333333393e+00,1.644183200436278582e+09,-3.388963461500361651e-01,1.397984523046430949e+00,1.397984523046430949e+00,5.801000481115994312e-01,-2.239670485583782900e-01,-6.027008486341758897e-02,-4.783106099545659240e-01
4.000000000000000000e+00,1.644183200459075928e+09,-3.356616086156165024e-01,1.435389565632037456e+00,1.435389565632037456e+00,5.801000481115994312e-01,-7.687601156841862571e-02,-6.798822529260381553e-02,-4.479505769576527241e-01
4.016666666666666607e+00,1.644183200472132444e+09,-3.320921932827609613e-01,1.302134101420814538e+00,1.302134101420814538e+00,5.801000481115994312e-01,7.445831796537136227e-02,-7.520206145284862032e-02,-4.177935338076381733e-01
4.033333333333333215e+00,1.644183200490125656e+09,-3.282109538264007531e-01,1.231999646572802254e+00,1.231999646572802254e+00,5.801000481115994312e-01,2.289221573290372291e-01,-8.190579791643998187e-02,-3.867411006123494532e-01
4.049999999999999822e+00,1.644183200507657290e+09,-3.240425063682627616e-01,1.281093764966410919e+00,1.281093764966410919e+00,5.801000481115994312e-01,3.853490415150945259e-01,-8.806789614091838081e-02,-3.528049556131793163e-01
4.066666666666666430e+00,1.644183200522802830e+09,-3.196130752678651987e-01,1.061339139775973051e+00,1.061339139775973051e+00,6.121497745266043511e-01,5.425295582954651197e-01,-9.367772199310066272e-02,-3.204639847931397556e-01
4.083333333333333037e+00,1.644183200539316654e+09,-3.149503260471973598e-01,8.462601449087358008e-01,8.462601449087358008e-01,5.801000481115994312e-01,6.992216762287898346e-01,-9.876106304055130847e-02,-2.896226133933970104e-01
4.099999999999999645e+00,1.644183200557292938e+09,-3.100831866061184439e-01,8.743139268479404036e-01,8.743139268479404036e-01,6.121497745266043511e-01,8.541615739210290936e-01,-1.033093658786069929e-01,-2.562663855425251769e-01
4.116666666666666252e+00,1.644183200575002670e+09,-3.050416579914901893e-01,6.124786287486954084e-01,6.124786287486954084e-01,5.801000481115994312e-01,1.006074872315295909e+00,-1.073215212460965351e-01,-2.252783384906357766e-01
4.133333333333332860e+00,1.644183200592258692e+09,-2.998566160799516211e-01,6.452080410111008524e-01,6.452080410111008524e-01,5.801000481115994312e-01,1.153688166145559801e+00,-1.107965802226908714e-01,-1.918216760614304128e-01
4.150000000000000355e+00,1.644183200609595299e+09,-2.945596056211488012e-01,6.755996381119062644e-01,6.755996381119062644e-01,5.801000481115994312e-01,1.295740746020199952e+00,-1.136948311339385648e-01,-1.560677520813142927e-01
4.166666666666666963e+00,1.644183200624911785e+09,-2.891826281642600471e-01,6.779374532735066294e-01,6.779374532735066294e-01,5.480503216965945112e-01,1.430996398968885641e+00,-1.159831171835340596e-01,-1.186305684943455979e-01
4.183333333333333570e+00,1.644183200642047167e+09,-2.837579254551255148e-01,6.615727471423037409e-01,6.615727471423037409e-01,5.801000481115994312e-01,1.558255172741830119e+00,-1.176373042718682344e-01,-7.997924940794254312e-02
4.200000000000000178e+00,1.644183200661273718e+09,-2.783177599434299432e-01,0.000000000000000000e+00,0.000000000000000000e+00,5.801000481115994312e-01,1.676364987737391399e+00,-1.187277046196009156e-01,-5.094943259792000800e-02
4.216666666666666785e+00,1.644183200678248644e+09,-2.728941940787015241e-01,0.000000000000000000e+00,0.000000000000000000e+00,5.801000481115994312e-01,1.784232980181766237e+00,-1.193233855190099640e-01,-2.061653536214819865e-02
4.233333333333333393e+00,1.644183200694206953e+09,-2.675188700998519242e-01,5.587088800318860127e-01,5.587088800318860127e-01,5.801000481115994312e-01,1.880836461114495650e+00,-1.193271956557791641e-01,2.004636379372736615e-02
4.250000000000000000e+00,1.644183200711539268e+09,-2.622227920352417918e-01,6.639105623039039950e-01,6.639105623039039950e-01,5.801000481115994312e-01,1.965233377851138385e+00,-1.186327197334388212e-01,6.317095354063773094e-02
4.266666666666666607e+00,1.644183200729226589e+09,-2.570361116285534431e-01,7.737878748991231515e-01,7.737878748991231515e-01,5.801000481115994312e-01,2.036572167896255170e+00,-1.172004273799854418e-01,1.085779952337739829e-01
4.283333333333333215e+00,1.644183200745006561e+09,-2.519879198899184769e-01,9.982181304127617505e-01,9.982181304127617505e-01,5.801000481115994312e-01,2.094100899747857625e+00,-1.149786783255442868e-01,1.578948966820098165e-01
4.299999999999999822e+00,1.644183200759970903e+09,-2.471060459418210620e-01,1.021596282028766289e+00,1.021596282028766289e+00,5.801000481115994312e-01,2.137175600639280137e+00,-1.119326140875218922e-01,2.074950304884548569e-01
4.316666666666666430e+00,1.644183200776873589e+09,-2.424168647852529279e-01,9.795156091199584969e-01,9.795156091199584969e-01,5.801000481115994312e-01,2.165267677964411774e+00,-1.080686638597577187e-01,2.560441350454302212e-01
4.333333333333333037e+00,1.644183200793514490e+09,-2.379451155537843088e-01,9.187324149183481170e-01,9.187324149183481170e-01,5.801000481115994312e-01,2.177970348873322415e+00,-1.034089084217912902e-01,3.029960923373249404e-01
4.349999999999999645e+00,1.644183200813085794e+09,-2.337137317518433732e-01,8.135307326463300237e-01,8.135307326463300237e-01,5.801000481115994312e-01,2.175004001242544227e+00,-9.798804561232501986e-02,3.473841417593399039e-01
4.366666666666666252e+00,1.644183200828049421e+09,-2.297436848890966887e-01,8.719761116863400385e-01,8.719761116863400385e-01,5.801000481115994312e-01,2.156220418841240161e+00,-9.182803477155120075e-02,3.916940730940257631e-01
4.383333333333332860e+00,1.644183200845152855e+09,-2.260538428258905830e-01,8.836651874943423080e-01,8.836651874943423080e-01,5.801000481115994312e-01,2.121605813944621222e+00,-8.493881167054150028e-02,4.348927000169988122e-01
4.400000000000000355e+00,1.644183200861750126e+09,-2.226608440359996999e-01,-1.444995150091900049e+00,-1.444995150091900049e+00,5.801000481115994312e-01,2.071282621793040235e+00,-7.766416446222602910e-02,4.380561773370356682e-01
4.416666666666666963e+00,1.644183200879600525e+09,-2.195789888731191630e-01,-1.525468516849764145e+00,-1.525468516849764145e+00,5.801000481115994312e-01,2.005510023054434043e+00,-7.035742913870277060e-02,4.387501337835902349e-01
4.433333333333333570e+00,1.644183200896551847e+09,-2.168201487976126052e-01,-1.742396722892700200e+00,-1.742396722892700200e+00,6.121497745266043511e-01,1.924683172706413758e+00,-6.308034980097418365e-02,4.345111619427568517e-01
4.450000000000000178e+00,1.644183200911011457e+09,-2.143936943808926188e-01,-1.668921040200738615e+00,-1.668921040200738615e+00,5.801000481115994312e-01,1.829331126393198836e+00,-5.587635607927940451e-02,4.299806696576030651e-01
4.466666666666666785e+00,1.644183200928761005e+09,-2.123064427575694912e-01,-1.602443041574676874e+00,-1.602443041574676874e+00,5.801000481115994312e-01,1.720113468207047802e+00,-4.875314803158647958e-02,4.248186353871163390e-01
4.483333333333333393e+00,1.644183200947910547e+09,-2.105626250412993838e-01,-1.570953463278121465e+00,-1.570953463278121465e+00,5.801000481115994312e-01,1.597815656864751688e+00,-4.172780338411149342e-02,4.182409939660851617e-01
4.500000000000000000e+00,1.644183200962867975e+09,-2.091638740603013191e-01,-1.619937251739430151e+00,-1.619937251739430151e+00,5.801000481115994312e-01,1.463343120265281572e+00,-3.483651666569537869e-02,4.087398050564332586e-01
4.516666666666666607e+00,1.644183200977831841e+09,-2.081092326041014406e-01,-1.595445357508775697e+00,-1.595445357508775697e+00,5.801000481115994312e-01,1.317714141291203234e+00,-2.811900230140912393e-02,3.973934370885208178e-01
4.533333333333333215e+00,1.644183200995781660e+09,-2.073951822054884431e-01,-1.448493992124849861e+00,-1.448493992124849861e+00,5.801000481115994312e-01,1.162051590320215988e+00,-2.159023009721608433e-02,3.860906248542505526e-01
4.549999999999999822e+00,1.644183201015074968e+09,-2.070156923123777082e-01,-1.116103998994543156e+00,-1.116103998994543156e+00,5.801000481115994312e-01,9.975735721114160626e-01,-1.522508486110257797e-02,3.777499725034182410e-01
4.566666666666666430e+00,1.644183201031032324e+09,-2.069622895345796243e-01,9.537996423423541481e-01,9.537996423423541481e-01,5.801000481115994312e-01,8.255830663933509950e-01,-8.735657773142845722e-03,4.009169238943869340e-01
4.583333333333333037e+00,1.644183201047986746e+09,-2.072241464819059020e-01,-1.032131790203729249e+00,-1.032131790203729249e+00,5.801000481115994312e-01,6.474566524817466640e-01,-2.162215409107991725e-03,3.879322292349857149e-01
4.599999999999999645e+00,1.644183201066935778e+09,-2.077881895439059323e-01,9.795156091199584969e-01,9.795156091199584969e-01,5.801000481115994312e-01,4.646324184724872075e-01,4.449206797898825824e-03,4.053899408211863453e-01
4.616666666666666252e+00,1.644183201082246542e+09,-2.086392247993843763e-01,9.888668697663604013e-01,9.888668697663604013e-01,5.801000481115994312e-01,2.785971648761155217e-01,1.132477591557400076e-02,4.196387722808857523e-01
4.633333333333332860e+00,1.644183201100199699e+09,-2.097600810869594823e-01,8.766517420095408797e-01,8.766517420095408797e-01,5.801000481115994312e-01,9.087302087706314313e-02,1.839442973999055181e-02,4.286945311712459517e-01
4.650000000000000355e+00,1.644183201117156982e+09,-2.111317691178127287e-01,7.761256900607235165e-01,7.761256900607235165e-01,5.801000481115994312e-01,-9.699640138329979067e-02,2.557392876651113159e-02,4.328338536226824518e-01
4.666666666666666963e+00,1.644183201133402109e+09,-2.127336553696292931e-01,-6.822475869086691569e-01,-6.822475869086691569e-01,5.801000481115994312e-01,-2.834601830731698913e-01,3.259465906000492963e-02,4.097179938294913115e-01
4.683333333333333570e+00,1.644183201151353121e+09,-2.145436493679765688e-01,-6.087719042167063499e-01,-6.087719042167063499e-01,5.801000481115994312e-01,-4.669744692962464749e-01,3.921811921087518804e-02,3.851654274534051514e-01
4.700000000000000178e+00,1.644183201168425798e+09,-2.165384028390838489e-01,0.000000000000000000e+00,0.000000000000000000e+00,5.801000481115994312e-01,-6.460168944519051326e-01,4.549511558493343766e-02,3.681214828384818394e-01
4.716666666666666785e+00,1.644183201185727358e+09,-2.186935191074168838e-01,0.000000000000000000e+00,0.000000000000000000e+00,5.801000481115994312e-01,-8.191009206475827753e-01,5.146649388148219484e-02,3.484984225311400508e-01
4.733333333333333393e+00,1.644183201202685118e+09,-2.209837710135985067e-01,0.000000000000000000e+00,0.000000000000000000e+00,5.801000481115994312e-01,-9.847899468415911572e-01,5.709064646881761157e-02,3.264611041631114707e-01
4.750000000000000000e+00,1.644183201218642235e+09,-2.233833255440334231e-01,5.446819890622834892e-01,5.446819890622834892e-01,5.801000481115994312e-01,-1.141711047192731421e+00,6.240411194952516505e-02,3.111971543802297679e-01
4.766666666666666607e+00,1.644183201236593485e+09,-2.258659732939984899e-01,5.587088800318860127e-01,5.587088800318860127e-01,5.801000481115994312e-01,-1.288568199339879206e+00,6.744693994959265193e-02,2.939900043916957029e-01
4.783333333333333215e+00,1.644183201253548384e+09,-2.284053608315697315e-01,5.867626619710906155e-01,5.867626619710906155e-01,5.801000481115994312e-01,-1.424154867021665494e+00,7.219050628082561427e-02,2.752899013096198333e-01
4.799999999999999822e+00,1.644183201270502567e+09,-2.309752239913110683e-01,0.000000000000000000e+00,0.000000000000000000e+00,5.801000481115994312e-01,-1.547365806553486545e+00,7.652692518682986667e-02,2.451640522943908107e-01
4.816666666666666430e+00,1.644183201287459612e+09,-2.335496201045440534e-01,0.000000000000000000e+00,0.000000000000000000e+00,5.801000481115994312e-01,-1.657207973169239734e+00,8.035023615168383759e-02,2.137206084433828646e-01
4.833333333333333037e+00,1.644183201304410934e+09,-2.361031571676563412e-01,-9.796491597094695303e-01,-9.796491597094695303e-01,5.801000481115994312e-01,-1.752810411057573070e+00,8.350531841599530269e-02,1.650245333329540265e-01
4.849999999999999645e+00,1.644183201320371389e+09,-2.386112179614910400e-01,-9.831480017424206741e-01,-9.831480017424206741e-01,5.801000481115994312e-01,-1.833433020011671744e+00,8.584390645787395857e-02,1.157429282618404887e-01
4.866666666666666252e+00,1.644183201335808039e+09,-2.410501771634515344e-01,-8.991757929516067671e-01,-8.991757929516067671e-01,5.801000481115994312e-01,-1.898474101888442345e+00,8.737055599181203780e-02,6.758878048056826682e-02
4.883333333333332860e+00,1.644183201353789091e+09,-2.433976095395112837e-01,-7.767163217983352741e-01,-7.767163217983352741e-01,5.801000481115994312e-01,-1.947476601444731337e+00,8.811143338455121321e-02,2.144468770044465067e-02
4.900000000000000355e+00,1.644183201373757362e+09,-2.456324873656037799e-01,-7.627209536665331413e-01,-7.627209536665331413e-01,5.801000481115994312e-01,-1.980132968480678546e+00,8.808703854292775082e-02,-2.424514949371875394e-02
4.916666666666666963e+00,1.644183201389713287e+09,-2.477353653065140493e-01,-8.117047421278417163e-01,-8.117047421278417163e-01,5.801000481115994312e-01,-1.996288581456493016e+00,8.729846003121689846e-02,-7.025645970841346011e-02
4.933333333333333570e+00,1.644183201407018185e+09,-2.496885510749521642e-01,-7.347302174029277655e-01,-7.347302174029277655e-01,5.801000481115994312e-01,-1.995943686733043565e+00,8.576006085118066669e-02,-1.142292922639767533e-01
4.950000000000000178e+00,1.644183201424918890e+09,-2.514762603032318911e-01,-7.557232696006320749e-01,-7.557232696006320749e-01,5.801000481115994312e-01,-1.979253822182573730e+00,8.349426031970047513e-02,-1.575464432622166455e-01
4.966666666666666785e+00,1.644183201439709187e+09,-2.530847541842219939e-01,-8.956769509186557343e-01,-8.956769509186557343e-01,5.801000481115994312e-01,-1.946528708980048039e+00,8.049767979476074586e-02,-2.019199570689219625e-01
4.983333333333333393e+00,1.644183201458304167e+09,-2.545024585759929070e-01,-1.270053048444369947e+00,-1.270053048444369947e+00,5.801000481115994312e-01,-1.898229610768437325e+00,7.672263168039572534e-02,-2.509496199414370521e-01
5.000000000000000000e+00,1.644183201478606701e+09,-2.557200634148626417e-01,-1.214071575917160306e+00,-1.214071575917160306e+00,5.801000481115994312e-01,-1.834965174937485566e+00,7.215366482401849857e-02,-2.971979322659705769e-01
5.016666666666666607e+00,1.644183201496551752e+09,-2.550275839106448394e-01,-1.088113262730938890e+00,-1.088113262730938890e+00,5.801000481115994312e-01,-1.757485786306975717e+00,6.684837951909169962e-02,-3.393192977783423547e-01
5.033333333333333215e+00,1.644183201509551525e+09,-2.541298132615583683e-01,7.293693868287155491e-01,7.293693868287155491e-01,5.801000481115994312e-01,-1.655620612368506439e+00,6.111199055872812425e-02,-3.490204292436419609e-01
5.049999999999999822e+00,1.644183201529487610e+09,-2.530287650654731713e-01,6.802752684351068835e-01,6.802752684351068835e-01,5.801000481115994312e-01,-1.542907789057404999e+00,5.522404304632856642e-02,-3.575096904082807336e-01
5.066666666666666430e+00,1.644183201546445608e+09,-2.517288102571302311e-01,6.755996381119062644e-01,6.755996381119062644e-01,5.801000481115994312e-01,-1.420673824095017190e+00,4.921201760467824177e-02,-3.639155680663489489e-01
5.083333333333333037e+00,1.644183201563372850e+09,-2.502365894575214189e-01,7.130046806975126605e-01,7.130046806975126605e-01,5.801000481115994312e-01,-1.290314440468093293e+00,4.311728402467001481e-02,-3.674426638158503899e-01
5.099999999999999645e+00,1.644183201577684402e+09,-2.485609059650221719e-01,7.036534200511108672e-01,7.036534200511108672e-01,5.801000481115994312e-01,-1.153280313865176376e+00,3.698188830088425944e-02,-3.688010496556323736e-01
5.116666666666666252e+00,1.644183201594805241e+09,-2.467126004402651063e-01,7.667744294143221673e-01,7.667744294143221673e-01,5.801000481115994312e-01,-1.011062386109822686e+00,3.085240195048515391e-02,-3.667430292501582811e-01
5.133333333333332860e+00,1.644183201611573935e+09,-2.447044084843552347e-01,8.532735903935368960e-01,8.532735903935368960e-01,5.801000481115994312e-01,-8.651769006107401516e-01,2.478902876869681221e-02,-3.608780445719900198e-01
5.150000000000000355e+00,1.644183201628816366e+09,-2.425508024474560542e-01,8.813273723327416098e-01,8.813273723327416098e-01,5.801000481115994312e-01,-7.171503080387934270e-01,1.884691556612091631e-02,-3.521996469645150007e-01
5.166666666666666963e+00,1.644183201644891262e+09,-2.402678189309134793e-01,1.068352585260774035e+00,1.068352585260774035e+00,5.801000481115994312e-01,-5.685041911651355084e-01,1.309460675062432307e-02,-3.381165315807577731e-01
5.183333333333333570e+00,1.644183201660904884e+09,-2.378728735599026367e-01,1.070690400422374511e+00,1.070690400422374511e+00,5.801000481115994312e-01,-4.207403570488018607e-01,7.595803472627810950e-03,-3.217852275798683825e-01
5.200000000000000178e+00,1.644183201679847002e+09,-2.353845647042361044e-01,1.016920651705564893e+00,1.016920651705564893e+00,5.801000481115994312e-01,-2.753262425561006088e-01,2.379590872317534182e-03,-3.042091081604003655e-01
5.216666666666666785e+00,1.644183201696903467e+09,-2.328224679116118745e-01,9.350971210495508945e-01,9.350971210495508945e-01,5.801000481115994312e-01,-1.336807755525235564e-01,-2.537851391021388701e-03,-2.859347268054442948e-01
5.233333333333333393e+00,1.644183201710841656e+09,-2.302069228895494979e-01,1.007569391059163655e+00,1.007569391059163655e+00,5.801000481115994312e-01,2.839170931592249758e-03,-7.124378589225637687e-03,-2.645080569073940957e-01
5.250000000000000000e+00,1.644183201730822802e+09,-2.275588149289949902e-01,1.103419812684780288e+00,1.103419812684780288e+00,5.801000481115994312e-01,1.329516006440714104e-01,-1.132554398302422147e-02,-2.397007012914479929e-01
5.266666666666666607e+00,1.644183201748066187e+09,-2.248993527036242113e-01,1.105757627846380542e+00,1.105757627846380542e+00,5.801000481115994312e-01,2.554613689089135775e-01,-1.509943584370799369e-02,-2.132398261515093263e-01
5.283333333333333215e+00,1.644183201766018391e+09,-2.222498444039487653e-01,1.313823177228816697e+00,1.313823177228816697e+00,5.801000481115994312e-01,3.692711958900923852e-01,-1.839151032041377865e-02,-1.818961787894883830e-01
5.299999999999999822e+00,1.644183201784296989e+09,-2.196314741741781928e-01,1.327850068198418665e+00,1.327850068198418665e+00,5.801000481115994312e-01,4.733916139086333796e-01,-2.114920130936288889e-02,-1.491177930987550582e-01
5.316666666666666430e+00,1.644183201799417496e+09,-2.170650808124763576e-01,1.419024859500834568e+00,1.419024859500834568e+00,5.801000481115994312e-01,5.669497553870197493e-01,-2.333959783226808790e-02,-1.138278196610522930e-01
5.333333333333333037e+00,1.644183201815432072e+09,-2.145709406717037082e-01,1.582671920812863231e+00,1.582671920812863231e+00,5.801000481115994312e-01,6.491968998818462566e-01,-2.491273936955130247e-02,-7.505686444552392422e-02
5.349999999999999645e+00,1.644183201830414772e+09,-2.121685566582920679e-01,1.772034948902495577e+00,1.772034948902495577e+00,5.801000481115994312e-01,7.195147113330437882e-01,-2.580918613645836676e-02,-3.263459000802454435e-02
5.366666666666666252e+00,1.644183201850943804e+09,-2.098764551718123594e-01,1.800088730841700846e+00,1.800088730841700846e+00,5.801000481115994312e-01,7.774201099781911095e-01,-2.599258165687310870e-02,1.050728619272173203e-02
5.383333333333332860e+00,1.644183201865302801e+09,-2.077119927575401814e-01,1.931006379891322844e+00,1.931006379891322844e+00,5.801000481115994312e-01,8.225687372213168480e-01,-2.543858632280925763e-02,5.584620947720186912e-02
5.400000000000000355e+00,1.644183201882619381e+09,-2.056911741595261467e-01,1.933344195052923764e+00,1.933344195052923764e+00,5.801000481115994312e-01,8.547569859671588777e-01,-2.413043574486986587e-02,1.010064119162638607e-01
5.416666666666666963e+00,1.644183201902200937e+09,-2.038284833629569748e-01,1.928668564729723034e+00,1.928668564729723034e+00,5.801000481115994312e-01,8.739225833936249410e-01,-2.207385131448758725e-02,1.456596799546040488e-01
5.433333333333333570e+00,1.644183201917371035e+09,-2.021367291028445534e-01,1.825804697619305195e+00,1.825804697619305195e+00,5.801000481115994312e-01,8.801437276915701213e-01,-1.929256162289191487e-02,1.879775306848562866e-01
5.450000000000000178e+00,1.644183201932635546e+09,-2.006269061921458763e-01,1.659819821145676277e+00,1.659819821145676277e+00,5.480503216965945112e-01,8.736367948079472034e-01,-1.583564403656049016e-02,2.267448900310852500e-01
5.466666666666666785e+00,1.644183201950891495e+09,-1.993080738873732605e-01,1.622414778560069770e+00,1.622414778560069770e+00,5.801000481115994312e-01,8.547526455408338553e-01,-1.174573305274066205e-02,2.639411027822804456e-01
5.483333333333333393e+00,1.644183201966317415e+09,-1.981872523646465711e-01,1.402660153369631679e+00,1.402660153369631679e+00,5.801000481115994312e-01,8.239715773107698649e-01,-7.075626864184615152e-03,2.963815254383977416e-01
5.500000000000000000e+00,1.644183201983343601e+09,-1.972693382251965999e-01,1.383957632076828315e+00,1.383957632076828315e+00,5.801000481115994312e-01,7.818969784336746720e-01,-1.877722218221277058e-03,3.272811976342760998e-01
5.516666666666666607e+00,1.644183201999475956e+09,-1.965570397877838549e-01,1.213297125279998889e+00,1.213297125279998889e+00,5.801000481115994312e-01,7.292477556115040116e-01,3.800065434918193513e-03,3.539791579959949974e-01
5.533333333333333215e+00,1.644183202016466618e+09,-1.960508327576678811e-01,9.070433391103462917e-01,9.070433391103462917e-01,5.801000481115994312e-01,6.668496175117226699e-01,9.868213170752853508e-03,3.741425595371948298e-01
5.549999999999999822e+00,1.644183202034906864e+09,-1.957489366890165505e-01,-1.081115578665037935e+00,-1.081115578665037935e+00,5.801000481115994312e-01,5.956253086031888522e-01,1.598518958101652690e-02,3.599340786259003222e-01
5.566666666666666430e+00,1.644183202049221754e+09,-1.956473124813978282e-01,-1.333032205037480766e+00,-1.333032205037480766e+00,5.801000481115994312e-01,5.165838977442129831e-01,2.182160836932411918e-02,3.404901880493715893e-01
5.583333333333333037e+00,1.644183202066673756e+09,-1.957396809726685005e-01,-1.340029889103381722e+00,-1.340029889103381722e+00,5.801000481115994312e-01,4.308092352763261967e-01,2.732383415176396074e-02,3.198342847031475089e-01
5.599999999999999645e+00,1.644183202084063292e+09,-1.960175625116295783e-01,-1.396011361630591363e+00,-1.396011361630591363e+00,5.801000481115994312e-01,3.394477004720333757e-01,3.246429679241773919e-02,2.970844277098511066e-01
5.616666666666666252e+00,1.644183202100389004e+09,-1.964703372157012018e-01,-1.553459253113368188e+00,-1.553459253113368188e+00,5.801000481115994312e-01,2.436953680399310540e-01,3.719376523018261271e-02,2.705255611875289623e-01
5.633333333333332860e+00,1.644183202116504908e+09,-1.970853254430591783e-01,-1.696911776464342880e+00,-1.696911776464342880e+00,5.801000481115994312e-01,1.447847279353806638e-01,4.145077889540290522e-02,2.403997633801593092e-01
5.650000000000000355e+00,1.644183202133033037e+09,-1.978478878365492466e-01,-1.514971990750911823e+00,-1.514971990750911823e+00,5.801000481115994312e-01,4.397109690983427854e-02,4.522106210569053208e-02,2.121127986058537196e-01
5.666666666666666963e+00,1.644183202152318001e+09,-1.987415441297342156e-01,-1.371519467399936909e+00,-1.371519467399936909e+00,5.801000481115994312e-01,-5.748113698773671398e-02,4.852960401369831728e-02,1.849875799580513736e-01
5.683333333333333570e+00,1.644183202170269251e+09,-1.997481097449217424e-01,1.210959310118398635e+00,1.210959310118398635e+00,5.801000481115994312e-01,-1.583122943907529501e-01,5.173257190053806576e-02,1.993287290000057277e-01
5.700000000000000178e+00,1.644183202185225964e+09,-2.008478490603191058e-01,1.215634940441599587e+00,1.215634940441599587e+00,5.801000481115994312e-01,-2.572810665976910105e-01,5.515955431560901762e-02,2.118743111489999054e-01
5.716666666666666785e+00,1.644183202203183174e+09,-2.020196440798245896e-01,1.402660153369631679e+00,1.402660153369631679e+00,5.801000481115994312e-01,-3.531779186052404484e-01,5.880648365911100156e-02,2.257187523849044364e-01
5.733333333333333393e+00,1.644183202220133305e+09,-2.032411771055141481e-01,1.372268556268826600e+00,1.372268556268826600e+00,5.801000481115994312e-01,-4.448380951869396194e-01,6.266538363686523228e-02,2.373170267585149873e-01
5.750000000000000000e+00,1.644183202236499786e+09,-2.044891258907915454e-01,1.390971077561629965e+00,1.390971077561629965e+00,5.801000481115994312e-01,-5.311540963504741697e-01,6.670664742049235707e-02,2.476060459950737980e-01
5.766666666666666607e+00,1.644183202253797531e+09,-2.057393696423723273e-01,1.302134101420814538e+00,1.302134101420814538e+00,5.801000481115994312e-01,-6.110874941901147661e-01,7.089466308532552108e-02,2.549354737840856533e-01
5.783333333333333215e+00,1.644183202273869753e+09,-2.069672041427151887e-01,1.374606371430427076e+00,1.374606371430427076e+00,5.480503216965945112e-01,-6.836799701214242297e-01,7.520380693285026730e-02,2.621417699583776240e-01
5.799999999999999822e+00,1.644183202288829088e+09,-2.081475641819965916e-01,1.435389565632037456e+00,1.435389565632037456e+00,5.480503216965945112e-01,-7.480634596727089303e-01,7.963156310479974076e-02,2.691694488857502843e-01
5.816666666666666430e+00,1.644183202306006908e+09,-2.092552514209017611e-01,1.351228219814423204e+00,1.351228219814423204e+00,5.801000481115994312e-01,-8.034693013270858275e-01,8.415619950277840322e-02,2.737741277958938846e-01
5.833333333333333037e+00,1.644183202321956396e+09,-2.102651657530126006e-01,1.288107210451211904e+00,1.288107210451211904e+00,5.801000481115994312e-01,-8.492362962680102267e-01,8.874190488322432346e-02,2.765029376518346460e-01
5.849999999999999645e+00,1.644183202339910984e+09,-2.111525381987580940e-01,1.390971077561629965e+00,1.390971077561629965e+00,5.801000481115994312e-01,-8.848175971727000322e-01,9.338200662497342375e-02,2.802987272499010696e-01
5.866666666666666252e+00,1.644183202357857943e+09,-2.118931633422110050e-01,1.217972755603200063e+00,1.217972755603200063e+00,5.801000481115994312e-01,-9.097863563099117812e-01,9.805750393831622058e-02,2.807596699247797423e-01
5.883333333333332860e+00,1.644183202374313116e+09,-2.124636293175158064e-01,1.288107210451211904e+00,1.288107210451211904e+00,5.480503216965945112e-01,-9.238400760070886175e-01,1.027483658630631153e-01,2.821399269074348903e-01
5.900000000000000355e+00,1.644183202392996311e+09,-2.128415433636008935e-01,1.292782840774413078e+00,1.292782840774413078e+00,5.801000481115994312e-01,-9.268036179289588228e-01,1.074622779035753761e-01,2.835256685810135235e-01
5.916666666666666963e+00,1.644183202410504103e+09,-2.130057509939167204e-01,1.073028215583974765e+00,1.073028215583974765e+00,5.801000481115994312e-01,-9.186308414197315031e-01,1.121698704488027915e-01,2.813913656051901802e-01
5.933333333333333570e+00,1.644183202425465584e+09,-2.129365468720856580e-01,1.224986201088001270e+00,1.224986201088001270e+00,5.801000481115994312e-01,-8.994048552651825457e-01,1.168658300843398168e-01,2.821217617333667826e-01
5.950000000000000178e+00,1.644183202444398403e+09,-2.126158755442219273e-01,1.143162670431987049e+00,1.143162670431987049e+00,5.801000481115994312e-01,-8.693368814871034189e-01,1.215667136026615941e-01,2.819846413641263760e-01
5.966666666666666785e+00,1.644183202459290504e+09,-2.120275202538087211e-01,1.379282001753627807e+00,1.379282001753627807e+00,5.801000481115994312e-01,-8.287637440471833372e-01,1.263035476224767806e-01,2.864231116394185817e-01
5.983333333333333393e+00,1.644183202477829695e+09,-2.111572781548428090e-01,1.269404689158408539e+00,1.269404689158408539e+00,5.480503216965945112e-01,-7.781440094669205276e-01,1.311055584169078247e-01,2.898087788398456821e-01
6.000000000000000000e+00,1.644183202495117188e+09,-2.099931203427875259e-01,1.288107210451211904e+00,1.288107210451211904e+00,5.801000481115994312e-01,-7.180528202222909995e-01,1.359744123945847982e-01,2.944408313659840348e-01
6.016666666666666607e+00,1.644183202512024403e+09,-2.085253352398551974e-01,1.262391243673607555e+00,1.262391243673607555e+00,5.801000481115994312e-01,-6.491754752071592360e-01,1.409257889373896899e-01,2.997097176309532762e-01
6.033333333333333215e+00,1.644183202528011084e+09,-2.067466540004457565e-01,1.274080319481609935e+00,1.274080319481609935e+00,5.801000481115994312e-01,-5.722998244428165737e-01,1.459764851143028896e-01,3.063553630380199677e-01
6.049999999999999822e+00,1.644183202546985388e+09,-2.046523567430659774e-01,1.199270234310396699e+00,1.199270234310396699e+00,5.801000481115994312e-01,-4.883075574124016160e-01,1.511382923956809676e-01,3.130429337049417948e-01
6.066666666666666430e+00,1.644183202562888384e+09,-2.022403585657669700e-01,-1.749394406958602488e+00,-1.749394406958602488e+00,5.801000481115994312e-01,-3.981644757958862080e-01,1.560158150734378690e-01,2.723727629812767725e-01
6.083333333333333037e+00,1.644183202581327915e+09,-1.995112744617509315e-01,-1.717904828662047301e+00,-1.717904828662047301e+00,5.801000481115994312e-01,-3.029098518585056632e-01,1.602386249291948561e-01,2.344697084501772277e-01
6.099999999999999645e+00,1.644183202596488714e+09,-1.964684624191536111e-01,-1.703909460530243836e+00,-1.703909460530243836e+00,5.801000481115994312e-01,-2.036449831975752356e-01,1.638505959586573080e-01,1.990651633585844571e-01
6.116666666666666252e+00,1.644183202613978148e+09,-1.931180441627121935e-01,-1.693412934431392847e+00,-1.693412934431392847e+00,5.801000481115994312e-01,-1.015210628844120389e-01,1.668929365222799055e-01,1.661072561730317920e-01
6.133333333333332860e+00,1.644183202632243395e+09,-1.894689031737545881e-01,-1.787881669321058853e+00,-1.787881669321058853e+00,5.801000481115994312e-01,2.273508835815729601e-03,1.693918188846318118e-01,1.338482378025924735e-01
6.150000000000000355e+00,1.644183202650192499e+09,-1.855326598071903588e-01,-1.511473148717961790e+00,-1.511473148717961790e+00,5.801000481115994312e-01,1.065262392729948299e-01,1.714100836944560668e-01,1.084141911686854337e-01
6.166666666666666963e+00,1.644183202665148735e+09,-1.813236235086388426e-01,1.306809731744015268e+00,1.306809731744015268e+00,5.801000481115994312e-01,2.100139479239465645e-01,1.734115171019081081e-01,1.316931524223660943e-01
6.183333333333333570e+00,1.644183202682112217e+09,-1.768587223198412328e-01,1.253039983027206317e+00,1.253039983027206317e+00,5.480503216965945112e-01,3.115163213495907302e-01,1.758043107491195911e-01,1.553762971814345584e-01
6.200000000000000178e+00,1.644183202700567484e+09,-1.721574100447786915e-01,-1.444995150091900049e+00,-1.444995150091900049e+00,5.801000481115994312e-01,4.098294769244279490e-01,1.782294774511527513e-01,1.356983692599435243e-01
6.216666666666666785e+00,1.644183202717498302e+09,-1.672415516308275729e-01,-1.329533363004529622e+00,-1.329533363004529622e+00,5.801000481115994312e-01,5.037793938008456873e-01,1.803583206620928692e-01,1.198069598956086890e-01
6.233333333333333393e+00,1.644183202733441591e+09,-1.621352874974888447e-01,-1.682916408332540970e+00,-1.682916408332540970e+00,5.801000481115994312e-01,5.922350705841219476e-01,1.821879100793502848e-01,9.979934818254428130e-02
6.250000000000000000e+00,1.644183202750794172e+09,-1.568648777182181375e-01,-1.700410618497294024e+00,-1.700410618497294024e+00,5.801000481115994312e-01,6.741212717925912923e-01,1.836956966166357064e-01,8.118673920018047718e-02
6.266666666666666607e+00,1.644183202770740271e+09,-1.514585271273152234e-01,-1.119602841027494300e+00,-1.119602841027494300e+00,5.801000481115994312e-01,7.484307291568098597e-01,1.849863289064147820e-01,7.370990504589000625e-02
6.283333333333333215e+00,1.644183202787419319e+09,-1.459461925823461459e-01,-1.441496308058948905e+00,-1.441496308058948905e+00,5.801000481115994312e-01,8.142356691532952606e-01,1.861180089225515921e-01,6.212388104799231037e-02
6.299999999999999822e+00,1.644183202804678202e+09,-1.403593737618848980e-01,-2.053793663825304261e+00,-2.053793663825304261e+00,5.801000481115994312e-01,8.706985448194526356e-01,1.869814166704022729e-01,4.154222131671075902e-02
6.316666666666666430e+00,1.644183202818794012e+09,-1.347308890172801976e-01,-2.113273978385465046e+00,-2.113273978385465046e+00,5.801000481115994312e-01,9.170818577908630420e-01,1.875028305407822060e-01,2.108427210308745289e-02
6.333333333333333037e+00,1.644183202838248014e+09,-1.290946379245401787e-01,-1.787881669321058853e+00,-1.787881669321058853e+00,5.801000481115994312e-01,9.527569655627294853e-01,1.877359750648640579e-01,6.932382516366766140e-03
6.349999999999999645e+00,1.644183202854623795e+09,-1.234853522972379075e-01,-1.651426830035985338e+00,-1.651426830035985338e+00,5.801000481115994312e-01,9.772117791129336650e-01,1.877574343500905685e-01,-4.325994284243938823e-03
6.366666666666666252e+00,1.644183202870738506e+09,-1.179383375226391306e-01,1.479808053702445170e+00,1.479808053702445170e+00,5.801000481115994312e-01,9.900572671356939747e-01,1.880270709843480659e-01,3.656879109546754686e-02
6.383333333333332860e+00,1.644183202888748407e+09,-1.124892061702330720e-01,1.477470238540844694e+00,1.477470238540844694e+00,5.801000481115994312e-01,9.910326951100565385e-01,1.889724507931740405e-01,7.676512684748992843e-02
6.400000000000000355e+00,1.644183202907689333e+09,-1.071736058936984259e-01,1.587347551136063739e+00,1.587347551136063739e+00,5.801000481115994312e-01,9.800095401485739988e-01,1.905958713788272474e-01,1.179309911165806884e-01
6.416666666666666963e+00,1.644183202919937849e+09,-1.020269437036060295e-01,1.477470238540844694e+00,1.477470238540844694e+00,5.801000481115994312e-01,9.569940359110753469e-01,1.928813486304145897e-01,1.562199184391920292e-01
6.433333333333333570e+00,1.644183202940985203e+09,-9.708410872816637671e-02,-1.392512519597640219e+00,-1.392512519597640219e+00,5.801000481115994312e-01,9.221283156934136915e-01,1.953984670636989829e-01,1.458630632741705346e-01
6.450000000000000178e+00,1.644183202957996368e+09,-9.237919560291953103e-02,-1.434498623993047728e+00,-1.434498623993047728e+00,5.801000481115994312e-01,8.756901359737860879e-01,1.977321885319930361e-01,1.342158670055554615e-01
6.466666666666666785e+00,1.644183202975944519e+09,-8.794523063706714827e-02,-1.626934935805330884e+00,-1.626934935805330884e+00,5.801000481115994312e-01,8.180911770778760417e-01,1.998388637826864767e-01,1.186284624427377810e-01
6.483333333333333393e+00,1.644183202992898703e+09,-8.381390289413739869e-02,1.589685366297663771e+00,1.589685366297663771e+00,5.801000481115994312e-01,7.498739320648935003e-01,2.021227608986365387e-01,1.553372202994970086e-01
6.500000000000000000e+00,1.644183203010814905e+09,-8.001530229786991966e-02,1.594360996620865389e+00,1.594360996620865389e+00,5.801000481115994312e-01,6.717072092952289797e-01,2.050032497872221471e-01,1.902245348428462934e-01
6.516666666666666607e+00,1.644183203028765678e+09,-7.657766683079315906e-02,1.587347551136063739e+00,1.587347551136063739e+00,5.801000481115994312e-01,5.843802882730295689e-01,2.084473449264093448e-01,2.229759036938106509e-01
6.533333333333333215e+00,1.644183203045133352e+09,-7.352714083324317362e-02,1.510199650803250027e+00,1.510199650803250027e+00,5.801000481115994312e-01,4.887957821215542786e-01,2.124089146915328352e-01,2.523309244774338822e-01
6.549999999999999822e+00,1.644183203061089993e+09,-7.088754633493118962e-02,-1.507974306685010646e+00,-1.507974306685010646e+00,5.801000481115994312e-01,3.859612733080992619e-01,2.164246050262731702e-01,2.296150169197450075e-01
6.566666666666666430e+00,1.644183203078500509e+09,-6.868016926028228109e-02,-1.637431461904183427e+00,-1.637431461904183427e+00,5.801000481115994312e-01,2.769798018547777740e-01,2.200319011721151297e-01,2.033335264397462816e-01
6.583333333333333037e+00,1.644183203094986200e+09,-6.692356224311286905e-02,-1.528967358882713734e+00,-1.528967358882713734e+00,5.801000481115994312e-01,1.630392971243530553e-01,2.232040460858659980e-01,1.773959138300227611e-01
6.599999999999999645e+00,1.644183203111842632e+09,-6.563336566685878948e-02,-1.525468516849764145e+00,-1.525468516849764145e+00,5.801000481115994312e-01,4.540105523816162503e-02,2.259317149812572478e-01,1.500004539077714749e-01
6.616666666666666252e+00,1.644183203130255461e+09,-6.482214841412052564e-02,-1.444995150091900049e+00,-1.444995150091900049e+00,5.801000481115994312e-01,-7.461262584685834920e-02,2.282011154245939533e-01,1.224042571987887934e-01
6.633333333333332860e+00,1.644183203146212578e+09,-6.449926966503219394e-02,1.367592925945625426e+00,1.367592925945625426e+00,5.801000481115994312e-01,-1.956315327015457628e-01,2.303861517332364550e-01,1.397519107775476166e-01
6.649999999999999467e+00,1.644183203164165735e+09,-6.467076292876902666e-02,1.330187883360019141e+00,1.330187883360019141e+00,5.801000481115994312e-01,-3.162512156436088628e-01,2.328360930810169926e-01,1.542009138917072586e-01
6.666666666666666963e+00,1.644183203180495977e+09,-6.533924332775455091e-02,1.334863513683220315e+00,1.334863513683220315e+00,5.801000481115994312e-01,-4.350471258092300508e-01,2.355090930938525118e-01,1.665248536767715559e-01
6.683333333333333570e+00,1.644183203198773623e+09,-6.650383898093506496e-02,-1.207073891851259351e+00,-1.207073891851259351e+00,5.480503216965945112e-01,-5.505890699884321560e-01,2.380187375406052908e-01,1.347208265326906018e-01
6.700000000000000178e+00,1.644183203214213848e+09,-6.816014715229207210e-02,-1.357524099268134998e+00,-1.357524099268134998e+00,5.801000481115994312e-01,-6.614558394357169524e-01,2.399666144251543509e-01,9.912328400307734988e-02
6.716666666666666785e+00,1.644183203231573582e+09,-7.030021564490453179e-02,-1.417004413828294451e+00,-1.417004413828294451e+00,5.801000481115994312e-01,-7.662498665919164065e-01,2.413034260305001732e-01,6.139890105739468501e-02
6.733333333333333393e+00,1.644183203250443697e+09,-7.291254973079103197e-02,-9.621549495447174749e-01,-9.621549495447174749e-01,5.801000481115994312e-01,-8.636117628276536173e-01,2.420660847919552106e-01,3.020679708973345381e-02
6.750000000000000000e+00,1.644183203265573740e+09,-7.598214471394945657e-02,-1.112605156961593122e+00,-1.112605156961593122e+00,5.801000481115994312e-01,-9.522345909540372855e-01,2.422801625359534139e-01,-4.421276452858596134e-03
6.766666666666666607e+00,1.644183203282360792e+09,-7.949054402995685276e-02,-1.490480096520257369e+00,-1.490480096520257369e+00,5.801000481115994312e-01,-1.030877728337635801e+00,2.418588340631279143e-01,-4.602257839433129827e-02
6.783333333333333215e+00,1.644183203300659418e+09,-8.341592259167965318e-02,-1.623436093772380184e+00,-1.623436093772380184e+00,5.801000481115994312e-01,-1.098380179987167526e+00,2.407222091295412314e-01,-9.024955802340375866e-02
6.799999999999999822e+00,1.644183203319029570e+09,-8.773319489860714748e-02,-1.875352720144824126e+00,-1.875352720144824126e+00,5.801000481115994312e-01,-1.153673205915567435e+00,2.388121445708331625e-01,-1.388232588990355176e-01
6.816666666666666430e+00,1.644183203333991051e+09,-9.241414723855503888e-02,-2.060791347891204772e+00,-2.060791347891204772e+00,5.801000481115994312e-01,-1.195792133376930355e+00,2.360677969915964125e-01,-1.903553026742676735e-01
6.833333333333333037e+00,1.644183203349348307e+09,-9.742759312642382263e-02,-2.029301769594649585e+00,-2.029301769594649585e+00,5.801000481115994312e-01,-1.223887232173375583e+00,2.324721684949073441e-01,-2.409794908737123431e-01
6.849999999999999645e+00,1.644183203365991354e+09,-1.027395509468235490e-01,-1.640930303937133239e+00,-1.640930303937133239e+00,5.801000481115994312e-01,-1.237233540048609193e+00,2.280915944282812802e-01,-2.845683142068486382e-01
6.866666666666666252e+00,1.644183203384990454e+09,-1.083134425970305181e-01,-1.200076207785358395e+00,-1.200076207785358395e+00,5.801000481115994312e-01,-1.235239535148964229e+00,2.230517268834836253e-01,-3.201170423776230067e-01
6.883333333333332860e+00,1.644183203401279211e+09,-1.141103117653120558e-01,1.035623172998368258e+00,1.035623172998368258e+00,5.801000481115994312e-01,-1.217454563540610879e+00,2.177355429270886322e-01,-3.178313815969320832e-01
6.899999999999999467e+00,1.644183203418234110e+09,-1.200890603283131658e-01,1.306809731744015268e+00,1.306809731744015268e+00,5.801000481115994312e-01,-1.183574941718373852e+00,2.124992735135102506e-01,-3.105411990162597058e-01
6.916666666666666963e+00,1.644183203433193207e+09,-1.262067012112499109e-01,1.426038304985635552e+00,1.426038304985635552e+00,5.801000481115994312e-01,-1.133448666809147465e+00,2.074068915954172254e-01,-3.005723231285585273e-01
6.933333333333333570e+00,1.644183203452434540e+09,-1.324186259270697663e-01,1.507861835641650217e+00,1.507861835641650217e+00,5.801000481115994312e-01,-1.067078680637470356e+00,2.024997492651626485e-01,-2.883187948815675861e-01
6.950000000000000178e+00,1.644183203468391895e+09,-1.386788848966104548e-01,1.454092086924840821e+00,1.454092086924840821e+00,5.801000481115994312e-01,-9.846246478506843758e-01,1.977991018298839998e-01,-2.757936901283863373e-01
6.966666666666666785e+00,1.644183203486804485e+09,-1.449404785519679550e-01,1.166540822047990922e+00,1.166540822047990922e+00,5.801000481115994312e-01,-8.864032227579641265e-01,1.932793258348323995e-01,-2.666049541451676053e-01
6.983333333333333393e+00,1.644183203502757311e+09,-1.511556571405615890e-01,1.152513931078388509e+00,1.152513931078388509e+00,5.801000481115994312e-01,-7.728867942809514169e-01,1.889251678312651173e-01,-2.559236771949763845e-01
7.000000000000000000e+00,1.644183203525527954e+09,-1.572762270784498762e-01,1.157189561401589462e+00,1.157189561401589462e+00,5.801000481115994312e-01,-6.447007132974219568e-01,1.847659067327588889e-01,-2.432229352947340162e-01
7.016666666666666607e+00,1.644183203538533688e+09,-1.632538616488026784e-01,1.168878637209591398e+00,1.168878637209591398e+00,5.480503216965945112e-01,-5.026190215381118875e-01,1.808378093282583809e-01,-2.281905109623754979e-01
7.033333333333333215e+00,1.644183203555452585e+09,-1.690404138055665306e-01,1.320836622713617681e+00,1.320836622713617681e+00,5.801000481115994312e-01,-3.475587159232904622e-01,1.772005815629102421e-01,-2.083319847505219202e-01
7.049999999999999822e+00,1.644183203572410107e+09,-1.745882288234526236e-01,1.475132423379244440e+00,1.475132423379244440e+00,5.801000481115994312e-01,-1.805725966554312389e-01,1.739359619839687676e-01,-1.834913680595168795e-01
7.066666666666666430e+00,1.644183203590493202e+09,-1.798504545337171745e-01,1.367592925945625426e+00,1.367592925945625426e+00,5.801000481115994312e-01,-2.840761373894329367e-03,1.710916166855661058e-01,-1.579011533515853605e-01
7.083333333333333037e+00,1.644183203606472492e+09,-1.847813469006950871e-01,1.414349229177633838e+00,1.414349229177633838e+00,5.801000481115994312e-01,1.843391789097181821e-01,1.687025518230865495e-01,-1.288672816876499372e-01
7.099999999999999645e+00,1.644183203623887777e+09,-1.893365687266379549e-01,1.376944186592027330e+00,1.376944186592027330e+00,5.801000481115994312e-01,3.795630736756911983e-01,1.668151726674415025e-01,-9.770478152754291656e-02
7.116666666666666252e+00,1.644183203643051386e+09,-1.934734793218717552e-01,1.500848390156848788e+00,1.500848390156848788e+00,5.801000481115994312e-01,5.813322962741155342e-01,1.654878465105169283e-01,-6.167444393010228232e-02
7.133333333333332860e+00,1.644183203658780098e+09,-1.971514130431732958e-01,1.804764361164901576e+00,1.804764361164901576e+00,5.801000481115994312e-01,7.880667856195929799e-01,1.648265807483932088e-01,-1.779932572157032211e-02
7.149999999999999467e+00,1.644183203676129103e+09,-2.003319446851562768e-01,1.718265200185686181e+00,1.718265200185686181e+00,5.480503216965945112e-01,9.981189451573116989e-01,1.649075721050025922e-01,2.739275201087024159e-02
7.166666666666666963e+00,1.644183203694081068e+09,-2.029791398066623231e-01,1.774372764064096275e+00,1.774372764064096275e+00,5.801000481115994312e-01,1.209788269366453672e+00,1.657725082822223139e-01,7.626383305749301345e-02
7.183333333333333570e+00,1.644183203710038900e+09,-2.050597881859535232e-01,1.676184527276878944e+00,1.676184527276878944e+00,5.801000481115994312e-01,1.421336560627041834e+00,1.674608697260736023e-01,1.262008230787070584e-01
7.200000000000000178e+00,1.644183203727990389e+09,-2.065436187240241583e-01,1.493834944672047582e+00,1.493834944672047582e+00,5.801000481115994312e-01,1.631003593157558385e+00,1.699783901147806087e-01,1.757639449871601367e-01
7.216666666666666785e+00,1.644183203745043278e+09,-2.074034942536328863e-01,-1.658424514101886516e+00,-1.658424514101886516e+00,5.801000481115994312e-01,1.837023075997167298e+00,1.729081807166016893e-01,1.758107970835937339e-01
7.233333333333333393e+00,1.644183203761386395e+09,-2.076155848616462185e-01,-1.805375879485812129e+00,-1.805375879485812129e+00,5.801000481115994312e-01,2.037638763703819134e+00,1.758461578584378793e-01,1.767438680120576588e-01
7.250000000000000000e+00,1.644183203778479576e+09,-2.071595184927683686e-01,-1.535965042948614911e+00,-1.535965042948614911e+00,5.801000481115994312e-01,2.231120561604449382e+00,1.788634922678315753e-01,1.853124589135945466e-01
7.266666666666666607e+00,1.644183203793459892e+09,-2.060185077725587566e-01,-1.721403670694997334e+00,-1.721403670694997334e+00,5.801000481115994312e-01,2.415780472084241293e+00,1.820223454707159960e-01,1.937265524005308548e-01
7.283333333333333215e+00,1.644183203811910868e+09,-2.041794521654033967e-01,-1.745895564925651344e+00,-1.745895564925651344e+00,5.801000481115994312e-01,2.589988229544399445e+00,1.853409502359917027e-01,2.044761587122342628e-01
7.299999999999999822e+00,1.644183203828027487e+09,-2.016330147675127193e-01,-1.539463884981566055e+00,-1.539463884981566055e+00,5.480503216965945112e-01,2.752186474282302342e+00,1.888881457146077414e-01,2.211410063886304900e-01
7.316666666666666430e+00,1.644183203847247601e+09,-1.983736732245762469e-01,-1.584948831409923597e+00,-1.584948831409923597e+00,5.801000481115994312e-01,2.900905319631270629e+00,1.927250456150503832e-01,2.392367146252103172e-01
7.333333333333333037e+00,1.644183203864345551e+09,-1.943997444570087496e-01,-1.686415250365491669e+00,-1.686415250365491669e+00,5.801000481115994312e-01,3.034776172199996402e+00,1.968655169810580030e-01,2.575689252897777615e-01
7.349999999999999645e+00,1.644183203881301165e+09,-1.897133830712295910e-01,-1.567454621245170099e+00,-1.567454621245170099e+00,5.801000481115994312e-01,3.152544671922795416e+00,2.013416902827876720e-01,2.795109194993418700e-01
7.366666666666666252e+00,1.644183203897629023e+09,-1.843205535316555510e-01,-1.973320297067440166e+00,-1.973320297067440166e+00,5.801000481115994312e-01,3.253082626805523514e+00,2.061383608316555149e-01,2.960436211127754347e-01
7.383333333333332860e+00,1.644183203913585901e+09,-1.782309763635093747e-01,-2.099278610253662691e+00,-2.099278610253662691e+00,5.801000481115994312e-01,3.335398826648995119e+00,2.112022650319466677e-01,3.115817205190731243e-01
7.399999999999999467e+00,1.644183203931228638e+09,-1.714580488496917354e-01,8.509357752319364199e-01,8.509357752319364199e-01,5.801000481115994312e-01,3.398648630563045003e+00,2.169392126031047530e-01,3.766711797111647053e-01
7.416666666666666963e+00,1.644183203946530342e+09,-1.640187408742626030e-01,9.000298936255448634e-01,9.000298936255448634e-01,5.801000481115994312e-01,3.442142234646688337e+00,2.237647825679768276e-01,4.422151452174964970e-01
7.433333333333333570e+00,1.644183203967530489e+09,-1.559334667491875659e-01,8.906786329791434031e-01,8.906786329791434031e-01,5.801000481115994312e-01,3.465351538693207889e+00,2.316756130726033425e-01,5.069048175740757944e-01
7.450000000000000178e+00,1.644183203983490944e+09,-1.472259340383882120e-01,-1.000642211907173840e+00,-1.000642211907173840e+00,5.801000481115994312e-01,3.467915544060641508e+00,2.403947937762390685e-01,5.393068590729979128e-01
7.466666666666666785e+00,1.644183204002743721e+09,-1.379229705625126812e-01,1.023934097190366321e+00,1.023934097190366321e+00,5.801000481115994312e-01,3.449644228801167500e+00,2.499266449655546118e-01,6.043346466502079739e-01
7.483333333333333393e+00,1.644183204018000364e+09,-1.280543309278980302e-01,8.813273723327416098e-01,8.813273723327416098e-01,5.801000481115994312e-01,3.410520860630532169e+00,2.605082102928960031e-01,6.652838852055877883e-01
7.500000000000000000e+00,1.644183204033928871e+09,-1.176524840726421162e-01,8.065172871615290395e-01,8.065172871615290395e-01,5.801000481115994312e-01,3.350702723201014255e+00,2.720785830063046640e-01,7.230005126648881841e-01
7.516666666666666607e+00,1.644183204051902533e+09,-1.067523834605260957e-01,7.317072019903159141e-01,7.317072019903159141e-01,5.801000481115994312e-01,3.270520246273616927e+00,2.845815200113042120e-01,7.772013664642875019e-01
7.533333333333333215e+00,1.644183204069163084e+09,-9.539122167851456224e-02,9.000298936255448634e-01,9.000298936255448634e-01,5.801000481115994312e-01,3.170474545620247220e+00,2.979897487827182778e-01,8.316348783469699191e-01
7.549999999999999822e+00,1.644183204084667206e+09,-8.360817130490923177e-02,8.930164481407436572e-01,8.930164481407436572e-01,5.801000481115994312e-01,3.051233393676257677e+00,3.122802460203608077e-01,8.830818784729440596e-01
7.566666666666666430e+00,1.644183204099873781e+09,-7.144411401200878586e-02,8.789895571711412448e-01,8.789895571711412448e-01,5.801000481115994312e-01,2.913625656960371568e+00,3.274001435243377167e-01,9.311722345378257160e-01
7.583333333333333037e+00,1.644183204116069078e+09,-5.894135994862778616e-02,-8.746838987209525351e-01,-8.746838987209525351e-01,5.801000481115994312e-01,2.758634250936537136e+00,3.430512789556572906e-01,9.469202716434325096e-01
7.599999999999999645e+00,1.644183204133783102e+09,-4.614335951347242615e-02,-1.021635264104877150e+00,-1.021635264104877150e+00,5.801000481115994312e-01,2.587387677168055955e+00,3.589187568872001521e-01,9.571486672629426762e-01
7.616666666666666252e+00,1.644183204151726723e+09,-3.309440967961888719e-02,-8.711850566880012803e-01,-8.711850566880012803e-01,5.801000481115994312e-01,2.401150221170731847e+00,3.749503523753308087e-01,9.666164911828575290e-01
7.633333333333332860e+00,1.644183204167683840e+09,-1.983935706291668766e-02,-1.070619052566185614e+00,-1.070619052566185614e+00,5.801000481115994312e-01,2.201310902176238482e+00,3.910832893987532533e-01,9.693284183196025916e-01
7.649999999999999467e+00,1.644183204183649063e+09,-6.423299942715270799e-03,-1.514971990750911823e+00,-1.514971990750911823e+00,5.801000481115994312e-01,1.989371277945561900e+00,4.071704031788669353e-01,9.611479593260664478e-01
7.666666666666666963e+00,1.644183204199956894e+09,7.108708558069717215e-03,-1.693412934431392847e+00,-1.693412934431392847e+00,5.801000481115994312e-01,1.766932218708192615e+00,4.230669361188024169e-01,9.464767477907443105e-01
7.683333333333333570e+00,1.644183204221850634e+09,2.071195394497408679e-02,-1.644429145970084383e+00,-1.644429145970084383e+00,5.801000481115994312e-01,1.535679774140562115e+00,4.386958002238121046e-01,9.290353941552426109e-01
7.700000000000000178e+00,1.644183204237857342e+09,3.434234832272375915e-02,-1.836865457782367761e+00,-1.836865457782367761e+00,5.801000481115994312e-01,1.297370265940283041e+00,4.539768892824403990e-01,9.047627185659129490e-01
7.716666666666666785e+00,1.644183204251526356e+09,4.795671076305313418e-02,-1.770387459156305798e+00,-1.770387459156305798e+00,5.801000481115994312e-01,1.053814745917282636e+00,4.688323282663650615e-01,8.779644010280045485e-01
7.733333333333333393e+00,1.644183204269737720e+09,6.151303803576529949e-02,-1.864856194045971804e+00,-1.864856194045971804e+00,5.801000481115994312e-01,8.068629655382687504e-01,4.831976728497199280e-01,8.459658359695213514e-01
7.750000000000000000e+00,1.644183204286739111e+09,7.497076375251110480e-02,-1.962823770968588954e+00,-1.962823770968588954e+00,5.801000481115994312e-01,5.583870074677288464e-01,4.969862767192870234e-01,8.087699527082732320e-01
7.766666666666666607e+00,1.644183204303174019e+09,8.829100407088996683e-02,-1.826368931683515440e+00,-1.826368931683515440e+00,5.801000481115994312e-01,3.102647328027657303e-01,5.101446631532289278e-01,7.703431629596522168e-01
7.783333333333333215e+00,1.644183204320628405e+09,1.014367882186468645e-01,-2.232234607505784840e+00,-2.232234607505784840e+00,5.801000481115994312e-01,6.436319937013346149e-02,5.225778882065790221e-01,7.217787477707079402e-01
7.799999999999999822e+00,1.644183204336759090e+09,1.143732722230127175e-01,-2.414174393219216341e+00,-2.414174393219216341e+00,5.801000481115994312e-01,-1.774777933733612256e-01,5.341498812687965891e-01,6.670125515986140563e-01
7.816666666666666430e+00,1.644183204355912924e+09,1.270679343676744955e-01,-2.746564386349523268e+00,-2.746564386349523268e+00,5.801000481115994312e-01,-4.134618786244740329e-01,5.447381646178464099e-01,6.037571638333310009e-01
7.833333333333333037e+00,1.644183204369338751e+09,1.394907510482217283e-01,-2.463158181680524805e+00,-2.463158181680524805e+00,5.801000481115994312e-01,-6.418518643020098002e-01,5.542885272374807881e-01,5.424566337806543403e-01
7.849999999999999645e+00,1.644183204388335705e+09,1.516143518552260649e-01,-2.592615336899697365e+00,-2.592615336899697365e+00,5.480503216965945112e-01,-8.609848957749595133e-01,5.627775337655129828e-01,4.764076233747112088e-01
7.866666666666666252e+00,1.644183204405269146e+09,1.634141528808492616e-01,-2.743065544316573234e+00,-2.743065544316573234e+00,5.801000481115994312e-01,-1.069286897813528370e+00,5.701252951415428649e-01,4.055206546298462666e-01
7.883333333333332860e+00,1.644183204423326254e+09,1.748684674189711630e-01,-2.743065544316573234e+00,-2.743065544316573234e+00,5.801000481115994312e-01,-1.265286161376803831e+00,5.762743264659039300e-01,3.325657615439289172e-01
7.899999999999999467e+00,1.644183204438528299e+09,1.859585934087011061e-01,-2.830536595140337841e+00,-2.830536595140337841e+00,5.801000481115994312e-01,-1.447625949190849637e+00,5.811802530640746145e-01,2.563571258735717340e-01
7.916666666666666963e+00,1.644183204455654621e+09,1.966688771554598314e-01,-3.313376795687520637e+00,-3.313376795687520637e+00,5.801000481115994312e-01,-1.615076003621161105e+00,5.847367432946971588e-01,1.706597556544711680e-01
7.933333333333333570e+00,1.644183204474604368e+09,2.069867530511169951e-01,-3.547799211895210192e+00,-3.547799211895210192e+00,5.801000481115994312e-01,-1.766542851008434001e+00,5.868234813675679007e-01,8.000064986653973587e-02
7.950000000000000178e+00,1.644183204488713503e+09,2.169027592034428742e-01,-3.505813107499804016e+00,-3.505813107499804016e+00,5.801000481115994312e-01,-1.901078808312216983e+00,5.873989731930373548e-01,-1.068970722246341543e-02
7.966666666666666785e+00,1.644183204506774902e+09,2.264105290739109599e-01,-3.582787632224716745e+00,-3.582787632224716745e+00,5.801000481115994312e-01,-2.017889610479653761e+00,5.864487195383527585e-01,-1.030840742795183645e-01
7.983333333333333393e+00,1.644183204521797895e+09,2.355067594101662720e-01,-3.544300369862260158e+00,-3.544300369862260158e+00,5.801000481115994312e-01,-2.116340590301542868e+00,5.839630391035549595e-01,-1.949424098474506484e-01
8.000000000000000000e+00,1.644183204543710709e+09,2.441911549437933426e-01,-2.984485644590163300e+00,-2.984485644590163300e+00,5.801000481115994312e-01,-2.195961356506407114e+00,5.800253985576643290e-01,-2.773455526531695137e-01
8.016666666666665719e+00,1.644183204559670687e+09,2.524663505039407285e-01,-2.725571334151819958e+00,-2.725571334151819958e+00,5.801000481115994312e-01,-2.256448930337056513e+00,5.747531606614155741e-01,-3.551069858317353889e-01
8.033333333333333215e+00,1.644183204577616692e+09,2.603378113714224229e-01,-2.610109547064449309e+00,-2.610109547064449309e+00,5.801000481115994312e-01,-2.297669315712181692e+00,5.682058935862576154e-01,-4.303560331361878655e-01
8.050000000000000711e+00,1.644183204593938112e+09,2.678137128648304111e-01,-2.508643128108882348e+00,-2.508643128108882348e+00,5.801000481115994312e-01,-2.319657493152878835e+00,5.604258467330283100e-01,-5.030476633039878687e-01
8.066666666666666430e+00,1.644183204609896421e+09,2.749048003086059788e-01,-2.267223027835290505e+00,-2.267223027835290505e+00,5.801000481115994312e-01,-2.322615842802639552e+00,5.514772493705470957e-01,-5.705963804521388960e-01
8.083333333333333925e+00,1.644183204625852108e+09,2.816242306817089425e-01,1.851520664396909321e+00,1.851520664396909321e+00,5.801000481115994312e-01,-2.306911016942780890e+00,5.419832220104037201e-01,-5.686921923010933577e-01
8.099999999999999645e+00,1.644183204645193100e+09,2.879873973833220746e-01,-1.791380511354008886e+00,-1.791380511354008886e+00,5.801000481115994312e-01,-2.273069297254952659e+00,5.320221830191387280e-01,-6.264719834533110099e-01
8.116666666666667140e+00,1.644183204661128998e+09,2.940117396779359238e-01,1.800088730841700846e+00,1.800088730841700846e+00,5.801000481115994312e-01,-2.221770486565528557e+00,5.216092690233552487e-01,-6.230870987195913369e-01
8.133333333333332860e+00,1.644183204680101633e+09,2.997165384950771783e-01,1.779048394387297227e+00,1.779048394387297227e+00,5.801000481115994312e-01,-2.153840398780634935e+00,5.112587786870158579e-01,-6.189831417898075117e-01
8.150000000000000355e+00,1.644183204696387768e+09,3.051227003581532538e-01,1.657482005984076245e+00,1.657482005984076245e+00,5.801000481115994312e-01,-2.070242024050819474e+00,5.009708766312670480e-01,-6.155745733685045185e-01
8.166666666666666075e+00,1.644183204713303804e+09,3.102525313014984354e-01,1.582671920812863231e+00,1.582671920812863231e+00,5.801000481115994312e-01,-1.972065458760916545e+00,4.907425406459287598e-01,-6.118361296823003892e-01
8.183333333333333570e+00,1.644183204730301142e+09,3.151295027042194108e-01,-1.784382827288107709e+00,-1.784382827288107709e+00,5.801000481115994312e-01,-1.860516701601954814e+00,4.801263435877805574e-01,-6.619682581056532955e-01
8.199999999999999289e+00,1.644183204746208429e+09,3.197780110231527306e-01,-1.861357352013021771e+00,-1.861357352013021771e+00,5.801000481115994312e-01,-1.736905427635414334e+00,4.686879768215778119e-01,-7.105009376669244592e-01
8.216666666666666785e+00,1.644183204762305498e+09,3.242231334450010327e-01,-1.934833034704983801e+00,-1.934833034704983801e+00,5.801000481115994312e-01,-1.602631861802615409e+00,4.564558328545604282e-01,-7.572265419750336957e-01
8.233333333333332504e+00,1.644183204780853748e+09,3.284903814990133841e-01,-1.896345772342527214e+00,-1.896345772342527214e+00,5.801000481115994312e-01,-1.459172881672278876e+00,4.434765130853220438e-01,-8.001725331060420832e-01
8.250000000000000000e+00,1.644183204797858477e+09,3.326054546764815045e-01,-1.710907144596145013e+00,-1.710907144596145013e+00,5.801000481115994312e-01,-1.308067486276973668e+00,4.298338421473594240e-01,-8.368461060159647635e-01
8.266666666666665719e+00,1.644183204814813375e+09,3.365939960916678464e-01,-1.640930303937133239e+00,-1.640930303937133239e+00,5.801000481115994312e-01,-1.150901773597011069e+00,4.156163834092255760e-01,-8.691591819034000244e-01
8.283333333333333215e+00,1.644183204832768917e+09,3.404813521908689466e-01,-1.654925672068935372e+00,-1.654925672068935372e+00,6.121497745266043511e-01,-9.892935735557315535e-01,4.008852248624638626e-01,-8.984983441170494300e-01
8.300000000000000711e+00,1.644183204851947784e+09,3.442923384722227365e-01,1.736967721478489990e+00,1.736967721478489990e+00,5.801000481115994312e-01,-8.248768862500586163e-01,3.861603319413960955e-01,-8.685719372755077439e-01
8.316666666666666430e+00,1.644183204868725061e+09,3.480510131191433820e-01,1.779048394387297227e+00,1.779048394387297227e+00,5.801000481115994312e-01,-6.592862765338143305e-01,3.719587626786201584e-01,-8.357076660485071029e-01
8.333333333333333925e+00,1.644183204885679483e+09,3.517804603753273973e-01,1.736967721478489990e+00,1.736967721478489990e+00,5.801000481115994312e-01,-4.941413759807535833e-01,3.583173897326150659e-01,-8.013525206775397036e-01
8.349999999999999645e+00,1.644183204899431467e+09,3.555025853997658136e-01,1.921655119244921606e+00,1.921655119244921606e+00,5.801000481115994312e-01,-3.310316416896667002e-01,3.452918953063924268e-01,-7.618166349587295327e-01
8.366666666666667140e+00,1.644183204916443110e+09,3.592379222369385117e-01,1.898276967628917289e+00,1.898276967628917289e+00,5.801000481115994312e-01,-1.715015183680611566e-01,3.329386769708218008e-01,-7.206838258021446286e-01
8.383333333333332860e+00,1.644183204933266401e+09,3.630054564210861701e-01,1.933344195052923764e+00,1.933344195052923764e+00,5.801000481115994312e-01,-1.703614567709532679e-02,3.212915025077019426e-01,-6.770981838494276595e-01
8.400000000000000355e+00,1.644183204951269627e+09,3.668224636052753174e-01,1.940357640537724526e+00,1.940357640537724526e+00,5.801000481115994312e-01,1.309522530119335837e-01,3.103861442719049735e-01,-6.316709940544696922e-01
8.416666666666666075e+00,1.644183204966237783e+09,3.707043654668059629e-01,1.774372764064096275e+00,1.774372764064096275e+00,5.801000481115994312e-01,2.711371714570487423e-01,3.002280679368262706e-01,-5.874210854607052612e-01
8.433333333333333570e+00,1.644183204984622478e+09,3.746646039915754178e-01,1.542929063065656026e+00,1.542929063065656026e+00,5.801000481115994312e-01,4.022896903908304012e-01,2.907875259907467536e-01,-5.455602309570176667e-01
8.449999999999999289e+00,1.644183205000577211e+09,3.787145350825310564e-01,1.615401333075269008e+00,1.615401333075269008e+00,5.801000481115994312e-01,5.232893053517855275e-01,2.820656055442396504e-01,-5.011934665367263619e-01
8.466666666666666785e+00,1.644183205018688917e+09,3.828633422725682411e-01,1.706576124377684245e+00,1.706576124377684245e+00,5.801000481115994312e-01,6.331336121166513120e-01,2.741047680698923683e-01,-4.542374667874735095e-01
8.483333333333332504e+00,1.644183205036265135e+09,3.871179711515051469e-01,1.397984523046430949e+00,1.397984523046430949e+00,5.801000481115994312e-01,7.309467609469053606e-01,2.668909321802191426e-01,-4.115414428312446637e-01
8.500000000000000000e+00,1.644183205051330805e+09,3.914830849415363856e-01,9.397727513727516246e-01,9.397727513727516246e-01,6.121497745266043511e-01,8.159866033040934497e-01,2.603312568006042049e-01,-3.757191115403489823e-01
8.516666666666665719e+00,1.644183205069734097e+09,3.959610414771762565e-01,1.327850068198418665e+00,1.327850068198418665e+00,5.801000481115994312e-01,8.876504678521230929e-01,2.544271721589342894e-01,-3.328900179645033486e-01
8.533333333333333215e+00,1.644183205085543156e+09,4.005518916656665707e-01,1.556955954035258882e+00,1.556955954035258882e+00,5.801000481115994312e-01,9.454795163164282368e-01,2.492706217640512090e-01,-2.860262097304254736e-01
8.550000000000000711e+00,1.644183205105703354e+09,4.052533993235472587e-01,1.610725702752067390e+00,1.610725702752067390e+00,5.801000481115994312e-01,9.891616439758480483e-01,2.449021220889498751e-01,-2.383262542765255398e-01
8.566666666666666430e+00,1.644183205118922710e+09,4.100610821061170252e-01,1.634103854368071707e+00,1.634103854368071707e+00,5.801000481115994312e-01,1.018532904078722545e+00,2.413293191048323794e-01,-1.905428386516281603e-01
8.583333333333333925e+00,1.644183205137895584e+09,4.149682730701548805e-01,1.720603015347287101e+00,1.720603015347287101e+00,6.121497745266043511e-01,1.033577450159331113e+00,2.385603317794076916e-01,-1.418708435677598356e-01
8.599999999999999645e+00,1.644183205154496431e+09,4.199662022381199233e-01,1.874898816012913638e+00,1.874898816012913638e+00,5.801000481115994312e-01,1.034426004936328081e+00,2.366172503875868527e-01,-9.143901516011831987e-02
8.616666666666667140e+00,1.644183205172178268e+09,4.250440973653679122e-01,2.148423189920160681e+00,2.148423189920160681e+00,5.801000481115994312e-01,1.021352879056595553e+00,2.355437074562582445e-01,-3.753587107917710775e-02
8.633333333333332860e+00,1.644183205191407442e+09,4.301893029521132172e-01,2.330772772524992487e+00,2.330772772524992487e+00,5.801000481115994312e-01,9.947715772620302488e-01,2.353826199231248140e-01,1.805095561707337204e-02
8.650000000000000355e+00,1.644183205205398321e+09,4.353874163902318184e-01,2.281678654131383599e+00,2.281678654131383599e+00,5.801000481115994312e-01,9.552290434614920667e-01,2.361280592827278701e-01,7.125397788401824362e-02
8.666666666666666075e+00,1.644183205224750757e+09,4.406224399926934598e-01,2.038545877324941635e+00,2.038545877324941635e+00,5.801000481115994312e-01,9.033986095475552425e-01,2.377121267862881970e-01,1.187023184949995147e-01
8.683333333333333570e+00,1.644183205239712000e+09,4.458769475217221334e-01,2.113355962496154650e+00,2.113355962496154650e+00,5.801000481115994312e-01,8.400717254781843168e-01,2.400820324436836462e-01,1.655562076371763780e-01
8.699999999999999289e+00,1.644183205258662701e+09,4.511322637115627865e-01,1.835155958265706433e+00,1.835155958265706433e+00,5.801000481115994312e-01,7.661485600196601409e-01,2.431777293430048836e-01,2.058155860426112427e-01
8.716666666666666785e+00,1.644183205276720285e+09,4.563686551741918951e-01,1.846845034073708813e+00,1.846845034073708813e+00,5.801000481115994312e-01,6.826275725054609111e-01,2.469289337774961679e-01,2.442222583844394501e-01
8.733333333333332504e+00,1.644183205293728113e+09,4.615655309820907992e-01,1.774372764064096275e+00,1.774372764064096275e+00,5.480503216965945112e-01,5.905941658956437301e-01,2.512922230627986364e-01,2.792750845984659502e-01
8.750000000000000000e+00,1.644183205311676979e+09,4.667016511422429348e-01,1.617739148236869040e+00,1.617739148236869040e+00,5.801000481115994312e-01,4.912085402286434643e-01,2.561995230991064298e-01,3.095169127032500467e-01
8.766666666666665719e+00,1.644183205327634096e+09,4.717553411103306282e-01,1.533577802419254565e+00,1.533577802419254565e+00,6.121497745266043511e-01,3.856928731549319478e-01,2.615804783037757320e-01,3.361238020914838476e-01
