2023-05-30-13:44:11.726129,9.0,10.0,420.0
2023-05-30-13:44:11.727133,5.0,6.0,420.0
2023-05-30-13:44:11.728130,5.0,12.0,420.0
2023-05-30-13:44:11.729129,3.0,32.0,420.0
2023-05-30-13:44:11.729129,5.0,13.0,420.0
2023-05-30-13:44:11.730130,1.0,19.0,420.0
2023-05-30-13:44:11.731128,5.0,14.0,420.0
2023-05-30-13:44:11.732130,5.0,12.0,420.0
2023-05-30-13:44:11.734130,6.0,29.0,420.0
2023-05-30-13:44:11.734130,6.0,9.0,420.0
2023-05-30-13:44:11.735157,4.0,54.0,420.0
2023-05-30-13:44:11.737160,4.0,28.0,420.0
2023-05-30-13:44:11.737160,2.0,22.0,420.0
2023-05-30-13:44:11.738130,5.0,6.0,420.0
2023-05-30-13:44:11.739157,5.0,11.0,421.0
2023-05-30-13:44:11.740157,8.0,2.0,420.0
2023-05-30-13:44:11.741157,5.0,1.0,420.0
2023-05-30-13:44:11.742156,5.0,11.0,420.0
2023-05-30-13:44:11.743157,2.0,29.0,420.0
2023-05-30-13:44:11.744157,7.0,21.0,420.0
2023-05-30-13:44:11.745144,4.0,28.0,420.0
2023-05-30-13:44:11.746130,1.0,17.0,420.0
2023-05-30-13:44:11.747154,1.0,3.0,420.0
2023-05-30-13:44:11.748130,5.0,38.0,421.0
2023-05-30-13:44:11.749155,8.0,3.0,420.0
2023-05-30-13:44:11.750158,7.0,10.0,420.0
2023-05-30-13:44:11.751155,2.0,41.0,420.0
2023-05-30-13:44:11.752156,4.0,3.0,420.0
2023-05-30-13:44:11.753159,8.0,94.0,420.0
2023-05-30-13:44:11.754156,7.0,106.0,420.0
2023-05-30-13:44:11.755156,3.0,1.0,420.0
2023-05-30-13:44:11.756156,8.0,27.0,420.0
2023-05-30-13:44:11.757179,0.0,28.0,421.0
2023-05-30-13:44:11.758149,7.0,23.0,420.0
2023-05-30-13:44:11.759156,3.0,40.0,420.0
2023-05-30-13:44:11.760157,5.0,22.0,421.0
2023-05-30-13:44:11.761157,5.0,12.0,420.0
2023-05-30-13:44:11.762150,0.0,5.0,420.0
2023-05-30-13:44:11.763151,7.0,39.0,420.0
2023-05-30-13:44:11.764129,2.0,7.0,421.0
2023-05-30-13:44:11.765133,7.0,30.0,420.0
2023-05-30-13:44:11.766159,5.0,31.0,420.0
2023-05-30-13:44:11.767157,5.0,20.0,420.0
2023-05-30-13:44:11.769181,6.0,5.0,420.0
2023-05-30-13:44:11.769181,9.0,6.0,420.0
2023-05-30-13:44:11.770130,8.0,48.0,420.0
2023-05-30-13:44:11.771156,6.0,18.0,420.0
2023-05-30-13:44:11.772157,7.0,34.0,420.0
2023-05-30-13:44:11.773157,0.0,35.0,420.0
2023-05-30-13:44:11.774156,6.0,50.0,420.0
2023-05-30-13:44:11.775157,6.0,47.0,420.0
2023-05-30-13:44:11.776158,2.0,21.0,420.0
2023-05-30-13:44:11.777156,4.0,24.0,420.0
2023-05-30-13:44:11.778157,7.0,12.0,420.0
2023-05-30-13:44:11.779145,10.0,59.0,420.0
2023-05-30-13:44:11.780156,4.0,11.0,420.0
2023-05-30-13:44:11.781133,3.0,6.0,420.0
2023-05-30-13:44:11.782171,7.0,30.0,420.0
2023-05-30-13:44:11.783156,5.0,29.0,420.0
2023-05-30-13:44:11.784178,4.0,36.0,420.0
2023-05-30-13:44:11.785182,7.0,62.0,420.0
2023-05-30-13:44:11.786179,5.0,3.0,420.0
2023-05-30-13:44:11.787178,7.0,2.0,420.0
2023-05-30-13:44:11.788180,5.0,21.0,420.0
2023-05-30-13:44:11.789178,11.0,44.0,420.0
2023-05-30-13:44:11.790185,3.0,8.0,420.0
2023-05-30-13:44:11.791178,7.0,17.0,420.0
2023-05-30-13:44:11.792179,6.0,17.0,420.0
2023-05-30-13:44:11.793178,11.0,70.0,420.0
2023-05-30-13:44:11.794178,6.0,142.0,421.0
2023-05-30-13:44:11.795147,0.0,2.0,420.0
2023-05-30-13:44:11.796159,9.0,117.0,420.0
2023-05-30-13:44:11.797162,0.0,55.0,420.0
2023-05-30-13:44:11.798159,1.0,14.0,420.0
2023-05-30-13:44:11.799156,7.0,7.0,420.0
2023-05-30-13:44:11.800156,4.0,2.0,420.0
2023-05-30-13:44:11.802156,5.0,10.0,420.0
2023-05-30-13:44:11.803129,2.0,6.0,420.0
2023-05-30-13:44:11.803129,1.0,3.0,420.0
2023-05-30-13:44:11.804155,6.0,3.0,420.0
2023-05-30-13:44:11.805157,6.0,3.0,420.0
2023-05-30-13:44:11.806157,6.0,4.0,420.0
2023-05-30-13:44:11.807156,4.0,18.0,420.0
2023-05-30-13:44:11.808157,4.0,24.0,420.0
2023-05-30-13:44:11.809156,6.0,9.0,420.0
2023-05-30-13:44:11.810163,4.0,34.0,420.0
2023-05-30-13:44:11.811157,4.0,12.0,420.0
2023-05-30-13:44:11.812137,3.0,79.0,420.0
2023-05-30-13:44:11.813157,7.0,71.0,420.0
2023-05-30-13:44:11.814159,6.0,51.0,420.0
2023-05-30-13:44:11.815416,5.0,29.0,420.0
2023-05-30-13:44:11.815686,7.0,7.0,421.0
2023-05-30-13:44:11.815686,7.0,7.0,421.0
2023-05-30-13:44:11.816694,7.0,7.0,421.0
2023-05-30-13:44:11.817693,7.0,7.0,421.0
2023-05-30-13:44:11.818693,7.0,7.0,421.0
2023-05-30-13:44:11.819693,6.0,9.0,420.0
2023-05-30-13:44:11.820693,6.0,9.0,420.0
2023-05-30-13:44:11.821693,6.0,9.0,420.0
2023-05-30-13:44:11.822693,6.0,9.0,420.0
2023-05-30-13:44:11.823694,0.0,12.0,420.0
2023-05-30-13:44:11.824693,6.0,8.0,420.0
2023-05-30-13:44:11.825693,6.0,8.0,420.0
2023-05-30-13:44:11.826693,6.0,8.0,420.0
2023-05-30-13:44:11.827693,4.0,14.0,420.0
2023-05-30-13:44:11.828693,5.0,25.0,420.0
2023-05-30-13:44:11.829694,8.0,28.0,420.0
2023-05-30-13:44:11.830693,8.0,28.0,420.0
2023-05-30-13:44:11.831693,11.0,12.0,420.0
2023-05-30-13:44:11.832961,6.0,4.0,420.0
2023-05-30-13:44:11.833080,5.0,3.0,420.0
2023-05-30-13:44:11.833080,5.0,3.0,420.0
2023-05-30-13:44:11.834115,5.0,3.0,420.0
2023-05-30-13:44:11.836091,5.0,3.0,420.0
2023-05-30-13:44:11.837230,3.0,22.0,420.0
2023-05-30-13:44:11.837230,3.0,22.0,420.0
2023-05-30-13:44:11.838238,3.0,22.0,420.0
2023-05-30-13:44:11.839238,5.0,7.0,420.0
2023-05-30-13:44:11.840238,7.0,12.0,420.0
2023-05-30-13:44:11.841238,6.0,17.0,420.0
2023-05-30-13:44:11.842238,6.0,17.0,420.0
2023-05-30-13:44:11.843238,6.0,17.0,420.0
2023-05-30-13:44:11.844238,2.0,42.0,420.0
2023-05-30-13:44:11.845238,5.0,14.0,420.0
2023-05-30-13:44:11.846238,5.0,14.0,420.0
2023-05-30-13:44:11.847241,5.0,14.0,420.0
2023-05-30-13:44:11.848238,5.0,20.0,420.0
2023-05-30-13:44:11.849238,0.0,13.0,420.0
2023-05-30-13:44:11.850238,1.0,11.0,420.0
2023-05-30-13:44:11.851238,1.0,11.0,420.0
2023-05-30-13:44:11.852238,3.0,35.0,420.0
2023-05-30-13:44:11.853238,4.0,16.0,420.0
2023-05-30-13:44:11.854238,4.0,16.0,420.0
2023-05-30-13:44:11.855238,4.0,16.0,420.0
2023-05-30-13:44:11.856273,3.0,21.0,420.0
2023-05-30-13:44:11.857498,4.0,7.0,420.0
2023-05-30-13:44:11.857611,4.0,7.0,420.0
2023-05-30-13:44:11.857611,4.0,7.0,420.0
2023-05-30-13:44:11.858646,4.0,7.0,420.0
2023-05-30-13:44:11.859656,4.0,7.0,420.0
2023-05-30-13:44:11.860646,6.0,6.0,420.0
2023-05-30-13:44:11.861647,5.0,5.0,420.0
2023-05-30-13:44:11.862647,5.0,5.0,420.0
2023-05-30-13:44:11.863647,5.0,5.0,420.0
2023-05-30-13:44:11.864649,4.0,9.0,420.0
2023-05-30-13:44:11.865646,5.0,10.0,420.0
2023-05-30-13:44:11.866648,5.0,10.0,420.0
2023-05-30-13:44:11.867646,5.0,10.0,420.0
2023-05-30-13:44:11.868653,7.0,6.0,420.0
2023-05-30-13:44:11.869648,7.0,6.0,420.0
2023-05-30-13:44:11.871642,7.0,6.0,420.0
2023-05-30-13:44:11.872620,4.0,6.0,420.0
2023-05-30-13:44:11.873650,6.0,14.0,420.0
2023-05-30-13:44:11.874646,6.0,14.0,420.0
2023-05-30-13:44:11.875646,6.0,14.0,420.0
2023-05-30-13:44:11.876648,7.0,20.0,420.0
2023-05-30-13:44:11.877647,10.0,74.0,420.0
2023-05-30-13:44:11.878619,12.0,96.0,420.0
2023-05-30-13:44:11.879620,12.0,96.0,420.0
2023-05-30-13:44:11.880647,11.0,29.0,420.0
2023-05-30-13:44:11.881646,3.0,70.0,420.0
2023-05-30-13:44:11.882653,3.0,70.0,420.0
2023-05-30-13:44:11.883646,3.0,70.0,420.0
2023-05-30-13:44:11.884646,4.0,52.0,420.0
2023-05-30-13:44:11.885646,1.0,12.0,421.0
2023-05-30-13:44:11.886646,2.0,10.0,420.0
2023-05-30-13:44:11.887646,2.0,10.0,420.0
2023-05-30-13:44:11.888645,2.0,10.0,420.0
2023-05-30-13:44:11.889650,4.0,21.0,420.0
2023-05-30-13:44:11.890646,7.0,9.0,420.0
2023-05-30-13:44:11.891647,5.0,2.0,420.0
2023-05-30-13:44:11.892646,4.0,8.0,420.0
2023-05-30-13:44:11.893647,10.0,30.0,420.0
2023-05-30-13:44:11.894646,4.0,15.0,420.0
2023-05-30-13:44:11.895618,4.0,15.0,420.0
2023-05-30-13:44:11.896647,4.0,15.0,420.0
2023-05-30-13:44:11.897647,3.0,45.0,420.0
2023-05-30-13:44:11.898648,5.0,0.0,420.0
2023-05-30-13:44:11.899647,4.0,2.0,420.0
2023-05-30-13:44:11.900647,4.0,2.0,420.0
2023-05-30-13:44:11.901646,4.0,15.0,420.0
2023-05-30-13:44:11.902648,2.0,40.0,421.0
2023-05-30-13:44:11.903649,2.0,40.0,421.0
2023-05-30-13:44:11.904646,2.0,40.0,421.0
2023-05-30-13:44:11.906622,2.0,40.0,421.0
2023-05-30-13:44:11.906622,7.0,18.0,420.0
2023-05-30-13:44:11.907666,7.0,18.0,420.0
2023-05-30-13:44:11.908683,7.0,18.0,420.0
2023-05-30-13:44:11.909666,7.0,3.0,420.0
2023-05-30-13:44:11.910665,12.0,54.0,421.0
2023-05-30-13:44:11.911666,12.0,54.0,421.0
2023-05-30-13:44:11.912666,12.0,54.0,421.0
2023-05-30-13:44:11.913666,7.0,18.0,420.0
2023-05-30-13:44:11.914667,13.0,5.0,420.0
2023-05-30-13:44:11.915667,13.0,5.0,420.0
2023-05-30-13:44:11.916666,13.0,5.0,420.0
2023-05-30-13:44:11.917668,9.0,6.0,420.0
2023-05-30-13:44:11.918666,4.0,47.0,420.0
2023-05-30-13:44:11.919665,1.0,14.0,421.0
2023-05-30-13:44:11.920666,1.0,14.0,421.0
2023-05-30-13:44:11.921669,4.0,64.0,420.0
2023-05-30-13:44:11.922665,6.0,15.0,420.0
2023-05-30-13:44:11.923674,6.0,49.0,420.0
2023-05-30-13:44:11.924670,6.0,49.0,420.0
2023-05-30-13:44:11.925665,9.0,25.0,420.0
2023-05-30-13:44:11.926666,8.0,29.0,420.0
2023-05-30-13:44:11.927665,6.0,10.0,421.0
2023-05-30-13:44:11.928618,6.0,10.0,421.0
2023-05-30-13:44:11.929666,2.0,23.0,420.0
2023-05-30-13:44:11.930667,3.0,43.0,420.0
2023-05-30-13:44:11.931672,2.0,48.0,420.0
2023-05-30-13:44:11.932647,2.0,48.0,420.0
2023-05-30-13:44:11.933668,3.0,5.0,420.0
2023-05-30-13:44:11.934665,2.0,48.0,420.0
2023-05-30-13:44:11.935645,2.0,48.0,420.0
2023-05-30-13:44:11.936647,2.0,48.0,420.0
2023-05-30-13:44:11.938622,9.0,21.0,420.0
2023-05-30-13:44:11.938622,9.0,5.0,420.0
2023-05-30-13:44:11.939667,9.0,5.0,420.0
2023-05-30-13:44:11.940670,9.0,5.0,420.0
2023-05-30-13:44:11.941667,9.0,5.0,420.0
2023-05-30-13:44:11.942675,5.0,2.0,420.0
2023-05-30-13:44:11.943667,3.0,22.0,420.0
2023-05-30-13:44:11.944667,3.0,22.0,420.0
2023-05-30-13:44:11.945666,3.0,22.0,420.0
2023-05-30-13:44:11.946672,5.0,13.0,420.0
2023-05-30-13:44:11.947668,4.0,0.0,420.0
2023-05-30-13:44:11.948667,4.0,0.0,420.0
2023-05-30-13:44:11.949668,4.0,0.0,420.0
2023-05-30-13:44:11.950666,4.0,23.0,420.0
2023-05-30-13:44:11.951646,6.0,8.0,421.0
2023-05-30-13:44:11.952665,4.0,6.0,420.0
2023-05-30-13:44:11.953669,4.0,6.0,420.0
2023-05-30-13:44:11.954665,4.0,14.0,420.0
2023-05-30-13:44:11.955666,4.0,3.0,420.0
2023-05-30-13:44:11.956652,4.0,3.0,420.0
2023-05-30-13:44:11.957646,4.0,3.0,420.0
2023-05-30-13:44:11.958646,6.0,10.0,420.0
2023-05-30-13:44:11.959653,2.0,41.0,420.0
2023-05-30-13:44:11.960647,4.0,34.0,420.0
2023-05-30-13:44:11.961646,4.0,34.0,420.0
2023-05-30-13:44:11.962647,3.0,20.0,420.0
2023-05-30-13:44:11.963646,4.0,75.0,420.0
2023-05-30-13:44:11.964647,5.0,9.0,420.0
2023-05-30-13:44:11.965646,5.0,9.0,420.0
2023-05-30-13:44:11.966649,3.0,31.0,420.0
2023-05-30-13:44:11.967645,6.0,22.0,420.0
2023-05-30-13:44:11.968646,6.0,22.0,420.0
2023-05-30-13:44:11.969650,6.0,22.0,420.0
2023-05-30-13:44:11.970646,7.0,28.0,420.0
2023-05-30-13:44:11.971646,4.0,25.0,420.0
2023-05-30-13:44:11.972652,4.0,25.0,420.0
2023-05-30-13:44:11.974622,4.0,25.0,420.0
2023-05-30-13:44:11.974622,4.0,25.0,420.0
2023-05-30-13:44:11.975666,5.0,30.0,420.0
2023-05-30-13:44:11.976667,4.0,6.0,420.0
2023-05-30-13:44:11.977677,4.0,6.0,420.0
2023-05-30-13:44:11.978619,3.0,3.0,420.0
2023-05-30-13:44:11.979634,7.0,17.0,421.0
2023-05-30-13:44:11.980666,7.0,16.0,420.0
2023-05-30-13:44:11.981673,7.0,16.0,420.0
2023-05-30-13:44:11.982666,7.0,16.0,420.0
2023-05-30-13:44:11.983666,5.0,7.0,420.0
2023-05-30-13:44:11.984667,3.0,19.0,420.0
2023-05-30-13:44:11.985669,3.0,19.0,420.0
2023-05-30-13:44:11.986665,3.0,19.0,420.0
2023-05-30-13:44:11.987665,4.0,17.0,420.0
2023-05-30-13:44:11.988670,8.0,28.0,420.0
2023-05-30-13:44:11.989665,8.0,28.0,420.0
2023-05-30-13:44:11.990666,8.0,28.0,420.0
2023-05-30-13:44:11.991666,7.0,7.0,420.0
2023-05-30-13:44:11.992667,7.0,7.0,420.0
2023-05-30-13:44:11.993666,5.0,50.0,420.0
2023-05-30-13:44:11.994669,5.0,50.0,420.0
2023-05-30-13:44:11.995618,4.0,0.0,420.0
2023-05-30-13:44:11.996667,5.0,11.0,420.0
2023-05-30-13:44:11.997667,3.0,50.0,420.0
2023-05-30-13:44:11.998668,3.0,50.0,420.0
2023-05-30-13:44:11.999645,3.0,13.0,420.0
2023-05-30-13:44:12.000622,5.0,126.0,421.0
2023-05-30-13:44:12.001671,2.0,59.0,420.0
2023-05-30-13:44:12.002668,2.0,59.0,420.0
2023-05-30-13:44:12.003667,3.0,31.0,420.0
2023-05-30-13:44:12.004670,4.0,81.0,420.0
2023-05-30-13:44:12.005672,6.0,28.0,421.0
2023-05-30-13:44:12.006670,6.0,28.0,421.0
2023-05-30-13:44:12.008622,9.0,26.0,420.0
2023-05-30-13:44:12.009623,6.0,33.0,420.0
2023-05-30-13:44:12.009623,6.0,33.0,420.0
2023-05-30-13:44:12.010669,6.0,33.0,420.0
2023-05-30-13:44:12.011668,9.0,42.0,420.0
2023-05-30-13:44:12.012622,5.0,8.0,420.0
2023-05-30-13:44:12.013672,5.0,8.0,420.0
2023-05-30-13:44:12.014668,5.0,8.0,420.0
2023-05-30-13:44:12.015621,7.0,31.0,420.0
2023-05-30-13:44:12.016668,4.0,6.0,420.0
2023-05-30-13:44:12.017671,4.0,6.0,420.0
2023-05-30-13:44:12.018622,4.0,6.0,420.0
2023-05-30-13:44:12.019622,4.0,28.0,420.0
2023-05-30-13:44:12.020622,4.0,28.0,420.0
2023-05-30-13:44:12.021621,4.0,28.0,420.0
2023-05-30-13:44:12.022621,4.0,28.0,420.0
2023-05-30-13:44:12.023622,4.0,30.0,420.0
2023-05-30-13:44:12.024668,7.0,1.0,420.0
2023-05-30-13:44:12.025646,7.0,1.0,420.0
2023-05-30-13:44:12.026669,7.0,1.0,420.0
2023-05-30-13:44:12.027668,7.0,1.0,420.0
2023-05-30-13:44:12.028622,4.0,19.0,420.0
2023-05-30-13:44:12.029672,8.0,7.0,420.0
2023-05-30-13:44:12.030669,8.0,7.0,420.0
2023-05-30-13:44:12.031646,8.0,7.0,420.0
2023-05-30-13:44:12.032660,4.0,24.0,420.0
2023-05-30-13:44:12.033648,6.0,35.0,420.0
2023-05-30-13:44:12.034645,4.0,38.0,420.0
2023-05-30-13:44:12.035646,4.0,38.0,420.0
2023-05-30-13:44:12.036645,11.0,7.0,420.0
2023-05-30-13:44:12.037646,4.0,3.0,420.0
2023-05-30-13:44:12.038645,2.0,4.0,420.0
2023-05-30-13:44:12.039646,2.0,4.0,420.0
2023-05-30-13:44:12.040645,3.0,35.0,420.0
2023-05-30-13:44:12.041644,1.0,2.0,420.0
2023-05-30-13:44:12.042646,4.0,7.0,420.0
2023-05-30-13:44:12.043645,4.0,7.0,420.0
2023-05-30-13:44:12.045622,4.0,7.0,420.0
2023-05-30-13:44:12.046620,3.0,10.0,420.0
2023-05-30-13:44:12.046620,10.0,6.0,420.0
2023-05-30-13:44:12.047647,10.0,6.0,420.0
2023-05-30-13:44:12.048648,8.0,6.0,420.0
2023-05-30-13:44:12.049649,8.0,11.0,421.0
2023-05-30-13:44:12.050645,6.0,19.0,420.0
2023-05-30-13:44:12.051649,6.0,19.0,420.0
2023-05-30-13:44:12.052644,4.0,33.0,420.0
2023-05-30-13:44:12.053647,4.0,64.0,420.0
2023-05-30-13:44:12.054645,4.0,74.0,420.0
2023-05-30-13:44:12.055644,4.0,74.0,420.0
2023-05-30-13:44:12.056646,5.0,46.0,420.0
2023-05-30-13:44:12.057622,9.0,57.0,420.0
2023-05-30-13:44:12.058669,9.0,57.0,420.0
2023-05-30-13:44:12.059668,9.0,57.0,420.0
2023-05-30-13:44:12.060668,8.0,1.0,420.0
2023-05-30-13:44:12.061647,8.0,1.0,420.0
2023-05-30-13:44:12.062645,8.0,0.0,420.0
2023-05-30-13:44:12.063648,8.0,0.0,420.0
2023-05-30-13:44:12.064645,4.0,13.0,420.0
2023-05-30-13:44:12.065648,6.0,16.0,420.0
2023-05-30-13:44:12.066645,3.0,8.0,420.0
2023-05-30-13:44:12.067646,3.0,8.0,420.0
2023-05-30-13:44:12.068647,3.0,8.0,420.0
2023-05-30-13:44:12.069646,4.0,6.0,420.0
2023-05-30-13:44:12.070644,8.0,1.0,420.0
2023-05-30-13:44:12.071645,8.0,1.0,420.0
2023-05-30-13:44:12.072646,8.0,1.0,420.0
2023-05-30-13:44:12.073622,6.0,13.0,420.0
2023-05-30-13:44:12.074669,3.0,8.0,420.0
2023-05-30-13:44:12.075667,3.0,8.0,420.0
2023-05-30-13:44:12.076668,3.0,8.0,420.0
2023-05-30-13:44:12.077667,5.0,0.0,420.0
2023-05-30-13:44:12.079646,6.0,0.0,420.0
2023-05-30-13:44:12.079646,6.0,0.0,420.0
2023-05-30-13:44:12.080668,4.0,2.0,420.0
2023-05-30-13:44:12.081671,6.0,6.0,420.0
2023-05-30-13:44:12.082667,6.0,6.0,420.0
2023-05-30-13:44:12.083676,6.0,6.0,420.0
2023-05-30-13:44:12.084669,6.0,6.0,420.0
2023-05-30-13:44:12.085670,3.0,5.0,420.0
2023-05-30-13:44:12.086669,3.0,13.0,420.0
2023-05-30-13:44:12.087667,3.0,13.0,420.0
2023-05-30-13:44:12.088668,3.0,13.0,420.0
2023-05-30-13:44:12.089668,3.0,8.0,420.0
2023-05-30-13:44:12.090668,3.0,11.0,420.0
2023-05-30-13:44:12.091668,3.0,11.0,420.0
2023-05-30-13:44:12.092667,3.0,11.0,420.0
2023-05-30-13:44:12.093667,5.0,5.0,420.0
2023-05-30-13:44:12.094648,4.0,0.0,420.0
2023-05-30-13:44:12.095653,5.0,7.0,420.0
2023-05-30-13:44:12.096646,5.0,7.0,420.0
2023-05-30-13:44:12.097648,6.0,1.0,420.0
2023-05-30-13:44:12.098646,4.0,7.0,420.0
2023-05-30-13:44:12.099647,5.0,9.0,420.0
2023-05-30-13:44:12.100656,5.0,9.0,420.0
2023-05-30-13:44:12.101647,2.0,9.0,420.0
2023-05-30-13:44:12.102645,6.0,8.0,421.0
2023-05-30-13:44:12.103644,6.0,6.0,420.0
2023-05-30-13:44:12.104646,6.0,6.0,420.0
2023-05-30-13:44:12.105652,8.0,6.0,420.0
2023-05-30-13:44:12.106622,7.0,14.0,420.0
2023-05-30-13:44:12.107667,7.0,14.0,420.0
2023-05-30-13:44:12.108668,7.0,14.0,420.0
2023-05-30-13:44:12.109667,5.0,37.0,420.0
2023-05-30-13:44:12.110672,15.0,6.0,421.0
2023-05-30-13:44:12.112622,15.0,6.0,421.0
2023-05-30-13:44:12.112622,15.0,6.0,421.0
2023-05-30-13:44:12.113620,4.0,4.0,420.0
2023-05-30-13:44:12.114646,4.0,4.0,420.0
2023-05-30-13:44:12.115646,1.0,35.0,421.0
2023-05-30-13:44:12.116646,1.0,35.0,421.0
2023-05-30-13:44:12.117647,1.0,35.0,421.0
2023-05-30-13:44:12.118645,6.0,26.0,420.0
2023-05-30-13:44:12.119645,3.0,56.0,420.0
2023-05-30-13:44:12.120645,6.0,44.0,421.0
2023-05-30-13:44:12.121644,6.0,44.0,421.0
2023-05-30-13:44:12.122646,6.0,21.0,420.0
2023-05-30-13:44:12.123646,5.0,36.0,420.0
2023-05-30-13:44:12.124646,2.0,1.0,420.0
2023-05-30-13:44:12.125646,2.0,1.0,420.0
2023-05-30-13:44:12.126648,2.0,46.0,421.0
2023-05-30-13:44:12.127644,5.0,46.0,420.0
2023-05-30-13:44:12.128665,2.0,89.0,420.0
2023-05-30-13:44:12.129648,2.0,89.0,420.0
2023-05-30-13:44:12.130645,7.0,119.0,420.0
2023-05-30-13:44:12.131647,11.0,19.0,421.0
2023-05-30-13:44:12.132645,11.0,82.0,420.0
2023-05-30-13:44:12.133646,11.0,82.0,420.0
2023-05-30-13:44:12.134649,6.0,143.0,421.0
2023-05-30-13:44:12.135645,2.0,40.0,421.0
2023-05-30-13:44:12.136645,3.0,12.0,420.0
2023-05-30-13:44:12.137645,3.0,12.0,420.0
2023-05-30-13:44:12.138646,5.0,62.0,420.0
2023-05-30-13:44:12.139646,5.0,43.0,420.0
2023-05-30-13:44:12.140668,6.0,10.0,420.0
2023-05-30-13:44:12.141671,6.0,10.0,420.0
2023-05-30-13:44:12.142622,5.0,9.0,420.0
2023-05-30-13:44:12.143622,2.0,20.0,421.0
2023-05-30-13:44:12.144622,2.0,20.0,421.0
2023-05-30-13:44:12.145621,2.0,20.0,421.0
2023-05-30-13:44:12.147669,3.0,21.0,421.0
2023-05-30-13:44:12.147669,5.0,21.0,420.0
2023-05-30-13:44:12.148622,5.0,21.0,420.0
2023-05-30-13:44:12.149622,5.0,21.0,420.0
2023-05-30-13:44:12.150622,7.0,21.0,421.0
2023-05-30-13:44:12.151668,6.0,23.0,420.0
2023-05-30-13:44:12.152668,6.0,23.0,420.0
2023-05-30-13:44:12.153621,6.0,23.0,420.0
2023-05-30-13:44:12.154622,6.0,23.0,420.0
2023-05-30-13:44:12.155622,5.0,17.0,421.0
2023-05-30-13:44:12.156622,4.0,0.0,421.0
2023-05-30-13:44:12.157672,4.0,0.0,421.0
2023-05-30-13:44:12.158668,4.0,0.0,421.0
2023-05-30-13:44:12.159668,4.0,1.0,421.0
2023-05-30-13:44:12.160668,5.0,7.0,421.0
2023-05-30-13:44:12.161671,5.0,2.0,421.0
2023-05-30-13:44:12.162669,5.0,2.0,421.0
2023-05-30-13:44:12.163676,7.0,4.0,421.0
2023-05-30-13:44:12.164646,6.0,6.0,421.0
2023-05-30-13:44:12.165646,6.0,6.0,421.0
2023-05-30-13:44:12.166646,6.0,6.0,421.0
2023-05-30-13:44:12.167646,6.0,9.0,421.0
2023-05-30-13:44:12.168645,4.0,10.0,421.0
2023-05-30-13:44:12.169645,4.0,6.0,421.0
2023-05-30-13:44:12.170645,4.0,6.0,421.0
2023-05-30-13:44:12.171622,2.0,0.0,421.0
2023-05-30-13:44:12.172646,8.0,3.0,421.0
2023-05-30-13:44:12.173645,5.0,6.0,421.0
2023-05-30-13:44:12.174647,5.0,6.0,421.0
2023-05-30-13:44:12.175644,5.0,9.0,422.0
2023-05-30-13:44:12.176644,5.0,30.0,422.0
2023-05-30-13:44:12.177647,7.0,13.0,422.0
2023-05-30-13:44:12.178644,7.0,13.0,422.0
2023-05-30-13:44:12.180622,6.0,1.0,422.0
2023-05-30-13:44:12.180622,5.0,0.0,422.0
2023-05-30-13:44:12.181623,5.0,0.0,422.0
2023-05-30-13:44:12.182644,5.0,0.0,422.0
2023-05-30-13:44:12.183644,6.0,15.0,422.0
2023-05-30-13:44:12.184644,7.0,6.0,422.0
2023-05-30-13:44:12.185645,8.0,2.0,422.0
2023-05-30-13:44:12.186644,8.0,2.0,422.0
2023-05-30-13:44:12.187644,5.0,5.0,422.0
2023-05-30-13:44:12.188650,5.0,8.0,422.0
2023-05-30-13:44:12.189622,4.0,10.0,422.0
2023-05-30-13:44:12.190622,4.0,10.0,422.0
2023-05-30-13:44:12.191622,6.0,7.0,422.0
2023-05-30-13:44:12.192645,6.0,7.0,422.0
2023-05-30-13:44:12.193622,6.0,7.0,422.0
2023-05-30-13:44:12.194622,6.0,7.0,422.0
2023-05-30-13:44:12.195619,6.0,7.0,422.0
2023-05-30-13:44:12.196620,5.0,4.0,422.0
2023-05-30-13:44:12.197646,5.0,4.0,422.0
2023-05-30-13:44:12.198644,5.0,4.0,422.0
2023-05-30-13:44:12.199644,5.0,4.0,422.0
2023-05-30-13:44:12.200644,8.0,23.0,422.0
2023-05-30-13:44:12.201645,8.0,23.0,422.0
2023-05-30-13:44:12.202645,8.0,23.0,422.0
2023-05-30-13:44:12.203645,8.0,23.0,422.0
2023-05-30-13:44:12.204647,6.0,15.0,422.0
2023-05-30-13:44:12.205646,4.0,24.0,422.0
2023-05-30-13:44:12.206649,3.0,12.0,422.0
2023-05-30-13:44:12.207645,4.0,13.0,422.0
2023-05-30-13:44:12.208644,6.0,63.0,423.0
2023-05-30-13:44:12.209621,5.0,31.0,422.0
2023-05-30-13:44:12.210644,5.0,30.0,422.0
2023-05-30-13:44:12.211647,5.0,30.0,422.0
2023-05-30-13:44:12.212620,8.0,40.0,422.0
2023-05-30-13:44:12.213668,7.0,4.0,422.0
2023-05-30-13:44:12.214669,5.0,48.0,422.0
2023-05-30-13:44:12.215669,5.0,48.0,422.0
2023-05-30-13:44:12.216668,2.0,4.0,422.0
2023-05-30-13:44:12.217667,6.0,20.0,422.0
2023-05-30-13:44:12.219645,6.0,20.0,422.0
2023-05-30-13:44:12.219645,6.0,20.0,422.0
2023-05-30-13:44:12.220619,8.0,7.0,422.0
2023-05-30-13:44:12.221672,9.0,19.0,423.0
2023-05-30-13:44:12.222668,7.0,2.0,422.0
2023-05-30-13:44:12.223672,7.0,2.0,422.0
2023-05-30-13:44:12.224667,3.0,0.0,422.0
2023-05-30-13:44:12.225649,2.0,34.0,422.0
2023-05-30-13:44:12.226622,1.0,56.0,423.0
2023-05-30-13:44:12.227667,1.0,56.0,423.0
2023-05-30-13:44:12.228669,8.0,48.0,423.0
2023-05-30-13:44:12.229668,8.0,17.0,422.0
2023-05-30-13:44:12.230670,0.0,91.0,423.0
2023-05-30-13:44:12.231651,0.0,91.0,423.0
2023-05-30-13:44:12.232668,1.0,11.0,422.0
2023-05-30-13:44:12.233667,7.0,20.0,423.0
2023-05-30-13:44:12.234646,7.0,20.0,423.0
2023-05-30-13:44:12.235622,7.0,20.0,423.0
2023-05-30-13:44:12.236620,7.0,20.0,423.0
2023-05-30-13:44:12.237620,12.0,27.0,422.0
2023-05-30-13:44:12.238621,11.0,27.0,422.0
2023-05-30-13:44:12.239627,11.0,47.0,422.0
2023-05-30-13:44:12.240625,11.0,47.0,422.0
2023-05-30-13:44:12.241642,6.0,34.0,422.0
2023-05-30-13:44:12.242620,0.0,16.0,422.0
2023-05-30-13:44:12.243619,2.0,65.0,422.0
2023-05-30-13:44:12.244619,2.0,65.0,422.0
2023-05-30-13:44:12.245618,0.0,52.0,422.0
2023-05-30-13:44:12.246619,6.0,16.0,422.0
2023-05-30-13:44:12.247620,6.0,16.0,422.0
2023-05-30-13:44:12.248653,6.0,16.0,422.0
2023-05-30-13:44:12.249653,1.0,16.0,422.0
2023-05-30-13:44:12.250653,6.0,14.0,422.0
2023-05-30-13:44:12.252622,6.0,10.0,422.0
2023-05-30-13:44:12.252622,6.0,10.0,422.0
2023-05-30-13:44:12.253652,6.0,0.0,422.0
2023-05-30-13:44:12.254653,7.0,10.0,422.0
2023-05-30-13:44:12.255653,7.0,10.0,422.0
2023-05-30-13:44:12.256653,7.0,10.0,422.0
2023-05-30-13:44:12.257656,5.0,8.0,422.0
2023-05-30-13:44:12.258653,6.0,5.0,422.0
2023-05-30-13:44:12.259656,7.0,6.0,422.0
2023-05-30-13:44:12.260653,7.0,6.0,422.0
2023-05-30-13:44:12.261656,2.0,4.0,422.0
2023-05-30-13:44:12.262620,4.0,3.0,422.0
2023-05-30-13:44:12.263668,3.0,3.0,422.0
2023-05-30-13:44:12.264646,3.0,3.0,422.0
2023-05-30-13:44:12.265647,4.0,4.0,422.0
2023-05-30-13:44:12.266652,3.0,4.0,422.0
2023-05-30-13:44:12.267620,3.0,4.0,422.0
2023-05-30-13:44:12.268667,3.0,4.0,422.0
2023-05-30-13:44:12.269645,3.0,4.0,422.0
2023-05-30-13:44:12.270654,4.0,3.0,422.0
2023-05-30-13:44:12.271657,3.0,2.0,422.0
2023-05-30-13:44:12.272645,3.0,2.0,422.0
2023-05-30-13:44:12.273647,5.0,4.0,422.0
2023-05-30-13:44:12.274645,6.0,4.0,422.0
2023-05-30-13:44:12.275646,6.0,3.0,422.0
2023-05-30-13:44:12.276651,6.0,3.0,422.0
2023-05-30-13:44:12.277646,5.0,5.0,422.0
2023-05-30-13:44:12.278644,5.0,3.0,422.0
2023-05-30-13:44:12.279647,5.0,3.0,422.0
2023-05-30-13:44:12.280645,5.0,3.0,422.0
2023-05-30-13:44:12.281645,4.0,0.0,422.0
2023-05-30-13:44:12.282645,3.0,2.0,421.0
2023-05-30-13:44:12.283644,3.0,1.0,421.0
2023-05-30-13:44:12.284647,3.0,1.0,421.0
2023-05-30-13:44:12.285645,3.0,1.0,421.0
2023-05-30-13:44:12.287622,4.0,3.0,421.0
2023-05-30-13:44:12.287622,8.0,20.0,421.0
2023-05-30-13:44:12.288672,8.0,20.0,421.0
2023-05-30-13:44:12.289670,8.0,20.0,421.0
2023-05-30-13:44:12.290668,9.0,32.0,421.0
2023-05-30-13:44:12.291668,9.0,36.0,421.0
2023-05-30-13:44:12.292669,10.0,48.0,421.0
2023-05-30-13:44:12.293646,10.0,48.0,421.0
2023-05-30-13:44:12.294645,5.0,1.0,421.0
2023-05-30-13:44:12.295622,4.0,36.0,420.0
2023-05-30-13:44:12.296620,4.0,36.0,420.0
2023-05-30-13:44:12.297666,4.0,36.0,420.0
2023-05-30-13:44:12.298666,6.0,19.0,420.0
2023-05-30-13:44:12.299666,4.0,7.0,420.0
2023-05-30-13:44:12.300666,4.0,7.0,420.0
2023-05-30-13:44:12.301666,4.0,7.0,420.0
2023-05-30-13:44:12.302666,8.0,6.0,420.0
2023-05-30-13:44:12.303646,1.0,5.0,419.0
2023-05-30-13:44:12.304647,2.0,1.0,419.0
2023-05-30-13:44:12.305648,2.0,1.0,419.0
2023-05-30-13:44:12.306648,8.0,43.0,419.0
2023-05-30-13:44:12.307646,11.0,68.0,419.0
2023-05-30-13:44:12.308647,12.0,18.0,419.0
2023-05-30-13:44:12.309646,12.0,18.0,419.0
2023-05-30-13:44:12.310646,6.0,30.0,418.0
2023-05-30-13:44:12.311646,1.0,14.0,418.0
2023-05-30-13:44:12.312618,6.0,1.0,418.0
2023-05-30-13:44:12.313646,6.0,1.0,418.0
2023-05-30-13:44:12.314646,3.0,29.0,418.0
2023-05-30-13:44:12.315646,4.0,46.0,418.0
2023-05-30-13:44:12.316647,5.0,17.0,417.0
2023-05-30-13:44:12.317645,5.0,17.0,417.0
2023-05-30-13:44:12.318648,7.0,3.0,417.0
2023-05-30-13:44:12.319646,9.0,28.0,417.0
2023-05-30-13:44:12.320646,9.0,7.0,417.0
2023-05-30-13:44:12.322622,9.0,7.0,417.0
2023-05-30-13:44:12.322622,14.0,93.0,417.0
2023-05-30-13:44:12.323665,3.0,5.0,416.0
2023-05-30-13:44:12.324669,3.0,5.0,416.0
2023-05-30-13:44:12.325667,3.0,5.0,416.0
2023-05-30-13:44:12.326666,3.0,5.0,416.0
2023-05-30-13:44:12.327665,2.0,1.0,415.0
2023-05-30-13:44:12.328668,2.0,11.0,415.0
2023-05-30-13:44:12.329646,2.0,11.0,415.0
2023-05-30-13:44:12.330666,2.0,11.0,415.0
2023-05-30-13:44:12.331666,2.0,0.0,415.0
2023-05-30-13:44:12.332666,4.0,16.0,414.0
2023-05-30-13:44:12.333666,4.0,16.0,414.0
2023-05-30-13:44:12.334665,4.0,16.0,414.0
2023-05-30-13:44:12.335665,3.0,13.0,414.0
2023-05-30-13:44:12.336665,6.0,8.0,414.0
2023-05-30-13:44:12.337668,6.0,8.0,414.0
2023-05-30-13:44:12.338666,6.0,8.0,414.0
2023-05-30-13:44:12.339666,8.0,6.0,414.0
2023-05-30-13:44:12.340669,6.0,5.0,413.0
2023-05-30-13:44:12.341654,6.0,5.0,413.0
2023-05-30-13:44:12.342650,6.0,5.0,413.0
2023-05-30-13:44:12.343646,5.0,7.0,413.0
2023-05-30-13:44:12.344622,5.0,8.0,413.0
2023-05-30-13:44:12.345619,5.0,8.0,413.0
2023-05-30-13:44:12.346646,5.0,8.0,413.0
2023-05-30-13:44:12.347646,6.0,8.0,413.0
2023-05-30-13:44:12.348647,7.0,6.0,412.0
2023-05-30-13:44:12.349648,4.0,9.0,412.0
2023-05-30-13:44:12.350647,4.0,9.0,412.0
2023-05-30-13:44:12.351650,7.0,8.0,412.0
2023-05-30-13:44:12.352646,3.0,2.0,411.0
2023-05-30-13:44:12.353648,7.0,17.0,411.0
2023-05-30-13:44:12.354650,7.0,17.0,411.0
2023-05-30-13:44:12.355647,3.0,18.0,411.0
2023-05-30-13:44:12.356646,3.0,10.0,411.0
2023-05-30-13:44:12.358622,3.0,10.0,411.0
2023-05-30-13:44:12.358622,6.0,3.0,410.0
2023-05-30-13:44:12.359667,4.0,3.0,411.0
2023-05-30-13:44:12.360622,4.0,12.0,410.0
2023-05-30-13:44:12.361671,4.0,12.0,410.0
2023-05-30-13:44:12.362671,4.0,12.0,410.0
2023-05-30-13:44:12.363666,5.0,12.0,410.0
2023-05-30-13:44:12.364671,5.0,21.0,410.0
2023-05-30-13:44:12.365666,5.0,16.0,410.0
2023-05-30-13:44:12.366665,5.0,16.0,410.0
2023-05-30-13:44:12.367666,5.0,16.0,410.0
2023-05-30-13:44:12.368665,6.0,45.0,409.0
2023-05-30-13:44:12.369668,4.0,9.0,409.0
2023-05-30-13:44:12.370665,4.0,9.0,409.0
2023-05-30-13:44:12.371666,4.0,9.0,409.0
2023-05-30-13:44:12.372668,3.0,19.0,409.0
2023-05-30-13:44:12.373666,5.0,18.0,408.0
2023-05-30-13:44:12.374665,5.0,18.0,408.0
2023-05-30-13:44:12.375646,5.0,18.0,408.0
2023-05-30-13:44:12.376621,2.0,42.0,408.0
2023-05-30-13:44:12.377646,11.0,37.0,407.0
2023-05-30-13:44:12.378646,11.0,37.0,407.0
2023-05-30-13:44:12.379646,11.0,37.0,407.0
2023-05-30-13:44:12.380646,9.0,35.0,407.0
2023-05-30-13:44:12.381649,4.0,4.0,407.0
2023-05-30-13:44:12.382647,1.0,4.0,407.0
2023-05-30-13:44:12.383646,1.0,4.0,407.0
2023-05-30-13:44:12.384647,1.0,21.0,406.0
2023-05-30-13:44:12.385648,4.0,14.0,406.0
2023-05-30-13:44:12.386649,6.0,1.0,406.0
2023-05-30-13:44:12.387646,6.0,1.0,406.0
2023-05-30-13:44:12.388646,7.0,6.0,406.0
2023-05-30-13:44:12.389647,10.0,31.0,405.0
2023-05-30-13:44:12.390646,8.0,20.0,405.0
2023-05-30-13:44:12.391647,8.0,20.0,405.0
2023-05-30-13:44:12.393622,2.0,20.0,405.0
2023-05-30-13:44:12.393622,3.0,22.0,404.0
2023-05-30-13:44:12.394620,3.0,22.0,404.0
2023-05-30-13:44:12.395623,3.0,22.0,404.0
2023-05-30-13:44:12.396618,12.0,36.0,404.0
2023-05-30-13:44:12.397671,9.0,9.0,404.0
2023-05-30-13:44:12.398668,5.0,41.0,403.0
2023-05-30-13:44:12.399633,5.0,41.0,403.0
2023-05-30-13:44:12.400668,8.0,22.0,403.0
2023-05-30-13:44:12.401670,12.0,16.0,402.0
2023-05-30-13:44:12.402667,12.0,16.0,402.0
2023-05-30-13:44:12.403675,12.0,16.0,402.0
2023-05-30-13:44:12.404668,9.0,19.0,402.0
2023-05-30-13:44:12.405671,5.0,6.0,401.0
2023-05-30-13:44:12.406669,5.0,6.0,401.0
2023-05-30-13:44:12.407667,5.0,6.0,401.0
2023-05-30-13:44:12.408646,13.0,43.0,401.0
2023-05-30-13:44:12.409667,8.0,77.0,400.0
2023-05-30-13:44:12.410645,8.0,77.0,400.0
2023-05-30-13:44:12.411668,8.0,77.0,400.0
2023-05-30-13:44:12.412618,8.0,77.0,400.0
2023-05-30-13:44:12.413670,13.0,26.0,400.0
2023-05-30-13:44:12.414667,3.0,46.0,399.0
2023-05-30-13:44:12.415667,3.0,46.0,399.0
2023-05-30-13:44:12.416667,3.0,46.0,399.0
2023-05-30-13:44:12.417669,7.0,48.0,399.0
2023-05-30-13:44:12.418668,4.0,23.0,399.0
2023-05-30-13:44:12.419667,4.0,23.0,399.0
2023-05-30-13:44:12.420668,4.0,23.0,399.0
2023-05-30-13:44:12.421668,6.0,22.0,398.0
2023-05-30-13:44:12.422669,6.0,20.0,398.0
2023-05-30-13:44:12.423668,6.0,20.0,398.0
2023-05-30-13:44:12.424645,6.0,20.0,398.0
2023-05-30-13:44:12.425668,12.0,1.0,397.0
2023-05-30-13:44:12.427622,8.0,10.0,397.0
2023-05-30-13:44:12.427622,5.0,11.0,397.0
2023-05-30-13:44:12.428668,5.0,11.0,397.0
2023-05-30-13:44:12.429671,0.0,14.0,396.0
2023-05-30-13:44:12.430668,5.0,5.0,396.0
2023-05-30-13:44:12.431668,5.0,5.0,396.0
2023-05-30-13:44:12.432668,5.0,5.0,396.0
2023-05-30-13:44:12.433670,2.0,7.0,396.0
2023-05-30-13:44:12.434667,7.0,5.0,395.0
2023-05-30-13:44:12.435668,7.0,6.0,395.0
2023-05-30-13:44:12.436668,7.0,6.0,395.0
2023-05-30-13:44:12.437667,5.0,16.0,395.0
2023-05-30-13:44:12.438668,1.0,6.0,394.0
2023-05-30-13:44:12.439668,0.0,4.0,395.0
2023-05-30-13:44:12.440678,0.0,4.0,395.0
2023-05-30-13:44:12.441668,7.0,5.0,394.0
2023-05-30-13:44:12.442667,4.0,7.0,394.0
2023-05-30-13:44:12.443646,5.0,7.0,394.0
2023-05-30-13:44:12.444646,5.0,7.0,394.0
2023-05-30-13:44:12.445618,5.0,12.0,394.0
2023-05-30-13:44:12.446647,7.0,2.0,393.0
2023-05-30-13:44:12.447646,6.0,5.0,393.0
2023-05-30-13:44:12.448646,6.0,5.0,393.0
2023-05-30-13:44:12.449650,5.0,5.0,393.0
2023-05-30-13:44:12.450645,6.0,28.0,393.0
2023-05-30-13:44:12.451646,5.0,27.0,393.0
2023-05-30-13:44:12.452644,5.0,27.0,393.0
2023-05-30-13:44:12.453647,5.0,27.0,393.0
2023-05-30-13:44:12.454644,3.0,3.0,392.0
2023-05-30-13:44:12.455645,4.0,17.0,392.0
2023-05-30-13:44:12.456622,4.0,17.0,392.0
2023-05-30-13:44:12.457622,4.0,17.0,392.0
2023-05-30-13:44:12.458667,2.0,17.0,392.0
2023-05-30-13:44:12.459668,4.0,9.0,391.0
2023-05-30-13:44:12.461622,4.0,9.0,391.0
2023-05-30-13:44:12.461622,4.0,9.0,391.0
2023-05-30-13:44:12.462678,8.0,7.0,391.0
2023-05-30-13:44:12.463671,8.0,0.0,391.0
2023-05-30-13:44:12.464667,6.0,1.0,390.0
2023-05-30-13:44:12.465669,6.0,1.0,390.0
2023-05-30-13:44:12.466646,7.0,1.0,390.0
2023-05-30-13:44:12.467648,8.0,15.0,390.0
2023-05-30-13:44:12.468646,3.0,26.0,390.0
2023-05-30-13:44:12.469647,3.0,26.0,390.0
2023-05-30-13:44:12.470644,2.0,30.0,390.0
2023-05-30-13:44:12.471644,6.0,12.0,390.0
2023-05-30-13:44:12.472645,6.0,7.0,389.0
2023-05-30-13:44:12.473645,6.0,7.0,389.0
2023-05-30-13:44:12.474644,4.0,2.0,390.0
2023-05-30-13:44:12.475645,5.0,13.0,389.0
2023-05-30-13:44:12.476647,5.0,13.0,389.0
2023-05-30-13:44:12.477645,5.0,13.0,389.0
2023-05-30-13:44:12.478647,9.0,33.0,389.0
2023-05-30-13:44:12.479621,10.0,51.0,389.0
2023-05-30-13:44:12.480622,10.0,51.0,389.0
2023-05-30-13:44:12.481670,10.0,51.0,389.0
2023-05-30-13:44:12.482667,8.0,15.0,388.0
2023-05-30-13:44:12.483668,4.0,41.0,388.0
2023-05-30-13:44:12.484668,1.0,43.0,388.0
2023-05-30-13:44:12.485646,1.0,43.0,388.0
2023-05-30-13:44:12.486668,7.0,32.0,388.0
2023-05-30-13:44:12.487668,4.0,15.0,388.0
2023-05-30-13:44:12.488667,8.0,54.0,387.0
2023-05-30-13:44:12.489669,8.0,54.0,387.0
2023-05-30-13:44:12.490673,0.0,40.0,387.0
2023-05-30-13:44:12.491622,2.0,14.0,387.0
2023-05-30-13:44:12.492668,2.0,14.0,387.0
2023-05-30-13:44:12.493671,2.0,14.0,387.0
2023-05-30-13:44:12.494668,2.0,14.0,387.0
2023-05-30-13:44:12.496622,4.0,21.0,387.0
2023-05-30-13:44:12.496622,4.0,21.0,387.0
2023-05-30-13:44:12.497670,4.0,21.0,387.0
2023-05-30-13:44:12.498668,4.0,21.0,387.0
2023-05-30-13:44:12.499667,1.0,3.0,386.0
2023-05-30-13:44:12.500668,5.0,24.0,386.0
2023-05-30-13:44:12.501668,5.0,24.0,386.0
2023-05-30-13:44:12.502668,5.0,24.0,386.0
2023-05-30-13:44:12.503674,7.0,45.0,386.0
2023-05-30-13:44:12.504667,9.0,40.0,386.0
2023-05-30-13:44:12.505667,13.0,19.0,385.0
2023-05-30-13:44:12.506667,13.0,19.0,385.0
2023-05-30-13:44:12.507668,13.0,19.0,385.0
2023-05-30-13:44:12.508668,5.0,62.0,385.0
2023-05-30-13:44:12.509670,5.0,62.0,385.0
2023-05-30-13:44:12.510667,5.0,62.0,385.0
2023-05-30-13:44:12.511668,3.0,18.0,385.0
2023-05-30-13:44:12.512672,9.0,8.0,385.0
2023-05-30-13:44:12.513648,9.0,8.0,385.0
2023-05-30-13:44:12.514646,9.0,8.0,385.0
2023-05-30-13:44:12.515646,5.0,26.0,385.0
2023-05-30-13:44:12.516645,2.0,3.0,385.0
2023-05-30-13:44:12.517646,2.0,3.0,385.0
2023-05-30-13:44:12.518645,2.0,3.0,385.0
2023-05-30-13:44:12.519645,6.0,5.0,385.0
2023-05-30-13:44:12.520645,7.0,30.0,385.0
2023-05-30-13:44:12.521655,8.0,50.0,384.0
2023-05-30-13:44:12.522654,8.0,50.0,384.0
2023-05-30-13:44:12.523644,5.0,54.0,385.0
2023-05-30-13:44:12.524622,8.0,21.0,384.0
2023-05-30-13:44:12.525670,7.0,16.0,384.0
2023-05-30-13:44:12.526646,7.0,16.0,384.0
2023-05-30-13:44:12.527668,7.0,16.0,384.0
2023-05-30-13:44:12.528668,10.0,41.0,384.0
2023-05-30-13:44:12.530622,10.0,41.0,384.0
2023-05-30-13:44:12.530622,10.0,41.0,384.0
2023-05-30-13:44:12.531647,5.0,8.0,384.0
2023-05-30-13:44:12.532648,2.0,22.0,384.0
2023-05-30-13:44:12.533646,2.0,22.0,384.0
2023-05-30-13:44:12.534646,2.0,22.0,384.0
2023-05-30-13:44:12.535653,2.0,22.0,384.0
2023-05-30-13:44:12.536645,2.0,15.0,384.0
2023-05-30-13:44:12.537645,2.0,21.0,384.0
2023-05-30-13:44:12.538644,4.0,9.0,384.0
2023-05-30-13:44:12.539645,4.0,9.0,384.0
2023-05-30-13:44:12.540649,5.0,11.0,384.0
2023-05-30-13:44:12.541622,7.0,10.0,384.0
2023-05-30-13:44:12.542667,7.0,10.0,384.0
2023-05-30-13:44:12.543667,7.0,10.0,384.0
2023-05-30-13:44:12.544669,6.0,5.0,384.0
2023-05-30-13:44:12.545649,6.0,3.0,384.0
2023-05-30-13:44:12.546647,7.0,5.0,384.0
2023-05-30-13:44:12.547647,6.0,4.0,384.0
2023-05-30-13:44:12.548646,8.0,1.0,384.0
2023-05-30-13:44:12.549651,3.0,2.0,384.0
2023-05-30-13:44:12.550644,8.0,3.0,384.0
2023-05-30-13:44:12.551645,8.0,3.0,384.0
2023-05-30-13:44:12.552648,3.0,3.0,384.0
2023-05-30-13:44:12.553625,7.0,4.0,384.0
2023-05-30-13:44:12.554650,5.0,6.0,384.0
2023-05-30-13:44:12.555646,5.0,6.0,384.0
2023-05-30-13:44:12.556647,5.0,2.0,384.0
2023-05-30-13:44:12.557646,5.0,4.0,383.0
2023-05-30-13:44:12.558648,5.0,3.0,384.0
2023-05-30-13:44:12.559646,5.0,3.0,384.0
2023-05-30-13:44:12.560644,7.0,6.0,383.0
2023-05-30-13:44:12.561647,7.0,3.0,383.0
2023-05-30-13:44:12.563649,7.0,3.0,383.0
2023-05-30-13:44:12.563649,7.0,3.0,383.0
2023-05-30-13:44:12.564621,4.0,5.0,383.0
2023-05-30-13:44:12.565653,2.0,2.0,383.0
2023-05-30-13:44:12.566644,2.0,2.0,383.0
2023-05-30-13:44:12.567645,2.0,2.0,383.0
2023-05-30-13:44:12.568646,5.0,4.0,383.0
2023-05-30-13:44:12.569645,5.0,7.0,383.0
2023-05-30-13:44:12.570644,7.0,4.0,383.0
2023-05-30-13:44:12.571651,7.0,4.0,383.0
2023-05-30-13:44:12.572646,6.0,7.0,384.0
2023-05-30-13:44:12.573644,6.0,8.0,383.0
2023-05-30-13:44:12.574647,7.0,4.0,383.0
2023-05-30-13:44:12.575646,7.0,4.0,383.0
2023-05-30-13:44:12.576645,6.0,8.0,383.0
2023-05-30-13:44:12.577622,3.0,6.0,384.0
2023-05-30-13:44:12.578668,3.0,6.0,384.0
2023-05-30-13:44:12.579669,3.0,6.0,384.0
2023-05-30-13:44:12.580646,6.0,2.0,384.0
2023-05-30-13:44:12.581646,5.0,4.0,384.0
2023-05-30-13:44:12.582645,5.0,4.0,384.0
2023-05-30-13:44:12.583645,5.0,4.0,384.0
2023-05-30-13:44:12.584644,5.0,4.0,384.0
2023-05-30-13:44:12.585644,7.0,1.0,384.0
2023-05-30-13:44:12.586649,6.0,3.0,384.0
2023-05-30-13:44:12.587645,6.0,2.0,383.0
2023-05-30-13:44:12.588647,6.0,2.0,383.0
2023-05-30-13:44:12.589644,5.0,12.0,383.0
2023-05-30-13:44:12.590647,4.0,10.0,384.0
2023-05-30-13:44:12.591646,5.0,10.0,384.0
2023-05-30-13:44:12.592645,5.0,10.0,384.0
2023-05-30-13:44:12.593646,7.0,32.0,383.0
2023-05-30-13:44:12.594645,4.0,5.0,383.0
2023-05-30-13:44:12.595646,4.0,5.0,383.0
2023-05-30-13:44:12.596646,4.0,5.0,383.0
2023-05-30-13:44:12.598622,11.0,29.0,384.0
2023-05-30-13:44:12.598622,7.0,16.0,384.0
2023-05-30-13:44:12.599650,7.0,16.0,384.0
2023-05-30-13:44:12.600645,7.0,16.0,384.0
2023-05-30-13:44:12.601667,1.0,16.0,384.0
2023-05-30-13:44:12.602668,5.0,1.0,384.0
2023-05-30-13:44:12.603652,1.0,25.0,383.0
2023-05-30-13:44:12.604648,1.0,25.0,383.0
2023-05-30-13:44:12.605646,2.0,25.0,384.0
2023-05-30-13:44:12.606646,1.0,16.0,384.0
2023-05-30-13:44:12.607646,1.0,16.0,384.0
2023-05-30-13:44:12.608652,1.0,16.0,384.0
2023-05-30-13:44:12.609647,5.0,6.0,383.0
2023-05-30-13:44:12.610646,9.0,9.0,383.0
2023-05-30-13:44:12.611646,9.0,9.0,383.0
2023-05-30-13:44:12.612618,9.0,9.0,383.0
2023-05-30-13:44:12.613620,12.0,9.0,383.0
2023-05-30-13:44:12.614645,12.0,9.0,383.0
2023-05-30-13:44:12.615645,14.0,6.0,383.0
2023-05-30-13:44:12.616659,6.0,27.0,383.0
2023-05-30-13:44:12.617646,7.0,0.0,384.0
2023-05-30-13:44:12.618644,8.0,25.0,383.0
2023-05-30-13:44:12.619645,2.0,31.0,384.0
2023-05-30-13:44:12.620648,2.0,31.0,384.0
2023-05-30-13:44:12.621645,2.0,31.0,384.0
2023-05-30-13:44:12.622666,1.0,31.0,384.0
2023-05-30-13:44:12.623622,6.0,26.0,384.0
2023-05-30-13:44:12.624667,6.0,26.0,384.0
2023-05-30-13:44:12.625669,6.0,26.0,384.0
2023-05-30-13:44:12.626668,7.0,36.0,384.0
2023-05-30-13:44:12.627669,0.0,25.0,384.0
2023-05-30-13:44:12.628670,0.0,25.0,384.0
2023-05-30-13:44:12.629620,0.0,25.0,384.0
2023-05-30-13:44:12.630645,6.0,6.0,384.0
2023-05-30-13:44:12.632622,6.0,6.0,384.0
2023-05-30-13:44:12.632622,6.0,6.0,384.0
2023-05-30-13:44:12.633645,6.0,6.0,384.0
2023-05-30-13:44:12.634649,6.0,3.0,383.0
2023-05-30-13:44:12.635645,5.0,5.0,384.0
2023-05-30-13:44:12.636646,3.0,1.0,384.0
2023-05-30-13:44:12.637644,3.0,1.0,384.0
2023-05-30-13:44:12.638646,7.0,2.0,384.0
2023-05-30-13:44:12.639643,6.0,3.0,384.0
2023-05-30-13:44:12.640645,6.0,8.0,384.0
2023-05-30-13:44:12.641646,6.0,8.0,384.0
2023-05-30-13:44:12.642646,3.0,9.0,384.0
2023-05-30-13:44:12.643646,7.0,6.0,384.0
2023-05-30-13:44:12.644646,7.0,5.0,384.0
2023-05-30-13:44:12.645646,7.0,5.0,384.0
2023-05-30-13:44:12.646646,6.0,5.0,384.0
2023-05-30-13:44:12.647645,5.0,0.0,384.0
2023-05-30-13:44:12.648645,5.0,0.0,384.0
2023-05-30-13:44:12.649645,5.0,0.0,384.0
2023-05-30-13:44:12.650643,6.0,7.0,384.0
2023-05-30-13:44:12.651645,7.0,13.0,383.0
2023-05-30-13:44:12.652647,5.0,19.0,384.0
2023-05-30-13:44:12.653644,5.0,19.0,384.0
2023-05-30-13:44:12.654647,3.0,21.0,384.0
2023-05-30-13:44:12.655651,4.0,1.0,384.0
2023-05-30-13:44:12.656644,4.0,3.0,384.0
2023-05-30-13:44:12.657647,4.0,3.0,384.0
2023-05-30-13:44:12.658644,5.0,7.0,384.0
2023-05-30-13:44:12.659646,2.0,8.0,384.0
2023-05-30-13:44:12.660644,6.0,12.0,384.0
2023-05-30-13:44:12.661646,6.0,12.0,384.0
2023-05-30-13:44:12.662618,5.0,5.0,383.0
2023-05-30-13:44:12.664622,4.0,1.0,384.0
2023-05-30-13:44:12.664622,4.0,4.0,384.0
2023-05-30-13:44:12.665622,4.0,4.0,384.0
2023-05-30-13:44:12.666672,4.0,4.0,384.0
2023-05-30-13:44:12.667669,6.0,3.0,384.0
2023-05-30-13:44:12.668667,3.0,6.0,384.0
2023-05-30-13:44:12.669670,3.0,6.0,384.0
2023-05-30-13:44:12.670667,3.0,6.0,384.0
2023-05-30-13:44:12.671645,3.0,18.0,384.0
2023-05-30-13:44:12.672622,3.0,8.0,384.0
2023-05-30-13:44:12.673669,3.0,8.0,384.0
2023-05-30-13:44:12.674668,3.0,8.0,384.0
2023-05-30-13:44:12.675669,5.0,5.0,384.0
2023-05-30-13:44:12.676667,3.0,4.0,384.0
2023-05-30-13:44:12.677667,3.0,3.0,384.0
2023-05-30-13:44:12.678668,3.0,3.0,384.0
2023-05-30-13:44:12.679645,6.0,5.0,384.0
2023-05-30-13:44:12.680645,5.0,10.0,384.0
2023-05-30-13:44:12.681646,3.0,8.0,384.0
2023-05-30-13:44:12.682642,3.0,8.0,384.0
2023-05-30-13:44:12.683645,3.0,8.0,384.0
2023-05-30-13:44:12.684646,5.0,27.0,384.0
2023-05-30-13:44:12.685645,4.0,3.0,384.0
2023-05-30-13:44:12.686646,4.0,3.0,384.0
2023-05-30-13:44:12.687645,8.0,21.0,384.0
2023-05-30-13:44:12.688645,13.0,62.0,384.0
2023-05-30-13:44:12.689646,9.0,31.0,383.0
2023-05-30-13:44:12.690645,9.0,31.0,383.0
2023-05-30-13:44:12.691646,8.0,38.0,384.0
2023-05-30-13:44:12.692645,10.0,37.0,384.0
2023-05-30-13:44:12.693646,10.0,37.0,384.0
2023-05-30-13:44:12.694645,10.0,37.0,384.0
2023-05-30-13:44:12.695648,7.0,15.0,384.0
2023-05-30-13:44:12.696646,3.0,19.0,384.0
2023-05-30-13:44:12.697644,7.0,18.0,384.0
2023-05-30-13:44:12.698646,7.0,18.0,384.0
2023-05-30-13:44:12.699645,8.0,36.0,384.0
2023-05-30-13:44:12.701621,11.0,35.0,384.0
2023-05-30-13:44:12.701621,9.0,3.0,384.0
2023-05-30-13:44:12.702668,9.0,3.0,384.0
2023-05-30-13:44:12.703670,0.0,6.0,384.0
2023-05-30-13:44:12.704668,6.0,6.0,384.0
2023-05-30-13:44:12.705647,6.0,6.0,384.0
2023-05-30-13:44:12.706667,6.0,6.0,384.0
2023-05-30-13:44:12.707669,6.0,6.0,384.0
2023-05-30-13:44:12.708668,6.0,10.0,384.0
2023-05-30-13:44:12.709668,6.0,11.0,383.0
2023-05-30-13:44:12.710672,6.0,11.0,383.0
2023-05-30-13:44:12.711669,6.0,11.0,383.0
2023-05-30-13:44:12.712620,7.0,5.0,384.0
2023-05-30-13:44:12.713620,5.0,1.0,384.0
2023-05-30-13:44:12.714671,5.0,2.0,384.0
2023-05-30-13:44:12.715668,6.0,0.0,384.0
2023-05-30-13:44:12.716668,3.0,14.0,384.0
2023-05-30-13:44:12.717670,3.0,14.0,384.0
2023-05-30-13:44:12.718646,3.0,14.0,384.0
2023-05-30-13:44:12.719647,3.0,14.0,384.0
2023-05-30-13:44:12.720645,5.0,12.0,384.0
2023-05-30-13:44:12.721646,4.0,6.0,383.0
2023-05-30-13:44:12.722645,7.0,3.0,384.0
2023-05-30-13:44:12.723651,7.0,3.0,384.0
2023-05-30-13:44:12.724645,4.0,8.0,384.0
2023-05-30-13:44:12.725646,7.0,7.0,384.0
2023-05-30-13:44:12.726645,4.0,13.0,384.0
2023-05-30-13:44:12.727648,4.0,13.0,384.0
2023-05-30-13:44:12.728645,8.0,23.0,384.0
2023-05-30-13:44:12.729618,2.0,14.0,384.0
2023-05-30-13:44:12.730648,2.0,14.0,384.0
2023-05-30-13:44:12.731644,2.0,14.0,384.0
2023-05-30-13:44:12.732646,5.0,30.0,384.0
2023-05-30-13:44:12.733621,4.0,10.0,384.0
2023-05-30-13:44:12.734621,4.0,10.0,384.0
2023-05-30-13:44:12.735619,4.0,10.0,384.0
2023-05-30-13:44:12.737647,6.0,13.0,384.0
2023-05-30-13:44:12.737647,4.0,12.0,384.0
2023-05-30-13:44:12.738620,2.0,8.0,384.0
2023-05-30-13:44:12.739655,4.0,4.0,384.0
2023-05-30-13:44:12.740622,4.0,4.0,384.0
2023-05-30-13:44:12.741647,3.0,2.0,384.0
2023-05-30-13:44:12.742651,3.0,2.0,384.0
2023-05-30-13:44:12.743622,3.0,2.0,384.0
2023-05-30-13:44:12.744646,3.0,2.0,384.0
2023-05-30-13:44:12.745647,6.0,2.0,384.0
2023-05-30-13:44:12.746639,7.0,1.0,383.0
2023-05-30-13:44:12.747626,5.0,4.0,384.0
2023-05-30-13:44:12.748624,5.0,4.0,384.0
2023-05-30-13:44:12.749646,5.0,6.0,384.0
2023-05-30-13:44:12.750647,4.0,4.0,384.0
2023-05-30-13:44:12.751647,5.0,5.0,384.0
2023-05-30-13:44:12.752645,5.0,5.0,384.0
2023-05-30-13:44:12.753654,6.0,10.0,383.0
2023-05-30-13:44:12.754651,5.0,17.0,384.0
2023-05-30-13:44:12.755646,5.0,17.0,384.0
2023-05-30-13:44:12.756651,5.0,17.0,384.0
2023-05-30-13:44:12.757646,5.0,17.0,384.0
2023-05-30-13:44:12.758645,10.0,22.0,384.0
2023-05-30-13:44:12.759645,10.0,22.0,384.0
2023-05-30-13:44:12.760645,10.0,22.0,384.0
2023-05-30-13:44:12.761644,11.0,10.0,384.0
2023-05-30-13:44:12.762625,7.0,10.0,384.0
2023-05-30-13:44:12.763620,4.0,0.0,384.0
2023-05-30-13:44:12.764621,4.0,0.0,384.0
2023-05-30-13:44:12.765655,3.0,38.0,384.0
2023-05-30-13:44:12.766648,5.0,25.0,384.0
2023-05-30-13:44:12.767644,5.0,25.0,384.0
2023-05-30-13:44:12.769622,1.0,22.0,384.0
2023-05-30-13:44:12.769622,4.0,16.0,384.0
2023-05-30-13:44:12.770668,4.0,73.0,384.0
2023-05-30-13:44:12.771669,4.0,73.0,384.0
2023-05-30-13:44:12.772667,4.0,73.0,384.0
2023-05-30-13:44:12.773669,2.0,28.0,383.0
2023-05-30-13:44:12.774667,1.0,2.0,383.0
2023-05-30-13:44:12.775648,7.0,30.0,384.0
2023-05-30-13:44:12.776646,7.0,30.0,384.0
2023-05-30-13:44:12.777645,6.0,37.0,384.0
2023-05-30-13:44:12.778649,9.0,20.0,384.0
2023-05-30-13:44:12.779620,9.0,20.0,384.0
2023-05-30-13:44:12.780647,9.0,20.0,384.0
2023-05-30-13:44:12.781644,9.0,94.0,384.0
2023-05-30-13:44:12.782647,1.0,33.0,384.0
2023-05-30-13:44:12.783645,2.0,40.0,384.0
2023-05-30-13:44:12.784636,2.0,40.0,384.0
2023-05-30-13:44:12.785645,4.0,6.0,384.0
2023-05-30-13:44:12.786644,11.0,24.0,384.0
2023-05-30-13:44:12.787646,11.0,24.0,384.0
2023-05-30-13:44:12.788646,11.0,24.0,384.0
2023-05-30-13:44:12.789647,11.0,24.0,384.0
2023-05-30-13:44:12.790648,7.0,8.0,384.0
2023-05-30-13:44:12.791644,2.0,8.0,383.0
2023-05-30-13:44:12.792646,1.0,7.0,384.0
2023-05-30-13:44:12.793646,1.0,7.0,384.0
2023-05-30-13:44:12.794649,3.0,26.0,384.0
2023-05-30-13:44:12.795646,6.0,36.0,384.0
2023-05-30-13:44:12.796647,6.0,36.0,384.0
2023-05-30-13:44:12.797646,6.0,36.0,384.0
2023-05-30-13:44:12.798647,4.0,29.0,384.0
2023-05-30-13:44:12.799646,7.0,36.0,384.0
2023-05-30-13:44:12.800647,10.0,81.0,384.0
2023-05-30-13:44:12.801647,10.0,81.0,384.0
2023-05-30-13:44:12.802646,6.0,16.0,384.0
2023-05-30-13:44:12.803647,1.0,33.0,384.0
2023-05-30-13:44:12.805622,1.0,33.0,384.0
2023-05-30-13:44:12.805622,1.0,33.0,384.0
2023-05-30-13:44:12.806644,6.0,47.0,384.0
2023-05-30-13:44:12.807648,5.0,27.0,384.0
2023-05-30-13:44:12.808666,5.0,27.0,384.0
2023-05-30-13:44:12.809665,5.0,27.0,384.0
2023-05-30-13:44:12.810669,1.0,20.0,384.0
2023-05-30-13:44:12.811666,5.0,6.0,384.0
2023-05-30-13:44:12.812638,7.0,2.0,384.0
2023-05-30-13:44:12.813694,7.0,2.0,384.0
2023-05-30-13:44:12.814665,3.0,2.0,384.0
2023-05-30-13:44:12.815666,5.0,3.0,384.0
2023-05-30-13:44:12.816666,5.0,3.0,384.0
2023-05-30-13:44:12.817666,5.0,3.0,384.0
2023-05-30-13:44:12.818665,2.0,4.0,384.0
2023-05-30-13:44:12.819667,6.0,3.0,384.0
2023-05-30-13:44:12.820667,3.0,5.0,384.0
2023-05-30-13:44:12.821665,3.0,5.0,384.0
2023-05-30-13:44:12.822621,3.0,2.0,384.0
2023-05-30-13:44:12.823648,6.0,3.0,384.0
2023-05-30-13:44:12.824649,6.0,3.0,384.0
2023-05-30-13:44:12.825645,6.0,3.0,384.0
2023-05-30-13:44:12.826649,5.0,3.0,384.0
2023-05-30-13:44:12.827646,6.0,1.0,384.0
2023-05-30-13:44:12.828646,7.0,5.0,384.0
2023-05-30-13:44:12.829619,7.0,5.0,384.0
2023-05-30-13:44:12.830646,7.0,3.0,384.0
2023-05-30-13:44:12.831646,7.0,2.0,384.0
2023-05-30-13:44:12.832646,5.0,3.0,384.0
2023-05-30-13:44:12.833646,5.0,3.0,384.0
2023-05-30-13:44:12.834646,5.0,3.0,384.0
2023-05-30-13:44:12.835647,6.0,6.0,383.0
2023-05-30-13:44:12.836646,4.0,3.0,384.0
2023-05-30-13:44:12.837646,4.0,3.0,384.0
2023-05-30-13:44:12.838646,4.0,3.0,384.0
2023-05-30-13:44:12.839653,5.0,1.0,383.0
2023-05-30-13:44:12.841622,4.0,3.0,383.0
2023-05-30-13:44:12.841622,4.0,3.0,383.0
2023-05-30-13:44:12.842669,6.0,1.0,383.0
2023-05-30-13:44:12.843665,4.0,13.0,383.0
2023-05-30-13:44:12.844665,4.0,13.0,383.0
2023-05-30-13:44:12.845670,4.0,13.0,383.0
2023-05-30-13:44:12.846666,4.0,13.0,383.0
2023-05-30-13:44:12.847665,4.0,1.0,383.0
2023-05-30-13:44:12.848665,5.0,8.0,383.0
2023-05-30-13:44:12.849666,5.0,8.0,383.0
2023-05-30-13:44:12.850665,5.0,8.0,383.0
2023-05-30-13:44:12.851667,4.0,3.0,383.0
2023-05-30-13:44:12.852672,2.0,2.0,383.0
2023-05-30-13:44:12.853668,2.0,2.0,383.0
2023-05-30-13:44:12.854667,2.0,2.0,383.0
2023-05-30-13:44:12.855666,4.0,2.0,383.0
2023-05-30-13:44:12.856651,4.0,2.0,383.0
2023-05-30-13:44:12.857646,4.0,10.0,383.0
2023-05-30-13:44:12.858649,4.0,10.0,383.0
2023-05-30-13:44:12.859647,5.0,9.0,384.0
2023-05-30-13:44:12.860647,6.0,3.0,383.0
2023-05-30-13:44:12.861648,4.0,7.0,383.0
2023-05-30-13:44:12.862618,4.0,7.0,383.0
2023-05-30-13:44:12.863647,6.0,4.0,383.0
2023-05-30-13:44:12.864647,9.0,2.0,383.0
2023-05-30-13:44:12.865647,9.0,2.0,383.0
2023-05-30-13:44:12.866645,9.0,2.0,383.0
2023-05-30-13:44:12.867647,5.0,20.0,383.0
2023-05-30-13:44:12.868647,8.0,30.0,383.0
2023-05-30-13:44:12.869646,8.0,9.0,383.0
2023-05-30-13:44:12.870622,8.0,9.0,383.0
2023-05-30-13:44:12.871648,3.0,30.0,383.0
2023-05-30-13:44:12.872666,3.0,36.0,383.0
2023-05-30-13:44:12.873666,3.0,36.0,383.0
2023-05-30-13:44:12.874669,3.0,36.0,383.0
2023-05-30-13:44:12.876622,3.0,36.0,383.0
2023-05-30-13:44:12.876622,7.0,2.0,382.0
2023-05-30-13:44:12.877669,3.0,23.0,382.0
2023-05-30-13:44:12.878670,3.0,23.0,382.0
2023-05-30-13:44:12.879620,3.0,23.0,382.0
2023-05-30-13:44:12.880665,5.0,8.0,382.0
2023-05-30-13:44:12.881666,7.0,9.0,382.0
2023-05-30-13:44:12.882667,7.0,9.0,382.0
2023-05-30-13:44:12.883666,7.0,9.0,382.0
2023-05-30-13:44:12.884672,6.0,8.0,382.0
2023-05-30-13:44:12.885665,6.0,6.0,382.0
2023-05-30-13:44:12.886667,6.0,6.0,382.0
2023-05-30-13:44:12.887653,6.0,6.0,382.0
2023-05-30-13:44:12.888622,7.0,10.0,381.0
2023-05-30-13:44:12.889667,4.0,8.0,381.0
2023-05-30-13:44:12.890669,4.0,8.0,381.0
2023-05-30-13:44:12.891666,4.0,8.0,381.0
2023-05-30-13:44:12.892674,4.0,7.0,381.0
2023-05-30-13:44:12.893647,3.0,11.0,381.0
2023-05-30-13:44:12.894647,3.0,11.0,381.0
2023-05-30-13:44:12.895646,3.0,11.0,381.0
2023-05-30-13:44:12.896620,8.0,18.0,381.0
2023-05-30-13:44:12.897646,5.0,34.0,380.0
2023-05-30-13:44:12.898646,8.0,45.0,380.0
2023-05-30-13:44:12.899647,8.0,45.0,380.0
2023-05-30-13:44:12.900646,3.0,16.0,380.0
2023-05-30-13:44:12.901647,5.0,27.0,379.0
2023-05-30-13:44:12.902645,3.0,14.0,379.0
2023-05-30-13:44:12.903648,3.0,14.0,379.0
2023-05-30-13:44:12.904622,1.0,17.0,378.0
2023-05-30-13:44:12.905666,5.0,23.0,378.0
2023-05-30-13:44:12.906668,5.0,23.0,378.0
2023-05-30-13:44:12.907665,5.0,23.0,378.0
2023-05-30-13:44:12.909622,3.0,14.0,378.0
2023-05-30-13:44:12.909622,2.0,22.0,377.0
2023-05-30-13:44:12.910667,2.0,22.0,377.0
2023-05-30-13:44:12.911670,2.0,22.0,377.0
2023-05-30-13:44:12.912673,4.0,14.0,377.0
2023-05-30-13:44:12.913666,6.0,11.0,377.0
2023-05-30-13:44:12.914665,6.0,8.0,377.0
2023-05-30-13:44:12.915667,6.0,8.0,377.0
2023-05-30-13:44:12.916666,6.0,6.0,376.0
2023-05-30-13:44:12.917665,5.0,1.0,376.0
2023-05-30-13:44:12.918667,5.0,1.0,376.0
2023-05-30-13:44:12.919666,5.0,1.0,376.0
2023-05-30-13:44:12.920666,5.0,1.0,376.0
2023-05-30-13:44:12.921646,3.0,0.0,375.0
2023-05-30-13:44:12.922668,3.0,2.0,375.0
2023-05-30-13:44:12.923665,3.0,2.0,375.0
2023-05-30-13:44:12.924665,3.0,2.0,375.0
2023-05-30-13:44:12.925669,6.0,3.0,374.0
2023-05-30-13:44:12.926672,2.0,6.0,374.0
2023-05-30-13:44:12.927665,2.0,6.0,374.0
2023-05-30-13:44:12.928670,2.0,6.0,374.0
2023-05-30-13:44:12.929619,6.0,2.0,374.0
2023-05-30-13:44:12.930649,8.0,12.0,373.0
2023-05-30-13:44:12.931666,8.0,12.0,373.0
2023-05-30-13:44:12.932666,8.0,12.0,373.0
2023-05-30-13:44:12.933665,6.0,3.0,373.0
2023-05-30-13:44:12.934667,5.0,2.0,373.0
2023-05-30-13:44:12.935669,5.0,2.0,373.0
2023-05-30-13:44:12.936622,5.0,2.0,373.0
2023-05-30-13:44:12.937665,6.0,4.0,372.0
2023-05-30-13:44:12.938668,5.0,0.0,372.0
2023-05-30-13:44:12.939665,6.0,1.0,372.0
2023-05-30-13:44:12.940666,6.0,1.0,372.0
2023-05-30-13:44:12.941669,6.0,19.0,371.0
2023-05-30-13:44:12.942666,5.0,1.0,371.0
2023-05-30-13:44:12.943666,5.0,1.0,371.0
2023-05-30-13:44:12.944666,5.0,1.0,371.0
2023-05-30-13:44:12.946622,5.0,5.0,371.0
2023-05-30-13:44:12.946622,2.0,5.0,370.0
2023-05-30-13:44:12.947667,2.0,5.0,370.0
2023-05-30-13:44:12.948668,2.0,5.0,370.0
2023-05-30-13:44:12.949622,1.0,10.0,369.0
2023-05-30-13:44:12.950667,4.0,6.0,369.0
2023-05-30-13:44:12.951666,4.0,6.0,369.0
2023-05-30-13:44:12.952683,4.0,6.0,369.0
2023-05-30-13:44:12.953646,6.0,3.0,369.0
2023-05-30-13:44:12.954622,7.0,16.0,368.0
2023-05-30-13:44:12.955667,7.0,16.0,368.0
2023-05-30-13:44:12.956679,7.0,16.0,368.0
2023-05-30-13:44:12.957669,6.0,10.0,368.0
2023-05-30-13:44:12.958665,5.0,11.0,367.0
2023-05-30-13:44:12.959666,8.0,19.0,367.0
2023-05-30-13:44:12.960665,8.0,19.0,367.0
2023-05-30-13:44:12.961646,12.0,30.0,367.0
2023-05-30-13:44:12.962646,9.0,41.0,366.0
2023-05-30-13:44:12.963653,9.0,41.0,366.0
2023-05-30-13:44:12.964647,9.0,41.0,366.0
2023-05-30-13:44:12.965647,9.0,41.0,366.0
2023-05-30-13:44:12.966646,6.0,10.0,365.0
2023-05-30-13:44:12.967648,3.0,53.0,366.0
2023-05-30-13:44:12.968646,5.0,9.0,365.0
2023-05-30-13:44:12.969646,5.0,9.0,365.0
2023-05-30-13:44:12.970649,1.0,31.0,365.0
2023-05-30-13:44:12.971652,2.0,16.0,365.0
2023-05-30-13:44:12.972647,3.0,21.0,364.0
2023-05-30-13:44:12.973647,3.0,21.0,364.0
2023-05-30-13:44:12.974647,4.0,0.0,364.0
2023-05-30-13:44:12.975646,6.0,4.0,364.0
2023-05-30-13:44:12.976646,4.0,2.0,363.0
2023-05-30-13:44:12.977647,4.0,2.0,363.0
2023-05-30-13:44:12.978646,7.0,4.0,363.0
2023-05-30-13:44:12.979618,6.0,14.0,362.0
2023-05-30-13:44:12.980624,6.0,14.0,362.0
2023-05-30-13:44:12.982645,6.0,14.0,362.0
2023-05-30-13:44:12.982645,7.0,12.0,362.0
2023-05-30-13:44:12.983665,6.0,5.0,361.0
2023-05-30-13:44:12.984671,6.0,5.0,361.0
2023-05-30-13:44:12.985665,6.0,5.0,361.0
2023-05-30-13:44:12.986668,4.0,6.0,361.0
2023-05-30-13:44:12.987665,5.0,7.0,361.0
2023-05-30-13:44:12.988666,6.0,16.0,361.0
2023-05-30-13:44:12.989620,6.0,16.0,361.0
2023-05-30-13:44:12.990665,3.0,8.0,361.0
2023-05-30-13:44:12.991665,5.0,2.0,360.0
2023-05-30-13:44:12.992665,4.0,5.0,360.0
2023-05-30-13:44:12.993668,4.0,5.0,360.0
2023-05-30-13:44:12.994668,7.0,29.0,360.0
2023-05-30-13:44:12.995668,7.0,6.0,359.0
2023-05-30-13:44:12.996647,5.0,8.0,359.0
2023-05-30-13:44:12.997647,5.0,8.0,359.0
2023-05-30-13:44:12.998646,4.0,12.0,359.0
2023-05-30-13:44:12.999647,3.0,3.0,359.0
2023-05-30-13:44:13.000646,4.0,3.0,359.0
2023-05-30-13:44:13.001645,4.0,3.0,359.0
2023-05-30-13:44:13.002647,4.0,3.0,359.0
2023-05-30-13:44:13.003645,4.0,4.0,358.0
2023-05-30-13:44:13.004646,3.0,9.0,358.0
2023-05-30-13:44:13.005645,3.0,9.0,358.0
2023-05-30-13:44:13.006647,3.0,9.0,358.0
2023-05-30-13:44:13.007645,5.0,4.0,357.0
2023-05-30-13:44:13.008645,4.0,3.0,357.0
2023-05-30-13:44:13.009645,4.0,3.0,357.0
2023-05-30-13:44:13.010645,4.0,3.0,357.0
2023-05-30-13:44:13.011645,2.0,4.0,357.0
2023-05-30-13:44:13.012621,5.0,2.0,357.0
2023-05-30-13:44:13.013647,5.0,2.0,357.0
2023-05-30-13:44:13.015648,5.0,4.0,357.0
2023-05-30-13:44:13.015648,5.0,4.0,357.0
2023-05-30-13:44:13.016668,5.0,1.0,357.0
2023-05-30-13:44:13.017668,4.0,3.0,357.0
2023-05-30-13:44:13.018670,4.0,3.0,357.0
2023-05-30-13:44:13.019668,6.0,6.0,356.0
2023-05-30-13:44:13.020668,6.0,5.0,356.0
2023-05-30-13:44:13.021669,4.0,4.0,356.0
2023-05-30-13:44:13.022667,4.0,4.0,356.0
2023-05-30-13:44:13.023669,6.0,4.0,356.0
2023-05-30-13:44:13.024667,3.0,2.0,356.0
2023-05-30-13:44:13.025675,3.0,2.0,356.0
2023-05-30-13:44:13.026668,3.0,2.0,356.0
2023-05-30-13:44:13.027622,6.0,2.0,356.0
2023-05-30-13:44:13.028668,7.0,7.0,356.0
2023-05-30-13:44:13.029618,7.0,7.0,356.0
2023-05-30-13:44:13.030620,7.0,7.0,356.0
2023-05-30-13:44:13.031669,5.0,5.0,356.0
2023-05-30-13:44:13.032651,7.0,0.0,356.0
2023-05-30-13:44:13.033645,7.0,0.0,356.0
2023-05-30-13:44:13.034648,7.0,0.0,356.0
2023-05-30-13:44:13.035646,5.0,1.0,356.0
2023-05-30-13:44:13.036646,4.0,12.0,356.0
2023-05-30-13:44:13.037644,6.0,23.0,355.0
2023-05-30-13:44:13.038646,6.0,23.0,355.0
2023-05-30-13:44:13.039645,7.0,27.0,356.0
2023-05-30-13:44:13.040645,6.0,31.0,355.0
2023-05-30-13:44:13.041645,9.0,0.0,356.0
2023-05-30-13:44:13.042645,9.0,0.0,356.0
2023-05-30-13:44:13.043650,11.0,4.0,356.0
2023-05-30-13:44:13.044645,2.0,43.0,356.0
2023-05-30-13:44:13.045647,2.0,40.0,356.0
2023-05-30-13:44:13.046620,2.0,40.0,356.0
2023-05-30-13:44:13.047648,5.0,21.0,356.0
2023-05-30-13:44:13.049644,1.0,37.0,356.0
2023-05-30-13:44:13.049644,2.0,23.0,356.0
2023-05-30-13:44:13.050619,2.0,23.0,356.0
2023-05-30-13:44:13.051668,2.0,23.0,356.0
2023-05-30-13:44:13.052667,1.0,12.0,356.0
2023-05-30-13:44:13.053669,5.0,15.0,356.0
2023-05-30-13:44:13.054673,4.0,18.0,356.0
2023-05-30-13:44:13.055669,4.0,18.0,356.0
2023-05-30-13:44:13.056668,4.0,16.0,356.0
2023-05-30-13:44:13.057667,7.0,5.0,356.0
2023-05-30-13:44:13.058668,7.0,5.0,356.0
2023-05-30-13:44:13.059668,7.0,5.0,356.0
2023-05-30-13:44:13.060668,9.0,2.0,356.0
2023-05-30-13:44:13.061667,6.0,5.0,356.0
2023-05-30-13:44:13.062671,6.0,5.0,356.0
2023-05-30-13:44:13.063648,6.0,5.0,356.0
2023-05-30-13:44:13.064668,4.0,3.0,356.0
2023-05-30-13:44:13.065669,6.0,8.0,356.0
2023-05-30-13:44:13.066648,6.0,8.0,356.0
2023-05-30-13:44:13.067645,6.0,8.0,356.0
2023-05-30-13:44:13.068650,5.0,4.0,356.0
2023-05-30-13:44:13.069622,6.0,6.0,356.0
2023-05-30-13:44:13.070667,6.0,6.0,356.0
2023-05-30-13:44:13.071669,6.0,6.0,356.0
2023-05-30-13:44:13.072668,7.0,7.0,356.0
2023-05-30-13:44:13.073668,7.0,9.0,356.0
2023-05-30-13:44:13.074668,3.0,7.0,356.0
2023-05-30-13:44:13.075668,3.0,7.0,356.0
2023-05-30-13:44:13.076668,2.0,3.0,356.0
2023-05-30-13:44:13.077669,6.0,8.0,356.0
2023-05-30-13:44:13.078671,6.0,8.0,356.0
2023-05-30-13:44:13.079618,6.0,8.0,356.0
2023-05-30-13:44:13.080668,3.0,5.0,356.0
2023-05-30-13:44:13.081667,6.0,1.0,356.0
2023-05-30-13:44:13.082670,6.0,3.0,356.0
2023-05-30-13:44:13.083668,6.0,3.0,356.0
2023-05-30-13:44:13.085621,6.0,6.0,356.0
2023-05-30-13:44:13.085621,3.0,6.0,356.0
2023-05-30-13:44:13.086667,3.0,6.0,356.0
2023-05-30-13:44:13.087669,3.0,6.0,356.0
2023-05-30-13:44:13.088668,5.0,6.0,356.0
2023-05-30-13:44:13.089668,4.0,4.0,356.0
2023-05-30-13:44:13.090670,4.0,4.0,356.0
2023-05-30-13:44:13.091668,4.0,4.0,356.0
2023-05-30-13:44:13.092668,4.0,4.0,356.0
2023-05-30-13:44:13.093668,5.0,2.0,356.0
2023-05-30-13:44:13.094671,3.0,7.0,356.0
2023-05-30-13:44:13.095671,3.0,7.0,356.0
2023-05-30-13:44:13.096671,3.0,7.0,356.0
2023-05-30-13:44:13.097668,7.0,4.0,356.0
2023-05-30-13:44:13.098670,3.0,10.0,356.0
2023-05-30-13:44:13.099668,3.0,11.0,356.0
2023-05-30-13:44:13.100668,3.0,11.0,356.0
2023-05-30-13:44:13.101647,6.0,8.0,356.0
2023-05-30-13:44:13.102647,7.0,15.0,356.0
2023-05-30-13:44:13.103646,7.0,15.0,356.0
2023-05-30-13:44:13.104644,7.0,15.0,356.0
2023-05-30-13:44:13.105645,5.0,8.0,356.0
2023-05-30-13:44:13.106646,5.0,21.0,356.0
2023-05-30-13:44:13.107645,5.0,4.0,356.0
2023-05-30-13:44:13.108650,9.0,13.0,356.0
2023-05-30-13:44:13.109646,11.0,24.0,356.0
2023-05-30-13:44:13.110645,6.0,29.0,356.0
2023-05-30-13:44:13.111647,3.0,43.0,356.0
2023-05-30-13:44:13.112645,3.0,43.0,356.0
2023-05-30-13:44:13.113647,0.0,8.0,356.0
2023-05-30-13:44:13.114647,1.0,20.0,356.0
2023-05-30-13:44:13.115645,1.0,20.0,356.0
2023-05-30-13:44:13.116653,1.0,20.0,356.0
2023-05-30-13:44:13.117645,0.0,37.0,356.0
2023-05-30-13:44:13.119668,3.0,10.0,356.0
2023-05-30-13:44:13.119668,3.0,10.0,356.0
2023-05-30-13:44:13.120667,3.0,10.0,356.0
2023-05-30-13:44:13.121679,4.0,30.0,356.0
2023-05-30-13:44:13.122668,5.0,45.0,356.0
2023-05-30-13:44:13.123673,5.0,45.0,356.0
2023-05-30-13:44:13.124646,5.0,45.0,356.0
2023-05-30-13:44:13.125667,6.0,35.0,356.0
2023-05-30-13:44:13.126671,9.0,8.0,356.0
2023-05-30-13:44:13.127668,3.0,22.0,356.0
2023-05-30-13:44:13.128668,3.0,22.0,356.0
2023-05-30-13:44:13.129619,4.0,10.0,356.0
2023-05-30-13:44:13.130620,4.0,33.0,356.0
2023-05-30-13:44:13.131667,3.0,35.0,356.0
2023-05-30-13:44:13.132646,3.0,35.0,356.0
2023-05-30-13:44:13.133669,3.0,35.0,356.0
2023-05-30-13:44:13.134667,3.0,56.0,356.0
2023-05-30-13:44:13.135669,4.0,13.0,356.0
2023-05-30-13:44:13.136671,4.0,13.0,356.0
2023-05-30-13:44:13.137668,6.0,16.0,356.0
2023-05-30-13:44:13.138667,7.0,15.0,356.0
2023-05-30-13:44:13.139668,7.0,2.0,356.0
2023-05-30-13:44:13.140674,7.0,2.0,356.0
2023-05-30-13:44:13.141667,7.0,2.0,356.0
2023-05-30-13:44:13.142671,3.0,6.0,356.0
2023-05-30-13:44:13.143667,4.0,18.0,356.0
2023-05-30-13:44:13.144668,5.0,13.0,356.0
2023-05-30-13:44:13.145668,5.0,13.0,356.0
2023-05-30-13:44:13.146624,6.0,10.0,356.0
2023-05-30-13:44:13.147668,6.0,2.0,356.0
2023-05-30-13:44:13.148668,4.0,6.0,356.0
2023-05-30-13:44:13.149668,4.0,6.0,356.0
2023-05-30-13:44:13.150667,6.0,28.0,356.0
2023-05-30-13:44:13.151668,7.0,14.0,356.0
2023-05-30-13:44:13.152668,5.0,19.0,356.0
2023-05-30-13:44:13.153668,5.0,19.0,356.0
2023-05-30-13:44:13.154622,4.0,9.0,356.0
2023-05-30-13:44:13.156622,3.0,3.0,356.0
2023-05-30-13:44:13.156622,5.0,4.0,356.0
2023-05-30-13:44:13.157673,5.0,4.0,356.0
2023-05-30-13:44:13.158671,7.0,1.0,356.0
2023-05-30-13:44:13.159667,3.0,5.0,356.0
2023-05-30-13:44:13.160668,3.0,5.0,356.0
2023-05-30-13:44:13.161667,3.0,5.0,356.0
2023-05-30-13:44:13.162670,4.0,6.0,356.0
2023-05-30-13:44:13.163668,5.0,14.0,356.0
2023-05-30-13:44:13.164668,5.0,9.0,356.0
2023-05-30-13:44:13.165646,5.0,9.0,356.0
2023-05-30-13:44:13.166622,7.0,4.0,356.0
2023-05-30-13:44:13.167669,9.0,0.0,356.0
2023-05-30-13:44:13.168668,9.0,0.0,356.0
2023-05-30-13:44:13.169679,9.0,0.0,356.0
2023-05-30-13:44:13.170645,6.0,13.0,356.0
2023-05-30-13:44:13.171622,4.0,10.0,356.0
2023-05-30-13:44:13.172647,4.0,10.0,356.0
2023-05-30-13:44:13.173649,4.0,10.0,356.0
2023-05-30-13:44:13.174625,4.0,10.0,356.0
2023-05-30-13:44:13.175619,4.0,10.0,356.0
2023-05-30-13:44:13.176646,4.0,10.0,356.0
2023-05-30-13:44:13.177645,4.0,10.0,356.0
2023-05-30-13:44:13.178647,4.0,10.0,356.0
2023-05-30-13:44:13.179622,4.0,17.0,356.0
2023-05-30-13:44:13.180622,5.0,27.0,356.0
2023-05-30-13:44:13.181622,7.0,80.0,356.0
2023-05-30-13:44:13.182622,7.0,80.0,356.0
2023-05-30-13:44:13.183622,3.0,54.0,356.0
2023-05-30-13:44:13.184622,0.0,38.0,356.0
2023-05-30-13:44:13.185622,0.0,38.0,356.0
2023-05-30-13:44:13.186622,0.0,38.0,356.0
2023-05-30-13:44:13.187668,6.0,30.0,356.0
2023-05-30-13:44:13.189622,6.0,30.0,356.0
2023-05-30-13:44:13.189622,6.0,30.0,356.0
2023-05-30-13:44:13.190620,6.0,24.0,356.0
2023-05-30-13:44:13.191622,3.0,23.0,356.0
2023-05-30-13:44:13.192623,3.0,23.0,356.0
2023-05-30-13:44:13.193653,3.0,23.0,356.0
2023-05-30-13:44:13.194655,3.0,23.0,356.0
2023-05-30-13:44:13.195653,3.0,7.0,356.0
2023-05-30-13:44:13.196620,8.0,38.0,356.0
2023-05-30-13:44:13.197654,0.0,15.0,356.0
2023-05-30-13:44:13.198655,0.0,15.0,356.0
2023-05-30-13:44:13.199655,2.0,7.0,356.0
2023-05-30-13:44:13.200622,6.0,6.0,356.0
2023-05-30-13:44:13.201653,6.0,6.0,356.0
2023-05-30-13:44:13.202653,6.0,6.0,356.0
2023-05-30-13:44:13.203622,7.0,10.0,356.0
2023-05-30-13:44:13.204621,7.0,10.0,356.0
2023-05-30-13:44:13.205658,6.0,28.0,356.0
2023-05-30-13:44:13.206622,6.0,28.0,356.0
2023-05-30-13:44:13.207622,8.0,40.0,356.0
2023-05-30-13:44:13.208653,9.0,12.0,356.0
2023-05-30-13:44:13.209653,9.0,12.0,356.0
2023-05-30-13:44:13.210655,9.0,12.0,356.0
2023-05-30-13:44:13.211653,11.0,6.0,356.0
2023-05-30-13:44:13.212647,6.0,85.0,356.0
2023-05-30-13:44:13.213669,3.0,37.0,356.0
2023-05-30-13:44:13.214646,3.0,37.0,356.0
2023-05-30-13:44:13.215646,1.0,7.0,356.0
2023-05-30-13:44:13.216644,1.0,41.0,356.0
2023-05-30-13:44:13.217644,1.0,41.0,356.0
2023-05-30-13:44:13.218644,1.0,41.0,356.0
2023-05-30-13:44:13.219649,1.0,41.0,356.0
2023-05-30-13:44:13.220622,6.0,4.0,356.0
2023-05-30-13:44:13.221648,6.0,4.0,356.0
2023-05-30-13:44:13.222645,6.0,4.0,356.0
2023-05-30-13:44:13.224622,6.0,4.0,356.0
2023-05-30-13:44:13.224622,8.0,10.0,356.0
2023-05-30-13:44:13.225666,8.0,10.0,356.0
2023-05-30-13:44:13.226669,8.0,10.0,356.0
2023-05-30-13:44:13.227665,8.0,10.0,356.0
2023-05-30-13:44:13.228665,8.0,0.0,356.0
2023-05-30-13:44:13.229618,6.0,5.0,356.0
2023-05-30-13:44:13.230656,6.0,5.0,356.0
2023-05-30-13:44:13.231668,6.0,5.0,356.0
2023-05-30-13:44:13.232666,7.0,6.0,356.0
2023-05-30-13:44:13.233666,5.0,5.0,356.0
2023-05-30-13:44:13.234646,4.0,5.0,356.0
2023-05-30-13:44:13.235665,4.0,5.0,356.0
2023-05-30-13:44:13.236665,4.0,4.0,356.0
2023-05-30-13:44:13.237668,7.0,2.0,356.0
2023-05-30-13:44:13.238666,3.0,3.0,356.0
2023-05-30-13:44:13.239666,3.0,3.0,356.0
2023-05-30-13:44:13.240665,5.0,3.0,356.0
2023-05-30-13:44:13.241666,5.0,6.0,356.0
2023-05-30-13:44:13.242652,5.0,6.0,356.0
2023-05-30-13:44:13.243646,5.0,6.0,356.0
2023-05-30-13:44:13.244646,6.0,3.0,356.0
2023-05-30-13:44:13.245647,5.0,1.0,356.0
2023-05-30-13:44:13.246618,6.0,6.0,356.0
2023-05-30-13:44:13.247646,6.0,6.0,356.0
2023-05-30-13:44:13.248652,6.0,4.0,356.0
2023-05-30-13:44:13.249625,4.0,11.0,356.0
2023-05-30-13:44:13.250622,2.0,8.0,356.0
2023-05-30-13:44:13.251622,2.0,8.0,356.0
2023-05-30-13:44:13.252622,5.0,13.0,356.0
2023-05-30-13:44:13.253646,4.0,11.0,356.0
2023-05-30-13:44:13.254622,6.0,13.0,356.0
2023-05-30-13:44:13.255669,6.0,13.0,356.0
2023-05-30-13:44:13.256622,4.0,6.0,356.0
2023-05-30-13:44:13.257620,4.0,6.0,356.0
2023-05-30-13:44:13.259622,4.0,6.0,356.0
2023-05-30-13:44:13.259622,4.0,12.0,356.0
2023-05-30-13:44:13.260665,5.0,0.0,356.0
2023-05-30-13:44:13.261668,5.0,0.0,356.0
2023-05-30-13:44:13.262665,5.0,0.0,356.0
2023-05-30-13:44:13.263668,5.0,0.0,356.0
2023-05-30-13:44:13.264665,5.0,0.0,356.0
2023-05-30-13:44:13.265665,6.0,3.0,356.0
2023-05-30-13:44:13.266671,5.0,3.0,356.0
2023-05-30-13:44:13.267670,5.0,3.0,356.0
2023-05-30-13:44:13.268669,5.0,3.0,356.0
2023-05-30-13:44:13.269666,4.0,5.0,356.0
2023-05-30-13:44:13.270666,8.0,10.0,356.0
2023-05-30-13:44:13.271671,8.0,10.0,356.0
2023-05-30-13:44:13.272666,8.0,10.0,356.0
2023-05-30-13:44:13.273646,8.0,37.0,356.0
2023-05-30-13:44:13.274668,8.0,37.0,356.0
2023-05-30-13:44:13.275646,8.0,37.0,356.0
2023-05-30-13:44:13.276646,8.0,37.0,356.0
2023-05-30-13:44:13.277648,5.0,38.0,356.0
2023-05-30-13:44:13.278646,6.0,11.0,356.0
2023-05-30-13:44:13.279618,7.0,6.0,356.0
2023-05-30-13:44:13.280646,7.0,6.0,356.0
2023-05-30-13:44:13.281646,3.0,27.0,356.0
2023-05-30-13:44:13.282646,5.0,56.0,356.0
2023-05-30-13:44:13.283650,5.0,20.0,356.0
2023-05-30-13:44:13.284646,5.0,20.0,356.0
2023-05-30-13:44:13.285647,1.0,19.0,356.0
2023-05-30-13:44:13.286646,5.0,30.0,356.0
2023-05-30-13:44:13.287647,1.0,13.0,356.0
2023-05-30-13:44:13.288646,1.0,13.0,356.0
2023-05-30-13:44:13.289622,2.0,2.0,356.0
2023-05-30-13:44:13.290668,14.0,73.0,356.0
2023-05-30-13:44:13.291670,14.0,73.0,356.0
2023-05-30-13:44:13.293622,14.0,73.0,356.0
2023-05-30-13:44:13.293622,8.0,48.0,356.0
2023-05-30-13:44:13.294666,3.0,80.0,356.0
2023-05-30-13:44:13.295668,2.0,16.0,356.0
2023-05-30-13:44:13.296620,2.0,16.0,356.0
2023-05-30-13:44:13.297620,7.0,26.0,356.0
2023-05-30-13:44:13.298667,5.0,0.0,356.0
2023-05-30-13:44:13.299665,5.0,0.0,356.0
2023-05-30-13:44:13.300666,5.0,0.0,356.0
2023-05-30-13:44:13.301665,5.0,8.0,356.0
2023-05-30-13:44:13.302666,8.0,27.0,356.0
2023-05-30-13:44:13.303665,8.0,27.0,356.0
2023-05-30-13:44:13.304665,8.0,27.0,356.0
2023-05-30-13:44:13.305666,8.0,27.0,356.0
2023-05-30-13:44:13.306667,6.0,7.0,356.0
2023-05-30-13:44:13.307665,4.0,16.0,356.0
2023-05-30-13:44:13.308646,9.0,10.0,356.0
2023-05-30-13:44:13.309646,9.0,10.0,356.0
2023-05-30-13:44:13.310646,8.0,26.0,356.0
2023-05-30-13:44:13.311646,1.0,8.0,356.0
2023-05-30-13:44:13.312646,5.0,4.0,356.0
2023-05-30-13:44:13.313647,5.0,4.0,356.0
2023-05-30-13:44:13.314646,4.0,9.0,356.0
2023-05-30-13:44:13.315650,5.0,5.0,356.0
2023-05-30-13:44:13.316646,8.0,9.0,356.0
2023-05-30-13:44:13.317646,8.0,9.0,356.0
2023-05-30-13:44:13.318646,5.0,7.0,356.0
2023-05-30-13:44:13.319647,5.0,6.0,356.0
2023-05-30-13:44:13.320646,7.0,7.0,356.0
2023-05-30-13:44:13.321646,7.0,7.0,356.0
2023-05-30-13:44:13.322647,6.0,4.0,356.0
2023-05-30-13:44:13.323622,4.0,6.0,356.0
2023-05-30-13:44:13.324669,7.0,6.0,356.0
2023-05-30-13:44:13.325668,7.0,6.0,356.0
2023-05-30-13:44:13.326666,6.0,8.0,356.0
2023-05-30-13:44:13.328622,6.0,6.0,356.0
2023-05-30-13:44:13.328622,7.0,12.0,356.0
2023-05-30-13:44:13.329689,7.0,12.0,356.0
2023-05-30-13:44:13.330671,6.0,2.0,356.0
2023-05-30-13:44:13.331671,2.0,6.0,356.0
2023-05-30-13:44:13.332667,2.0,6.0,356.0
2023-05-30-13:44:13.333665,2.0,6.0,356.0
2023-05-30-13:44:13.334666,3.0,5.0,356.0
2023-05-30-13:44:13.335666,2.0,7.0,356.0
2023-05-30-13:44:13.336665,2.0,7.0,356.0
2023-05-30-13:44:13.337667,2.0,7.0,356.0
2023-05-30-13:44:13.338667,5.0,3.0,356.0
2023-05-30-13:44:13.339668,4.0,8.0,356.0
2023-05-30-13:44:13.340668,4.0,8.0,356.0
2023-05-30-13:44:13.341668,4.0,8.0,356.0
2023-05-30-13:44:13.342666,7.0,2.0,356.0
2023-05-30-13:44:13.343646,7.0,2.0,356.0
2023-05-30-13:44:13.344646,7.0,2.0,356.0
2023-05-30-13:44:13.345622,7.0,2.0,356.0
2023-05-30-13:44:13.346619,5.0,7.0,356.0
2023-05-30-13:44:13.347647,5.0,7.0,356.0
2023-05-30-13:44:13.348667,5.0,7.0,356.0
2023-05-30-13:44:13.349667,5.0,7.0,356.0
2023-05-30-13:44:13.350670,5.0,7.0,356.0
2023-05-30-13:44:13.351665,3.0,4.0,355.0
2023-05-30-13:44:13.352666,7.0,3.0,356.0
2023-05-30-13:44:13.353665,2.0,1.0,356.0
2023-05-30-13:44:13.354667,2.0,1.0,356.0
2023-05-30-13:44:13.355673,4.0,0.0,355.0
2023-05-30-13:44:13.356665,6.0,8.0,355.0
2023-05-30-13:44:13.357646,6.0,8.0,355.0
2023-05-30-13:44:13.358670,6.0,8.0,355.0
2023-05-30-13:44:13.360622,8.0,3.0,356.0
2023-05-30-13:44:13.360622,4.0,6.0,355.0
2023-05-30-13:44:13.361620,4.0,6.0,355.0
2023-05-30-13:44:13.362651,4.0,6.0,355.0
2023-05-30-13:44:13.363650,8.0,4.0,355.0
2023-05-30-13:44:13.364647,2.0,3.0,356.0
2023-05-30-13:44:13.365647,4.0,5.0,356.0
2023-05-30-13:44:13.366646,4.0,5.0,356.0
2023-05-30-13:44:13.367647,4.0,6.0,356.0
2023-05-30-13:44:13.368647,4.0,5.0,355.0
2023-05-30-13:44:13.369646,6.0,6.0,355.0
2023-05-30-13:44:13.370647,6.0,6.0,355.0
2023-05-30-13:44:13.371646,5.0,3.0,355.0
2023-05-30-13:44:13.372646,5.0,2.0,356.0
2023-05-30-13:44:13.373646,5.0,4.0,355.0
2023-05-30-13:44:13.374647,5.0,4.0,355.0
2023-05-30-13:44:13.375646,4.0,15.0,356.0
2023-05-30-13:44:13.376649,6.0,15.0,356.0
2023-05-30-13:44:13.377622,6.0,15.0,356.0
2023-05-30-13:44:13.378651,6.0,15.0,356.0
2023-05-30-13:44:13.379651,6.0,21.0,355.0
2023-05-30-13:44:13.380646,9.0,42.0,356.0
2023-05-30-13:44:13.381647,5.0,39.0,355.0
2023-05-30-13:44:13.382647,5.0,39.0,355.0
2023-05-30-13:44:13.383647,6.0,2.0,355.0
2023-05-30-13:44:13.384647,3.0,22.0,355.0
2023-05-30-13:44:13.385646,5.0,52.0,355.0
2023-05-30-13:44:13.386647,5.0,52.0,355.0
2023-05-30-13:44:13.387646,5.0,52.0,355.0
2023-05-30-13:44:13.388646,8.0,14.0,355.0
2023-05-30-13:44:13.389646,2.0,1.0,355.0
2023-05-30-13:44:13.390646,2.0,1.0,355.0
2023-05-30-13:44:13.391646,2.0,1.0,355.0
2023-05-30-13:44:13.392646,3.0,30.0,355.0
2023-05-30-13:44:13.393622,5.0,19.0,355.0
2023-05-30-13:44:13.394645,8.0,59.0,354.0
2023-05-30-13:44:13.396622,8.0,59.0,354.0
2023-05-30-13:44:13.396622,1.0,60.0,354.0
2023-05-30-13:44:13.397620,1.0,60.0,354.0
2023-05-30-13:44:13.398646,1.0,60.0,354.0
2023-05-30-13:44:13.399646,1.0,60.0,354.0
2023-05-30-13:44:13.400623,8.0,17.0,353.0
2023-05-30-13:44:13.401622,7.0,14.0,353.0
2023-05-30-13:44:13.402650,7.0,14.0,353.0
2023-05-30-13:44:13.403671,7.0,14.0,353.0
2023-05-30-13:44:13.404669,7.0,16.0,353.0
2023-05-30-13:44:13.405668,9.0,26.0,352.0
2023-05-30-13:44:13.406668,5.0,1.0,352.0
2023-05-30-13:44:13.407668,5.0,1.0,352.0
2023-05-30-13:44:13.408668,8.0,8.0,352.0
2023-05-30-13:44:13.409668,2.0,2.0,352.0
2023-05-30-13:44:13.410668,5.0,20.0,352.0
2023-05-30-13:44:13.411672,5.0,20.0,352.0
2023-05-30-13:44:13.412668,6.0,52.0,352.0
2023-05-30-13:44:13.413647,1.0,33.0,352.0
2023-05-30-13:44:13.414646,1.0,33.0,352.0
2023-05-30-13:44:13.415646,1.0,33.0,352.0
2023-05-30-13:44:13.416646,3.0,24.0,351.0
2023-05-30-13:44:13.417646,4.0,19.0,351.0
2023-05-30-13:44:13.418647,6.0,11.0,351.0
2023-05-30-13:44:13.419645,6.0,11.0,351.0
2023-05-30-13:44:13.420646,7.0,12.0,351.0
2023-05-30-13:44:13.421645,5.0,6.0,350.0
2023-05-30-13:44:13.422647,4.0,12.0,350.0
2023-05-30-13:44:13.423645,4.0,12.0,350.0
2023-05-30-13:44:13.424653,6.0,9.0,350.0
2023-05-30-13:44:13.425646,8.0,1.0,349.0
2023-05-30-13:44:13.426622,8.0,4.0,349.0
2023-05-30-13:44:13.427671,8.0,4.0,349.0
2023-05-30-13:44:13.429622,4.0,17.0,348.0
2023-05-30-13:44:13.429622,4.0,7.0,348.0
2023-05-30-13:44:13.430622,4.0,7.0,348.0
2023-05-30-13:44:13.431668,4.0,7.0,348.0
2023-05-30-13:44:13.432670,4.0,7.0,348.0
2023-05-30-13:44:13.433667,3.0,1.0,348.0
2023-05-30-13:44:13.434669,3.0,13.0,347.0
2023-05-30-13:44:13.435668,3.0,13.0,347.0
2023-05-30-13:44:13.436669,3.0,13.0,347.0
2023-05-30-13:44:13.437668,5.0,22.0,347.0
2023-05-30-13:44:13.438668,5.0,8.0,346.0
2023-05-30-13:44:13.439673,5.0,8.0,346.0
2023-05-30-13:44:13.440667,5.0,8.0,346.0
2023-05-30-13:44:13.441668,6.0,17.0,346.0
2023-05-30-13:44:13.442645,6.0,1.0,346.0
2023-05-30-13:44:13.443622,5.0,4.0,345.0
2023-05-30-13:44:13.444669,5.0,4.0,345.0
2023-05-30-13:44:13.445668,3.0,5.0,345.0
2023-05-30-13:44:13.446619,7.0,5.0,345.0
2023-05-30-13:44:13.447620,7.0,5.0,345.0
2023-05-30-13:44:13.448670,7.0,5.0,345.0
2023-05-30-13:44:13.449673,4.0,4.0,345.0
2023-05-30-13:44:13.450669,4.0,3.0,344.0
2023-05-30-13:44:13.451667,4.0,3.0,344.0
2023-05-30-13:44:13.452669,4.0,3.0,344.0
2023-05-30-13:44:13.453667,7.0,2.0,344.0
2023-05-30-13:44:13.454668,3.0,7.0,343.0
2023-05-30-13:44:13.455668,3.0,7.0,343.0
2023-05-30-13:44:13.456667,3.0,7.0,343.0
2023-05-30-13:44:13.457667,4.0,3.0,343.0
2023-05-30-13:44:13.458667,3.0,4.0,343.0
2023-05-30-13:44:13.459671,4.0,1.0,343.0
2023-05-30-13:44:13.460668,4.0,1.0,343.0
2023-05-30-13:44:13.461668,5.0,0.0,343.0
2023-05-30-13:44:13.462670,6.0,11.0,343.0
2023-05-30-13:44:13.463620,6.0,11.0,343.0
2023-05-30-13:44:13.464620,6.0,11.0,343.0
2023-05-30-13:44:13.465668,4.0,0.0,342.0
2023-05-30-13:44:13.467622,6.0,3.0,342.0
2023-05-30-13:44:13.467622,6.0,3.0,342.0
2023-05-30-13:44:13.468670,6.0,3.0,342.0
2023-05-30-13:44:13.469669,6.0,5.0,342.0
2023-05-30-13:44:13.470672,6.0,4.0,341.0
2023-05-30-13:44:13.471672,6.0,4.0,341.0
2023-05-30-13:44:13.472668,6.0,4.0,341.0
2023-05-30-13:44:13.473668,5.0,6.0,341.0
2023-05-30-13:44:13.474670,6.0,16.0,341.0
2023-05-30-13:44:13.475671,6.0,16.0,341.0
2023-05-30-13:44:13.476668,6.0,16.0,341.0
2023-05-30-13:44:13.477667,6.0,16.0,341.0
2023-05-30-13:44:13.478670,5.0,11.0,341.0
2023-05-30-13:44:13.479667,8.0,8.0,341.0
2023-05-30-13:44:13.480670,8.0,8.0,341.0
2023-05-30-13:44:13.481667,8.0,8.0,341.0
2023-05-30-13:44:13.482669,3.0,7.0,340.0
2023-05-30-13:44:13.483668,3.0,7.0,340.0
2023-05-30-13:44:13.484669,3.0,7.0,340.0
2023-05-30-13:44:13.485668,3.0,7.0,340.0
2023-05-30-13:44:13.486668,3.0,18.0,340.0
2023-05-30-13:44:13.487667,6.0,12.0,340.0
2023-05-30-13:44:13.488668,6.0,12.0,340.0
2023-05-30-13:44:13.489677,6.0,12.0,340.0
2023-05-30-13:44:13.490667,5.0,6.0,340.0
2023-05-30-13:44:13.491671,6.0,18.0,340.0
2023-05-30-13:44:13.492668,6.0,18.0,340.0
2023-05-30-13:44:13.493667,6.0,18.0,340.0
2023-05-30-13:44:13.494670,7.0,30.0,340.0
2023-05-30-13:44:13.495667,1.0,75.0,340.0
2023-05-30-13:44:13.496618,1.0,75.0,340.0
2023-05-30-13:44:13.497669,1.0,75.0,340.0
2023-05-30-13:44:13.499647,1.0,26.0,339.0
2023-05-30-13:44:13.499647,2.0,60.0,339.0
2023-05-30-13:44:13.500619,2.0,60.0,339.0
2023-05-30-13:44:13.501667,2.0,60.0,339.0
2023-05-30-13:44:13.502622,2.0,18.0,339.0
2023-05-30-13:44:13.503667,5.0,20.0,338.0
2023-05-30-13:44:13.504667,5.0,20.0,338.0
2023-05-30-13:44:13.505645,5.0,20.0,338.0
2023-05-30-13:44:13.506622,4.0,5.0,338.0
2023-05-30-13:44:13.507648,6.0,32.0,338.0
2023-05-30-13:44:13.508645,6.0,32.0,338.0
2023-05-30-13:44:13.509641,6.0,32.0,338.0
2023-05-30-13:44:13.510622,9.0,17.0,337.0
2023-05-30-13:44:13.511668,9.0,19.0,337.0
2023-05-30-13:44:13.512670,9.0,19.0,337.0
2023-05-30-13:44:13.513668,9.0,19.0,337.0
2023-05-30-13:44:13.514668,9.0,19.0,337.0
2023-05-30-13:44:13.515668,1.0,8.0,336.0
2023-05-30-13:44:13.516647,2.0,3.0,336.0
2023-05-30-13:44:13.517649,2.0,3.0,336.0
2023-05-30-13:44:13.518646,2.0,3.0,336.0
2023-05-30-13:44:13.519645,6.0,17.0,336.0
2023-05-30-13:44:13.520652,1.0,20.0,336.0
2023-05-30-13:44:13.521644,1.0,20.0,336.0
2023-05-30-13:44:13.522645,1.0,20.0,336.0
2023-05-30-13:44:13.523648,6.0,24.0,336.0
2023-05-30-13:44:13.524644,7.0,7.0,335.0
2023-05-30-13:44:13.525647,7.0,7.0,335.0
2023-05-30-13:44:13.526645,7.0,7.0,335.0
2023-05-30-13:44:13.527646,6.0,7.0,335.0
2023-05-30-13:44:13.528645,7.0,2.0,335.0
2023-05-30-13:44:13.529645,5.0,5.0,334.0
2023-05-30-13:44:13.530647,5.0,5.0,334.0
2023-05-30-13:44:13.531646,5.0,4.0,334.0
2023-05-30-13:44:13.532646,5.0,15.0,334.0
2023-05-30-13:44:13.533645,5.0,13.0,334.0
2023-05-30-13:44:13.534646,5.0,13.0,334.0
2023-05-30-13:44:13.535645,3.0,4.0,333.0
2023-05-30-13:44:13.537622,4.0,14.0,333.0
2023-05-30-13:44:13.537622,4.0,14.0,333.0
2023-05-30-13:44:13.538669,4.0,14.0,333.0
2023-05-30-13:44:13.539671,5.0,15.0,333.0
2023-05-30-13:44:13.540622,5.0,9.0,332.0
2023-05-30-13:44:13.541668,5.0,9.0,332.0
2023-05-30-13:44:13.542670,5.0,9.0,332.0
2023-05-30-13:44:13.543667,7.0,5.0,332.0
2023-05-30-13:44:13.544670,6.0,3.0,331.0
2023-05-30-13:44:13.545668,6.0,3.0,331.0
2023-05-30-13:44:13.546619,6.0,3.0,331.0
2023-05-30-13:44:13.547657,5.0,2.0,331.0
2023-05-30-13:44:13.548669,5.0,14.0,331.0
2023-05-30-13:44:13.549668,8.0,15.0,331.0
2023-05-30-13:44:13.550663,8.0,15.0,331.0
2023-05-30-13:44:13.551667,6.0,15.0,330.0
2023-05-30-13:44:13.552648,5.0,1.0,330.0
2023-05-30-13:44:13.553667,8.0,43.0,330.0
2023-05-30-13:44:13.554668,8.0,43.0,330.0
2023-05-30-13:44:13.555673,6.0,43.0,330.0
2023-05-30-13:44:13.556667,1.0,8.0,329.0
2023-05-30-13:44:13.557668,1.0,8.0,329.0
2023-05-30-13:44:13.558644,1.0,8.0,329.0
2023-05-30-13:44:13.559668,1.0,8.0,329.0
2023-05-30-13:44:13.560622,4.0,27.0,328.0
2023-05-30-13:44:13.561668,4.0,27.0,328.0
2023-05-30-13:44:13.562671,4.0,27.0,328.0
2023-05-30-13:44:13.563618,4.0,27.0,328.0
2023-05-30-13:44:13.564669,5.0,5.0,328.0
2023-05-30-13:44:13.565668,7.0,26.0,328.0
2023-05-30-13:44:13.566668,6.0,12.0,328.0
2023-05-30-13:44:13.567672,6.0,12.0,328.0
2023-05-30-13:44:13.568645,5.0,1.0,328.0
2023-05-30-13:44:13.569644,1.0,8.0,327.0
2023-05-30-13:44:13.570645,1.0,8.0,327.0
2023-05-30-13:44:13.571648,1.0,8.0,327.0
2023-05-30-13:44:13.573621,4.0,8.0,327.0
2023-05-30-13:44:13.573621,7.0,2.0,327.0
2023-05-30-13:44:13.574669,7.0,2.0,327.0
2023-05-30-13:44:13.575646,7.0,2.0,327.0
2023-05-30-13:44:13.576670,4.0,2.0,327.0
2023-05-30-13:44:13.577668,6.0,7.0,327.0
2023-05-30-13:44:13.578668,6.0,7.0,327.0
2023-05-30-13:44:13.579669,6.0,7.0,327.0
2023-05-30-13:44:13.580668,6.0,5.0,327.0
2023-05-30-13:44:13.581668,4.0,0.0,327.0
2023-05-30-13:44:13.582668,4.0,0.0,327.0
2023-05-30-13:44:13.583667,4.0,0.0,327.0
2023-05-30-13:44:13.584668,4.0,5.0,327.0
2023-05-30-13:44:13.585667,7.0,6.0,327.0
2023-05-30-13:44:13.586667,4.0,2.0,327.0
2023-05-30-13:44:13.587671,4.0,2.0,327.0
2023-05-30-13:44:13.588668,8.0,4.0,327.0
2023-05-30-13:44:13.589647,5.0,4.0,327.0
2023-05-30-13:44:13.590646,5.0,4.0,327.0
2023-05-30-13:44:13.591649,5.0,4.0,327.0
2023-05-30-13:44:13.592645,5.0,4.0,327.0
2023-05-30-13:44:13.593644,6.0,1.0,327.0
2023-05-30-13:44:13.594645,3.0,5.0,327.0
2023-05-30-13:44:13.595649,3.0,5.0,327.0
2023-05-30-13:44:13.596619,4.0,5.0,327.0
2023-05-30-13:44:13.597649,5.0,4.0,327.0
2023-05-30-13:44:13.598646,7.0,2.0,327.0
2023-05-30-13:44:13.599645,7.0,2.0,327.0
2023-05-30-13:44:13.600645,7.0,2.0,327.0
2023-05-30-13:44:13.601645,4.0,5.0,327.0
2023-05-30-13:44:13.602645,7.0,14.0,327.0
2023-05-30-13:44:13.603649,7.0,14.0,327.0
2023-05-30-13:44:13.604645,7.0,14.0,327.0
2023-05-30-13:44:13.605647,9.0,13.0,327.0
2023-05-30-13:44:13.607622,5.0,9.0,327.0
2023-05-30-13:44:13.607622,6.0,14.0,327.0
2023-05-30-13:44:13.608670,2.0,12.0,327.0
2023-05-30-13:44:13.609669,1.0,11.0,327.0
2023-05-30-13:44:13.610672,1.0,11.0,327.0
2023-05-30-13:44:13.611668,1.0,11.0,327.0
2023-05-30-13:44:13.612669,1.0,11.0,327.0
2023-05-30-13:44:13.613620,1.0,47.0,327.0
2023-05-30-13:44:13.614668,7.0,4.0,327.0
2023-05-30-13:44:13.615667,7.0,4.0,327.0
2023-05-30-13:44:13.616667,7.0,4.0,327.0
2023-05-30-13:44:13.617668,6.0,24.0,327.0
2023-05-30-13:44:13.618667,7.0,5.0,327.0
2023-05-30-13:44:13.619671,7.0,5.0,327.0
2023-05-30-13:44:13.620668,7.0,5.0,327.0
2023-05-30-13:44:13.621646,4.0,14.0,327.0
2023-05-30-13:44:13.622620,5.0,75.0,328.0
2023-05-30-13:44:13.623667,7.0,47.0,327.0
2023-05-30-13:44:13.624674,7.0,47.0,327.0
2023-05-30-13:44:13.625674,9.0,6.0,327.0
2023-05-30-13:44:13.626668,7.0,20.0,327.0
2023-05-30-13:44:13.627667,2.0,0.0,327.0
2023-05-30-13:44:13.628669,2.0,0.0,327.0
2023-05-30-13:44:13.629669,0.0,35.0,327.0
2023-05-30-13:44:13.630669,4.0,47.0,327.0
2023-05-30-13:44:13.631672,6.0,14.0,327.0
2023-05-30-13:44:13.632667,6.0,14.0,327.0
2023-05-30-13:44:13.633668,7.0,10.0,327.0
2023-05-30-13:44:13.634668,8.0,14.0,327.0
2023-05-30-13:44:13.635671,5.0,27.0,327.0
2023-05-30-13:44:13.636652,5.0,27.0,327.0
2023-05-30-13:44:13.637646,1.0,13.0,327.0
2023-05-30-13:44:13.638669,7.0,30.0,327.0
2023-05-30-13:44:13.639668,5.0,43.0,327.0
2023-05-30-13:44:13.640669,5.0,43.0,327.0
2023-05-30-13:44:13.641668,4.0,23.0,327.0
2023-05-30-13:44:13.643622,5.0,38.0,327.0
2023-05-30-13:44:13.643622,6.0,23.0,327.0
2023-05-30-13:44:13.644669,6.0,2.0,327.0
2023-05-30-13:44:13.645667,6.0,2.0,327.0
2023-05-30-13:44:13.646622,2.0,56.0,327.0
2023-05-30-13:44:13.647622,4.0,23.0,327.0
2023-05-30-13:44:13.648621,4.0,23.0,327.0
2023-05-30-13:44:13.649668,4.0,23.0,327.0
2023-05-30-13:44:13.650668,2.0,1.0,327.0
2023-05-30-13:44:13.651671,7.0,9.0,327.0
2023-05-30-13:44:13.652668,7.0,16.0,327.0
2023-05-30-13:44:13.653668,7.0,16.0,327.0
2023-05-30-13:44:13.654672,6.0,17.0,327.0
2023-05-30-13:44:13.655667,4.0,14.0,327.0
2023-05-30-13:44:13.656645,2.0,26.0,327.0
2023-05-30-13:44:13.657667,2.0,26.0,327.0
2023-05-30-13:44:13.658646,8.0,11.0,327.0
2023-05-30-13:44:13.659646,7.0,6.0,327.0
2023-05-30-13:44:13.660647,7.0,6.0,327.0
2023-05-30-13:44:13.661645,7.0,6.0,327.0
2023-05-30-13:44:13.662646,6.0,13.0,327.0
2023-05-30-13:44:13.663618,1.0,7.0,327.0
2023-05-30-13:44:13.664645,4.0,12.0,327.0
2023-05-30-13:44:13.665644,4.0,12.0,327.0
2023-05-30-13:44:13.666649,6.0,19.0,327.0
2023-05-30-13:44:13.667648,6.0,13.0,327.0
2023-05-30-13:44:13.668644,3.0,6.0,327.0
2023-05-30-13:44:13.669646,3.0,6.0,327.0
2023-05-30-13:44:13.670646,4.0,1.0,327.0
2023-05-30-13:44:13.671646,6.0,14.0,327.0
2023-05-30-13:44:13.672645,6.0,9.0,327.0
2023-05-30-13:44:13.673645,6.0,9.0,327.0
2023-05-30-13:44:13.675622,6.0,7.0,327.0
2023-05-30-13:44:13.675622,7.0,38.0,327.0
2023-05-30-13:44:13.676620,7.0,38.0,327.0
2023-05-30-13:44:13.677646,7.0,38.0,327.0
2023-05-30-13:44:13.678668,6.0,34.0,327.0
2023-05-30-13:44:13.679672,5.0,4.0,327.0
2023-05-30-13:44:13.680668,7.0,79.0,327.0
2023-05-30-13:44:13.681668,7.0,79.0,327.0
2023-05-30-13:44:13.682668,8.0,5.0,327.0
2023-05-30-13:44:13.683671,0.0,9.0,327.0
2023-05-30-13:44:13.684673,0.0,9.0,327.0
2023-05-30-13:44:13.685667,0.0,9.0,327.0
2023-05-30-13:44:13.686669,0.0,9.0,327.0
2023-05-30-13:44:13.687668,2.0,14.0,327.0
2023-05-30-13:44:13.688669,3.0,36.0,328.0
2023-05-30-13:44:13.689668,3.0,36.0,328.0
2023-05-30-13:44:13.690668,3.0,36.0,328.0
2023-05-30-13:44:13.691668,8.0,49.0,327.0
2023-05-30-13:44:13.692668,5.0,28.0,327.0
2023-05-30-13:44:13.693653,5.0,28.0,327.0
2023-05-30-13:44:13.694647,5.0,28.0,327.0
2023-05-30-13:44:13.695622,1.0,2.0,327.0
2023-05-30-13:44:13.696649,2.0,43.0,328.0
2023-05-30-13:44:13.697669,2.0,43.0,328.0
2023-05-30-13:44:13.698668,2.0,43.0,328.0
2023-05-30-13:44:13.699671,8.0,46.0,327.0
2023-05-30-13:44:13.700668,9.0,51.0,327.0
2023-05-30-13:44:13.701668,9.0,51.0,327.0
2023-05-30-13:44:13.702669,9.0,51.0,327.0
2023-05-30-13:44:13.703646,3.0,29.0,327.0
2023-05-30-13:44:13.704669,2.0,5.0,327.0
2023-05-30-13:44:13.705667,5.0,10.0,327.0
2023-05-30-13:44:13.706668,5.0,10.0,327.0
2023-05-30-13:44:13.707668,5.0,17.0,327.0
2023-05-30-13:44:13.708669,3.0,1.0,327.0
2023-05-30-13:44:13.710646,3.0,1.0,327.0
2023-05-30-13:44:13.710646,4.0,5.0,327.0
2023-05-30-13:44:13.711646,6.0,40.0,327.0
2023-05-30-13:44:13.712648,5.0,15.0,327.0
2023-05-30-13:44:13.713620,5.0,15.0,327.0
2023-05-30-13:44:13.714645,5.0,15.0,327.0
2023-05-30-13:44:13.715647,6.0,14.0,327.0
2023-05-30-13:44:13.716645,3.0,22.0,327.0
2023-05-30-13:44:13.717646,5.0,9.0,327.0
2023-05-30-13:44:13.718645,5.0,9.0,327.0
2023-05-30-13:44:13.719635,7.0,19.0,327.0
2023-05-30-13:44:13.720622,3.0,28.0,328.0
2023-05-30-13:44:13.721667,3.0,28.0,328.0
2023-05-30-13:44:13.722671,3.0,28.0,328.0
2023-05-30-13:44:13.723668,2.0,35.0,327.0
2023-05-30-13:44:13.724668,3.0,5.0,328.0
2023-05-30-13:44:13.725668,3.0,5.0,328.0
2023-05-30-13:44:13.726673,3.0,5.0,328.0
2023-05-30-13:44:13.727672,3.0,5.0,328.0
2023-05-30-13:44:13.728668,2.0,12.0,327.0
2023-05-30-13:44:13.729672,4.0,15.0,327.0
2023-05-30-13:44:13.730620,4.0,15.0,327.0
2023-05-30-13:44:13.731670,4.0,15.0,327.0
2023-05-30-13:44:13.732668,8.0,9.0,327.0
2023-05-30-13:44:13.733668,7.0,24.0,328.0
2023-05-30-13:44:13.734669,7.0,24.0,328.0
2023-05-30-13:44:13.735668,7.0,24.0,328.0
2023-05-30-13:44:13.736669,3.0,34.0,327.0
2023-05-30-13:44:13.737668,5.0,49.0,327.0
2023-05-30-13:44:13.738668,4.0,44.0,327.0
2023-05-30-13:44:13.739667,4.0,44.0,327.0
2023-05-30-13:44:13.740668,3.0,1.0,327.0
2023-05-30-13:44:13.741668,7.0,38.0,327.0
2023-05-30-13:44:13.742668,7.0,38.0,327.0
2023-05-30-13:44:13.743672,7.0,38.0,327.0
2023-05-30-13:44:13.745622,9.0,25.0,328.0
2023-05-30-13:44:13.745622,7.0,5.0,327.0
2023-05-30-13:44:13.746620,7.0,5.0,327.0
2023-05-30-13:44:13.747671,7.0,5.0,327.0
2023-05-30-13:44:13.748668,2.0,13.0,327.0
2023-05-30-13:44:13.749669,0.0,31.0,328.0
2023-05-30-13:44:13.750669,0.0,31.0,328.0
2023-05-30-13:44:13.751646,0.0,31.0,328.0
2023-05-30-13:44:13.752622,2.0,0.0,327.0
2023-05-30-13:44:13.753667,3.0,0.0,327.0
2023-05-30-13:44:13.754668,3.0,0.0,327.0
2023-05-30-13:44:13.755668,3.0,0.0,327.0
2023-05-30-13:44:13.756668,2.0,1.0,327.0
2023-05-30-13:44:13.757668,4.0,15.0,327.0
2023-05-30-13:44:13.758667,4.0,15.0,327.0
2023-05-30-13:44:13.759671,4.0,15.0,327.0
2023-05-30-13:44:13.760668,6.0,23.0,327.0
2023-05-30-13:44:13.761672,9.0,42.0,327.0
2023-05-30-13:44:13.762674,9.0,42.0,327.0
2023-05-30-13:44:13.763619,9.0,42.0,327.0
2023-05-30-13:44:13.764645,9.0,62.0,327.0
2023-05-30-13:44:13.765668,3.0,25.0,327.0
2023-05-30-13:44:13.766671,3.0,25.0,327.0
2023-05-30-13:44:13.767667,3.0,25.0,327.0
2023-05-30-13:44:13.768622,4.0,10.0,327.0
2023-05-30-13:44:13.769673,5.0,3.0,327.0
2023-05-30-13:44:13.770668,5.0,3.0,327.0
2023-05-30-13:44:13.771669,5.0,3.0,327.0
2023-05-30-13:44:13.772668,5.0,3.0,327.0
2023-05-30-13:44:13.773670,5.0,12.0,327.0
2023-05-30-13:44:13.774667,4.0,16.0,327.0
2023-05-30-13:44:13.775671,4.0,16.0,327.0
2023-05-30-13:44:13.776620,4.0,16.0,327.0
2023-05-30-13:44:13.777622,9.0,11.0,327.0
2023-05-30-13:44:13.778630,4.0,5.0,327.0
2023-05-30-13:44:13.779647,4.0,5.0,327.0
2023-05-30-13:44:13.782622,4.0,5.0,327.0
2023-05-30-13:44:13.782622,2.0,12.0,327.0
2023-05-30-13:44:13.783647,4.0,11.0,327.0
2023-05-30-13:44:13.784647,9.0,5.0,327.0
2023-05-30-13:44:13.785646,8.0,12.0,327.0
2023-05-30-13:44:13.786647,3.0,3.0,327.0
2023-05-30-13:44:13.787646,3.0,3.0,327.0
2023-05-30-13:44:13.788646,3.0,3.0,327.0
2023-05-30-13:44:13.789646,4.0,8.0,327.0
2023-05-30-13:44:13.790623,4.0,0.0,327.0
2023-05-30-13:44:13.791646,4.0,0.0,327.0
2023-05-30-13:44:13.792648,4.0,0.0,327.0
2023-05-30-13:44:13.793645,3.0,14.0,327.0
2023-05-30-13:44:13.794644,3.0,14.0,327.0
2023-05-30-13:44:13.795668,7.0,9.0,327.0
2023-05-30-13:44:13.796667,7.0,9.0,327.0
2023-05-30-13:44:13.797621,7.0,19.0,327.0
2023-05-30-13:44:13.798622,3.0,8.0,327.0
2023-05-30-13:44:13.799650,3.0,8.0,327.0
2023-05-30-13:44:13.800622,3.0,8.0,327.0
2023-05-30-13:44:13.801622,5.0,34.0,327.0
2023-05-30-13:44:13.802646,9.0,12.0,327.0
2023-05-30-13:44:13.803646,3.0,11.0,327.0
2023-05-30-13:44:13.804647,3.0,11.0,327.0
2023-05-30-13:44:13.805646,4.0,12.0,327.0
2023-05-30-13:44:13.806656,2.0,97.0,327.0
2023-05-30-13:44:13.807646,2.0,97.0,327.0
2023-05-30-13:44:13.808649,2.0,97.0,327.0
2023-05-30-13:44:13.809622,5.0,20.0,327.0
2023-05-30-13:44:13.810666,7.0,16.0,327.0
2023-05-30-13:44:13.812622,7.0,16.0,327.0
2023-05-30-13:44:13.812622,7.0,16.0,327.0
2023-05-30-13:44:13.813622,2.0,33.0,327.0
2023-05-30-13:44:13.814624,2.0,33.0,327.0
2023-05-30-13:44:13.815654,2.0,33.0,327.0
2023-05-30-13:44:13.816648,2.0,33.0,327.0
2023-05-30-13:44:13.817653,2.0,33.0,327.0
2023-05-30-13:44:13.818647,6.0,15.0,327.0
2023-05-30-13:44:13.819646,5.0,15.0,327.0
2023-05-30-13:44:13.820651,4.0,21.0,327.0
2023-05-30-13:44:13.821647,4.0,21.0,327.0
2023-05-30-13:44:13.822626,3.0,18.0,327.0
2023-05-30-13:44:13.823646,2.0,21.0,327.0
2023-05-30-13:44:13.824648,8.0,10.0,327.0
2023-05-30-13:44:13.825646,8.0,10.0,327.0
2023-05-30-13:44:13.826646,5.0,2.0,327.0
2023-05-30-13:44:13.827649,6.0,6.0,327.0
2023-05-30-13:44:13.828646,7.0,7.0,327.0
2023-05-30-13:44:13.829646,7.0,7.0,327.0
2023-05-30-13:44:13.830620,6.0,10.0,327.0
2023-05-30-13:44:13.831624,5.0,25.0,327.0
2023-05-30-13:44:13.832647,5.0,25.0,327.0
2023-05-30-13:44:13.833647,5.0,25.0,327.0
2023-05-30-13:44:13.834646,6.0,41.0,327.0
2023-05-30-13:44:13.835646,5.0,32.0,327.0
2023-05-30-13:44:13.836646,9.0,40.0,327.0
2023-05-30-13:44:13.837646,9.0,40.0,327.0
2023-05-30-13:44:13.838646,8.0,52.0,327.0
2023-05-30-13:44:13.839646,2.0,24.0,328.0
2023-05-30-13:44:13.840648,1.0,28.0,327.0
2023-05-30-13:44:13.841646,1.0,28.0,327.0
2023-05-30-13:44:13.842646,2.0,9.0,327.0
2023-05-30-13:44:13.843648,1.0,11.0,327.0
2023-05-30-13:44:13.844648,5.0,5.0,327.0
2023-05-30-13:44:13.845649,5.0,5.0,327.0
2023-05-30-13:44:13.847620,9.0,38.0,327.0
2023-05-30-13:44:13.848619,4.0,34.0,327.0
2023-05-30-13:44:13.848619,4.0,34.0,327.0
2023-05-30-13:44:13.849672,4.0,34.0,327.0
2023-05-30-13:44:13.850666,4.0,39.0,327.0
2023-05-30-13:44:13.851666,7.0,3.0,327.0
2023-05-30-13:44:13.852666,7.0,3.0,327.0
2023-05-30-13:44:13.853666,7.0,3.0,327.0
2023-05-30-13:44:13.854665,7.0,13.0,327.0
2023-05-30-13:44:13.855666,6.0,5.0,327.0
2023-05-30-13:44:13.856665,3.0,1.0,327.0
2023-05-30-13:44:13.857665,3.0,1.0,327.0
2023-05-30-13:44:13.858666,3.0,1.0,327.0
2023-05-30-13:44:13.859668,6.0,1.0,327.0
2023-05-30-13:44:13.860646,7.0,1.0,327.0
2023-05-30-13:44:13.861646,7.0,1.0,327.0
2023-05-30-13:44:13.862670,7.0,1.0,327.0
2023-05-30-13:44:13.863621,6.0,4.0,328.0
2023-05-30-13:44:13.864649,6.0,1.0,327.0
2023-05-30-13:44:13.865646,6.0,1.0,327.0
2023-05-30-13:44:13.866647,6.0,1.0,327.0
2023-05-30-13:44:13.867652,5.0,2.0,327.0
2023-05-30-13:44:13.868646,7.0,6.0,327.0
2023-05-30-13:44:13.869646,7.0,6.0,327.0
2023-05-30-13:44:13.870646,7.0,6.0,327.0
2023-05-30-13:44:13.871646,5.0,2.0,328.0
2023-05-30-13:44:13.872648,6.0,29.0,327.0
2023-05-30-13:44:13.873646,2.0,43.0,327.0
2023-05-30-13:44:13.874646,2.0,43.0,327.0
2023-05-30-13:44:13.875648,8.0,33.0,327.0
2023-05-30-13:44:13.876646,6.0,8.0,327.0
2023-05-30-13:44:13.877646,4.0,7.0,328.0
2023-05-30-13:44:13.878646,4.0,7.0,328.0
2023-05-30-13:44:13.879646,4.0,28.0,327.0
2023-05-30-13:44:13.881622,4.0,30.0,327.0
2023-05-30-13:44:13.881622,4.0,30.0,327.0
2023-05-30-13:44:13.882666,4.0,30.0,327.0
2023-05-30-13:44:13.883666,4.0,11.0,327.0
2023-05-30-13:44:13.884666,6.0,18.0,327.0
2023-05-30-13:44:13.885646,6.0,18.0,327.0
2023-05-30-13:44:13.886666,6.0,18.0,327.0
2023-05-30-13:44:13.887671,2.0,5.0,327.0
2023-05-30-13:44:13.888666,4.0,13.0,327.0
2023-05-30-13:44:13.889666,4.0,22.0,327.0
2023-05-30-13:44:13.890645,4.0,22.0,327.0
2023-05-30-13:44:13.891668,4.0,12.0,327.0
2023-05-30-13:44:13.892666,4.0,9.0,327.0
2023-05-30-13:44:13.893666,2.0,8.0,327.0
2023-05-30-13:44:13.894669,2.0,8.0,327.0
2023-05-30-13:44:13.895666,3.0,1.0,327.0
2023-05-30-13:44:13.896665,3.0,2.0,327.0
2023-05-30-13:44:13.897667,4.0,2.0,327.0
2023-05-30-13:44:13.898666,4.0,2.0,327.0
2023-05-30-13:44:13.899648,6.0,12.0,327.0
2023-05-30-13:44:13.900646,5.0,14.0,327.0
2023-05-30-13:44:13.901646,6.0,12.0,327.0
2023-05-30-13:44:13.902647,6.0,12.0,327.0
2023-05-30-13:44:13.903648,6.0,12.0,327.0
2023-05-30-13:44:13.904647,7.0,14.0,328.0
2023-05-30-13:44:13.905649,9.0,8.0,327.0
2023-05-30-13:44:13.906646,9.0,1.0,327.0
2023-05-30-13:44:13.907648,9.0,1.0,327.0
2023-05-30-13:44:13.908645,9.0,9.0,327.0
2023-05-30-13:44:13.909646,2.0,6.0,327.0
2023-05-30-13:44:13.910646,2.0,8.0,327.0
2023-05-30-13:44:13.911650,2.0,8.0,327.0
2023-05-30-13:44:13.912646,5.0,5.0,327.0
2023-05-30-13:44:13.913619,7.0,18.0,327.0
2023-05-30-13:44:13.914647,10.0,8.0,327.0
2023-05-30-13:44:13.915646,10.0,8.0,327.0
2023-05-30-13:44:13.917646,8.0,17.0,327.0
2023-05-30-13:44:13.917646,1.0,42.0,327.0
2023-05-30-13:44:13.918665,1.0,42.0,327.0
2023-05-30-13:44:13.919666,1.0,42.0,327.0
2023-05-30-13:44:13.920665,3.0,21.0,327.0
2023-05-30-13:44:13.921671,6.0,17.0,327.0
2023-05-30-13:44:13.922665,6.0,17.0,327.0
2023-05-30-13:44:13.923667,6.0,17.0,327.0
2023-05-30-13:44:13.924669,2.0,45.0,327.0
2023-05-30-13:44:13.925666,5.0,5.0,327.0
2023-05-30-13:44:13.926668,5.0,5.0,327.0
2023-05-30-13:44:13.927666,5.0,5.0,327.0
2023-05-30-13:44:13.928669,8.0,8.0,327.0
2023-05-30-13:44:13.929666,4.0,5.0,327.0
2023-05-30-13:44:13.930666,4.0,5.0,327.0
2023-05-30-13:44:13.931665,4.0,5.0,327.0
2023-05-30-13:44:13.932665,6.0,11.0,327.0
2023-05-30-13:44:13.933622,8.0,12.0,327.0
2023-05-30-13:44:13.934651,4.0,5.0,327.0
2023-05-30-13:44:13.935673,4.0,5.0,327.0
2023-05-30-13:44:13.936622,3.0,9.0,327.0
2023-05-30-13:44:13.937643,5.0,13.0,327.0
2023-05-30-13:44:13.938644,5.0,13.0,327.0
2023-05-30-13:44:13.939646,5.0,13.0,327.0
2023-05-30-13:44:13.940644,5.0,13.0,327.0
2023-05-30-13:44:13.941647,4.0,61.0,327.0
2023-05-30-13:44:13.942644,6.0,2.0,327.0
2023-05-30-13:44:13.943647,6.0,2.0,327.0
2023-05-30-13:44:13.944644,6.0,2.0,327.0
2023-05-30-13:44:13.945644,7.0,21.0,327.0
2023-05-30-13:44:13.946645,8.0,53.0,327.0
2023-05-30-13:44:13.947644,1.0,8.0,327.0
2023-05-30-13:44:13.948644,1.0,8.0,327.0
2023-05-30-13:44:13.949645,3.0,4.0,327.0
2023-05-30-13:44:13.950647,9.0,20.0,327.0
2023-05-30-13:44:13.952622,9.0,20.0,327.0
2023-05-30-13:44:13.952622,2.0,25.0,327.0
2023-05-30-13:44:13.953644,8.0,1.0,327.0
2023-05-30-13:44:13.954645,8.0,1.0,327.0
2023-05-30-13:44:13.955647,8.0,1.0,327.0
2023-05-30-13:44:13.956644,8.0,1.0,327.0
2023-05-30-13:44:13.957646,10.0,8.0,327.0
2023-05-30-13:44:13.958644,6.0,15.0,327.0
2023-05-30-13:44:13.959646,3.0,20.0,327.0
2023-05-30-13:44:13.960645,3.0,20.0,327.0
2023-05-30-13:44:13.961644,8.0,10.0,327.0
2023-05-30-13:44:13.962644,6.0,3.0,327.0
2023-05-30-13:44:13.963619,6.0,10.0,327.0
2023-05-30-13:44:13.964620,6.0,10.0,327.0
2023-05-30-13:44:13.965622,3.0,13.0,327.0
2023-05-30-13:44:13.966647,5.0,16.0,327.0
2023-05-30-13:44:13.967645,6.0,20.0,327.0
2023-05-30-13:44:13.968647,6.0,20.0,327.0
2023-05-30-13:44:13.969644,5.0,9.0,327.0
2023-05-30-13:44:13.970644,6.0,7.0,327.0
2023-05-30-13:44:13.971649,1.0,2.0,327.0
2023-05-30-13:44:13.972644,1.0,2.0,327.0
2023-05-30-13:44:13.973646,6.0,2.0,327.0
2023-05-30-13:44:13.974645,3.0,21.0,327.0
2023-05-30-13:44:13.975646,7.0,19.0,327.0
2023-05-30-13:44:13.976645,7.0,19.0,327.0
2023-05-30-13:44:13.977644,5.0,25.0,327.0
2023-05-30-13:44:13.978622,3.0,1.0,327.0
2023-05-30-13:44:13.979644,3.0,1.0,327.0
2023-05-30-13:44:13.980620,3.0,1.0,327.0
2023-05-30-13:44:13.981645,8.0,47.0,327.0
2023-05-30-13:44:13.982647,8.0,47.0,327.0
2023-05-30-13:44:13.983646,8.0,47.0,327.0
2023-05-30-13:44:13.984647,8.0,47.0,327.0
2023-05-30-13:44:13.985647,6.0,18.0,327.0
2023-05-30-13:44:13.986646,2.0,6.0,327.0
2023-05-30-13:44:13.988646,2.0,6.0,327.0
2023-05-30-13:44:13.988646,2.0,6.0,327.0
2023-05-30-13:44:13.989667,1.0,19.0,327.0
2023-05-30-13:44:13.990668,1.0,6.0,327.0
2023-05-30-13:44:13.991674,5.0,5.0,327.0
2023-05-30-13:44:13.992668,5.0,5.0,327.0
2023-05-30-13:44:13.993665,5.0,5.0,327.0
2023-05-30-13:44:13.994646,3.0,11.0,327.0
2023-05-30-13:44:13.995667,5.0,4.0,327.0
2023-05-30-13:44:13.996645,7.0,6.0,327.0
2023-05-30-13:44:13.997620,7.0,6.0,327.0
2023-05-30-13:44:13.998646,6.0,1.0,327.0
2023-05-30-13:44:13.999646,7.0,30.0,327.0
2023-05-30-13:44:14.000647,8.0,10.0,327.0
2023-05-30-13:44:14.001645,8.0,10.0,327.0
2023-05-30-13:44:14.002646,6.0,7.0,327.0
2023-05-30-13:44:14.003648,7.0,11.0,327.0
2023-05-30-13:44:14.004646,4.0,4.0,327.0
2023-05-30-13:44:14.005646,4.0,4.0,327.0
2023-05-30-13:44:14.006645,3.0,2.0,327.0
2023-05-30-13:44:14.007647,5.0,6.0,327.0
2023-05-30-13:44:14.008644,5.0,6.0,327.0
2023-05-30-13:44:14.009650,5.0,6.0,327.0
2023-05-30-13:44:14.010645,5.0,16.0,327.0
2023-05-30-13:44:14.011645,8.0,8.0,327.0
2023-05-30-13:44:14.012644,8.0,8.0,327.0
2023-05-30-13:44:14.013619,8.0,8.0,327.0
2023-05-30-13:44:14.014647,7.0,38.0,327.0
2023-05-30-13:44:14.015649,13.0,33.0,327.0
2023-05-30-13:44:14.016647,6.0,18.0,327.0
2023-05-30-13:44:14.017644,6.0,18.0,327.0
2023-05-30-13:44:14.018645,2.0,42.0,327.0
2023-05-30-13:44:14.020622,2.0,15.0,327.0
2023-05-30-13:44:14.020622,2.0,15.0,327.0
2023-05-30-13:44:14.021669,2.0,15.0,327.0
2023-05-30-13:44:14.022668,1.0,35.0,327.0
2023-05-30-13:44:14.023668,4.0,16.0,327.0
2023-05-30-13:44:14.024668,4.0,16.0,327.0
2023-05-30-13:44:14.025668,4.0,16.0,327.0
2023-05-30-13:44:14.026646,4.0,16.0,327.0
2023-05-30-13:44:14.027667,1.0,11.0,327.0
2023-05-30-13:44:14.028672,3.0,14.0,327.0
2023-05-30-13:44:14.029668,3.0,14.0,327.0
2023-05-30-13:44:14.030620,3.0,14.0,327.0
2023-05-30-13:44:14.031670,3.0,2.0,327.0
2023-05-30-13:44:14.032668,8.0,10.0,327.0
2023-05-30-13:44:14.033667,8.0,10.0,327.0
2023-05-30-13:44:14.034668,9.0,21.0,327.0
2023-05-30-13:44:14.035670,6.0,11.0,327.0
2023-05-30-13:44:14.036668,6.0,11.0,327.0
2023-05-30-13:44:14.037646,6.0,11.0,327.0
2023-05-30-13:44:14.038645,6.0,11.0,327.0
2023-05-30-13:44:14.039646,5.0,5.0,327.0
2023-05-30-13:44:14.040650,3.0,9.0,328.0
2023-05-30-13:44:14.041645,1.0,11.0,327.0
2023-05-30-13:44:14.042645,1.0,11.0,327.0
2023-05-30-13:44:14.043645,0.0,6.0,327.0
2023-05-30-13:44:14.044644,6.0,1.0,327.0
2023-05-30-13:44:14.045644,6.0,28.0,327.0
2023-05-30-13:44:14.046646,6.0,28.0,327.0
2023-05-30-13:44:14.047685,9.0,40.0,327.0
2023-05-30-13:44:14.048647,6.0,13.0,327.0
2023-05-30-13:44:14.049646,6.0,13.0,327.0
2023-05-30-13:44:14.050644,6.0,13.0,327.0
2023-05-30-13:44:14.051647,4.0,7.0,327.0
2023-05-30-13:44:14.053621,6.0,17.0,327.0
2023-05-30-13:44:14.053621,6.0,31.0,327.0
2023-05-30-13:44:14.054668,6.0,31.0,327.0
2023-05-30-13:44:14.055668,3.0,12.0,327.0
2023-05-30-13:44:14.056673,1.0,27.0,327.0
2023-05-30-13:44:14.057668,1.0,27.0,327.0
2023-05-30-13:44:14.058668,1.0,27.0,327.0
2023-05-30-13:44:14.059667,7.0,4.0,327.0
2023-05-30-13:44:14.060672,6.0,0.0,328.0
2023-05-30-13:44:14.061668,6.0,0.0,328.0
2023-05-30-13:44:14.062668,6.0,0.0,328.0
2023-05-30-13:44:14.063623,6.0,15.0,327.0
2023-05-30-13:44:14.064669,7.0,8.0,327.0
2023-05-30-13:44:14.065667,6.0,16.0,327.0
2023-05-30-13:44:14.066668,6.0,16.0,327.0
2023-05-30-13:44:14.067669,6.0,16.0,327.0
2023-05-30-13:44:14.068668,7.0,6.0,327.0
2023-05-30-13:44:14.069670,5.0,3.0,327.0
2023-05-30-13:44:14.070668,5.0,3.0,327.0
2023-05-30-13:44:14.071668,7.0,3.0,327.0
2023-05-30-13:44:14.072647,5.0,4.0,327.0
2023-05-30-13:44:14.073646,7.0,6.0,327.0
2023-05-30-13:44:14.074644,7.0,6.0,327.0
2023-05-30-13:44:14.075645,7.0,6.0,327.0
2023-05-30-13:44:14.076649,1.0,21.0,327.0
2023-05-30-13:44:14.077644,7.0,13.0,327.0
2023-05-30-13:44:14.078646,4.0,13.0,327.0
2023-05-30-13:44:14.079645,4.0,13.0,327.0
2023-05-30-13:44:14.080618,4.0,24.0,327.0
2023-05-30-13:44:14.081645,5.0,15.0,327.0
2023-05-30-13:44:14.082645,5.0,8.0,327.0
2023-05-30-13:44:14.083646,5.0,8.0,327.0
2023-05-30-13:44:14.084644,4.0,16.0,327.0
2023-05-30-13:44:14.085646,7.0,10.0,327.0
2023-05-30-13:44:14.086646,7.0,13.0,327.0
2023-05-30-13:44:14.087646,7.0,13.0,327.0
2023-05-30-13:44:14.089622,7.0,1.0,327.0
2023-05-30-13:44:14.089622,4.0,14.0,327.0
2023-05-30-13:44:14.090620,4.0,14.0,327.0
2023-05-30-13:44:14.091646,4.0,14.0,327.0
2023-05-30-13:44:14.092649,5.0,8.0,327.0
2023-05-30-13:44:14.093645,5.0,14.0,327.0
2023-05-30-13:44:14.094647,6.0,35.0,327.0
2023-05-30-13:44:14.095644,6.0,35.0,327.0
2023-05-30-13:44:14.096647,5.0,24.0,327.0
2023-05-30-13:44:14.097646,7.0,33.0,327.0
2023-05-30-13:44:14.098645,7.0,27.0,327.0
2023-05-30-13:44:14.099646,7.0,27.0,327.0
2023-05-30-13:44:14.100645,8.0,39.0,327.0
2023-05-30-13:44:14.101646,5.0,40.0,327.0
2023-05-30-13:44:14.102645,3.0,28.0,327.0
2023-05-30-13:44:14.103647,3.0,28.0,327.0
2023-05-30-13:44:14.104645,3.0,23.0,327.0
2023-05-30-13:44:14.105620,3.0,45.0,327.0
2023-05-30-13:44:14.106645,3.0,45.0,327.0
2023-05-30-13:44:14.107645,3.0,45.0,327.0
2023-05-30-13:44:14.108649,6.0,5.0,327.0
2023-05-30-13:44:14.109644,5.0,3.0,327.0
2023-05-30-13:44:14.110646,5.0,3.0,327.0
2023-05-30-13:44:14.111645,5.0,3.0,327.0
2023-05-30-13:44:14.112647,5.0,3.0,327.0
2023-05-30-13:44:14.113637,6.0,32.0,327.0
2023-05-30-13:44:14.114647,4.0,20.0,327.0
2023-05-30-13:44:14.115646,4.0,20.0,327.0
2023-05-30-13:44:14.116646,4.0,20.0,327.0
2023-05-30-13:44:14.117645,2.0,21.0,327.0
2023-05-30-13:44:14.118646,7.0,32.0,327.0
2023-05-30-13:44:14.119647,6.0,18.0,327.0
2023-05-30-13:44:14.120646,6.0,18.0,327.0
2023-05-30-13:44:14.121649,5.0,6.0,327.0
2023-05-30-13:44:14.122644,5.0,6.0,327.0
2023-05-30-13:44:14.124622,5.0,2.0,327.0
2023-05-30-13:44:14.124622,3.0,13.0,327.0
2023-05-30-13:44:14.125620,3.0,24.0,327.0
2023-05-30-13:44:14.126667,11.0,61.0,327.0
2023-05-30-13:44:14.127670,11.0,61.0,327.0
2023-05-30-13:44:14.128674,11.0,61.0,327.0
2023-05-30-13:44:14.129668,9.0,28.0,327.0
2023-05-30-13:44:14.130620,12.0,10.0,327.0
2023-05-30-13:44:14.131675,1.0,5.0,327.0
2023-05-30-13:44:14.132667,1.0,5.0,327.0
2023-05-30-13:44:14.133670,1.0,17.0,327.0
2023-05-30-13:44:14.134667,2.0,16.0,327.0
2023-05-30-13:44:14.135667,5.0,4.0,327.0
2023-05-30-13:44:14.136668,5.0,4.0,327.0
2023-05-30-13:44:14.137668,9.0,6.0,327.0
2023-05-30-13:44:14.138668,8.0,4.0,327.0
2023-05-30-13:44:14.139668,6.0,19.0,327.0
2023-05-30-13:44:14.140672,6.0,19.0,327.0
2023-05-30-13:44:14.141668,4.0,30.0,327.0
2023-05-30-13:44:14.142654,5.0,14.0,327.0
2023-05-30-13:44:14.143645,5.0,14.0,327.0
2023-05-30-13:44:14.144646,5.0,14.0,327.0
2023-05-30-13:44:14.145644,7.0,16.0,327.0
2023-05-30-13:44:14.146645,9.0,13.0,327.0
2023-05-30-13:44:14.147620,7.0,43.0,327.0
2023-05-30-13:44:14.148645,7.0,43.0,327.0
2023-05-30-13:44:14.149647,7.0,24.0,328.0
2023-05-30-13:44:14.150648,5.0,43.0,327.0
2023-05-30-13:44:14.151647,3.0,7.0,327.0
2023-05-30-13:44:14.152644,3.0,7.0,327.0
2023-05-30-13:44:14.153645,1.0,44.0,327.0
2023-05-30-13:44:14.154645,0.0,34.0,327.0
2023-05-30-13:44:14.155645,4.0,16.0,327.0
2023-05-30-13:44:14.156648,4.0,16.0,327.0
2023-05-30-13:44:14.157645,7.0,14.0,327.0
2023-05-30-13:44:14.159622,8.0,5.0,327.0
2023-05-30-13:44:14.159622,8.0,5.0,327.0
2023-05-30-13:44:14.160668,8.0,5.0,327.0
2023-05-30-13:44:14.161670,8.0,5.0,327.0
2023-05-30-13:44:14.162668,5.0,4.0,327.0
2023-05-30-13:44:14.163670,3.0,26.0,327.0
2023-05-30-13:44:14.164669,3.0,26.0,327.0
2023-05-30-13:44:14.165652,3.0,26.0,327.0
2023-05-30-13:44:14.166622,3.0,3.0,327.0
2023-05-30-13:44:14.167668,4.0,11.0,327.0
2023-05-30-13:44:14.168668,4.0,11.0,327.0
2023-05-30-13:44:14.169668,4.0,11.0,327.0
2023-05-30-13:44:14.170668,5.0,22.0,327.0
2023-05-30-13:44:14.171668,6.0,0.0,327.0
2023-05-30-13:44:14.172672,6.0,0.0,327.0
2023-05-30-13:44:14.173667,6.0,0.0,327.0
2023-05-30-13:44:14.174668,6.0,2.0,327.0
2023-05-30-13:44:14.175646,6.0,12.0,327.0
2023-05-30-13:44:14.176647,6.0,12.0,327.0
2023-05-30-13:44:14.177655,6.0,12.0,327.0
2023-05-30-13:44:14.178645,6.0,39.0,327.0
2023-05-30-13:44:14.179646,6.0,10.0,327.0
2023-05-30-13:44:14.180618,6.0,34.0,328.0
2023-05-30-13:44:14.181646,6.0,34.0,328.0
2023-05-30-13:44:14.182645,5.0,43.0,327.0
2023-05-30-13:44:14.183647,4.0,61.0,327.0
2023-05-30-13:44:14.184645,0.0,14.0,327.0
2023-05-30-13:44:14.185645,0.0,14.0,327.0
2023-05-30-13:44:14.186645,0.0,1.0,327.0
2023-05-30-13:44:14.187644,3.0,20.0,327.0
2023-05-30-13:44:14.188648,7.0,2.0,327.0
2023-05-30-13:44:14.189623,7.0,2.0,327.0
2023-05-30-13:44:14.191622,5.0,19.0,327.0
2023-05-30-13:44:14.191622,5.0,19.0,327.0
2023-05-30-13:44:14.192622,5.0,19.0,327.0
2023-05-30-13:44:14.193648,5.0,19.0,327.0
2023-05-30-13:44:14.194668,5.0,19.0,327.0
2023-05-30-13:44:14.195669,6.0,9.0,327.0
2023-05-30-13:44:14.196668,0.0,22.0,327.0
2023-05-30-13:44:14.197674,0.0,22.0,327.0
2023-05-30-13:44:14.198667,0.0,22.0,327.0
2023-05-30-13:44:14.199668,8.0,33.0,327.0
2023-05-30-13:44:14.200672,7.0,27.0,327.0
2023-05-30-13:44:14.201667,7.0,27.0,327.0
2023-05-30-13:44:14.202667,7.0,27.0,327.0
2023-05-30-13:44:14.203667,7.0,41.0,327.0
2023-05-30-13:44:14.204675,1.0,21.0,327.0
2023-05-30-13:44:14.205668,1.0,21.0,327.0
2023-05-30-13:44:14.206650,1.0,21.0,327.0
2023-05-30-13:44:14.207622,6.0,23.0,328.0
2023-05-30-13:44:14.208646,6.0,23.0,328.0
2023-05-30-13:44:14.209622,6.0,23.0,328.0
2023-05-30-13:44:14.210622,6.0,23.0,328.0
2023-05-30-13:44:14.211622,8.0,40.0,327.0
2023-05-30-13:44:14.212646,2.0,65.0,327.0
2023-05-30-13:44:14.213646,2.0,65.0,327.0
2023-05-30-13:44:14.214620,2.0,65.0,327.0
2023-05-30-13:44:14.215622,2.0,0.0,327.0
2023-05-30-13:44:14.216622,8.0,1.0,327.0
2023-05-30-13:44:14.217649,8.0,1.0,327.0
2023-05-30-13:44:14.218646,8.0,1.0,327.0
2023-05-30-13:44:14.219621,8.0,2.0,327.0
2023-05-30-13:44:14.220622,3.0,0.0,327.0
2023-05-30-13:44:14.221646,0.0,4.0,327.0
2023-05-30-13:44:14.222620,0.0,4.0,327.0
2023-05-30-13:44:14.223670,4.0,22.0,327.0
2023-05-30-13:44:14.224668,6.0,31.0,327.0
2023-05-30-13:44:14.225670,6.0,31.0,327.0
2023-05-30-13:44:14.226668,6.0,31.0,327.0
2023-05-30-13:44:14.228621,8.0,32.0,327.0
2023-05-30-13:44:14.228621,7.0,16.0,327.0
2023-05-30-13:44:14.229620,7.0,16.0,327.0
2023-05-30-13:44:14.230618,7.0,16.0,327.0
2023-05-30-13:44:14.231620,5.0,34.0,328.0
2023-05-30-13:44:14.232668,2.0,11.0,327.0
2023-05-30-13:44:14.233670,5.0,74.0,327.0
2023-05-30-13:44:14.234678,5.0,74.0,327.0
2023-05-30-13:44:14.235667,4.0,22.0,328.0
2023-05-30-13:44:14.236671,3.0,5.0,327.0
2023-05-30-13:44:14.237668,3.0,15.0,328.0
2023-05-30-13:44:14.238668,3.0,15.0,328.0
2023-05-30-13:44:14.239670,3.0,15.0,328.0
2023-05-30-13:44:14.240668,5.0,1.0,327.0
2023-05-30-13:44:14.241670,7.0,7.0,328.0
2023-05-30-13:44:14.242667,7.0,7.0,328.0
2023-05-30-13:44:14.243646,7.0,7.0,328.0
2023-05-30-13:44:14.244646,6.0,7.0,328.0
2023-05-30-13:44:14.245669,6.0,7.0,328.0
2023-05-30-13:44:14.246676,6.0,7.0,328.0
2023-05-30-13:44:14.247627,6.0,7.0,328.0
2023-05-30-13:44:14.248622,5.0,3.0,327.0
2023-05-30-13:44:14.249668,5.0,4.0,327.0
2023-05-30-13:44:14.250668,5.0,4.0,327.0
2023-05-30-13:44:14.251668,5.0,4.0,327.0
2023-05-30-13:44:14.252671,6.0,16.0,327.0
2023-05-30-13:44:14.253668,4.0,27.0,327.0
2023-05-30-13:44:14.254668,6.0,14.0,327.0
2023-05-30-13:44:14.255669,6.0,14.0,327.0
2023-05-30-13:44:14.256668,4.0,7.0,327.0
2023-05-30-13:44:14.257670,7.0,9.0,327.0
2023-05-30-13:44:14.258667,7.0,9.0,327.0
2023-05-30-13:44:14.259668,7.0,9.0,327.0
2023-05-30-13:44:14.260668,6.0,25.0,328.0
2023-05-30-13:44:14.262621,6.0,14.0,328.0
2023-05-30-13:44:14.262621,6.0,14.0,328.0
2023-05-30-13:44:14.263668,6.0,14.0,328.0
2023-05-30-13:44:14.264672,7.0,11.0,328.0
2023-05-30-13:44:14.265669,1.0,39.0,327.0
2023-05-30-13:44:14.266667,1.0,26.0,327.0
2023-05-30-13:44:14.267667,1.0,26.0,327.0
2023-05-30-13:44:14.268671,2.0,8.0,327.0
2023-05-30-13:44:14.269667,3.0,16.0,327.0
2023-05-30-13:44:14.270667,3.0,16.0,327.0
2023-05-30-13:44:14.271669,3.0,16.0,327.0
2023-05-30-13:44:14.272667,4.0,3.0,327.0
2023-05-30-13:44:14.273670,1.0,15.0,327.0
2023-05-30-13:44:14.274668,1.0,15.0,327.0
2023-05-30-13:44:14.275670,1.0,15.0,327.0
2023-05-30-13:44:14.276668,2.0,16.0,328.0
2023-05-30-13:44:14.277647,4.0,2.0,327.0
2023-05-30-13:44:14.278646,4.0,2.0,327.0
2023-05-30-13:44:14.279646,4.0,2.0,327.0
2023-05-30-13:44:14.280619,4.0,2.0,327.0
2023-05-30-13:44:14.281660,4.0,2.0,328.0
2023-05-30-13:44:14.282645,4.0,2.0,328.0
2023-05-30-13:44:14.283645,4.0,2.0,328.0
2023-05-30-13:44:14.284648,4.0,2.0,328.0
2023-05-30-13:44:14.285645,6.0,1.0,327.0
2023-05-30-13:44:14.286646,5.0,6.0,328.0
2023-05-30-13:44:14.287645,6.0,11.0,327.0
2023-05-30-13:44:14.288646,6.0,11.0,327.0
2023-05-30-13:44:14.289651,7.0,18.0,327.0
2023-05-30-13:44:14.290645,2.0,5.0,328.0
2023-05-30-13:44:14.291646,5.0,10.0,327.0
2023-05-30-13:44:14.292646,5.0,10.0,327.0
2023-05-30-13:44:14.293646,5.0,21.0,327.0
2023-05-30-13:44:14.295621,8.0,4.0,328.0
2023-05-30-13:44:14.296620,6.0,9.0,327.0
2023-05-30-13:44:14.296620,6.0,0.0,327.0
2023-05-30-13:44:14.297668,6.0,0.0,327.0
2023-05-30-13:44:14.298668,6.0,0.0,327.0
2023-05-30-13:44:14.299668,6.0,0.0,327.0
2023-05-30-13:44:14.300671,6.0,0.0,327.0
2023-05-30-13:44:14.301644,5.0,13.0,327.0
2023-05-30-13:44:14.302646,7.0,49.0,327.0
2023-05-30-13:44:14.303645,5.0,22.0,327.0
2023-05-30-13:44:14.304646,5.0,22.0,327.0
2023-05-30-13:44:14.305645,4.0,18.0,327.0
2023-05-30-13:44:14.306645,6.0,37.0,327.0
2023-05-30-13:44:14.307645,5.0,22.0,327.0
2023-05-30-13:44:14.308647,5.0,22.0,327.0
2023-05-30-13:44:14.309648,5.0,22.0,327.0
2023-05-30-13:44:14.310645,0.0,10.0,327.0
2023-05-30-13:44:14.311647,6.0,2.0,327.0
2023-05-30-13:44:14.312644,6.0,2.0,327.0
2023-05-30-13:44:14.313651,3.0,48.0,327.0
2023-05-30-13:44:14.314647,7.0,44.0,327.0
2023-05-30-13:44:14.315645,7.0,44.0,327.0
2023-05-30-13:44:14.316645,7.0,44.0,327.0
2023-05-30-13:44:14.317645,4.0,34.0,327.0
2023-05-30-13:44:14.318653,5.0,23.0,327.0
2023-05-30-13:44:14.319645,8.0,1.0,327.0
2023-05-30-13:44:14.320647,8.0,1.0,327.0
2023-05-30-13:44:14.321645,7.0,2.0,327.0
2023-05-30-13:44:14.322645,2.0,7.0,327.0
2023-05-30-13:44:14.323645,4.0,36.0,327.0
2023-05-30-13:44:14.324646,4.0,36.0,327.0
2023-05-30-13:44:14.325647,4.0,36.0,327.0
2023-05-30-13:44:14.326668,4.0,41.0,327.0
2023-05-30-13:44:14.327668,3.0,43.0,327.0
2023-05-30-13:44:14.328667,3.0,43.0,327.0
2023-05-30-13:44:14.329669,3.0,43.0,327.0
2023-05-30-13:44:14.330619,5.0,42.0,327.0
2023-05-30-13:44:14.332622,6.0,33.0,327.0
2023-05-30-13:44:14.332622,1.0,28.0,327.0
2023-05-30-13:44:14.333620,1.0,27.0,327.0
2023-05-30-13:44:14.334667,4.0,27.0,327.0
2023-05-30-13:44:14.335669,4.0,27.0,327.0
2023-05-30-13:44:14.336668,4.0,27.0,327.0
2023-05-30-13:44:14.337670,4.0,27.0,327.0
2023-05-30-13:44:14.338669,5.0,19.0,327.0
2023-05-30-13:44:14.339668,7.0,37.0,328.0
2023-05-30-13:44:14.340668,5.0,6.0,327.0
2023-05-30-13:44:14.341669,5.0,6.0,327.0
2023-05-30-13:44:14.342668,9.0,23.0,327.0
2023-05-30-13:44:14.343667,5.0,24.0,327.0
2023-05-30-13:44:14.344672,3.0,0.0,327.0
2023-05-30-13:44:14.345669,3.0,0.0,327.0
2023-05-30-13:44:14.346668,4.0,7.0,327.0
2023-05-30-13:44:14.347622,4.0,1.0,327.0
2023-05-30-13:44:14.348620,4.0,1.0,327.0
2023-05-30-13:44:14.349645,4.0,1.0,327.0
2023-05-30-13:44:14.350646,4.0,28.0,327.0
2023-05-30-13:44:14.351649,3.0,3.0,327.0
2023-05-30-13:44:14.352647,7.0,7.0,327.0
2023-05-30-13:44:14.353644,7.0,7.0,327.0
2023-05-30-13:44:14.354647,6.0,4.0,327.0
2023-05-30-13:44:14.356619,6.0,4.0,327.0
2023-05-30-13:44:14.356619,9.0,7.0,327.0
2023-05-30-13:44:14.357652,9.0,7.0,327.0
2023-05-30-13:44:14.358644,5.0,15.0,327.0
2023-05-30-13:44:14.359647,5.0,2.0,328.0
2023-05-30-13:44:14.360644,6.0,6.0,327.0
2023-05-30-13:44:14.361648,6.0,6.0,327.0
2023-05-30-13:44:14.362643,5.0,6.0,327.0
2023-05-30-13:44:14.363644,4.0,17.0,327.0
2023-05-30-13:44:14.364647,1.0,22.0,327.0
2023-05-30-13:44:14.365644,1.0,22.0,327.0
2023-05-30-13:44:14.366647,1.0,22.0,327.0
2023-05-30-13:44:14.368622,1.0,24.0,327.0
2023-05-30-13:44:14.368622,7.0,7.0,327.0
2023-05-30-13:44:14.369670,7.0,7.0,327.0
2023-05-30-13:44:14.370668,7.0,7.0,327.0
2023-05-30-13:44:14.371668,5.0,1.0,328.0
2023-05-30-13:44:14.372669,3.0,66.0,328.0
2023-05-30-13:44:14.373669,3.0,66.0,328.0
2023-05-30-13:44:14.374667,3.0,66.0,328.0
2023-05-30-13:44:14.375646,7.0,32.0,328.0
2023-05-30-13:44:14.376671,5.0,33.0,328.0
2023-05-30-13:44:14.377668,3.0,59.0,327.0
2023-05-30-13:44:14.378667,3.0,59.0,327.0
2023-05-30-13:44:14.379667,3.0,37.0,327.0
2023-05-30-13:44:14.380619,1.0,14.0,328.0
2023-05-30-13:44:14.381620,1.0,14.0,328.0
2023-05-30-13:44:14.382667,1.0,14.0,328.0
2023-05-30-13:44:14.383669,1.0,14.0,328.0
2023-05-30-13:44:14.384668,4.0,1.0,328.0
2023-05-30-13:44:14.385670,5.0,9.0,328.0
2023-05-30-13:44:14.386668,5.0,9.0,328.0
2023-05-30-13:44:14.387622,6.0,7.0,327.0
2023-05-30-13:44:14.388671,5.0,44.0,328.0
2023-05-30-13:44:14.389669,5.0,44.0,328.0
2023-05-30-13:44:14.390668,5.0,44.0,328.0
2023-05-30-13:44:14.391667,10.0,54.0,328.0
2023-05-30-13:44:14.392672,7.0,69.0,328.0
2023-05-30-13:44:14.393667,7.0,69.0,328.0
2023-05-30-13:44:14.394667,7.0,69.0,328.0
2023-05-30-13:44:14.395671,2.0,51.0,328.0
2023-05-30-13:44:14.396671,5.0,6.0,327.0
2023-05-30-13:44:14.397618,5.0,6.0,327.0
2023-05-30-13:44:14.398620,5.0,6.0,327.0
2023-05-30-13:44:14.399670,2.0,42.0,328.0
2023-05-30-13:44:14.401622,5.0,38.0,328.0
2023-05-30-13:44:14.401622,5.0,38.0,328.0
2023-05-30-13:44:14.402646,5.0,38.0,328.0
2023-05-30-13:44:14.403668,2.0,13.0,327.0
2023-05-30-13:44:14.404667,5.0,19.0,328.0
2023-05-30-13:44:14.405668,3.0,17.0,328.0
2023-05-30-13:44:14.406668,3.0,17.0,328.0
2023-05-30-13:44:14.407668,6.0,28.0,327.0
2023-05-30-13:44:14.408644,9.0,20.0,328.0
2023-05-30-13:44:14.409648,6.0,2.0,328.0
2023-05-30-13:44:14.410646,6.0,2.0,328.0
2023-05-30-13:44:14.411644,6.0,2.0,328.0
2023-05-30-13:44:14.412648,2.0,6.0,328.0
2023-05-30-13:44:14.413645,7.0,2.0,327.0
2023-05-30-13:44:14.414648,9.0,25.0,328.0
2023-05-30-13:44:14.415644,9.0,25.0,328.0
2023-05-30-13:44:14.416650,8.0,17.0,328.0
2023-05-30-13:44:14.417644,2.0,19.0,328.0
2023-05-30-13:44:14.418644,1.0,36.0,328.0
2023-05-30-13:44:14.419645,1.0,36.0,328.0
2023-05-30-13:44:14.420644,2.0,10.0,328.0
2023-05-30-13:44:14.421645,1.0,5.0,328.0
2023-05-30-13:44:14.422645,6.0,20.0,328.0
2023-05-30-13:44:14.423647,6.0,20.0,328.0
2023-05-30-13:44:14.424645,7.0,19.0,328.0
2023-05-30-13:44:14.425652,8.0,8.0,328.0
2023-05-30-13:44:14.426645,6.0,13.0,328.0
2023-05-30-13:44:14.427645,6.0,13.0,328.0
2023-05-30-13:44:14.428648,8.0,2.0,328.0
2023-05-30-13:44:14.429645,6.0,20.0,328.0
2023-05-30-13:44:14.430619,1.0,11.0,328.0
2023-05-30-13:44:14.431647,1.0,11.0,328.0
2023-05-30-13:44:14.432646,3.0,11.0,328.0
2023-05-30-13:44:14.433645,6.0,13.0,328.0
2023-05-30-13:44:14.434645,6.0,13.0,328.0
2023-05-30-13:44:14.436622,6.0,13.0,328.0
2023-05-30-13:44:14.436622,4.0,17.0,328.0
2023-05-30-13:44:14.437620,6.0,6.0,329.0
2023-05-30-13:44:14.438668,6.0,6.0,329.0
2023-05-30-13:44:14.439668,6.0,6.0,329.0
2023-05-30-13:44:14.440672,4.0,7.0,329.0
2023-05-30-13:44:14.441668,5.0,3.0,329.0
2023-05-30-13:44:14.442667,3.0,7.0,329.0
2023-05-30-13:44:14.443670,3.0,7.0,329.0
2023-05-30-13:44:14.444670,5.0,0.0,329.0
2023-05-30-13:44:14.445668,4.0,4.0,329.0
2023-05-30-13:44:14.446668,4.0,4.0,329.0
2023-05-30-13:44:14.447620,4.0,4.0,329.0
2023-05-30-13:44:14.448667,4.0,4.0,329.0
2023-05-30-13:44:14.449669,7.0,4.0,330.0
2023-05-30-13:44:14.450645,4.0,1.0,330.0
2023-05-30-13:44:14.451646,4.0,1.0,330.0
2023-05-30-13:44:14.452646,4.0,1.0,330.0
2023-05-30-13:44:14.453645,5.0,1.0,331.0
2023-05-30-13:44:14.454646,5.0,16.0,331.0
2023-05-30-13:44:14.455647,5.0,16.0,331.0
2023-05-30-13:44:14.456645,5.0,16.0,331.0
2023-05-30-13:44:14.457648,3.0,3.0,332.0
2023-05-30-13:44:14.458645,2.0,0.0,332.0
2023-05-30-13:44:14.459644,2.0,0.0,332.0
2023-05-30-13:44:14.460647,2.0,0.0,332.0
2023-05-30-13:44:14.461645,3.0,11.0,332.0
2023-05-30-13:44:14.462646,6.0,10.0,333.0
2023-05-30-13:44:14.463645,5.0,21.0,334.0
2023-05-30-13:44:14.464646,5.0,21.0,334.0
2023-05-30-13:44:14.465645,4.0,25.0,334.0
2023-05-30-13:44:14.466645,5.0,7.0,334.0
2023-05-30-13:44:14.467646,5.0,20.0,335.0
2023-05-30-13:44:14.468645,5.0,20.0,335.0
2023-05-30-13:44:14.469646,5.0,20.0,335.0
2023-05-30-13:44:14.471622,4.0,7.0,335.0
2023-05-30-13:44:14.471622,7.0,5.0,336.0
2023-05-30-13:44:14.472672,7.0,5.0,336.0
2023-05-30-13:44:14.473667,3.0,12.0,336.0
2023-05-30-13:44:14.474667,3.0,12.0,337.0
2023-05-30-13:44:14.475668,3.0,12.0,337.0
2023-05-30-13:44:14.476670,3.0,12.0,337.0
2023-05-30-13:44:14.477667,5.0,22.0,337.0
2023-05-30-13:44:14.478669,3.0,4.0,338.0
2023-05-30-13:44:14.479669,3.0,4.0,338.0
2023-05-30-13:44:14.480630,3.0,4.0,338.0
2023-05-30-13:44:14.481662,3.0,17.0,338.0
2023-05-30-13:44:14.482668,6.0,1.0,339.0
2023-05-30-13:44:14.483668,6.0,1.0,339.0
2023-05-30-13:44:14.484668,6.0,1.0,339.0
2023-05-30-13:44:14.485669,3.0,22.0,339.0
2023-05-30-13:44:14.486646,7.0,26.0,340.0
2023-05-30-13:44:14.487647,7.0,26.0,340.0
2023-05-30-13:44:14.488646,7.0,26.0,340.0
2023-05-30-13:44:14.489648,9.0,15.0,340.0
2023-05-30-13:44:14.490645,4.0,10.0,340.0
2023-05-30-13:44:14.491645,4.0,10.0,340.0
2023-05-30-13:44:14.492648,4.0,10.0,340.0
2023-05-30-13:44:14.493645,4.0,10.0,340.0
2023-05-30-13:44:14.494646,1.0,14.0,340.0
2023-05-30-13:44:14.495644,6.0,51.0,340.0
2023-05-30-13:44:14.496646,6.0,51.0,340.0
2023-05-30-13:44:14.497622,6.0,51.0,340.0
2023-05-30-13:44:14.498646,1.0,17.0,341.0
2023-05-30-13:44:14.499645,2.0,19.0,341.0
2023-05-30-13:44:14.500645,2.0,19.0,341.0
2023-05-30-13:44:14.501645,2.0,19.0,341.0
2023-05-30-13:44:14.502646,3.0,27.0,341.0
2023-05-30-13:44:14.504622,5.0,0.0,341.0
2023-05-30-13:44:14.504622,5.0,0.0,341.0
2023-05-30-13:44:14.505620,8.0,1.0,341.0
2023-05-30-13:44:14.506667,6.0,28.0,340.0
2023-05-30-13:44:14.507667,6.0,28.0,340.0
2023-05-30-13:44:14.508670,6.0,28.0,340.0
2023-05-30-13:44:14.509667,6.0,28.0,340.0
2023-05-30-13:44:14.510668,5.0,42.0,341.0
2023-05-30-13:44:14.511669,5.0,3.0,341.0
2023-05-30-13:44:14.512667,5.0,3.0,341.0
2023-05-30-13:44:14.513674,5.0,3.0,341.0
2023-05-30-13:44:14.514668,8.0,63.0,341.0
2023-05-30-13:44:14.515668,6.0,26.0,341.0
2023-05-30-13:44:14.516672,6.0,26.0,341.0
2023-05-30-13:44:14.517668,6.0,26.0,341.0
2023-05-30-13:44:14.518668,7.0,5.0,341.0
2023-05-30-13:44:14.519620,3.0,29.0,341.0
2023-05-30-13:44:14.520672,3.0,29.0,341.0
2023-05-30-13:44:14.521668,3.0,29.0,341.0
2023-05-30-13:44:14.522667,4.0,16.0,341.0
2023-05-30-13:44:14.523667,7.0,19.0,341.0
2023-05-30-13:44:14.524670,6.0,6.0,340.0
2023-05-30-13:44:14.525674,6.0,6.0,340.0
2023-05-30-13:44:14.526668,5.0,11.0,341.0
2023-05-30-13:44:14.527669,7.0,15.0,341.0
2023-05-30-13:44:14.528671,7.0,15.0,341.0
2023-05-30-13:44:14.529669,7.0,15.0,341.0
2023-05-30-13:44:14.530672,7.0,34.0,341.0
2023-05-30-13:44:14.531669,5.0,2.0,341.0
2023-05-30-13:44:14.532673,4.0,10.0,341.0
2023-05-30-13:44:14.533622,4.0,10.0,341.0
2023-05-30-13:44:14.534644,5.0,8.0,341.0
2023-05-30-13:44:14.535655,4.0,18.0,341.0
2023-05-30-13:44:14.536645,5.0,0.0,341.0
2023-05-30-13:44:14.537647,5.0,0.0,341.0
2023-05-30-13:44:14.538645,5.0,15.0,341.0
2023-05-30-13:44:14.540622,8.0,2.0,341.0
2023-05-30-13:44:14.540622,8.0,2.0,341.0
2023-05-30-13:44:14.541668,8.0,2.0,341.0
2023-05-30-13:44:14.542668,8.0,2.0,341.0
2023-05-30-13:44:14.543669,3.0,27.0,341.0
2023-05-30-13:44:14.544668,6.0,10.0,340.0
2023-05-30-13:44:14.545669,6.0,10.0,340.0
2023-05-30-13:44:14.546668,6.0,10.0,340.0
2023-05-30-13:44:14.547620,7.0,3.0,341.0
2023-05-30-13:44:14.548668,3.0,15.0,341.0
2023-05-30-13:44:14.549668,3.0,15.0,341.0
2023-05-30-13:44:14.550667,3.0,15.0,341.0
2023-05-30-13:44:14.551668,6.0,5.0,341.0
2023-05-30-13:44:14.552671,3.0,4.0,341.0
2023-05-30-13:44:14.553668,3.0,4.0,341.0
2023-05-30-13:44:14.554667,3.0,4.0,341.0
2023-05-30-13:44:14.555668,4.0,6.0,341.0
2023-05-30-13:44:14.556648,7.0,10.0,341.0
2023-05-30-13:44:14.557646,7.0,10.0,341.0
2023-05-30-13:44:14.558646,7.0,10.0,341.0
2023-05-30-13:44:14.559645,7.0,8.0,341.0
2023-05-30-13:44:14.560646,0.0,22.0,340.0
2023-05-30-13:44:14.561644,0.0,45.0,340.0
2023-05-30-13:44:14.562650,0.0,45.0,340.0
2023-05-30-13:44:14.563644,1.0,18.0,341.0
2023-05-30-13:44:14.564620,3.0,15.0,341.0
2023-05-30-13:44:14.565645,5.0,12.0,341.0
2023-05-30-13:44:14.566645,5.0,12.0,341.0
2023-05-30-13:44:14.567648,7.0,12.0,341.0
2023-05-30-13:44:14.568645,8.0,4.0,341.0
2023-05-30-13:44:14.569644,5.0,5.0,340.0
2023-05-30-13:44:14.570645,5.0,5.0,340.0
2023-05-30-13:44:14.572622,5.0,4.0,340.0
2023-05-30-13:44:14.572622,1.0,10.0,340.0
2023-05-30-13:44:14.573622,1.0,10.0,340.0
2023-05-30-13:44:14.574668,1.0,10.0,340.0
2023-05-30-13:44:14.575668,4.0,8.0,340.0
2023-05-30-13:44:14.576647,4.0,16.0,340.0
2023-05-30-13:44:14.577645,4.0,16.0,340.0
2023-05-30-13:44:14.578644,4.0,16.0,340.0
2023-05-30-13:44:14.579645,10.0,15.0,341.0
2023-05-30-13:44:14.580646,5.0,15.0,340.0
2023-05-30-13:44:14.581646,5.0,29.0,341.0
2023-05-30-13:44:14.582645,5.0,29.0,341.0
2023-05-30-13:44:14.583646,5.0,29.0,341.0
2023-05-30-13:44:14.584644,3.0,14.0,340.0
2023-05-30-13:44:14.585648,1.0,81.0,340.0
2023-05-30-13:44:14.586645,1.0,70.0,341.0
2023-05-30-13:44:14.587644,1.0,70.0,341.0
2023-05-30-13:44:14.588647,5.0,6.0,340.0
2023-05-30-13:44:14.589645,10.0,9.0,340.0
2023-05-30-13:44:14.590647,7.0,58.0,340.0
2023-05-30-13:44:14.591645,7.0,58.0,340.0
2023-05-30-13:44:14.592621,2.0,6.0,340.0
2023-05-30-13:44:14.593669,5.0,20.0,340.0
2023-05-30-13:44:14.594668,5.0,20.0,340.0
2023-05-30-13:44:14.595668,5.0,20.0,340.0
2023-05-30-13:44:14.596672,5.0,17.0,340.0
2023-05-30-13:44:14.597618,2.0,22.0,340.0
2023-05-30-13:44:14.598660,5.0,51.0,340.0
2023-05-30-13:44:14.599668,5.0,51.0,340.0
2023-05-30-13:44:14.600671,5.0,42.0,340.0
2023-05-30-13:44:14.601674,9.0,38.0,340.0
2023-05-30-13:44:14.602668,5.0,9.0,340.0
2023-05-30-13:44:14.603667,5.0,9.0,340.0
2023-05-30-13:44:14.604670,6.0,13.0,340.0
2023-05-30-13:44:14.605668,8.0,28.0,340.0
2023-05-30-13:44:14.606667,5.0,8.0,340.0
2023-05-30-13:44:14.607622,5.0,8.0,340.0
