# 
# 
# 
# 
# 
# 
# 
# 
# 
# 
# time,realtime,ref,inp,inp0,inp1,dis,state...
0.000000000000000000e+00,1.644628119296402454e+09,-0.000000000000000000e+00,-5.617401646748036992e-01,-5.617401646748036992e-01,-6.057398292436033671e-01,-0.000000000000000000e+00,0.000000000000000000e+00,0.000000000000000000e+00
1.666666666666666644e-02,1.644628119298361778e+09,-4.889777767930284105e-06,0.000000000000000000e+00,0.000000000000000000e+00,-6.057398292436033671e-01,0.000000000000000000e+00,0.000000000000000000e+00,0.000000000000000000e+00
3.333333333333333287e-02,1.644628119300390244e+09,-1.920748041897197308e-05,-5.520584684397598085e-01,-5.520584684397598085e-01,-6.057398292436033671e-01,-4.037741249246019371e-06,-7.625114881700850624e-05,-9.124790620866473495e-03
5.000000000000000278e-02,1.644628119317423105e+09,-4.236889016368421731e-05,-6.028873736737397904e-01,-6.028873736737397904e-01,-5.736901028285972259e-01,-1.985384912176901292e-05,-3.103445189633511291e-04,-1.893915104276782183e-02
6.666666666666666574e-02,1.644628119332969189e+09,-7.371465627221478699e-05,-5.484278323516182940e-01,-5.484278323516182940e-01,-6.057398292436033671e-01,-5.368009397174375828e-05,-6.991376915261567158e-04,-2.769171641096485059e-02
8.333333333333332871e-02,1.644628119349959612e+09,-1.125119546145244805e-04,0.000000000000000000e+00,0.000000000000000000e+00,-5.736901028285972259e-01,-1.124929683521730986e-04,-1.156857042272439089e-03,-2.723587194302443809e-02
1.000000000000000056e-01,1.644628119367912531e+09,-1.579573024729174731e-04,-6.089384338206420555e-01,-6.089384338206420555e-01,-6.057398292436033671e-01,-2.037901799619213673e-04,-1.691161437023546311e-03,-3.685393794828339953e-02
1.166666666666666685e-01,1.644628119384913206e+09,-2.091805243613911128e-04,-5.484278323516182940e-01,-5.484278323516182940e-01,-6.057398292436033671e-01,-3.353407491868513890e-04,-2.376098895148831026e-03,-4.531505337517153370e-02
1.333333333333333315e-01,1.644628119402571201e+09,-2.652498488953464401e-04,0.000000000000000000e+00,0.000000000000000000e+00,-6.057398292436033671e-01,-5.149138941818184141e-04,-3.125161967115929872e-03,-4.457457220144080134e-02
1.499999999999999944e-01,1.644628119418562651e+09,-3.251781011202299425e-04,0.000000000000000000e+00,0.000000000000000000e+00,-5.736901028285972259e-01,-7.499923874272101032e-04,-3.862018430975495357e-03,-4.385021561070502616e-02
1.666666666666666574e-01,1.644628119434219599e+09,-3.879299393212556164e-04,0.000000000000000000e+00,0.000000000000000000e+00,-6.057398292436033671e-01,-1.047476472730341944e-03,-4.586943422133508280e-03,-4.314274856075918374e-02
1.833333333333333204e-01,1.644628119450213671e+09,-4.524300703893301373e-04,0.000000000000000000e+00,0.000000000000000000e+00,-6.057398292436033671e-01,-1.413384733374595595e-03,-5.300225550925906012e-03,-4.245302284418969729e-02
2.000000000000000111e-01,1.644628119469364166e+09,-5.175723634975419596e-04,0.000000000000000000e+00,0.000000000000000000e+00,-5.736901028285972259e-01,-1.852558494746853321e-03,-6.002168175267994128e-03,-4.178195619476005734e-02
2.166666666666666741e-01,1.644628119486405611e+09,-5.822297683289535996e-04,0.000000000000000000e+00,0.000000000000000000e+00,-5.736901028285972259e-01,-2.368376424140750895e-03,-6.693090288543169890e-03,-4.113050702188722485e-02
2.333333333333333370e-01,1.644628119503353834e+09,-6.452649315625672054e-04,-9.913654351048720725e-01,-9.913654351048720725e-01,-6.057398292436033671e-01,-2.962485954097878772e-03,-7.510254841352809532e-03,-5.688547448672708062e-02
2.500000000000000000e-01,1.644628119520095110e+09,-7.055413939327181104e-04,-1.033722856133188817e+00,-1.033722856133188817e+00,-6.057398292436033671e-01,-3.634558002928975611e-03,-8.593769356329888573e-03,-7.309125020735196543e-02
2.666666666666666630e-01,1.644628119536857367e+09,-7.619352400781694099e-04,-9.296446216064682133e-01,-9.296446216064682133e-01,-5.736901028285972259e-01,-4.382071198050004751e-03,-9.930869692699260953e-03,-8.732126141772456052e-02
2.833333333333333259e-01,1.644628119554285765e+09,-8.133470647273123404e-04,-9.248037734889459349e-01,-9.248037734889459349e-01,-6.057398292436033671e-01,-5.200131427346440550e-03,-1.150261579685572279e-02,-1.012495803955063001e-01
2.999999999999999889e-01,1.644628119571241856e+09,-8.587141116461364599e-04,-1.095443669631592787e+00,-1.095443669631592787e+00,-6.057398292436033671e-01,-6.081332055561865062e-03,-1.332826734374491749e-02,-1.177826788767363519e-01
3.166666666666666519e-01,1.644628119589195013e+09,-8.970224363100107222e-04,-1.126909182395485542e+00,-1.126909182395485542e+00,-5.736901028285972259e-01,-7.015659553003340647e-03,-1.543166205427966113e-02,-1.345780315320097564e-01
3.333333333333333148e-01,1.644628119606787205e+09,-9.273189395345019567e-04,-1.112386638042919484e+00,-1.112386638042919484e+00,-5.736901028285972259e-01,-7.990448600588798134e-03,-1.781078830385715572e-02,-1.508718567264907273e-01
3.499999999999999778e-01,1.644628119623319149e+09,-9.487231173808453356e-04,-1.132960242542387919e+00,-1.132960242542387919e+00,-5.736901028285972259e-01,-8.990389967863641335e-03,-2.046220754432968164e-02,-1.672529480278557301e-01
3.666666666666666408e-01,1.644628119639751673e+09,-9.604383725842128130e-04,-1.050665824544515736e+00,-1.050665824544515736e+00,-6.057398292436033671e-01,-9.997593619905176601e-03,-2.337315497804862835e-02,-1.820197242302104557e-01
3.833333333333333037e-01,1.644628119657706738e+09,-9.617627345628032825e-04,-1.105125365866636900e+00,-1.105125365866636900e+00,-6.057398292436033671e-01,-1.099170860707798618e-02,-2.653583504065543802e-02,-1.974589954088322163e-01
4.000000000000000222e-01,1.644628119674043417e+09,-9.520988387567161718e-04,-1.116017274131061221e+00,-1.116017274131061221e+00,-5.736901028285972259e-01,-1.195010034154437781e-02,-2.995534057908247338e-02,-2.128389461116152737e-01
4.166666666666666852e-01,1.644628119690000534e+09,-9.309630215994374458e-04,-1.132960242542387919e+00,-1.132960242542387919e+00,-5.736901028285972259e-01,-1.284808488031627394e-02,-3.363151854408092528e-02,-2.282595736036618916e-01
4.333333333333333481e-01,1.644628119709273100e+09,-8.979933948024058617e-04,-8.400889314323127799e-01,-8.400889314323127799e-01,-5.736901028285972259e-01,-1.365921883121261685e-02,-3.752223756511766789e-02,-2.385979904203505697e-01
4.500000000000000111e-01,1.644628119725210190e+09,-8.529567717733975603e-04,-6.948634879066557524e-01,-6.948634879066557524e-01,-6.057398292436033671e-01,-1.435564249061524640e-02,-4.156387316547018040e-02,-2.463766736599525831e-01
4.666666666666666741e-01,1.644628119742186785e+09,-7.957543298107483442e-04,-7.335902728468309819e-01,-7.335902728468309819e-01,-5.736901028285972259e-01,-1.490847282594354173e-02,-4.573950441093358604e-02,-2.546760215090353996e-01
4.833333333333333370e-01,1.644628119760116816e+09,-7.264259041160135537e-04,-8.267765991091275968e-01,-8.267765991091275968e-01,-6.057398292436033671e-01,-1.528824194691122060e-02,-5.006523520626344342e-02,-2.643847047313062082e-01
5.000000000000000000e-01,1.644628119777037382e+09,-6.451528235264906725e-04,-7.590047254638211394e-01,-7.590047254638211394e-01,-6.057398292436033671e-01,-1.546537578335120677e-02,-5.454210020126989966e-02,-2.728156747570859575e-01
5.166666666666666075e-01,1.644628119793028593e+09,-5.522592130470422873e-04,-6.900226397891340291e-01,-6.900226397891340291e-01,-5.736901028285972259e-01,-1.541070681878797290e-02,-5.914878148258779361e-02,-2.799662159192334299e-01
5.333333333333333259e-01,1.644628119808941603e+09,-4.482117046023978662e-04,-7.226983645824068825e-01,-7.226983645824068825e-01,-6.057398292436033671e-01,-1.509601393249269258e-02,-6.387812053550245839e-02,-2.875334498415670903e-01
5.500000000000000444e-01,1.644628119826151133e+09,-3.336175147658314430e-04,-5.702116488804670480e-01,-5.702116488804670480e-01,-5.736901028285972259e-01,-1.449458169216343711e-02,-6.871139035228381042e-02,-2.924452838676629418e-01
5.666666666666666519e-01,1.644628119843149662e+09,-2.092208663637132521e-04,-9.381161058121315621e-01,-9.381161058121315621e-01,-5.736901028285972259e-01,-1.358177082729890989e-02,-7.367653471380654351e-02,-3.033417707834640265e-01
5.833333333333333703e-01,1.644628119861080408e+09,-7.589774961267693949e-05,-1.045824976426993347e+00,-1.045824976426993347e+00,-5.736901028285972259e-01,-1.233559111124402780e-02,-7.883648684237154480e-02,-3.158178281138696586e-01
5.999999999999999778e-01,1.644628119877038240e+09,6.535096238783568605e-05,-9.526386501646968430e-01,-9.526386501646968430e-01,-5.736901028285972259e-01,-1.073726749785526915e-02,-8.418955835737733373e-02,-3.265210218932397268e-01
6.166666666666666963e-01,1.644628119893254995e+09,2.134080096223960066e-04,-1.131750030513007266e+00,-1.131750030513007266e+00,-6.057398292436033671e-01,-8.771790105289414136e-03,-8.974400558541417716e-02,-3.399752716755078397e-01
6.333333333333333037e-01,1.644628119910474300e+09,3.670497990579211643e-04,-1.244299749245391329e+00,-1.244299749245391329e+00,-6.057398292436033671e-01,-6.428438521395225466e-03,-9.553605376054929987e-02,-3.550286932964858422e-01
6.500000000000000222e-01,1.644628119927055359e+09,5.249579438433350266e-04,-1.625516538500241248e+00,-1.625516538500241248e+00,-6.057398292436033671e-01,-3.701270927607347265e-03,-1.016291902853277973e-01,-3.760891869288381928e-01
6.666666666666666297e-01,1.644628119945317745e+09,6.857321965375530372e-04,-1.692078200116166942e+00,-1.692078200116166942e+00,-6.057398292436033671e-01,-5.895687042093808623e-04,-1.080791898914740812e-01,-3.978503168030315118e-01
6.833333333333333481e-01,1.644628119962543964e+09,8.479046671275874579e-04,-2.080556261547299446e+00,-2.080556261547299446e+00,-5.736901028285972259e-01,2.901772509521472702e-03,-1.149420438953008966e-01,-4.256150376165009908e-01
6.999999999999999556e-01,1.644628119978501081e+09,1.009955199523933714e-03,-2.315337395247111907e+00,-2.315337395247111907e+00,-6.057398292436033671e-01,6.761913872369734214e-03,-1.222957032916108244e-01,-4.567376362431034287e-01
7.166666666666666741e-01,1.644628119996453285e+09,1.170327764242609604e-03,-2.236673613337380573e+00,-2.236673613337380573e+00,-6.057398292436033671e-01,1.097381449230800526e-02,-1.301523271655556369e-01,-4.859760090165765045e-01
7.333333333333332815e-01,1.644628120012576103e+09,1.327447710299107337e-03,-2.043039688636505424e+00,-2.043039688636505424e+00,-6.057398292436033671e-01,1.551404991756706077e-02,-1.384648469198752618e-01,-5.114555832409058977e-01
7.500000000000000000e-01,1.644628120029376984e+09,1.479739706134637406e-03,-2.005523115725710070e+00,-2.005523115725710070e+00,-6.057398292436033671e-01,2.035271435375136939e-02,-1.471926568665785362e-01,-5.358139466504019399e-01
7.666666666666666075e-01,1.644628120047696829e+09,1.625646187840901159e-03,-1.769531769996517401e+00,-1.769531769996517401e+00,-6.057398292436033671e-01,2.545341201353812366e-02,-1.562897753941343004e-01,-5.557848007558958692e-01
7.833333333333333259e-01,1.644628120064681053e+09,1.763646123202196499e-03,-1.706600744468732778e+00,-1.706600744468732778e+00,-5.736901028285972259e-01,3.077334191696400045e-02,-1.657075562497616061e-01,-5.742974766094647299e-01
8.000000000000000444e-01,1.644628120081261873e+09,1.892273892271691734e-03,-1.330224803331405248e+00,-1.330224803331405248e+00,-6.057398292436033671e-01,3.626347927538443178e-02,-1.753785811896201863e-01,-5.861924737372065097e-01
8.166666666666666519e-01,1.644628120097334146e+09,2.010138079460620231e-03,-1.207993388363976850e+00,-1.207993388363976850e+00,-6.057398292436033671e-01,4.186885532505944113e-02,-1.852285562573071087e-01,-5.957779075535015734e-01
8.333333333333333703e-01,1.644628120115286589e+09,2.115939968543779741e-03,-8.158846908447032753e-01,-8.158846908447032753e-01,-5.736901028285972259e-01,4.752893614260037675e-02,-1.951820245882250060e-01,-5.986303684676187453e-01
8.499999999999999778e-01,1.644628120132517815e+09,2.208491530647665926e-03,-5.847341932330326619e-01,-5.847341932330326619e-01,-5.736901028285972259e-01,5.317809959107566709e-02,-2.051499330637115981e-01,-5.975217282194981161e-01
8.666666666666666963e-01,1.644628120148201704e+09,2.286732696242168173e-03,0.000000000000000000e+00,0.000000000000000000e+00,-5.736901028285972259e-01,5.874620813033900463e-02,-2.150179844792091399e-01,-5.866745733351615977e-01
8.833333333333333037e-01,1.644628120165125132e+09,2.349747705430677101e-03,0.000000000000000000e+00,0.000000000000000000e+00,-6.057398292436033671e-01,6.415927379686647836e-02,-2.247060005390819626e-01,-5.759172360453410633e-01
9.000000000000000222e-01,1.644628120183113098e+09,2.396780336432027467e-03,0.000000000000000000e+00,0.000000000000000000e+00,-5.736901028285972259e-01,6.934021023638579917e-02,-2.342154978593923298e-01,-5.652520685544242252e-01
9.166666666666666297e-01,1.644628120199113846e+09,2.427247820048117084e-03,0.000000000000000000e+00,0.000000000000000000e+00,-6.057398292436033671e-01,7.420966527655682710e-02,-2.435480428948830212e-01,-5.546826957643242739e-01
9.333333333333333481e-01,1.644628120215580702e+09,2.440753258068207362e-03,0.000000000000000000e+00,0.000000000000000000e+00,-5.736901028285972259e-01,7.868692617664165001e-02,-2.527052731627393856e-01,-5.442140167268572082e-01
9.499999999999999556e-01,1.644628120232882977e+09,2.437096375902350620e-03,0.000000000000000000e+00,0.000000000000000000e+00,-6.057398292436033671e-01,8.269088840610255842e-02,-2.616889183565492272e-01,-5.338521900596123748e-01
9.666666666666666741e-01,1.644628120250828266e+09,2.416282454166633620e-03,0.000000000000000000e+00,0.000000000000000000e+00,-6.057398292436033671e-01,8.614107760349588860e-02,-2.705008210780543432e-01,-5.236046027113823165e-01
9.833333333333332815e-01,1.644628120267615318e+09,2.378529300341097365e-03,0.000000000000000000e+00,0.000000000000000000e+00,-6.057398292436033671e-01,8.895871326934823298e-02,-2.791429569057226612e-01,-5.134798216625582334e-01
1.000000000000000000e+00,1.644628120286103249e+09,2.324272139845282546e-03,0.000000000000000000e+00,0.000000000000000000e+00,-6.057398292436033671e-01,9.106780176936930815e-02,-2.876174535140316735e-01,-5.034875283580930727e-01
1.016666666666666607e+00,1.644628120301095486e+09,2.254166325760283487e-03,0.000000000000000000e+00,0.000000000000000000e+00,-5.736901028285972259e-01,9.239624538364350770e-02,-2.959266085558418524e-01,-4.936384358932222050e-01
1.033333333333333215e+00,1.644628120317052603e+09,2.169087787785302368e-03,0.000000000000000000e+00,0.000000000000000000e+00,-6.057398292436033671e-01,9.287695344817047116e-02,-3.040729060224987568e-01,-4.839441892024290981e-01
1.050000000000000044e+00,1.644628120334162235e+09,2.070131163647664658e-03,0.000000000000000000e+00,0.000000000000000000e+00,-6.057398292436033671e-01,9.244894111043337748e-02,-3.120590308024435156e-01,-4.744172487373104485e-01
1.066666666666666652e+00,1.644628120351498365e+09,1.958605579865746980e-03,0.000000000000000000e+00,0.000000000000000000e+00,-5.736901028285972259e-01,9.105840087184521869e-02,-3.198878811691852619e-01,-4.650707583560379499e-01
1.083333333333333259e+00,1.644628120366019726e+09,1.836028073261032623e-03,-6.016771616443592485e-01,-6.016771616443592485e-01,-5.736901028285972259e-01,8.865973192617426779e-02,-3.276456828932917675e-01,-4.658632471272345366e-01
1.100000000000000089e+00,1.644628120383276701e+09,1.704114669678865159e-03,-6.331426744082514491e-01,-6.331426744082514491e-01,-5.736901028285972259e-01,8.521651233137043924e-02,-3.354214049161722278e-01,-4.672196278056354179e-01
1.116666666666666696e+00,1.644628120399731636e+09,1.564769161751041740e-03,-6.464550067314369652e-01,-6.464550067314369652e-01,-5.736901028285972259e-01,8.070239927727282381e-02,-3.432220081372470144e-01,-4.688482347087967184e-01
1.133333333333333304e+00,1.644628120416938305e+09,1.420069652951177867e-03,-6.742898834071875402e-01,-6.742898834071875402e-01,-5.736901028285972259e-01,7.510194313564121094e-02,-3.510541479675617360e-01,-4.710025605496744872e-01
1.149999999999999911e+00,1.644628120433899879e+09,1.272252960386646920e-03,-9.356956817533701454e-01,-9.356956817533701454e-01,-6.057398292436033671e-01,6.841130160149844208e-02,-3.589589252860463375e-01,-4.775525229003877437e-01
1.166666666666666741e+00,1.644628120451885939e+09,1.123696993465769919e-03,-9.187527133420438918e-01,-9.187527133420438918e-01,-6.057398292436033671e-01,6.063884105296341726e-02,-3.669706973245195347e-01,-4.838426487333992165e-01
1.183333333333333348e+00,1.644628120469248056e+09,9.769012495068319334e-04,-9.284344095770875605e-01,-9.284344095770875605e-01,-6.057398292436033671e-01,5.180561326507797382e-02,-3.750889932887687128e-01,-4.903348327076835211e-01
1.199999999999999956e+00,1.644628120484709501e+09,8.344655902464539815e-04,-8.981791088425755687e-01,-8.981791088425755687e-01,-6.057398292436033671e-01,4.194569680350671015e-02,-3.833117785949135548e-01,-4.963826042688564977e-01
1.216666666666666563e+00,1.644628120501897097e+09,6.990674848008255086e-04,-8.497706276673567816e-01,-8.497706276673567816e-01,-6.057398292436033671e-01,3.110639378579709360e-02,-3.916293356988858609e-01,-5.017094510629102055e-01
1.233333333333333393e+00,1.644628120519120455e+09,5.734379246799881698e-04,-7.420617570524944417e-01,-7.420617570524944417e-01,-6.057398292436033671e-01,1.934827421808436518e-02,-4.000216850704106375e-01,-5.053623264052923281e-01
1.250000000000000000e+00,1.644628120535113096e+09,4.603362347169377179e-04,-7.239085766117869802e-01,-7.239085766117869802e-01,-5.736901028285972259e-01,6.745061778371935594e-03,-4.084736445963272344e-01,-5.088630921265993035e-01
1.266666666666666607e+00,1.644628120553221226e+09,3.625240200206488492e-04,-6.670286112309048443e-01,-6.670286112309048443e-01,-5.736901028285972259e-01,-6.616643293755794172e-03,-4.169774559262625080e-01,-5.115867017054083199e-01
1.283333333333333215e+00,1.644628120569084406e+09,2.827385030930362406e-04,-5.714218609098474788e-01,-5.714218609098474788e-01,-6.057398292436033671e-01,-2.063780664639961598e-02,-4.255150159208829774e-01,-5.129168028367252496e-01
1.300000000000000044e+00,1.644628120586078644e+09,2.236655168724193841e-04,-6.283018262907296148e-01,-6.283018262907296148e-01,-5.736901028285972259e-01,-3.520756806956933799e-02,-4.340844292253776548e-01,-5.154058794382355702e-01
1.316666666666666652e+00,1.644628120603089094e+09,1.879124285170949492e-04,0.000000000000000000e+00,0.000000000000000000e+00,-6.057398292436033671e-01,-5.020401397909959179e-02,-4.426102733022353464e-01,-5.077167689276962381e-01
1.333333333333333259e+00,1.644628120622756481e+09,1.779812750811796932e-04,0.000000000000000000e+00,0.000000000000000000e+00,-6.057398292436033671e-01,-6.549511047597748881e-02,-4.510111395749090701e-01,-5.004074878296221884e-01
1.350000000000000089e+00,1.644628120636919737e+09,1.962423957419229107e-04,0.000000000000000000e+00,0.000000000000000000e+00,-6.057398292436033671e-01,-8.093979123527211827e-02,-4.592933272845135528e-01,-4.934742966406056031e-01
1.366666666666666696e+00,1.644628120655326843e+09,2.449088458298577672e-04,0.000000000000000000e+00,0.000000000000000000e+00,-6.057398292436033671e-01,-9.638919240056988136e-02,-4.674630533024586310e-01,-4.869110571626700246e-01
1.383333333333333304e+00,1.644628120669908047e+09,3.260118755260132538e-04,0.000000000000000000e+00,0.000000000000000000e+00,-5.736901028285972259e-01,-1.116880246211317401e-01,-4.755264115960229909e-01,-4.807091659461245059e-01
1.399999999999999911e+00,1.644628120687198400e+09,4.413777506986826457e-04,0.000000000000000000e+00,0.000000000000000000e+00,-5.736901028285972259e-01,-1.266760703961942736e-01,-4.834893318006487362e-01,-4.748575135814353532e-01
1.416666666666666741e+00,1.644628120704010248e+09,5.926061849529648063e-04,0.000000000000000000e+00,0.000000000000000000e+00,-6.057398292436033671e-01,-1.411897930100914356e-01,-4.913575373416167458e-01,-4.693424712573021629e-01
1.433333333333333348e+00,1.644628120722021818e+09,7.810506405955912595e-04,0.000000000000000000e+00,0.000000000000000000e+00,-6.057398292436033671e-01,-1.550640415787045701e-01,-4.991365035690487062e-01,-4.641479057228486416e-01
1.449999999999999956e+00,1.644628120737978220e+09,1.007800741934277572e-03,0.000000000000000000e+00,0.000000000000000000e+00,-6.057398292436033671e-01,-1.681338351068220327e-01,-5.068314163866268762e-01,-4.592552234903841679e-01
1.466666666666666563e+00,1.644628120754932404e+09,1.273667027233212241e-03,-5.520584684397598085e-01,-5.520584684397598085e-01,-6.057398292436033671e-01,-1.802362070007290928e-01,-5.145233824568087311e-01,-4.637681686775437240e-01
1.483333333333333393e+00,1.644628120771886349e+09,1.579168245857131463e-03,-8.074132066390399265e-01,-8.074132066390399265e-01,-6.057398292436033671e-01,-1.912120902126412669e-01,-5.223267266681894672e-01,-4.726085794136909435e-01
1.500000000000000000e+00,1.644628120789077997e+09,1.924521384811133697e-03,-8.074132066390399265e-01,-8.074132066390399265e-01,-6.057398292436033671e-01,-2.009082221335311558e-01,-5.302775292511430205e-01,-4.814631339769468998e-01
1.516666666666666607e+00,1.644628120807156324e+09,2.309634584204194648e-03,-8.546114757848785048e-01,-8.546114757848785048e-01,-6.057398292436033671e-01,-2.091790475163884389e-01,-5.383823461670035337e-01,-4.910881591161074811e-01
1.533333333333333215e+00,1.644628120822636366e+09,2.734103074345942477e-03,-7.638455735813428626e-01,-7.638455735813428626e-01,-5.736901028285972259e-01,-2.158885971185889596e-01,-5.466346408498788945e-01,-4.991647672782310030e-01
1.550000000000000044e+00,1.644628120838296652e+09,3.197208238459195093e-03,-8.025723585215180922e-01,-8.025723585215180922e-01,-5.736901028285972259e-01,-2.209123194127579626e-01,-5.550264729655297602e-01,-5.078310131281513762e-01
1.566666666666666652e+00,1.644628120857282400e+09,3.697919874620101636e-03,-9.877347990167304470e-01,-9.877347990167304470e-01,-5.736901028285972259e-01,-2.241388426404315182e-01,-5.635875659034816909e-01,-5.194678142178188462e-01
1.583333333333333259e+00,1.644628120874236822e+09,4.234901698802901945e-03,-1.269714201862381486e+00,-1.269714201862381486e+00,-6.057398292436033671e-01,-2.254716446790437645e-01,-5.723801294685917362e-01,-5.355950147617325463e-01
1.600000000000000089e+00,1.644628120890194178e+09,4.806520098107066631e-03,-1.287867382303088393e+00,-1.287867382303088393e+00,-6.057398292436033671e-01,-2.248306086642735679e-01,-5.814416709985736897e-01,-5.517451064145399986e-01
1.616666666666666696e+00,1.644628120907148361e+09,5.410856109698986352e-03,-1.445194946122550173e+00,-1.445194946122550173e+00,-5.736901028285972259e-01,-2.221534430572544017e-01,-5.907915104542188489e-01,-5.701844067785583059e-01
1.633333333333333304e+00,1.644628120924104929e+09,6.045720567035659833e-03,-1.331435015360785901e+00,-1.331435015360785901e+00,-6.057398292436033671e-01,-2.173969458669708921e-01,-6.004297551890656059e-01,-5.863600280641741991e-01
1.649999999999999911e+00,1.644628120943020582e+09,6.708672320897836674e-03,-1.124488758336724459e+00,-1.124488758336724459e+00,-6.057398292436033671e-01,-2.105380940263075484e-01,-6.103058285588038867e-01,-5.987344022338197957e-01
1.666666666666666741e+00,1.644628120959216833e+09,7.397039408986886243e-03,-9.393263178415117709e-01,-9.393263178415117709e-01,-6.057398292436033671e-01,-2.015749404663481348e-01,-6.203596196193874590e-01,-6.076956321450338594e-01
1.683333333333333348e+00,1.644628120977168322e+09,8.107943014685056390e-03,-9.211731374008047535e-01,-9.211731374008047535e-01,-6.057398292436033671e-01,-1.905273032249493459e-01,-6.305574935507692880e-01,-6.160260988907479973e-01
1.699999999999999956e+00,1.644628120993808746e+09,8.838324023397186799e-03,-8.219357509916058735e-01,-8.219357509916058735e-01,-5.736901028285972259e-01,-1.774372329464512510e-01,-6.408775432619902013e-01,-6.223622655784947222e-01
1.716666666666666563e+00,1.644628121010891914e+09,9.584971954020417642e-03,-9.223833494301849623e-01,-9.223833494301849623e-01,-6.057398292436033671e-01,-1.623692473606633824e-01,-6.513141132715649650e-01,-6.300049055154340882e-01
1.733333333333333393e+00,1.644628121025556087e+09,1.034455601387901380e-02,-9.828939508992087237e-01,-9.828939508992087237e-01,-6.057398292436033671e-01,-1.454103237490348144e-01,-6.618830203876572282e-01,-6.382410696434792641e-01
1.750000000000000000e+00,1.644628121043550491e+09,1.111365799823096738e-02,-7.251187886411676331e-01,-7.251187886411676331e-01,-5.736901028285972259e-01,-1.266696429896099207e-01,-6.725498668165735827e-01,-6.417706970750759465e-01
1.766666666666666607e+00,1.644628121061449051e+09,1.188880673052769565e-02,0.000000000000000000e+00,0.000000000000000000e+00,-6.057398292436033671e-01,-1.062780814928387246e-01,-6.831720825938986108e-01,-6.329197826559649354e-01
1.783333333333333215e+00,1.644628121078404188e+09,1.266651371727620969e-02,0.000000000000000000e+00,0.000000000000000000e+00,-6.057398292436033671e-01,-8.438745016829470036e-02,-6.936449820786996234e-01,-6.238533406739688036e-01
1.800000000000000044e+00,1.644628121098233461e+09,1.344330967190006214e-02,-5.895750413505543852e-01,-5.895750413505543852e-01,-6.057398292436033671e-01,-6.116948246668791472e-02,-7.040462519802327401e-01,-6.242978128360563428e-01
1.816666666666666652e+00,1.644628121113398314e+09,1.421578154566880033e-02,-6.258814022319687531e-01,-6.258814022319687531e-01,-5.736901028285972259e-01,-3.681457648945479083e-02,-7.144565191013320105e-01,-6.249324786936474307e-01
1.833333333333333259e+00,1.644628121130221367e+09,1.498060969079370933e-02,-6.561367029664806338e-01,-6.561367029664806338e-01,-5.736901028285972259e-01,-1.153029911588513215e-02,-7.248779629265865720e-01,-6.256388182364323036e-01
1.849999999999999867e+00,1.644628121148369789e+09,1.573460477137191352e-02,-7.009145480535583506e-01,-7.009145480535583506e-01,-6.057398292436033671e-01,1.446033696970283958e-02,-7.353136764162656602e-01,-6.266440082648174759e-01
1.866666666666666696e+00,1.644628121164788485e+09,1.647474403215858085e-02,-8.897076246369123309e-01,-8.897076246369123309e-01,-6.057398292436033671e-01,4.092080959571697124e-02,-7.457884256959941283e-01,-6.303157059024423470e-01
1.883333333333333304e+00,1.644628121181743383e+09,1.719820653329984586e-02,-8.933382607250537344e-01,-8.933382607250537344e-01,-5.736901028285972259e-01,6.760322023376313938e-02,-7.563206788770369116e-01,-6.335457033962544893e-01
1.899999999999999911e+00,1.644628121197888136e+09,1.790240696125263570e-02,-8.195153269328449008e-01,-8.195153269328449008e-01,-6.057398292436033671e-01,9.425060476240598728e-02,-7.668924422102794125e-01,-6.350616854325192850e-01
1.916666666666666741e+00,1.644628121215661764e+09,1.858502763221929130e-02,-9.671611945172626790e-01,-9.671611945172626790e-01,-5.736901028285972259e-01,1.205994002013388439e-01,-7.775060161347261412e-01,-6.385574747466712386e-01
1.933333333333333348e+00,1.644628121232191563e+09,1.924404831454707906e-02,-8.231459630209859712e-01,-8.231459630209859712e-01,-5.736901028285972259e-01,1.463820434661481373e-01,-7.881539178070581242e-01,-6.391889717335865750e-01
1.949999999999999956e+00,1.644628121248569965e+09,1.987777351067013601e-02,-9.635305584291211645e-01,-9.635305584291211645e-01,-5.736901028285972259e-01,1.713296761342269769e-01,-7.988282014173865297e-01,-6.417180361615064665e-01
1.966666666666666563e+00,1.644628121265817404e+09,2.048485685723978530e-02,-1.059137308750178974e+00,-1.059137308750178974e+00,-6.057398292436033671e-01,1.951749274090749942e-01,-8.095541985199280477e-01,-6.453914120813166733e-01
1.983333333333333393e+00,1.644628121282979488e+09,2.106432232400471879e-02,-9.477978020471751197e-01,-9.477978020471751197e-01,-5.736901028285972259e-01,2.176547459495616343e-01,-8.203224279939768104e-01,-6.467922335422281455e-01
2.000000000000000000e+00,1.644628121300940037e+09,2.161558191761445147e-02,-9.163322892832825861e-01,-9.163322892832825861e-01,-5.736901028285972259e-01,2.385132500164146852e-01,-8.311065839909020925e-01,-6.473050615330839808e-01
2.016666666666666607e+00,1.644628121317930937e+09,2.213844962566458713e-02,-6.730796713778073315e-01,-6.730796713778073315e-01,-5.736901028285972259e-01,2.575045645007539297e-01,-8.418629950261564687e-01,-6.434749022791137474e-01
2.033333333333333215e+00,1.644628121333887577e+09,2.263315136874202022e-02,-7.311698487880702313e-01,-7.311698487880702313e-01,-5.736901028285972259e-01,2.743956128559439378e-01,-8.525617895416142122e-01,-6.403890116958580458e-01
2.049999999999999822e+00,1.644628121350843191e+09,2.310033076373118471e-02,-7.057553961710800738e-01,-7.057553961710800738e-01,-6.057398292436033671e-01,2.889688317678557605e-01,-8.632040556549539501e-01,-6.366931883225720457e-01
2.066666666666666430e+00,1.644628121367797852e+09,2.354105053990013935e-02,-7.904702382277133399e-01,-7.904702382277133399e-01,-5.736901028285972259e-01,3.010247765792357089e-01,-8.737952708641828492e-01,-6.342593974741510543e-01
2.083333333333333481e+00,1.644628121384751081e+09,2.395678948998880564e-02,-7.493230292287771377e-01,-7.493230292287771377e-01,-6.057398292436033671e-01,3.103845860366717946e-01,-8.843392829944204392e-01,-6.310310260637819191e-01
2.100000000000000089e+00,1.644628121402703524e+09,2.434943488131369183e-02,-7.444821811112553034e-01,-7.444821811112553034e-01,-5.736901028285972259e-01,3.168922758547825236e-01,-8.948283673730329513e-01,-6.276684401061105589e-01
2.116666666666666696e+00,1.644628121418659687e+09,2.472127029640354065e-02,-8.279868111385082496e-01,-8.279868111385082496e-01,-5.736901028285972259e-01,3.204168318885022848e-01,-9.052729199821289985e-01,-6.256833871511812140e-01
2.133333333333333304e+00,1.644628121435614824e+09,2.507495891849496894e-02,-8.183051149034642480e-01,-8.183051149034642480e-01,-6.057398292436033671e-01,3.208540753631766718e-01,-9.156832649188124673e-01,-6.235638928735025566e-01
2.149999999999999911e+00,1.644628121453567982e+09,2.541352232390451521e-02,-6.416141586139147979e-01,-6.416141586139147979e-01,-6.057398292436033671e-01,3.181282746216988477e-01,-9.260345495423871753e-01,-6.186040396497980431e-01
2.166666666666666519e+00,1.644628121469508410e+09,2.574031489043765095e-02,-6.379835225257736164e-01,-6.379835225257736164e-01,-6.057398292436033671e-01,3.121934801918154201e-01,-9.363041732544687967e-01,-6.137642499766157167e-01
2.183333333333333126e+00,1.644628121485481501e+09,2.605899397811559104e-02,-6.742898834071875402e-01,-6.742898834071875402e-01,-6.057398292436033671e-01,3.030345626346996890e-01,-9.465000819664390885e-01,-6.097559299441869252e-01
2.200000000000000178e+00,1.644628121502437592e+09,2.637348608516202481e-02,-7.360106969055919546e-01,-7.360106969055919546e-01,-5.736901028285972259e-01,2.906679355833949319e-01,-9.566399719699546500e-01,-6.070384192960412983e-01
2.216666666666666785e+00,1.644628121519362688e+09,2.668794922790419452e-02,-6.742898834071875402e-01,-6.742898834071875402e-01,-5.736901028285972259e-01,2.751419495885387700e-01,-9.667285650206365322e-01,-6.036022918090035994e-01
2.233333333333333393e+00,1.644628121537344217e+09,2.700673183755655446e-02,-6.500856428195781467e-01,-6.500856428195781467e-01,-6.057398292436033671e-01,2.565369458270602698e-01,-9.767595905101265075e-01,-6.001304112693889303e-01
2.250000000000000000e+00,1.644628121553561687e+09,2.733432850929747374e-02,-6.984941239947973779e-01,-6.984941239947973779e-01,-6.057398292436033671e-01,2.349649623622230843e-01,-9.867428965985231004e-01,-5.978725912082019089e-01
2.266666666666666607e+00,1.644628121569533110e+09,2.767533297917378413e-02,-6.912328518185143489e-01,-6.912328518185143489e-01,-5.736901028285972259e-01,2.105690894324283580e-01,-9.966912508434057072e-01,-5.959352996697540039e-01
2.283333333333333215e+00,1.644628121587521553e+09,2.803438874173038234e-02,-6.028873736737397904e-01,-6.028873736737397904e-01,-6.057398292436033671e-01,1.835224741511402302e-01,-1.006599117846129765e+00,-5.930168476590732540e-01
2.299999999999999822e+00,1.644628121604475498e+09,2.841613775544333045e-02,-6.040975857031202212e-01,-6.040975857031202212e-01,-6.057398292436033671e-01,1.540269789784923515e-01,-1.016462988167657011e+00,-5.906541541162897424e-01
2.316666666666666430e+00,1.644628121620433092e+09,2.882516771362932800e-02,-5.774729210567496329e-01,-5.774729210567496329e-01,-6.057398292436033671e-01,1.223115023323489009e-01,-1.026288509745375777e+00,-5.884146561839775913e-01
2.333333333333333481e+00,1.644628121637385368e+09,2.926595838515494777e-02,-5.653708007629449916e-01,-5.653708007629449916e-01,-5.736901028285972259e-01,8.862997369738205566e-02,-1.036079996236775491e+00,-5.865688501436705504e-01
2.350000000000000089e+00,1.644628121653768301e+09,2.974282755160575706e-02,0.000000000000000000e+00,0.000000000000000000e+00,-5.736901028285972259e-01,5.325903951905695127e-02,-1.045767770391794027e+00,-5.759934253300009743e-01
2.366666666666666696e+00,1.644628121669507504e+09,3.025987708531823264e-02,0.000000000000000000e+00,0.000000000000000000e+00,-5.736901028285972259e-01,1.649545998901890201e-02,-1.055285825953485634e+00,-5.662004454351591276e-01
2.383333333333333304e+00,1.644628121687461853e+09,3.082093972554020983e-02,0.000000000000000000e+00,0.000000000000000000e+00,-5.736901028285972259e-01,-2.134675950654791113e-02,-1.064647244581104824e+00,-5.571948061326490453e-01
2.399999999999999911e+00,1.644628121704541683e+09,3.142952711773286389e-02,0.000000000000000000e+00,0.000000000000000000e+00,-6.057398292436033671e-01,-5.993947503837408070e-02,-1.073865143528868860e+00,-5.489758984355246341e-01
2.416666666666666519e+00,1.644628121721493244e+09,3.208877968350038606e-02,0.000000000000000000e+00,0.000000000000000000e+00,-6.057398292436033671e-01,-9.894371842538164652e-02,-1.082952583166871596e+00,-5.415375207712783689e-01
2.433333333333333126e+00,1.644628121739914894e+09,3.280141888565321628e-02,0.000000000000000000e+00,0.000000000000000000e+00,-5.736901028285972259e-01,-1.380131857674234686e-01,-1.091922473530561710e+00,-5.348678501703785226e-01
2.450000000000000178e+00,1.644628121756906033e+09,3.356970244442963880e-02,0.000000000000000000e+00,0.000000000000000000e+00,-6.057398292436033671e-01,-1.767978642060236416e-01,-1.100787480894940051e+00,-5.289494738761005843e-01
2.466666666666666785e+00,1.644628121772138834e+09,3.439538304684287839e-02,0.000000000000000000e+00,0.000000000000000000e+00,-6.057398292436033671e-01,-2.149477586439442756e-01,-1.109559935385955987e+00,-5.237594820291503472e-01
2.483333333333333393e+00,1.644628121789331913e+09,3.527967107152314014e-02,0.000000000000000000e+00,0.000000000000000000e+00,-6.057398292436033671e-01,-2.521166782905320813e-01,-1.118251740646847514e+00,-5.192696214064344007e-01
2.500000000000000000e+00,1.644628121808573246e+09,3.622320182633855662e-02,0.000000000000000000e+00,0.000000000000000000e+00,-6.057398292436033671e-01,-2.879660414565342608e-01,-1.126874286571078354e+00,-5.154465095064791891e-01
2.516666666666666607e+00,1.644628121822535038e+09,3.722600776562259156e-02,0.000000000000000000e+00,0.000000000000000000e+00,-5.736901028285972259e-01,-3.221686560237055907e-01,-1.135438366095956608e+00,-5.122519075819961243e-01
2.533333333333333215e+00,1.644628121841484785e+09,3.828749611819121101e-02,0.000000000000000000e+00,0.000000000000000000e+00,-6.057398292436033671e-01,-3.544124324809317939e-01,-1.143954097021931515e+00,-5.096430505307033565e-01
2.549999999999999822e+00,1.644628121856974602e+09,3.940643231670400148e-02,0.000000000000000000e+00,0.000000000000000000e+00,-5.736901028285972259e-01,-3.844039863645706268e-01,-1.152430849782076550e+00,-5.075730308766344123e-01
2.566666666666666430e+00,1.644628121873240948e+09,4.058092957359881597e-02,-5.496380443809989469e-01,-5.496380443809989469e-01,-6.057398292436033671e-01,-4.118720873758505152e-01,-1.160953098315562260e+00,-5.150759512057628831e-01
2.583333333333333481e+00,1.644628121890723705e+09,4.180844489912696055e-02,0.000000000000000000e+00,0.000000000000000000e+00,-6.057398292436033671e-01,-4.365709133767963213e-01,-1.169526854347328282e+00,-5.137783770636101810e-01
2.600000000000000089e+00,1.644628121907528162e+09,4.308578180330045054e-02,0.000000000000000000e+00,0.000000000000000000e+00,-6.057398292436033671e-01,-4.582830688869777291e-01,-1.178082162258732524e+00,-5.128611203003222707e-01
2.616666666666666696e+00,1.644628121925516129e+09,4.440909986625986294e-02,0.000000000000000000e+00,0.000000000000000000e+00,-6.057398292436033671e-01,-4.768223296094301622e-01,-1.186624869901318657e+00,-5.122654514845599305e-01
2.633333333333333304e+00,1.644628121942438841e+09,4.577393130112682174e-02,0.000000000000000000e+00,0.000000000000000000e+00,-6.057398292436033671e-01,-4.920360768929782358e-01,-1.195159833334748845e+00,-5.119310893326793899e-01
2.649999999999999911e+00,1.644628121962384462e+09,4.717520457031908199e-02,0.000000000000000000e+00,0.000000000000000000e+00,-6.057398292436033671e-01,-5.038073888716139148e-01,-1.203690896107399100e+00,-5.117968163745560961e-01
2.666666666666666519e+00,1.644628121975383759e+09,4.860727505111150232e-02,0.000000000000000000e+00,0.000000000000000000e+00,-6.057398292436033671e-01,-5.120567582860966471e-01,-1.212220878950281522e+00,-5.118011128364419182e-01
2.683333333333333126e+00,1.644628121992355824e+09,5.006396267946646578e-02,-1.093023245572831925e+00,-1.093023245572831925e+00,-5.736901028285972259e-01,-5.167434106594990251e-01,-1.220902549046262608e+00,-5.299488870109997363e-01
2.700000000000000178e+00,1.644628122010308743e+09,5.153859643344584074e-02,-1.071239429043983504e+00,-1.071239429043983504e+00,-5.736901028285972259e-01,-5.178662005331196028e-01,-1.229881321754217938e+00,-5.474552081293295736e-01
2.716666666666666785e+00,1.644628122026265383e+09,5.302406544941760252e-02,-8.957586847838147071e-01,-8.957586847838147071e-01,-6.057398292436033671e-01,-5.154640678331972037e-01,-1.239124879227279763e+00,-5.617320298665511302e-01
2.733333333333333393e+00,1.644628122044216633e+09,5.451287649644957073e-02,9.302919844747399303e-01,9.302919844747399303e-01,-6.057398292436033671e-01,-5.096160410889940540e-01,-1.248351389045596838e+00,-5.454942543251384279e-01
2.750000000000000000e+00,1.644628122060174942e+09,5.599721746732989891e-02,1.074964041008238613e+00,1.074964041008238613e+00,-6.057398292436033671e-01,-5.004407791118937743e-01,-1.257288262572818782e+00,-5.269819930996439972e-01
2.766666666666666607e+00,1.644628122078332424e+09,5.746902647923288199e-02,1.049998509128563962e+00,1.049998509128563962e+00,-5.736901028285972259e-01,-4.880956478224117712e-01,-1.265920898471733391e+00,-5.089843095122934535e-01
2.783333333333333215e+00,1.644628122096284151e+09,5.892006611377723774e-02,1.195310707505131687e+00,1.195310707505131687e+00,-6.057398292436033671e-01,-4.727753341235884088e-01,-1.274233872183844207e+00,-4.886290795771570106e-01
2.799999999999999822e+00,1.644628122113240242e+09,6.034200226572673104e-02,1.370069430662853582e+00,1.370069430662853582e+00,-6.057398292436033671e-01,-4.547100040089945838e-01,-1.282183770583766425e+00,-4.654231907330038664e-01
2.816666666666666430e+00,1.644628122129230976e+09,6.172648701248978353e-02,1.440485033400397130e+00,1.440485033400397130e+00,-6.057398292436033671e-01,-4.341630174031446687e-01,-1.289737545580337708e+00,-4.410973821364783110e-01
2.833333333333333481e+00,1.644628122147183418e+09,6.306524486345219116e-02,1.670295955062017113e+00,1.670295955062017113e+00,-6.057398292436033671e-01,-4.114282175022966892e-01,-1.296854368585379724e+00,-4.129994301721077177e-01
2.850000000000000089e+00,1.644628122165136337e+09,6.435016169962060051e-02,1.789362337872773212e+00,1.789362337872773212e+00,-6.057398292436033671e-01,-3.868268175541093035e-01,-1.303486929828320040e+00,-3.829912769238562609e-01
2.866666666666666696e+00,1.644628122182237148e+09,6.557337567058614536e-02,1.900747018566705471e+00,1.900747018566705471e+00,-6.057398292436033671e-01,-3.607039130256113890e-01,-1.309604507308606225e+00,-3.512063143512185737e-01
2.883333333333333304e+00,1.644628122197803736e+09,6.672736927794375994e-02,2.136319216815942390e+00,2.136319216815942390e+00,-6.057398292436033671e-01,-3.334246519009648746e-01,-1.315160420392847973e+00,-3.156021585183938494e-01
2.899999999999999911e+00,1.644628122215335846e+09,6.780506184249332491e-02,2.332842762637996170e+00,2.332842762637996170e+00,-5.736901028285972259e-01,-3.053701003657208202e-01,-1.320096829704780150e+00,-2.768745381685904783e-01
2.916666666666666519e+00,1.644628122233289719e+09,6.879990152720931451e-02,2.524885315558569765e+00,2.524885315558569765e+00,-5.736901028285972259e-01,-2.769328453168612980e-01,-1.324362674974705723e+00,-2.351428183946364103e-01
2.933333333333333126e+00,1.644628122250244617e+09,6.970595606946475287e-02,2.047339500629409947e+00,2.047339500629409947e+00,-5.736901028285972259e-01,-2.485123789346447287e-01,-1.328000789004932125e+00,-2.015242523361639448e-01
2.950000000000000178e+00,1.644628122267199278e+09,7.051800136465503910e-02,2.044138791414067402e+00,2.044138791414067402e+00,-6.057398292436033671e-01,-2.205103139135836665e-01,-1.331079811438330207e+00,-1.680514219444244062e-01
2.966666666666666785e+00,1.644628122283200502e+09,7.123160703941981697e-02,2.245143330137601367e+00,2.245143330137601367e+00,-6.057398292436033671e-01,-1.933254808297084071e-01,-1.333574059019341007e+00,-1.313602102082819800e-01
2.983333333333333393e+00,1.644628122300146580e+09,7.184321815632019326e-02,2.212496096141103319e+00,2.212496096141103319e+00,-5.736901028285972259e-01,-1.673489614787936064e-01,-1.335462775575657624e+00,-9.538570807426011156e-02
3.000000000000000000e+00,1.644628122318623304e+09,7.235023220320413451e-02,3.145822903335091514e+00,3.145822903335091514e+00,-5.736901028285972259e-01,-1.429591138189092447e-01,-1.336624605610350791e+00,-4.417614821429718258e-02
3.016666666666666607e+00,1.644628122333584547e+09,7.275107053965193527e-02,3.125338364356897269e+00,3.125338364356897269e+00,-6.057398292436033671e-01,-1.205166453603110227e-01,-1.336939745640474575e+00,6.219353799102940450e-03
3.033333333333333215e+00,1.644628122351503372e+09,7.304524349983185227e-02,2.960181768845203898e+00,2.960181768845203898e+00,-6.057398292436033671e-01,-1.003597924416708559e-01,-1.336441948725723305e+00,5.338525649107713628e-02
3.049999999999999822e+00,1.644628122368492842e+09,7.323340838572470202e-02,3.246965314539926872e+00,3.246965314539926872e+00,-5.736901028285972259e-01,-8.279966279586291333e-02,-1.335122531910489796e+00,1.048019338715781013e-01
3.066666666666666430e+00,1.644628122385445118e+09,7.331741962685690839e-02,3.453731129851078219e+00,3.453731129851078219e+00,-6.057398292436033671e-01,-6.811579812958243330e-02,-1.332922685429087650e+00,1.590290095855343144e-01
3.083333333333333481e+00,1.644628122402399540e+09,7.330037043219377046e-02,3.817971838557099318e+00,3.817971838557099318e+00,-6.057398292436033671e-01,-5.655201211463606326e-02,-1.329774637918881952e+00,2.185712925160362696e-01
3.100000000000000089e+00,1.644628122419357300e+09,7.318662531640042490e-02,4.286555667683298765e+00,4.286555667683298765e+00,-6.057398292436033671e-01,-4.831255721731580327e-02,-1.325576583966419086e+00,2.850106237380063412e-01
3.116666666666666696e+00,1.644628122435315609e+09,7.298184294592131860e-02,3.564475668701942546e+00,3.564475668701942546e+00,-6.057398292436033671e-01,-4.355867118592469944e-02,-1.320379461901148632e+00,3.384954516313362638e-01
3.133333333333333304e+00,1.644628122452265263e+09,7.269298881984234684e-02,3.634891271439485649e+00,3.634891271439485649e+00,-5.736901028285972259e-01,-4.240555079220668239e-02,-1.314288428281022547e+00,3.922791800219980751e-01
3.149999999999999911e+00,1.644628122470218420e+09,7.232833737580018907e-02,3.897989568940671834e+00,3.897989568940671834e+00,-5.736901028285972259e-01,-4.491979660457011414e-02,-1.307272435823877421e+00,4.494810171037879054e-01
3.166666666666666519e+00,1.644628122486179113e+09,7.189746319173849487e-02,3.933197370309443830e+00,3.933197370309443830e+00,-6.057398292436033671e-01,-5.111736819068154331e-02,-1.299306973254235942e+00,5.062168879027925117e-01
3.183333333333333126e+00,1.644628122503355980e+09,7.141122103949747169e-02,3.757158363465584294e+00,3.757158363465584294e+00,-6.057398292436033671e-01,-6.096208424248093088e-02,-1.290429423577285739e+00,5.589426095462273203e-01
3.200000000000000178e+00,1.644628122520443678e+09,7.088171463538532613e-02,3.828854249889265482e+00,3.828854249889265482e+00,-5.736901028285972259e-01,-7.436469673225447330e-02,-1.280672342879844550e+00,6.117603547347363335e-01
3.216666666666666785e+00,1.644628122536823273e+09,7.032225402534993119e-02,3.801328150637316217e+00,3.801328150637316217e+00,-6.057398292436033671e-01,-9.118256239488919945e-02,-1.270048386453141775e+00,6.629721581120741059e-01
3.233333333333333393e+00,1.644628122554806948e+09,6.974730163737241639e-02,3.552953115526707784e+00,3.552953115526707784e+00,-6.057398292436033671e-01,-1.112199286449445657e-01,-1.258615046624791844e+00,7.089010380650868637e-01
3.250000000000000000e+00,1.644628122570764303e+09,6.917240713050042122e-02,3.045320633973325197e+00,3.045320633973325197e+00,-5.736901028285972259e-01,-1.342288445390887874e-01,-1.246495861638298175e+00,7.453000495691638472e-01
3.266666666666666607e+00,1.644628122587565184e+09,6.861413126768686754e-02,2.547930421909038401e+00,2.547930421909038401e+00,-5.736901028285972259e-01,-1.599107006506957362e-01,-1.233847300884755249e+00,7.724518175032599743e-01
3.283333333333333215e+00,1.644628122605589390e+09,6.808995913750603979e-02,2.544089570850627702e+00,2.544089570850627702e+00,-6.057398292436033671e-01,-1.879183948035864637e-01,-1.220754359818335244e+00,7.986283960376239222e-01
3.299999999999999822e+00,1.644628122622092485e+09,6.761820314701245949e-02,2.379573117182002484e+00,2.379573117182002484e+00,-6.057398292436033671e-01,-2.178591135891281005e-01,-1.207255616486785588e+00,8.211582194326221273e-01
3.316666666666666430e+00,1.644628122640042782e+09,6.721789630365133938e-02,2.412860493021568242e+00,2.412860493021568242e+00,-6.057398292436033671e-01,-2.492977125402138228e-01,-1.193384232575115389e+00,8.433462151956411246e-01
3.333333333333333481e+00,1.644628122657018661e+09,6.690867639736100547e-02,2.361009003733014033e+00,2.361009003733014033e+00,-6.057398292436033671e-01,-2.817606708343362021e-01,-1.179157758904677999e+00,8.637738804068483267e-01
3.350000000000000089e+00,1.644628122674181938e+09,6.671066178398887825e-02,1.816248295281652769e+00,1.816248295281652769e+00,-6.057398292436033671e-01,-3.147405895234556272e-01,-1.164673443450395585e+00,8.743146933818691791e-01
3.366666666666666696e+00,1.644628122691224098e+09,6.664431955702125598e-02,1.914830139114213958e+00,1.914830139114213958e+00,-6.057398292436033671e-01,-3.477011956186887298e-01,-1.150005840044111105e+00,8.857659057005100589e-01
3.383333333333333304e+00,1.644628122709245443e+09,6.673032697561190330e-02,1.989086592910169538e+00,1.989086592910169538e+00,-5.736901028285972259e-01,-3.800828079696187412e-01,-1.135143180972347121e+00,8.977199763777552466e-01
3.399999999999999911e+00,1.644628122724879742e+09,6.698942709218491665e-02,2.101751557290238992e+00,2.101751557290238992e+00,-5.736901028285972259e-01,-4.113082148466104537e-01,-1.120071690019184052e+00,9.108225411319860187e-01
3.416666666666666519e+00,1.644628122743029356e+09,6.744227959173269837e-02,2.154883330264931285e+00,2.154883330264931285e+00,-6.057398292436033671e-01,-4.407889075322745653e-01,-1.104780366020554627e+00,9.240994575122343235e-01
3.433333333333333126e+00,1.644628122760988235e+09,6.810930791664346340e-02,1.907148436997391228e+00,1.907148436997391228e+00,-5.736901028285972259e-01,-4.679316091243736486e-01,-1.089307560127127816e+00,9.326135987500243640e-01
3.449999999999999734e+00,1.644628122776359081e+09,6.901054380478746642e-02,1.822649713712338748e+00,1.822649713712338748e+00,-5.736901028285972259e-01,-4.921450332119322035e-01,-1.073709043233213256e+00,9.391901598644498694e-01
3.466666666666666785e+00,1.644628122793267012e+09,7.016547041410257923e-02,1.795763756303458303e+00,1.795763756303458303e+00,-5.736901028285972259e-01,-5.128468031689862316e-01,-1.058008398185942944e+00,9.448714640360873496e-01
3.483333333333333393e+00,1.644628122809450388e+09,7.159286524346963887e-02,1.782960919442087233e+00,1.782960919442087233e+00,-5.736901028285972259e-01,-5.294704595702323102e-01,-1.042217913842311328e+00,9.499724873569866945e-01
3.500000000000000000e+00,1.644628122827402592e+09,7.331064408682969047e-02,1.694621345098623166e+00,1.694621345098623166e+00,-6.057398292436033671e-01,-5.414724807180404387e-01,-1.026356976230454521e+00,9.533306974848062554e-01
3.516666666666666607e+00,1.644628122843340635e+09,7.533570727483103469e-02,1.562752125426495553e+00,1.562752125426495553e+00,-5.736901028285972259e-01,-5.483392395208974701e-01,-1.010459694570031486e+00,9.543402972561432218e-01
3.533333333333333215e+00,1.644628122860293150e+09,7.768378946551701691e-02,1.397595529914802404e+00,1.397595529914802404e+00,-6.057398292436033671e-01,-5.495938190130722489e-01,-9.945687104877029006e-01,9.525826750221768613e-01
3.549999999999999822e+00,1.644628122876393080e+09,8.036931424241598731e-02,1.216435388326394529e+00,1.216435388326394529e+00,-6.057398292436033671e-01,-5.448026086784945043e-01,-9.787311375104016387e-01,9.479389817056739220e-01
3.566666666666666430e+00,1.644628122895344019e+09,8.340525476473291400e-02,1.055119643873112745e+00,1.055119643873112745e+00,-5.736901028285972259e-01,-5.335816044556526139e-01,-9.629910491928843630e-01,9.408911940451143430e-01
3.583333333333333481e+00,1.644628122911301136e+09,8.680300169010184141e-02,9.136482965549567181e-01,9.136482965549567181e-01,-5.736901028285972259e-01,-5.156023368617084213e-01,-9.473845073467652700e-01,9.319187515272160383e-01
3.600000000000000089e+00,1.644628122927293062e+09,9.057223955554885575e-02,9.808631900771574985e-01,9.808631900771574985e-01,-6.057398292436033671e-01,-4.905973540823547752e-01,-9.319135294757103782e-01,9.246188709227411984e-01
3.616666666666666696e+00,1.644628122945281506e+09,9.472083275708285954e-02,7.824192187258979247e-01,7.824192187258979247e-01,-6.057398292436033671e-01,-4.583651901179854327e-01,-9.165861652760164402e-01,9.146924071998457917e-01
3.633333333333333304e+00,1.644628122963989496e+09,9.925472221283972163e-02,8.573158143649217688e-01,8.573158143649217688e-01,-6.057398292436033671e-01,-4.187747521373426096e-01,-9.014070580840390923e-01,9.068223177116614409e-01
3.649999999999999911e+00,1.644628122979758024e+09,1.041778337292969259e-01,9.309321263178084171e-01,9.309321263178084171e-01,-6.057398292436033671e-01,-3.717690660376437584e-01,-8.863413716589531033e-01,9.010760156245781749e-01
3.666666666666666519e+00,1.644628122995924711e+09,1.094919990150939326e-01,1.052559076500838575e+00,1.052559076500838575e+00,-5.736901028285972259e-01,-3.173683248077264207e-01,-8.713463502206363342e-01,8.983341733811466279e-01
3.683333333333333126e+00,1.644628123015411854e+09,1.151968902029458092e-01,1.070483048106758650e+00,1.070483048106758650e+00,-5.736901028285972259e-01,-2.556721905911187309e-01,-8.563856502796802772e-01,8.969536543987846056e-01
3.699999999999999734e+00,1.644628123032445192e+09,1.212899686475502198e-01,8.733193604416363831e-01,8.733193604416363831e-01,-5.736901028285972259e-01,-1.868613082946051218e-01,-8.414654964639814994e-01,8.934744681188696580e-01
3.716666666666666785e+00,1.644628123049398899e+09,1.277664486669418120e-01,9.187694312995055013e-01,9.187694312995055013e-01,-6.057398292436033671e-01,-1.111979961215396051e-01,-8.265861202984399192e-01,8.920546158729608655e-01
3.733333333333333393e+00,1.644628123065360069e+09,1.346192767870908469e-01,1.090967587084953117e+00,1.090967587084953117e+00,-6.057398292436033671e-01,-2.902608645821120464e-02,-8.116950785059330320e-01,8.948625990908997130e-01
3.750000000000000000e+00,1.644628123082751513e+09,1.418391269355614437e-01,8.637172327956075257e-01,8.637172327956075257e-01,-5.736901028285972259e-01,5.923010097131812396e-02,-7.967768227768511347e-01,8.953267989245998759e-01
3.766666666666666607e+00,1.644628123098744869e+09,1.494144119104662272e-01,1.239480494676863387e+00,1.239480494676863387e+00,-6.057398292436033671e-01,1.530676629238200137e-01,-7.817860329992816215e-01,9.035451451070417583e-01
3.783333333333333215e+00,1.644628123115699053e+09,1.573313113268217656e-01,1.195310707505131687e+00,1.195310707505131687e+00,-6.057398292436033671e-01,2.519078935607909076e-01,-7.666518547984831899e-01,9.125312769240087052e-01
3.799999999999999822e+00,1.644628123132938385e+09,1.655738161145825227e-01,1.312456664786681548e+00,1.312456664786681548e+00,-5.736901028285972259e-01,3.550999333244379552e-01,-7.513387157089848056e-01,9.250107478030289432e-01
3.816666666666666430e+00,1.644628123149929762e+09,1.741237895121789114e-01,1.325259501648053284e+00,1.325259501648053284e+00,-6.057398292436033671e-01,4.619252672481707345e-01,-7.358027860062742453e-01,9.392612309152554850e-01
3.833333333333333481e+00,1.644628123165524006e+09,1.829610443673401754e-01,1.366868721447510815e+00,1.366868721447510815e+00,-5.736901028285972259e-01,5.716030448385533980e-01,-7.200104206999640155e-01,9.557767283803796365e-01
3.850000000000000089e+00,1.644628123184532881e+09,1.920634364244180048e-01,1.519222480097832229e+00,1.519222480097832229e+00,-6.057398292436033671e-01,6.832961844387395178e-01,-7.039086079419808462e-01,9.763835600313393037e-01
3.866666666666666696e+00,1.644628123200421810e+09,2.014069731454352363e-01,1.400156097287076573e+00,1.400156097287076573e+00,-6.057398292436033671e-01,7.961182159750674892e-01,-6.874670566885986434e-01,9.965465806656594872e-01
3.883333333333333304e+00,1.644628123218470812e+09,2.109659374817827449e-01,1.500658366648843334e+00,1.500658366648843334e+00,-6.057398292436033671e-01,9.091408072978971466e-01,-6.706627478574813672e-01,1.019905591400321221e+00
3.899999999999999911e+00,1.644628123235424995e+09,2.207130258859847927e-01,1.580035955189347474e+00,1.580035955189347474e+00,-6.057398292436033671e-01,1.021401911052685962e+00,-6.534458793072025484e-01,1.046046020620742922e+00
3.916666666666666519e+00,1.644628123252361059e+09,2.306194997293261051e-01,1.669655813218948515e+00,1.669655813218948515e+00,-6.057398292436033671e-01,1.131914461252377491e+00,-6.357693050776256349e-01,1.075062284299021398e+00
3.933333333333333126e+00,1.644628123268766403e+09,2.406553491725107186e-01,1.653652267142234011e+00,1.653652267142234011e+00,-6.057398292436033671e-01,1.239675541558209693e+00,-6.176004605978161477e-01,1.105115569964219224e+00
3.949999999999999734e+00,1.644628123284765482e+09,2.507894684238991534e-01,1.588997940992307845e+00,1.588997940992307845e+00,-5.736901028285972259e-01,1.343675940799140767e+00,-5.989294444991506428e-01,1.135322451895411255e+00
3.966666666666666785e+00,1.644628123301720619e+09,2.609898412143448199e-01,1.576835245974004707e+00,1.576835245974004707e+00,-5.736901028285972259e-01,1.442910005550256836e+00,-5.797471262168697459e-01,1.166469221138534573e+00
3.983333333333333393e+00,1.644628123317554474e+09,2.712237352200952412e-01,1.838013117945984876e+00,1.838013117945984876e+00,-6.057398292436033671e-01,1.536385694721059236e+00,-5.600010121943522767e-01,1.202963087327134639e+00
4.000000000000000000e+00,1.644628123337627411e+09,2.814579040766844731e-01,1.726628437252051951e+00,1.726628437252051951e+00,-6.057398292436033671e-01,1.623134737140746076e+00,-5.396551103063498278e-01,1.238446571679012065e+00
4.016666666666666607e+00,1.644628123353580952e+09,2.916587955479446603e-01,1.428322338382094436e+00,1.428322338382094436e+00,-5.736901028285972259e-01,1.702222790127017715e+00,-5.187529965149275668e-01,1.269720210029408269e+00
4.033333333333333215e+00,1.644628123370755911e+09,3.017927643461127962e-01,1.176106452213074194e+00,1.176106452213074194e+00,-6.057398292436033671e-01,1.772759495034466282e+00,-4.973590685673675016e-01,1.297474047869307201e+00
4.049999999999999822e+00,1.644628123385458708e+09,3.118262880421250327e-01,1.265726310242675234e+00,1.265726310242675234e+00,-6.057398292436033671e-01,1.833908324837111747e+00,-4.754855857833473198e-01,1.327261142336616739e+00
4.066666666666666430e+00,1.644628123402759552e+09,3.217261844602471443e-01,1.855296947708836131e+00,1.855296947708836131e+00,-6.057398292436033671e-01,1.884896118933518272e+00,-4.530312913830351063e-01,1.367143399047010321e+00
4.083333333333333037e+00,1.644628123420372009e+09,3.314598289186977409e-01,1.802165174734144282e+00,1.802165174734144282e+00,-6.057398292436033671e-01,1.925022201589450477e+00,-4.299195976138495134e-01,1.406151494883217890e+00
4.099999999999999645e+00,1.644628123437293530e+09,3.409953696583209459e-01,1.825210281084613140e+00,1.825210281084613140e+00,-6.057398292436033671e-01,1.953666982756713688e+00,-4.061560172986655726e-01,1.445369202298722788e+00
4.116666666666666252e+00,1.644628123453597307e+09,3.503019397949745928e-01,1.829691273986093325e+00,1.829691273986093325e+00,-6.057398292436033671e-01,1.970299943422227473e+00,-3.817413090260713404e-01,1.484287680982933955e+00
4.133333333333332860e+00,1.644628123470549583e+09,3.593498641383665038e-01,1.528184465900792599e+00,1.528184465900792599e+00,-6.057398292436033671e-01,1.974486912129963745e+00,-3.567244008463375526e-01,1.517648629103712787e+00
4.150000000000000355e+00,1.644628123488553286e+09,3.681108592406954760e-01,1.645970565025411281e+00,1.645970565025411281e+00,-6.057398292436033671e-01,1.965896544851334804e+00,-3.311410025264232559e-01,1.552263015948410985e+00
4.166666666666666963e+00,1.644628123505593538e+09,3.765582250726084435e-01,1.789362337872773212e+00,1.789362337872773212e+00,-5.736901028285972259e-01,1.944305926915957716e+00,-3.049686554791882220e-01,1.588318473314321411e+00
4.183333333333333570e+00,1.644628123521895409e+09,3.846670267716441605e-01,1.804085600263350075e+00,1.804085600263350075e+00,-6.057398292436033671e-01,1.909605223202641255e+00,-2.782031234344470305e-01,1.623447788327346819e+00
4.200000000000000178e+00,1.644628123537852526e+09,3.924142649691491069e-01,1.524343614842381234e+00,1.524343614842381234e+00,-5.736901028285972259e-01,1.861801311167190054e+00,-2.509021956874661341e-01,1.652582609347192033e+00
4.216666666666666785e+00,1.644628123555759668e+09,3.997790332754005416e-01,1.187629005388308512e+00,1.187629005388308512e+00,-6.057398292436033671e-01,1.801020340476428894e+00,-2.231746139940396501e-01,1.674665850084844587e+00
4.233333333333333393e+00,1.644628123572778940e+09,4.067426615888187214e-01,7.708966655506634957e-01,7.708966655506634957e-01,-5.736901028285972259e-01,1.727509172944188709e+00,-1.951497411144038630e-01,1.688281074513456437e+00
4.250000000000000000e+00,1.644628123589734316e+09,4.132888439931851621e-01,7.836995024120351205e-01,7.836995024120351205e-01,-5.736901028285972259e-01,1.641635667033015666e+00,-1.669099209264855443e-01,1.700463507149622355e+00
4.266666666666666607e+00,1.644628123606017351e+09,4.194037501160048365e-01,7.260867365358630865e-01,7.260867365358630865e-01,-6.057398292436033671e-01,1.543887782296391897e+00,-1.384902013288886458e-01,1.709876696199229773e+00
4.283333333333333215e+00,1.644628123625509501e+09,4.250761189408030494e-01,0.000000000000000000e+00,0.000000000000000000e+00,-5.736901028285972259e-01,1.434871490682361639e+00,-1.100302402484404779e-01,1.705331259963487556e+00
4.299999999999999822e+00,1.644628123641676903e+09,4.302973341953737485e-01,0.000000000000000000e+00,0.000000000000000000e+00,-6.057398292436033671e-01,1.315307493489373147e+00,-8.166192285961837438e-02,1.698884734132821706e+00
4.316666666666666430e+00,1.644628123659595966e+09,4.350614805758175607e-01,0.000000000000000000e+00,0.000000000000000000e+00,-5.736901028285972259e-01,1.186026754839403896e+00,-5.341801349073937999e-02,1.690407937344599487e+00
4.333333333333333037e+00,1.644628123675676107e+09,4.393653802115901064e-01,0.000000000000000000e+00,0.000000000000000000e+00,-6.057398292436033671e-01,1.047964874691795334e+00,-2.533328242470357650e-02,1.679789287523427044e+00
4.349999999999999645e+00,1.644628123693392515e+09,4.432086089286225716e-01,0.000000000000000000e+00,0.000000000000000000e+00,-5.736901028285972259e-01,9.021553365383572221e-01,2.555798511359876068e-03,1.666936128863002908e+00
4.366666666666666252e+00,1.644628123710301161e+09,4.465934920246694140e-01,0.000000000000000000e+00,0.000000000000000000e+00,-5.736901028285972259e-01,7.497216768708461210e-01,3.021138120797050783e-02,1.651775907447573077e+00
4.383333333333332860e+00,1.644628123728254080e+09,4.495250794321630217e-01,0.000000000000000000e+00,0.000000000000000000e+00,-6.057398292436033671e-01,5.918686351702615589e-01,5.759458474411992268e-02,1.634257181164261441e+00
4.400000000000000355e+00,1.644628123745207787e+09,4.520111003076995315e-01,0.000000000000000000e+00,0.000000000000000000e+00,-6.057398292436033671e-01,4.298723544083668524e-01,8.466585419696609494e-02,1.614350450951554716e+00
4.416666666666666963e+00,1.644628123762162447e+09,4.540618972525310437e-01,-6.234609781732077805e-01,-6.234609781732077805e-01,-6.057398292436033671e-01,2.650697127542376297e-01,1.112992189759522965e-01,1.581743898415585603e+00
4.433333333333333570e+00,1.644628123780627966e+09,4.556903405337401347e-01,-8.618727479611612008e-01,-8.618727479611612008e-01,-6.057398292436033671e-01,9.884687722347164363e-02,1.373377565123907185e-01,1.542988263033518992e+00
4.450000000000000178e+00,1.644628123796587706e+09,4.569117228397534536e-01,-9.429569539296532854e-01,-9.429569539296532854e-01,-5.736901028285972259e-01,-6.737282071765043900e-02,1.627015620015527519e-01,1.500785627966901847e+00
4.466666666666666785e+00,1.644628123813515902e+09,4.577436352651086948e-01,-8.364582953441711544e-01,-8.364582953441711544e-01,-6.057398292436033671e-01,-2.321415791825265362e-01,1.873597709933473576e-01,1.458317421066329000e+00
4.483333333333333393e+00,1.644628123831469297e+09,4.582058253766095324e-01,-1.014359463663101257e+00,-1.014359463663101257e+00,-5.736901028285972259e-01,-3.940002736969736019e-01,2.112691144649416763e-01,1.410935415305400120e+00
4.500000000000000000e+00,1.644628123847484112e+09,4.583200383647844656e-01,-1.020410523810003856e+00,-1.020410523810003856e+00,-5.736901028285972259e-01,-5.514919366459135608e-01,2.343727136642813624e-01,1.361633441765128572e+00
4.516666666666666607e+00,1.644628123864633083e+09,4.581098424296041749e-01,-9.889450110461113219e-01,-9.889450110461113219e-01,-5.736901028285972259e-01,-7.031754409367910741e-01,2.566448183488271306e-01,1.311159329547534336e+00
4.533333333333333215e+00,1.644628123881147385e+09,4.576004396864543078e-01,-1.019200311780623203e+00,-1.019200311780623203e+00,-6.057398292436033671e-01,-8.476392564893269199e-01,2.780585270477896054e-01,1.258631628044072803e+00
4.549999999999999822e+00,1.644628123897973537e+09,4.568184640061277446e-01,-8.727646562255855223e-01,-8.727646562255855223e-01,-5.736901028285972259e-01,-9.835151454433272988e-01,2.986054877276010933e-01,1.207146670669779320e+00
4.566666666666666430e+00,1.644628123914028883e+09,4.557917673200038711e-01,-1.244299749245391329e+00,-1.244299749245391329e+00,-5.736901028285972259e-01,-1.109491660578213912e+00,3.182327603609474975e-01,1.148289541206039432e+00
4.583333333333333037e+00,1.644628123930967808e+09,4.545491960274517518e-01,-1.296338866508751853e+00,-1.296338866508751853e+00,-5.736901028285972259e-01,-1.224327311393085704e+00,3.368641613864217788e-01,1.087647037215534462e+00
4.599999999999999645e+00,1.644628123946861506e+09,4.531203592359128174e-01,-1.401627313064853109e+00,-1.401627313064853109e+00,-6.057398292436033671e-01,-1.326863263623394573e+00,3.544645251753055781e-01,1.024571830481846524e+00
4.616666666666666252e+00,1.644628123965736151e+09,4.515353906440917608e-01,-2.066033717194733832e+00,-2.066033717194733832e+00,-5.736901028285972259e-01,-1.416035440675278201e+00,3.709182628480078292e-01,9.500836068446441018e-01
4.633333333333332860e+00,1.644628123981005669e+09,4.498247059445006912e-01,-2.517442804153650737e+00,-2.517442804153650737e+00,-6.057398292436033671e-01,-1.490885899531732006e+00,3.860681312463165593e-01,8.681282600515789483e-01
4.650000000000000355e+00,1.644628123999989510e+09,4.480187576724702914e-01,-2.478716019213475175e+00,-2.478716019213475175e+00,-6.057398292436033671e-01,-1.550573359103945004e+00,3.998605018126276667e-01,7.871810665133107676e-01
4.666666666666666963e+00,1.644628124017548800e+09,4.461477894641535658e-01,-2.810314115263726098e+00,-2.810314115263726098e+00,-5.736901028285972259e-01,-1.594382765728130424e+00,4.122630814818092349e-01,7.013668721609316314e-01
4.683333333333333570e+00,1.644628124033751249e+09,4.442415917055386188e-01,-3.398477161542636793e+00,-3.398477161542636793e+00,-5.736901028285972259e-01,-1.621733788492290218e+00,4.231622621674538953e-01,6.067975089747048578e-01
4.700000000000000178e+00,1.644628124051681280e+09,4.423292605576869541e-01,-4.694614245009125497e+00,-4.694614245009125497e+00,-5.736901028285972259e-01,-1.632188146253578998e+00,4.323178817058115908e-01,4.921951829153021207e-01
4.716666666666666785e+00,1.644628124068721771e+09,4.404389623302022994e-01,-4.571172618012316669e+00,-4.571172618012316669e+00,-6.057398292436033671e-01,-1.625455678497151668e+00,4.395972711178915970e-01,3.816386552280643385e-01
4.733333333333333393e+00,1.644628124085491419e+09,4.385977051451908637e-01,-4.728500181831778448e+00,-4.728500181831778448e+00,-6.057398292436033671e-01,-1.601399083501380494e+00,4.450309144052406740e-01,2.707066908518293014e-01
4.750000000000000000e+00,1.644628124100708008e+09,4.368311197878380625e-01,-4.699455093126647220e+00,-4.699455093126647220e+00,-6.057398292436033671e-01,-1.560037259509761798e+00,4.486407382358366669e-01,1.627719944772931249e-01
4.766666666666666607e+00,1.644628124119070530e+09,4.351632515773682930e-01,-4.815635447947173020e+00,-4.815635447947173020e+00,-6.057398292436033671e-01,-1.501547197653760213e+00,4.504585902422599264e-01,5.566776504418766147e-02
4.783333333333333215e+00,1.644628124136042356e+09,4.336163650139769343e-01,-4.669199792392135784e+00,-4.669199792392135784e+00,-6.057398292436033671e-01,-1.426264389100840857e+00,4.505367889126363767e-01,-4.600150331773839030e-02
4.799999999999999822e+00,1.644628124152980089e+09,4.322107628638043320e-01,-4.845890748681684457e+00,-4.845890748681684457e+00,-6.057398292436033671e-01,-1.334681723186348812e+00,4.489227871875237086e-01,-1.473970427904262581e-01
4.816666666666666430e+00,1.644628124170931816e+09,4.309646212358075879e-01,-5.020161280912472712e+00,-5.020161280912472712e+00,-5.736901028285972259e-01,-1.227446867988559509e+00,4.456236056058776596e-01,-2.482246636904640869e-01
4.833333333333333037e+00,1.644628124186889410e+09,4.298938420822007167e-01,-5.308191743905026350e+00,-5.308191743905026350e+00,-6.057398292436033671e-01,-1.105358139778129134e+00,4.406349700819982007e-01,-3.501285262279705268e-01
4.849999999999999645e+00,1.644628124203516006e+09,4.290119244189403158e-01,-5.306981531875646141e+00,-5.306981531875646141e+00,-6.057398292436033671e-01,-9.693588828674690738e-01,4.339809633018146262e-01,-4.480801930268388800e-01
4.866666666666666252e+00,1.644628124221504450e+09,4.283298554154660875e-01,-4.354544664753211336e+00,-4.354544664753211336e+00,-6.057398292436033671e-01,-8.205303964498722458e-01,4.258600651948738491e-01,-5.262105459399495366e-01
4.883333333333332860e+00,1.644628124238458633e+09,4.278560223447166466e-01,-4.433208446662941782e+00,-4.433208446662941782e+00,-5.736901028285972259e-01,-6.600834598987335156e-01,4.164590818728369226e-01,-6.016977610606071281e-01
4.900000000000000355e+00,1.644628124253860235e+09,4.275961462165786542e-01,-4.100400138583311538e+00,-4.100400138583311538e+00,-6.057398292436033671e-01,-4.893485225401437710e-01,4.058799542749209621e-01,-6.676144444814153811e-01
4.916666666666666963e+00,1.644628124270309448e+09,4.275532377416376706e-01,-4.071355049878181198e+00,-4.071355049878181198e+00,-5.736901028285972259e-01,-3.097646379655883409e-01,3.942401356697520232e-01,-7.289932873403092151e-01
4.933333333333333570e+00,1.644628124288048267e+09,4.277275760888974432e-01,-3.659882959888818732e+00,-3.659882959888818732e+00,-6.057398292436033671e-01,-1.228672363660729128e-01,3.816684611194175458e-01,-7.794674493942228555e-01
4.950000000000000178e+00,1.644628124304431438e+09,4.281167107123504678e-01,-2.869614504703369207e+00,-2.869614504703369207e+00,-6.057398292436033671e-01,6.972515899901286784e-02,3.683982752823964923e-01,-8.128620859856077185e-01
4.966666666666666785e+00,1.644628124320499182e+09,4.287154863286358752e-01,-2.855091960350803149e+00,-2.855091960350803149e+00,-6.057398292436033671e-01,2.663251533736190613e-01,3.546052850031143899e-01,-8.422152091559453879e-01
4.983333333333333393e+00,1.644628124337715149e+09,4.295160909328927246e-01,-2.774007754382311841e+00,-2.774007754382311841e+00,-6.057398292436033671e-01,4.651915116317414944e-01,3.403657971839635366e-01,-8.664559920493040135e-01
5.000000000000000000e+00,1.644628124357641935e+09,4.305081265441378924e-01,-2.288712730600741097e+00,-2.288712730600741097e+00,-5.736901028285972259e-01,6.645448609842776744e-01,3.258202084405358301e-01,-8.789798677994840048e-01
5.016666666666666607e+00,1.644628124371191740e+09,4.288151697651181316e-01,-1.876030428581999532e+00,-1.876030428581999532e+00,-6.057398292436033671e-01,8.625839190828560321e-01,3.111519713775645624e-01,-8.812024058948317862e-01
5.033333333333333215e+00,1.644628124390182257e+09,4.272962737452354887e-01,-1.477870670915822915e+00,-1.477870670915822915e+00,-5.736901028285972259e-01,1.050487174598793150e+00,2.965279463068841714e-01,-8.737014390961018728e-01
5.049999999999999822e+00,1.644628124406096697e+09,4.259309402905674391e-01,-1.534750636296705828e+00,-1.534750636296705828e+00,-6.057398292436033671e-01,1.231035778197422159e+00,2.820449824862566457e-01,-8.642803895771290490e-01
5.066666666666666430e+00,1.644628124423566103e+09,4.246971531167901825e-01,-1.631567598647143402e+00,-1.631567598647143402e+00,-6.057398292436033671e-01,1.402630943170291689e+00,2.677280633202099858e-01,-8.537790813356965769e-01
5.083333333333333037e+00,1.644628124441554308e+09,4.235715993846639327e-01,-1.428251977711223475e+00,-1.428251977711223475e+00,-5.736901028285972259e-01,1.563760787644168593e+00,2.536350529017832311e-01,-8.374275907517206852e-01
5.099999999999999645e+00,1.644628124456811905e+09,4.225298993217999621e-01,-1.260032505627337374e+00,-1.260032505627337374e+00,-6.057398292436033671e-01,1.713013773883435675e+00,2.398561583047375545e-01,-8.160990083504067183e-01
5.116666666666666252e+00,1.644628124473769188e+09,4.215468419717107174e-01,-1.095443669631592787e+00,-1.095443669631592787e+00,-6.057398292436033671e-01,1.849091169071646945e+00,2.264713223364784311e-01,-7.901533807248133368e-01
5.133333333333332860e+00,1.644628124490617037e+09,4.205966250718596311e-01,-9.877347990167304470e-01,-9.877347990167304470e-01,-6.057398292436033671e-01,1.970818412137190334e+00,2.135470197027823092e-01,-7.608443512057762037e-01
5.150000000000000355e+00,1.644628124508573055e+09,4.196530970394515281e-01,-7.977315104039963689e-01,-7.977315104039963689e-01,-5.736901028285972259e-01,2.077155281901275075e+00,2.011480833671621393e-01,-7.271216853452013851e-01
5.166666666666666963e+00,1.644628124525524378e+09,4.186899990370482327e-01,-6.670286112309048443e-01,-6.670286112309048443e-01,-6.057398292436033671e-01,2.167204773540089224e+00,1.893370241014842859e-01,-6.903076900410370920e-01
5.183333333333333570e+00,1.644628124540445089e+09,4.176812050999479942e-01,0.000000000000000000e+00,0.000000000000000000e+00,-5.736901028285972259e-01,2.240220602949133610e+00,1.782366619642106742e-01,-6.418703178546112387e-01
5.200000000000000178e+00,1.644628124558578014e+09,4.166009583333591948e-01,0.000000000000000000e+00,0.000000000000000000e+00,-6.057398292436033671e-01,2.295613271954640489e+00,1.679445500324446283e-01,-5.933179847236011994e-01
5.216666666666666785e+00,1.644628124575614929e+09,4.154241012296070457e-01,6.639929777582109782e-01,6.639929777582109782e-01,-6.057398292436033671e-01,2.332954641302354304e+00,1.585518062303517273e-01,-5.339761139371654863e-01
5.233333333333333393e+00,1.644628124592899323e+09,4.141262982134922832e-01,7.792185095105552683e-01,7.792185095105552683e-01,-5.736901028285972259e-01,2.351980972831057670e+00,1.501584402135740237e-01,-4.733960898813608931e-01
5.250000000000000000e+00,1.644628124610851288e+09,4.126842485969762775e-01,8.758799278139105526e-01,8.758799278139105526e-01,-6.057398292436033671e-01,2.352594417065409615e+00,1.427798095737938533e-01,-4.122095534935920624e-01
5.266666666666666607e+00,1.644628124627806187e+09,4.110758882120790214e-01,8.982848923213109238e-01,8.982848923213109238e-01,-6.057398292436033671e-01,2.334862937494313062e+00,1.364131489296116495e-01,-3.519570956858161237e-01
5.283333333333333215e+00,1.644628124643763304e+09,4.092805780923073899e-01,9.827836156063634032e-01,9.827836156063634032e-01,-5.736901028285972259e-01,2.299018677890420026e+00,1.310490939948232014e-01,-2.918963358594146573e-01
5.299999999999999822e+00,1.644628124660718441e+09,4.072792786875200632e-01,1.151140920333399542e+00,1.151140920333399542e+00,-6.057398292436033671e-01,2.245454794025873113e+00,1.266936114262604551e-01,-2.309309247181973723e-01
5.316666666666666430e+00,1.644628124678551435e+09,4.050547082236157781e-01,1.226677657815491873e+00,1.226677657815491873e+00,-6.057398292436033671e-01,2.174720785902751974e+00,1.233464618257533313e-01,-1.708938010557195242e-01
5.333333333333333037e+00,1.644628124695509195e+09,4.025914839560653102e-01,1.322698934275778671e+00,1.322698934275778671e+00,-6.057398292436033671e-01,2.087516380999362209e+00,1.209928563861759204e-01,-1.117032736948897625e-01
5.349999999999999645e+00,1.644628124711789846e+09,3.998762452137279433e-01,1.181867728800691575e+00,1.181867728800691575e+00,-6.057398292436033671e-01,1.984684032896145034e+00,1.195839293791708946e-01,-5.751848399293746361e-02
5.366666666666666252e+00,1.644628124728690386e+09,3.968977572855196811e-01,1.047437941756289792e+00,1.047437941756289792e+00,-6.057398292436033671e-01,1.867200112851941096e+00,1.190358037234206939e-01,-8.393057427050085173e-03
5.383333333333332860e+00,1.644628124746320963e+09,3.936469953660409193e-01,1.137057799785890833e+00,1.137057799785890833e+00,-5.736901028285972259e-01,1.736164884324614910e+00,1.192939296370342656e-01,3.923586139451143429e-02
5.400000000000000355e+00,1.644628124762029886e+09,3.901172079458282704e-01,1.202992409621954417e+00,1.202992409621954417e+00,-5.736901028285972259e-01,1.592791361949325246e+00,1.203285964330677443e-01,8.479759079133261657e-02
5.416666666666666963e+00,1.644628124779028893e+09,3.863039592061865424e-01,1.199791700406611428e+00,1.199791700406611428e+00,-5.736901028285972259e-01,1.438393166991050132e+00,1.220945647376348447e-01,1.270013702767265329e-01
5.433333333333333570e+00,1.644628124796279669e+09,3.822051501560471132e-01,1.256764324439715086e+00,1.256764324439715086e+00,-6.057398292436033671e-01,1.274371500674492008e+00,1.245433144927429459e-01,1.667382176068551991e-01
5.450000000000000178e+00,1.644628124814208031e+09,3.778210184276614148e-01,1.207473402523434602e+00,1.207473402523434602e+00,-6.057398292436033671e-01,1.102201364973139697e+00,1.276182682517248979e-01,2.021578433061494706e-01
5.466666666666666785e+00,1.644628124830959797e+09,3.731541168276297782e-01,1.078164750223581603e+00,1.078164750223581603e+00,-6.057398292436033671e-01,9.234171673327677965e-01,1.312361029911569277e-01,2.318997071926565956e-01
5.483333333333333393e+00,1.644628124849174976e+09,3.682092709183487633e-01,1.218355813855600545e+00,1.218355813855600545e+00,-6.057398292436033671e-01,7.395978513465572002e-01,1.353395015449660177e-01,2.604288697255501273e-01
5.500000000000000000e+00,1.644628124864811659e+09,3.629935160810192629e-01,9.482159560806598941e-01,9.482159560806598941e-01,-5.736901028285972259e-01,5.523516995371027249e-01,1.398512712949594727e-01,2.809265609025193844e-01
5.516666666666666607e+00,1.644628124881837368e+09,3.575160146834377994e-01,9.443751050222485288e-01,9.443751050222485288e-01,-6.057398292436033671e-01,3.633009570973546043e-01,1.446751957967613300e-01,2.978972374360442377e-01
5.533333333333333215e+00,1.644628124898792267e+09,3.517879541424430156e-01,9.533370908252087883e-01,9.533370908252087883e-01,-6.057398292436033671e-01,1.740664266730228560e-01,1.497547215753306515e-01,3.116077702824454065e-01
5.549999999999999822e+00,1.644628124916743994e+09,3.458224268309393334e-01,8.477136867188930225e-01,8.477136867188930225e-01,-6.057398292436033671e-01,-1.374781597651886234e-02,1.550203327748485849e-01,3.202415902619670240e-01
5.566666666666666430e+00,1.644628124933926344e+09,3.396342929312707315e-01,6.339063111339876544e-01,6.339063111339876544e-01,-6.057398292436033671e-01,-1.985694373169942795e-01,1.603735896305418795e-01,3.221439479698902653e-01
5.583333333333333037e+00,1.644628124950881004e+09,3.332400274795259687e-01,0.000000000000000000e+00,0.000000000000000000e+00,-5.736901028285972259e-01,-3.788724474236763173e-01,1.656458306957213078e-01,3.105571661143162188e-01
5.599999999999999645e+00,1.644628124967193127e+09,3.266575529775542774e-01,0.000000000000000000e+00,0.000000000000000000e+00,-5.736901028285972259e-01,-5.531912470414610539e-01,1.707024821024825945e-01,2.962806605901972534e-01
5.616666666666666252e+00,1.644628124985141993e+09,3.199060590703565743e-01,0.000000000000000000e+00,0.000000000000000000e+00,-5.736901028285972259e-01,-7.201339859058341064e-01,1.755001054141835659e-01,2.794808041800657117e-01
5.633333333333332860e+00,1.644628125000102282e+09,3.130058108948255424e-01,0.000000000000000000e+00,0.000000000000000000e+00,-6.057398292436033671e-01,-8.783951051729337323e-01,1.799981924188381044e-01,2.603427987558623036e-01
5.650000000000000355e+00,1.644628125016808987e+09,3.059779478008421982e-01,0.000000000000000000e+00,0.000000000000000000e+00,-5.736901028285972259e-01,-1.026766945305340073e+00,1.841594628246887300e-01,2.390687459282560268e-01
5.666666666666666963e+00,1.644628125034144402e+09,2.988442742266854135e-01,0.000000000000000000e+00,0.000000000000000000e+00,-5.736901028285972259e-01,-1.164150310407543021e+00,1.879501286072660093e-01,2.158755749722197081e-01
5.683333333333333570e+00,1.644628125049023390e+09,2.916270445767699115e-01,0.000000000000000000e+00,0.000000000000000000e+00,-6.057398292436033671e-01,-1.289563890703059101e+00,1.913401228066330118e-01,1.909928492611350503e-01
5.700000000000000178e+00,1.644628125066080332e+09,2.843487440006866596e-01,0.000000000000000000e+00,0.000000000000000000e+00,-6.057398292436033671e-01,-1.402152456488151122e+00,1.943032909364215688e-01,1.646604735232106709e-01
5.716666666666666785e+00,1.644628125083071709e+09,2.770318670075574974e-01,0.000000000000000000e+00,0.000000000000000000e+00,-6.057398292436033671e-01,-1.501193749366193320e+00,1.968175435453296540e-01,1.371263250915326914e-01
5.733333333333333393e+00,1.644628125100149393e+09,2.696986958689004954e-01,0.000000000000000000e+00,0.000000000000000000e+00,-6.057398292436033671e-01,-1.586104009738535270e+00,1.988649688631661805e-01,1.086438329447205892e-01
5.750000000000000000e+00,1.644628125117374182e+09,2.623710807661341349e-01,0.000000000000000000e+00,0.000000000000000000e+00,-5.736901028285972259e-01,-1.656442093270303006e+00,2.004319048633889933e-01,7.946952872332604945e-02
5.766666666666666607e+00,1.644628125133918524e+09,2.550702236256462418e-01,0.000000000000000000e+00,0.000000000000000000e+00,-5.736901028285972259e-01,-1.711912143224945781e+00,2.015089704784004121e-01,4.986059405456553378e-02
5.783333333333333215e+00,1.644628125150684118e+09,2.478164675550254270e-01,0.000000000000000000e+00,0.000000000000000000e+00,-5.736901028285972259e-01,-1.752364800029889036e+00,2.020910561086203261e-01,2.007242842384746040e-02
5.799999999999999822e+00,1.644628125166641474e+09,2.406290937488902160e-01,0.000000000000000000e+00,0.000000000000000000e+00,-6.057398292436033671e-01,-1.777796944051538208e+00,2.021772739675397890e-01,-9.643738502597642981e-03
5.816666666666666430e+00,1.644628125182792664e+09,2.335261276720742296e-01,-7.977315104039963689e-01,-7.977315104039963689e-01,-6.057398292436033671e-01,-1.788349982177366737e+00,2.016606861243349091e-01,-5.222850886908215334e-02
5.833333333333333037e+00,1.644628125199713707e+09,2.265241562522674335e-01,-8.582421118730201304e-01,-8.582421118730201304e-01,-5.736901028285972259e-01,-1.784306703279819217e+00,2.004324346433177528e-01,-9.504273764061230145e-02
5.849999999999999645e+00,1.644628125215704203e+09,2.196381577241061089e-01,-9.393263178415117709e-01,-9.393263178415117709e-01,-6.057398292436033671e-01,-1.766086741828259976e+00,1.984878433645959617e-01,-1.381883640230533450e-01
5.866666666666666252e+00,1.644628125234654188e+09,2.128813456629649048e-01,-9.707918306054041935e-01,-9.707918306054041935e-01,-5.736901028285972259e-01,-1.734240702679869628e+00,1.958301701667719552e-01,-1.806145663799838819e-01
5.883333333333332860e+00,1.644628125250610590e+09,2.062650286300679592e-01,-9.356956817533701454e-01,-9.356956817533701454e-01,-6.057398292436033671e-01,-1.689443013283594697e+00,1.924822885013749985e-01,-2.210189962985363299e-01
5.900000000000000355e+00,1.644628125269706964e+09,1.997984867220022331e-01,-9.538488621940774959e-01,-9.538488621940774959e-01,-5.736901028285972259e-01,-1.632483582040404446e+00,1.884719402894138862e-01,-2.601141888238165389e-01
5.916666666666666963e+00,1.644628125285410166e+09,1.934888661783677744e-01,-1.289077594332469046e+00,-1.289077594332469046e+00,-6.057398292436033671e-01,-1.564258353256784861e+00,1.837785267257533162e-01,-3.029763743866434877e-01
5.933333333333333570e+00,1.644628125301903725e+09,1.873410930520282291e-01,-1.849405763935628944e+00,-1.849405763935628944e+00,-6.057398292436033671e-01,-1.485758859890487615e+00,1.783101131319887456e-01,-3.530940378566475579e-01
5.950000000000000178e+00,1.644628125318856001e+09,1.813578067888352296e-01,-1.649720779087850753e+00,-1.649720779087850753e+00,-6.057398292436033671e-01,-1.398060885011873644e+00,1.720530209015364298e-01,-3.976333066945239580e-01
5.966666666666666785e+00,1.644628125336810112e+09,1.755393143985745918e-01,-1.532330212237944078e+00,-1.532330212237944078e+00,-6.057398292436033671e-01,-1.302312351497053156e+00,1.650891981887145088e-01,-4.379135267106186724e-01
5.983333333333333393e+00,1.644628125352754116e+09,1.698835657280360900e-01,-1.220095508657781824e+00,-1.220095508657781824e+00,-6.057398292436033671e-01,-1.199720566843926584e+00,1.575168980412529063e-01,-4.706714944881855156e-01
6.000000000000000000e+00,1.644628125371706486e+09,1.643861501714763973e-01,-1.332645227390166109e+00,-1.332645227390166109e+00,-6.057398292436033671e-01,-1.091538956090107204e+00,1.494025529857663237e-01,-5.029602191573701031e-01
6.016666666666666607e+00,1.644628125387172699e+09,1.590403149751360157e-01,-1.552903816737412512e+00,-1.552903816737412512e+00,-6.057398292436033671e-01,-9.790534205516971955e-01,1.407396365859213960e-01,-5.364965900456769576e-01
6.033333333333333215e+00,1.644628125402819157e+09,1.538370051120255544e-01,-1.745327529408908118e+00,-1.745327529408908118e+00,-6.057398292436033671e-01,-8.635684634489666500e-01,1.315117859122427457e-01,-5.707503392529629238e-01
6.049999999999999822e+00,1.644628125421770096e+09,1.487649245225652617e-01,-1.724753924909440128e+00,-1.724753924909440128e+00,-6.057398292436033671e-01,-7.463932254089893359e-01,1.217367965022390641e-01,-6.021611356815996796e-01
6.066666666666666430e+00,1.644628125437045336e+09,1.438106183372078184e-01,-1.659402475322894199e+00,-1.659402475322894199e+00,-6.057398292436033671e-01,-6.288275733164339076e-01,1.114678968946548610e-01,-6.300294035513376301e-01
6.083333333333333037e+00,1.644628125454963446e+09,1.389585755204006956e-01,-1.293918442449990769e+00,-1.293918442449990769e+00,-5.736901028285972259e-01,-5.121483850217682932e-01,1.008049719596652155e-01,-6.494675924075439255e-01
6.099999999999999645e+00,1.644628125471072912e+09,1.341913512025813549e-01,-7.698966337282454608e-01,-7.698966337282454608e-01,-6.057398292436033671e-01,-3.975961700207165661e-01,8.990896218553601216e-02,-6.580297960292307291e-01
6.116666666666666252e+00,1.644628125489059687e+09,1.294897077996957080e-01,-6.464550067314369652e-01,-6.464550067314369652e-01,-6.057398292436033671e-01,-2.863621624162068224e-01,7.890384514929606186e-02,-6.625716318121182002e-01
6.133333333333332860e+00,1.644628125504650354e+09,1.248327738594600389e-01,-6.101486458500227084e-01,-6.101486458500227084e-01,-5.736901028285972259e-01,-1.795760173048714936e-01,6.784342217895933391e-02,-6.646732865610297525e-01
6.150000000000000355e+00,1.644628125523634434e+09,1.201982194214078897e-01,0.000000000000000000e+00,0.000000000000000000e+00,-6.057398292436033671e-01,-7.829423524618195351e-02,5.684652503676269897e-02,-6.549812933396028658e-01
6.166666666666666963e+00,1.644628125540589333e+09,1.155624465350977292e-01,0.000000000000000000e+00,0.000000000000000000e+00,-6.057398292436033671e-01,1.651056825809815720e-02,4.602291693874829143e-02,-6.438825091039535042e-01
6.183333333333333570e+00,1.644628125557600975e+09,1.109007934486566094e-01,0.000000000000000000e+00,0.000000000000000000e+00,-6.057398292436033671e-01,1.039594402462253875e-01,3.539483409021157434e-02,-6.315217689179797311e-01
6.200000000000000178e+00,1.644628125572769403e+09,1.061877508594463726e-01,0.000000000000000000e+00,0.000000000000000000e+00,-6.057398292436033671e-01,1.832758166898857954e-01,2.498201152399659453e-02,-6.180543494069332677e-01
6.216666666666666785e+00,1.644628125588896990e+09,1.013971885107819160e-01,0.000000000000000000e+00,0.000000000000000000e+00,-6.057398292436033671e-01,2.537931107020989785e-01,1.480152570676473468e-02,-6.036439784113331042e-01
6.233333333333333393e+00,1.644628125606445789e+09,9.650259032445093754e-02,0.000000000000000000e+00,0.000000000000000000e+00,-6.057398292436033671e-01,3.149610872834200936e-01,4.867670923273741471e-03,-5.884607721731184293e-01
6.250000000000000000e+00,1.644628125623358965e+09,9.147729617885150266e-02,0.000000000000000000e+00,0.000000000000000000e+00,-6.057398292436033671e-01,3.663509618966716008e-01,-4.808129539811628952e-03,-5.726791223450885537e-01
6.266666666666666607e+00,1.644628125640385866e+09,8.629474837774543661e-02,0.000000000000000000e+00,0.000000000000000000e+00,-5.736901028285972259e-01,4.076591733465391165e-01,-1.421737676433494114e-02,-5.564755555647895591e-01
6.283333333333333215e+00,1.644628125658631802e+09,8.092874080532162784e-02,0.000000000000000000e+00,0.000000000000000000e+00,-6.057398292436033671e-01,4.387097951132030715e-01,-2.335451385987696860e-02,-5.400265885506941865e-01
6.299999999999999822e+00,1.644628125675335407e+09,7.535366872996616949e-02,0.000000000000000000e+00,0.000000000000000000e+00,-5.736901028285972259e-01,4.594555633105399384e-01,-3.221690802886065935e-02,-5.235066016598681760e-01
6.316666666666666430e+00,1.644628125691502571e+09,6.954477720222140835e-02,0.000000000000000000e+00,0.000000000000000000e+00,-5.736901028285972259e-01,4.699775136686079602e-01,-4.080479753479600291e-02,-5.070857535927894011e-01
6.333333333333333037e+00,1.644628125708293200e+09,6.347840599185576582e-02,0.000000000000000000e+00,0.000000000000000000e+00,-5.736901028285972259e-01,4.704832342333659101e-01,-4.912120444496517746e-02,-4.909279594453974660e-01
6.349999999999999645e+00,1.644628125725628376e+09,5.713222902511359835e-02,0.000000000000000000e+00,0.000000000000000000e+00,-5.736901028285972259e-01,4.613037546905734976e-01,-5.717181438289581363e-02,-4.751889535959572530e-01
6.366666666666666252e+00,1.644628125741585970e+09,5.048548631558343047e-02,0.000000000000000000e+00,0.000000000000000000e+00,-6.057398292436033671e-01,4.428891072120639816e-01,-6.496482487630846070e-02,-4.600144579823435276e-01
6.383333333333332860e+00,1.644628125758573532e+09,4.351920643092541813e-02,0.000000000000000000e+00,0.000000000000000000e+00,-5.736901028285972259e-01,4.158026073509659692e-01,-7.251076421927619975e-02,-4.455384751835263502e-01
6.400000000000000355e+00,1.644628125775931120e+09,3.621641760219829198e-02,0.000000000000000000e+00,0.000000000000000000e+00,-6.057398292436033671e-01,3.807139166402586650e-01,-7.982228307970012926e-02,-4.318817243790981086e-01
6.416666666666666963e+00,1.644628125792053699e+09,2.856234566253897794e-02,0.000000000000000000e+00,0.000000000000000000e+00,-5.736901028285972259e-01,3.383909610449812311e-01,-8.691392137169710874e-02,-4.191502367363514336e-01
6.433333333333333570e+00,1.644628125809011221e+09,2.054459709666493772e-02,0.000000000000000000e+00,0.000000000000000000e+00,-6.057398292436033671e-01,2.896907911564006177e-01,-9.380185317417250035e-02,-4.074341250812693604e-01
6.450000000000000178e+00,1.644628125826960087e+09,1.215332559151931224e-02,0.000000000000000000e+00,0.000000000000000000e+00,-5.736901028285972259e-01,2.355494808781934957e-01,-1.005036127090415676e-01,-3.968065408650970904e-01
6.466666666666666785e+00,1.644628125843914270e+09,3.381380600465340447e-03,0.000000000000000000e+00,0.000000000000000000e+00,-6.057398292436033671e-01,1.769711712322656338e-01,-1.070378045928997435e-01,-3.873228294607011790e-01
6.483333333333333393e+00,1.644628125861010313e+09,-5.775563432225364058e-03,0.000000000000000000e+00,0.000000000000000000e+00,-6.057398292436033671e-01,1.150163747036366813e-01,-1.134238017423794542e-01,-3.790198927328275458e-01
6.500000000000000000e+00,1.644628125877283096e+09,-1.531889839415306181e-02,0.000000000000000000e+00,0.000000000000000000e+00,-5.736901028285972259e-01,5.078966316375210788e-02,-1.196814344442702210e-01,-3.719157656448742189e-01
6.516666666666666607e+00,1.644628125894178152e+09,-2.524699542664350649e-02,0.000000000000000000e+00,0.000000000000000000e+00,-6.057398292436033671e-01,-1.457313121882057583e-02,-1.258306741953808539e-01,-3.660094114140772792e-01
6.533333333333333215e+00,1.644628125912166595e+09,-3.555514033274122937e-02,0.000000000000000000e+00,0.000000000000000000e+00,-5.736901028285972259e-01,-7.991806761611065790e-02,-1.318913159731254225e-01,-3.612807374299345509e-01
6.549999999999999822e+00,1.644628125929121494e+09,-4.623549218604969951e-02,0.000000000000000000e+00,0.000000000000000000e+00,-6.057398292436033671e-01,-1.440864625713609570e-01,-1.378826626153405177e-01,-3.576908318305754841e-01
6.566666666666666430e+00,1.644628125946075201e+09,-5.727706567645213243e-02,0.000000000000000000e+00,0.000000000000000000e+00,-5.736901028285972259e-01,-2.059283299801078770e-01,-1.438232149667027504e-01,-3.551824183122150869e-01
6.583333333333333037e+00,1.644628125963030577e+09,-6.866573754516973327e-02,0.000000000000000000e+00,0.000000000000000000e+00,-5.736901028285972259e-01,-2.643157537163747239e-01,-1.497303713895191679e-01,-3.536805244513382407e-01
6.599999999999999645e+00,1.644628125979984760e+09,-8.038427727456670668e-02,0.000000000000000000e+00,0.000000000000000000e+00,-6.057398292436033671e-01,-3.181560521727949675e-01,-1.556201401392046657e-01,-3.530933565711993349e-01
6.616666666666666252e+00,1.644628125996906996e+09,-9.241240200907369085e-02,0.000000000000000000e+00,0.000000000000000000e+00,-6.057398292436033671e-01,-3.664045959857378243e-01,-1.615068679704211863e-01,-3.533133720064117744e-01
6.633333333333332860e+00,1.644628126011899233e+09,-1.047268554940356533e-01,0.000000000000000000e+00,0.000000000000000000e+00,-6.057398292436033671e-01,-4.080771436305646871e-01,-1.674029881699903299e-01,-3.542185375340187181e-01
6.649999999999999467e+00,1.644628126030848980e+09,-1.173015106307291333e-01,0.000000000000000000e+00,0.000000000000000000e+00,-6.057398292436033671e-01,-4.422615643622056503e-01,-1.733187910090204231e-01,-3.556737607676920820e-01
6.666666666666666963e+00,1.644628126047808886e+09,-1.301074950596647350e-01,0.000000000000000000e+00,0.000000000000000000e+00,-6.057398292436033671e-01,-4.681288240952600210e-01,-1.792622193712739287e-01,-3.575324794736929324e-01
6.683333333333333570e+00,1.644628126064757586e+09,-1.431133390021246954e-01,0.000000000000000000e+00,0.000000000000000000e+00,-6.057398292436033671e-01,-4.849431172062121931e-01,-1.852386920500266598e-01,-3.596383920817103896e-01
6.700000000000000178e+00,1.644628126080772877e+09,-1.562851444131028444e-01,0.000000000000000000e+00,0.000000000000000000e+00,-5.736901028285972259e-01,-4.920710358226544345e-01,-1.912509569142220589e-01,-3.618273111478925719e-01
6.716666666666666785e+00,1.644628126097281933e+09,-1.695867743287612361e-01,0.000000000000000000e+00,0.000000000000000000e+00,-6.057398292436033671e-01,-4.889896778569494673e-01,-1.972989758295604912e-01,-3.639291201968366529e-01
6.733333333333333393e+00,1.644628126114233971e+09,-1.829800611296768242e-01,0.000000000000000000e+00,0.000000000000000000e+00,-6.057398292436033671e-01,-4.752936057467149755e-01,-2.033798428844862671e-01,-3.657698132376894784e-01
6.750000000000000000e+00,1.644628126129520655e+09,-1.964250322886162692e-01,0.000000000000000000e+00,0.000000000000000000e+00,-5.736901028285972259e-01,-4.507005794754228578e-01,-2.094877371182585213e-01,-3.671735953285076293e-01
6.766666666666666607e+00,1.644628126148102999e+09,-2.098801520298124168e-01,0.000000000000000000e+00,0.000000000000000000e+00,-6.057398292436033671e-01,-4.150559998478617896e-01,-2.156139105820044644e-01,-3.679650218622260716e-01
6.783333333333333215e+00,1.644628126166091442e+09,-2.233025771965452266e-01,0.000000000000000000e+00,0.000000000000000000e+00,-6.057398292436033671e-01,-3.683360110621871630e-01,-2.217467121875883185e-01,-3.679711537743453609e-01
6.799999999999999822e+00,1.644628126182335377e+09,-2.366484255066502451e-01,5.762935452578156204e-01,5.762935452578156204e-01,-5.736901028285972259e-01,-3.106492252232155860e-01,-2.277920494650957084e-01,-3.574984111629279648e-01
6.816666666666666430e+00,1.644628126199157000e+09,-2.498730542719827530e-01,7.420902826125775897e-01,7.420902826125775897e-01,-6.057398292436033671e-01,-2.422370454439521925e-01,-2.336319384803498544e-01,-3.433276348615300622e-01
6.833333333333333037e+00,1.644628126216110945e+09,-2.629313475689791235e-01,8.253087222114929844e-01,8.253087222114929844e-01,-5.736901028285972259e-01,-1.634725784435773210e-01,-2.392152320053899661e-01,-3.267137389403580450e-01
6.849999999999999645e+00,1.644628126232324839e+09,-2.757780097738199987e-01,8.105854598209155659e-01,8.105854598209155659e-01,-5.736901028285972259e-01,-7.485814192822459745e-02,-2.445137160988319902e-01,-3.091531328820378288e-01
6.866666666666666252e+00,1.644628126250277281e+09,-2.883678633179847517e-01,7.785783676674865594e-01,7.785783676674865594e-01,-6.057398292436033671e-01,2.297861360920228080e-02,-2.495128564783526681e-01,-2.907947094812389777e-01
6.883333333333332860e+00,1.644628126268232584e+09,-3.006561484786945959e-01,6.435084387800164007e-01,6.435084387800164007e-01,-5.736901028285972259e-01,1.292899348553806504e-01,-2.542125309623642915e-01,-2.732150621033040960e-01
6.899999999999999467e+00,1.644628126286182642e+09,-3.125988229941590313e-01,6.838373748933369578e-01,6.838373748933369578e-01,-6.057398292436033671e-01,2.432144997302769784e-01,-2.586003338625533221e-01,-2.533763946260548239e-01
6.916666666666666963e+00,1.644628126302139044e+09,-3.241528592859544977e-01,8.477136867188930225e-01,8.477136867188930225e-01,-6.057398292436033671e-01,3.637851944383985181e-01,-2.626209444689658334e-01,-2.291641360003541517e-01
6.933333333333333570e+00,1.644628126319092512e+09,-3.352765370803322820e-01,1.051278792814701379e+00,1.051278792814701379e+00,-5.736901028285972259e-01,4.899380596058027226e-01,-2.661958208301485884e-01,-1.999023120988296376e-01
6.950000000000000178e+00,1.644628126336014271e+09,-3.459297292467274909e-01,1.141538792687370796e+00,1.141538792687370796e+00,-6.057398292436033671e-01,6.205223194860863822e-01,-2.692565386646720293e-01,-1.674739090614152381e-01
6.966666666666666785e+00,1.644628126353002787e+09,-3.560741787150473736e-01,1.044877374384015400e+00,1.044877374384015400e+00,-5.736901028285972259e-01,7.543113969542202257e-01,-2.717761340516374746e-01,-1.349678341521458880e-01
6.983333333333333393e+00,1.644628126370954275e+09,-3.656737643931690651e-01,1.028233686464232299e+00,1.028233686464232299e+00,-5.736901028285972259e-01,8.900148066960313908e-01,-2.737420066905490446e-01,-1.010311532938965862e-01
7.000000000000000000e+00,1.644628126390924931e+09,-3.746947540820007028e-01,1.057680211245387136e+00,1.057680211245387136e+00,-6.057398292436033671e-01,1.026290809748227284e+00,-2.751240656548815666e-01,-6.491624397967046822e-02
7.016666666666666607e+00,1.644628126403869867e+09,-3.831060424769165973e-01,9.168490057702995966e-01,9.168490057702995966e-01,-5.736901028285972259e-01,1.161759704444286667e+00,-2.759099383183122312e-01,-2.948689281266336781e-02
7.033333333333333215e+00,1.644628126420827866e+09,-3.908793724506460787e-01,8.880426228322136906e-01,8.880426228322136906e-01,-6.057398292436033671e-01,1.295017621955837583e+00,-2.760957884172139387e-01,7.083294699372508219e-03
7.049999999999999822e+00,1.644628126436782360e+09,-3.979895379330488092e-01,9.725413461172660590e-01,9.725413461172660590e-01,-5.736901028285972259e-01,1.424650689060082742e+00,-2.756476104937274907e-01,4.658831736217521058e-02
7.066666666666666430e+00,1.644628126456229687e+09,-4.044145668366058155e-01,8.009833321748869306e-01,8.009833321748869306e-01,-6.057398292436033671e-01,1.549249416567652471e+00,-2.745529580193767916e-01,8.466421070020013762e-02
7.083333333333333037e+00,1.644628126473184586e+09,-4.101358826220367071e-01,8.509143959342359009e-01,8.509143959342359009e-01,-6.057398292436033671e-01,1.667423169055828103e+00,-2.728057476630126876e-01,1.248892930936704448e-01
7.099999999999999645e+00,1.644628126488543272e+09,-4.151384432549450887e-01,6.985606372839142653e-01,6.985606372839142653e-01,-6.057398292436033671e-01,1.777814570201342814e+00,-2.703994710369653220e-01,1.637559365923773880e-01
7.116666666666666252e+00,1.644628126506883621e+09,-4.194108564707417219e-01,5.801343963162270967e-01,5.801343963162270967e-01,-6.057398292436033671e-01,1.879113698107643060e+00,-2.673531509048682198e-01,2.016970847006781253e-01
7.133333333333332860e+00,1.644628126523742676e+09,-4.229454704399244203e-01,0.000000000000000000e+00,0.000000000000000000e+00,-5.736901028285972259e-01,1.970071926578889299e+00,-2.637472840109952865e-01,2.309257499164533156e-01
7.149999999999999467e+00,1.644628126540109158e+09,-4.257384391077853047e-01,6.339063111339876544e-01,6.339063111339876544e-01,-5.736901028285972259e-01,2.049515271290207608e+00,-2.595597815642770034e-01,2.714619405101382776e-01
7.166666666666666963e+00,1.644628126557017565e+09,-4.277897616704267048e-01,6.018992189805586479e-01,6.018992189805586479e-01,-5.736901028285972259e-01,2.116357104216599616e+00,-2.546974634280914085e-01,3.119038944272386482e-01
7.183333333333333570e+00,1.644628126574010134e+09,-4.291032958410409548e-01,6.659134032874165499e-01,6.659134032874165499e-01,-6.057398292436033671e-01,2.169610105467974837e+00,-2.491505015872929329e-01,3.536156577323633643e-01
7.200000000000000178e+00,1.644628126590963125e+09,-4.296867447553937014e-01,6.812768075210625662e-01,6.812768075210625662e-01,-6.057398292436033671e-01,2.208397328780534075e+00,-2.429066256292734260e-01,3.955330173793704662e-01
7.216666666666666785e+00,1.644628126608188868e+09,-4.295516175617262733e-01,5.673315594548554719e-01,5.673315594548554719e-01,-5.736901028285972259e-01,2.231962265267796841e+00,-2.359824000308329284e-01,4.352636888596408404e-01
7.233333333333333393e+00,1.644628126625025511e+09,-4.287131639364322733e-01,0.000000000000000000e+00,0.000000000000000000e+00,-6.057398292436033671e-01,2.239677799555239268e+00,-2.284787786391856423e-01,4.650880307939141978e-01
7.250000000000000000e+00,1.644628126641330242e+09,-4.271902829613037356e-01,0.000000000000000000e+00,0.000000000000000000e+00,-5.736901028285972259e-01,2.231053963020516839e+00,-2.204833953635618182e-01,4.942768802352989765e-01
7.266666666666666607e+00,1.644628126658821821e+09,-4.250054069894155240e-01,0.000000000000000000e+00,0.000000000000000000e+00,-5.736901028285972259e-01,2.205744400432058328e+00,-2.120090586117776010e-01,5.225649501573823574e-01
7.283333333333333215e+00,1.644628126675597429e+09,-4.221843613132816864e-01,0.000000000000000000e+00,0.000000000000000000e+00,-5.736901028285972259e-01,2.163551478709717202e+00,-2.030729888976925690e-01,5.496880717551259066e-01
7.299999999999999822e+00,1.644628126692537308e+09,-4.187562006294736072e-01,0.000000000000000000e+00,0.000000000000000000e+00,-6.057398292436033671e-01,2.104429979700873421e+00,-1.936967793070102362e-01,5.753856951594581437e-01
7.316666666666666430e+00,1.644628126708968878e+09,-4.147530234668306837e-01,0.000000000000000000e+00,0.000000000000000000e+00,-6.057398292436033671e-01,2.028489332644509702e+00,-1.839063143215529661e-01,5.994033857180760538e-01
7.333333333333333037e+00,1.644628126727038145e+09,-4.102097659096202165e-01,0.000000000000000000e+00,0.000000000000000000e+00,-6.057398292436033671e-01,1.935994356249200132e+00,-1.737316472811482049e-01,6.214952912818246800e-01
7.349999999999999645e+00,1.644628126743250847e+09,-4.051639761010552565e-01,0.000000000000000000e+00,0.000000000000000000e+00,-6.057398292436033671e-01,1.827364494898385150e+00,-1.632068371703536136e-01,6.414265560860031856e-01
7.366666666666666252e+00,1.644628126760214567e+09,-3.996555711553808066e-01,0.000000000000000000e+00,0.000000000000000000e+00,-6.057398292436033671e-01,1.703171548274522440e+00,-1.523697458208189692e-01,6.589756572077105634e-01
7.383333333333332860e+00,1.644628126778165102e+09,-3.937265782371499601e-01,0.000000000000000000e+00,0.000000000000000000e+00,-5.736901028285972259e-01,1.564135908516356421e+00,-1.412617970151308078e-01,6.739366402106283793e-01
7.399999999999999467e+00,1.644628126795724630e+09,-3.874208616833194618e-01,0.000000000000000000e+00,0.000000000000000000e+00,-6.057398292436033671e-01,1.411121333745403383e+00,-1.299276993605820441e-01,6.861212314518363442e-01
7.416666666666666963e+00,1.644628126810686350e+09,-3.807838381465567523e-01,0.000000000000000000e+00,0.000000000000000000e+00,-6.057398292436033671e-01,1.245128301272110605e+00,-1.184151351676394348e-01,6.953608056134289450e-01
7.433333333333333570e+00,1.644628126830631971e+09,-3.738621818257629736e-01,0.000000000000000000e+00,0.000000000000000000e+00,-6.057398292436033671e-01,1.067285997877113202e+00,-1.067744179142802036e-01,7.015081883246883088e-01
7.450000000000000178e+00,1.644628126846113443e+09,-3.667035219217565922e-01,0.000000000000000000e+00,0.000000000000000000e+00,-6.057398292436033671e-01,8.788430181180328926e-01,-9.505812120035936341e-02,7.044392752460679752e-01
7.466666666666666785e+00,1.644628126863576412e+09,-3.593561345116523809e-01,0.000000000000000000e+00,0.000000000000000000e+00,-5.736901028285972259e-01,6.811568545031734256e-01,-8.332068239249516839e-02,7.040544506799233382e-01
7.483333333333333393e+00,1.644628126880980968e+09,-3.518686310743809331e-01,0.000000000000000000e+00,0.000000000000000000e+00,-5.736901028285972259e-01,4.756822754732858427e-01,-7.161798442662045683e-02,7.002797906386033500e-01
7.500000000000000000e+00,1.644628126896772146e+09,-3.442896459216483462e-01,0.000000000000000000e+00,0.000000000000000000e+00,-5.736901028285972259e-01,2.639586983188147995e-01,-6.000691946962660034e-02,6.930680373202564581e-01
7.516666666666666607e+00,1.644628126911850691e+09,-3.366675247933694770e-01,-5.460074082928574324e-01,-5.460074082928574324e-01,-6.057398292436033671e-01,4.759667432288305911e-02,-4.862035315669318430e-02,6.733746254411567822e-01
7.533333333333333215e+00,1.644628126930802107e+09,-3.290500168641437018e-01,-5.617401646748036992e-01,-5.617401646748036992e-01,-6.057398292436033671e-01,-1.717363875417927122e-01,-3.759175771931020510e-02,6.501214208001638850e-01
7.549999999999999822e+00,1.644628126946759462e+09,-3.214839723777266900e-01,-5.460074082928574324e-01,-5.460074082928574324e-01,-6.057398292436033671e-01,-3.923311242135485433e-01,-2.697579958732060357e-02,6.238664871264008038e-01
7.566666666666666430e+00,1.644628126963711262e+09,-3.140150480801159882e-01,-6.355630984670127548e-01,-6.355630984670127548e-01,-6.057398292436033671e-01,-6.124516087638998130e-01,-1.683656996646001533e-02,5.929270123850249874e-01
7.583333333333333037e+00,1.644628126979965210e+09,-3.066874225589336089e-01,0.000000000000000000e+00,0.000000000000000000e+00,-6.057398292436033671e-01,-8.303510814005103935e-01,-7.151036973864693252e-03,5.694022947024212078e-01
7.599999999999999645e+00,1.644628126996916294e+09,-2.995435235179753630e-01,0.000000000000000000e+00,0.000000000000000000e+00,-6.057398292436033671e-01,-1.044287871657938460e+00,2.116117580213058846e-03,5.427303422873778205e-01
7.616666666666666252e+00,1.644628127014868498e+09,-2.926237689216085180e-01,0.000000000000000000e+00,0.000000000000000000e+00,-6.057398292436033671e-01,-1.252541359883622585e+00,1.091365946170996803e-02,5.130571110744871488e-01
7.633333333333332860e+00,1.644628127030792236e+09,-2.859663238349033354e-01,0.000000000000000000e+00,0.000000000000000000e+00,-5.736901028285972259e-01,-1.453427825304772991e+00,1.919299943231938047e-02,4.805539740154648465e-01
7.649999999999999467e+00,1.644628127048478842e+09,-2.796068746628467827e-01,0.000000000000000000e+00,0.000000000000000000e+00,-5.736901028285972259e-01,-1.645316028626413685e+00,2.690860610706433814e-02,4.454164335302796540e-01
7.666666666666666963e+00,1.644628127063915014e+09,-2.735784223567059859e-01,0.000000000000000000e+00,0.000000000000000000e+00,-5.736901028285972259e-01,-1.826642379259672211e+00,3.401839543565455398e-02,4.078626045473615624e-01
7.683333333333333570e+00,1.644628127080691099e+09,-2.679110960085486215e-01,0.000000000000000000e+00,0.000000000000000000e+00,-6.057398292436033671e-01,-1.995925540890438388e+00,4.048409309337500789e-02,3.681314812081338261e-01
7.700000000000000178e+00,1.644628127097364187e+09,-2.626319880973673193e-01,0.000000000000000000e+00,0.000000000000000000e+00,-5.736901028285972259e-01,-2.151780334141682793e+00,4.627156630287771605e-02,3.264810024296030955e-01
7.716666666666666785e+00,1.644628127113584518e+09,-2.577650124833157919e-01,0.000000000000000000e+00,0.000000000000000000e+00,-6.057398292436033671e-01,-2.292930801508246574e+00,5.135112187800017214e-02,2.831859334960098451e-01
7.733333333333333393e+00,1.644628127130999804e+09,-2.533307860716481064e-01,0.000000000000000000e+00,0.000000000000000000e+00,-6.057398292436033671e-01,-2.418222307489669376e+00,5.569776758209716433e-02,2.385355826670850221e-01
7.750000000000000000e+00,1.644628127147682905e+09,-2.493465348863350139e-01,-7.481128171993969289e-01,-7.481128171993969289e-01,-6.057398292436033671e-01,-2.526632555842846628e+00,5.918810450792001687e-02,1.804661561905581135e-01
7.766666666666666607e+00,1.644628127165670633e+09,-2.458260251065027546e-01,-7.638455735813428626e-01,-7.638455735813428626e-01,-6.057398292436033671e-01,-2.617281416032222197e+00,6.170394475533180767e-02,1.215981994495869134e-01
7.783333333333333215e+00,1.644628127184215546e+09,-2.427795194282510172e-01,-9.308548336358483111e-01,-9.308548336358483111e-01,-6.057398292436033671e-01,-2.689439462176018480e+00,6.321374935428285269e-02,5.975015658710476629e-02
7.799999999999999822e+00,1.644628127199545383e+09,-2.402137589214580204e-01,-8.364582953441711544e-01,-8.364582953441711544e-01,-5.736901028285972259e-01,-2.742535139962188673e+00,6.370700021686070968e-02,-3.929848639124197685e-04
7.816666666666666430e+00,1.644628127217919588e+09,-2.381319703575215940e-01,-1.280606110126805586e+00,-1.280606110126805586e+00,-6.057398292436033671e-01,-2.776160490020594729e+00,6.314018212137229025e-02,-6.743894343754733289e-02
7.833333333333333037e+00,1.644628127232913256e+09,-2.365338987909678115e-01,-1.312071622890698119e+00,-1.312071622890698119e+00,-6.057398292436033671e-01,-2.790075369962229601e+00,6.145892384175816181e-02,-1.341268017054820239e-01
7.849999999999999645e+00,1.644628127250577927e+09,-2.354158649871134490e-01,-1.290287806361849254e+00,-1.290287806361849254e+00,-5.736901028285972259e-01,-2.784210131598197080e+00,5.867923111919562396e-02,-1.992554079489202712e-01
7.866666666666666252e+00,1.644628127268047333e+09,-2.347708471008518594e-01,-1.376212860447863173e+00,-1.376212860447863173e+00,-5.736901028285972259e-01,-2.758666724592912622e+00,5.481471727827726820e-02,-2.643055538586814857e-01
7.883333333333332860e+00,1.644628127286002398e+09,-2.345885858297253324e-01,-1.197101480099552751e+00,-1.197101480099552751e+00,-6.057398292436033671e-01,-2.713718212843041933e+00,4.990596636157013100e-02,-3.245771311576842733e-01
7.899999999999999467e+00,1.644628127301753998e+09,-2.348557120890235883e-01,-9.623203463997408447e-01,-9.623203463997408447e-01,-5.736901028285972259e-01,-2.649806705060966827e+00,4.404226947355709826e-02,-3.789155517940163698e-01
7.916666666666666963e+00,1.644628127319709778e+09,-2.355558960891826759e-01,-1.045824976426993347e+00,-1.045824976426993347e+00,-5.736901028285972259e-01,-2.567539716230114344e+00,3.728026654775720011e-02,-4.323762937458349165e-01
7.933333333333333570e+00,1.644628127335667133e+09,-2.366700165374348575e-01,-9.248037734889459349e-01,-9.248037734889459349e-01,-5.736901028285972259e-01,-2.467684991642496328e+00,2.966514277376798570e-02,-4.813026493907031078e-01
7.950000000000000178e+00,1.644628127353588581e+09,-2.381763485377670353e-01,-7.650557856107231824e-01,-7.650557856107231824e-01,-6.057398292436033671e-01,-2.351163839978664072e+00,2.127949590308936961e-02,-5.248539962798476344e-01
7.966666666666666785e+00,1.644628127371567488e+09,-2.400507686269238161e-01,-7.916804502570939928e-01,-7.916804502570939928e-01,-5.736901028285972259e-01,-2.219043036204092267e+00,1.218857976406412941e-02,-5.659418049151755392e-01
7.983333333333333393e+00,1.644628127388739586e+09,-2.422669752603659743e-01,0.000000000000000000e+00,0.000000000000000000e+00,-6.057398292436033671e-01,-2.072525368793773914e+00,2.548126275226492155e-03,-5.908434409062340853e-01
8.000000000000000000e+00,1.644628127405668020e+09,-2.447967229518885623e-01,0.000000000000000000e+00,0.000000000000000000e+00,-5.736901028285972259e-01,-1.912938918824257595e+00,-7.481872893641671601e-03,-6.126957570511035733e-01
8.016666666666665719e+00,1.644628127421290398e+09,-2.476100681746797316e-01,0.000000000000000000e+00,0.000000000000000000e+00,-6.057398292436033671e-01,-1.741725170663557254e+00,-1.784941095045470411e-02,-6.313569718386831120e-01
8.033333333333333215e+00,1.644628127440243006e+09,-2.506756250507922168e-01,0.000000000000000000e+00,0.000000000000000000e+00,-6.057398292436033671e-01,-1.560426065223825098e+00,-2.850035063452315692e-02,-6.467131332416784506e-01
8.050000000000000711e+00,1.644628127457230568e+09,-2.539608287908181605e-01,0.000000000000000000e+00,0.000000000000000000e+00,-6.057398292436033671e-01,-1.370670116910697400e+00,-3.937889615503584184e-02,-6.586790896696773645e-01
8.066666666666666430e+00,1.644628127475181103e+09,-2.574322047965956761e-01,0.000000000000000000e+00,0.000000000000000000e+00,-6.057398292436033671e-01,-1.174157724408137593e+00,-5.042807914910286265e-02,-6.671992020824126790e-01
8.083333333333333925e+00,1.644628127490141392e+09,-2.610556413072131487e-01,0.000000000000000000e+00,0.000000000000000000e+00,-6.057398292436033671e-01,-9.726458131883917169e-01,-6.159025428881142322e-02,-6.722477904958439332e-01
8.099999999999999645e+00,1.644628127507744312e+09,-2.647966634527984531e-01,0.000000000000000000e+00,0.000000000000000000e+00,-6.057398292436033671e-01,-7.679319540606255323e-01,-7.280760007482403595e-02,-6.738293106108417252e-01
8.116666666666667140e+00,1.644628127524196386e+09,-2.686207065815784945e-01,0.000000000000000000e+00,0.000000000000000000e+00,-6.057398292436033671e-01,-5.618381071037561458e-01,-8.402262030409594906e-02,-6.719782588332990914e-01
8.133333333333332860e+00,1.644628127541148663e+09,-2.724933867434002344e-01,0.000000000000000000e+00,0.000000000000000000e+00,-6.057398292436033671e-01,-3.561941439206441906e-01,-9.517864169179868217e-02,-6.667588065109404383e-01
8.150000000000000355e+00,1.644628127557991743e+09,-2.763807662472465010e-01,0.000000000000000000e+00,0.000000000000000000e+00,-6.057398292436033671e-01,-1.528213032689372253e-01,-1.062203031625932326e-01,-6.582641667612948444e-01
8.166666666666666075e+00,1.644628127574946165e+09,-2.802496122607919249e-01,0.000000000000000000e+00,0.000000000000000000e+00,-6.057398292436033671e-01,4.648426425680662888e-02,-1.170940324036734287e-01,-6.466156997826012498e-01
8.183333333333333570e+00,1.644628127591821671e+09,-2.840676464864704820e-01,0.000000000000000000e+00,0.000000000000000000e+00,-6.057398292436033671e-01,2.399677076953969923e-01,-1.277485053907630175e-01,-6.319617650005884268e-01
8.199999999999999289e+00,1.644628127608809710e+09,-2.878037840301067019e-01,0.000000000000000000e+00,0.000000000000000000e+00,-6.057398292436033671e-01,4.259312909213113230e-01,-1.381350847573640517e-01,-6.144763307852988410e-01
8.216666666666666785e+00,1.644628127625329494e+09,-2.914283596743978411e-01,0.000000000000000000e+00,0.000000000000000000e+00,-6.057398292436033671e-01,6.027496630000261923e-01,-1.482082330754966870e-01,-5.943573547504991117e-01
8.233333333333332504e+00,1.644628127643628359e+09,-2.949133398794957506e-01,0.000000000000000000e+00,0.000000000000000000e+00,-5.736901028285972259e-01,7.688844403941125227e-01,-1.579258973510412334e-01,-5.718249498017193844e-01
8.250000000000000000e+00,1.644628127660360336e+09,-2.982325189557803458e-01,0.000000000000000000e+00,0.000000000000000000e+00,-5.736901028285972259e-01,9.228979643737195149e-01,-1.672498613063403139e-01,-5.471193531068583304e-01
8.266666666666665719e+00,1.644628127678314924e+09,-3.013616979886292735e-01,0.000000000000000000e+00,0.000000000000000000e+00,-6.057398292436033671e-01,1.063466104956027891e+00,-1.761460623243512325e-01,-5.204987170062469470e-01
8.283333333333333215e+00,1.644628127693641901e+09,-3.042788452404822097e-01,0.000000000000000000e+00,0.000000000000000000e+00,-5.736901028285972259e-01,1.189389991907898292e+00,-1.845848702594615753e-01,-4.922367425393383011e-01
8.300000000000000711e+00,1.644628127712625265e+09,-3.069642369105229918e-01,5.775738289439528161e-01,5.775738289439528161e-01,-6.057398292436033671e-01,1.299606563701810380e+00,-1.924615508914678808e-01,-4.530737220299025925e-01
8.316666666666666430e+00,1.644628127728605032e+09,-3.094005772957565958e-01,5.730928360424726309e-01,5.730928360424726309e-01,-5.736901028285972259e-01,1.393197836718110372e+00,-1.996786157745646662e-01,-4.130851459341294274e-01
8.333333333333333925e+00,1.644628127746383905e+09,-3.115730975675953252e-01,0.000000000000000000e+00,0.000000000000000000e+00,-6.057398292436033671e-01,1.469398809324204525e+00,-2.063033585835946093e-01,-3.819704229696960773e-01
8.349999999999999645e+00,1.644628127763937950e+09,-3.134696325541881379e-01,0.000000000000000000e+00,0.000000000000000000e+00,-6.057398292436033671e-01,1.527603928612748518e+00,-2.124057809374930439e-01,-3.504079351389184915e-01
8.366666666666667140e+00,1.644628127780126333e+09,-3.150806750989295080e-01,0.000000000000000000e+00,0.000000000000000000e+00,-6.057398292436033671e-01,1.567372061419180396e+00,-2.179810284597667736e-01,-3.187098199263250775e-01
8.383333333333332860e+00,1.644628127797087908e+09,-3.163994077486662060e-01,0.000000000000000000e+00,0.000000000000000000e+00,-5.736901028285972259e-01,1.588429925627285577e+00,-2.230294436986085260e-01,-2.871875725936952062e-01
8.400000000000000355e+00,1.644628127815033197e+09,-3.174217117094678686e-01,0.000000000000000000e+00,0.000000000000000000e+00,-6.057398292436033671e-01,1.590673952570726524e+00,-2.275565320709822537e-01,-2.561492516784760198e-01
8.416666666666666075e+00,1.644628127830622673e+09,-3.181461531919863028e-01,5.462068786335925186e-01,5.462068786335925186e-01,-6.057398292436033671e-01,1.574170566403751081e+00,-2.314974392124547753e-01,-2.168687204530477808e-01
8.433333333333333570e+00,1.644628127848610163e+09,-3.185739474510149161e-01,6.018992189805586479e-01,6.018992189805586479e-01,-5.736901028285972259e-01,1.539154881498862260e+00,-2.347862404101094813e-01,-1.778956842474027356e-01
8.449999999999999289e+00,1.644628127863968611e+09,-3.187089010032546077e-01,6.569514174844567345e-01,6.569514174844567345e-01,-5.736901028285972259e-01,1.486027834085115629e+00,-2.374306080767147609e-01,-1.395349957213045944e-01
8.466666666666666785e+00,1.644628127880198002e+09,-3.185573326822835893e-01,0.000000000000000000e+00,0.000000000000000000e+00,-5.736901028285972259e-01,1.415351779320502601e+00,-2.395414296015240252e-01,-1.138349778744869589e-01
8.483333333333332504e+00,1.644628127897191048e+09,-3.181279743586671871e-01,0.000000000000000000e+00,0.000000000000000000e+00,-5.736901028285972259e-01,1.327844599649369073e+00,-2.412395537301612880e-01,-9.000611041836020787e-02
8.500000000000000000e+00,1.644628127914142370e+09,-3.174318523149406435e-01,0.000000000000000000e+00,0.000000000000000000e+00,-6.057398292436033671e-01,1.224372384489293308e+00,-2.425581129569136518e-01,-6.828134478345296299e-02
8.516666666666665719e+00,1.644628127932142019e+09,-3.164821504183870093e-01,0.000000000000000000e+00,0.000000000000000000e+00,-5.736901028285972259e-01,1.105940754882177357e+00,-2.435339512276623875e-01,-4.887316059800127926e-02
8.533333333333333215e+00,1.644628127947403908e+09,-3.152940563779721428e-01,0.000000000000000000e+00,0.000000000000000000e+00,-5.736901028285972259e-01,9.736849196016778007e-01,-2.442072676720315472e-01,-3.197176216027083906e-02
8.550000000000000711e+00,1.644628127964517117e+09,-3.138845925043878271e-01,0.000000000000000000e+00,0.000000000000000000e+00,-5.736901028285972259e-01,8.288585612056788010e-01,-2.446212320609098823e-01,-1.774348841796451887e-02
8.566666666666666430e+00,1.644628127982468605e+09,-3.122724325127542722e-01,0.000000000000000000e+00,0.000000000000000000e+00,-6.057398292436033671e-01,6.728216615467910167e-01,-2.448215756647907082e-01,-6.329450454970509538e-03
8.583333333333333925e+00,1.644628127998346806e+09,-3.104777060153254831e-01,0.000000000000000000e+00,0.000000000000000000e+00,-6.057398292436033671e-01,5.070273861939431637e-01,-2.448561614032786493e-01,2.155591720083163340e-03
8.599999999999999645e+00,1.644628128014304161e+09,-3.085217924455237459e-01,0.000000000000000000e+00,0.000000000000000000e+00,-6.057398292436033671e-01,3.330081559837044791e-01,-2.447745373533486146e-01,7.624103603214861871e-03
8.616666666666667140e+00,1.644628128033253908e+09,-3.064271062342431851e-01,0.000000000000000000e+00,0.000000000000000000e+00,-6.057398292436033671e-01,1.523610414229362719e-01,-2.446274778218904822e-01,1.001639476213899566e-02
8.633333333333332860e+00,1.644628128050392389e+09,-3.042168751238429891e-01,0.000000000000000000e+00,0.000000000000000000e+00,-5.736901028285972259e-01,-3.326737816578650975e-02,-2.444665162855023388e-01,9.300976922987732112e-03
8.650000000000000355e+00,1.644628128066085577e+09,-3.019149135541960849e-01,0.000000000000000000e+00,0.000000000000000000e+00,-6.057398292436033671e-01,-2.221965440840660555e-01,-2.443434745565646327e-01,5.474659459315591413e-03
8.666666666666666075e+00,1.644628128083016634e+09,-2.995453930881575300e-01,6.089407792543133358e-01,6.089407792543133358e-01,-6.057398292436033671e-01,-4.127276862701841353e-01,-2.442258853446312716e-01,8.627288463784386213e-03
8.683333333333333570e+00,1.644628128099168539e+09,-2.971326118606515965e-01,1.158822622450222717e+00,1.158822622450222717e+00,-5.736901028285972259e-01,-6.031596779932832941e-01,-2.440065403658073784e-01,1.766899255924282708e-02
8.699999999999999289e+00,1.644628128116773605e+09,-2.947007650361167519e-01,1.162023331665565262e+00,1.162023331665565262e+00,-5.736901028285972259e-01,-7.918048249480817979e-01,-2.436633628416790820e-01,2.349612348040591714e-02
