# 
# 
# 
# 
# 
# 
# 
# 
# 
# 
# time,realtime,ref,inp,inp0,inp1,dis,state...
0.000000000000000000e+00,1.643937586284430504e+09,-0.000000000000000000e+00,-3.124848325463007448e-02,0.000000000000000000e+00,-1.249939330185202979e-01,0.000000000000000000e+00,0.000000000000000000e+00,0.000000000000000000e+00
1.666666666666666644e-02,1.643937586287448168e+09,-2.192568315131279864e-06,-3.124848325463007448e-02,0.000000000000000000e+00,-1.249939330185202979e-01,0.000000000000000000e+00,-4.316056099222487763e-06,-5.164919981446121008e-04
3.333333333333333287e-02,1.643937586291457176e+09,-9.017646052382530711e-06,-3.124848325463007448e-02,0.000000000000000000e+00,-1.249939330185202979e-01,1.478196883089228304e-05,-1.716693234211278299e-05,-1.024202809998374679e-03
5.000000000000000278e-02,1.643937586307414532e+09,-2.088252065717991428e-05,-3.926091485838159589e-02,0.000000000000000000e+00,-1.570436594335263836e-01,6.273103146208112925e-05,-3.950958848119304000e-05,-1.655163217641286363e-03
6.666666666666666574e-02,1.643937586325366259e+09,-3.824519353529949828e-05,-3.124848325463007448e-02,0.000000000000000000e+00,-1.249939330185202979e-01,1.476547383031571830e-04,-7.116269209214102359e-05,-2.141857255969120515e-03
8.333333333333332871e-02,1.643937586340327263e+09,-6.161660636918578002e-05,-3.926091485838159589e-02,0.000000000000000000e+00,-1.570436594335263836e-01,2.711674732666164898e-04,-1.119497619956330364e-04,-2.750899309150878300e-03
1.000000000000000056e-01,1.643937586359279633e+09,-9.156186853129102217e-05,-3.124848325463007448e-02,0.000000000000000000e+00,-1.249939330185202979e-01,4.326548233692119306e-04,-1.616744258287513268e-04,-3.214771785838774210e-03
1.166666666666666685e-01,1.643937586376235723e+09,-1.287004316427091085e-04,-3.124848325463007448e-02,0.000000000000000000e+00,-1.249939330185202979e-01,6.292907662780668383e-04,-2.190390678541785218e-04,-3.667727018619213776e-03
1.333333333333333315e-01,1.643937586393187761e+09,-1.737051711848542062e-04,-3.926091485838159589e-02,0.000000000000000000e+00,-1.570436594335263836e-01,8.561070698660986321e-04,-2.849657544265728421e-04,-4.241880461855411510e-03
1.499999999999999944e-01,1.643937586410141945e+09,-2.273003496542814897e-04,-3.124848325463007448e-02,0.000000000000000000e+00,-1.249939330185202979e-01,1.106113361453575335e-03,-3.592411506480152196e-04,-4.669977897186910337e-03
1.666666666666666574e-01,1.643937586427097797e+09,-2.902584508811075132e-04,-3.124848325463007448e-02,0.000000000000000000e+00,-1.249939330185202979e-01,1.370465415252234689e-03,-4.405558626560315957e-04,-5.086630149168524725e-03
1.833333333333333204e-01,1.643937586445313692e+09,-3.633958906272717203e-04,-3.926091485838159589e-02,0.000000000000000000e+00,-1.570436594335263836e-01,1.638678338863618555e-03,-5.298268659950433135e-04,-5.624396421154812670e-03
2.000000000000000111e-01,1.643937586460784197e+09,-4.475676242538002966e-04,-3.926091485838159589e-02,0.000000000000000000e+00,-1.570436594335263836e-01,1.898880527164562796e-03,-6.279504247319283965e-04,-6.148973434604878413e-03
2.166666666666666741e-01,1.643937586480014563e+09,-5.436606879044763923e-04,-3.124848325463007448e-02,0.000000000000000000e+00,-1.249939330185202979e-01,2.138103507375079589e-03,-7.336047562056599450e-04,-6.528492098918730301e-03
2.333333333333333370e-01,1.643937586495946884e+09,-6.525867251037526786e-04,-3.926091485838159589e-02,0.000000000000000000e+00,-1.570436594335263836e-01,2.342602134380313353e-03,-8.466104150426868782e-04,-7.030791652148391489e-03
2.500000000000000000e-01,1.643937586511262178e+09,-7.752735657169607325e-04,-3.124848325463007448e-02,0.000000000000000000e+00,-1.249939330185202979e-01,2.498199021127698975e-03,-9.667901830645645161e-04,-7.389783288018219980e-03
2.666666666666666630e-01,1.643937586532537937e+09,-9.126559386817026344e-04,-3.124848325463007448e-02,0.000000000000000000e+00,-1.249939330185202979e-01,2.590646614470494720e-03,-1.092890792006011996e-03,-7.741313289746099176e-03
2.833333333333333259e-01,1.643937586546498537e+09,-1.065665413606651677e-03,-3.124848325463007448e-02,0.000000000000000000e+00,-1.249939330185202979e-01,2.605999960038234142e-03,-1.224799560198597953e-03,-8.086779243130044412e-03
2.999999999999999889e-01,1.643937586564189911e+09,-1.235219679071200387e-03,-3.124848325463007448e-02,0.000000000000000000e+00,-1.249939330185202979e-01,2.530992946854279148e-03,-1.362428738357144686e-03,-8.427774903434426951e-03
3.166666666666666519e-01,1.643937586581569910e+09,-1.422211277079326111e-03,-3.124848325463007448e-02,0.000000000000000000e+00,-1.249939330185202979e-01,2.353410688078572642e-03,-1.505718606780206883e-03,-8.766069577787223913e-03
3.333333333333333148e-01,1.643937586597867012e+09,-1.627495923467773891e-03,-3.124848325463007448e-02,0.000000000000000000e+00,-1.249939330185202979e-01,2.062450681260338467e-03,-1.654640181887917028e-03,-9.103581878902342744e-03
3.499999999999999778e-01,1.643937586613796949e+09,-1.851880552999781143e-03,-3.926091485838159589e-02,0.000000000000000000e+00,-1.570436594335263836e-01,1.649065500867092715e-03,-1.810304122665239504e-03,-9.574782094083595513e-03
3.666666666666666408e-01,1.643937586631664515e+09,-2.096111235263515594e-03,-3.926091485838159589e-02,0.000000000000000000e+00,-1.570436594335263836e-01,1.106280006809046449e-03,-1.973831287756687078e-03,-1.004716550985169064e-02
3.833333333333333037e-01,1.643937586647087812e+09,-2.360861113228119711e-03,-3.926091485838159589e-02,0.000000000000000000e+00,-1.570436594335263836e-01,4.294764025711148231e-04,-2.145259744396034018e-03,-1.052292769414251913e-02
4.000000000000000222e-01,1.643937586666040659e+09,-2.646718520296923761e-03,-3.926091485838159589e-02,0.000000000000000000e+00,-1.570436594335263836e-01,-3.833590590323319742e-04,-2.324664127502813586e-03,-1.100426120965930510e-02
4.166666666666666852e-01,1.643937586683990717e+09,-2.954175433862938054e-03,-3.926091485838159589e-02,0.000000000000000000e+00,-1.570436594335263836e-01,-1.331433351731073659e-03,-2.512155202337241003e-03,-1.149330927166008869e-02
4.333333333333333481e-01,1.643937586699531555e+09,-3.283616423662719108e-03,-3.124848325463007448e-02,0.000000000000000000e+00,-1.249939330185202979e-01,-2.410992889335655722e-03,-2.706771958893590575e-03,-1.185968378416983431e-02
4.500000000000000111e-01,1.643937586715406179e+09,-3.635308251608162112e-03,-3.124848325463007448e-02,0.000000000000000000e+00,-1.249939330185202979e-01,-3.615222868691522328e-03,-2.907610682340249116e-03,-1.223990682944520181e-02
4.666666666666666741e-01,1.643937586732340097e+09,-4.009390276240770538e-03,-3.124848325463007448e-02,0.000000000000000000e+00,-1.249939330185202979e-01,-4.934203089324271790e-03,-3.114916118150970470e-03,-1.263564616603372014e-02
4.833333333333333370e-01,1.643937586749550343e+09,-4.405865809509921030e-03,-3.926091485838159589e-02,0.000000000000000000e+00,-1.570436594335263836e-01,-6.354922684534998825e-03,-3.330065461407339528e-03,-1.318076078182596131e-02
5.000000000000000000e-01,1.643937586766923904e+09,-4.824594566258381956e-03,-3.124848325463007448e-02,0.000000000000000000e+00,-1.249939330185202979e-01,-7.861355231458285256e-03,-3.553326144921480946e-03,-1.360933073974662615e-02
5.166666666666666075e-01,1.643937586784294605e+09,-5.265286337659108237e-03,-3.124848325463007448e-02,0.000000000000000000e+00,-1.249939330185202979e-01,-9.434594699879133087e-03,-3.783887763391580953e-03,-1.405682042051834696e-02
5.333333333333333259e-01,1.643937586803449392e+09,-5.727496008963278359e-03,-3.926091485838159589e-02,0.000000000000000000e+00,-1.570436594335263836e-01,-1.105305166644091411e-02,-4.023175958844751356e-03,-1.465609833381221853e-02
5.500000000000000444e-01,1.643937586818798304e+09,-6.210620029386782967e-03,-3.926091485838159589e-02,0.000000000000000000e+00,-1.570436594335263836e-01,-1.269270817784236283e-02,-4.272595817130575568e-03,-1.527257219279679404e-02
5.666666666666666519e-01,1.643937586836796999e+09,-6.713894427898323310e-03,-3.124848325463007448e-02,0.000000000000000000e+00,-1.249939330185202979e-01,-1.432742860963112826e-02,-4.531324199406438179e-03,-1.577344234159195127e-02
5.833333333333333703e-01,1.643937586853734255e+09,-7.236394453211715712e-03,-3.926091485838159589e-02,0.000000000000000000e+00,-1.570436594335263836e-01,-1.592932285228595979e-02,-4.799659172543859799e-03,-1.642494466363232306e-02
5.999999999999999778e-01,1.643937586868691683e+09,-7.777035899581284314e-03,-3.124848325463007448e-02,0.000000000000000000e+00,-1.249939330185202979e-01,-1.746915717935239656e-02,-5.077868533523990750e-03,-1.695869597655190117e-02
6.166666666666666963e-01,1.643937586886643410e+09,-8.334578162221972439e-03,-3.926091485838159589e-02,0.000000000000000000e+00,-1.570436594335263836e-01,-1.891680722903518394e-02,-5.366206658920061844e-03,-1.763998655261277831e-02
6.333333333333333037e-01,1.643937586903859854e+09,-8.907629047507676853e-03,-3.124848325463007448e-02,0.000000000000000000e+00,-1.249939330185202979e-01,-2.024174667586448734e-02,-5.664881847302591020e-03,-1.819948186307182580e-02
6.500000000000000222e-01,1.643937586919915438e+09,-9.494651343739682336e-03,-3.124848325463007448e-02,0.000000000000000000e+00,-1.249939330185202979e-01,-2.141356439706406517e-02,-5.972966531803006705e-03,-1.876909797276631389e-02
6.666666666666666297e-01,1.643937586936281681e+09,-1.009397113842741209e-02,-3.124848325463007448e-02,0.000000000000000000e+00,-1.249939330185202979e-01,-2.240250226228863301e-02,-6.290602735061767703e-03,-1.934564486145620016e-02
6.833333333333333481e-01,1.643937586954214811e+09,-1.070378784790243509e-02,-3.926091485838159589e-02,0.000000000000000000e+00,-1.570436594335263836e-01,-2.318000510749309434e-02,-6.618982490320094239e-03,-2.005794710562911962e-02
6.999999999999999556e-01,1.643937586970172405e+09,-1.132218590491380385e-02,-3.926091485838159589e-02,0.000000000000000000e+00,-1.570436594335263836e-01,-2.371927400449943060e-02,-6.959210050195720372e-03,-2.076738936013484277e-02
7.166666666666666741e-01,1.643937586992129087e+09,-1.194714802985469282e-02,-3.926091485838159589e-02,0.000000000000000000e+00,-1.570436594335263836e-01,-2.399581361643647603e-02,-7.311201854917443940e-03,-2.146967636332675414e-02
7.333333333333332815e-01,1.643937587004091501e+09,-1.257656999167241531e-02,-3.124848325463007448e-02,0.000000000000000000e+00,-1.249939330185202979e-01,-2.398796424304207309e-02,-7.673693677583945209e-03,-2.202779199895478837e-02
7.500000000000000000e-01,1.643937587021045923e+09,-1.320827674554250764e-02,-3.124848325463007448e-02,0.000000000000000000e+00,-1.249939330185202979e-01,-2.367740911441025206e-02,-8.045367446271512249e-03,-2.257154976975122782e-02
7.666666666666666075e-01,1.643937587039485931e+09,-1.384003981626415365e-02,-3.124848325463007448e-02,0.000000000000000000e+00,-1.249939330185202979e-01,-2.304964759077672565e-02,-8.425942033642852894e-03,-2.309594402980333361e-02
7.833333333333333259e-01,1.643937587059357643e+09,-1.446959577927523638e-02,-3.926091485838159589e-02,0.000000000000000000e+00,-1.570436594335263836e-01,-2.209442517099253003e-02,-8.816158841005372268e-03,-2.372831622293038178e-02
8.000000000000000444e-01,1.643937587074795961e+09,-1.509466567539768413e-02,-3.124848325463007448e-02,0.000000000000000000e+00,-1.249939330185202979e-01,-2.080611160300409324e-02,-9.215543217793234487e-03,-2.419650842710308752e-02
8.166666666666666519e-01,1.643937587090858221e+09,-1.571297518110597452e-02,-3.124848325463007448e-02,0.000000000000000000e+00,-1.249939330185202979e-01,-1.918401892341169840e-02,-9.622442086792836954e-03,-2.463015126107084840e-02
8.333333333333333703e-01,1.643937587108393669e+09,-1.632227534344522779e-02,-3.926091485838159589e-02,0.000000000000000000e+00,-1.570436594335263836e-01,-1.723265192540277685e-02,-1.003734559866160773e-02,-2.515680719559848511e-02
8.499999999999999778e-01,1.643937587127807617e+09,-1.692036367788186252e-02,-3.124848325463007448e-02,0.000000000000000000e+00,-1.249939330185202979e-01,-1.496188435838374450e-02,-1.045953364685822326e-02,-2.550479194095209984e-02
8.666666666666666963e-01,1.643937587142780781e+09,-1.750510541849869400e-02,-3.124848325463007448e-02,0.000000000000000000e+00,-1.249939330185202979e-01,-1.238705508979267775e-02,-1.088711774028072558e-02,-2.580446681993664448e-02
8.833333333333333037e-01,1.643937587159158468e+09,-1.807445470318143343e-02,-3.926091485838159589e-02,0.000000000000000000e+00,-1.570436594335263836e-01,-9.528979499286265031e-03,-1.132036694600024700e-02,-2.618438252017825374e-02
9.000000000000000222e-01,1.643937587177225113e+09,-1.862647547189683062e-02,-3.926091485838159589e-02,0.000000000000000000e+00,-1.570436594335263836e-01,-6.413872515378502177e-03,-1.175946534578007838e-02,-2.650653057662775633e-02
9.166666666666666297e-01,1.643937587193365812e+09,-1.915936185392308824e-02,-3.124848325463007448e-02,0.000000000000000000e+00,-1.249939330185202979e-01,-3.073180930630914787e-03,-1.220232028554409272e-02,-2.663570337328476090e-02
9.333333333333333481e-01,1.643937587210317612e+09,-1.967145782002825000e-02,-3.124848325463007448e-02,0.000000000000000000e+00,-1.249939330185202979e-01,4.566760718811598138e-04,-1.264682271823077721e-02,-2.670439772697722272e-02
9.499999999999999556e-01,1.643937587226394892e+09,-2.016127587814291189e-02,-3.124848325463007448e-02,0.000000000000000000e+00,-1.249939330185202979e-01,4.134657897710451030e-03,-1.309195256402893859e-02,-2.671116497046105431e-02
9.666666666666666741e-01,1.643937587243343353e+09,-2.062751459605710602e-02,-3.124848325463007448e-02,0.000000000000000000e+00,-1.249939330185202979e-01,7.915543356461106003e-03,-1.353667204473733496e-02,-2.665532782138880716e-02
9.833333333333332815e-01,1.643937587263266802e+09,-2.106907474207830172e-02,-3.926091485838159589e-02,0.000000000000000000e+00,-1.570436594335263836e-01,1.175045824095234497e-02,-1.398104561924314211e-02,-2.666946185717348691e-02
1.000000000000000000e+00,1.643937587280196667e+09,-2.148507384438291465e-02,-3.124848325463007448e-02,0.000000000000000000e+00,-1.249939330185202979e-01,1.558748519682566849e-02,-1.442401615568315865e-02,-2.648750795503021158e-02
1.016666666666666607e+00,1.643937587297182083e+09,-2.187485898191628489e-02,-3.926091485838159589e-02,0.000000000000000000e+00,-1.570436594335263836e-01,1.937235003084618670e-02,-1.486456317228287624e-02,-2.637843701888941544e-02
1.033333333333333215e+00,1.643937587311138391e+09,-2.223801763405971327e-02,-3.926091485838159589e-02,0.000000000000000000e+00,-1.570436594335263836e-01,2.304917726996572394e-02,-1.530279955966613870e-02,-2.621039625797974906e-02
1.050000000000000044e+00,1.643937587329092741e+09,-2.257438643277339882e-02,-3.926091485838159589e-02,0.000000000000000000e+00,-1.570436594335263836e-01,2.656130650914111102e-02,-1.573777338053168606e-02,-2.598708257626821186e-02
1.066666666666666652e+00,1.643937587349010944e+09,-2.288405767940811589e-02,-3.124848325463007448e-02,0.000000000000000000e+00,-1.249939330185202979e-01,2.985215989334161907e-02,-1.616749493553663528e-02,-2.558063307728473609e-02
1.083333333333333259e+00,1.643937587364394903e+09,-2.316738350869235880e-02,-3.926091485838159589e-02,0.000000000000000000e+00,-1.570436594335263836e-01,3.286614998688901224e-02,-1.659118885846826846e-02,-2.526351856887797814e-02
1.100000000000000089e+00,1.643937587380341768e+09,-2.342497760436660845e-02,-3.926091485838159589e-02,0.000000000000000000e+00,-1.570436594335263836e-01,3.554961630904154846e-02,-1.700927069789986631e-02,-2.490729170526871650e-02
1.116666666666666696e+00,1.643937587397821188e+09,-2.365771439434887283e-02,-3.124848325463007448e-02,0.000000000000000000e+00,-1.249939330185202979e-01,3.785177797516089959e-02,-1.742003996840100349e-02,-2.438646752275873061e-02
1.133333333333333304e+00,1.643937587416130304e+09,-2.386672567795517994e-02,-3.124848325463007448e-02,0.000000000000000000e+00,-1.249939330185202979e-01,3.972568919305229790e-02,-1.782194194680383065e-02,-2.384327877871553203e-02
1.149999999999999911e+00,1.643937587431276083e+09,-2.405339466332751669e-02,-3.926091485838159589e-02,0.000000000000000000e+00,-1.570436594335263836e-01,4.112918383762113883e-02,-1.821577863464344041e-02,-2.341830427455526484e-02
1.166666666666666741e+00,1.643937587448275566e+09,-2.421934741958961523e-02,-3.124848325463007448e-02,0.000000000000000000e+00,-1.249939330185202979e-01,4.202579497545017029e-02,-1.860136059034211975e-02,-2.285310045684291885e-02
1.183333333333333348e+00,1.643937587465463161e+09,-2.436644177509241990e-02,-3.124848325463007448e-02,0.000000000000000000e+00,-1.249939330185202979e-01,4.238563504379817132e-02,-1.897755084735579245e-02,-2.229129100334311178e-02
1.199999999999999956e+00,1.643937587481341362e+09,-2.449675372015516425e-02,-3.124848325463007448e-02,0.000000000000000000e+00,-1.249939330185202979e-01,4.218622241313290527e-02,-1.934448275385189375e-02,-2.174206344420529652e-02
1.216666666666666563e+00,1.643937587499774218e+09,-2.461256139967399337e-02,-3.926091485838159589e-02,0.000000000000000000e+00,-1.570436594335263836e-01,4.141324028354651660e-02,-1.970355017300873257e-02,-2.134712393462904340e-02
1.233333333333333393e+00,1.643937587516102791e+09,-2.471632680757542347e-02,-3.124848325463007448e-02,0.000000000000000000e+00,-1.249939330185202979e-01,4.006121428566002812e-02,-2.005516987770246048e-02,-2.084862537941814878e-02
1.250000000000000000e+00,1.643937587535043716e+09,-2.481067532105180398e-02,-3.124848325463007448e-02,0.000000000000000000e+00,-1.249939330185202979e-01,3.813409577573093068e-02,-2.039881630058202472e-02,-2.039021874785357236e-02
1.266666666666666607e+00,1.643937587552996397e+09,-2.489837323754870782e-02,-3.124848325463007448e-02,0.000000000000000000e+00,-1.249939330185202979e-01,3.564573862983955871e-02,-2.073522962141880616e-02,-1.998051783742996884e-02
1.283333333333333215e+00,1.643937587569198370e+09,-2.498230350130188279e-02,-3.124848325463007448e-02,0.000000000000000000e+00,-1.249939330185202979e-01,3.262025834777450978e-02,-2.106528906268888973e-02,-1.962759547794081308e-02
1.300000000000000044e+00,1.643937587586997986e+09,-2.506543982857471417e-02,-3.926091485838159589e-02,0.000000000000000000e+00,-1.570436594335263836e-01,2.909226346550845832e-02,-2.139110917991113303e-02,-1.947125288393312253e-02
1.316666666666666652e+00,1.643937587604536772e+09,-2.515081946136753926e-02,-3.926091485838159589e-02,0.000000000000000000e+00,-1.570436594335263836e-01,2.510695063525785961e-02,-2.171489563474701331e-02,-1.938336583281597206e-02
1.333333333333333259e+00,1.643937587620793104e+09,-2.524151479801201720e-02,-3.124848325463007448e-02,0.000000000000000000e+00,-1.249939330185202979e-01,2.072005625091090722e-02,-2.203672868339117893e-02,-1.923700656756712618e-02
1.350000000000000089e+00,1.643937587642593384e+09,-2.534060416549788197e-02,-3.124848325463007448e-02,0.000000000000000000e+00,-1.249939330185202979e-01,1.599765915852603693e-02,-2.235679488600534823e-02,-1.917112076655469108e-02
1.366666666666666696e+00,1.643937587655349016e+09,-2.545114201239731186e-02,-3.926091485838159589e-02,0.000000000000000000e+00,-1.570436594335263836e-01,1.101583077887494447e-02,-2.267756686578835737e-02,-1.932110018809679239e-02
1.383333333333333304e+00,1.643937587674273491e+09,-2.557612881266248250e-02,-3.926091485838159589e-02,0.000000000000000000e+00,-1.570436594335263836e-01,5.860130861790769675e-03,-2.300152989520962143e-02,-1.955381689195204165e-02
1.399999999999999911e+00,1.643937587690488815e+09,-2.571848097921225484e-02,-3.124848325463007448e-02,0.000000000000000000e+00,-1.249939330185202979e-01,6.249490687132868739e-04,-2.332895579828493313e-02,-1.973678322530867529e-02
1.416666666666666741e+00,1.643937587708895206e+09,-2.588100109195302576e-02,-3.926091485838159589e-02,0.000000000000000000e+00,-1.570436594335263836e-01,-4.587305382982297640e-03,-2.366123246908497998e-02,-2.013531022519802691e-02
1.433333333333333348e+00,1.643937587727169991e+09,-2.606634874758538903e-02,-3.124848325463007448e-02,0.000000000000000000e+00,-1.249939330185202979e-01,-9.667161707156422465e-03,-2.399969116304088643e-02,-2.047877894727189590e-02
1.449999999999999956e+00,1.643937587742961407e+09,-2.627701233814925055e-02,-3.124848325463007448e-02,0.000000000000000000e+00,-1.249939330185202979e-01,-1.449918677747514054e-02,-2.434449429734050416e-02,-2.089643698017403309e-02
1.466666666666666563e+00,1.643937587760249138e+09,-2.651528206170302576e-02,-3.124848325463007448e-02,0.000000000000000000e+00,-1.249939330185202979e-01,-1.896321714008337295e-02,-2.469681728582035982e-02,-2.138097566493940213e-02
1.483333333333333393e+00,1.643937587778615952e+09,-2.678322446179599858e-02,-3.926091485838159589e-02,0.000000000000000000e+00,-1.570436594335263836e-01,-2.293571332896270770e-02,-2.505880435852824578e-02,-2.205559906202058870e-02
1.500000000000000000e+00,1.643937587794573545e+09,-2.708265878248749051e-02,-3.926091485838159589e-02,0.000000000000000000e+00,-1.570436594335263836e-01,-2.629122404848788577e-02,-2.543240544001548059e-02,-2.277453362898117922e-02
1.516666666666666607e+00,1.643937587811870575e+09,-2.741513541263672360e-02,-3.926091485838159589e-02,0.000000000000000000e+00,-1.570436594335263836e-01,-2.890394593048549107e-02,-2.581825033513428930e-02,-2.352476974701015605e-02
1.533333333333333215e+00,1.643937587829080582e+09,-2.778191667710679449e-02,-3.124848325463007448e-02,0.000000000000000000e+00,-1.249939330185202979e-01,-3.064936283888673035e-02,-2.621562993936983263e-02,-2.415902091099989338e-02
1.550000000000000044e+00,1.643937587843035460e+09,-2.818396021350594999e-02,-3.926091485838159589e-02,0.000000000000000000e+00,-1.570436594335263836e-01,-3.140594710921865151e-02,-2.662470397409930772e-02,-2.492772790906375505e-02
1.566666666666666652e+00,1.643937587860336781e+09,-2.862190515126625950e-02,-3.926091485838159589e-02,0.000000000000000000e+00,-1.570436594335263836e-01,-3.105690369669891759e-02,-2.704643540788541356e-02,-2.567796011786232374e-02
1.583333333333333259e+00,1.643937587879825592e+09,-2.909606128540732223e-02,-3.124848325463007448e-02,0.000000000000000000e+00,-1.249939330185202979e-01,-2.949193698809684724e-02,-2.747924425433738785e-02,-2.625749160878913108e-02
1.600000000000000089e+00,1.643937587896780014e+09,-2.960640141044921722e-02,-3.124848325463007448e-02,0.000000000000000000e+00,-1.249939330185202979e-01,-2.660901902940670388e-02,-2.792123372372583290e-02,-2.677979384413463337e-02
1.616666666666666696e+00,1.643937587913203716e+09,-3.015255695085377122e-02,-3.124848325463007448e-02,0.000000000000000000e+00,-1.249939330185202979e-01,-2.231613715218095512e-02,-2.837126315473777194e-02,-2.722250808656954610e-02
1.633333333333333304e+00,1.643937587930146694e+09,-3.073381699334053543e-02,-3.124848325463007448e-02,0.000000000000000000e+00,-1.249939330185202979e-01,-1.653299846205679574e-02,-2.882781123854339170e-02,-2.756231803137537337e-02
1.649999999999999911e+00,1.643937587948099613e+09,-3.134913079372300682e-02,-3.926091485838159589e-02,0.000000000000000000e+00,-1.570436594335263836e-01,-9.192668396886394602e-03,-2.929006871770984538e-02,-2.790762027313005433e-02
1.666666666666666741e+00,1.643937587967309237e+09,-3.199711379684139212e-02,-3.926091485838159589e-02,0.000000000000000000e+00,-1.570436594335263836e-01,-2.431205792821074067e-04,-2.975679742491081636e-02,-2.809929215655681406e-02
1.683333333333333348e+00,1.643937587984330893e+09,-3.267605717304956914e-02,-3.124848325463007448e-02,0.000000000000000000e+00,-1.249939330185202979e-01,1.035132451343259534e-02,-3.022412419859244262e-02,-2.798025136189514345e-02
1.699999999999999956e+00,1.643937588000503063e+09,-3.338394083888415048e-02,-3.124848325463007448e-02,0.000000000000000000e+00,-1.249939330185202979e-01,2.260869395593768927e-02,-3.068779040702019137e-02,-2.766058164177893214e-02
1.716666666666666563e+00,1.643937588017641783e+09,-3.411844989334616302e-02,-3.124848325463007448e-02,0.000000000000000000e+00,-1.249939330185202979e-01,3.652821088410098532e-02,-3.114425036909702904e-02,-2.711612621921091065e-02
1.733333333333333393e+00,1.643937588036214590e+09,-3.487699436502611494e-02,-3.926091485838159589e-02,0.000000000000000000e+00,-1.570436594335263836e-01,5.208931698170390229e-02,-3.159066864789803614e-02,-2.645590123835453097e-02
1.750000000000000000e+00,1.643937588052117109e+09,-3.565673212945913439e-02,-3.124848325463007448e-02,0.000000000000000000e+00,-1.249939330185202979e-01,6.925088739298951301e-02,-3.202269732190247270e-02,-2.539049916204410076e-02
1.766666666666666607e+00,1.643937588069094896e+09,-3.645459482098285797e-02,-3.926091485838159589e-02,0.000000000000000000e+00,-1.570436594335263836e-01,8.795065481634928295e-02,-3.243564030834537870e-02,-2.416606050963506641e-02
1.783333333333333215e+00,1.643937588088044882e+09,-3.726731652934688749e-02,-3.124848325463007448e-02,0.000000000000000000e+00,-1.249939330185202979e-01,1.081048575887087332e-01,-3.282445471439806445e-02,-2.249630653134773728e-02
1.800000000000000044e+00,1.643937588104002476e+09,-3.809146503875885520e-02,-3.124848325463007448e-02,0.000000000000000000e+00,-1.249939330185202979e-01,1.296081243883122347e-01,-3.318270047279206492e-02,-2.049873342072570243e-02
1.816666666666666652e+00,1.643937588122064590e+09,-3.892347533629667011e-02,-3.926091485838159589e-02,0.000000000000000000e+00,-1.570436594335263836e-01,1.523336057856984893e-01,-3.350589707802491268e-02,-1.829099196670423699e-02
1.833333333333333259e+00,1.643937588138021946e+09,-3.975968508801750595e-02,-3.926091485838159589e-02,0.000000000000000000e+00,-1.570436594335263836e-01,1.761333602816745336e-01,-3.378931569274225971e-02,-1.572636592826534216e-02
1.849999999999999867e+00,1.643937588153333187e+09,-4.059637175497414485e-02,-3.926091485838159589e-02,0.000000000000000000e+00,-1.570436594335263836e-01,2.008389997130300142e-01,-3.402693241233473165e-02,-1.279578112776206221e-02
1.866666666666666696e+00,1.643937588173302889e+09,-4.142979099802241577e-02,-3.926091485838159589e-02,0.000000000000000000e+00,-1.570436594335263836e-01,2.262625960100540790e-01,-3.421259930594755527e-02,-9.493419548288034235e-03
1.883333333333333304e+00,1.643937588188410521e+09,-4.225621600005298462e-02,-3.124848325463007448e-02,0.000000000000000000e+00,-1.249939330185202979e-01,2.521978482855539716e-01,-3.433899409269530051e-02,-5.684535344358228673e-03
1.899999999999999911e+00,1.643937588209216118e+09,-4.307197731736771978e-02,-3.124848325463007448e-02,0.000000000000000000e+00,-1.249939330185202979e-01,2.784215061558295568e-01,-3.439881153632109306e-02,-1.505167519045781145e-03
1.916666666666666741e+00,1.643937588225845098e+09,-4.387350285858290094e-02,-3.124848325463007448e-02,0.000000000000000000e+00,-1.249939330185202979e-01,3.046950420745323518e-01,-3.438592119200359343e-02,3.039384783635092589e-03
1.933333333333333348e+00,1.643937588241338491e+09,-4.465735757987248505e-02,-3.926091485838159589e-02,0.000000000000000000e+00,-1.570436594335263836e-01,3.307665623362972540e-01,-3.429542167480331694e-02,7.807312724400078396e-03
1.949999999999999956e+00,1.643937588257047892e+09,-4.542028247974371630e-02,-3.124848325463007448e-02,0.000000000000000000e+00,-1.249939330185202979e-01,3.563729433151994197e-01,-3.412147179334112934e-02,1.305210384394737792e-02
1.966666666666666563e+00,1.643937588276940346e+09,-4.615923247498503190e-02,-3.926091485838159589e-02,0.000000000000000000e+00,-1.570436594335263836e-01,3.812421764807056856e-01,-3.385850486987681401e-02,1.848882461418846490e-02
1.983333333333333393e+00,1.643937588292043924e+09,-4.687141274204784797e-02,-3.124848325463007448e-02,0.000000000000000000e+00,-1.249939330185202979e-01,4.050959028178968691e-01,-3.350127548652560155e-02,2.436238555689169971e-02
2.000000000000000000e+00,1.643937588310925245e+09,-4.755431311496792490e-02,-3.926091485838159589e-02,0.000000000000000000e+00,-1.570436594335263836e-01,4.276521145064259288e-01,-3.304495588580191184e-02,3.037925261696874935e-02
2.016666666666666607e+00,1.643937588326395273e+09,-4.820574014201618740e-02,-3.124848325463007448e-02,0.000000000000000000e+00,-1.249939330185202979e-01,4.486279991196629457e-01,-3.248518233939062805e-02,3.677580433497468215e-02
2.033333333333333215e+00,1.643937588344347954e+09,-4.882384641856687968e-02,-3.926091485838159589e-02,0.000000000000000000e+00,-1.570436594335263836e-01,4.677428992266615682e-01,-3.181814961410475012e-02,4.325013801582680562e-02
2.049999999999999822e+00,1.643937588360305309e+09,-4.940715683311371065e-02,-3.926091485838159589e-02,0.000000000000000000e+00,-1.570436594335263836e-01,4.847213581478622690e-01,-3.104176049245188293e-02,4.989808961566528228e-02
2.066666666666666430e+00,1.643937588376342773e+09,-4.995459138684096856e-02,-3.926091485838159589e-02,0.000000000000000000e+00,-1.570436594335263836e-01,4.992962207616993275e-01,-3.015347730856382177e-02,5.667706153016584952e-02
2.083333333333333481e+00,1.643937588394463778e+09,-5.046548427451849617e-02,-3.124848325463007448e-02,0.000000000000000000e+00,-1.249939330185202979e-01,5.112117567118564798e-01,-2.915039511359539953e-02,6.367336722615120348e-02
2.100000000000000089e+00,1.643937588414125681e+09,-5.093959894553921203e-02,-3.124848325463007448e-02,0.000000000000000000e+00,-1.249939330185202979e-01,5.202267721491701247e-01,-2.803042899849713873e-02,7.070303925929527500e-02
2.116666666666666696e+00,1.643937588432064533e+09,-5.137713889842712711e-02,-3.926091485838159589e-02,0.000000000000000000e+00,-1.570436594335263836e-01,5.261176752802511070e-01,-2.679456565122652345e-02,7.758145525238915874e-02
2.133333333333333304e+00,1.643937588444993973e+09,-5.177875399984261523e-02,-3.124848325463007448e-02,0.000000000000000000e+00,-1.249939330185202979e-01,5.286814605053187233e-01,-2.544355129530781814e-02,8.452099051731526425e-02
2.149999999999999911e+00,1.643937588463811398e+09,-5.214554215968923712e-02,-3.124848325463007448e-02,0.000000000000000000e+00,-1.249939330185202979e-01,5.277385758250976444e-01,-2.397796674208293316e-02,9.133024084026483691e-02
2.166666666666666519e+00,1.643937588479748487e+09,-5.247904623704966603e-02,-3.124848325463007448e-02,0.000000000000000000e+00,-1.249939330185202979e-01,5.231356384914422897e-01,-2.240047094052903878e-02,9.795086429265781325e-02
2.183333333333333126e+00,1.643937588494708061e+09,-5.278124609696838165e-02,-3.124848325463007448e-02,0.000000000000000000e+00,-1.249939330185202979e-01,5.147479645747570220e-01,-2.071470436828991984e-02,1.043234224090874712e-01
2.200000000000000178e+00,1.643937588512680531e+09,-5.305454578516422687e-02,-3.926091485838159589e-02,0.000000000000000000e+00,-1.570436594335263836e-01,5.024818792248838539e-01,-1.892640955389710347e-02,1.102554770008030288e-01
2.216666666666666785e+00,1.643937588530632257e+09,-5.330175583616427598e-02,-3.124848325463007448e-02,0.000000000000000000e+00,-1.249939330185202979e-01,4.862767759079870689e-01,-1.704119807722075108e-02,1.159540704016826240e-01
2.233333333333333393e+00,1.643937588549699783e+09,-5.352607077966707594e-02,-3.124848325463007448e-02,0.000000000000000000e+00,-1.249939330185202979e-01,4.661068948024150727e-01,-1.506458301046952747e-02,1.212250955273944802e-01
2.250000000000000000e+00,1.643937588565023661e+09,-5.373104195969349850e-02,-3.124848325463007448e-02,0.000000000000000000e+00,-1.249939330185202979e-01,4.419827928192274213e-01,-1.300417759458004363e-02,1.260102619375816080e-01
2.266666666666666607e+00,1.643937588582320213e+09,-5.392054583080597985e-02,-3.926091485838159589e-02,0.000000000000000000e+00,-1.570436594335263836e-01,4.139524803611073223e-01,-1.086965857655379161e-02,1.301206023446007942e-01
2.283333333333333215e+00,1.643937588600271702e+09,-5.409874794487406352e-02,-3.124848325463007448e-02,0.000000000000000000e+00,-1.249939330185202979e-01,3.821022029252228447e-01,-8.670494102505912556e-03,1.337689998650627987e-01
2.299999999999999822e+00,1.643937588617821693e+09,-5.427006289005976980e-02,-3.926091485838159589e-02,0.000000000000000000e+00,-1.570436594335263836e-01,3.465568489654474171e-01,-6.417043144679085431e-03,1.366371478090203928e-01
2.316666666666666430e+00,1.643937588634307384e+09,-5.443911049039287103e-02,-3.926091485838159589e-02,0.000000000000000000e+00,-1.570436594335263836e-01,3.074799690271538544e-01,-4.121583189300089337e-03,1.388120054231209433e-01
2.333333333333333481e+00,1.643937588649640560e+09,-5.461066861902914155e-02,-3.124848325463007448e-02,0.000000000000000000e+00,-1.249939330185202979e-01,2.650733950196511590e-01,-1.794926535548760360e-03,1.403824306321199700e-01
2.350000000000000089e+00,1.643937588666000843e+09,-5.478962302055306877e-02,-3.124848325463007448e-02,0.000000000000000000e+00,-1.249939330185202979e-01,2.195764525597919958e-01,5.514029033782019869e-04,1.411749006816123697e-01
2.366666666666666696e+00,1.643937588684649944e+09,-5.498091457704901153e-02,-3.124848325463007448e-02,0.000000000000000000e+00,-1.249939330185202979e-01,1.712647635645399846e-01,2.904157885514550234e-03,1.411557503713078421e-01
2.383333333333333304e+00,1.643937588701603413e+09,-5.518948448867545820e-02,-3.926091485838159589e-02,0.000000000000000000e+00,-1.570436594335263836e-01,1.204486406468064652e-01,5.248470911558642676e-03,1.401645661084041650e-01
2.399999999999999911e+00,1.643937588716911554e+09,-5.542021787172309033e-02,-3.926091485838159589e-02,0.000000000000000000e+00,-1.570436594335263836e-01,6.747107933181109574e-02,7.569083815549534910e-03,1.383141226123037748e-01
2.416666666666666519e+00,1.643937588737202406e+09,-5.567788630523041321e-02,-3.124848325463007448e-02,0.000000000000000000e+00,-1.249939330185202979e-01,1.270535861250559825e-02,9.852653991163234232e-03,1.357215003593213454e-01
2.433333333333333126e+00,1.643937588753530979e+09,-5.596708988081090796e-02,-3.926091485838159589e-02,0.000000000000000000e+00,-1.570436594335263836e-01,-4.344773514684226873e-02,1.208450931579321819e-02,1.321111675346043068e-01
2.450000000000000178e+00,1.643937588771874189e+09,-5.629219932909663299e-02,-3.124848325463007448e-02,0.000000000000000000e+00,-1.249939330185202979e-01,-1.005630415202487388e-01,1.424990897408501614e-02,1.277489091300645363e-01
2.466666666666666785e+00,1.643937588788971663e+09,-5.665729880984248651e-02,-3.124848325463007448e-02,0.000000000000000000e+00,-1.249939330185202979e-01,-1.581944927860274019e-01,1.633524675813669697e-02,1.225061884120018929e-01
2.483333333333333393e+00,1.643937588805124283e+09,-5.706612996102222723e-02,-3.124848325463007448e-02,0.000000000000000000e+00,-1.249939330185202979e-01,-2.158788862360471184e-01,1.832596259354937751e-02,1.163966830850779177e-01
2.500000000000000000e+00,1.643937588823792219e+09,-5.752203780499515196e-02,-3.124848325463007448e-02,0.000000000000000000e+00,-1.249939330185202979e-01,-2.731399301698437254e-01,2.020778826414446755e-02,1.094417171907415970e-01
2.516666666666666607e+00,1.643937588840795994e+09,-5.802791910688334664e-02,-3.124848325463007448e-02,0.000000000000000000e+00,-1.249939330185202979e-01,-3.294925280291534087e-01,2.196687501092562181e-02,1.016702802558973884e-01
2.533333333333333215e+00,1.643937588857750416e+09,-5.858617377158236578e-02,-3.926091485838159589e-02,0.000000000000000000e+00,-1.570436594335263836e-01,-3.844472617478246201e-01,2.358881414724673525e-02,9.298653817613949935e-02
2.549999999999999822e+00,1.643937588877699375e+09,-5.919865985129433433e-02,-3.926091485838159589e-02,0.000000000000000000e+00,-1.570436594335263836e-01,-4.375150323604445335e-01,2.505989390473790587e-02,8.356919263166789902e-02
2.566666666666666430e+00,1.643937588892657042e+09,-5.986665271513234854e-02,-4.727334646213282587e-02,0.000000000000000000e+00,-1.890933858485313035e-01,-4.882118132710170366e-01,2.636720968589345224e-02,7.333712418829319013e-02
2.583333333333333481e+00,1.643937588906301498e+09,-6.059080890627299709e-02,-6.329820966963557727e-02,0.000000000000000000e+00,-2.531928386785423091e-01,-5.360634693677123197e-01,2.749658159467282051e-02,6.221839096222468724e-02
2.600000000000000089e+00,1.643937588926341295e+09,-6.137113518044551297e-02,-8.733550448088985008e-02,0.000000000000000000e+00,-3.493420179235594003e-01,-5.806105934141870817e-01,2.843270409384454980e-02,5.014983349813501023e-02
2.616666666666666696e+00,1.643937588942393064e+09,-6.220696318242903422e-02,-1.113727992921438176e-01,0.000000000000000000e+00,-4.454911971685752703e-01,-6.214133098807284039e-01,2.916039514908259911e-02,3.720904062334909335e-02
2.633333333333333304e+00,1.643937588957605124e+09,-6.309693017490741740e-02,-1.193852308958953390e-01,0.000000000000000000e+00,-4.775409235835813559e-01,-6.580559956233734686e-01,2.966802592475366318e-02,2.374405607235688387e-02
2.649999999999999911e+00,1.643937588975203991e+09,-6.403896618679941199e-02,-1.354100941033981043e-01,0.000000000000000000e+00,-5.416403764135924170e-01,-6.901518665945448605e-01,2.994645362181072579e-02,9.706262363667436666e-03
2.666666666666666519e+00,1.643937588992260695e+09,-6.503028789636676466e-02,-1.434225257071493065e-01,0.000000000000000000e+00,-5.736901028285972259e-01,-7.173473800878005235e-01,2.998799405851658093e-02,-4.681443169620916681e-03
2.683333333333333126e+00,1.643937589009368181e+09,-6.606739950840238851e-02,-1.514349573109008418e-01,0.000000000000000000e+00,-6.057398292436033671e-01,-7.393264028891270989e-01,2.978758420542097080e-02,-1.932705598652577350e-02
2.700000000000000178e+00,1.643937589025845528e+09,-6.714610082503591482e-02,-1.434225257071493065e-01,0.000000000000000000e+00,-5.736901028285972259e-01,-7.558140971291782417e-01,2.934393305722271875e-02,-3.387068188559964887e-02
2.716666666666666785e+00,1.643937589043795824e+09,-6.826150264665159506e-02,-1.514349573109008418e-01,0.000000000000000000e+00,-6.057398292436033671e-01,-7.665804776001881038e-01,2.865730317801208279e-02,-4.848430925490716109e-02
2.733333333333333393e+00,1.643937589061456442e+09,-6.940804957359723859e-02,-1.434225257071493065e-01,0.000000000000000000e+00,-5.736901028285972259e-01,-7.714435968071492455e-01,2.772956626875000899e-02,-6.280434105421672797e-02
2.750000000000000000e+00,1.643937589079408169e+09,-7.057955021133768825e-02,-1.434225257071493065e-01,0.000000000000000000e+00,-5.736901028285972259e-01,-7.702723170481852177e-01,2.656530183051492369e-02,-7.686832399523721437e-02
2.766666666666666607e+00,1.643937589097739458e+09,-7.176921471203970282e-02,-1.434225257071493065e-01,0.000000000000000000e+00,-5.736901028285972259e-01,-7.629886323409403870e-01,2.516958622710361096e-02,-9.057946102596073357e-02
2.783333333333333215e+00,1.643937589114692450e+09,-7.296969951488811723e-02,-1.514349573109008418e-01,0.000000000000000000e+00,-6.057398292436033671e-01,-7.495695070013816963e-01,2.354799223750496037e-02,-1.039746081082334600e-01
2.799999999999999822e+00,1.643937589130072594e+09,-7.417315907634638994e-02,-1.434225257071493065e-01,0.000000000000000000e+00,-5.736901028285972259e-01,-7.300482021041191372e-01,2.170879891435795531e-02,-1.166932602486075998e-01
2.816666666666666430e+00,1.643937589146158695e+09,-7.537130431074054449e-02,-1.514349573109008418e-01,0.000000000000000000e+00,-6.057398292436033671e-01,-7.045150658693355439e-01,1.966180473058388306e-02,-1.289120997845041305e-01
2.833333333333333481e+00,1.643937589165119171e+09,-7.655546739161371572e-02,-1.434225257071493065e-01,0.000000000000000000e+00,-5.736901028285972259e-01,-6.731177691857953560e-01,1.741829418476044389e-02,-1.402775941535631121e-01
2.850000000000000089e+00,1.643937589180397749e+09,-7.771667249593386395e-02,-1.514349573109008418e-01,0.000000000000000000e+00,-6.057398292436033671e-01,-6.360609729426054404e-01,1.499094016267562939e-02,-1.509751723023700642e-01
2.866666666666666696e+00,1.643937589196755409e+09,-7.884571200709745986e-02,-1.514349573109008418e-01,0.000000000000000000e+00,-6.057398292436033671e-01,-5.936054195508450038e-01,1.239263470849429755e-02,-1.607942064625511591e-01
2.883333333333333304e+00,1.643937589214706182e+09,-7.993322762940398285e-02,-1.514349573109008418e-01,0.000000000000000000e+00,-6.057398292436033671e-01,-5.460664469325253734e-01,9.638601001492852829e-03,-1.696651961596068181e-01
2.899999999999999911e+00,1.643937589230663776e+09,-8.096979580692328926e-02,-1.514349573109008418e-01,0.000000000000000000e+00,-6.057398292436033671e-01,-4.938119292782780501e-01,6.745160151782376642e-03,-1.775258700863826533e-01
2.916666666666666519e+00,1.643937589249593019e+09,-8.194601678405592782e-02,-1.594473889146520718e-01,0.000000000000000000e+00,-6.377895556586082870e-01,-4.372596549639512498e-01,3.728498137459153663e-03,-1.844543254700361512e-01
2.933333333333333126e+00,1.643937589265550375e+09,-8.285260659418296203e-02,-1.594473889146520718e-01,0.000000000000000000e+00,-6.377895556586082870e-01,-3.768741581053090539e-01,6.056593034131346059e-04,-1.902701790863228215e-01
2.950000000000000178e+00,1.643937589281083345e+09,-8.368049121718244832e-02,-1.594473889146520718e-01,0.000000000000000000e+00,-6.377895556586082870e-01,-3.131630262536316267e-01,-2.604507322312863728e-03,-1.949368527134015538e-01
2.966666666666666785e+00,1.643937589299233913e+09,-8.442090210678163120e-02,-1.594473889146520718e-01,0.000000000000000000e+00,-6.377895556586082870e-01,-2.466727126270988335e-01,-5.882623603238752372e-03,-1.984274047915048356e-01
2.983333333333333393e+00,1.643937589316891432e+09,-8.506547225518236444e-02,-1.594473889146520718e-01,0.000000000000000000e+00,-6.377895556586082870e-01,-1.779838869676685920e-01,-9.208946300464490933e-03,-2.007249366923177791e-01
3.000000000000000000e+00,1.643937589335064650e+09,-8.560633193559910592e-02,-1.674598205184035793e-01,0.000000000000000000e+00,-6.698392820736143172e-01,-1.077063645458592178e-01,-1.256464377437229232e-02,-2.019553423028143668e-01
3.016666666666666607e+00,1.643937589349982500e+09,-8.603620324364133487e-02,-1.674598205184035793e-01,0.000000000000000000e+00,-6.698392820736143172e-01,-3.647365794363902070e-02,-1.593083936723920999e-02,-2.019880380176481693e-01
3.033333333333333215e+00,1.643937589366147041e+09,-8.634849254620126369e-02,-1.594473889146520718e-01,0.000000000000000000e+00,-6.377895556586082870e-01,3.506279903224461536e-02,-1.928658804055502149e-02,-2.007053658423724740e-01
3.049999999999999822e+00,1.643937589384356260e+09,-8.653737994191956773e-02,2.503017754452542820e-01,5.463322191465417310e-01,-6.377895556586082870e-01,1.062397016748440198e-01,-2.255471025926113204e-02,-1.914948856716647274e-01
3.066666666666666430e+00,1.643937589402307987e+09,-8.659790484061104243e-02,-1.674598205184035793e-01,0.000000000000000000e+00,-6.698392820736143172e-01,1.763881415249796414e-01,-2.571860913381040364e-02,-1.881821814470058529e-01
3.083333333333333481e+00,1.643937589417286634e+09,-8.652604678036186769e-02,-1.674598205184035793e-01,0.000000000000000000e+00,-6.698392820736143172e-01,2.448400296904186535e-01,-2.881829921469355321e-02,-1.837928212132557970e-01
3.100000000000000089e+00,1.643937589435225487e+09,-8.631880062043038870e-02,-1.594473889146520718e-01,0.000000000000000000e+00,-6.377895556586082870e-01,3.109346130358148219e-01,-3.183520385442447503e-02,-1.782511295048388178e-01
3.116666666666666696e+00,1.643937589453323364e+09,-8.597424527558708562e-02,-1.674598205184035793e-01,0.000000000000000000e+00,-6.698392820736143172e-01,3.740250179219714588e-01,-3.475290498975360659e-02,-1.718906750794502170e-01
3.133333333333333304e+00,1.643937589471705675e+09,-8.549160519302882733e-02,-1.594473889146520718e-01,0.000000000000000000e+00,-6.377895556586082870e-01,4.334847548115928206e-01,-3.755615777088620183e-02,-1.645201328667019458e-01
3.149999999999999911e+00,1.643937589485645294e+09,-8.487130381636891208e-02,-1.674598205184035793e-01,0.000000000000000000e+00,-6.698392820736143172e-01,4.887141163819892498e-01,-4.023106457884756404e-02,-1.564909877943475025e-01
3.166666666666666519e+00,1.643937589504766226e+09,-8.411500833217920581e-02,-1.594473889146520718e-01,0.000000000000000000e+00,-6.377895556586082870e-01,5.391464018119631607e-01,-4.276518887831445848e-02,-1.476285466132587487e-01
3.183333333333333126e+00,1.643937589519003630e+09,-8.322566505288402083e-02,-1.674598205184035793e-01,0.000000000000000000e+00,-6.698392820736143172e-01,5.842539006511320299e-01,-4.514770632036531339e-02,-1.382994611689957465e-01
3.200000000000000178e+00,1.643937589538895607e+09,-8.220752485508589502e-02,-1.674598205184035793e-01,0.000000000000000000e+00,-6.698392820736143172e-01,6.235535711388880964e-01,-4.737059945285112400e-02,-1.284750055261685286e-01
3.216666666666666785e+00,1.643937589555881739e+09,-8.106615816421877674e-02,-1.594473889146520718e-01,0.000000000000000000e+00,-6.377895556586082870e-01,6.566123500130239821e-01,-4.942543584058742973e-02,-1.181340864534593527e-01
3.233333333333333393e+00,1.643937589571604252e+09,-7.980845905426912912e-02,-1.674598205184035793e-01,0.000000000000000000e+00,-6.698392820736143172e-01,6.830520337226376748e-01,-5.130680668875853279e-02,-1.076595120518843568e-01
3.250000000000000000e+00,1.643937589589900017e+09,-7.844263811462549862e-02,-1.594473889146520718e-01,0.000000000000000000e+00,-6.377895556586082870e-01,7.025536745167556552e-01,-5.301124779293791417e-02,-9.690329952100323885e-02
3.266666666666666607e+00,1.643937589606981993e+09,-7.697820382427769670e-02,-1.594473889146520718e-01,0.000000000000000000e+00,-6.377895556586082870e-01,7.148614390917349404e-01,-5.453620438712676599e-02,-8.612144209052967347e-02
3.283333333333333215e+00,1.643937589622725487e+09,-7.542593226593273525e-02,-1.674598205184035793e-01,0.000000000000000000e+00,-6.698392820736143172e-01,7.197858823121079386e-01,-5.588337906749885758e-02,-7.556883304692917080e-02
3.299999999999999822e+00,1.643937589641539335e+09,-7.379782510840429688e-02,-1.674598205184035793e-01,0.000000000000000000e+00,-6.698392820736143172e-01,7.172065939290418468e-01,-5.705649071470261791e-02,-6.523327517621477223e-02
3.316666666666666430e+00,1.643937589660433769e+09,-7.210705588411077394e-02,-1.674598205184035793e-01,0.000000000000000000e+00,-6.698392820736143172e-01,7.070741821590358356e-01,-5.806017011024083851e-02,-5.523602308666601679e-02
3.333333333333333481e+00,1.643937589678532362e+09,-7.036790468888307060e-02,-1.594473889146520718e-01,0.000000000000000000e+00,-6.377895556586082870e-01,6.894115643975015084e-01,-5.889994235159413949e-02,-4.556351458726522197e-02
3.350000000000000089e+00,1.643937589693728209e+09,-6.859568153268680302e-02,-1.674598205184035793e-01,0.000000000000000000e+00,-6.698392820736143172e-01,6.643145421660611172e-01,-5.958441518394205078e-02,-3.659812972745635218e-02
3.366666666666666696e+00,1.643937589710480452e+09,-6.680663867146889590e-02,-1.594473889146520718e-01,0.000000000000000000e+00,-6.377895556586082870e-01,6.319516445621381484e-01,-6.012406653723757766e-02,-2.818340744670272402e-02
3.383333333333333304e+00,1.643937589729721785e+09,-6.501787235125056075e-02,-1.674598205184035793e-01,0.000000000000000000e+00,-6.698392820736143172e-01,5.925632319230641487e-01,-6.053118179308580871e-02,-2.069123533411015153e-02
3.399999999999999911e+00,1.643937589745881319e+09,-6.324721449494580261e-02,-1.594473889146520718e-01,0.000000000000000000e+00,-6.377895556586082870e-01,5.464598590592553151e-01,-6.081972347608785578e-02,-1.395248581536471903e-02
3.416666666666666519e+00,1.643937589762835979e+09,-6.151311495926282957e-02,-1.674598205184035793e-01,0.000000000000000000e+00,-6.698392820736143172e-01,4.940199051730158608e-01,-6.100523314020465937e-02,-8.324308073671045707e-03
3.433333333333333126e+00,1.643937589780833244e+09,-5.983451508262487700e-02,-1.594473889146520718e-01,0.000000000000000000e+00,-6.377895556586082870e-01,4.356864853801850068e-01,-6.110466756867528187e-02,-3.620888704108210163e-03
3.449999999999999734e+00,1.643937589796228170e+09,-5.823071333439105296e-02,-1.674598205184035793e-01,0.000000000000000000e+00,-6.698392820736143172e-01,3.719636665082087790e-01,-6.113626942153958105e-02,-1.808894180804904162e-04
3.466666666666666785e+00,1.643937589813481092e+09,-5.672122395998539096e-02,-1.674598205184035793e-01,0.000000000000000000e+00,-6.698392820736143172e-01,3.034120174726726016e-01,-6.112048147535802112e-02,2.069192584975764089e-03
3.483333333333333393e+00,1.643937589830981016e+09,-5.532562959499014860e-02,-1.594473889146520718e-01,0.000000000000000000e+00,-6.377895556586082870e-01,2.306435319515901805e-01,-6.107644708338631073e-02,3.211760576953021085e-03
3.500000000000000000e+00,1.643937589849290609e+09,-5.406342889308116822e-02,-1.674598205184035793e-01,0.000000000000000000e+00,-6.698392820736143172e-01,1.543159682001207511e-01,-6.102517678585116234e-02,2.941426074113160077e-03
3.516666666666666607e+00,1.643937589864251614e+09,-5.295388027712297913e-02,-1.674598205184035793e-01,0.000000000000000000e+00,-6.698392820736143172e-01,7.512665759763090256e-02,-6.098931239172052793e-02,1.366675631302978564e-03
3.533333333333333215e+00,1.643937589881209135e+09,-5.201584297913262184e-02,-1.594473889146520718e-01,0.000000000000000000e+00,-6.377895556586082870e-01,-6.194160183502214062e-03,-6.098960172386407030e-02,-1.393727521522716492e-03
3.549999999999999822e+00,1.643937589897909164e+09,-5.126761658252117909e-02,-1.594473889146520718e-01,0.000000000000000000e+00,-6.377895556586082870e-01,-8.889041172632446142e-02,-6.104693855448668771e-02,-5.475354034916375331e-03
3.566666666666666430e+00,1.643937589915288687e+09,-5.072678031848713159e-02,-1.594473889146520718e-01,0.000000000000000000e+00,-6.377895556586082870e-01,-1.721876052972595439e-01,-6.118324378731413576e-02,-1.086629870562078395e-02
3.583333333333333481e+00,1.643937589934306383e+09,-5.041003339716233073e-02,-1.674598205184035793e-01,0.000000000000000000e+00,-6.698392820736143172e-01,-2.553005137982093387e-01,-6.142123977546299490e-02,-1.767430828941547044e-02
3.600000000000000089e+00,1.643937589951818705e+09,-5.033303767268603596e-02,-1.594473889146520718e-01,0.000000000000000000e+00,-6.377895556586082870e-01,-3.374410480865217554e-01,-6.178200087485830050e-02,-2.559502114003972539e-02
3.616666666666666696e+00,1.643937589970828295e+09,-5.051026394948048004e-02,-1.674598205184035793e-01,0.000000000000000000e+00,-6.698392820736143172e-01,-4.178262404732824287e-01,-6.228588936621964195e-02,-3.484590033187314612e-02
3.633333333333333304e+00,1.643937589986106157e+09,-5.095484323434668061e-02,-1.674598205184035793e-01,0.000000000000000000e+00,-6.698392820736143172e-01,-4.956862559883342678e-01,-6.295343550558782364e-02,-4.523078880095059151e-02
3.649999999999999911e+00,1.643937590003970385e+09,-5.167842422546867903e-02,2.437160414025716648e-01,5.482344825613003625e-01,-6.698392820736143172e-01,-5.702723476245112888e-01,-6.374613880644318387e-02,-4.988069060379422826e-02
3.666666666666666519e+00,1.643937590021609783e+09,-5.269103830488106738e-02,2.736766901850211653e-01,5.881820142712329558e-01,-6.698392820736143172e-01,-6.408646712711373317e-01,-6.462131029112837266e-02,-5.512531880387764455e-02
3.683333333333333126e+00,1.643937590038812876e+09,-5.400097326550191285e-02,2.465694365247097231e-01,5.520390093908177365e-01,-6.698392820736143172e-01,-7.067798764349436658e-01,-6.559601616357935150e-02,-6.182078692993056568e-02
3.699999999999999734e+00,1.643937590056145191e+09,-5.561465695750443528e-02,-1.594473889146520718e-01,0.000000000000000000e+00,-6.377895556586082870e-01,-7.673783901342826619e-01,-6.674583753353557913e-02,-7.611806187745658037e-02
3.716666666666666785e+00,1.643937590073105097e+09,-5.753655198188255271e-02,-1.594473889146520718e-01,0.000000000000000000e+00,-6.377895556586082870e-01,-8.220713135381397807e-01,-6.813952628640496112e-02,-9.108301816546707230e-02
3.733333333333333393e+00,1.643937590088241816e+09,-5.976906249176498070e-02,-1.594473889146520718e-01,0.000000000000000000e+00,-6.377895556586082870e-01,-8.703268539948505467e-01,-6.978722908950427128e-02,-1.065982194108594794e-01
3.750000000000000000e+00,1.643937590106510401e+09,-6.231245408485100445e-02,-1.594473889146520718e-01,0.000000000000000000e+00,-6.377895556586082870e-01,-9.116762190356497708e-01,-7.169708680762071351e-02,-1.225404218252480609e-01
3.766666666666666607e+00,1.643937590122926712e+09,-6.516478768365728536e-02,-1.674598205184035793e-01,0.000000000000000000e+00,-6.698392820736143172e-01,-9.457189037155483424e-01,-7.387625462800351261e-02,-1.389142327420977985e-01
3.783333333333333215e+00,1.643937590144127131e+09,-6.832186820473870603e-02,-1.674598205184035793e-01,0.000000000000000000e+00,-6.698392820736143172e-01,-9.721273082290116108e-01,-7.632970528007501643e-02,-1.554539009024832052e-01
3.799999999999999822e+00,1.643937590158970594e+09,-7.177720871426633564e-02,-1.594473889146520718e-01,0.000000000000000000e+00,-6.377895556586082870e-01,-9.906506290619513377e-01,-7.905798437019877223e-02,-1.718939221119694938e-01
3.816666666666666430e+00,1.643937590173478603e+09,-7.552201065610600339e-02,-1.674598205184035793e-01,0.000000000000000000e+00,-6.698392820736143172e-01,-1.001117973957558194e+00,-8.206054554583239180e-02,-1.883676575109352325e-01
3.833333333333333481e+00,1.643937590190488338e+09,-7.954516062059255321e-02,-1.594473889146520718e-01,0.000000000000000000e+00,-6.377895556586082870e-01,-1.003440658615808445e+00,-8.533460774687508243e-02,-2.044750627687335620e-01
3.850000000000000089e+00,1.643937590210318089e+09,-8.383324399847633113e-02,-1.594473889146520718e-01,0.000000000000000000e+00,-6.377895556586082870e-01,-9.976136512422568714e-01,-8.887409711019712832e-02,-2.202199240746933462e-01
3.866666666666666696e+00,1.643937590227807999e+09,-8.837057573592550785e-02,-1.594473889146520718e-01,0.000000000000000000e+00,-6.377895556586082870e-01,-9.837161397307729871e-01,-9.267190660929426615e-02,-2.354748400530199681e-01
3.883333333333333304e+00,1.643937590244025469e+09,-9.313924827401154349e-02,-1.594473889146520718e-01,0.000000000000000000e+00,-6.377895556586082870e-01,-9.619112053209214475e-01,-9.671884598300276026e-02,-2.501172105832377146e-01
3.899999999999999911e+00,1.643937590263660192e+09,-9.811919662084889193e-02,-1.674598205184035793e-01,0.000000000000000000e+00,-6.698392820736143172e-01,-9.324445959224941793e-01,-1.010048391922824529e-01,-2.641629576479729846e-01
3.916666666666666519e+00,1.643937590278520107e+09,-1.032882803675485711e-01,-1.594473889146520718e-01,0.000000000000000000e+00,-6.377895556586082870e-01,-8.956426018507335218e-01,-1.055167983895459877e-01,-2.772358316301325454e-01
3.933333333333333126e+00,1.643937590294062376e+09,-1.086223823215210077e-01,-1.674598205184035793e-01,0.000000000000000000e+00,-6.698392820736143172e-01,-8.519090463670960789e-01,-1.102398993685140133e-01,-2.895022117659228345e-01
3.949999999999999734e+00,1.643937590314297438e+09,-1.140955232935480790e-01,-1.594473889146520718e-01,0.000000000000000000e+00,-6.377895556586082870e-01,-8.017214130697261076e-01,-1.151577071558626403e-01,-3.006038840116471711e-01
3.966666666666666785e+00,1.643937590332241535e+09,-1.196799924396028669e-01,-1.594473889146520718e-01,0.000000000000000000e+00,-6.377895556586082870e-01,-7.456261417218258414e-01,-1.202512615385948613e-01,-3.105948884728562676e-01
3.983333333333333393e+00,1.643937590347203016e+09,-1.253464924257124691e-01,-1.674598205184035793e-01,0.000000000000000000e+00,-6.698392820736143172e-01,-6.842331334415138189e-01,-1.255025797479398797e-01,-3.195384528295098781e-01
4.000000000000000000e+00,1.643937590364178896e+09,-1.310642985555028062e-01,-1.594473889146520718e-01,0.000000000000000000e+00,-6.377895556586082870e-01,-6.182095152002898830e-01,-1.308914961775111685e-01,-3.271104848018542843e-01
4.016666666666666607e+00,1.643937590381704330e+09,-1.368014308763890741e-01,-1.594473889146520718e-01,0.000000000000000000e+00,-6.377895556586082870e-01,-5.482727221882033319e-01,-1.363959075823733547e-01,-3.334014085820397044e-01
4.033333333333333215e+00,1.643937590400655508e+09,-1.425248381629443950e-01,-1.674598205184035793e-01,0.000000000000000000e+00,-6.698392820736143172e-01,-4.751829647045317517e-01,-1.419953102986515336e-01,-3.385127189528104319e-01
4.049999999999999822e+00,1.643937590416800022e+09,-1.482005925657277901e-01,-1.674598205184035793e-01,0.000000000000000000e+00,-6.698392820736143172e-01,-3.997351537288501566e-01,-1.476687746550721658e-01,-3.422925041671773805e-01
4.066666666666666430e+00,1.643937590433662653e+09,-1.537940936118662727e-01,-1.674598205184035793e-01,0.000000000000000000e+00,-6.698392820736143172e-01,-3.227503661310979766e-01,-1.533940801886362337e-01,-3.447373684111049719e-01
4.083333333333333037e+00,1.643937590451861858e+09,-1.592702801508973087e-01,-1.674598205184035793e-01,0.000000000000000000e+00,-6.698392820736143172e-01,-2.450669365071615480e-01,-1.591490660996683626e-01,-3.458578284504989497e-01
4.099999999999999645e+00,1.643937590467809916e+09,-1.645938487566797059e-01,-1.594473889146520718e-01,0.000000000000000000e+00,-6.377895556586082870e-01,-1.675312678043172909e-01,-1.649107556398902996e-01,-3.455457831889265363e-01
4.116666666666666252e+00,1.643937590482742548e+09,-1.697294770244090756e-01,-1.674598205184035793e-01,0.000000000000000000e+00,-6.698392820736143172e-01,-9.098845716065614986e-02,-1.706578220754522424e-01,-3.441061880480155710e-01
4.133333333333332860e+00,1.643937590500871897e+09,-1.746420501416506288e-01,-1.594473889146520718e-01,0.000000000000000000e+00,-6.377895556586082870e-01,-1.627283666643165871e-02,-1.763696676564301680e-01,-3.413230128933890661e-01
4.150000000000000355e+00,1.643937590518948793e+09,-1.792968890645132984e-01,-1.594473889146520718e-01,0.000000000000000000e+00,-6.377895556586082870e-01,5.580146898562757946e-02,-1.820255564593123987e-01,-3.373945560893238937e-01
4.166666666666666963e+00,1.643937590536425591e+09,-1.836599785951378017e-01,-1.674598205184035793e-01,0.000000000000000000e+00,-6.698392820736143172e-01,1.244498647982418826e-01,-1.876081385129086954e-01,-3.325288066310636004e-01
4.183333333333333570e+00,1.643937590552460432e+09,-1.876981936350962110e-01,-1.594473889146520718e-01,0.000000000000000000e+00,-6.377895556586082870e-01,1.889263844477456489e-01,-1.931002845918267097e-01,-3.265453439599273477e-01
4.200000000000000178e+00,1.643937590569415331e+09,-1.913795218813617027e-01,-1.594473889146520718e-01,0.000000000000000000e+00,-6.377895556586082870e-01,2.485324636766460260e-01,-1.984852999103373650e-01,-3.196755773953834923e-01
4.216666666666666785e+00,1.643937590585788250e+09,-1.946732812375390753e-01,-1.594473889146520718e-01,0.000000000000000000e+00,-6.377895556586082870e-01,3.026252879483091740e-01,-2.037492966471455003e-01,-3.120252823413477428e-01
4.233333333333333393e+00,1.643937590605731249e+09,-1.975503302331031164e-01,-1.594473889146520718e-01,0.000000000000000000e+00,-6.377895556586082870e-01,3.506256174302509465e-01,-2.088802152994976846e-01,-3.037080598804022258e-01
4.250000000000000000e+00,1.643937590619889975e+09,-1.999832697775353885e-01,-1.674598205184035793e-01,0.000000000000000000e+00,-6.698392820736143172e-01,3.920249966766009564e-01,-2.138690509345496094e-01,-2.949764713093803170e-01
4.266666666666666607e+00,1.643937590635505199e+09,-2.019466346243649346e-01,-1.674598205184035793e-01,0.000000000000000000e+00,-6.698392820736143172e-01,4.263922617395759507e-01,-2.187088192809893139e-01,-2.858211622759210813e-01
4.283333333333333215e+00,1.643937590653817177e+09,-2.034170729819543277e-01,-1.674598205184035793e-01,0.000000000000000000e+00,-6.698392820736143172e-01,4.533792638113411932e-01,-2.233935362211980635e-01,-2.763711212808300233e-01
4.299999999999999822e+00,1.643937590670786381e+09,-2.043735127831468879e-01,-1.674598205184035793e-01,0.000000000000000000e+00,-6.698392820736143172e-01,4.727257358278054156e-01,-2.279193855781646016e-01,-2.667575066687067897e-01
4.316666666666666430e+00,1.643937590687741756e+09,-2.047973132140918640e-01,-1.674598205184035793e-01,0.000000000000000000e+00,-6.698392820736143172e-01,4.842632366897342000e-01,-2.322847422968002951e-01,-2.571120930138822702e-01
4.333333333333333037e+00,1.643937590704700470e+09,-2.046724002031499734e-01,-1.594473889146520718e-01,0.000000000000000000e+00,-6.377895556586082870e-01,4.879181167988348444e-01,-2.364890628556202690e-01,-2.474332603236592543e-01
4.349999999999999645e+00,1.643937590722859383e+09,-2.039853846830840811e-01,2.545818681284612306e-01,5.520390093908177365e-01,-6.377895556586082870e-01,4.837134583821803280e-01,-2.404768012034175229e-01,-2.311405998673513040e-01
4.366666666666666252e+00,1.643937590738771915e+09,-2.027256625629222375e-01,-1.594473889146520718e-01,0.000000000000000000e+00,-6.377895556586082870e-01,4.717699544934503275e-01,-2.442540811309561466e-01,-2.221579438468327117e-01
4.383333333333332860e+00,1.643937590758134365e+09,-2.008854954791434999e-01,-1.594473889146520718e-01,0.000000000000000000e+00,-6.377895556586082870e-01,4.523057015319487117e-01,-2.478855792260822588e-01,-2.136454738747516624e-01
4.400000000000000355e+00,1.643937590775472879e+09,-1.984600715380832325e-01,-1.674598205184035793e-01,0.000000000000000000e+00,-6.698392820736143172e-01,4.256348915007909239e-01,-2.513811690349142536e-01,-2.058469662162132063e-01
4.416666666666666963e+00,1.643937590792432308e+09,-1.954475454117392819e-01,-1.594473889146520718e-01,0.000000000000000000e+00,-6.377895556586082870e-01,3.921654019190959350e-01,-2.547513769914232507e-01,-1.985981247096301749e-01
4.433333333333333570e+00,1.643937590808361292e+09,-1.918490573062359705e-01,-1.674598205184035793e-01,0.000000000000000000e+00,-6.698392820736143172e-01,3.523952931888081341e-01,-2.580083718847414054e-01,-1.922588719384719369e-01
4.450000000000000178e+00,1.643937590826347351e+09,-1.876687304849091464e-01,-1.594473889146520718e-01,0.000000000000000000e+00,-6.377895556586082870e-01,3.069082351712724144e-01,-2.611657641600618196e-01,-1.866437988922078628e-01
4.466666666666666785e+00,1.643937590844269514e+09,-1.829136471950185694e-01,-1.674598205184035793e-01,0.000000000000000000e+00,-6.698392820736143172e-01,2.563678966256613956e-01,-2.642384347791312260e-01,-1.820893270046841372e-01
4.483333333333333393e+00,1.643937590860221863e+09,-1.775938030171172743e-01,-1.674598205184035793e-01,0.000000000000000000e+00,-6.698392820736143172e-01,2.015113428728097511e-01,-2.672434034139144488e-01,-1.785168329973275125e-01
4.500000000000000000e+00,1.643937590879188538e+09,-1.717220398278063442e-01,-1.594473889146520718e-01,0.000000000000000000e+00,-6.377895556586082870e-01,1.431414984472406116e-01,-2.701962793075490810e-01,-1.758357219448163922e-01
4.516666666666666607e+00,1.643937590897156954e+09,-1.653139577384838965e-01,-1.594473889146520718e-01,0.000000000000000000e+00,-6.377895556586082870e-01,8.211874246088914087e-02,-2.731132688268770314e-01,-1.742075431997178458e-01
4.533333333333333215e+00,1.643937590914083004e+09,-1.583878065434328186e-01,-1.674598205184035793e-01,0.000000000000000000e+00,-6.698392820736143172e-01,1.935171480214762513e-02,-2.760131230128775592e-01,-1.737761574423215549e-01
4.549999999999999822e+00,1.643937590926080465e+09,-1.509643573787085580e-01,-1.594473889146520718e-01,0.000000000000000000e+00,-6.377895556586082870e-01,-4.421257898629859379e-02,-2.789135198703946439e-01,-1.742700933831536625e-01
4.566666666666666430e+00,1.643937590945993662e+09,-1.430667554573398781e-01,-1.594473889146520718e-01,0.000000000000000000e+00,-6.377895556586082870e-01,-1.075992673795499316e-01,-2.818308357719426227e-01,-1.758035550865090224e-01
4.583333333333333037e+00,1.643937590964942694e+09,-1.347203549050613458e-01,-1.674598205184035793e-01,0.000000000000000000e+00,-6.698392820736143172e-01,-1.698166122925141575e-01,-2.847831977378260659e-01,-1.784724670008075442e-01
4.599999999999999645e+00,1.643937590978905201e+09,-1.259525368725998573e-01,3.002361900826702179e-01,6.129114386630963862e-01,-6.377895556586082870e-01,-2.298673964201456976e-01,-2.877233687754187641e-01,-1.743594827355061105e-01
4.616666666666666252e+00,1.643937590998883963e+09,-1.167925122442933228e-01,3.530239998422241010e-01,6.832951850091681933e-01,-6.377895556586082870e-01,-2.867605807181615729e-01,-2.905961251990751282e-01,-1.703823359931153636e-01
4.633333333333332860e+00,1.643937591015806913e+09,-1.072711103971390328e-01,3.301968388651196906e-01,6.528589703730289795e-01,-6.377895556586082870e-01,-3.395231094650120740e-01,-2.934135856548459320e-01,-1.677203133806760837e-01
4.650000000000000355e+00,1.643937591033759356e+09,-9.742055558805104432e-02,3.393047779941966158e-01,6.756861313501335564e-01,-6.698392820736143172e-01,-3.872117367965194346e-01,-2.961923755308727424e-01,-1.657399728180213028e-01
4.666666666666666963e+00,1.643937591048718214e+09,-8.727423265909306505e-02,3.535717536048868515e-01,6.947087654977206483e-01,-6.698392820736143172e-01,-4.289247463425528983e-01,-2.989422241163838811e-01,-1.642460074448045815e-01
4.683333333333333570e+00,1.643937591064677715e+09,-7.686644384956094200e-02,4.077862609255097914e-01,7.669947752585511980e-01,-6.698392820736143172e-01,-4.638134346626380800e-01,-3.016647103344874958e-01,-1.624573074556530938e-01
4.700000000000000178e+00,1.643937591082629442e+09,-6.623215858922359978e-02,4.363202121468904848e-01,8.050400435537253818e-01,-6.698392820736143172e-01,-4.910932296044509537e-01,-3.043574587175491564e-01,-1.606774426968841096e-01
4.716666666666666785e+00,1.643937591102241755e+09,-5.540675821778447141e-02,3.202099559376364035e-01,6.395431264697180040e-01,-6.377895556586082870e-01,-5.100543165096320664e-01,-3.070394446450809278e-01,-1.611595294455522853e-01
4.733333333333333393e+00,1.643937591117229700e+09,-4.442577763108267186e-02,4.143719949681923809e-01,7.650925118437925665e-01,-6.377895556586082870e-01,-5.200716483673147872e-01,-3.097177766567543733e-01,-1.602428583238642013e-01
4.750000000000000000e+00,1.643937591135393143e+09,-3.332464589405872979e-02,4.776944414178922460e-01,8.602056825817276930e-01,-6.698392820736143172e-01,-5.206142205526939071e-01,-3.123722862399136990e-01,-1.583036783929515912e-01
4.766666666666666607e+00,1.643937591152350426e+09,-2.213842788350320334e-02,6.631651243568656984e-01,1.107499926500359111e+00,-6.698392820736143172e-01,-5.112534966583567320e-01,-3.149678337869303846e-01,-1.531762703842931006e-01
4.783333333333333215e+00,1.643937591170298100e+09,-1.090156902990897965e-02,7.396590388919307424e-01,1.198808570408777197e+00,-6.377895556586082870e-01,-4.916708790867865275e-01,-3.174653625954013680e-01,-1.465456055790697321e-01
4.799999999999999822e+00,1.643937591187255383e+09,3.523547830904874556e-04,5.133618804446178352e-01,9.077622679506953673e-01,-6.698392820736143172e-01,-4.616641264673829737e-01,-3.198804078833129005e-01,-1.432689310582042908e-01
4.816666666666666430e+00,1.643937591204210520e+09,1.159088013106450779e-02,5.147885780056870031e-01,9.096645313654541098e-01,-6.698392820736143172e-01,-4.211526295192440927e-01,-3.222355019807782162e-01,-1.393532378192982590e-01
4.833333333333333037e+00,1.643937591221160889e+09,2.278288978719012620e-02,5.450804168238800873e-01,9.286871655130413128e-01,-6.057398292436033671e-01,-3.701814676190275932e-01,-3.245146512755586188e-01,-1.341591060377703148e-01
4.849999999999999645e+00,1.643937591237118483e+09,3.389883536277990550e-02,6.127975822656113181e-01,9.762437508820089871e-01,-4.775409235835813559e-01,-3.089241799542984390e-01,-3.266901351075693349e-01,-1.269190655005710267e-01
4.866666666666666252e+00,1.643937591255069256e+09,4.491094700415361463e-02,7.887271986216696229e-01,1.136033877721740026e+00,-2.531928386785423091e-01,-2.376841976400366763e-01,-3.287118124070061431e-01,-1.157133381847736953e-01
4.883333333333332860e+00,1.643937591271131754e+09,5.579342839434545120e-02,1.116434510213707210e+00,1.508877507014446229e+00,-6.089448018850930622e-02,-1.568948964300535820e-01,-3.304918535691729331e-01,-9.794097012621269527e-02
4.900000000000000355e+00,1.643937591289114952e+09,6.652263541765084109e-02,1.054653387633900596e+00,1.362403224078026387e+00,1.314038783015236689e-01,-6.711824353863433956e-02,-3.319742765687588859e-01,-7.999962805837229629e-02
4.916666666666666963e+00,1.643937591305085897e+09,7.707723696916139733e-02,1.064423706834464189e+00,1.343380589930438962e+00,2.275530575465407879e-01,3.095797353620544437e-02,-3.331452594502634645e-01,-6.057228383735656363e-02
4.933333333333333570e+00,1.643937591321042776e+09,8.743835652930875835e-02,1.184266301964262746e+00,1.503170716770170223e+00,2.275530575465407879e-01,1.365243335708211658e-01,-3.339640029785354014e-01,-3.774036305016658516e-02
4.950000000000000178e+00,1.643937591339248657e+09,9.758969327385524917e-02,1.172304967713047485e+00,1.476539028963548050e+00,2.596027839615456800e-01,2.486553660126185894e-01,-3.343915325612831779e-01,-1.363016123865768217e-02
4.966666666666666785e+00,1.643937591356183290e+09,1.075176216518739236e-01,1.117211516594018628e+00,1.413764336276511324e+00,2.275530575465407879e-01,3.663165006995017792e-01,-3.344119136806031345e-01,1.111568683555428164e-02
4.983333333333333393e+00,1.643937591373158693e+09,1.172112685364784107e-01,1.033036360490945826e+00,1.301530794805747737e+00,2.275530575465407879e-01,4.883723355218095863e-01,-3.340180498093236472e-01,3.607863456448737183e-02
5.000000000000000000e+00,1.643937591392077446e+09,1.266625672343562048e-01,9.340464750145199835e-01,1.158861038698844714e+00,2.596027839615456800e-01,6.135961600475553501e-01,-3.332079612592732110e-01,6.106258993213821429e-02
5.016666666666666607e+00,1.643937591406034708e+09,1.349650214081094257e-01,9.757518943212648566e-01,1.193101780164501413e+00,3.237022367915554644e-01,7.406806589539532970e-01,-3.319616109017520245e-01,8.842344879587067663e-02
5.033333333333333215e+00,1.643937591422996283e+09,1.429082487318560357e-01,1.001215886693587853e+00,1.195004043579259712e+00,4.198514160365725556e-01,8.624901876970336723e-01,-3.302426838330921322e-01,1.177662896337211551e-01
5.049999999999999822e+00,1.643937591440968752e+09,1.504992381847408411e-01,1.054666076524629181e+00,1.223537994800640849e+00,5.480503216965945112e-01,9.817376740063153973e-01,-3.280149091757528224e-01,1.494785774852309124e-01
5.066666666666666430e+00,1.643937591458899260e+09,1.577475525046079519e-01,1.110090717679401928e+00,1.265387789925332074e+00,6.441995009416116025e-01,1.097020327070633794e+00,-3.252393983279210365e-01,1.834882507165663812e-01
5.083333333333333037e+00,1.643937591474858284e+09,1.646651789473337069e-01,1.150369439425077633e+00,1.297726267976229586e+00,7.082989537716214423e-01,1.206945298861386462e+00,-3.218810108168382866e-01,2.194184421769247162e-01
5.099999999999999645e+00,1.643937591492809057e+09,1.712663626609422229e-01,1.065646529559342026e+00,1.174079146016913988e+00,7.403486801866263622e-01,1.310144184478160501e+00,-3.179261975663991713e-01,2.550601408271106485e-01
5.116666666666666252e+00,1.643937591510781765e+09,1.775674241779512386e-01,8.881882782241202756e-01,9.267849020982825703e-01,7.723984066016336136e-01,1.405287400930304242e+00,-3.133936482480162433e-01,2.887521861613014940e-01
5.133333333333332860e+00,1.643937591525721312e+09,1.835865626477019563e-01,8.710679074912919262e-01,9.039577411211779934e-01,7.723984066016336136e-01,1.491098298878383854e+00,-3.082947308329495040e-01,3.230227055190627028e-01
5.150000000000000355e+00,1.643937591541682243e+09,1.893436465352811848e-01,8.799592828934494904e-01,8.944464240473847250e-01,8.364978594316434535e-01,1.566366863977944002e+00,-3.026177473435116005e-01,3.581178244774813613e-01
5.166666666666666963e+00,1.643937591559413433e+09,1.948599936043946268e-01,9.097033679489796576e-01,9.020554777064194729e-01,9.326470386766605447e-01,1.629962868021313849e+00,-2.963478003804283500e-01,3.941756481139030432e-01
5.183333333333333570e+00,1.643937591577943802e+09,2.001581420773244913e-01,8.704182163105337322e-01,8.069423069684841243e-01,1.060845944336682445e+00,1.680848335027943063e+00,-2.894802677733170349e-01,4.298292246957663432e-01
5.200000000000000178e+00,1.643937591590884924e+09,2.052616149254667954e-01,8.165348990256536821e-01,7.137313996453076292e-01,1.124945397166692285e+00,1.718089193743106868e+00,-2.820257320443106952e-01,4.646184238462393035e-01
5.216666666666666785e+00,1.643937591611608505e+09,2.101946792884057114e-01,7.975547032779177758e-01,6.243250191516482861e-01,1.317243755656726467e+00,1.740865995609074401e+00,-2.739956570418771720e-01,4.988953604919222906e-01
5.233333333333333393e+00,1.643937591627587318e+09,2.149821030476784522e-01,8.119363051974322065e-01,5.900842776859916983e-01,1.477492387731753398e+00,1.748483586098186215e+00,-2.653959955701758466e-01,5.329693638751479279e-01
5.250000000000000000e+00,1.643937591641806364e+09,2.196489105932578900e-01,4.014228233479438246e-01,0.000000000000000000e+00,1.605691293391775298e+00,1.740379627258628714e+00,-2.562909600102226682e-01,5.595610358253042538e-01
5.266666666666666607e+00,1.643937591661131859e+09,2.242201398160501291e-01,4.414849813667005574e-01,0.000000000000000000e+00,1.765939925466802229e+00,1.716131880324665016e+00,-2.467442184784151560e-01,5.859745753216861752e-01
5.283333333333333215e+00,1.643937591680171728e+09,2.287206023387387543e-01,4.735347077817060879e-01,0.000000000000000000e+00,1.894138831126824352e+00,1.675464169175455709e+00,-2.367620898599410717e-01,6.118090946524981089e-01
5.299999999999999822e+00,1.643937591694233656e+09,2.331746489600134697e-01,4.975720025929603607e-01,0.000000000000000000e+00,1.990288010371841443e+00,1.618250958175659449e+00,-2.263575364700852188e-01,6.366682572754526204e-01
5.316666666666666430e+00,1.643937591712392330e+09,2.376059422341570138e-01,5.296217290079657802e-01,0.000000000000000000e+00,2.118486916031863121e+00,1.544520491369778981e+00,-2.155478542277858844e-01,6.604276120394489968e-01
5.333333333333333037e+00,1.643937591727524281e+09,2.420372380394793521e-01,5.536590238192200530e-01,0.000000000000000000e+00,2.214636095276880212e+00,1.454456454001382681e+00,-2.043545840399826341e-01,6.827029331486558217e-01
5.349999999999999645e+00,1.643937591744370461e+09,2.464901779057627751e-01,5.857087502342256391e-01,0.000000000000000000e+00,2.342835000936902556e+00,1.348398131748439255e+00,-1.928033572830109010e-01,7.033868210913951646e-01
5.366666666666666252e+00,1.643937591763311863e+09,2.509850937734956489e-01,6.097460450454792458e-01,0.000000000000000000e+00,2.438984180181916983e+00,1.226839057766828445e+00,-1.809237256860497245e-01,7.221169412079724292e-01
5.383333333333332860e+00,1.643937591779246569e+09,2.555408267469421180e-01,6.257709082529823164e-01,0.000000000000000000e+00,2.503083633011929265e+00,1.090424152469904984e+00,-1.687511407666997809e-01,7.385476073006705944e-01
5.400000000000000355e+00,1.643937591794764280e+09,2.601745612799820084e-01,6.337833398567335186e-01,0.000000000000000000e+00,2.535133359426934074e+00,9.399453757976545809e-01,-1.563266583469381521e-01,7.523519368084821135e-01
5.416666666666666963e+00,1.643937591813857317e+09,2.649016760992266017e-01,6.337833398567335186e-01,0.000000000000000000e+00,2.535133359426934074e+00,7.763359263969450419e-01,-1.436966082483802087e-01,7.632238744808188535e-01
5.433333333333333570e+00,1.643937591831688881e+09,2.697356130241245764e-01,6.337833398567335186e-01,0.000000000000000000e+00,2.535133359426934074e+00,6.006630365014127282e-01,-1.309111248532808247e-01,7.710124973583551977e-01
5.450000000000000178e+00,1.643937591847458363e+09,2.746877646900373060e-01,6.337833398567335186e-01,0.000000000000000000e+00,2.535133359426934074e+00,4.141194252216668925e-01,-1.180226723420371437e-01,7.755890909317515458e-01
5.466666666666666785e+00,1.643937591866749287e+09,2.797673820185637705e-01,6.417957714604847208e-01,0.000000000000000000e+00,2.567183085841938883e+00,2.180134862979019594e-01,-1.050845549617090841e-01,7.769811278473965910e-01
5.483333333333333393e+00,1.643937591883591652e+09,2.849815021113358271e-01,6.498082030642360341e-01,0.000000000000000000e+00,2.599232812256944136e+00,1.375829899371316944e-02,-9.215053438229048322e-02,7.751065489689438204e-01
5.500000000000000000e+00,1.643937591901546955e+09,2.903348970702153697e-01,6.498082030642360341e-01,0.000000000000000000e+00,2.599232812256944136e+00,-1.971404374025538253e-01,-7.927662730511281231e-02,7.697771046527941419e-01
5.516666666666666607e+00,1.643937591914547682e+09,2.958300440698611866e-01,6.417957714604847208e-01,0.000000000000000000e+00,2.567183085841938883e+00,-4.130974341715968334e-01,-6.652174296356393179e-02,7.608338592660600641e-01
5.533333333333333215e+00,1.643937591933495760e+09,3.014671168294073000e-01,6.417957714604847208e-01,0.000000000000000000e+00,2.567183085841938883e+00,-6.324616877882914823e-01,-5.394497616644469695e-02,7.484126605301441026e-01
5.549999999999999822e+00,1.643937591950694084e+09,3.072439984498835930e-01,6.417957714604847208e-01,0.000000000000000000e+00,2.567183085841938883e+00,-8.535310689107720172e-01,-4.160404793931805900e-02,7.325428106788459681e-01
5.566666666666666430e+00,1.643937591966698885e+09,3.131563154046195230e-01,6.498082030642360341e-01,0.000000000000000000e+00,2.599232812256944136e+00,-1.074567488709683438e+00,-2.955484823767534630e-02,7.134142895497791459e-01
5.583333333333333037e+00,1.643937591983632803e+09,3.191974922924947222e-01,6.417957714604847208e-01,0.000000000000000000e+00,2.567183085841938883e+00,-1.293812499481596934e+00,-1.785320409196999858e-02,6.908456999370552465e-01
5.599999999999999645e+00,1.643937592001954794e+09,3.253588267900980879e-01,1.083811225962315605e+00,5.786706971974396874e-01,2.599232812256944136e+00,-1.509503181840367025e+00,-6.493325831160388223e-03,6.723909557449447849e-01
5.616666666666666252e+00,1.643937592020301819e+09,3.316295840699998165e-01,1.098625955335668980e+00,6.091069118335790122e-01,2.567183085841938883e+00,-1.719888167562964032e+00,4.534510076866032913e-03,6.510087496331301571e-01
5.633333333333332860e+00,1.643937592035261154e+09,3.379971097897265797e-01,1.071518701675357343e+00,5.729639069531633488e-01,2.567183085841938883e+00,-1.923243645412566094e+00,1.517709757653573285e-02,6.261707464045069838e-01
5.650000000000000355e+00,1.643937592054208755e+09,3.444469606011205109e-01,1.088091318645522776e+00,5.843774874417156928e-01,2.599232812256944136e+00,-2.117889196992869927e+00,2.538455347054614786e-02,5.987999925380407262e-01
5.666666666666666963e+00,1.643937592069168329e+09,3.509630509836423329e-01,1.098625955335668980e+00,6.091069118335790122e-01,2.567183085841938883e+00,-2.302203310907642742e+00,3.511560808752482721e-02,5.690093153281958749e-01
5.683333333333333570e+00,1.643937592087465286e+09,3.575278150691688084e-01,1.095224806450868060e+00,5.938888045155094053e-01,2.599232812256944136e+00,-2.474638426197603103e+00,4.432997952832862243e-02,5.368047168916131318e-01
5.700000000000000178e+00,1.643937592104399681e+09,3.641223820009469314e-01,1.117173023629566275e+00,6.338363362254419986e-01,2.567183085841938883e+00,-2.633735360180352814e+00,5.299311272786303567e-02,5.028655447495655739e-01
5.716666666666666785e+00,1.643937592119333982e+09,3.707267632566440541e-01,1.111466233385290270e+00,6.262272825664072506e-01,2.567183085841938883e+00,-2.778136981387341997e+00,6.107454770506482583e-02,4.670062639723295828e-01
5.733333333333333393e+00,1.643937592139326811e+09,3.773200502657970135e-01,1.171387530950189548e+00,7.061223459862729923e-01,2.567183085841938883e+00,-2.906600995223384665e+00,6.855381375022751023e-02,4.306067735226136728e-01
5.750000000000000000e+00,1.643937592157729149e+09,3.838806205661718929e-01,1.101479350457807094e+00,6.129114386630963862e-01,2.567183085841938883e+00,-3.018011718203188032e+00,7.540640527959098505e-02,3.918119758641604999e-01
5.766666666666666607e+00,1.643937592171099424e+09,3.903863506723659893e-01,1.057251726064666997e+00,5.539412728055763679e-01,2.567183085841938883e+00,-3.111390726064918510e+00,8.159876890808152872e-02,3.513839622356657588e-01
5.783333333333333215e+00,1.643937592190931320e+09,3.968148337739086928e-01,6.417957714604847208e-01,0.000000000000000000e+00,2.567183085841938883e+00,-3.185906271635080333e+00,8.705524113875952319e-02,3.035256483354111801e-01
5.799999999999999822e+00,1.643937592207379103e+09,4.031436003396525747e-01,6.417957714604847208e-01,0.000000000000000000e+00,2.567183085841938883e+00,-3.240881379917189165e+00,9.171309182924218539e-02,2.555497041706501493e-01
5.816666666666666430e+00,1.643937592224435806e+09,4.093503396807400829e-01,6.417957714604847208e-01,0.000000000000000000e+00,2.567183085841938883e+00,-3.275800540388354776e+00,9.557314685979087510e-02,2.077895696579702967e-01
5.833333333333333037e+00,1.643937592240508080e+09,4.154131205159810603e-01,6.417957714604847208e-01,0.000000000000000000e+00,2.567183085841938883e+00,-3.290314929791663623e+00,9.864179156736474496e-02,1.605789389782101284e-01
5.849999999999999645e+00,1.643937592258854389e+09,4.213106085912856069e-01,6.417957714604847208e-01,0.000000000000000000e+00,2.567183085841938883e+00,-3.284246112678449236e+00,1.009309514141900205e-01,1.142489401110854536e-01
5.866666666666666252e+00,1.643937592273813009e+09,4.270222794286985257e-01,6.417957714604847208e-01,0.000000000000000000e+00,2.567183085841938883e+00,-3.257588181448689113e+00,1.024580257425537350e-01,6.912532561625166216e-02
5.883333333333332860e+00,1.643937592289771318e+09,4.325286243204288228e-01,6.417957714604847208e-01,0.000000000000000000e+00,2.567183085841938883e+00,-3.210508312518181029e+00,1.032457750204744812e-01,2.552570065403598348e-02
5.900000000000000355e+00,1.643937592307482481e+09,4.378113477387589048e-01,6.498082030642360341e-01,0.000000000000000000e+00,2.599232812256944136e+00,-3.143345730363787283e+00,1.033232690947234744e-01,-1.611075220853886575e-02
5.916666666666666963e+00,1.643937592326215744e+09,4.428535544033315174e-01,6.417957714604847208e-01,0.000000000000000000e+00,2.567183085841938883e+00,-3.056609086415578602e+00,1.027234465630644522e-01,-5.575781825946474202e-02
5.933333333333333570e+00,1.643937592341170549e+09,4.476399243325858146e-01,6.417957714604847208e-01,0.000000000000000000e+00,2.567183085841938883e+00,-2.950972274929126282e+00,1.014829062788812769e-01,-9.300355303309225385e-02
5.950000000000000178e+00,1.643937592359121799e+09,4.521568743052752359e-01,6.498082030642360341e-01,0.000000000000000000e+00,2.599232812256944136e+00,-2.827268722934625611e+00,9.964494082531952235e-02,-1.274565962440369904e-01
5.966666666666666785e+00,1.643937592377074957e+09,4.563927042702647374e-01,6.417957714604847208e-01,0.000000000000000000e+00,2.567183085841938883e+00,-2.686484205977071049e+00,9.725585520310657539e-02,-1.591456511971004739e-01
5.983333333333333393e+00,1.643937592396368265e+09,4.603377273673320280e-01,6.417957714604847208e-01,0.000000000000000000e+00,2.567183085841938883e+00,-2.529748255489458586e+00,9.436464402077934799e-02,-1.877203147485894674e-01
6.000000000000000000e+00,1.643937592412306547e+09,4.639843823573682191e-01,6.337833398567335186e-01,0.000000000000000000e+00,2.535133359426934074e+00,-2.358324237143067492e+00,9.102370568261354544e-02,-2.131217246985292191e-01
6.016666666666666607e+00,1.643937592428264618e+09,4.673273274062357263e-01,6.177584766492304480e-01,0.000000000000000000e+00,2.471033906596921792e+00,-2.173598192262291562e+00,8.728622005875534551e-02,-2.353149010015553599e-01
6.033333333333333215e+00,1.643937592445245266e+09,4.703635143212495651e-01,6.097460450454792458e-01,0.000000000000000000e+00,2.438984180181916983e+00,-1.977066546252596702e+00,8.320795186372417773e-02,-2.540253078266427877e-01
6.049999999999999822e+00,1.643937592461194277e+09,4.730922425017311528e-01,5.857087502342256391e-01,0.000000000000000000e+00,2.342835000936902556e+00,-1.770322798853610102e+00,7.884566335206485976e-02,-2.694065867919732127e-01
6.066666666666666430e+00,1.643937592478149652e+09,4.755151920338950844e-01,5.536590238192200530e-01,0.000000000000000000e+00,2.214636095276880212e+00,-1.555043320788727090e+00,7.425445244563312619e-02,-2.815051141683665992e-01
6.083333333333333037e+00,1.643937592495275497e+09,4.776364355341383705e-01,5.296217290079657802e-01,0.000000000000000000e+00,2.118486916031863121e+00,-1.332972389942591374e+00,6.949062297552176248e-02,-2.901304623804989991e-01
6.099999999999999645e+00,1.643937592514299870e+09,4.794624285222748306e-01,4.975720025929603607e-01,0.000000000000000000e+00,1.990288010371841443e+00,-1.105906607476752512e+00,6.461116475424286132e-02,-2.953899142406166134e-01
6.116666666666666252e+00,1.643937592531257629e+09,4.810019782858188098e-01,4.895595709892091030e-01,0.000000000000000000e+00,1.958238283956836412e+00,-8.756788402174427999e-01,5.967546793311702402e-02,-2.968895385732946979e-01
6.133333333333332860e+00,1.643937592547213554e+09,4.822661913767818942e-01,4.815471393854572901e-01,0.000000000000000000e+00,1.926188557541829161e+00,-6.441418401642173830e-01,5.474585782690088304e-02,-2.946698401467245376e-01
6.150000000000000355e+00,1.643937592563847780e+09,4.832684000619827946e-01,4.815471393854572901e-01,0.000000000000000000e+00,1.926188557541829161e+00,-4.131516950264184640e-01,4.988484058271053234e-02,-2.886688988298835579e-01
6.166666666666666963e+00,1.643937592581799746e+09,4.840240682252502369e-01,4.815471393854572901e-01,0.000000000000000000e+00,1.926188557541829161e+00,-1.845512652693357958e-01,4.515458457954829585e-02,-2.789887115914526095e-01
6.183333333333333570e+00,1.643937592600190163e+09,4.845506773936270051e-01,4.895595709892091030e-01,0.000000000000000000e+00,1.958238283956836412e+00,3.984623677325116464e-02,4.061642857406949636e-02,-2.656271254565994444e-01
6.200000000000000178e+00,1.643937592617379189e+09,4.848675937283166149e-01,4.975720025929603607e-01,0.000000000000000000e+00,1.990288010371841443e+00,2.582733715895337845e-01,3.633039610779500994e-02,-2.487436700872833750e-01
6.216666666666666785e+00,1.643937592633192539e+09,4.849959169833799599e-01,5.216092974042145780e-01,0.000000000000000000e+00,2.086437189616858312e+00,4.690241497628508394e-01,3.235585165885559999e-02,-2.282585681855595350e-01
6.233333333333333393e+00,1.643937592650133133e+09,4.849583125896213542e-01,5.536590238192200530e-01,0.000000000000000000e+00,2.214636095276880212e+00,6.704691149769943515e-01,2.875214656576372679e-02,-2.042527274458640907e-01
6.250000000000000000e+00,1.643937592667926788e+09,4.847788281665952326e-01,6.017336134417280435e-01,0.000000000000000000e+00,2.406934453766912174e+00,8.610696916860078876e-01,2.557818905269799645e-02,-1.766987148473360969e-01
6.266666666666666607e+00,1.643937592686649799e+09,4.844826959008842193e-01,6.257709082529823164e-01,0.000000000000000000e+00,2.503083633011929265e+00,1.039391663521688214e+00,2.288760927185301552e-02,-1.462554255369132861e-01
6.283333333333333215e+00,1.643937592701829910e+09,4.840961223527232571e-01,6.417957714604847208e-01,0.000000000000000000e+00,2.567183085841938883e+00,1.204117656941094294e+00,2.072517820237864891e-02,-1.133277706607459384e-01
6.299999999999999822e+00,1.643937592718785763e+09,4.836460673646414410e-01,6.658330662717389936e-01,0.000000000000000000e+00,2.663332265086955974e+00,1.354058514250100931e+00,1.913102334589989600e-02,-7.806875612890318283e-02
6.316666666666666430e+00,1.643937592736782312e+09,4.831600138440766967e-01,1.083594662235396688e+00,5.463322191465417310e-01,2.695381991501961227e+00,1.488163450884246508e+00,1.819587281978606030e-02,-3.427097038412862257e-02
6.333333333333333037e+00,1.643937592752717972e+09,4.826657302761626078e-01,1.143847149836039190e+00,6.053023850040614162e-01,2.759481444331973066e+00,1.605528903578838928e+00,1.800916869593737965e-02,1.173866796330135659e-02
6.349999999999999645e+00,1.643937592769961596e+09,4.821910278923041138e-01,1.143299396073376606e+00,5.938888045155094053e-01,2.791531170746978319e+00,1.705405988701955255e+00,1.859665642048314790e-02,5.862960331834445732e-02
6.366666666666666252e+00,1.643937592785222292e+09,4.817635144742030140e-01,1.140446000951238270e+00,5.900842776859916983e-01,2.791531170746978319e+00,1.787206503433347526e+00,1.997008735044393871e-02,1.060503807947934252e-01
6.383333333333332860e+00,1.643937592804411650e+09,4.814103468111927131e-01,1.174686742416895191e+00,6.357385996402006301e-01,2.791531170746978319e+00,1.850507416517465309e+00,2.214078729222912142e-02,1.542995835019142503e-01
6.400000000000000355e+00,1.643937592822195292e+09,4.811579838507250018e-01,1.151311827677127697e+00,5.938888045155094053e-01,2.823580897161983128e+00,1.895053809863648464e+00,2.511190062370252316e-02,2.021012307961204402e-01
6.416666666666666963e+00,1.643937592835926294e+09,4.810319425874542976e-01,1.159872013043541816e+00,6.053023850040614162e-01,2.823580897161983128e+00,1.920760247168406654e+00,2.887783861239150845e-02,2.496791638109639166e-01
6.433333333333333570e+00,1.643937592852865219e+09,4.810565587254544972e-01,1.135618154505368294e+00,5.729639069531633488e-01,2.823580897161983128e+00,1.927710560848335586e+00,3.342778068923006607e-02,2.961847003233537556e-01
6.450000000000000178e+00,1.643937592871020794e+09,4.812547541207766733e-01,1.123656820254153477e+00,5.463322191465417310e-01,2.855630623576987936e+00,1.916156063750358074e+00,3.874314365500743096e-02,3.415328854243182555e-01
6.466666666666666785e+00,1.643937592887281656e+09,4.816478129679467313e-01,1.154165222799265811e+00,5.976933313450266683e-01,2.823580897161983128e+00,1.886512207200787383e+00,4.480816560337157889e-02,3.861458206426216511e-01
6.483333333333333393e+00,1.643937592901880503e+09,4.822551686344580535e-01,1.130790308059498317e+00,5.558435362203351104e-01,2.855630623576987936e+00,1.839353721818611120e+00,5.160083240274888211e-02,4.288555543412128079e-01
6.500000000000000000e+00,1.643937592923689365e+09,4.830942029722784525e-01,1.159324259280879010e+00,5.938888045155094053e-01,2.855630623576987936e+00,1.775408292007760069e+00,5.909453795628124423e-02,4.702740579758244444e-01
6.516666666666666607e+00,1.643937592940325975e+09,4.841800598453538385e-01,7.219200874979988525e-01,0.000000000000000000e+00,2.887680349991995410e+00,1.695548829016048753e+00,6.720138644800043026e-02,5.024583580926726967e-01
6.533333333333333215e+00,1.643937592959440470e+09,4.855254745078640966e-01,7.219200874979988525e-01,0.000000000000000000e+00,2.887680349991995410e+00,1.600784420769745253e+00,7.582710572272421956e-02,5.325443806224112731e-01
6.549999999999999822e+00,1.643937592975712538e+09,4.871406203502161580e-01,7.299325191017500547e-01,0.000000000000000000e+00,2.919730076407000219e+00,1.492250049233618370e+00,8.493621906933210286e-02,5.604716434147262172e-01
6.566666666666666430e+00,1.643937592993108511e+09,4.890329743994995537e-01,7.379449507055012569e-01,0.000000000000000000e+00,2.951779802822005028e+00,1.371195177683947941e+00,9.449131599012987326e-02,5.860688819670859528e-01
6.583333333333333037e+00,1.643937593010055304e+09,4.912072028192451256e-01,7.539698139130043275e-01,0.000000000000000000e+00,3.015879255652017310e+00,1.238971320905608797e+00,1.044534485871338875e-01,6.093224349503921777e-01
6.599999999999999645e+00,1.643937593025990963e+09,4.936650675010472722e-01,7.539698139130043275e-01,0.000000000000000000e+00,3.015879255652017310e+00,1.097018720830114535e+00,1.147803220442327465e-01,6.298453704056786728e-01
6.616666666666666252e+00,1.643937593043117285e+09,4.964053546790203608e-01,7.619822455167555297e-01,0.000000000000000000e+00,3.047928982067022119e+00,9.468522584284766452e-01,1.254267754018363601e-01,6.476794921138289141e-01
6.633333333333332860e+00,1.643937593062377930e+09,4.994238263284760393e-01,7.780071087242579342e-01,0.000000000000000000e+00,3.112028434897031737e+00,7.900467396821371224e-01,1.363485561690649384e-01,6.628919421533735479e-01
6.649999999999999467e+00,1.643937593080334187e+09,5.027131949339422867e-01,7.699946771205067320e-01,0.000000000000000000e+00,3.079978708482026928e+00,6.282216991082715252e-01,1.474983185826947152e-01,6.750457860102234697e-01
6.666666666666666963e+00,1.643937593096287251e+09,5.062631220300648494e-01,7.780071087242579342e-01,0.000000000000000000e+00,3.112028434897031737e+00,4.630258685622478665e-01,1.588272561161354901e-01,6.844007314315577739e-01
6.683333333333333570e+00,1.643937593112245083e+09,5.100602407334858812e-01,7.699946771205067320e-01,0.000000000000000000e+00,3.079978708482026928e+00,2.961214618365051177e-01,1.702866576958805278e-01,6.907099321677628856e-01
6.700000000000000178e+00,1.643937593131942987e+09,5.140882022959214481e-01,7.699946771205067320e-01,0.000000000000000000e+00,3.079978708482026928e+00,1.291684269002364438e-01,1.818272815547850307e-01,6.941553600425374171e-01
6.716666666666666785e+00,1.643937593148890018e+09,5.183277465198481426e-01,7.699946771205067320e-01,0.000000000000000000e+00,3.079978708482026928e+00,-3.619118253613662350e-02,1.934020137756201907e-01,6.948106860647751404e-01
6.733333333333333393e+00,1.643937593165083170e+09,5.227567956899460411e-01,7.699946771205067320e-01,0.000000000000000000e+00,3.079978708482026928e+00,-1.983485660871631140e-01,2.049651803241408499e-01,6.927749547001434971e-01
6.750000000000000000e+00,1.643937593183034897e+09,5.273505714872284145e-01,7.780071087242579342e-01,0.000000000000000000e+00,3.112028434897031737e+00,-3.557431194465300317e-01,2.164740664596219166e-01,6.883038017192911751e-01
6.766666666666666607e+00,1.643937593198377609e+09,5.320817341700572189e-01,7.780071087242579342e-01,0.000000000000000000e+00,3.112028434897031737e+00,-5.068768184175979075e-01,2.278881762747228812e-01,6.814085300759679109e-01
6.783333333333333215e+00,1.643937593214272022e+09,5.369205431285076768e-01,7.780071087242579342e-01,0.000000000000000000e+00,3.112028434897031737e+00,-6.503279077215133874e-01,2.391685037380957835e-01,6.722561892959740826e-01
6.799999999999999822e+00,1.643937593230861187e+09,5.418350377471440327e-01,7.780071087242579342e-01,0.000000000000000000e+00,3.112028434897031737e+00,-7.847637653196274377e-01,2.502789879666129647e-01,6.610330941242007485e-01
6.816666666666666430e+00,1.643937593247175455e+09,5.467912373476224719e-01,7.699946771205067320e-01,0.000000000000000000e+00,3.079978708482026928e+00,-9.089528214711233289e-01,2.611857110129855997e-01,6.478104020053178091e-01
6.833333333333333037e+00,1.643937593266771317e+09,5.517533588279169843e-01,7.780071087242579342e-01,0.000000000000000000e+00,3.112028434897031737e+00,-1.021775421394196082e+00,2.718594057494645444e-01,6.330739020576732212e-01
6.849999999999999645e+00,1.643937593286738157e+09,5.566840504706307424e-01,7.780071087242579342e-01,0.000000000000000000e+00,3.112028434897031737e+00,-1.122233531113457694e+00,2.822756522419684333e-01,6.169205485253492771e-01
6.866666666666666252e+00,1.643937593301427841e+09,5.615446402599287845e-01,7.780071087242579342e-01,0.000000000000000000e+00,3.112028434897031737e+00,-1.209459197749837678e+00,2.924128596322513318e-01,5.995924729846400236e-01
6.883333333333332860e+00,1.643937593318819284e+09,5.662953969262136678e-01,7.780071087242579342e-01,0.000000000000000000e+00,3.112028434897031737e+00,-1.282721688025718842e+00,3.022535400742494827e-01,5.813398828876175095e-01
6.899999999999999467e+00,1.643937593334364414e+09,5.708958018307274118e-01,7.780071087242579342e-01,0.000000000000000000e+00,3.112028434897031737e+00,-1.341433241992897152e+00,3.117844224690196619e-01,5.624185649383699470e-01
6.916666666666666963e+00,1.643937593352097988e+09,5.753048297096170494e-01,7.780071087242579342e-01,0.000000000000000000e+00,3.112028434897031737e+00,-1.385153392812214390e+00,3.209965243374658384e-01,5.430873583351245593e-01
6.933333333333333570e+00,1.643937593370001316e+09,5.794812362195085331e-01,7.780071087242579342e-01,0.000000000000000000e+00,3.112028434897031737e+00,-1.413591817684281882e+00,3.298851815356597106e-01,5.236056226542635805e-01
6.950000000000000178e+00,1.643937593388230085e+09,5.833838501647951036e-01,7.699946771205067320e-01,0.000000000000000000e+00,3.079978708482026928e+00,-1.426609699609185933e+00,3.384489292488275236e-01,5.040982912329511345e-01
6.966666666666666785e+00,1.643937593403605938e+09,5.869718682413189725e-01,7.780071087242579342e-01,0.000000000000000000e+00,3.112028434897031737e+00,-1.424219594394796173e+00,3.466916859375654969e-01,4.850853264497041462e-01
6.983333333333333393e+00,1.643937593418836594e+09,5.902051501021583491e-01,7.699946771205067320e-01,0.000000000000000000e+00,3.079978708482026928e+00,-1.406583812092392360e+00,3.546215151420991085e-01,4.665456783289724241e-01
7.000000000000000000e+00,1.643937593438742399e+09,5.930445115392174449e-01,7.699946771205067320e-01,0.000000000000000000e+00,3.079978708482026928e+00,-1.374011336669619832e+00,3.622494098432945120e-01,4.488508393019585152e-01
7.016666666666666607e+00,1.643937593453711033e+09,5.954520135792618074e-01,7.699946771205067320e-01,0.000000000000000000e+00,3.079978708482026928e+00,-1.326953322088607390e+00,3.695913342571564564e-01,4.322262708052948543e-01
7.033333333333333215e+00,1.643937593470682144e+09,5.973912453150344026e-01,7.619822455167555297e-01,0.000000000000000000e+00,3.047928982067022119e+00,-1.265997216901324274e+00,3.766657913297160043e-01,4.167515642096591422e-01
7.049999999999999822e+00,1.643937593488785028e+09,5.988275983309095940e-01,7.539698139130043275e-01,0.000000000000000000e+00,3.015879255652017310e+00,-1.191859582866690470e+00,3.834936072458323686e-01,4.026255854776479848e-01
7.066666666666666430e+00,1.643937593504894018e+09,5.997285306379911418e-01,7.539698139130043275e-01,0.000000000000000000e+00,3.015879255652017310e+00,-1.105377685803016208e+00,3.900998861930872197e-01,3.901625086655595709e-01
7.083333333333333037e+00,1.643937593520878077e+09,6.000638181051776154e-01,7.539698139130043275e-01,0.000000000000000000e+00,3.015879255652017310e+00,-1.007499948791359401e+00,3.965136875217361578e-01,3.795232050889380537e-01
7.099999999999999645e+00,1.643937593536830902e+09,5.998057914600050111e-01,7.539698139130043275e-01,0.000000000000000000e+00,3.015879255652017310e+00,-8.992753688217285379e-01,4.027665846630131274e-01,3.708485486991823232e-01
7.116666666666666252e+00,1.643937593554904461e+09,5.989295570353686538e-01,1.197959719738567186e+00,5.919865411007503297e-01,3.015879255652017310e+00,-7.818420079200995021e-01,4.089536464073975641e-01,3.715967821517723868e-01
7.133333333333332860e+00,1.643937593571177721e+09,5.974131995547579121e-01,1.162292280711841430e+00,5.444299557317827665e-01,3.015879255652017310e+00,-6.564146786105780063e-01,4.151654730437807639e-01,3.738162488837435404e-01
7.149999999999999467e+00,1.643937593587134838e+09,5.952379653785174751e-01,1.183692744127876839e+00,5.729639069531633488e-01,3.015879255652017310e+00,-5.242719511695143053e-01,4.214351917006458614e-01,3.785368767761844722e-01
7.166666666666666963e+00,1.643937593605916023e+09,5.923884247759061417e-01,1.196533022177498129e+00,5.900842776859916983e-01,3.015879255652017310e+00,-3.867426164437060554e-01,4.278037045995183307e-01,3.856648706395419124e-01
7.183333333333333570e+00,1.643937593622782469e+09,5.888526119412496040e-01,1.166572373395048601e+00,5.501367459760591050e-01,3.015879255652017310e+00,-2.451917429706951534e-01,4.343054457715588845e-01,3.945194733079072091e-01
7.200000000000000178e+00,1.643937593640883207e+09,5.846221416361105927e-01,7.459573823092524592e-01,0.000000000000000000e+00,2.983829529237009837e+00,-1.010064707110234217e-01,4.409153600419054020e-01,3.986587408975311719e-01
7.216666666666666785e+00,1.643937593658429861e+09,5.796923015119088696e-01,7.539698139130043275e-01,0.000000000000000000e+00,3.015879255652017310e+00,4.441831415607300215e-02,4.476148832126071730e-01,4.052656865279806730e-01
7.233333333333333393e+00,1.643937593671982765e+09,5.740621193474184647e-01,7.539698139130043275e-01,0.000000000000000000e+00,3.015879255652017310e+00,1.896942782266325400e-01,4.544436751778352379e-01,4.141646294317465893e-01
7.250000000000000000e+00,1.643937593690149546e+09,5.677344046217311924e-01,7.539698139130043275e-01,0.000000000000000000e+00,3.015879255652017310e+00,3.334537692667580711e-01,4.614394098643261888e-01,4.252926211315850025e-01
7.266666666666666607e+00,1.643937593707279921e+09,5.607157640341421390e-01,7.539698139130043275e-01,0.000000000000000000e+00,3.015879255652017310e+00,4.743636318195632029e-01,4.686385366159073751e-01,4.385657184755465954e-01
7.283333333333333215e+00,1.643937593724486351e+09,5.530165907765229871e-01,7.539698139130043275e-01,0.000000000000000000e+00,3.015879255652017310e+00,6.111385714536810010e-01,4.760759397926355718e-01,4.538801217215964745e-01
7.299999999999999822e+00,1.643937593743378639e+09,5.446510275595836115e-01,7.539698139130043275e-01,0.000000000000000000e+00,3.015879255652017310e+00,7.425539340818485545e-01,4.837846189459055202e-01,4.711135050349073983e-01
7.316666666666666430e+00,1.643937593758714676e+09,5.356369035905077514e-01,7.539698139130043275e-01,0.000000000000000000e+00,3.015879255652017310e+00,8.674577731042253381e-01,4.917953926514643248e-01,4.901265244463024473e-01
7.333333333333333037e+00,1.643937593775211096e+09,5.259956458942424140e-01,7.539698139130043275e-01,0.000000000000000000e+00,3.015879255652017310e+00,9.847820847213151207e-01,5.001366288186136488e-01,5.107644865897251751e-01
7.349999999999999645e+00,1.643937593792618513e+09,5.157521655627116397e-01,7.539698139130043275e-01,0.000000000000000000e+00,3.015879255652017310e+00,1.093553100536221123e+00,5.088340040028356270e-01,5.328591599796569378e-01
7.366666666666666252e+00,1.643937593811286211e+09,5.049347197039870672e-01,7.539698139130043275e-01,0.000000000000000000e+00,3.015879255652017310e+00,1.192900536437208059e+00,5.179102939336613920e-01,5.562307092213346627e-01
7.383333333333332860e+00,1.643937593826661348e+09,4.935747500454219505e-01,7.539698139130043275e-01,0.000000000000000000e+00,3.015879255652017310e+00,1.282065707618827988e+00,5.273851971330733024e-01,5.806897313807866112e-01
7.399999999999999467e+00,1.643937593844443798e+09,4.817066993196540969e-01,7.539698139130043275e-01,0.000000000000000000e+00,3.015879255652017310e+00,1.360408431352444936e+00,5.372751931455572727e-01,6.060393727893934601e-01
7.416666666666666963e+00,1.643937593861413717e+09,4.693678067287991307e-01,7.539698139130043275e-01,0.000000000000000000e+00,3.015879255652017310e+00,1.427412651637330887e+00,5.475934365327368436e-01,6.320775038280528335e-01
7.433333333333333570e+00,1.643937593878309011e+09,4.565978839387411226e-01,7.539698139130043275e-01,0.000000000000000000e+00,3.015879255652017310e+00,1.482690733023966700e+00,5.583496874070926763e-01,6.585989287359799160e-01
7.450000000000000178e+00,1.643937593894266367e+09,4.434390732011217473e-01,7.459573823092524592e-01,0.000000000000000000e+00,2.983829529237009837e+00,1.525986384570240606e+00,5.695491722134159440e-01,6.852651733776481402e-01
7.466666666666666785e+00,1.643937593914631605e+09,4.299355893341514356e-01,7.379449507055012569e-01,0.000000000000000000e+00,2.951779802822005028e+00,1.557176188930793348e+00,5.811926125457080872e-01,7.118737520392941498e-01
7.483333333333333393e+00,1.643937593929522276e+09,4.161334474138062567e-01,7.219200874979988525e-01,0.000000000000000000e+00,2.887680349991995410e+00,1.576269725848501224e+00,5.932762778456101005e-01,7.380932502951671470e-01
7.500000000000000000e+00,1.643937593944308281e+09,4.020801781332836167e-01,7.058952242904957819e-01,0.000000000000000000e+00,2.823580897161983128e+00,1.583408293672404543e+00,6.057920859533757474e-01,7.637325008201165666e-01
7.516666666666666607e+00,1.643937593963487625e+09,3.878245328800917213e-01,6.738454978754903069e-01,0.000000000000000000e+00,2.695381991501961227e+00,1.578862246823172999e+00,6.187266189706845942e-01,7.883430968811186990e-01
7.533333333333333215e+00,1.643937593979562521e+09,3.734161806560261643e-01,6.498082030642360341e-01,0.000000000000000000e+00,2.599232812256944136e+00,1.563026981223013312e+00,6.320624221432629142e-01,8.118878801133277978e-01
7.549999999999999822e+00,1.643937593996674776e+09,3.589053990249660431e-01,6.017336134417280435e-01,0.000000000000000000e+00,2.406934453766912174e+00,1.536417613459522657e+00,6.457770709670439535e-01,8.338090850712343016e-01
7.566666666666666430e+00,1.643937594011830568e+09,3.443427613165297996e-01,5.456465922154682957e-01,0.000000000000000000e+00,2.182586368861873183e+00,1.499662412725488281e+00,6.598412220250005067e-01,8.538334174289603506e-01
7.583333333333333037e+00,1.643937594029947042e+09,3.297788223397712937e-01,4.575098445742036279e-01,0.000000000000000000e+00,1.830039378296814512e+00,1.453495057235264287e+00,6.742177960350705934e-01,8.713069251157147255e-01
7.599999999999999645e+00,1.643937594046901464e+09,3.152638048700347473e-01,3.773855285366895518e-01,0.000000000000000000e+00,1.509542114146758207e+00,1.398745798736692469e+00,6.888645529182397809e-01,8.862623570204352097e-01
7.616666666666666252e+00,1.643937594063835621e+09,3.008472891639106250e-01,2.571990544804194090e-01,0.000000000000000000e+00,1.028796217921677636e+00,1.336331629797008258e+00,7.037332804561809985e-01,8.979524742204512133e-01
7.633333333333332860e+00,1.643937594080790997e+09,2.865779077318250101e-01,5.959318419318886395e-01,5.691593801236460859e-01,6.762492273566165224e-01,1.267245558629404911e+00,7.188324723749675016e-01,9.139062389776863027e-01
7.649999999999999467e+00,1.643937594097565889e+09,2.725030475555093035e-01,5.923014404294398849e-01,6.604680240320639495e-01,3.878016896215676357e-01,1.192545105245532255e+00,7.341845377343307888e-01,9.283016160462392863e-01
7.666666666666666963e+00,1.643937594114524841e+09,2.586685618787182839e-01,5.556404312954835722e-01,6.756861313501335564e-01,1.955033311315334810e-01,1.113340140575459492e+00,7.497585342820574095e-01,9.405439623630283963e-01
7.683333333333333570e+00,1.643937594132474184e+09,2.451184936245031643e-01,5.400486955418198898e-01,7.403630874519295801e-01,-6.089448018850930622e-02,1.030780196814169658e+00,7.655213222571325415e-01,9.509616559272198177e-01
7.700000000000000178e+00,1.643937594149599791e+09,2.318948124018248846e-01,5.419085205567275576e-01,8.069423069684841243e-01,-2.531928386785423091e-01,9.460413825654785391e-01,7.814448522738971503e-01,9.598372909624920402e-01
7.716666666666666785e+00,1.643937594165253401e+09,2.190371669588653536e-01,4.879105769630235345e-01,7.669947752585511980e-01,-3.493420179235594003e-01,8.603130403068626197e-01,7.974957845697885350e-01,9.662567522877654191e-01
7.733333333333333393e+00,1.643937594182458162e+09,2.065826548210510372e-01,5.343292164068146333e-01,8.716192630702800370e-01,-4.775409235835813559e-01,7.747842862547784648e-01,8.136474193200219363e-01,9.719236759152253269e-01
7.750000000000000000e+00,1.643937594199510813e+09,1.945656107193269868e-01,6.187209362368067955e-01,1.016191282591941469e+00,-5.736901028285972259e-01,6.906305738412370498e-01,8.298927529527636571e-01,9.775008674504509498e-01
7.766666666666666607e+00,1.643937594218486309e+09,1.830174152697409407e-01,5.804166658148622870e-01,9.971686484443545995e-01,-6.698392820736143172e-01,6.090004217108254680e-01,8.462137040509947195e-01,9.810035344776479871e-01
7.783333333333333215e+00,1.643937594235442638e+09,1.719663252100832873e-01,4.873501343096325877e-01,8.944464240473847250e-01,-7.339387349036241570e-01,5.310024454136171856e-01,8.625689216277209193e-01,9.816208598963093168e-01
7.799999999999999822e+00,1.643937594252393961e+09,1.614373263341973841e-01,4.270976467089898088e-01,8.354762581898648177e-01,-7.980381877336351071e-01,4.576928288227973818e-01,8.789158950316554586e-01,9.800203944179045612e-01
7.816666666666666430e+00,1.643937594269305706e+09,1.514520100912339351e-01,4.756053637853367433e-01,9.001532142916607304e-01,-7.980381877336351071e-01,3.900633667775461610e-01,8.952337739630840119e-01,9.781303276625240573e-01
7.833333333333333037e+00,1.643937594287736416e+09,1.420284746365359507e-01,3.026437688602409692e-01,6.909042386682032744e-01,-8.621376405636461682e-01,3.290302045866322356e-01,9.114880933662767859e-01,9.724039078167792116e-01
7.849999999999999645e+00,1.643937594305309534e+09,1.331812509348337392e-01,3.705774980288913389e-01,7.707993020880687940e-01,-8.300879141486412482e-01,2.754233928870550852e-01,9.276497422156630979e-01,9.670089404826587298e-01
7.866666666666666252e+00,1.643937594321081638e+09,1.249212543260490582e-01,3.891245663227885787e-01,7.955287264799318914e-01,-8.300879141486412482e-01,2.299773680042878077e-01,9.437185048010883204e-01,9.612585434693514674e-01
7.883333333333332860e+00,1.643937594339719772e+09,1.172557617710578842e-01,5.132472541357941953e-01,9.610256435639393802e-01,-8.300879141486412482e-01,1.933224584921615641e-01,9.597043027771793300e-01,9.570489073703930538e-01
7.899999999999999467e+00,1.643937594357061863e+09,1.101884148005371489e-01,6.416500346320068715e-01,1.132229350892222763e+00,-8.300879141486412482e-01,1.659775080352290377e-01,9.756344797465694718e-01,9.545791894454568327e-01
7.916666666666666963e+00,1.643937594374101639e+09,1.037192479961238922e-01,5.289409273075534879e-01,9.819505411262848815e-01,-8.300879141486412482e-01,1.483436934795325790e-01,9.915058328398086429e-01,9.499959133653357313e-01
7.933333333333333570e+00,1.643937594390458345e+09,9.784474264104009444e-02,6.245296638991783000e-01,1.109402189915118297e+00,-8.300879141486412482e-01,1.406996045351389668e-01,1.007313578001373111e+00,9.469419893443431491e-01
7.950000000000000178e+00,1.643937594406488419e+09,9.255790498850929859e-02,6.131160834106262891e-01,1.094184082597048802e+00,-8.300879141486412482e-01,1.431976387864162259e-01,1.023069614819068995e+00,9.437911812299312198e-01
7.966666666666666785e+00,1.643937594423679590e+09,8.784836841229934357e-02,6.330898492655924192e-01,1.120815770403670308e+00,-8.300879141486412482e-01,1.558617521853333798e-01,1.038778081319548185e+00,9.412319080869673282e-01
7.983333333333333393e+00,1.643937594440805197e+09,8.370251852583285301e-02,6.630504980480419475e-01,1.160763302113603013e+00,-8.300879141486412482e-01,1.785865913224460311e-01,1.054451523701608329e+00,9.395857505277487309e-01
8.000000000000000000e+00,1.643937594456896067e+09,8.010364018600732439e-02,7.058514248801129876e-01,1.217831204556364399e+00,-8.300879141486412482e-01,2.111380196106595886e-01,1.070108165197339423e+00,9.392122664401971743e-01
8.016666666666665719e+00,1.643937594473886967e+09,7.703208513644330124e-02,6.673305907312491181e-01,1.166470092357879462e+00,-8.300879141486412482e-01,2.531550352195286457e-01,1.085759116438414162e+00,9.389027422983019511e-01
8.033333333333333215e+00,1.643937594488840342e+09,7.446545889349093228e-02,6.644771956091112264e-01,1.162665565528361977e+00,-8.300879141486412482e-01,3.041530643071701512e-01,1.101411601456285805e+00,9.393940949457016965e-01
8.050000000000000711e+00,1.643937594505874157e+09,7.237882533829326226e-02,7.643460248839432092e-01,1.295824004561471288e+00,-8.300879141486412482e-01,3.635285989561893860e-01,1.117094202730078090e+00,9.425094040692449937e-01
8.066666666666666430e+00,1.643937594523317099e+09,7.074492735039514257e-02,7.286785858572174535e-01,1.248267419192503613e+00,-8.300879141486412482e-01,4.305651353717880880e-01,1.132832628249929030e+00,9.460917072365440106e-01
8.083333333333333925e+00,1.643937594542543888e+09,6.953442170397221289e-02,6.450511835168075692e-01,1.147447458210292037e+00,-8.621376405636461682e-01,5.044403544840381226e-01,1.148628917056653931e+00,9.494536107298332528e-01
8.099999999999999645e+00,1.643937594557771683e+09,6.871612634744456161e-02,6.502102199984207687e-01,1.143642931380774774e+00,-8.300879141486412482e-01,5.842344742471752284e-01,1.164492507012808709e+00,9.541640990111051046e-01
8.116666666666667140e+00,1.643937594574169159e+09,6.825727810186094091e-02,4.970058272013721523e-01,9.286871655130413128e-01,-7.980381877336351071e-01,6.689396907763037747e-01,1.180424493351587723e+00,9.576645379719541662e-01
8.133333333333332860e+00,1.643937594591116667e+09,6.812379874364356269e-02,4.732997224258611024e-01,9.077622679506953673e-01,-8.300879141486412482e-01,7.574706141296432271e-01,1.196423290493625835e+00,9.621785797725077582e-01
8.150000000000000355e+00,1.643937594609533787e+09,6.828056738350000987e-02,3.434702443685795359e-01,7.346562972076531306e-01,-8.300879141486412482e-01,8.486755941451520346e-01,1.212491363349025297e+00,9.659796042256704185e-01
8.166666666666666075e+00,1.643937594625818729e+09,6.869169701602391431e-02,3.391901516853726428e-01,7.289495069633772362e-01,-8.300879141486412482e-01,9.413488223826942392e-01,1.228634470516571930e+00,9.711788132925917028e-01
8.183333333333333570e+00,1.643937594643037558e+09,6.932081309390447643e-02,3.035227126586468316e-01,6.813929215944095619e-01,-8.300879141486412482e-01,1.034243087997638533e+00,1.244871417249059586e+00,9.772379632377089509e-01
8.199999999999999289e+00,1.643937594660988569e+09,7.013133197685071651e-02,-2.075219785371603121e-01,0.000000000000000000e+00,-8.300879141486412482e-01,1.126083058367446377e+00,1.261150612155940376e+00,9.762681196613328671e-01
8.216666666666666785e+00,1.643937594678445578e+09,7.108673711845787946e-02,2.384423786121345201e-01,6.053023850040614162e-01,-8.621376405636461682e-01,1.215578949577267753e+00,1.277487734995176316e+00,9.841646856252537212e-01
8.233333333333332504e+00,1.643937594695038319e+09,7.215085088384778911e-02,3.163629907082681769e-01,6.985132923272380223e-01,-8.300879141486412482e-01,1.301440447504974340e+00,1.293977998256272244e+00,9.946378130010452567e-01
8.250000000000000000e+00,1.643937594714333057e+09,7.328809993714158200e-02,4.704463273037232107e-01,9.039577411211779934e-01,-8.300879141486412482e-01,1.382390737275336789e+00,1.310673830048467714e+00,1.008822598951834237e+00
8.266666666666665719e+00,1.643937594727604866e+09,7.446377219985164664e-02,4.119517272998930446e-01,8.259649411160711052e-01,-8.300879141486412482e-01,1.457180497308953937e+00,1.327606366425763795e+00,1.023042266318018978e+00
8.283333333333333215e+00,1.643937594747364759e+09,7.564426345891049619e-02,4.262187029105832248e-01,8.449875752636580861e-01,-8.300879141486412482e-01,1.524601714090660032e+00,1.344785216045504495e+00,1.038377090314965834e+00
8.300000000000000711e+00,1.643937594762447119e+09,7.679731179543708430e-02,3.862711712006505205e-01,7.917241996504145174e-01,-8.300879141486412482e-01,1.583501175129903960e+00,1.362220145661587445e+00,1.053771699804392004e+00
8.316666666666666430e+00,1.643937594779401302e+09,7.789221811180822852e-02,3.520304297349937661e-01,7.460698776962054746e-01,-8.300879141486412482e-01,1.632793500366596318e+00,1.379911604723610852e+00,1.069160639577395155e+00
8.333333333333333925e+00,1.643937594798304319e+09,7.890005115425113846e-02,3.548838248571318243e-01,7.498744045257228485e-01,-8.300879141486412482e-01,1.671473576469958422e+00,1.397863157210913920e+00,1.084981710445543701e+00
8.349999999999999645e+00,1.643937594812688112e+09,7.979383555997565658e-02,3.463236394907178162e-01,7.384608240371708376e-01,-8.300879141486412482e-01,1.698628264039427016e+00,1.416078777280405987e+00,1.100848622101554097e+00
8.366666666666667140e+00,1.643937594828794718e+09,8.054872160089660005e-02,5.517680882846577317e-01,1.012386755762424206e+00,-8.300879141486412482e-01,1.713447254596848435e+00,1.434587077227891472e+00,1.120093911202093784e+00
8.383333333333332860e+00,1.643937594845939875e+09,8.114213544888010388e-02,6.173961760938330157e-01,1.099890872841324585e+00,-8.300879141486412482e-01,1.715232962389245941e+00,1.453422785051871946e+00,1.140135355686164642e+00
8.400000000000000355e+00,1.643937594860914946e+09,8.155390894914599231e-02,5.817287370671072599e-01,1.052334287472356911e+00,-8.300879141486412482e-01,1.703409345322029589e+00,1.472583189327910214e+00,1.159060586116611891e+00
8.416666666666666075e+00,1.643937594876189232e+09,8.176638805755873096e-02,5.560481809678647913e-01,1.018093546006700212e+00,-8.300879141486412482e-01,1.677529559724588060e+00,1.492049278608730267e+00,1.176820792513999514e+00
8.433333333333333570e+00,1.643937594895442009e+09,8.176451927270472764e-02,5.631816687732101867e-01,1.027604863080493924e+00,-8.300879141486412482e-01,1.637282365009652629e+00,1.511804344599216199e+00,1.193740127086561298e+00
8.449999999999999289e+00,1.643937594911399364e+09,8.153591357347893254e-02,5.803020395060384251e-01,1.050432024057598168e+00,-8.300879141486412482e-01,1.582497206515389943e+00,1.531833860313032147e+00,1.209757265473102583e+00
8.466666666666666785e+00,1.643937594929540396e+09,8.107088755597596785e-02,3.317254738442841355e-01,7.403630874519295801e-01,-8.941873669786521983e-01,1.513147917793278063e+00,1.552084203960500952e+00,1.220254811686259711e+00
8.483333333333332504e+00,1.643937594947540998e+09,8.036248164825227080e-02,2.734474375673734414e-01,6.947087654977206483e-01,-9.903365462236681793e-01,1.429354997197387123e+00,1.572488433873748814e+00,1.228230622352424417e+00
8.500000000000000000e+00,1.643937594964496613e+09,7.940645546665488219e-02,2.770651501790935556e-01,7.422653508666881006e-01,-1.118535451883690079e+00,1.331386427709249975e+00,1.593011460554387249e+00,1.234515121969925078e+00
8.516666666666665719e+00,1.643937594979590416e+09,7.820126056125695224e-02,2.897908019198904839e-01,8.126490972127600187e-01,-1.278784083958718121e+00,1.219657023355387615e+00,1.613624686429383281e+00,1.239059359849516984e+00
8.533333333333333215e+00,1.643937594997834682e+09,7.674799097919826618e-02,2.654223170728932657e-01,8.335739947751060752e-01,-1.439032716033745052e+00,1.094726300202180758e+00,1.634292400668864165e+00,1.241060789231287265e+00
8.550000000000000711e+00,1.643937595014959097e+09,7.505031225184360943e-02,1.868393249052723026e-01,7.822128825766208049e-01,-1.599281348108773093e+00,9.572948845967651499e-01,1.654963359608496498e+00,1.239458733783355582e+00
8.566666666666666430e+00,1.643937595032687664e+09,7.311436958325882862e-02,2.038450693292767901e-01,8.583034191669691726e-01,-1.759529980183800024e+00,8.081994859210119841e-01,1.675589594611740285e+00,1.235699908034283201e+00
8.583333333333333925e+00,1.643937595048649788e+09,7.094867618230452089e-02,4.591476750445334931e-02,7.118291362305488867e-01,-1.951828338673833096e+00,6.484064754898044569e-01,1.696109817587630575e+00,1.226751705774963730e+00
8.599999999999999645e+00,1.643937595066597939e+09,6.856398283713813213e-02,-5.494763187760873246e-02,6.414453898844769686e-01,-2.144126697163866169e+00,4.790041272153744423e-01,1.716444810687559164e+00,1.213484320930664495e+00
8.616666666666667140e+00,1.643937595082618713e+09,6.597312997816524860e-02,-1.627269553380967237e-01,5.938888045155094053e-01,-2.432574234898914778e+00,3.011935891347274907e-01,1.736521067390387030e+00,1.195715841457780426e+00
8.633333333333332860e+00,1.643937595098690987e+09,6.319088361196510684e-02,-1.908277791056386952e-01,6.205204923221310231e-01,-2.624872593388948072e+00,1.162786677228911936e-01,1.756274215118904802e+00,1.174720208539550281e+00
8.650000000000000355e+00,1.643937595115657091e+09,6.023375663377047995e-02,-2.783021466754166395e-01,5.786706971974396874e-01,-2.849220678293985731e+00,-7.434548103409743813e-02,1.775641924453575271e+00,1.149475038743054567e+00
8.666666666666666075e+00,1.643937595133608580e+09,5.711981713830894397e-02,-2.393481850727142424e-01,6.947087654977206483e-01,-3.041519036784018581e+00,-2.692046486825616647e-01,1.794570834128901948e+00,1.122070248505139922e+00
8.683333333333333570e+00,1.643937595151539803e+09,5.386848544769638758e-02,-2.817159844509464217e-01,7.023178191567552853e-01,-3.233817395274051876e+00,-4.667587441919666125e-01,1.813013644331729290e+00,1.091152859491597349e+00
8.699999999999999289e+00,1.643937595168822050e+09,5.050032165960744585e-02,-2.841362521192457580e-01,7.631902484290338240e-01,-3.426115753764084726e+00,-6.654157123951420783e-01,1.830917662154711190e+00,1.057422975593375503e+00
8.716666666666666785e+00,1.643937595183833838e+09,4.703680558857092214e-02,-2.813974833059317837e-01,8.202581508717952108e-01,-3.586364385839112767e+00,-8.635460688483937997e-01,1.848237186450870873e+00,1.021021058761310440e+00
8.733333333333332504e+00,1.643937595199187994e+09,4.350011102744544278e-02,-3.342999193743098063e-01,8.031377801389668614e-01,-3.746613017914139920e+00,-1.059497912437680212e+00,1.864920668106801571e+00,9.811076132418464768e-01
