# 
# 
# 
# 
# 
# 
# 
# 
# 
# 
# time,realtime,ref,inp,inp0,inp1,dis,state...
0.000000000000000000e+00,1.643937365981328487e+09,-0.000000000000000000e+00,1.628912786213851660e-01,1.006679965518148201e+00,-2.368474782068903828e+00,-0.000000000000000000e+00,0.000000000000000000e+00,0.000000000000000000e+00
1.666666666666666644e-02,1.643937365984296560e+09,-4.889777767930284105e-06,1.200903517893141675e-01,9.496120630753869252e-01,-2.368474782068903828e+00,0.000000000000000000e+00,1.658693931076622266e-05,1.984918923844469687e-03
3.333333333333333287e-02,1.643937365985293150e+09,-1.920748041897197308e-05,1.614645810603159981e-01,1.004777702103389236e+00,-2.368474782068903828e+00,-4.037741249246019371e-06,7.169577419005143302e-05,4.620819144282964017e-03
5.000000000000000278e-02,1.643937366004141569e+09,-4.236889016368421731e-05,8.442291276258855059e-02,9.020554777064194729e-01,-2.368474782068903828e+00,-1.985384912176901292e-05,1.597289893607265496e-04,5.939503577670068521e-03
6.666666666666666574e-02,1.643937366020580769e+09,-7.371465627221478699e-05,7.300933227403624826e-02,8.868373703883496439e-01,-2.368474782068903828e+00,-5.368009397174375828e-05,2.679770195393180524e-04,7.047183083825885735e-03
8.333333333333332871e-02,1.643937366037554026e+09,-1.125119546145244805e-04,1.671713713045920868e-01,1.012386755762424206e+00,-2.368474782068903828e+00,-1.124929683521730986e-04,4.075309661259061337e-04,9.691943776176629652e-03
1.000000000000000056e-01,1.643937366055098295e+09,-1.579573024729174731e-04,1.999854152091798121e-01,1.056138814301874396e+00,-2.368474782068903828e+00,-2.037901799619213673e-04,5.953186440194617370e-04,1.283384984877003823e-02
1.166666666666666685e-01,1.643937366072426558e+09,-2.091805243613911128e-04,1.951575687633098632e-01,1.039018443569046157e+00,-2.336425055653899019e+00,-3.353407491868513890e-04,8.343524670981190914e-04,1.584185315926009766e-02
1.333333333333333315e-01,1.643937366091368437e+09,-2.652498488953464401e-04,2.076666567771876526e-01,1.077063711864220119e+00,-2.400524508483909969e+00,-5.149138941818184141e-04,1.124807170512555051e-03,1.900392750389575877e-02
1.499999999999999944e-01,1.643937366108327150e+09,-3.251781011202299425e-04,2.741736883847690764e-01,1.155056511869326785e+00,-2.368474782068903828e+00,-7.499923874272101032e-04,1.476679880949934584e-03,2.320911639341407748e-02
1.666666666666666574e-01,1.643937366124449968e+09,-3.879299393212556164e-04,2.270926688694914763e-01,1.092281819182289837e+00,-2.368474782068903828e+00,-1.047476472730341944e-03,1.891514307533777046e-03,2.656170184010958613e-02
1.833333333333333204e-01,1.643937366140661955e+09,-4.524300703893301373e-04,2.427863420412506579e-01,1.113206716744635560e+00,-2.368474782068903828e+00,-1.413384733374595595e-03,2.363879175992106459e-03,3.011221959344919166e-02
2.000000000000000111e-01,1.643937366158548832e+09,-5.175723634975419596e-04,2.556266200908718367e-01,1.130327087477463799e+00,-2.368474782068903828e+00,-1.852558494746853321e-03,2.896641787767819005e-03,3.380902467494222713e-02
2.166666666666666741e-01,1.643937366175822020e+09,-5.822297683289535996e-04,2.556266200908718367e-01,1.130327087477463799e+00,-2.368474782068903828e+00,-2.368376424140750895e-03,3.490435967976174107e-03,3.743620122251272581e-02
2.333333333333333370e-01,1.643937366193204403e+09,-6.452649315625672054e-04,1.971320200870416151e-01,1.052334287472356911e+00,-2.368474782068903828e+00,-2.962485954097878772e-03,4.136020741165059682e-03,4.002677535153956884e-02
2.500000000000000000e-01,1.643937366210159302e+09,-7.055413939327181104e-04,2.884406639954595897e-01,1.174079146016913988e+00,-2.368474782068903828e+00,-3.634558002928975611e-03,4.836942706976687587e-03,4.407262181893678576e-02
2.666666666666666630e-01,1.643937366226118088e+09,-7.619352400781694099e-04,2.513465274076650546e-01,1.124620297233188237e+00,-2.368474782068903828e+00,-4.382071198050004751e-03,5.599509925362188695e-03,4.742612887071153555e-02
2.833333333333333259e-01,1.643937366243073940e+09,-8.133470647273123404e-04,2.342261566748367052e-01,1.101793136256083550e+00,-2.368474782068903828e+00,-5.200131427346440550e-03,6.415028074841392335e-03,5.042771114202383720e-02
2.999999999999999889e-01,1.643937366260002375e+09,-8.587141116461364599e-04,3.112678249725640001e-01,1.204515360653053424e+00,-2.368474782068903828e+00,-6.081332055561865062e-03,7.290677337264509471e-03,5.463850342821742478e-02
3.166666666666666519e-01,1.643937366278653145e+09,-8.970224363100107222e-04,3.740425176596014478e-01,1.288214950902436540e+00,-2.368474782068903828e+00,-7.015659553003340647e-03,8.244466296489101273e-03,5.980182877076947040e-02
3.333333333333333148e-01,1.643937366296030998e+09,-9.273189395345019567e-04,2.484931322855267466e-01,1.120815770403670308e+00,-2.368474782068903828e+00,-7.990448600588798134e-03,9.266121934913858563e-03,6.278855119376033911e-02
3.499999999999999778e-01,1.643937366312974930e+09,-9.487231173808453356e-04,3.141212200947020583e-01,1.208319887482570687e+00,-2.368474782068903828e+00,-8.990389967863641335e-03,1.034607022463124998e-02,6.679411673949024741e-02
3.666666666666666408e-01,1.643937366327370405e+09,-9.604383725842128130e-04,2.584800152130098949e-01,1.134131614306981062e+00,-2.368474782068903828e+00,-9.997593619905176601e-03,1.148440038294636610e-02,6.979716027439354653e-02
3.833333333333333037e-01,1.643937366348339558e+09,-9.617627345628032825e-04,3.198280103389779527e-01,1.215928941141605435e+00,-2.368474782068903828e+00,-1.099170860707798618e-02,1.268070259301134865e-02,7.374812975986022590e-02
4.000000000000000222e-01,1.643937366364123106e+09,-9.520988387567161718e-04,2.741736883847690764e-01,1.155056511869326785e+00,-2.368474782068903828e+00,-1.195010034154437781e-02,1.393587041335094152e-02,7.686335507357437702e-02
4.166666666666666852e-01,1.643937366380080462e+09,-9.309630215994374458e-04,1.928519274038347220e-01,1.046627497228080905e+00,-2.368474782068903828e+00,-1.284808488031627394e-02,1.523117214683456649e-02,7.856811738214938834e-02
4.333333333333333481e-01,1.643937366397162437e+09,-8.979933948024058617e-04,2.128256932588011296e-01,1.073259185034702856e+00,-2.368474782068903828e+00,-1.365921883121261685e-02,1.655729787512061346e-02,8.056143289432314558e-02
4.500000000000000111e-01,1.643937366413231611e+09,-8.529567717733975603e-04,2.270926688694914763e-01,1.092281819182289837e+00,-2.368474782068903828e+00,-1.435564249061524640e-02,1.791824458228323189e-02,8.274610329347513449e-02
4.666666666666666741e-01,1.643937366429234982e+09,-7.957543298107483442e-04,1.957053225259727525e-01,1.050432024057598168e+00,-2.368474782068903828e+00,-1.490847282594354173e-02,1.931088912185932246e-02,8.436673958223286918e-02
4.833333333333333370e-01,1.643937366445674896e+09,-7.264259041160135537e-04,1.700247664267301173e-01,1.016191282591941469e+00,-2.368474782068903828e+00,-1.528824194691122060e-02,2.072672095803242132e-02,8.552984982072342479e-02
5.000000000000000000e-01,1.643937366465248346e+09,-6.451528235264906725e-04,1.757315566710064836e-01,1.023800336250976661e+00,-2.368474782068903828e+00,-1.546537578335120677e-02,2.216254107438271961e-02,8.676513271916738712e-02
5.166666666666666075e-01,1.643937366484219074e+09,-5.522592130470422873e-04,2.014121127702489800e-01,1.058041077716633138e+00,-2.368474782068903828e+00,-1.541070681878797290e-02,2.362233318327706250e-02,8.840536404279739080e-02
5.333333333333333259e-01,1.643937366500176191e+09,-4.482117046023978662e-04,1.842917420374202975e-01,1.035213916739528450e+00,-2.368474782068903828e+00,-1.509601393249269258e-02,2.510691472272000985e-02,8.974071130510323513e-02
5.500000000000000444e-01,1.643937366517128944e+09,-3.336175147658314430e-04,9.583649325114085293e-02,9.172735850244890798e-01,-2.368474782068903828e+00,-1.449458169216343711e-02,2.660143319806003784e-02,8.960189135574617159e-02
5.666666666666666519e-01,1.643937366534084320e+09,-2.092208663637132521e-04,1.400641176442807279e-01,9.762437508820089871e-01,-2.368474782068903828e+00,-1.358177082729890989e-02,2.809989200089973299e-02,9.021147166652283833e-02
5.833333333333333703e-01,1.643937366549032688e+09,-7.589774961267693949e-05,1.628912786213851660e-01,1.006679965518148201e+00,-2.368474782068903828e+00,-1.233559111124402780e-02,2.961175130187745919e-02,9.120887382404746502e-02
5.999999999999999778e-01,1.643937366565986395e+09,6.535096238783568605e-05,1.229437469114521980e-01,9.534165899049042991e-01,-2.368474782068903828e+00,-1.073726749785526915e-02,3.113479939870614568e-02,9.155593371744540077e-02
6.166666666666666963e-01,1.643937366584231138e+09,2.134080096223960066e-04,1.343573274000045004e-01,9.686346972229740171e-01,-2.368474782068903828e+00,-8.771790105289414136e-03,3.266543181315612054e-02,9.211839359124067428e-02
6.333333333333333037e-01,1.643937366601604223e+09,3.670497990579211643e-04,1.086767713007620179e-01,9.343939557573173182e-01,-2.368474782068903828e+00,-6.428438521395225466e-03,3.420213752526534562e-02,9.228582675878756192e-02
6.500000000000000222e-01,1.643937366619217634e+09,5.249579438433350266e-04,1.272238395946595491e-01,9.591233801491806377e-01,-2.368474782068903828e+00,-3.701270927607347265e-03,3.574454907229041023e-02,9.280212468954669724e-02
6.666666666666666297e-01,1.643937366634131670e+09,6.857321965375530372e-04,2.079978468129310420e-01,1.056138814301874396e+00,-2.336425055653899019e+00,-5.895687042093808623e-04,3.730708060954494865e-02,9.469639778743751957e-02
6.833333333333333481e-01,1.643937366650370598e+09,8.479046671275874579e-04,1.942786249649037233e-01,1.048529760642839426e+00,-2.368474782068903828e+00,2.901772509521472702e-03,3.889950904717556779e-02,9.639030930771398664e-02
6.999999999999999556e-01,1.643937366668292284e+09,1.009955199523933714e-03,2.028388103313178426e-01,1.059943341131391881e+00,-2.368474782068903828e+00,6.761913872369734214e-03,4.052165088129830450e-02,9.826151287698604853e-02
7.166666666666666741e-01,1.643937366685719967e+09,1.170327764242609604e-03,2.071189030145249022e-01,1.065650131375667886e+00,-2.368474782068903828e+00,1.097381449230800526e-02,4.217589390835720098e-02,1.002421484750410374e-01
7.333333333333332815e-01,1.643937366702676535e+09,1.327447710299107337e-03,2.042655078923868717e-01,1.061845604546150623e+00,-2.368474782068903828e+00,1.551404991756706077e-02,4.386310694956428030e-02,1.022179280639998605e-01
7.500000000000000000e-01,1.643937366718833447e+09,1.479739706134637406e-03,1.957053225259727525e-01,1.050432024057598168e+00,-2.368474782068903828e+00,2.035271435375136939e-02,4.558246273659684322e-02,1.040995395582960392e-01
7.666666666666666075e-01,1.643937366735834837e+09,1.625646187840901159e-03,2.071189030145249022e-01,1.065650131375667886e+00,-2.368474782068903828e+00,2.545341201353812366e-02,4.733519978642054121e-02,1.062230077589400579e-01
7.833333333333333259e-01,1.643937366752793550e+09,1.763646123202196499e-03,1.671713713045920868e-01,1.012386755762424206e+00,-2.368474782068903828e+00,3.077334191696400045e-02,4.911825189679452919e-02,1.077390342022586794e-01
8.000000000000000444e-01,1.643937366769910097e+09,1.892273892271691734e-03,1.457709078885567888e-01,9.838528045410436240e-01,-2.368474782068903828e+00,3.626347927538443178e-02,5.092416417805448181e-02,1.089670283737310813e-01
8.166666666666666519e-01,1.643937366784331560e+09,2.010138079460620231e-03,1.614645810603159981e-01,1.004777702103389236e+00,-2.368474782068903828e+00,4.186885532505944113e-02,5.275331525297735635e-02,1.105267679052311380e-01
8.333333333333333703e-01,1.643937366807261705e+09,2.115939968543779741e-03,1.529043956939019067e-01,9.933641216148372255e-01,-2.368474782068903828e+00,4.752893614260037675e-02,5.460784599086884739e-02,1.120127926979480187e-01
8.499999999999999778e-01,1.643937366823220730e+09,2.208491530647665926e-03,1.471976054496256792e-01,9.857550679558022555e-01,-2.368474782068903828e+00,5.317809959107566709e-02,5.648693059871130739e-02,1.134733031741172460e-01
8.666666666666666963e-01,1.643937366837976217e+09,2.286732696242168173e-03,1.186636542282452911e-01,9.477097996606282937e-01,-2.368474782068903828e+00,5.874620813033900463e-02,5.838698326773698877e-02,1.145300815444013076e-01
8.833333333333333037e-01,1.643937366856148720e+09,2.349747705430677101e-03,1.315039322778666087e-01,9.648301703934566431e-01,-2.368474782068903828e+00,6.415927379686647836e-02,6.030702410778689820e-02,1.158710941389302779e-01
9.000000000000000222e-01,1.643937366873214006e+09,2.396780336432027467e-03,2.307491763662044768e-02,8.202581508717952108e-01,-2.368474782068903828e+00,6.934021023638579917e-02,6.223496926033790511e-02,1.154834011175960434e-01
9.166666666666666297e-01,1.643937366890542507e+09,2.427247820048117084e-03,-6.885731145829318209e-03,7.803106191618621734e-01,-2.368474782068903828e+00,7.420966527655682710e-02,6.415304080268742493e-02,1.146873951440919859e-01
9.333333333333333481e-01,1.643937366908496618e+09,2.440753258068207362e-03,1.594142983127512861e-02,8.107468337980014983e-01,-2.368474782068903828e+00,7.868692617664165001e-02,6.606172682392791318e-02,1.143558483896500999e-01
9.499999999999999556e-01,1.643937366923454762e+09,2.437096375902350620e-03,-4.683326285576206588e-02,7.270472435486184937e-01,-2.368474782068903828e+00,8.269088840610255842e-02,6.795681541671516612e-02,1.130583868893685201e-01
9.666666666666666741e-01,1.643937366940098763e+09,2.416282454166633620e-03,-1.599367027490631796e-02,7.574834581847579296e-01,-2.336425055653899019e+00,8.614107760349588860e-02,6.983519497896302497e-02,1.123491307825971453e-01
9.833333333333332815e-01,1.643937366958203316e+09,2.378529300341097365e-03,1.736812739234407446e-02,8.126490972127600187e-01,-2.368474782068903828e+00,8.895871326934823298e-02,7.170684869028985664e-02,1.122495910822985110e-01
1.000000000000000000e+00,1.643937366982092857e+09,2.324272139845282546e-03,8.584961032365756584e-02,9.039577411211779934e-01,-2.368474782068903828e+00,9.106780176936930815e-02,7.358660716003354030e-02,1.133184561474386010e-01
1.016666666666666607e+00,1.643937366995056391e+09,2.254166325760283487e-03,2.477566595158502616e-04,7.898219362356557749e-01,-2.368474782068903828e+00,9.239624538364350770e-02,7.547239252990733949e-02,1.129767374782841144e-01
1.033333333333333215e+00,1.643937367008567572e+09,2.169087787785302368e-03,-2.400610187865754100e-02,7.574834581847579296e-01,-2.368474782068903828e+00,9.287695344817047116e-02,7.734924622757612112e-02,1.122477313067738874e-01
1.050000000000000044e+00,1.643937367026486874e+09,2.070131163647664658e-03,2.735501031982735462e-02,8.259649411160711052e-01,-2.368474782068903828e+00,9.244894111043337748e-02,7.922108541824947336e-02,1.123726246399382039e-01
1.066666666666666652e+00,1.643937367044469357e+09,1.958605579865746980e-03,1.486243030106948471e-01,9.876573313705609980e-01,-2.368474782068903828e+00,9.105840087184521869e-02,8.111154662725082731e-02,1.144768751623125164e-01
1.083333333333333259e+00,1.643937367063410282e+09,1.836028073261032623e-03,1.400641176442807279e-01,9.762437508820089871e-01,-2.368474782068903828e+00,8.865973192617426779e-02,8.303527439573391011e-02,1.163652115533370252e-01
1.100000000000000089e+00,1.643937367075353384e+09,1.704114669678865159e-03,1.623435248587221380e-01,9.952663850295959680e-01,-2.336425055653899019e+00,8.521651233137043924e-02,8.499281528306891487e-02,1.185336712858369029e-01
1.116666666666666696e+00,1.643937367092050314e+09,1.564769161751041740e-03,1.965842663243788924e-01,1.040920706983804900e+00,-2.336425055653899019e+00,8.070239927727282381e-02,8.699030351395427296e-02,1.211576274816457410e-01
1.133333333333333304e+00,1.643937367111251354e+09,1.420069652951177867e-03,1.751838029083433168e-01,1.012386755762424206e+00,-2.336425055653899019e+00,7.510194313564121094e-02,8.902743254548207974e-02,1.232919275508510132e-01
1.149999999999999911e+00,1.643937367127430201e+09,1.272252960386646920e-03,1.557577908160399371e-01,9.971686484443545995e-01,-2.368474782068903828e+00,6.841130160149844208e-02,9.109623120900911530e-02,1.249592804276162816e-01
1.166666666666666741e+00,1.643937367144775152e+09,1.123696993465769919e-03,1.215170493503831828e-01,9.515143264901456677e-01,-2.368474782068903828e+00,6.063884105296341726e-02,9.318678590711203247e-02,1.259046572362358118e-01
1.183333333333333348e+00,1.643937367161313057e+09,9.769012495068319334e-04,1.671713713045920868e-01,1.012386755762424206e+00,-2.368474782068903828e+00,5.180561326507797382e-02,9.529805205734100115e-02,1.274430074955013592e-01
1.199999999999999956e+00,1.643937367177307844e+09,8.344655902464539815e-04,1.511465080970893216e-01,1.012386755762424206e+00,-2.432574234898914778e+00,4.194569680350671015e-02,9.743116968216866680e-02,1.285280932856836256e-01
1.216666666666666563e+00,1.643937367194880247e+09,6.990674848008255086e-04,1.515796355509281823e-01,1.077063711864220119e+00,-2.624872593388948072e+00,3.110639378579709360e-02,9.958078489141401757e-02,1.294232452320503712e-01
1.233333333333333393e+00,1.643937367211825132e+09,5.734379246799881698e-04,2.964796278857374789e-02,9.572211167344215621e-01,-2.753071499048969972e+00,1.934827421808436518e-02,1.017267303601080003e-01,1.280939037134673497e-01
1.250000000000000000e+00,1.643937367229802370e+09,4.603362347169377179e-04,-2.182777571873482231e-02,9.420030094163523993e-01,-2.913320131123996681e+00,6.745061778371935594e-03,1.038418531294611064e-01,1.257274023784415440e-01
1.266666666666666607e+00,1.643937367246757984e+09,3.625240200206488492e-04,-1.243334363887858701e-01,8.373785216046234492e-01,-3.009469310369013773e+00,-6.616643293755794172e-03,1.059018574138715363e-01,1.214848967659887535e-01
1.283333333333333215e+00,1.643937367262715816e+09,2.827385030930362406e-04,-1.986363358731993434e-01,7.917241996504145174e-01,-3.169717942444040926e+00,-2.063780664639961598e-02,1.078795398847696152e-01,1.158526452530973666e-01
1.300000000000000044e+00,1.643937367276651859e+09,2.236655168724193841e-04,-2.669012550775934911e-01,7.327540337928946101e-01,-3.265867121689058017e+00,-3.520756806956933799e-02,1.097526882590883907e-01,1.089443498263258786e-01
1.316666666666666652e+00,1.643937367296598673e+09,1.879124285170949492e-04,-3.271537426782359925e-01,6.737838679353749249e-01,-3.329966574519068967e+00,-5.020401397909959179e-02,1.115012591332622260e-01,1.009064830078631181e-01
1.333333333333333259e+00,1.643937367312556982e+09,1.779812750811796932e-04,-3.037788279384687762e-01,7.156336630600661497e-01,-3.362016300934073776e+00,-6.549511047597748881e-02,1.131180922956466078e-01,9.313508420523795850e-02
1.350000000000000089e+00,1.643937367333499670e+09,1.962423957419229107e-04,-3.397774570009378103e-01,6.890019752534445319e-01,-3.426115753764084726e+00,-8.093979123527211827e-02,1.145993701585129171e-01,8.464185220510148100e-02
1.366666666666666696e+00,1.643937367348460674e+09,2.449088458298577672e-04,-3.326439691955926925e-01,6.985132923272380223e-01,-3.426115753764084726e+00,-9.638919240056988136e-02,1.159391186460493467e-01,7.615155102429567446e-02
1.383333333333333304e+00,1.643937367364418745e+09,3.260118755260132538e-04,-3.757760860634069555e-01,6.623702874468226920e-01,-3.490215206594095676e+00,-1.116880246211317401e-01,1.171304642866977386e-01,6.683580353890497538e-02
1.399999999999999911e+00,1.643937367382369518e+09,4.413777506986826457e-04,-3.780817274228824854e-01,6.699793411058573289e-01,-3.522264933009101817e+00,-1.266760703961942736e-01,1.181654455522511832e-01,5.738819230970025609e-02
1.416666666666666741e+00,1.643937367400320530e+09,5.926061849529648063e-04,-3.832407639044954628e-01,6.737838679353749249e-01,-3.554314659424106626e+00,-1.411897930100914356e-01,1.190415543281258676e-01,4.777157425191579099e-02
1.433333333333333348e+00,1.643937367416278601e+09,7.810506405955912595e-04,-4.126536589242824626e-01,6.452499167139943426e-01,-3.586364385839112767e+00,-1.550640415787045701e-01,1.197527355465839022e-01,3.759843135840797851e-02
1.449999999999999956e+00,1.643937367432235718e+09,1.007800741934277572e-03,-3.616237367615411369e-01,7.346562972076531306e-01,-3.650463838669123717e+00,-1.681338351068220327e-01,1.203010125749640474e-01,2.822086146555510822e-02
1.466666666666666563e+00,1.643937367451184988e+09,1.273667027233212241e-03,-3.257397340078958536e-01,8.145513606275187612e-01,-3.746613017914139920e+00,-1.802362070007290928e-01,1.206975767371500780e-01,1.939136495322532627e-02
1.483333333333333393e+00,1.643937367467176676e+09,1.579168245857131463e-03,-3.323254680505777769e-01,8.164536240422778368e-01,-3.778662744329144729e+00,-1.912120902126412669e-01,1.209457765392566164e-01,1.041753918006513464e-02
1.500000000000000000e+00,1.643937367484121084e+09,1.924521384811133697e-03,-3.089505533108108937e-01,8.583034191669691726e-01,-3.810712470744150870e+00,-2.009082221335311558e-01,1.210475413680788814e-01,1.818128093837165921e-03
1.516666666666666607e+00,1.643937367502075434e+09,2.309634584204194648e-03,-3.592161579839703855e-01,8.126490972127600187e-01,-3.874811923574161820e+00,-2.091790475163884389e-01,1.209990853528201127e-01,-7.606669315910042847e-03
1.533333333333333215e+00,1.643937367519028902e+09,2.734103074345942477e-03,-3.221220213961755729e-01,8.621079459964864355e-01,-3.874811923574161820e+00,-2.158885971185889596e-01,1.207990478727686418e-01,-1.637347547777131401e-02
1.550000000000000044e+00,1.643937367533963919e+09,3.197208238459195093e-03,-3.395735821647473673e-01,8.602056825817276930e-01,-3.938911376404172771e+00,-2.209123194127579626e-01,1.204510035350164626e-01,-2.536686283297755889e-02
1.566666666666666652e+00,1.643937367551941156e+09,3.697919874620101636e-03,-2.990782966921516350e-01,9.248826386835237168e-01,-3.970961102819177579e+00,-2.241388426404315182e-01,1.199594591591971043e-01,-3.359560411270124530e-02
1.583333333333333259e+00,1.643937367567897797e+09,4.234901698802901945e-03,-2.634108576654258793e-01,9.724392240524913911e-01,-3.970961102819177579e+00,-2.254716446790437645e-01,1.193366479704266042e-01,-4.112083462967189990e-02
1.600000000000000089e+00,1.643937367584009171e+09,4.806520098107066631e-03,-2.382780553288462722e-01,9.952663850295959680e-01,-3.938911376404172771e+00,-2.248306086642735679e-01,1.185930155570472933e-01,-4.809567994951124970e-02
1.616666666666666696e+00,1.643937367605221748e+09,5.410856109698986352e-03,-2.477171844936665313e-01,9.933641216148372255e-01,-3.970961102819177579e+00,-2.221534430572544017e-01,1.177331651250058536e-01,-5.506700664331849043e-02
1.633333333333333304e+00,1.643937367620136499e+09,6.045720567035659833e-03,-2.614364063416942940e-01,9.857550679558022555e-01,-4.003010829234183277e+00,-2.173969458669708921e-01,1.167568508618538614e-01,-6.207124825031092030e-02
1.649999999999999911e+00,1.643937367638139963e+09,6.708672320897836674e-03,-3.065429745332401423e-01,9.362962191720760607e-01,-4.035060555649188530e+00,-2.105380940263075484e-01,1.156594838742641129e-01,-6.959189907204696435e-02
1.666666666666666741e+00,1.643937367657085896e+09,7.397039408986886243e-03,-3.411149060346401196e-01,9.115667947802129634e-01,-4.099160008479199924e+00,-2.015749404663481348e-01,1.144342743651688699e-01,-7.741152033796819265e-02
1.683333333333333348e+00,1.643937367671694279e+09,8.107943014685056390e-03,-3.962083571536696436e-01,8.487921020931756821e-01,-4.131209734894206065e+00,-1.905273032249493459e-01,1.130737342551755842e-01,-8.582990790095187950e-02
1.699999999999999956e+00,1.643937367685845613e+09,8.838324023397186799e-03,-3.228990277764864358e-01,9.572211167344215621e-01,-4.163259461309210430e+00,-1.774372329464512510e-01,1.115859839658812219e-01,-9.268109529037313332e-02
1.716666666666666563e+00,1.643937367703666925e+09,9.584971954020417642e-03,-3.334336644666324179e-01,9.324916923425586868e-01,-4.131209734894206065e+00,-1.623692473606633824e-01,1.099856196579287460e-01,-9.934411284620892069e-02
1.733333333333333393e+00,1.643937367721915722e+09,1.034455601387901380e-02,-3.191666888559422377e-01,9.515143264901456677e-01,-4.131209734894206065e+00,-1.454103237490348144e-01,1.082794382934698929e-01,-1.053808816918330171e-01
1.750000000000000000e+00,1.643937367737124205e+09,1.111365799823096738e-02,-3.962083571536696436e-01,8.487921020931756821e-01,-4.131209734894206065e+00,-1.266696429896099207e-01,1.064654253549531249e-01,-1.122815020890375742e-01
1.766666666666666607e+00,1.643937367753777742e+09,1.188880673052769565e-02,-3.719544986154961208e-01,8.811305801440737495e-01,-4.131209734894206065e+00,-1.062780814928387246e-01,1.045435216413074242e-01,-1.183301413771974536e-01
1.783333333333333215e+00,1.643937367771877289e+09,1.266651371727620969e-02,-4.695176865308526848e-01,7.403630874519295801e-01,-4.099160008479199924e+00,-8.438745016829470036e-02,1.025111907826608965e-01,-1.255295627968700534e-01
1.800000000000000044e+00,1.643937367787833691e+09,1.344330967190006214e-02,-4.960771864285017929e-01,7.156336630600661497e-01,-4.131209734894206065e+00,-6.116948246668791472e-02,1.003594024206043572e-01,-1.326652189164000128e-01
1.816666666666666652e+00,1.643937367806103945e+09,1.421578154566880033e-02,-4.589830498407069803e-01,7.650925118437925665e-01,-4.131209734894206065e+00,-3.681457648945479083e-02,9.809815940935975864e-02,-1.386672696773247893e-01
1.833333333333333259e+00,1.643937367823701382e+09,1.498060969079370933e-02,-4.889436986231565085e-01,7.251449801338598622e-01,-4.131209734894206065e+00,-1.153029911588513215e-02,9.573706532225999266e-02,-1.446474088858757112e-01
1.849999999999999867e+00,1.643937367839558125e+09,1.573460477137191352e-02,-5.108919158018546680e-01,6.851974484239269358e-01,-4.099160008479199924e+00,1.446033696970283958e-02,9.327768656907892142e-02,-1.504618897798971622e-01
1.866666666666666696e+00,1.643937367857484341e+09,1.647474403215858085e-02,-5.403048108216413903e-01,6.566634972025466865e-01,-4.131209734894206065e+00,4.092080959571697124e-02,9.072179510994562990e-02,-1.562290650078625998e-01
1.883333333333333304e+00,1.643937367872469664e+09,1.719820653329984586e-02,-5.602785766766078535e-01,6.300318093959246246e-01,-4.131209734894206065e+00,6.760322023376313938e-02,8.807150723016457516e-02,-1.617900330687956356e-01
1.899999999999999911e+00,1.643937367890834332e+09,1.790240696125263570e-02,-5.945193181422646633e-01,5.843774874417156928e-01,-4.131209734894206065e+00,9.425060476240598728e-02,8.532825583480230236e-02,-1.673845935630976778e-01
1.916666666666666741e+00,1.643937367906790495e+09,1.858502763221929130e-02,-6.007738621492033637e-01,5.653548532941287119e-01,-4.099160008479199924e+00,1.205994002013388439e-01,8.249530991605623365e-02,-1.725545553434826851e-01
1.933333333333333348e+00,1.643937367924111843e+09,1.924404831454707906e-02,-5.845324352147813762e-01,5.976933313450266683e-01,-4.131209734894206065e+00,1.463820434661481373e-01,7.958271643088257741e-02,-1.769444683874529245e-01
1.949999999999999956e+00,1.643937367946568727e+09,1.987777351067013601e-02,-5.788256449705053708e-01,6.053023850040614162e-01,-4.131209734894206065e+00,1.713296761342269769e-01,7.660179806947781112e-02,-1.807551495066528069e-01
1.966666666666666563e+00,1.643937367959876060e+09,2.048485685723978530e-02,-4.504228644742926946e-01,7.765060923323449105e-01,-4.131209734894206065e+00,1.951749274090749942e-01,7.357892326337958644e-02,-1.819864069849748689e-01
1.983333333333333393e+00,1.643937367977598190e+09,2.106432232400471879e-02,-5.137453109239927818e-01,6.813929215944095619e-01,-4.099160008479199924e+00,2.176547459495616343e-01,7.053005635706048604e-02,-1.838723828282296247e-01
2.000000000000000000e+00,1.643937367999444723e+09,2.161558191761445147e-02,-5.308656816568209091e-01,6.585657606173053180e-01,-4.099160008479199924e+00,2.385132500164146852e-01,6.745053332478630204e-02,-1.856654003232955374e-01
2.016666666666666607e+00,1.643937368012377739e+09,2.213844962566458713e-02,-5.037584279965094947e-01,6.947087654977206483e-01,-4.099160008479199924e+00,2.575045645007539297e-01,6.434774147729943605e-02,-1.866668395340712605e-01
2.033333333333333215e+00,1.643937368030356407e+09,2.263315136874202022e-02,-5.032106742338466887e-01,7.061223459862729923e-01,-4.131209734894206065e+00,2.743956128559439378e-01,6.123080595163309797e-02,-1.873634883647032900e-01
2.049999999999999822e+00,1.643937368046312094e+09,2.310033076373118471e-02,-5.246111376498822088e-01,6.775883947648922989e-01,-4.131209734894206065e+00,2.889688317678557605e-01,5.810141285118947813e-02,-1.881614670289601110e-01
2.066666666666666430e+00,1.643937368062271118e+09,2.354105053990013935e-02,-5.765200036110298409e-01,5.976933313450266683e-01,-4.099160008479199924e+00,3.010247765792357089e-01,5.495332581819818707e-02,-1.896049671131653791e-01
2.083333333333333481e+00,1.643937368078648806e+09,2.395678948998880564e-02,-5.345980205773653848e-01,6.642725508615813235e-01,-4.131209734894206065e+00,3.103845860366717946e-01,5.178846289418904264e-02,-1.901769947648344616e-01
2.100000000000000089e+00,1.643937368094599247e+09,2.434943488131369183e-02,-5.160509522834679785e-01,6.890019752534445319e-01,-4.131209734894206065e+00,3.168922758547825236e-01,4.861760576042212234e-02,-1.903254489048789577e-01
2.116666666666666696e+00,1.643937368112821102e+09,2.472127029640354065e-02,-4.561296547185688111e-01,7.688970386733101625e-01,-4.131209734894206065e+00,3.204168318885022848e-01,4.545305806850438723e-02,-1.894227815934623194e-01
2.133333333333333304e+00,1.643937368131272316e+09,2.507495891849496894e-02,-4.589830498407069803e-01,7.650925118437925665e-01,-4.131209734894206065e+00,3.208540753631766718e-01,4.230309643484633092e-02,-1.885749695344297594e-01
2.149999999999999911e+00,1.643937368145607471e+09,2.541352232390451521e-02,-4.589830498407069803e-01,7.650925118437925665e-01,-4.131209734894206065e+00,3.181282746216988477e-01,3.916677141298901405e-02,-1.877862240995559207e-01
2.166666666666666519e+00,1.643937368164552212e+09,2.574031489043765095e-02,-4.960771864285017929e-01,7.156336630600661497e-01,-4.131209734894206065e+00,3.121934801918154201e-01,3.603754002904421133e-02,-1.877217211528892371e-01
2.183333333333333126e+00,1.643937368177522421e+09,2.605899397811559104e-02,-5.665331206835466649e-01,6.110091752483376437e-01,-4.099160008479199924e+00,3.030345626346996890e-01,3.289837834197353178e-02,-1.889742020999660155e-01
2.200000000000000178e+00,1.643937368194864035e+09,2.637348608516202481e-02,-5.479860523896493696e-01,6.357385996402006301e-01,-4.099160008479199924e+00,2.906679355833949319e-01,2.973936861137322155e-02,-1.901038276494699530e-01
2.216666666666666785e+00,1.643937368212836981e+09,2.668794922790419452e-02,-5.062806330829041634e-01,6.699793411058573289e-01,-4.035060555649188530e+00,2.751419495885387700e-01,2.656530372911754950e-02,-1.907820741587870350e-01
2.233333333333333393e+00,1.643937368231667995e+09,2.700673183755655446e-02,-4.517349357265374454e-01,7.213404533043425992e-01,-3.970961102819177579e+00,2.565369458270602698e-01,2.338499256465224538e-02,-1.908550628259796933e-01
2.250000000000000000e+00,1.643937368249156952e+09,2.733432850929747374e-02,-5.393112407144111664e-01,5.938888045155094053e-01,-3.938911376404172771e+00,2.349649623622230843e-01,2.018839938756859104e-02,-1.927309076214324957e-01
2.266666666666666607e+00,1.643937368264116049e+09,2.767533297917378413e-02,-3.178419287129684023e-01,8.678147362407626630e-01,-3.874811923574161820e+00,2.105690894324283580e-01,1.698802110491840628e-02,-1.913184099934579774e-01
2.283333333333333215e+00,1.643937368279778004e+09,2.803438874173038234e-02,-2.613217800328699325e-01,9.324916923425586868e-01,-3.842762197159155679e+00,1.835224741511402302e-01,1.381506025366344842e-02,-1.894421042402318345e-01
2.299999999999999822e+00,1.643937368294738770e+09,2.841613775544333045e-02,-2.812955458878363402e-01,9.058600045359367359e-01,-3.842762197159155679e+00,1.540269789784923515e-01,1.066627928965853053e-02,-1.884144660580493180e-01
2.316666666666666430e+00,1.643937368315499544e+09,2.882516771362932800e-02,-2.381634290200217718e-01,9.420030094163523993e-01,-3.778662744329144729e+00,1.223115023323489009e-01,7.536060562835495899e-03,-1.872151127760208200e-01
2.333333333333333481e+00,1.643937368330333233e+09,2.926595838515494777e-02,-2.563793072781762050e-01,8.963486874621433564e-01,-3.714563291499134667e+00,8.862997369738205566e-02,4.418497306370457178e-03,-1.868933717459023425e-01
2.350000000000000089e+00,1.643937368346282482e+09,2.974282755160575706e-02,-1.542048366438687201e-01,1.021898072836217919e+00,-3.682513565084128526e+00,5.325903951905695127e-02,1.315478899164113959e-03,-1.854727832907761831e-01
2.366666666666666696e+00,1.643937368362776279e+09,3.025987708531823264e-02,-9.965913928750232131e-02,1.073259185034702856e+00,-3.618414112254117576e+00,1.649545998901890201e-02,-1.761603171189444171e-03,-1.837817625420640200e-01
2.383333333333333304e+00,1.643937368380550146e+09,3.082093972554020983e-02,-5.883266377916351875e-02,1.117011243574152823e+00,-3.586364385839112767e+00,-2.134675950654791113e-02,-4.810322940097841275e-03,-1.820693664945841339e-01
2.399999999999999911e+00,1.643937368394509792e+09,3.142952711773286389e-02,-2.601861987457594269e-02,1.160763302113603013e+00,-3.586364385839112767e+00,-5.993947503837408070e-02,-7.831537444886632268e-03,-1.804807869050111813e-01
2.416666666666666519e+00,1.643937368413461447e+09,3.208877968350038606e-02,3.192822636659183727e-02,1.227342521630158112e+00,-3.554314659424106626e+00,-9.894371842538164652e-02,-1.082387867683007841e-02,-1.786053705407142367e-01
2.433333333333333126e+00,1.643937368432774067e+09,3.280141888565321628e-02,9.755631417576714204e-02,1.314846638709058491e+00,-3.554314659424106626e+00,-1.380131857674234686e-01,-1.378155371290168407e-02,-1.763219766978368908e-01
2.450000000000000178e+00,1.643937368449036598e+09,3.356970244442963880e-02,8.043594344293876486e-02,1.292019477731954025e+00,-3.554314659424106626e+00,-1.767978642060236416e-01,-1.670920920170882590e-02,-1.750003532217478397e-01
2.466666666666666785e+00,1.643937368467226744e+09,3.439538304684287839e-02,1.760246800345634799e-01,1.419471126520786664e+00,-3.554314659424106626e+00,-2.149477586439442756e-01,-1.960708669433652157e-02,-1.727511937059431624e-01
2.483333333333333393e+00,1.643937368482186317e+09,3.527967107152314014e-02,3.708726284820517555e-02,1.223537994800640849e+00,-3.522264933009101817e+00,-2.521166782905320813e-01,-2.249211274518408618e-02,-1.734499912458010440e-01
2.500000000000000000e+00,1.643937368501457691e+09,3.622320182633855662e-02,2.995377504285978015e-02,1.214026677726847137e+00,-3.522264933009101817e+00,-2.879660414565342608e-01,-2.539462571625442783e-02,-1.748476827149585966e-01
2.516666666666666607e+00,1.643937368519647598e+09,3.722600776562259156e-02,8.702167748562067429e-02,1.290117214317194838e+00,-3.522264933009101817e+00,-3.221686560237055907e-01,-2.831708233033044045e-02,-1.758443424098506680e-01
2.533333333333333215e+00,1.643937368539340973e+09,3.828749611819121101e-02,5.152162742023575458e-03,1.170274619187396725e+00,-3.490215206594095676e+00,-3.544124324809317939e-01,-3.127177366490686145e-02,-1.787106555709227218e-01
2.549999999999999822e+00,1.643937368554300547e+09,3.940643231670400148e-02,8.790062128402710562e-02,1.280605897243401348e+00,-3.490215206594095676e+00,-3.844039863645706268e-01,-3.426655417890154404e-02,-1.806575978082704259e-01
2.566666666666666430e+00,1.643937368570546389e+09,4.058092957359881597e-02,4.883203337250056203e-02,1.217831204556364399e+00,-3.458165480179090867e+00,-4.118720873758505152e-01,-3.730270489822597180e-02,-1.836721146556684892e-01
2.583333333333333481e+00,1.643937368588766098e+09,4.180844489912696055e-02,-1.394265931453685450e-02,1.134131614306981062e+00,-3.458165480179090867e+00,-4.365709133767963213e-01,-4.040076308448387055e-02,-1.880826160142661518e-01
2.600000000000000089e+00,1.643937368604976416e+09,4.308578180330045054e-02,-6.442482771461539859e-02,1.056138814301874396e+00,-3.426115753764084726e+00,-4.582830688869777291e-01,-4.358169196211140323e-02,-1.936134854133318428e-01
2.616666666666666696e+00,1.643937368621949911e+09,4.440909986625986294e-02,-9.065313757652077031e-02,1.010484492347665686e+00,-3.394066027349079917e+00,-4.768223296094301622e-01,-4.686022138913572416e-02,-1.997928804394067115e-01
2.633333333333333304e+00,1.643937368638904810e+09,4.577393130112682174e-02,-1.302694792507101962e-01,9.362962191720760607e-01,-3.329966574519068967e+00,-4.920360768929782358e-01,-5.024846039138243514e-02,-2.067764007062214693e-01
2.649999999999999911e+00,1.643937368656835794e+09,4.717520457031908199e-02,-1.556188453142091366e-01,8.811305801440737495e-01,-3.265867121689058017e+00,-5.038073888716139148e-01,-5.375725395734555490e-02,-2.142580443766887444e-01
2.666666666666666519e+00,1.643937368672793388e+09,4.860727505111150232e-02,-1.629688968464735876e-01,8.392807850193821917e-01,-3.169717942444040926e+00,-5.120567582860966471e-01,-5.739186281593106759e-02,-2.218738631036460685e-01
2.683333333333333126e+00,1.643937368690182924e+09,5.006396267946646578e-02,-1.651599118971248115e-01,7.936264630651731489e-01,-3.041519036784018581e+00,-5.167434106594990251e-01,-6.115330003280626536e-02,-2.294774812627146110e-01
2.700000000000000178e+00,1.643937368707133293e+09,5.153859643344584074e-02,-1.136841733898159568e-01,8.088445703832427558e-01,-2.881270404708991872e+00,-5.178662005331196028e-01,-6.503345922907519117e-02,-2.361231616318279491e-01
2.716666666666666785e+00,1.643937368725083590e+09,5.302406544941760252e-02,-1.162063784762102925e-01,7.841151459913798805e-01,-2.817170951878980922e+00,-5.154640678331972037e-01,-6.902347844459869042e-02,-2.426609831881278989e-01
2.733333333333333393e+00,1.643937368739430666e+09,5.451287649644957073e-02,-4.739370550915363023e-02,8.544988923374517986e-01,-2.753071499048969972e+00,-5.096160410889940540e-01,-7.311124617245398638e-02,-2.478567112369083891e-01
2.750000000000000000e+00,1.643937368758501291e+09,5.599721746732989891e-02,-6.846297888944566368e-02,8.050400435537253818e-01,-2.688972046218959022e+00,-5.004407791118937743e-01,-7.728653453802812601e-02,-2.531631521713565980e-01
2.766666666666666607e+00,1.643937368776891708e+09,5.746902647923288199e-02,-5.046366435821116742e-02,8.183558874570364683e-01,-2.656922319803954213e+00,-4.880956478224117712e-01,-8.154533946757568097e-02,-2.578803357781527805e-01
2.783333333333333215e+00,1.643937368792700529e+09,5.892006611377723774e-02,-3.389104738804560313e-02,8.297694679455884792e-01,-2.624872593388948072e+00,-4.727753341235884088e-01,-8.587770751665201041e-02,-2.619924074209370457e-01
2.799999999999999822e+00,1.643937368810588598e+09,6.034200226572673104e-02,-5.210692564619930078e-02,7.841151459913798805e-01,-2.560773140558937122e+00,-4.547100040089945838e-01,-9.027806292550567824e-02,-2.660390008396699701e-01
2.816666666666666430e+00,1.643937368828979015e+09,6.172648701248978353e-02,-4.694716095178142964e-03,8.259649411160711052e-01,-2.496673687728925728e+00,-4.341630174031446687e-01,-9.473591608241989370e-02,-2.688954432410611273e-01
2.833333333333333481e+00,1.643937368845142365e+09,6.306524486345219116e-02,6.982474711615481444e-02,9.039577411211779934e-01,-2.432574234898914778e+00,-4.114282175022966892e-01,-9.922754927209273546e-02,-2.700972012244906573e-01
2.850000000000000089e+00,1.643937368862304688e+09,6.435016169962060051e-02,1.077978275023557392e-01,9.439052728311110307e-01,-2.400524508483909969e+00,-3.868268175541093035e-01,-1.037304029556304352e-01,-2.702448307084821533e-01
2.866666666666666696e+00,1.643937368879309416e+09,6.557337567058614536e-02,2.541999225298031129e-01,1.128424824062705500e+00,-2.368474782068903828e+00,-3.607039130256113890e-01,-1.082118675008863357e-01,-2.675384326714897454e-01
2.883333333333333304e+00,1.643937368895620584e+09,6.672736927794375994e-02,3.640556347321181607e-01,1.274899106999125564e+00,-2.368474782068903828e+00,-3.334246519009648746e-01,-1.126296580702973171e-01,-2.626101257215595619e-01
2.899999999999999911e+00,1.643937368915756941e+09,6.780506184249332491e-02,3.677879736526623033e-01,1.269192316754849337e+00,-2.336425055653899019e+00,-3.053701003657208202e-01,-1.169616004695873124e-01,-2.572378854341538790e-01
2.916666666666666519e+00,1.643937368930930138e+09,6.879990152720931451e-02,3.815071955006897886e-01,1.276801370413884085e+00,-2.304375329238892878e+00,-2.769328453168612980e-01,-1.211989248736391050e-01,-2.512576551937049651e-01
2.933333333333333126e+00,1.643937368948079824e+09,6.970595606946475287e-02,3.429863613518261412e-01,1.225440258215398925e+00,-2.304375329238892878e+00,-2.485123789346447287e-01,-1.253387998339039189e-01,-2.455432138598204750e-01
2.950000000000000178e+00,1.643937368962581873e+09,7.051800136465503910e-02,4.542687711152104679e-01,1.373816804566578176e+00,-2.304375329238892878e+00,-2.205103139135836665e-01,-1.293649853456028676e-01,-2.376210540614277500e-01
2.966666666666666785e+00,1.643937368980530024e+09,7.123160703941981697e-02,5.170434638022477492e-01,1.457516394815961291e+00,-2.304375329238892878e+00,-1.933254808297084071e-01,-1.332478038187395186e-01,-2.283429358720820979e-01
2.983333333333333393e+00,1.643937368999739408e+09,7.184321815632019326e-02,5.598443906343183452e-01,1.514584297258722012e+00,-2.304375329238892878e+00,-1.673489614787936064e-01,-1.369677689118494746e-01,-2.180813802930467171e-01
3.000000000000000000e+00,1.643937369020042181e+09,7.235023220320413451e-02,5.912317369778372633e-01,1.556434092383414125e+00,-2.304375329238892878e+00,-1.429591138189092447e-01,-1.405104214359520209e-01,-2.070675173829620297e-01
3.016666666666666607e+00,1.643937369031122446e+09,7.275107053965193527e-02,6.805659295625230421e-01,1.664863107024660005e+00,-2.272325602823888069e+00,-1.205166453603110227e-01,-1.438555921702639184e-01,-1.943881919119465895e-01
3.033333333333333215e+00,1.643937369048077345e+09,7.304524349983185227e-02,6.791392320014538742e-01,1.662960843609901262e+00,-2.272325602823888069e+00,-1.003597924416708559e-01,-1.469886050697491175e-01,-1.816088550197983431e-01
3.049999999999999822e+00,1.643937369065032482e+09,7.323340838572470202e-02,6.614711075059630518e-01,1.628720102144244786e+00,-2.240275876408881928e+00,-8.279966279586291333e-02,-1.499104090257224187e-01,-1.690425269853233492e-01
3.066666666666666430e+00,1.643937369083986521e+09,7.331741962685690839e-02,6.666301439875761403e-01,1.624915575314727301e+00,-2.208226149993877119e+00,-6.811579812958243330e-02,-1.526217691372119267e-01,-1.563559277762006094e-01
3.083333333333333481e+00,1.643937369099050522e+09,7.330037043219377046e-02,5.399852510881760770e-01,1.434689233838856603e+00,-2.144126697163866169e+00,-5.655201211463606326e-02,-1.551393332678674408e-01,-1.457811429959861016e-01
3.100000000000000089e+00,1.643937369117367744e+09,7.318662531640042490e-02,4.592112438699041399e-01,1.337673799686162512e+00,-2.176176423578870978e+00,-4.831255721731580327e-02,-1.574921300886289455e-01,-1.365800347310147933e-01
3.116666666666666696e+00,1.643937369133323431e+09,7.298184294592131860e-02,4.663447316752494243e-01,1.347185116759956225e+00,-2.176176423578870978e+00,-4.355867118592469944e-02,-1.596912040766331198e-01,-1.273345264015218747e-01
3.133333333333333304e+00,1.643937369149233818e+09,7.269298881984234684e-02,4.563578487477661372e-01,1.333869272856645249e+00,-2.176176423578870978e+00,-4.240555079220668239e-02,-1.617386833770584065e-01,-1.183878421351705901e-01
3.149999999999999911e+00,1.643937369168229103e+09,7.232833737580018907e-02,4.078501316714193692e-01,1.269192316754849337e+00,-2.176176423578870978e+00,-4.491979660457011414e-02,-1.636453341725122024e-01,-1.104323524219359698e-01
3.166666666666666519e+00,1.643937369185301781e+09,7.189746319173849487e-02,3.308084633736917413e-01,1.166470092357879462e+00,-2.176176423578870978e+00,-5.111736819068154331e-02,-1.654319893343009218e-01,-1.039841790070970967e-01
3.183333333333333126e+00,1.643937369204250097e+09,7.141122103949747169e-02,2.266595414156527821e-01,1.027604863080493924e+00,-2.176176423578870978e+00,-6.096208424248093088e-02,-1.671278104222666261e-01,-9.952673363291186792e-02
3.200000000000000178e+00,1.643937369219649792e+09,7.088171463538532613e-02,1.909921023889269986e-01,9.800482777115263611e-01,-2.176176423578870978e+00,-7.436469673225447330e-02,-1.687567339985751314e-01,-9.595401996232549857e-02
3.216666666666666785e+00,1.643937369235782385e+09,7.032225402534993119e-02,4.404225359881719370e-02,7.841151459913798805e-01,-2.176176423578870978e+00,-9.118256239488919945e-02,-1.703492254904709624e-01,-9.514720028369752503e-02
3.233333333333333393e+00,1.643937369253885269e+09,6.974730163737241639e-02,1.836169749957440589e-02,7.498744045257228485e-01,-2.176176423578870978e+00,-1.112199286449445657e-01,-1.719346960083064091e-01,-9.510936695161825716e-02
3.250000000000000000e+00,1.643937369273037195e+09,6.917240713050042122e-02,4.261555603774787315e-02,7.822128825766208049e-01,-2.176176423578870978e+00,-1.342288445390887874e-01,-1.735193692440667179e-01,-9.505158185754696010e-02
3.266666666666666607e+00,1.643937369287995338e+09,6.861413126768686754e-02,2.637412910332562893e-02,7.498744045257228485e-01,-2.144126697163866169e+00,-1.599107006506957362e-01,-1.751088778410047064e-01,-9.568768278639848412e-02
3.283333333333333215e+00,1.643937369306943655e+09,6.808995913750603979e-02,-4.638744651119477286e-02,6.528589703730289795e-01,-2.144126697163866169e+00,-1.879183948035864637e-01,-1.767228185633337445e-01,-9.797883941931578855e-02
3.299999999999999822e+00,1.643937369324032307e+09,6.761820314701245949e-02,-7.865373665311946316e-02,6.205204923221310231e-01,-2.176176423578870978e+00,-2.178591135891281005e-01,-1.783832208369599548e-01,-1.012603179830603717e-01
3.316666666666666430e+00,1.643937369340091705e+09,6.721789630365133938e-02,-5.780102699974706826e-02,6.376408630549592615e-01,-2.144126697163866169e+00,-2.492977125402138228e-01,-1.800993233088371837e-01,-1.046625278368491646e-01
3.333333333333333481e+00,1.643937369356736898e+09,6.690867639736100547e-02,-4.155960006532475465e-02,6.699793411058573289e-01,-2.176176423578870978e+00,-2.817606708343362021e-01,-1.818738998893604242e-01,-1.082766224379869413e-01
3.350000000000000089e+00,1.643937369375792027e+09,6.671066178398887825e-02,-2.213358797302130559e-02,6.851974484239269358e-01,-2.144126697163866169e+00,-3.147405895234556272e-01,-1.837100842716951343e-01,-1.120550076805934964e-01
3.366666666666666696e+00,1.643937369390072346e+09,6.664431955702125598e-02,-6.438676104242928300e-02,6.395431264697180040e-01,-2.176176423578870978e+00,-3.477011956186887298e-01,-1.856191084336593355e-01,-1.170141161296479188e-01
3.383333333333333304e+00,1.643937369408272982e+09,6.673032697561190330e-02,-3.870620494318648824e-02,6.737838679353749249e-01,-2.176176423578870978e+00,-3.800828079696187412e-01,-1.876110250018074577e-01,-1.220020164433798654e-01
3.399999999999999911e+00,1.643937369424413443e+09,6.698942709218491665e-02,-2.586592689356524699e-02,6.909042386682032744e-01,-2.176176423578870978e+00,-4.113082148466104537e-01,-1.896879236737382679e-01,-1.272113534671186486e-01
3.416666666666666519e+00,1.643937369444027901e+09,6.744227959173269837e-02,9.112327311409509911e-02,8.468898386784171617e-01,-2.176176423578870978e+00,-4.407889075322745653e-01,-1.918388383944734932e-01,-1.308881993200197436e-01
3.433333333333333126e+00,1.643937369462977409e+09,6.810930791664346340e-02,1.576303047216762454e-01,9.248826386835237168e-01,-2.144126697163866169e+00,-4.679316091243736486e-01,-1.940450890107364712e-01,-1.338536371104683820e-01
3.449999999999999734e+00,1.643937369479933739e+09,6.901054380478746642e-02,1.210839218965445024e-01,8.868373703883496439e-01,-2.176176423578870978e+00,-4.921450332119322035e-01,-1.963087461772744791e-01,-1.377743317991868277e-01
3.466666666666666785e+00,1.643937369496887684e+09,7.016547041410257923e-02,1.025368536026471100e-01,8.621079459964864355e-01,-2.176176423578870978e+00,-5.128468031689862316e-01,-1.986426277961076681e-01,-1.422789493397925986e-01
3.483333333333333393e+00,1.643937369512878418e+09,7.159286524346963887e-02,1.296441072629588298e-01,8.982509508769020989e-01,-2.176176423578870978e+00,-5.294704595702323102e-01,-2.010495161942441600e-01,-1.465358334801106777e-01
3.500000000000000000e+00,1.643937369529798985e+09,7.331064408682969047e-02,1.367775950683036978e-01,9.077622679506953673e-01,-2.176176423578870978e+00,-5.414724807180404387e-01,-2.035274371426789297e-01,-1.508028272925048541e-01
3.516666666666666607e+00,1.643937369544239283e+09,7.533570727483103469e-02,2.204049974087136654e-01,1.008582228932906943e+00,-2.144126697163866169e+00,-5.483392395208974701e-01,-2.060652830769523769e-01,-1.537305520601011388e-01
3.533333333333333215e+00,1.643937369563777685e+09,7.768378946551701691e-02,1.752984292171678171e-01,9.591233801491806377e-01,-2.176176423578870978e+00,-5.495938190130722489e-01,-2.086579234700642882e-01,-1.573761681635876264e-01
3.549999999999999822e+00,1.643937369580329895e+09,8.036931424241598731e-02,2.674860169239915986e-01,1.071356921619944114e+00,-2.144126697163866169e+00,-5.448026086784945043e-01,-2.112974258372772862e-01,-1.593586089922830185e-01
3.566666666666666430e+00,1.643937369595420122e+09,8.340525476473291400e-02,2.908609316637589259e-01,1.113206716744635560e+00,-2.176176423578870978e+00,-5.335816044556526139e-01,-2.139649166636626021e-01,-1.607364627124292511e-01
3.583333333333333481e+00,1.643937369613583803e+09,8.680300169010184141e-02,4.092768292324885371e-01,1.271094580169608301e+00,-2.176176423578870978e+00,-5.156023368617084213e-01,-2.166363424406041738e-01,-1.598371287293080256e-01
3.600000000000000089e+00,1.643937369630520105e+09,9.057223955554885575e-02,4.206904097210404925e-01,1.286312687487677575e+00,-2.176176423578870978e+00,-4.905973540823547752e-01,-2.192878733841551742e-01,-1.583507135251122633e-01
3.616666666666666696e+00,1.643937369643708944e+09,9.472083275708285954e-02,3.901820071759281028e-01,1.234951575289192638e+00,-2.144126697163866169e+00,-4.583651901179854327e-01,-2.219145979585919193e-01,-1.568603753330431450e-01
3.633333333333333304e+00,1.643937369662930965e+09,9.925472221283972163e-02,3.835962731332460129e-01,1.236853838703951602e+00,-2.176176423578870978e+00,-4.187747521373426096e-01,-2.245121307832392554e-01,-1.548491504917974271e-01
3.649999999999999911e+00,1.643937369679938793e+09,1.041778337292969259e-01,3.716349388820306965e-01,1.210222150897329652e+00,-2.144126697163866169e+00,-3.717690660376437584e-01,-2.270715806418810156e-01,-1.522919360857492299e-01
3.666666666666666519e+00,1.643937369697987556e+09,1.094919990150939326e-01,4.158625632751705714e-01,1.269192316754849337e+00,-2.144126697163866169e+00,-3.173683248077264207e-01,-2.295751408650791303e-01,-1.481468052214270359e-01
3.683333333333333126e+00,1.643937369715913534e+09,1.151968902029458092e-01,5.046490020971938772e-01,1.366207750907543428e+00,-2.080027244333855219e+00,-2.556721905911187309e-01,-2.319894033733405914e-01,-1.415829291880643104e-01
3.699999999999999734e+00,1.643937369732914686e+09,1.212899686475502198e-01,5.568890580940850654e-01,1.425177916765063113e+00,-2.047977517918849077e+00,-1.868613082946051218e-01,-2.342784549375475922e-01,-1.331267484605326568e-01
3.716666666666666785e+00,1.643937369746652365e+09,1.277664486669418120e-01,5.221005628657653386e-01,1.368110014322301726e+00,-2.015927791503844269e+00,-1.111979961215396051e-01,-2.364220924780854327e-01,-1.241347348075910600e-01
3.733333333333333393e+00,1.643937369764989376e+09,1.346192767870908469e-01,5.743406188626570819e-01,1.427080180179822078e+00,-1.983878065088837905e+00,-2.902608645821120464e-02,-2.383985400580553859e-01,-1.130697116875470087e-01
3.750000000000000000e+00,1.643937369780630112e+09,1.418391269355614437e-01,5.030057408092056814e-01,1.331967009441886951e+00,-1.983878065088837905e+00,5.923010097131812396e-02,-2.401897617128448126e-01,-1.019078926697488535e-01
3.766666666666666607e+00,1.643937369798448324e+09,1.494144119104662272e-01,4.288174676336157787e-01,1.233049311874433673e+00,-1.983878065088837905e+00,1.530676629238200137e-01,-2.417937807571128028e-01,-9.060578811619027229e-02
3.783333333333333215e+00,1.643937369812949896e+09,1.573313113268217656e-01,3.055737236190166906e-01,1.058041077716633138e+00,-1.951828338673833096e+00,2.519078935607909076e-01,-2.432143630699195314e-01,-7.989384551705340509e-02
3.799999999999999822e+00,1.643937369831501961e+09,1.655738161145825227e-01,4.123594769722742082e-01,1.168372355772637761e+00,-1.855679159428816005e+00,3.550999333244379552e-01,-2.444288903073725538e-01,-6.588832810798850304e-02
3.816666666666666430e+00,1.643937369848486185e+09,1.741237895121789114e-01,4.166395696554815453e-01,1.174079146016913988e+00,-1.855679159428816005e+00,4.619252672481707345e-01,-2.453965807667660426e-01,-5.027789036686748647e-02
3.833333333333333481e+00,1.643937369865467072e+09,1.829610443673401754e-01,3.830612082613119029e-01,1.086575028938013832e+00,-1.727480253768793883e+00,5.716030448385533980e-01,-2.460957424959210327e-01,-3.366765775271474831e-02
3.850000000000000089e+00,1.643937369883419991e+09,1.920634364244180048e-01,4.176331397627117137e-01,1.111304453329877040e+00,-1.663380800938784265e+00,6.832961844387395178e-01,-2.465001590238542206e-01,-1.491441915475737179e-02
3.866666666666666696e+00,1.643937369903512478e+09,2.014069731454352363e-01,3.890991885413310758e-01,1.073259185034702856e+00,-1.663380800938784265e+00,7.961182159750674892e-01,-2.465829698701168526e-01,4.922015100111889335e-03
3.883333333333333304e+00,1.643937369919706106e+09,2.109659374817827449e-01,2.706832909726017422e-01,9.153713216097303373e-01,-1.663380800938784265e+00,9.091408072978971466e-01,-2.463386582231452127e-01,2.434143842431521487e-02
3.899999999999999911e+00,1.643937369937888384e+09,2.207130258859847927e-01,3.439926203497852275e-01,1.023800336250976661e+00,-1.695430527353789074e+00,1.021401911052685962e+00,-2.457477406603909564e-01,4.650709638493547016e-02
3.916666666666666519e+00,1.643937369953957558e+09,2.306194997293261051e-01,2.069150281783346257e-01,8.944464240473847250e-01,-1.855679159428816005e+00,1.131914461252377491e+00,-2.447941261735495644e-01,6.786730672193927449e-02
3.933333333333333126e+00,1.643937369971360445e+09,2.406553491725107186e-01,1.449046529808793449e-01,8.544988923374517986e-01,-1.983878065088837905e+00,1.239675541558209693e+00,-2.434811393537834601e-01,8.963065647782467171e-02
3.949999999999999734e+00,1.643937369989632607e+09,2.507894684238991534e-01,9.507217576155861660e-02,8.735215264850387795e-01,-2.240275876408881928e+00,1.343675940799140767e+00,-2.418009543023956487e-01,1.119296067024485170e-01
3.966666666666666785e+00,1.643937370006775856e+09,2.609898412143448199e-01,7.234695220254946935e-02,9.286871655130413128e-01,-2.496673687728925728e+00,1.442910005550256836e+00,-2.397416325834078321e-01,1.351245676126741624e-01
3.983333333333333393e+00,1.643937370023092270e+09,2.712237352200952412e-01,-1.260521028083392246e-02,9.115667947802129634e-01,-2.785121225463974781e+00,1.536385694721059236e+00,-2.372977546083984146e-01,1.580770310450018146e-01
4.000000000000000000e+00,1.643937370043399096e+09,2.814579040766844731e-01,-1.289447191077364718e-01,8.525966289226930561e-01,-3.073568763199024723e+00,1.623134737140746076e+00,-2.344785928318703638e-01,1.801610362356906025e-01
4.016666666666666607e+00,1.643937370059472084e+09,2.916587955479446603e-01,-1.773504987659881016e-01,8.735215264850387795e-01,-3.329966574519068967e+00,1.702222790127017715e+00,-2.312901767050787594e-01,2.023871582982494921e-01
4.033333333333333215e+00,1.643937370074492455e+09,3.017927643461127962e-01,-2.222405032306149220e-01,8.564011557522104301e-01,-3.458165480179090867e+00,1.772759495034466282e+00,-2.277308527585851783e-01,2.246698175484867777e-01
4.049999999999999822e+00,1.643937370089588642e+09,3.118262880421250327e-01,-1.906365931601767261e-01,9.305894289277999443e-01,-3.554314659424106626e+00,1.833908324837111747e+00,-2.237904177952228235e-01,2.481172447797400094e-01
4.066666666666666430e+00,1.643937370106122017e+09,3.217261844602471443e-01,-1.775797513836362140e-01,9.800482777115263611e-01,-3.650463838669123717e+00,1.884896118933518272e+00,-2.194535850712918124e-01,2.722356848483070690e-01
4.083333333333333037e+00,1.643937370126184702e+09,3.314598289186977409e-01,-1.768154338940536863e-01,1.023800336250976661e+00,-3.778662744329144729e+00,1.925022201589450477e+00,-2.147124617947234748e-01,2.966313410333286660e-01
4.099999999999999645e+00,1.643937370143145561e+09,3.409953696583209459e-01,-2.511183333784674510e-01,9.781460142967676186e-01,-3.938911376404172771e+00,1.953666982756713688e+00,-2.095744201106938265e-01,3.198691101722697661e-01
4.116666666666666252e+00,1.643937370159097672e+09,3.503019397949745928e-01,-3.111542572521907579e-01,9.515143264901456677e-01,-4.099160008479199924e+00,1.970299943422227473e+00,-2.040582867255520960e-01,3.420054048899619503e-01
4.133333333333332860e+00,1.643937370176027060e+09,3.593498641383665038e-01,-2.889894763465729044e-01,1.023800336250976661e+00,-4.227358914139221824e+00,1.974486912129963745e+00,-1.981726328543819138e-01,3.642113749485149654e-01
4.150000000000000355e+00,1.643937370194999695e+09,3.681108592406954760e-01,-3.087466784746202841e-01,1.029507126495252445e+00,-4.323508093384238471e+00,1.965896544851334804e+00,-1.919238619623315489e-01,3.855817684960765046e-01
4.166666666666666963e+00,1.643937370209961414e+09,3.765582250726084435e-01,-3.775593514416768492e-01,9.591233801491806377e-01,-4.387607546214249865e+00,1.944305926915957716e+00,-1.853343560815565727e-01,4.051047055398728780e-01
4.183333333333333570e+00,1.643937370226174355e+09,3.846670267716441605e-01,-3.978643073323869794e-01,9.534165899049042991e-01,-4.451706999044260371e+00,1.909605223202641255e+00,-1.784297618436749278e-01,4.233957932331621210e-01
4.200000000000000178e+00,1.643937370244126081e+09,3.924142649691491069e-01,-4.030233438140001789e-01,9.572211167344215621e-01,-4.483756725459265624e+00,1.861801311167190054e+00,-1.712301577872735459e-01,4.405091552993138926e-01
4.216666666666666785e+00,1.643937370261081696e+09,3.997790332754005416e-01,-3.791006753115699346e-01,1.010484492347665686e+00,-4.547856178289276130e+00,1.801020340476428894e+00,-1.637527856229667733e-01,4.567304442210881055e-01
4.233333333333333393e+00,1.643937370277037621e+09,4.067426615888187214e-01,-4.142203605756329954e-01,9.743414874672502446e-01,-4.579905904704282271e+00,1.727509172944188709e+00,-1.560223032834088253e-01,4.708881087543393962e-01
4.250000000000000000e+00,1.643937370293991566e+09,4.132888439931851621e-01,-5.278084116984923524e-01,8.335739947751060752e-01,-4.611955631119287524e+00,1.641635667033015666e+00,-1.480853650617693917e-01,4.815149581216087160e-01
4.266666666666666607e+00,1.643937370311352015e+09,4.194037501160048365e-01,-5.877297092633914088e-01,7.536789313552405556e-01,-4.611955631119287524e+00,1.543887782296391897e+00,-1.399945578158777737e-01,4.893601187596004487e-01
4.283333333333333215e+00,1.643937370329429865e+09,4.250761189408030494e-01,-5.377952946259754174e-01,8.202581508717952108e-01,-4.611955631119287524e+00,1.434871490682361639e+00,-1.317822418885162827e-01,4.960990727665120503e-01
4.299999999999999822e+00,1.643937370345930099e+09,4.302973341953737485e-01,-5.782905800985713718e-01,7.555811947699991871e-01,-4.579905904704282271e+00,1.315307493489373147e+00,-1.234806483167163321e-01,5.000810944178921691e-01
4.316666666666666430e+00,1.643937370363157988e+09,4.350614805758175607e-01,-5.962898946298058611e-01,7.422653508666881006e-01,-4.611955631119287524e+00,1.186026754839403896e+00,-1.151335801106446732e-01,5.015629738819804562e-01
4.333333333333333037e+00,1.643937370381865978e+09,4.393653802115901064e-01,-5.340629557054316079e-01,8.145513606275187612e-01,-4.579905904704282271e+00,1.047964874691795334e+00,-1.067724929513570731e-01,5.017669187057989255e-01
4.349999999999999645e+00,1.643937370397824526e+09,4.432086089286225716e-01,-5.506355726755968183e-01,8.031377801389668614e-01,-4.611955631119287524e+00,9.021553365383572221e-01,-9.843046318492301716e-02,4.992835516704108856e-01
4.366666666666666252e+00,1.643937370415898561e+09,4.465934920246694140e-01,-5.714882823289696434e-01,7.860174094061384009e-01,-4.644005357534293665e+00,7.497216768708461210e-01,-9.015341426498020561e-02,4.939770593261660347e-01
4.383333333333332860e+00,1.643937370431939363e+09,4.495250794321630217e-01,-4.625115139250602359e-01,9.420030094163523993e-01,-4.676055083949298918e+00,5.918686351702615589e-01,-8.197082476399336626e-02,4.879504218459325693e-01
4.400000000000000355e+00,1.643937370449869871e+09,4.520111003076995315e-01,-4.396843529479561030e-01,9.724392240524913911e-01,-4.676055083949298918e+00,4.298723544083668524e-01,-7.390706892710058318e-02,4.797231327000466283e-01
4.416666666666666963e+00,1.643937370463846922e+09,4.540618972525310437e-01,-5.147515699219518126e-01,8.830328435588324920e-01,-4.708104810364305060e+00,2.650697127542376297e-01,-6.601242916325242294e-02,4.676671286500698743e-01
4.433333333333333570e+00,1.643937370484209776e+09,4.556903405337401347e-01,-4.776574333341571665e-01,9.324916923425586868e-01,-4.708104810364305060e+00,9.884687722347164363e-02,-5.833489293927172914e-02,4.536760831575777364e-01
4.450000000000000178e+00,1.643937370502160311e+09,4.569117228397534536e-01,-4.391365991852933526e-01,9.838528045410436240e-01,-4.708104810364305060e+00,-6.737282071765043900e-02,-5.090624618743305740e-02,4.378056127406900200e-01
4.466666666666666785e+00,1.643937370518540382e+09,4.577436352651086948e-01,-4.157616844455259142e-01,1.025702599665735182e+00,-4.740154536779309424e+00,-2.321415791825265362e-01,-4.375944462682972852e-02,4.198604234529524915e-01
4.483333333333333393e+00,1.643937370533448935e+09,4.582058253766095324e-01,-3.544136893195580784e-01,1.107499926500359111e+00,-4.740154536779309424e+00,-3.940002736969736019e-01,-3.692313354380828694e-02,4.005505463196555316e-01
4.500000000000000000e+00,1.643937370554707766e+09,4.583200383647844656e-01,-2.493858235631123965e-01,1.236853838703951602e+00,-4.708104810364305060e+00,-5.514919366459135608e-01,-3.041323298232322114e-02,3.806926830880200119e-01
4.516666666666666607e+00,1.643937370570665121e+09,4.581098424296041749e-01,-2.759453234607614491e-01,1.212124414312087950e+00,-4.740154536779309424e+00,-7.031754409367910741e-01,-2.425617304273066863e-02,3.582169437418015745e-01
4.533333333333333215e+00,1.643937370585602045e+09,4.576004396864543078e-01,-2.665061942959409125e-01,1.214026677726847137e+00,-4.708104810364305060e+00,-8.476392564893269199e-01,-1.848925407563247608e-02,3.338809339282822197e-01
4.549999999999999822e+00,1.643937370604559660e+09,4.568184640061277446e-01,-2.208518723417320362e-01,1.274899106999125564e+00,-4.708104810364305060e+00,-9.835151454433272988e-01,-1.313703541812650220e-02,3.084559316410252494e-01
4.566666666666666430e+00,1.643937370621514559e+09,4.557917673200038711e-01,-2.522392186852508988e-01,1.233049311874433673e+00,-4.708104810364305060e+00,-1.109491660578213912e+00,-8.226790259806649602e-03,2.808501718283143433e-01
4.583333333333333037e+00,1.643937370637437582e+09,4.545491960274517518e-01,-3.130394600485558176e-01,1.162665565528361977e+00,-4.740154536779309424e+00,-1.224327311393085704e+00,-3.797087094110401101e-03,2.507976891385907403e-01
4.599999999999999645e+00,1.643937370655389547e+09,4.531203592359128174e-01,-4.014947088348356785e-01,1.044725233813322163e+00,-4.740154536779309424e+00,-1.326863263623394573e+00,1.095124240113615893e-04,2.180851234128318161e-01
4.616666666666666252e+00,1.643937370673344851e+09,4.515353906440917608e-01,-4.163094382081889422e-01,1.014289019177182949e+00,-4.708104810364305060e+00,-1.416035440675278201e+00,3.461058065869221465e-03,1.841944964562494957e-01
4.633333333333332860e+00,1.643937370689301014e+09,4.498247059445006912e-01,-3.563881406432895527e-01,1.094184082597048802e+00,-4.708104810364305060e+00,-1.490885899531732006e+00,6.250378892216254881e-03,1.506172749603187644e-01
4.650000000000000355e+00,1.643937370706255674e+09,4.480187576724702914e-01,-4.277230186967412306e-01,9.990709118591133420e-01,-4.708104810364305060e+00,-1.550573359103945004e+00,8.466620192235631281e-03,1.154294273636213009e-01
4.666666666666666963e+00,1.643937370724688292e+09,4.461477894641535658e-01,-4.000680112737666771e-01,1.046627497228080905e+00,-4.740154536779309424e+00,-1.594382765728130424e+00,1.009902627503291017e-02,8.055617499745906795e-02
4.683333333333333570e+00,1.643937370743206024e+09,4.442415917055386188e-01,-4.462700869906384704e-01,9.743414874672502446e-01,-4.708104810364305060e+00,-1.621733788492290218e+00,1.114486900541530358e-02,4.504360100902786435e-02
4.700000000000000178e+00,1.643937370758687496e+09,4.423292605576869541e-01,-4.771096795714941385e-01,9.439052728311110307e-01,-4.740154536779309424e+00,-1.632188146253578998e+00,1.159803697607046311e-02,9.435469274621494096e-03
4.716666666666666785e+00,1.643937370777896881e+09,4.404389623302022994e-01,-4.405632967463624095e-01,9.819505411262848815e-01,-4.708104810364305060e+00,-1.625455678497151668e+00,1.146863199384532891e-02,-2.486877533054526745e-02
4.733333333333333393e+00,1.643937370793873787e+09,4.385977051451908637e-01,-2.650794967348721887e-01,1.215928941141605435e+00,-4.708104810364305060e+00,-1.601399083501380494e+00,1.079978833983908856e-02,-5.530790801380990052e-02
4.750000000000000000e+00,1.643937370810218096e+09,4.368311197878380625e-01,-1.523703894104185275e-01,1.366207750907543428e+00,-4.708104810364305060e+00,-1.560037259509761798e+00,9.649110429883233850e-03,-8.269735758585705643e-02
4.766666666666666607e+00,1.643937370826175690e+09,4.351632515773682930e-01,-1.937446186814206772e-01,1.311042111879540562e+00,-4.708104810364305060e+00,-1.501547197653760213e+00,8.048088785504978887e-03,-1.093511995470651532e-01
4.783333333333333215e+00,1.643937370843215227e+09,4.336163650139769343e-01,-8.959569672338171809e-02,1.449907341156926099e+00,-4.708104810364305060e+00,-1.426264389100840857e+00,6.031301083873874189e-03,-1.325987466091710920e-01
4.799999999999999822e+00,1.643937370860324144e+09,4.322107628638043320e-01,1.445992670188589457e-01,1.794217019228252052e+00,-4.804253989609320818e+00,-1.334681723186348812e+00,3.675261796102919677e-03,-1.500774149241916322e-01
4.816666666666666430e+00,1.643937370876588106e+09,4.309646212358075879e-01,1.947502453831943814e-01,1.893134716795704664e+00,-4.900403168854336577e+00,-1.227446867988559509e+00,1.052063741999909215e-03,-1.646658272468446982e-01
4.833333333333333037e+00,1.643937370893591642e+09,4.298938420822007167e-01,1.678595554498020781e-01,1.889330189966187401e+00,-4.996552348099353225e+00,-1.105358139778129134e+00,-1.799110758143545805e-03,-1.774396291521733726e-01
4.849999999999999645e+00,1.643937370909852266e+09,4.290119244189403158e-01,1.666494216156527153e-01,1.919766404602326615e+00,-5.092701527344368984e+00,-9.693588828674690738e-01,-4.842800491881005948e-03,-1.877744304392995334e-01
4.866666666666666252e+00,1.643937370930047989e+09,4.283298554154660875e-01,1.640125902204337127e-01,1.948300355823707086e+00,-5.188850706589386519e+00,-8.205303964498722458e-01,-8.037117401489574098e-03,-1.955220769668482850e-01
4.883333333333332860e+00,1.643937370943928719e+09,4.278560223447166466e-01,1.522678196961380070e-01,1.954007146067983314e+00,-5.252950159419397913e+00,-6.600834598987335156e-01,-1.133895282704999036e-02,-2.006838355446644573e-01
4.900000000000000355e+00,1.643937370959080219e+09,4.275961462165786542e-01,1.842029198023193148e-01,2.007270521681226771e+00,-5.284999885834402278e+00,-4.893485225401437710e-01,-1.469811173086919658e-02,-2.024104366864756532e-01
4.916666666666666963e+00,1.643937370978119850e+09,4.275532377416376706e-01,4.778770770235551274e-02,1.836066814352943499e+00,-5.317049612249408419e+00,-3.097646379655883409e-01,-1.807984636279191121e-02,-2.033949842256068119e-01
4.933333333333333570e+00,1.643937370994157314e+09,4.277275760888974432e-01,-5.438676293195154193e-02,1.710517428978868937e+00,-5.349099338664413672e+00,-1.228672363660729128e-01,-2.146615216067022935e-02,-2.029629117493622348e-01
4.950000000000000178e+00,1.643937371012592554e+09,4.281167107123504678e-01,-1.927764263556472624e-01,1.525997877747274689e+00,-5.349099338664413672e+00,6.972515899901286784e-02,-2.483782992029580014e-02,-2.016420884456805729e-01
4.966666666666666785e+00,1.643937371028706789e+09,4.287154863286358752e-01,-1.756560556228193293e-01,1.548825038724378711e+00,-5.349099338664413672e+00,2.663251533736190613e-01,-2.815815722749815536e-02,-1.968106095092982122e-01
4.983333333333333393e+00,1.643937371047656298e+09,4.295160909328927246e-01,-2.398574458709254731e-01,1.463223185060237075e+00,-5.349099338664413672e+00,4.651915116317414944e-01,-3.138002721946678286e-02,-1.898331717546493103e-01
5.000000000000000000e+00,1.643937371065555096e+09,4.305081265441378924e-01,-3.211792068518602994e-01,1.354794170418990751e+00,-5.349099338664413672e+00,6.645448609842776744e-01,-3.447026772749522960e-02,-1.810201703444139221e-01
5.016666666666666607e+00,1.643937371079540968e+09,4.288151697651181316e-01,-3.845016533015604421e-01,1.259680999681055624e+00,-5.317049612249408419e+00,8.625839190828560321e-01,-3.739623500921798044e-02,-1.701261652996695628e-01
5.033333333333333215e+00,1.643937371096510410e+09,4.272962737452354887e-01,-4.495819873480725315e-01,1.183590463090707701e+00,-5.349099338664413672e+00,1.050487174598793150e+00,-4.012517586240911538e-02,-1.573821379922997477e-01
5.049999999999999822e+00,1.643937371114808083e+09,4.259309402905674391e-01,-3.859283508626291659e-01,1.257778736266297326e+00,-5.317049612249408419e+00,1.231035778197422159e+00,-4.260974713663771840e-02,-1.408124429291579272e-01
5.066666666666666430e+00,1.643937371130780697e+09,4.246971531167901825e-01,-3.174468679313156572e-01,1.349087380174715189e+00,-5.317049612249408419e+00,1.402630943170291689e+00,-4.478728593463068841e-02,-1.205485028771820233e-01
5.083333333333333037e+00,1.643937371145961046e+09,4.235715993846639327e-01,-3.251281094993239695e-01,1.328162482612369022e+00,-5.284999885834402278e+00,1.563760787644168593e+00,-4.660869686633536957e-02,-9.808321397639660488e-02
5.099999999999999645e+00,1.643937371162916660e+09,4.225298993217999621e-01,-3.413695364337459015e-01,1.295824004561471288e+00,-5.252950159419397913e+00,1.713013773883435675e+00,-4.804041761033268215e-02,-7.379075594157114004e-02
5.116666666666666252e+00,1.643937371181573153e+09,4.215468419717107174e-01,-3.638655073751069224e-01,1.244462892362986350e+00,-5.188850706589386519e+00,1.849091169071646945e+00,-4.905493141718374195e-02,-4.802248110644441459e-02
5.133333333333332860e+00,1.643937371197852612e+09,4.205966250718596311e-01,-4.015073977255643189e-01,1.183590463090707701e+00,-5.156800980174380378e+00,1.970818412137190334e+00,-4.963191919288736931e-02,-2.129030975721368790e-02
5.150000000000000355e+00,1.643937371212409735e+09,4.196530970394515281e-01,-3.760434053532415999e-01,1.185492726505465999e+00,-5.060651800929364619e+00,2.077155281901275075e+00,-4.974885863943937642e-02,7.178494298472205826e-03
5.166666666666666963e+00,1.643937371230407715e+09,4.186899990370482327e-01,-3.409237200891783170e-01,1.221635731385881662e+00,-5.028602074514358478e+00,2.167204773540089224e+00,-4.937796171464826217e-02,3.724561493119626920e-02
5.183333333333333570e+00,1.643937371246912479e+09,4.176812050999479942e-01,-3.394970225281089826e-01,1.223537994800640849e+00,-5.028602074514358478e+00,2.240220602949133610e+00,-4.849981695937970877e-02,6.804619651627813459e-02
5.200000000000000178e+00,1.643937371263942957e+09,4.166009583333591948e-01,-2.644298055541135506e-01,1.312944375294299748e+00,-4.996552348099353225e+00,2.295613271954640489e+00,-4.709456418484304907e-02,1.004940015150835864e-01
5.216666666666666785e+00,1.643937371280776739e+09,4.154241012296070457e-01,-2.562355909292307263e-02,1.642035946047555539e+00,-5.028602074514358478e+00,2.332954641302354304e+00,-4.511485472085802195e-02,1.369698100879224167e-01
5.233333333333333393e+00,1.643937371300260544e+09,4.141262982134922832e-01,-5.360975655164085946e-02,1.615404258240933588e+00,-5.060651800929364619e+00,2.351980972831057670e+00,-4.253349071202577186e-02,1.726946330170804345e-01
5.250000000000000000e+00,1.643937371316210032e+09,4.126842485969762775e-01,-2.771263672547857881e-02,1.681983477757488687e+00,-5.156800980174380378e+00,2.352594417065409615e+00,-3.935798566574014168e-02,2.082671576431269767e-01
5.266666666666666607e+00,1.643937371332167625e+09,4.110758882120790214e-01,-5.460332665887148579e-02,1.678178950927970536e+00,-5.252950159419397913e+00,2.334862937494313062e+00,-3.560068174018855836e-02,2.425141805648327598e-01
5.283333333333333215e+00,1.643937371348267555e+09,4.092805780923073899e-01,-2.980171435803498359e-02,1.721931009467420726e+00,-5.284999885834402278e+00,2.299018677890420026e+00,-3.127884953112489153e-02,2.760126310813088568e-01
5.299999999999999822e+00,1.643937371364367008e+09,4.072792786875200632e-01,-4.439988000446856709e-02,1.723833272882179690e+00,-5.349099338664413672e+00,2.245454794025873113e+00,-2.641275121244274562e-02,3.078307813296501383e-01
5.316666666666666430e+00,1.643937371382318258e+09,4.050547082236157781e-01,-6.130368701037714613e-02,1.733344589955973625e+00,-5.445248517909429431e+00,2.174720785902751974e+00,-2.103284970716458660e-02,3.376744981392448830e-01
5.333333333333333037e+00,1.643937371398655176e+09,4.025914839560653102e-01,4.141853738659264511e-02,1.870307555818599976e+00,-5.445248517909429431e+00,2.087516380999362209e+00,-1.515753162181201347e-02,3.672814286936582073e-01
5.349999999999999645e+00,1.643937371416801691e+09,3.998762452137279433e-01,8.388827418291996962e-02,1.948300355823707086e+00,-5.509347970739441713e+00,1.984684032896145034e+00,-8.801191331899979597e-03,3.954012935217305902e-01
5.366666666666666252e+00,1.643937371433255672e+09,3.968977572855196811e-01,1.309692936981975697e-01,2.011075048510743812e+00,-5.509347970739441713e+00,1.867200112851941096e+00,-1.989794641697868044e-03,4.218927202740307969e-01
5.383333333333332860e+00,1.643937371450647116e+09,3.936469953660409193e-01,9.156951575092764362e-02,1.969225253386052366e+00,-5.541397697154446078e+00,1.736164884324614910e+00,5.235926250491330924e-03,4.451292393831006167e-01
5.400000000000000355e+00,1.643937371467592955e+09,3.901172079458282704e-01,6.072992317007212121e-02,1.938789038749913152e+00,-5.573447423569451331e+00,1.592791361949325246e+00,1.282165061918625823e-02,4.651022030997289947e-01
5.416666666666666963e+00,1.643937371485119581e+09,3.863039592061865424e-01,-1.095948403598051846e-01,1.701006111905075002e+00,-5.541397697154446078e+00,1.438393166991050132e+00,2.069264814372339875e-02,4.793778443523792898e-01
5.433333333333333570e+00,1.643937371500119686e+09,3.822051501560471132e-01,-2.585191404736469356e-01,1.491757136281617990e+00,-5.509347970739441713e+00,1.274371500674492008e+00,2.875637701074403724e-02,4.882449881553727611e-01
5.450000000000000178e+00,1.643937371518047333e+09,3.778210184276614148e-01,-3.478533330583327698e-01,1.383328121640371666e+00,-5.541397697154446078e+00,1.102201364973139697e+00,3.693054776518205767e-02,4.926432845995148413e-01
5.466666666666666785e+00,1.643937371533008814e+09,3.731541168276297782e-01,-4.083223843858949098e-01,1.292019477731954025e+00,-5.509347970739441713e+00,9.234171673327677965e-01,4.514437018732836426e-02,4.930143752264830592e-01
5.483333333333333393e+00,1.643937371551957607e+09,3.682092709183487633e-01,-4.591357428217169856e-01,1.234951575289192638e+00,-5.541397697154446078e+00,7.395978513465572002e-01,5.333191861596879579e-02,4.895011952732566396e-01
5.500000000000000000e+00,1.643937371568326235e+09,3.629935160810192629e-01,-5.547244794133423529e-01,1.107499926500359111e+00,-5.541397697154446078e+00,5.523516995371027249e-01,6.142233399164448437e-02,4.813712335663102859e-01
5.516666666666666607e+00,1.643937371587876797e+09,3.575160146834377994e-01,-5.524188380538670451e-01,1.099890872841324585e+00,-5.509347970739441713e+00,3.633009570973546043e-01,6.935257959336367517e-02,4.702890232819825767e-01
5.533333333333333215e+00,1.643937371602029085e+09,3.517879541424430156e-01,-4.734027184324076098e-01,1.215928941141605435e+00,-5.541397697154446078e+00,1.740664266730228560e-01,7.708442894886234631e-02,4.575682357304941550e-01
5.549999999999999822e+00,1.643937371621346474e+09,3.458224268309393334e-01,-5.918186160011366104e-01,1.058041077716633138e+00,-5.541397697154446078e+00,-1.374781597651886234e-02,8.456372552025982758e-02,4.399961652928024436e-01
5.566666666666666430e+00,1.643937371641826153e+09,3.396342929312707315e-01,-6.160724745393101331e-01,1.025702599665735182e+00,-5.541397697154446078e+00,-1.985694373169942795e-01,9.172370370456243982e-02,4.192588219108947523e-01
5.583333333333333037e+00,1.643937371654700994e+09,3.332400274795259687e-01,-6.174991721003790790e-01,1.023800336250976661e+00,-5.541397697154446078e+00,-3.788724474236763173e-01,9.851582315348088315e-02,3.958605088032420838e-01
5.599999999999999645e+00,1.643937371673415899e+09,3.266575529775542774e-01,-5.909396722027306925e-01,1.048529760642839426e+00,-5.509347970739441713e+00,-5.531912470414610539e-01,1.049007939157483166e-01,3.704066893869047972e-01
5.616666666666666252e+00,1.643937371689759731e+09,3.199060590703565743e-01,-5.689914550240321445e-01,1.088477292352772574e+00,-5.541397697154446078e+00,-7.201339859058341064e-01,1.108450233329653228e-01,3.429770359541900460e-01
5.633333333333332860e+00,1.643937371708658218e+09,3.130058108948255424e-01,-6.032321964896889543e-01,1.042822970398563642e+00,-5.541397697154446078e+00,-8.783951051729337323e-01,1.163092920039985184e-01,3.128189789221131334e-01
5.650000000000000355e+00,1.643937371726530313e+09,3.059779478008421982e-01,-4.248950013560605643e-01,1.280605897243401348e+00,-5.541397697154446078e+00,-1.026766945305340073e+00,1.212792306668336595e-01,2.836546744815879872e-01
5.666666666666666963e+00,1.643937371743398905e+09,2.988442742266854135e-01,-4.166660060253895570e-01,1.312944375294299748e+00,-5.605497149984457472e+00,-1.164150310407543021e+00,1.257492869112777079e-01,2.528376796299284246e-01
5.683333333333333570e+00,1.643937371760853052e+09,2.916270445767699115e-01,-3.451145642450189621e-01,1.440396024083132387e+00,-5.701646329229473231e+00,-1.289563890703059101e+00,1.297025435681190830e-01,2.216397820572857391e-01
5.700000000000000178e+00,1.643937371779133558e+09,2.843487440006866596e-01,-3.582860323303833638e-01,1.444200550912650538e+00,-5.765745782059485514e+00,-1.402152456488151122e+00,1.331227742959671945e-01,1.888789098491287233e-01
5.716666666666666785e+00,1.643937371791366816e+09,2.770318670075574974e-01,-3.566427710423950015e-01,1.478441292378307015e+00,-5.861894961304501273e+00,-1.501193749366193320e+00,1.359880627703067835e-01,1.550496793679793373e-01
5.733333333333333393e+00,1.643937371810797453e+09,2.696986958689004954e-01,-4.026282830323474338e-01,1.438493760668374088e+00,-5.925994414134512667e+00,-1.586104009738535270e+00,1.382761238574291562e-01,1.196160800680089176e-01
5.750000000000000000e+00,1.643937371826601982e+09,2.623710807661341349e-01,-3.735465780483043230e-01,1.487952609452100061e+00,-5.958044140549517032e+00,-1.656442093270303006e+00,1.399728207110436107e-01,8.408623869241768634e-02
5.766666666666666607e+00,1.643937371845135689e+09,2.550702236256462418e-01,-3.487449657474681608e-01,1.531704667991550251e+00,-5.990093866964523173e+00,-1.711912143224945781e+00,1.410780250012392822e-01,4.863674925268177129e-02
5.783333333333333215e+00,1.643937371860739470e+09,2.478164675550254270e-01,-3.758522194077791867e-01,1.495561663111135475e+00,-5.990093866964523173e+00,-1.752364800029889036e+00,1.415879693600651523e-01,1.265652123656144101e-02
5.799999999999999822e+00,1.643937371879508734e+09,2.406290937488902160e-01,-4.086662633123669397e-01,1.451809604571685286e+00,-5.990093866964523173e+00,-1.777796944051538208e+00,1.414951678664628232e-01,-2.369173072590130547e-02
5.816666666666666430e+00,1.643937371899507523e+09,2.335261276720742296e-01,-4.414803072169546372e-01,1.408057546032234875e+00,-5.990093866964523173e+00,-1.788349982177366737e+00,1.407955927291749398e-01,-6.015599374518543208e-02
5.833333333333333037e+00,1.643937371913657427e+09,2.265241562522674335e-01,-3.992271341475466806e-01,1.453711867986443584e+00,-5.958044140549517032e+00,-1.784306703279819217e+00,1.394997108261480934e-01,-9.525234246594800613e-02
5.849999999999999645e+00,1.643937371933617115e+09,2.196381577241061089e-01,-5.299355560032347201e-01,1.290117214317194838e+00,-5.990093866964523173e+00,-1.766086741828259976e+00,1.376082003406930709e-01,-1.316278702776845499e-01
5.866666666666666252e+00,1.643937371947951317e+09,2.128813456629649048e-01,-6.431924170903502436e-01,1.128424824062705500e+00,-5.958044140549517032e+00,-1.734240702679869628e+00,1.351042107610796184e-01,-1.687477660275747693e-01
5.883333333333332860e+00,1.643937371964931726e+09,2.062650286300679592e-01,-7.111261462590011684e-01,1.048529760642839426e+00,-5.990093866964523173e+00,-1.689443013283594697e+00,1.319834877094664960e-01,-2.056365289683382280e-01
5.900000000000000355e+00,1.643937371982416391e+09,1.997984867220022331e-01,-7.444879439262513943e-01,9.933641216148372255e-01,-5.958044140549517032e+00,-1.632483582040404446e+00,1.282563063534418457e-01,-2.415255397117578307e-01
5.916666666666666963e+00,1.643937371996450901e+09,1.934888661783677744e-01,-6.240975950337905864e-01,1.164567828943120276e+00,-5.990093866964523173e+00,-1.564258353256784861e+00,1.239619835041340101e-01,-2.737038160006262655e-01
5.933333333333333570e+00,1.643937372016777515e+09,1.873410930520282291e-01,-5.884301560070649417e-01,1.212124414312087950e+00,-5.990093866964523173e+00,-1.485758859890487615e+00,1.191515693232568923e-01,-3.034632187513750523e-01
5.950000000000000178e+00,1.643937372033062696e+09,1.813578067888352296e-01,-4.734154073231362503e-01,1.354794170418990751e+00,-5.958044140549517032e+00,-1.398060885011873644e+00,1.138772742626172479e-01,-3.293801952296522284e-01
5.966666666666666785e+00,1.643937372053064108e+09,1.755393143985745918e-01,-4.762688024452741420e-01,1.350989643589473488e+00,-5.958044140549517032e+00,-1.302312351497053156e+00,1.081874399825961119e-01,-3.533333801820032205e-01
5.983333333333333393e+00,1.643937372069016695e+09,1.698835657280360900e-01,-5.247765195216210765e-01,1.286312687487677575e+00,-5.958044140549517032e+00,-1.199720566843926584e+00,1.021091644976268031e-01,-3.759967228031263486e-01
6.000000000000000000e+00,1.643937372087910652e+09,1.643861501714763973e-01,-3.863868560979255018e-01,1.470832238719271823e+00,-5.958044140549517032e+00,-1.091538956090107204e+00,9.569035345525131464e-02,-3.942100086305513895e-01
6.016666666666666607e+00,1.643937372103881836e+09,1.590403149751360157e-01,-3.858391023352624738e-01,1.482245819207824500e+00,-5.990093866964523173e+00,-9.790534205516971955e-01,8.898611549153041811e-02,-4.102539793816131763e-01
6.033333333333333215e+00,1.643937372118842602e+09,1.538370051120255544e-01,-2.831168779382926548e-01,1.619208785070450851e+00,-5.990093866964523173e+00,-8.635684634489666500e-01,8.204683290132527840e-02,-4.224261191478623778e-01
6.049999999999999822e+00,1.643937372137182713e+09,1.487649245225652617e-01,-2.708243536513339489e-01,1.624915575314727301e+00,-5.958044140549517032e+00,-7.463932254089893359e-01,7.492424468896732859e-02,-4.322571572531764827e-01
6.066666666666666430e+00,1.643937372154551983e+09,1.438106183372078184e-01,-1.952093829146758219e-01,1.725735536296937989e+00,-5.958044140549517032e+00,-6.288275733164339076e-01,6.766584591342605925e-02,-4.387327077481537052e-01
6.083333333333333037e+00,1.643937372168638229e+09,1.389585755204006956e-01,3.789007330223876507e-02,2.047218053391159476e+00,-5.990093866964523173e+00,-5.121483850217682932e-01,6.034872730347672076e-02,-4.393198943335298590e-01
6.099999999999999645e+00,1.643937372184571505e+09,1.341913512025813549e-01,3.360698635656657607e-01,2.444791107075728664e+00,-5.990093866964523173e+00,-3.975961700207165661e-01,5.307891010345044958e-02,-4.330755155744210882e-01
6.116666666666666252e+00,1.643937372204700232e+09,1.294897077996957080e-01,3.836986368436062778e-01,2.518979380251318290e+00,-6.022143593379529314e+00,-2.863621624162068224e-01,4.593424561259611821e-02,-4.243085765097767692e-01
6.133333333333332860e+00,1.643937372219753981e+09,1.248327738594600389e-01,3.066569685458789829e-01,2.416257155854348415e+00,-6.022143593379529314e+00,-1.795760173048714936e-01,3.893859420080027223e-02,-4.151949092439641276e-01
6.150000000000000355e+00,1.643937372236255407e+09,1.201982194214078897e-01,3.722850563550544334e-01,2.503761272933249238e+00,-6.022143593379529314e+00,-7.829423524618195351e-02,3.211663213367378644e-02,-4.034731001583564125e-01
6.166666666666666963e+00,1.643937372252771616e+09,1.155624465350977292e-01,2.957911418199897224e-01,2.412452629024830930e+00,-6.054193319794534567e+00,1.651056825809815720e-02,2.549094363830871346e-02,-3.916423831616898665e-01
6.183333333333333570e+00,1.643937372270118237e+09,1.109007934486566094e-01,2.330164491329522747e-01,2.328753038775447592e+00,-6.054193319794534567e+00,1.039594402462253875e-01,1.906420770497675721e-02,-3.795993824053716104e-01
6.200000000000000178e+00,1.643937372287069082e+09,1.061877508594463726e-01,2.521112711895127090e-01,2.364896043655863256e+00,-6.086243046209538932e+00,1.832758166898857954e-01,1.285011766948440312e-02,-3.661288409052226300e-01
6.216666666666666785e+00,1.643937372305042505e+09,1.013971885107819160e-01,1.779229980139234446e-01,2.265978346088410866e+00,-6.086243046209538932e+00,2.537931107020989785e-01,6.858169063607359728e-03,-3.529416238207452317e-01
6.233333333333333393e+00,1.643937372321000338e+09,9.650259032445093754e-02,1.536691394757495333e-01,2.233639868037512688e+00,-6.086243046209538932e+00,3.149610872834200936e-01,1.089284580537724055e-03,-3.393622355583560957e-01
6.250000000000000000e+00,1.643937372338099718e+09,9.147729617885150266e-02,5.292136640251148688e-02,2.109992746078197090e+00,-6.118292772624545073e+00,3.663509618966716008e-01,-4.461969694271413454e-03,-3.268231091452272197e-01
6.266666666666666607e+00,1.643937372354918957e+09,8.629474837774543661e-02,4.293448347502835244e-02,2.096676902174886337e+00,-6.118292772624545073e+00,4.076591733465391165e-01,-9.801644321734626769e-03,-3.139735402374045359e-01
6.283333333333333215e+00,1.643937372372565269e+09,8.092874080532162784e-02,4.238672971236516485e-02,2.085263321686333438e+00,-6.086243046209538932e+00,4.387097951132030715e-01,-1.492472118492114454e-02,-3.008321879604585192e-01
6.299999999999999822e+00,1.643937372388522863e+09,7.535366872996616949e-02,-1.188300946884348341e-01,1.870307555818599976e+00,-6.086243046209538932e+00,4.594555633105399384e-01,-1.984999253266604355e-02,-2.902298254690118817e-01
6.316666666666666430e+00,1.643937372404432058e+09,6.954477720222140835e-02,-4.441171386121735010e-01,1.436591497253614902e+00,-6.086243046209538932e+00,4.699775136686079602e-01,-2.464349775426642741e-02,-2.850053139964709437e-01
6.333333333333333037e+00,1.643937372420542002e+09,6.347840599185576582e-02,-5.305979360747211659e-01,1.331967009441886951e+00,-6.118292772624545073e+00,4.704832342333659101e-01,-2.936252431730947479e-02,-2.812881991307838447e-01
6.349999999999999645e+00,1.643937372439453840e+09,5.713222902511359835e-02,-5.397058752037980911e-01,1.309139848464782263e+00,-6.086243046209538932e+00,4.613037546905734976e-01,-3.402263824307624057e-02,-2.779347872135708442e-01
6.366666666666666252e+00,1.643937372456392288e+09,5.048548631558343047e-02,-7.009226996045981872e-01,1.094184082597048802e+00,-6.086243046209538932e+00,4.428891072120639816e-01,-3.865213593367695238e-02,-2.776058493961790496e-01
6.383333333333332860e+00,1.643937372476003408e+09,4.351920643092541813e-02,-6.024805678908354833e-01,1.225440258215398925e+00,-6.086243046209538932e+00,4.158026073509659692e-01,-4.326634108490070435e-02,-2.761029435872864313e-01
6.400000000000000355e+00,1.643937372492205381e+09,3.621641760219829198e-02,-6.438547971618372445e-01,1.170274619187396725e+00,-6.086243046209538932e+00,3.807139166402586650e-01,-4.786626648473714385e-02,-2.758886995294763111e-01
6.416666666666666963e+00,1.643937372511107445e+09,2.856234566253897794e-02,-5.439859678870053727e-01,1.303433058220506036e+00,-6.086243046209538932e+00,3.383909610449812311e-01,-5.245470247698656718e-02,-2.747268469845939864e-01
6.433333333333333570e+00,1.643937372525116444e+09,2.054459709666493772e-02,-4.412637434900354427e-01,1.440396024083132387e+00,-6.086243046209538932e+00,2.896907911564006177e-01,-5.701647318268369957e-02,-2.726912921511240873e-01
6.450000000000000178e+00,1.643937372545488358e+09,1.215332559151931224e-02,-2.686333386006830026e-01,1.670569897268935788e+00,-6.086243046209538932e+00,2.355494808781934957e-01,-6.152823335346861017e-02,-2.687309296090473199e-01
6.466666666666666785e+00,1.643937372562442541e+09,3.381380600465340447e-03,-3.485284020205483557e-01,1.564043146042448651e+00,-6.086243046209538932e+00,1.769711712322656338e-01,-6.599366050051806709e-02,-2.671247896418025847e-01
6.483333333333333393e+00,1.643937372577810287e+09,-5.775563432225364058e-03,-3.807946921624736358e-01,1.531704667991550251e+00,-6.118292772624545073e+00,1.150163747036366813e-01,-7.044555435247168429e-02,-2.671025344141629287e-01
6.500000000000000000e+00,1.643937372594200850e+09,-1.531889839415306181e-02,-3.679544141128522905e-01,1.548825038724378711e+00,-6.118292772624545073e+00,5.078966316375210788e-02,-7.490417787770181635e-02,-2.679299900714178229e-01
6.516666666666666607e+00,1.643937372610378027e+09,-2.524699542664350649e-02,-3.722345067960590725e-01,1.543118248480102928e+00,-6.118292772624545073e+00,-1.457313121882057583e-02,-7.938609715227591679e-02,-2.698948647637584020e-01
6.533333333333333215e+00,1.643937372627333879e+09,-3.555514033274122937e-02,-4.250223165556133442e-01,1.472734502134030565e+00,-6.118292772624545073e+00,-7.991806761611065790e-02,-8.391680950276012019e-02,-2.737798254828029410e-01
6.549999999999999822e+00,1.643937372645077467e+09,-4.623549218604969951e-02,-4.107553409449228865e-01,1.491757136281617990e+00,-6.118292772624545073e+00,-1.440864625713609570e-01,-8.851862701478797890e-02,-2.784253713627131144e-01
6.566666666666666430e+00,1.643937372663423777e+09,-5.727706567645213243e-02,-3.417261042509467939e-01,1.594479360678588087e+00,-6.150342499039551214e+00,-2.059283299801078770e-01,-9.319623592333411977e-02,-2.828753363580178704e-01
6.583333333333333037e+00,1.643937372682349682e+09,-6.866573754516973327e-02,-4.307291067998894607e-01,1.465125448474996039e+00,-6.118292772624545073e+00,-2.643157537163747239e-01,-9.796775392297187024e-02,-2.896878993669845248e-01
6.599999999999999645e+00,1.643937372698328972e+09,-8.038427727456670668e-02,-4.544352115753998445e-01,1.444200550912650538e+00,-6.150342499039551214e+00,-3.181560521727949675e-01,-1.028625844327314826e-01,-2.976695899196948325e-01
6.616666666666666252e+00,1.643937372714429617e+09,-9.241240200907369085e-02,-3.308602775250575334e-01,1.598283887508105128e+00,-6.118292772624545073e+00,-3.664045959857378243e-01,-1.078789365646825316e-01,-3.042743190129236774e-01
6.633333333333332860e+00,1.643937372731623888e+09,-1.047268554940356533e-01,-4.920771019258575185e-01,1.383328121640371666e+00,-6.118292772624545073e+00,-4.080771436305646871e-01,-1.130324784476790245e-01,-3.141233478892008768e-01
6.649999999999999467e+00,1.643937372745210409e+09,-1.173015106307291333e-01,-5.320246336357903338e-01,1.330064746027127764e+00,-6.118292772624545073e+00,-4.422615643622056503e-01,-1.183590496014249732e-01,-3.250348800354215251e-01
6.666666666666666963e+00,1.643937372764453411e+09,-1.301074950596647350e-01,-5.634119799793089189e-01,1.288214950902436540e+00,-6.118292772624545073e+00,-4.681288240952600210e-01,-1.238738805527697245e-01,-3.367123958186529209e-01
6.683333333333333570e+00,1.643937372782410622e+09,-1.431133390021246954e-01,-4.492761750937869780e-01,1.440396024083132387e+00,-6.118292772624545073e+00,-4.849431172062121931e-01,-1.295682817670946729e-01,-3.465883161426612791e-01
6.700000000000000178e+00,1.643937372797365665e+09,-1.562851444131028444e-01,-4.421426872884418602e-01,1.449907341156926099e+00,-6.118292772624545073e+00,-4.920710358226544345e-01,-1.354259168172243233e-01,-3.563009098110498929e-01
6.716666666666666785e+00,1.643937372812873840e+09,-1.695867743287612361e-01,-4.321558043609584621e-01,1.463223185060237075e+00,-6.118292772624545073e+00,-4.889896778569494673e-01,-1.414422819282571686e-01,-3.656369694036488704e-01
6.733333333333333393e+00,1.643937372830774784e+09,-1.829800611296768242e-01,-4.007684580174394329e-01,1.505072980184929188e+00,-6.118292772624545073e+00,-4.752936057467149755e-01,-1.476067315870384644e-01,-3.740735541409367926e-01
6.750000000000000000e+00,1.643937372847797632e+09,-1.964250322886162692e-01,-3.779412970403354666e-01,1.535509194821067736e+00,-6.118292772624545073e+00,-4.507005794754228578e-01,-1.539040760262236629e-01,-3.815869076436809171e-01
6.766666666666666607e+00,1.643937372865757704e+09,-2.098801520298124168e-01,-3.836480872846115275e-01,1.527900141162032988e+00,-6.118292772624545073e+00,-4.150559998478617896e-01,-1.603214702532454461e-01,-3.884812482022003133e-01
6.783333333333333215e+00,1.643937372880978346e+09,-2.233025771965452266e-01,-2.580987019105366875e-01,1.695299321660799663e+00,-6.118292772624545073e+00,-3.683360110621871630e-01,-1.668290239745681414e-01,-3.924142730304230331e-01
6.799999999999999822e+00,1.643937372896826029e+09,-2.366484255066502451e-01,1.185494542116863476e-01,2.197496863157097025e+00,-6.118292772624545073e+00,-3.106492252232155860e-01,-1.733415943194385189e-01,-3.891033655357448162e-01
6.816666666666666430e+00,1.643937372915944576e+09,-2.498730542719827530e-01,1.342431273834461536e-01,2.218421760719443192e+00,-6.118292772624545073e+00,-2.422370454439521925e-01,-1.797878234345501314e-01,-3.844570350549749715e-01
6.833333333333333037e+00,1.643937372931932926e+09,-2.629313475689791235e-01,1.440053225364708138e-02,2.058631633879711487e+00,-6.118292772624545073e+00,-1.634725784435773210e-01,-1.861629291933540042e-01,-3.805664633993365853e-01
6.849999999999999645e+00,1.643937372948880196e+09,-2.757780097738199987e-01,-3.410718482269955304e-02,1.993954677777915574e+00,-6.118292772624545073e+00,-7.485814192822459745e-02,-1.924681898988279127e-01,-3.760772914730447503e-01
6.866666666666666252e+00,1.643937372965836048e+09,-2.883678633179847517e-01,-9.721306754548021678e-02,1.931179985090878404e+00,-6.182392225454556467e+00,2.297861360920228080e-02,-1.986944540733805442e-01,-3.710882681974300712e-01
6.883333333333332860e+00,1.643937372984786987e+09,-3.006561484786945959e-01,-6.582572120196150678e-02,1.973029780215569851e+00,-6.182392225454556467e+00,1.292899348553806504e-01,-2.048192379377153094e-01,-3.639057474388716629e-01
6.899999999999999467e+00,1.643937372999746084e+09,-3.125988229941590313e-01,-7.954494304998879772e-02,1.965420726556535325e+00,-6.214441951869560832e+00,2.432144997302769784e-01,-2.108114647641133599e-01,-3.551856946678021432e-01
6.916666666666666963e+00,1.643937373014696836e+09,-3.241528592859544977e-01,-1.066521967103004620e-01,1.929277721676119661e+00,-6.214441951869560832e+00,3.637851944383985181e-01,-2.166466525785869512e-01,-3.450649568911935972e-01
6.933333333333333570e+00,1.643937373033919573e+09,-3.352765370803322820e-01,-1.114800431561707023e-01,1.912157350943291423e+00,-6.182392225454556467e+00,4.899380596058027226e-01,-2.222978018393452215e-01,-3.331061740229414592e-01
6.950000000000000178e+00,1.643937373052687883e+09,-3.459297292467274909e-01,-1.394662406148878819e-01,1.885525663136669916e+00,-6.214441951869560832e+00,6.205223194860863822e-01,-2.277371189097809889e-01,-3.196492556379856853e-01
6.966666666666666785e+00,1.643937373070024967e+09,-3.560741787150473736e-01,-1.685479455989314368e-01,1.836066814352943499e+00,-6.182392225454556467e+00,7.543113969542202257e-01,-2.329395504488826485e-01,-3.046840999096291913e-01
6.983333333333333393e+00,1.643937373087176085e+09,-3.656737643931690651e-01,-1.936807479355114880e-01,1.813239653375838589e+00,-6.214441951869560832e+00,8.900148066960313908e-01,-2.378793576531550436e-01,-2.881387250593481220e-01
7.000000000000000000e+00,1.643937373108542442e+09,-3.746947540820007028e-01,-5.047008162485595584e-01,1.398546228958441162e+00,-6.214441951869560832e+00,1.026290809748227284e+00,-2.425698296028388490e-01,-2.747550865513365137e-01
7.016666666666666607e+00,1.643937373122666359e+09,-3.831060424769165973e-01,-6.935726480723338749e-01,1.136033877721740026e+00,-6.182392225454556467e+00,1.161759704444286667e+00,-2.470464655058738357e-01,-2.624753330421022990e-01
7.033333333333333215e+00,1.643937373140890121e+09,-3.908793724506460787e-01,-7.657864699241915263e-01,1.050432024057598168e+00,-6.214441951869560832e+00,1.295017621955837583e+00,-2.513117034951517503e-01,-2.493895758522969297e-01
7.049999999999999822e+00,1.643937373155941486e+09,-3.979895379330488092e-01,-6.907192529501959832e-01,1.139838404551257511e+00,-6.182392225454556467e+00,1.424650689060082742e+00,-2.553323796372022891e-01,-2.331367091084149412e-01
7.066666666666666430e+00,1.643937373173593998e+09,-4.044145668366058155e-01,-6.331035967447717905e-01,1.227342521630158112e+00,-6.214441951869560832e+00,1.549249416567652471e+00,-2.590592519793210036e-01,-2.141407397692482173e-01
7.083333333333333037e+00,1.643937373188462973e+09,-4.101358826220367071e-01,-6.051173992860541251e-01,1.253974209436780063e+00,-6.182392225454556467e+00,1.667423169055828103e+00,-2.624519608800008896e-01,-1.930429347057387446e-01
7.099999999999999645e+00,1.643937373205898762e+09,-4.151384432549450887e-01,-6.735988822173675228e-01,1.162665565528361977e+00,-6.182392225454556467e+00,1.777814570201342814e+00,-2.654901651168359300e-01,-1.716011356691707623e-01
7.116666666666666252e+00,1.643937373221996546e+09,-4.194108564707417219e-01,-7.435070627097498663e-01,1.069454658205185593e+00,-6.182392225454556467e+00,1.879113698107643060e+00,-2.681696318550566560e-01,-1.499948916743185090e-01
7.133333333333332860e+00,1.643937373239145517e+09,-4.229454704399244203e-01,-7.363735749044050261e-01,1.078965975278978862e+00,-6.182392225454556467e+00,1.970071926578889299e+00,-2.704784303151008817e-01,-1.271244540196995454e-01
7.149999999999999467e+00,1.643937373256379604e+09,-4.257384391077853047e-01,-7.643597723631226915e-01,1.052334287472356911e+00,-6.214441951869560832e+00,2.049515271290207608e+00,-2.724021064036412088e-01,-1.037815196157078346e-01
7.166666666666666963e+00,1.643937373272680998e+09,-4.277897616704267048e-01,-6.835857651448508099e-01,1.149349721625051224e+00,-6.182392225454556467e+00,2.116357104216599616e+00,-2.739195689496988217e-01,-7.838453475178774887e-02
7.183333333333333570e+00,1.643937373288365602e+09,-4.291032958410409548e-01,-7.492138529540262049e-01,1.061845604546150623e+00,-6.182392225454556467e+00,2.169610105467974837e+00,-2.750189655120430232e-01,-5.361186731421106050e-02
7.200000000000000178e+00,1.643937373308946133e+09,-4.296867447553937014e-01,-7.757733528516747024e-01,1.037116180154287415e+00,-6.214441951869560832e+00,2.208397328780534075e+00,-2.757072169976889087e-01,-2.904654956308415706e-02
7.216666666666666785e+00,1.643937373325124979e+09,-4.295516175617262733e-01,-7.672131674852605832e-01,1.048529760642839426e+00,-6.214441951869560832e+00,2.231962265267796841e+00,-2.759850023569012656e-01,-4.356279240829527555e-03
7.233333333333333393e+00,1.643937373342429399e+09,-4.287131639364322733e-01,-8.062817553967874806e-01,9.857550679558022555e-01,-6.182392225454556467e+00,2.239677799555239268e+00,-2.758590239426101931e-01,1.940767641418691958e-02
7.250000000000000000e+00,1.643937373360393286e+09,-4.271902829613037356e-01,-7.757733528516747024e-01,1.037116180154287415e+00,-6.214441951869560832e+00,2.231053963020516839e+00,-2.753372391829709831e-01,4.314056849069507898e-02
7.266666666666666607e+00,1.643937373378344536e+09,-4.250054069894155240e-01,-8.034283602746492559e-01,9.895595947853198515e-01,-6.182392225454556467e+00,2.205744400432058328e+00,-2.744304997137900770e-01,6.560576302413763383e-02
7.283333333333333215e+00,1.643937373392306805e+09,-4.221843613132816864e-01,-8.918836090609290057e-01,8.716192630702800370e-01,-6.182392225454556467e+00,2.163551478709717202e+00,-2.731704884300972247e-01,8.554021623459123758e-02
7.299999999999999822e+00,1.643937373410259724e+09,-4.187562006294736072e-01,-9.769377089624077248e-01,7.688970386733101625e-01,-6.214441951869560832e+00,2.104429979700873421e+00,-2.716009032218485442e-01,1.027621688719836668e-01
7.316666666666666430e+00,1.643937373427549124e+09,-4.147530234668306837e-01,-8.810177823350399118e-01,8.754237898997973000e-01,-6.150342499039551214e+00,2.028489332644509702e+00,-2.697439046262714579e-01,1.200296961148977354e-01
7.333333333333333037e+00,1.643937373445897818e+09,-4.102097659096202165e-01,-7.899257021535409651e-01,9.648301703934566431e-01,-6.054193319794534567e+00,1.935994356249200132e+00,-2.676016926781829564e-01,1.369886284017368949e-01
7.349999999999999645e+00,1.643937373461606741e+09,-4.051639761010552565e-01,-7.978235074484683054e-01,9.115667947802129634e-01,-5.925994414134512667e+00,1.827364494898385150e+00,-2.651952690942976920e-01,1.517412212753502521e-01
7.366666666666666252e+00,1.643937373477948666e+09,-3.996555711553808066e-01,-6.364920567388442363e-01,1.073259185034702856e+00,-5.765745782059485514e+00,1.703171548274522440e+00,-2.625398770092923217e-01,1.668638207159395259e-01
7.383333333333332860e+00,1.643937373495092630e+09,-3.937265782371499601e-01,-6.235371523803987515e-01,1.037116180154287415e+00,-5.605497149984457472e+00,1.564135908516356421e+00,-2.596519446753416949e-01,1.796525343175881806e-01
7.399999999999999467e+00,1.643937373513780594e+09,-3.874208616833194618e-01,-4.715302045267710240e-01,1.143642931380774774e+00,-5.317049612249408419e+00,1.411121333745403383e+00,-2.565527726721333335e-01,1.922132144680237242e-01
7.416666666666666963e+00,1.643937373530513048e+09,-3.807838381465567523e-01,-4.271879538248067876e-01,1.149349721625051224e+00,-5.156800980174380378e+00,1.245128301272110605e+00,-2.532627933538393328e-01,2.025555742738514853e-01
7.433333333333333570e+00,1.643937373547413111e+09,-3.738621818257629736e-01,-3.199563841269818520e-01,1.185492726505465999e+00,-4.836303716024325183e+00,1.067285997877113202e+00,-2.498116226537827889e-01,2.115598971362971370e-01
7.450000000000000178e+00,1.643937373563166618e+09,-3.667035219217565922e-01,-1.171360778375314521e-01,1.349087380174715189e+00,-4.515806451874271765e+00,8.788430181180328926e-01,-2.462096377840712336e-01,2.206530279379272652e-01
7.466666666666666785e+00,1.643937373580099106e+09,-3.593561345116523809e-01,6.553482521634780740e-03,1.449907341156926099e+00,-4.323508093384238471e+00,6.811568545031734256e-01,-2.424675771298598903e-01,2.283728062341293941e-01
7.483333333333333393e+00,1.643937373599305391e+09,-3.518686310743809331e-01,-3.981154168510785823e-03,1.425177916765063113e+00,-4.291458366969232330e+00,4.756822754732858427e-01,-2.386277550643330359e-01,2.323946695236821236e-01
7.500000000000000000e+00,1.643937373615262508e+09,-3.442896459216483462e-01,1.686492507208418312e-01,1.655351789950866515e+00,-4.291458366969232330e+00,2.639586983188147995e-01,-2.347268570142042599e-01,2.357039039575476169e-01
7.516666666666666607e+00,1.643937373633213282e+09,-3.366675247933694770e-01,2.214370604803953535e-01,1.725735536296937989e+00,-4.291458366969232330e+00,4.759667432288305911e-02,-2.307938550820447521e-01,2.362547976054427679e-01
7.533333333333333215e+00,1.643937373649171114e+09,-3.290500168641437018e-01,1.843429238926010127e-01,1.676276687513212238e+00,-4.291458366969232330e+00,-1.717363875417927122e-01,-2.268871655313925706e-01,2.325582169939707233e-01
7.549999999999999822e+00,1.643937373670541048e+09,-3.214839723777266900e-01,1.914764116979461306e-01,1.685788004587005728e+00,-4.291458366969232330e+00,-3.923311242135485433e-01,-2.230710584582441536e-01,2.253945313788955906e-01
7.566666666666666430e+00,1.643937373682905197e+09,-3.140150480801159882e-01,1.144347434002182112e-01,1.583065780190035188e+00,-4.291458366969232330e+00,-6.124516087638998130e-01,-2.194144008783421029e-01,2.134375927095988335e-01
7.583333333333333037e+00,1.643937373703798771e+09,-3.066874225589336089e-01,5.648789715905103148e-02,1.516486560673480977e+00,-4.323508093384238471e+00,-8.303510814005103935e-01,-2.159934741424625881e-01,1.971189462363616696e-01
7.599999999999999645e+00,1.643937373719735146e+09,-2.995435235179753630e-01,2.224715569339413487e-02,1.470832238719271823e+00,-4.323508093384238471e+00,-1.044287871657938460e+00,-2.128765493127252884e-01,1.769680094738819709e-01
7.616666666666666252e+00,1.643937373735777140e+09,-2.926237689216085180e-01,-2.055377113867627378e-02,1.413764336276511324e+00,-4.323508093384238471e+00,-1.252541359883622585e+00,-2.101273659326656496e-01,1.530005739101173434e-01
7.633333333333332860e+00,1.643937373755047798e+09,-2.859663238349033354e-01,-2.006702844779030114e-03,1.438493760668374088e+00,-4.323508093384238471e+00,-1.453427825304772991e+00,-2.077995142263562856e-01,1.264154800679821167e-01
7.649999999999999467e+00,1.643937373771005154e+09,-2.796068746628467827e-01,6.005728758972494336e-03,1.438493760668374088e+00,-4.291458366969232330e+00,-1.645316028626413685e+00,-2.059364724843275596e-01,9.723059999482937255e-02
7.666666666666666963e+00,1.643937373786816835e+09,-2.735784223567059859e-01,-9.474204431426584694e-02,1.314846638709058491e+00,-4.323508093384238471e+00,-1.826642379259672211e+00,-2.045947745986997912e-01,6.386582838296930853e-02
7.683333333333333570e+00,1.643937373805705786e+09,-2.679110960085486215e-01,-2.630923565204112413e-01,1.090379555767531317e+00,-4.323508093384238471e+00,-1.995925540890438388e+00,-2.038511819849090079e-01,2.547193747899770266e-02
7.700000000000000178e+00,1.643937373822827578e+09,-2.626319880973673193e-01,-3.021609444319376392e-01,1.027604863080493924e+00,-4.291458366969232330e+00,-2.151780334141682793e+00,-2.037691074841493366e-01,-1.550915833132231192e-02
7.716666666666666785e+00,1.643937373840927839e+09,-2.577650124833157919e-01,-3.121478273594209263e-01,1.014289019177182949e+00,-4.291458366969232330e+00,-2.292930801508246574e+00,-2.043852660837290891e-01,-5.831097687953701314e-02
7.733333333333333393e+00,1.643937373858095884e+09,-2.533307860716481064e-01,-4.530596958695113363e-01,8.050400435537253818e-01,-4.227358914139221824e+00,-2.418222307489669376e+00,-2.057456446601569067e-01,-1.048052983590955223e-01
7.750000000000000000e+00,1.643937373872884512e+09,-2.493465348863350139e-01,-4.675432352071209330e-01,7.536789313552405556e-01,-4.131209734894206065e+00,-2.526632555842846628e+00,-2.078914809269716002e-01,-1.525623919431136066e-01
7.766666666666666607e+00,1.643937373890833139e+09,-2.458260251065027546e-01,-4.192520818576933594e-01,7.860174094061384009e-01,-4.035060555649188530e+00,-2.617281416032222197e+00,-2.108325229875286921e-01,-2.002302415140550795e-01
7.783333333333333215e+00,1.643937373907835245e+09,-2.427795194282510172e-01,-4.770843017900366356e-01,6.661748142763399549e-01,-3.906861649989166629e+00,-2.689439462176018480e+00,-2.145793996208457122e-01,-2.492587609468389920e-01
7.799999999999999822e+00,1.643937373923905134e+09,-2.402137589214580204e-01,-3.668973995519780318e-01,7.917241996504145174e-01,-3.842762197159155679e+00,-2.742535139962188673e+00,-2.191287609327330632e-01,-2.965332752935210814e-01
7.816666666666666430e+00,1.643937373942633390e+09,-2.381319703575215940e-01,-3.209118875620255440e-01,8.316717313603474437e-01,-3.778662744329144729e+00,-2.776160490020594729e+00,-2.244577940458215848e-01,-3.428221151401428801e-01
7.833333333333333037e+00,1.643937373957573175e+09,-2.365338987909678115e-01,-2.278453560567957059e-01,9.343939557573173182e-01,-3.714563291499134667e+00,-2.790075369962229601e+00,-2.305409819197556942e-01,-3.870376060331925383e-01
7.849999999999999645e+00,1.643937373977493525e+09,-2.354158649871134490e-01,-2.555003634797699541e-01,8.868373703883496439e-01,-3.682513565084128526e+00,-2.784210131598197080e+00,-2.373579971900177943e-01,-4.308824323475632379e-01
7.866666666666666252e+00,1.643937373992500067e+09,-2.347708471008518594e-01,-2.412333878690796074e-01,9.058600045359367359e-01,-3.682513565084128526e+00,-2.758666724592912622e+00,-2.448942050663203973e-01,-4.733445596789604970e-01
7.883333333333332860e+00,1.643937374009881973e+09,-2.345885858297253324e-01,-2.161005855325000002e-01,9.286871655130413128e-01,-3.650463838669123717e+00,-2.713718212843041933e+00,-2.531225705085283773e-01,-5.139465075430115215e-01
7.899999999999999467e+00,1.643937374026838303e+09,-2.348557120890235883e-01,-2.018336099218096813e-01,9.477097996606282937e-01,-3.650463838669123717e+00,-2.649806705060966827e+00,-2.620112290693706880e-01,-5.525851875652154632e-01
7.916666666666666963e+00,1.643937374041796923e+09,-2.355558960891826759e-01,-5.060366844849265022e-02,1.149349721625051224e+00,-3.650463838669123717e+00,-2.567539716230114344e+00,-2.715062781242969514e-01,-5.867258615882660067e-01
7.933333333333333570e+00,1.643937374060916901e+09,-2.366700165374348575e-01,-1.065613673856012980e-02,1.202613097238294460e+00,-3.650463838669123717e+00,-2.467684991642496328e+00,-2.815463133286123520e-01,-6.179915118569682120e-01
7.950000000000000178e+00,1.643937374078055859e+09,-2.381763485377670353e-01,5.782534619275321586e-02,1.293921741146712323e+00,-3.650463838669123717e+00,-2.351163839978664072e+00,-2.920775716206557293e-01,-6.456825617946899687e-01
7.966666666666666785e+00,1.643937374096773148e+09,-2.400507686269238161e-01,1.206000388797907885e-01,1.377621331396095661e+00,-3.650463838669123717e+00,-2.219043036204092267e+00,-3.030396036468082088e-01,-6.696945797239425291e-01
7.983333333333333393e+00,1.643937374114828110e+09,-2.422669752603659743e-01,1.496817438638343434e-01,1.427080180179822078e+00,-3.682513565084128526e+00,-2.072525368793773914e+00,-3.143742655469496938e-01,-6.904073115726333532e-01
8.000000000000000000e+00,1.643937374135370255e+09,-2.447967229518885623e-01,1.434271998568952267e-01,1.408057546032234875e+00,-3.650463838669123717e+00,-1.912938918824257595e+00,-3.260301005123515949e-01,-7.082433385900207545e-01
8.016666666666665719e+00,1.643937374148315191e+09,-2.476100681746797316e-01,2.210166219172858826e-01,1.522193350917757204e+00,-3.682513565084128526e+00,-1.741725170663557254e+00,-3.379463742557421435e-01,-7.216722073257347825e-01
8.033333333333333215e+00,1.643937374163296461e+09,-2.506756250507922168e-01,2.161887754714159338e-01,1.505072980184929188e+00,-3.650463838669123717e+00,-1.560426065223825098e+00,-3.500602333776645647e-01,-7.319623030330192348e-01
8.050000000000000711e+00,1.643937374180582762e+09,-2.539608287908181605e-01,1.782156950852147315e-01,1.465125448474996039e+00,-3.682513565084128526e+00,-1.370670116910697400e+00,-3.623232084961014454e-01,-7.395735682783404208e-01
8.066666666666666430e+00,1.643937374198533297e+09,-2.574322047965956761e-01,1.448538974179643946e-01,1.409959809446993839e+00,-3.650463838669123717e+00,-1.174157724408137593e+00,-3.746894523219740925e-01,-7.443623882356372734e-01
8.083333333333333925e+00,1.643937374217551708e+09,-2.610556413072131487e-01,2.618430974256242272e-01,1.565945409457206949e+00,-3.650463838669123717e+00,-9.726458131883917169e-01,-3.870908568471941313e-01,-7.438076956397966510e-01
8.099999999999999645e+00,1.643937374233585835e+09,-2.647966634527984531e-01,3.032173266966266545e-01,1.621111048485210038e+00,-3.650463838669123717e+00,-7.679319540606255323e-01,-3.994491033006744019e-01,-7.391946929757163831e-01
8.116666666666667140e+00,1.643937374250493526e+09,-2.686207065815784945e-01,3.060707218187644352e-01,1.624915575314727301e+00,-3.650463838669123717e+00,-5.618381071037561458e-01,-4.117022436293151233e-01,-7.312043424018255244e-01
8.133333333333332860e+00,1.643937374267760277e+09,-2.724933867434002344e-01,2.575630047424175006e-01,1.560238619212931166e+00,-3.650463838669123717e+00,-3.561941439206441906e-01,-4.238016113428805243e-01,-7.207488270078972192e-01
8.150000000000000355e+00,1.643937374285111904e+09,-2.763807662472465010e-01,2.593208923392298915e-01,1.541215985065344185e+00,-3.586364385839112767e+00,-1.528213032689372253e-01,-4.356998318290102867e-01,-7.070756133705958790e-01
8.166666666666666075e+00,1.643937374300849915e+09,-2.802496122607919249e-01,1.945717483284613025e-01,1.444200550912650538e+00,-3.554314659424106626e+00,4.648426425680662888e-02,-4.473534689719194657e-01,-6.914043760179322540e-01
8.183333333333333570e+00,1.643937374320120811e+09,-2.840676464864704820e-01,1.155556287070012011e-01,1.328162482612369022e+00,-3.522264933009101817e+00,2.399677076953969923e-01,-4.587322730608587307e-01,-6.741001829889530228e-01
8.199999999999999289e+00,1.643937374335097075e+09,-2.878037840301067019e-01,2.071954626511625375e-01,1.428982443594580376e+00,-3.458165480179090867e+00,4.259312909213113230e-01,-4.697867212739281761e-01,-6.524936222163423283e-01
8.216666666666666785e+00,1.643937374352416039e+09,-2.914283596743978411e-01,2.722757966976757094e-01,1.505072980184929188e+00,-3.426115753764084726e+00,6.027496630000261923e-01,-4.804506332797519041e-01,-6.272459525488902621e-01
8.233333333333332504e+00,1.643937374367475748e+09,-2.949133398794957506e-01,2.037943137663622006e-01,1.413764336276511324e+00,-3.426115753764084726e+00,7.688844403941125227e-01,-4.906837500900930182e-01,-6.008015231692078739e-01
8.250000000000000000e+00,1.643937374383764982e+09,-2.982325189557803458e-01,2.369395477066928712e-01,1.436591497253614902e+00,-3.362016300934073776e+00,9.228979643737195149e-01,-5.004539284675230126e-01,-5.717007195904376671e-01
8.266666666666665719e+00,1.643937374401459694e+09,-3.013616979886292735e-01,2.446207892747010171e-01,1.457516394815961291e+00,-3.394066027349079917e+00,1.063466104956027891e+00,-5.097226365908494872e-01,-5.406305632299324149e-01
8.283333333333333215e+00,1.643937374418407440e+09,-3.042788452404822097e-01,2.497798257563141888e-01,1.453711867986443584e+00,-3.362016300934073776e+00,1.189389991907898292e+00,-5.184596949615425387e-01,-5.079073412315024960e-01
8.300000000000000711e+00,1.643937374433369398e+09,-3.069642369105229918e-01,1.727381574585867552e-01,1.350989643589473488e+00,-3.362016300934073776e+00,1.299606563701810380e+00,-5.266513039124546269e-01,-4.751766535945838310e-01
8.316666666666666430e+00,1.643937374451958179e+09,-3.094005772957565958e-01,1.898585281914152711e-01,1.373816804566578176e+00,-3.362016300934073776e+00,1.393197836718110372e+00,-5.342866306341829130e-01,-4.411570541243634569e-01
8.333333333333333925e+00,1.643937374467893839e+09,-3.115730975675953252e-01,2.212458745349336897e-01,1.415666599691269623e+00,-3.362016300934073776e+00,1.469398809324204525e+00,-5.413448026831643167e-01,-4.059214706777297121e-01
8.349999999999999645e+00,1.643937374485200882e+09,-3.134696325541881379e-01,1.698847623364486970e-01,1.347185116759956225e+00,-3.362016300934073776e+00,1.527603928612748518e+00,-5.478196364667281548e-01,-3.711551587116792561e-01
8.366666666666667140e+00,1.643937374503259897e+09,-3.150806750989295080e-01,1.656046696532414986e-01,1.341478326515679775e+00,-3.362016300934073776e+00,1.567372061419180396e+00,-5.537149320320713386e-01,-3.363769176284624463e-01
8.383333333333332860e+00,1.643937374520004511e+09,-3.163994077486662060e-01,1.365229646691982490e-01,1.292019477731954025e+00,-3.329966574519068967e+00,1.588429925627285577e+00,-5.590365020909309202e-01,-3.023061327313281144e-01
8.400000000000000355e+00,1.643937374536991596e+09,-3.174217117094678686e-01,1.533121453662832090e-01,1.335771536271404214e+00,-3.394066027349079917e+00,1.590673952570726524e+00,-5.637923027325122405e-01,-2.684838971241299554e-01
8.416666666666666075e+00,1.643937374553944588e+09,-3.181461531919863028e-01,2.931285063510480904e-01,1.522193350917757204e+00,-3.394066027349079917e+00,1.574170566403751081e+00,-5.679720389417538540e-01,-2.331825097023083326e-01
8.433333333333333570e+00,1.643937374568906307e+09,-3.185739474510149161e-01,2.260737209808033332e-01,1.432786970424097861e+00,-3.394066027349079917e+00,1.539154881498862260e+00,-5.715823925634948566e-01,-2.001516793725729437e-01
8.449999999999999289e+00,1.643937374586809158e+09,-3.187089010032546077e-01,2.503275795189769393e-01,1.465125448474996039e+00,-3.394066027349079917e+00,1.486027834085115629e+00,-5.746507825604278974e-01,-1.681440324822383869e-01
8.466666666666666785e+00,1.643937374603883505e+09,-3.185573326822835893e-01,2.825938696609019418e-01,1.497463926525893774e+00,-3.362016300934073776e+00,1.415351779320502601e+00,-5.771954378638697314e-01,-1.373002830291064347e-01
8.483333333333332504e+00,1.643937374621973515e+09,-3.181279743586671871e-01,2.483531281952454928e-01,1.451809604571685286e+00,-3.362016300934073776e+00,1.327844599649369073e+00,-5.792471067141068408e-01,-1.089786520481257764e-01
8.500000000000000000e+00,1.643937374636925220e+09,-3.174318523149406435e-01,2.181759156858764370e-01,1.379523594810854625e+00,-3.265867121689058017e+00,1.224372384489293308e+00,-5.808491199047672859e-01,-8.333416718787918509e-02
8.516666666666665719e+00,1.643937374656325340e+09,-3.164821504183870093e-01,2.564801861078205847e-01,1.398546228958441162e+00,-3.169717942444040926e+00,1.105940754882177357e+00,-5.820383342743002952e-01,-5.943793713517958599e-02
8.533333333333333215e+00,1.643937374673286200e+09,-3.152940563779721428e-01,2.657027515457216493e-01,1.368110014322301726e+00,-3.041519036784018581e+00,9.736849196016778007e-01,-5.828495721187940681e-01,-3.797023810489582457e-02
8.550000000000000711e+00,1.643937374689412594e+09,-3.138845925043878271e-01,2.121506242965857381e-01,1.253974209436780063e+00,-2.913320131123996681e+00,8.288585612056788010e-01,-5.833333802441740268e-01,-2.013627688781142316e-02
8.566666666666666430e+00,1.643937374706925631e+09,-3.122724325127542722e-01,2.535248535675875825e-01,1.309139848464782263e+00,-2.913320131123996681e+00,6.728216615467910167e-01,-5.835382561834718818e-01,-4.492292363273916317e-03
8.583333333333333925e+00,1.643937374723308325e+09,-3.104777060153254831e-01,2.463913657622421871e-01,1.299628531390988551e+00,-2.913320131123996681e+00,5.070273861939431637e-01,-5.835084446712426320e-01,8.034875323766555583e-03
8.599999999999999645e+00,1.643937374740614891e+09,-3.085217924455237459e-01,2.075393415776351225e-01,1.269192316754849337e+00,-2.977419583954007631e+00,3.330081559837044791e-01,-5.833009791734212746e-01,1.683653478530085928e-02
8.616666666666667140e+00,1.643937374755196095e+09,-3.064271062342431851e-01,1.112882249145233510e-01,1.183590463090707701e+00,-3.105618489614029976e+00,1.523610414229362719e-01,-5.829862803626985057e-01,2.091599041353574273e-02
8.633333333333332860e+00,1.643937374776138544e+09,-3.042168751238429891e-01,-1.405875522139367062e-01,9.439052728311110307e-01,-3.394066027349079917e+00,-3.326737816578650975e-02,-5.826645823792379053e-01,1.769671025707980280e-02
8.650000000000000355e+00,1.643937374789104223e+09,-3.019149135541960849e-01,-2.398066903080107448e-01,9.077622679506953673e-01,-3.682513565084128526e+00,-2.221965440840660555e-01,-5.824358936039979451e-01,9.767967575305255487e-03
8.666666666666666075e+00,1.643937374807284355e+09,-2.995453930881575300e-01,-4.090486352032908224e-01,8.316717313603474437e-01,-4.131209734894206065e+00,-4.127276862701841353e-01,-5.823879474565295533e-01,-3.976250596721016967e-03
8.683333333333333570e+00,1.643937374825731993e+09,-2.971326118606515965e-01,-5.342795194323507468e-01,7.822128825766208049e-01,-4.483756725459265624e+00,-6.031596779932832941e-01,-5.826107727675896575e-01,-2.271074524275486575e-02
8.699999999999999289e+00,1.643937374841595650e+09,-2.947007650361167519e-01,-6.172572305920025482e-01,7.784083557471034309e-01,-4.804253989609320818e+00,-7.918048249480817979e-01,-5.831807687230298187e-01,-4.562511687964938834e-02
8.716666666666666785e+00,1.643937374859886646e+09,-2.922737182433247094e-01,-5.905957932762583296e-01,8.887396338031083864e-01,-5.028602074514358478e+00,-9.770044375587474406e-01,-5.841514032998519346e-01,-7.078115281674407511e-02
