# 
# 
# 
# 
# 
# 
# 
# 
# 
# 
# time,realtime,ref,inp,dis,state...
0.000000000000000000e+00,1.643059223159653664e+09,0.000000000000000000e+00,-3.773843415544372526e+00,0.000000000000000000e+00,-1.201571307767432595e+00
1.666666666666666644e-02,1.643059223161672354e+09,0.000000000000000000e+00,-1.201571307767432595e+00,0.000000000000000000e+00,-1.201571307767432595e+00
3.333333333333333287e-02,1.643059223165664911e+09,0.000000000000000000e+00,-3.937543865661018216e+00,0.000000000000000000e+00,-3.937543865661018216e+00
5.000000000000000278e-02,1.643059223182640791e+09,0.000000000000000000e+00,-4.100099557385239457e+00,0.000000000000000000e+00,-4.100099557385239457e+00
6.666666666666666574e-02,1.643059223197552443e+09,0.000000000000000000e+00,-4.523660162582155309e+00,0.000000000000000000e+00,-4.523660162582155309e+00
8.333333333333332871e-02,1.643059223217525244e+09,0.000000000000000000e+00,-4.487027894024584462e+00,0.000000000000000000e+00,-4.487027894024584462e+00
1.000000000000000056e-01,1.643059223233480692e+09,0.000000000000000000e+00,-4.285550416957942588e+00,0.000000000000000000e+00,-4.285550416957942588e+00
1.166666666666666685e-01,1.643059223249443769e+09,0.000000000000000000e+00,-4.256931457147341114e+00,0.000000000000000000e+00,-4.256931457147341114e+00
1.333333333333333315e-01,1.643059223266511679e+09,0.000000000000000000e+00,-4.105823349347360818e+00,0.000000000000000000e+00,-4.105823349347360818e+00
1.499999999999999944e-01,1.643059223286082029e+09,0.000000000000000000e+00,-4.055453980080700127e+00,0.000000000000000000e+00,-4.055453980080700127e+00
1.666666666666666574e-01,1.643059223300147295e+09,0.000000000000000000e+00,-3.637617166845906080e+00,0.000000000000000000e+00,-3.637617166845906080e+00
1.833333333333333204e-01,1.643059223318491220e+09,0.000000000000000000e+00,-3.412099763538359642e+00,0.000000000000000000e+00,-3.412099763538359642e+00
2.000000000000000111e-01,1.643059223333885670e+09,0.000000000000000000e+00,-3.524286085995920192e+00,0.000000000000000000e+00,-3.524286085995920192e+00
2.166666666666666741e-01,1.643059223349843264e+09,0.000000000000000000e+00,-3.678828468973173393e+00,0.000000000000000000e+00,-3.678828468973173393e+00
2.333333333333333370e-01,1.643059223369244099e+09,0.000000000000000000e+00,-3.606708690250455263e+00,0.000000000000000000e+00,-3.606708690250455263e+00
2.500000000000000000e-01,1.643059223384203911e+09,0.000000000000000000e+00,-3.365164669448970969e+00,0.000000000000000000e+00,-3.365164669448970969e+00
2.666666666666666630e-01,1.643059223404582977e+09,0.000000000000000000e+00,-3.125910165432336019e+00,0.000000000000000000e+00,-3.125910165432336019e+00
2.833333333333333259e-01,1.643059223417516708e+09,0.000000000000000000e+00,-3.117896856685367091e+00,0.000000000000000000e+00,-3.117896856685367091e+00
2.999999999999999889e-01,1.643059223436481476e+09,0.000000000000000000e+00,-2.695481009880876577e+00,0.000000000000000000e+00,-2.695481009880876577e+00
3.166666666666666519e-01,1.643059223451474905e+09,0.000000000000000000e+00,-2.815680641085406055e+00,0.000000000000000000e+00,-2.815680641085406055e+00
3.333333333333333148e-01,1.643059223471530676e+09,0.000000000000000000e+00,-2.643966882221791881e+00,0.000000000000000000e+00,-2.643966882221791881e+00
3.499999999999999778e-01,1.643059223486615658e+09,0.000000000000000000e+00,-2.498582566383931614e+00,0.000000000000000000e+00,-2.498582566383931614e+00
3.666666666666666408e-01,1.643059223503625631e+09,0.000000000000000000e+00,-2.081890511541561128e+00,0.000000000000000000e+00,-2.081890511541561128e+00
3.833333333333333037e-01,1.643059223519710064e+09,0.000000000000000000e+00,-1.740752510599181013e+00,0.000000000000000000e+00,-1.740752510599181013e+00
4.000000000000000222e-01,1.643059223537647724e+09,0.000000000000000000e+00,-1.215308408476521773e+00,0.000000000000000000e+00,-1.215308408476521773e+00
4.166666666666666852e-01,1.643059223557740211e+09,0.000000000000000000e+00,-8.604333068250522576e-01,0.000000000000000000e+00,-8.604333068250522576e-01
4.333333333333333481e-01,1.643059223570836782e+09,0.000000000000000000e+00,-6.555215545811394762e-01,0.000000000000000000e+00,-6.555215545811394762e-01
4.500000000000000111e-01,1.643059223588785410e+09,0.000000000000000000e+00,0.000000000000000000e+00,0.000000000000000000e+00,0.000000000000000000e+00
4.666666666666666741e-01,1.643059223604696035e+09,0.000000000000000000e+00,0.000000000000000000e+00,0.000000000000000000e+00,0.000000000000000000e+00
4.833333333333333370e-01,1.643059223621126175e+09,0.000000000000000000e+00,0.000000000000000000e+00,0.000000000000000000e+00,0.000000000000000000e+00
5.000000000000000000e-01,1.643059223640992403e+09,0.000000000000000000e+00,0.000000000000000000e+00,0.000000000000000000e+00,0.000000000000000000e+00
5.166666666666666075e-01,1.643059223653958082e+09,0.000000000000000000e+00,0.000000000000000000e+00,0.000000000000000000e+00,0.000000000000000000e+00
5.333333333333333259e-01,1.643059223673902512e+09,0.000000000000000000e+00,0.000000000000000000e+00,0.000000000000000000e+00,0.000000000000000000e+00
5.500000000000000444e-01,1.643059223690391541e+09,0.000000000000000000e+00,0.000000000000000000e+00,0.000000000000000000e+00,0.000000000000000000e+00
5.666666666666666519e-01,1.643059223706465483e+09,0.000000000000000000e+00,0.000000000000000000e+00,0.000000000000000000e+00,0.000000000000000000e+00
5.833333333333333703e-01,1.643059223720696449e+09,0.000000000000000000e+00,0.000000000000000000e+00,0.000000000000000000e+00,0.000000000000000000e+00
5.999999999999999778e-01,1.643059223740405798e+09,0.000000000000000000e+00,0.000000000000000000e+00,0.000000000000000000e+00,0.000000000000000000e+00
6.166666666666666963e-01,1.643059223754369020e+09,0.000000000000000000e+00,0.000000000000000000e+00,0.000000000000000000e+00,0.000000000000000000e+00
6.333333333333333037e-01,1.643059223774294615e+09,0.000000000000000000e+00,0.000000000000000000e+00,0.000000000000000000e+00,0.000000000000000000e+00
6.500000000000000222e-01,1.643059223788230419e+09,0.000000000000000000e+00,0.000000000000000000e+00,0.000000000000000000e+00,0.000000000000000000e+00
6.666666666666666297e-01,1.643059223808569908e+09,0.000000000000000000e+00,0.000000000000000000e+00,0.000000000000000000e+00,0.000000000000000000e+00
6.833333333333333481e-01,1.643059223823531866e+09,0.000000000000000000e+00,0.000000000000000000e+00,0.000000000000000000e+00,0.000000000000000000e+00
6.999999999999999556e-01,1.643059223839441538e+09,0.000000000000000000e+00,0.000000000000000000e+00,0.000000000000000000e+00,0.000000000000000000e+00
7.166666666666666741e-01,1.643059223858330011e+09,0.000000000000000000e+00,0.000000000000000000e+00,0.000000000000000000e+00,0.000000000000000000e+00
7.333333333333332815e-01,1.643059223873143435e+09,0.000000000000000000e+00,0.000000000000000000e+00,0.000000000000000000e+00,0.000000000000000000e+00
7.500000000000000000e-01,1.643059223890088320e+09,0.000000000000000000e+00,0.000000000000000000e+00,0.000000000000000000e+00,0.000000000000000000e+00
7.666666666666666075e-01,1.643059223908533573e+09,0.000000000000000000e+00,0.000000000000000000e+00,0.000000000000000000e+00,0.000000000000000000e+00
7.833333333333333259e-01,1.643059223925524712e+09,0.000000000000000000e+00,0.000000000000000000e+00,0.000000000000000000e+00,0.000000000000000000e+00
8.000000000000000444e-01,1.643059223941823483e+09,0.000000000000000000e+00,0.000000000000000000e+00,0.000000000000000000e+00,0.000000000000000000e+00
8.166666666666666519e-01,1.643059223958994627e+09,0.000000000000000000e+00,0.000000000000000000e+00,0.000000000000000000e+00,0.000000000000000000e+00
8.333333333333333703e-01,1.643059223977025986e+09,0.000000000000000000e+00,0.000000000000000000e+00,0.000000000000000000e+00,0.000000000000000000e+00
8.499999999999999778e-01,1.643059223991989851e+09,0.000000000000000000e+00,0.000000000000000000e+00,0.000000000000000000e+00,0.000000000000000000e+00
8.666666666666666963e-01,1.643059224009807587e+09,0.000000000000000000e+00,0.000000000000000000e+00,0.000000000000000000e+00,0.000000000000000000e+00
8.833333333333333037e-01,1.643059224028749704e+09,0.000000000000000000e+00,0.000000000000000000e+00,0.000000000000000000e+00,0.000000000000000000e+00
9.000000000000000222e-01,1.643059224043709040e+09,0.000000000000000000e+00,0.000000000000000000e+00,0.000000000000000000e+00,0.000000000000000000e+00
9.166666666666666297e-01,1.643059224062251568e+09,0.000000000000000000e+00,0.000000000000000000e+00,0.000000000000000000e+00,0.000000000000000000e+00
9.333333333333333481e-01,1.643059224079818010e+09,0.000000000000000000e+00,0.000000000000000000e+00,0.000000000000000000e+00,0.000000000000000000e+00
9.499999999999999556e-01,1.643059224096746206e+09,0.000000000000000000e+00,0.000000000000000000e+00,0.000000000000000000e+00,0.000000000000000000e+00
9.666666666666666741e-01,1.643059224110709429e+09,0.000000000000000000e+00,0.000000000000000000e+00,0.000000000000000000e+00,0.000000000000000000e+00
9.833333333333332815e-01,1.643059224126666307e+09,0.000000000000000000e+00,0.000000000000000000e+00,0.000000000000000000e+00,0.000000000000000000e+00
1.000000000000000000e+00,1.643059224151021957e+09,0.000000000000000000e+00,0.000000000000000000e+00,0.000000000000000000e+00,0.000000000000000000e+00
1.016666666666666607e+00,1.643059224162235737e+09,0.000000000000000000e+00,0.000000000000000000e+00,0.000000000000000000e+00,0.000000000000000000e+00
1.033333333333333215e+00,1.643059224181223154e+09,0.000000000000000000e+00,0.000000000000000000e+00,0.000000000000000000e+00,0.000000000000000000e+00
1.050000000000000044e+00,1.643059224197196484e+09,0.000000000000000000e+00,0.000000000000000000e+00,0.000000000000000000e+00,0.000000000000000000e+00
1.066666666666666652e+00,1.643059224215249300e+09,0.000000000000000000e+00,0.000000000000000000e+00,0.000000000000000000e+00,0.000000000000000000e+00
1.083333333333333259e+00,1.643059224231211185e+09,0.000000000000000000e+00,0.000000000000000000e+00,0.000000000000000000e+00,0.000000000000000000e+00
1.100000000000000089e+00,1.643059224248159885e+09,0.000000000000000000e+00,0.000000000000000000e+00,0.000000000000000000e+00,0.000000000000000000e+00
1.116666666666666696e+00,1.643059224266022444e+09,0.000000000000000000e+00,0.000000000000000000e+00,0.000000000000000000e+00,0.000000000000000000e+00
1.133333333333333304e+00,1.643059224281955719e+09,0.000000000000000000e+00,0.000000000000000000e+00,0.000000000000000000e+00,0.000000000000000000e+00
1.149999999999999911e+00,1.643059224298933744e+09,0.000000000000000000e+00,0.000000000000000000e+00,0.000000000000000000e+00,0.000000000000000000e+00
1.166666666666666741e+00,1.643059224316910982e+09,0.000000000000000000e+00,0.000000000000000000e+00,0.000000000000000000e+00,0.000000000000000000e+00
1.183333333333333348e+00,1.643059224332447290e+09,0.000000000000000000e+00,0.000000000000000000e+00,0.000000000000000000e+00,0.000000000000000000e+00
1.199999999999999956e+00,1.643059224349141836e+09,0.000000000000000000e+00,0.000000000000000000e+00,0.000000000000000000e+00,0.000000000000000000e+00
1.216666666666666563e+00,1.643059224364100456e+09,0.000000000000000000e+00,0.000000000000000000e+00,0.000000000000000000e+00,0.000000000000000000e+00
1.233333333333333393e+00,1.643059224381797552e+09,0.000000000000000000e+00,0.000000000000000000e+00,0.000000000000000000e+00,0.000000000000000000e+00
1.250000000000000000e+00,1.643059224399449825e+09,0.000000000000000000e+00,0.000000000000000000e+00,0.000000000000000000e+00,0.000000000000000000e+00
1.266666666666666607e+00,1.643059224413443327e+09,0.000000000000000000e+00,0.000000000000000000e+00,0.000000000000000000e+00,0.000000000000000000e+00
1.283333333333333215e+00,1.643059224433386087e+09,0.000000000000000000e+00,0.000000000000000000e+00,0.000000000000000000e+00,0.000000000000000000e+00
1.300000000000000044e+00,1.643059224448848963e+09,0.000000000000000000e+00,0.000000000000000000e+00,0.000000000000000000e+00,0.000000000000000000e+00
1.316666666666666652e+00,1.643059224464612961e+09,0.000000000000000000e+00,0.000000000000000000e+00,0.000000000000000000e+00,0.000000000000000000e+00
1.333333333333333259e+00,1.643059224483775854e+09,0.000000000000000000e+00,0.000000000000000000e+00,0.000000000000000000e+00,0.000000000000000000e+00
1.350000000000000089e+00,1.643059224499737501e+09,0.000000000000000000e+00,0.000000000000000000e+00,0.000000000000000000e+00,0.000000000000000000e+00
1.366666666666666696e+00,1.643059224519111395e+09,0.000000000000000000e+00,5.818621064749571747e-01,0.000000000000000000e+00,5.818621064749571747e-01
1.383333333333333304e+00,1.643059224534146309e+09,0.000000000000000000e+00,6.239622218047337077e-01,0.000000000000000000e+00,6.239622218047337077e-01
1.399999999999999911e+00,1.643059224550213099e+09,0.000000000000000000e+00,6.851987531934997655e-01,0.000000000000000000e+00,6.851987531934997655e-01
1.416666666666666741e+00,1.643059224570547342e+09,0.000000000000000000e+00,6.622350539227124244e-01,0.000000000000000000e+00,6.622350539227124244e-01
1.433333333333333348e+00,1.643059224585094213e+09,0.000000000000000000e+00,0.000000000000000000e+00,0.000000000000000000e+00,0.000000000000000000e+00
1.449999999999999956e+00,1.643059224601180315e+09,0.000000000000000000e+00,0.000000000000000000e+00,0.000000000000000000e+00,0.000000000000000000e+00
1.466666666666666563e+00,1.643059224620298624e+09,0.000000000000000000e+00,5.775564128616845760e-01,0.000000000000000000e+00,5.775564128616845760e-01
1.483333333333333393e+00,1.643059224635834455e+09,0.000000000000000000e+00,5.876030312926540100e-01,0.000000000000000000e+00,5.876030312926540100e-01
1.500000000000000000e+00,1.643059224652805805e+09,0.000000000000000000e+00,0.000000000000000000e+00,0.000000000000000000e+00,0.000000000000000000e+00
1.516666666666666607e+00,1.643059224668761492e+09,0.000000000000000000e+00,6.526668458932178840e-01,0.000000000000000000e+00,6.526668458932178840e-01
1.533333333333333215e+00,1.643059224684482813e+09,0.000000000000000000e+00,6.335304298342283591e-01,0.000000000000000000e+00,6.335304298342283591e-01
1.550000000000000044e+00,1.643059224702432394e+09,0.000000000000000000e+00,5.957360081177244249e-01,0.000000000000000000e+00,5.957360081177244249e-01
1.566666666666666652e+00,1.643059224720385075e+09,0.000000000000000000e+00,0.000000000000000000e+00,0.000000000000000000e+00,0.000000000000000000e+00
1.583333333333333259e+00,1.643059224736465693e+09,0.000000000000000000e+00,0.000000000000000000e+00,0.000000000000000000e+00,0.000000000000000000e+00
1.600000000000000089e+00,1.643059224752050400e+09,0.000000000000000000e+00,0.000000000000000000e+00,0.000000000000000000e+00,0.000000000000000000e+00
1.616666666666666696e+00,1.643059224770786524e+09,0.000000000000000000e+00,0.000000000000000000e+00,0.000000000000000000e+00,0.000000000000000000e+00
1.633333333333333304e+00,1.643059224784243822e+09,0.000000000000000000e+00,0.000000000000000000e+00,0.000000000000000000e+00,0.000000000000000000e+00
1.649999999999999911e+00,1.643059224804191113e+09,0.000000000000000000e+00,0.000000000000000000e+00,0.000000000000000000e+00,0.000000000000000000e+00
1.666666666666666741e+00,1.643059224819152117e+09,0.000000000000000000e+00,0.000000000000000000e+00,0.000000000000000000e+00,0.000000000000000000e+00
1.683333333333333348e+00,1.643059224838325024e+09,0.000000000000000000e+00,0.000000000000000000e+00,0.000000000000000000e+00,0.000000000000000000e+00
1.699999999999999956e+00,1.643059224855272055e+09,0.000000000000000000e+00,0.000000000000000000e+00,0.000000000000000000e+00,0.000000000000000000e+00
1.716666666666666563e+00,1.643059224872256041e+09,0.000000000000000000e+00,0.000000000000000000e+00,0.000000000000000000e+00,0.000000000000000000e+00
1.733333333333333393e+00,1.643059224888167143e+09,0.000000000000000000e+00,0.000000000000000000e+00,0.000000000000000000e+00,0.000000000000000000e+00
1.750000000000000000e+00,1.643059224904170990e+09,0.000000000000000000e+00,0.000000000000000000e+00,0.000000000000000000e+00,0.000000000000000000e+00
1.766666666666666607e+00,1.643059224949360132e+09,0.000000000000000000e+00,0.000000000000000000e+00,0.000000000000000000e+00,0.000000000000000000e+00
1.783333333333333215e+00,1.643059224952408075e+09,0.000000000000000000e+00,0.000000000000000000e+00,0.000000000000000000e+00,0.000000000000000000e+00
1.800000000000000044e+00,1.643059224969353914e+09,0.000000000000000000e+00,0.000000000000000000e+00,0.000000000000000000e+00,0.000000000000000000e+00
1.816666666666666652e+00,1.643059224987660170e+09,0.000000000000000000e+00,0.000000000000000000e+00,0.000000000000000000e+00,0.000000000000000000e+00
1.833333333333333259e+00,1.643059225002136469e+09,0.000000000000000000e+00,0.000000000000000000e+00,0.000000000000000000e+00,0.000000000000000000e+00
1.849999999999999867e+00,1.643059225020219088e+09,0.000000000000000000e+00,0.000000000000000000e+00,0.000000000000000000e+00,0.000000000000000000e+00
1.866666666666666696e+00,1.643059225039540052e+09,0.000000000000000000e+00,0.000000000000000000e+00,0.000000000000000000e+00,0.000000000000000000e+00
1.883333333333333304e+00,1.643059225055347919e+09,0.000000000000000000e+00,0.000000000000000000e+00,0.000000000000000000e+00,0.000000000000000000e+00
1.899999999999999911e+00,1.643059225073300123e+09,0.000000000000000000e+00,0.000000000000000000e+00,0.000000000000000000e+00,0.000000000000000000e+00
1.916666666666666741e+00,1.643059225089909554e+09,0.000000000000000000e+00,0.000000000000000000e+00,0.000000000000000000e+00,0.000000000000000000e+00
1.933333333333333348e+00,1.643059225107566357e+09,0.000000000000000000e+00,0.000000000000000000e+00,0.000000000000000000e+00,0.000000000000000000e+00
1.949999999999999956e+00,1.643059225124213696e+09,0.000000000000000000e+00,0.000000000000000000e+00,0.000000000000000000e+00,0.000000000000000000e+00
1.966666666666666563e+00,1.643059225142796755e+09,0.000000000000000000e+00,0.000000000000000000e+00,0.000000000000000000e+00,0.000000000000000000e+00
1.983333333333333393e+00,1.643059225159371614e+09,0.000000000000000000e+00,0.000000000000000000e+00,0.000000000000000000e+00,0.000000000000000000e+00
2.000000000000000000e+00,1.643059225178800106e+09,0.000000000000000000e+00,0.000000000000000000e+00,0.000000000000000000e+00,0.000000000000000000e+00
2.016666666666666607e+00,1.643059225193787098e+09,0.000000000000000000e+00,0.000000000000000000e+00,0.000000000000000000e+00,0.000000000000000000e+00
2.033333333333333215e+00,1.643059225211894751e+09,0.000000000000000000e+00,0.000000000000000000e+00,0.000000000000000000e+00,0.000000000000000000e+00
2.049999999999999822e+00,1.643059225225877285e+09,0.000000000000000000e+00,0.000000000000000000e+00,0.000000000000000000e+00,0.000000000000000000e+00
2.066666666666666430e+00,1.643059225245775700e+09,0.000000000000000000e+00,0.000000000000000000e+00,0.000000000000000000e+00,0.000000000000000000e+00
2.083333333333333481e+00,1.643059225262729168e+09,0.000000000000000000e+00,0.000000000000000000e+00,0.000000000000000000e+00,0.000000000000000000e+00
2.100000000000000089e+00,1.643059225279685974e+09,0.000000000000000000e+00,0.000000000000000000e+00,0.000000000000000000e+00,0.000000000000000000e+00
2.116666666666666696e+00,1.643059225295643568e+09,0.000000000000000000e+00,0.000000000000000000e+00,0.000000000000000000e+00,0.000000000000000000e+00
2.133333333333333304e+00,1.643059225314624786e+09,0.000000000000000000e+00,0.000000000000000000e+00,0.000000000000000000e+00,0.000000000000000000e+00
2.149999999999999911e+00,1.643059225331580162e+09,0.000000000000000000e+00,0.000000000000000000e+00,0.000000000000000000e+00,0.000000000000000000e+00
2.166666666666666519e+00,1.643059225346538305e+09,0.000000000000000000e+00,0.000000000000000000e+00,0.000000000000000000e+00,0.000000000000000000e+00
2.183333333333333126e+00,1.643059225365539551e+09,0.000000000000000000e+00,0.000000000000000000e+00,0.000000000000000000e+00,0.000000000000000000e+00
2.200000000000000178e+00,1.643059225379529953e+09,0.000000000000000000e+00,0.000000000000000000e+00,0.000000000000000000e+00,0.000000000000000000e+00
2.216666666666666785e+00,1.643059225399448872e+09,0.000000000000000000e+00,0.000000000000000000e+00,0.000000000000000000e+00,0.000000000000000000e+00
2.233333333333333393e+00,1.643059225415406466e+09,0.000000000000000000e+00,0.000000000000000000e+00,0.000000000000000000e+00,0.000000000000000000e+00
2.250000000000000000e+00,1.643059225435355425e+09,0.000000000000000000e+00,0.000000000000000000e+00,0.000000000000000000e+00,0.000000000000000000e+00
2.266666666666666607e+00,1.643059225449317217e+09,0.000000000000000000e+00,0.000000000000000000e+00,0.000000000000000000e+00,0.000000000000000000e+00
2.283333333333333215e+00,1.643059225467269182e+09,0.000000000000000000e+00,0.000000000000000000e+00,0.000000000000000000e+00,0.000000000000000000e+00
2.299999999999999822e+00,1.643059225485254526e+09,0.000000000000000000e+00,0.000000000000000000e+00,0.000000000000000000e+00,0.000000000000000000e+00
2.316666666666666430e+00,1.643059225499182463e+09,0.000000000000000000e+00,0.000000000000000000e+00,0.000000000000000000e+00,0.000000000000000000e+00
2.333333333333333481e+00,1.643059225518155336e+09,0.000000000000000000e+00,0.000000000000000000e+00,0.000000000000000000e+00,0.000000000000000000e+00
2.350000000000000089e+00,1.643059225534114122e+09,0.000000000000000000e+00,0.000000000000000000e+00,0.000000000000000000e+00,0.000000000000000000e+00
2.366666666666666696e+00,1.643059225552069426e+09,0.000000000000000000e+00,0.000000000000000000e+00,0.000000000000000000e+00,0.000000000000000000e+00
2.383333333333333304e+00,1.643059225567998648e+09,0.000000000000000000e+00,0.000000000000000000e+00,0.000000000000000000e+00,0.000000000000000000e+00
2.399999999999999911e+00,1.643059225584953070e+09,0.000000000000000000e+00,0.000000000000000000e+00,0.000000000000000000e+00,0.000000000000000000e+00
2.416666666666666519e+00,1.643059225604951143e+09,0.000000000000000000e+00,0.000000000000000000e+00,0.000000000000000000e+00,0.000000000000000000e+00
2.433333333333333126e+00,1.643059225619859219e+09,0.000000000000000000e+00,0.000000000000000000e+00,0.000000000000000000e+00,0.000000000000000000e+00
2.450000000000000178e+00,1.643059225635846853e+09,0.000000000000000000e+00,0.000000000000000000e+00,0.000000000000000000e+00,0.000000000000000000e+00
2.466666666666666785e+00,1.643059225651807308e+09,0.000000000000000000e+00,0.000000000000000000e+00,0.000000000000000000e+00,0.000000000000000000e+00
2.483333333333333393e+00,1.643059225668763161e+09,0.000000000000000000e+00,0.000000000000000000e+00,0.000000000000000000e+00,0.000000000000000000e+00
2.500000000000000000e+00,1.643059225687710762e+09,0.000000000000000000e+00,0.000000000000000000e+00,0.000000000000000000e+00,0.000000000000000000e+00
2.516666666666666607e+00,1.643059225703635216e+09,0.000000000000000000e+00,0.000000000000000000e+00,0.000000000000000000e+00,0.000000000000000000e+00
2.533333333333333215e+00,1.643059225743528843e+09,0.000000000000000000e+00,0.000000000000000000e+00,0.000000000000000000e+00,0.000000000000000000e+00
2.549999999999999822e+00,1.643059225804366112e+09,0.000000000000000000e+00,0.000000000000000000e+00,0.000000000000000000e+00,0.000000000000000000e+00
