# 
# 
# 
# 
# 
# 
# 
# 
# 
# 
# time,realtime,ref,inp,dis,state...
0.000000000000000000e+00,1.685136142979917288e+09,0.000000000000000000e+00,-3.509445042443096185e-01,0.000000000000000000e+00,0.000000000000000000e+00
1.666666666666666644e-02,1.685136142988915205e+09,0.000000000000000000e+00,-3.509445042443096185e-01,0.000000000000000000e+00,-3.509445042443096185e-01
3.333333333333333287e-02,1.685136142998917103e+09,0.000000000000000000e+00,-3.509445042443096185e-01,0.000000000000000000e+00,-3.509445042443096185e-01
5.000000000000000278e-02,1.685136143013921499e+09,0.000000000000000000e+00,-3.509445042443096185e-01,0.000000000000000000e+00,-3.509445042443096185e-01
6.666666666666666574e-02,1.685136143032683611e+09,0.000000000000000000e+00,-3.509445042443096185e-01,0.000000000000000000e+00,-3.509445042443096185e-01
8.333333333333332871e-02,1.685136143049728155e+09,0.000000000000000000e+00,-3.509445042443096185e-01,0.000000000000000000e+00,-3.509445042443096185e-01
1.000000000000000056e-01,1.685136143067692995e+09,0.000000000000000000e+00,-3.509445042443096185e-01,0.000000000000000000e+00,-3.509445042443096185e-01
1.166666666666666685e-01,1.685136143084392071e+09,0.000000000000000000e+00,-3.509445042443096185e-01,0.000000000000000000e+00,-3.509445042443096185e-01
1.333333333333333315e-01,1.685136143101021051e+09,0.000000000000000000e+00,-3.509445042443096185e-01,0.000000000000000000e+00,-3.509445042443096185e-01
1.499999999999999944e-01,1.685136143117053270e+09,0.000000000000000000e+00,-3.509445042443096185e-01,0.000000000000000000e+00,-3.509445042443096185e-01
1.666666666666666574e-01,1.685136143134835482e+09,0.000000000000000000e+00,-3.509445042443096185e-01,0.000000000000000000e+00,-3.509445042443096185e-01
1.833333333333333204e-01,1.685136143150492430e+09,0.000000000000000000e+00,-3.509445042443096185e-01,0.000000000000000000e+00,-3.509445042443096185e-01
2.000000000000000111e-01,1.685136143169763327e+09,0.000000000000000000e+00,-3.509445042443096185e-01,0.000000000000000000e+00,-3.509445042443096185e-01
2.166666666666666741e-01,1.685136143185764790e+09,0.000000000000000000e+00,-3.509445042443096185e-01,0.000000000000000000e+00,-3.509445042443096185e-01
2.333333333333333370e-01,1.685136143203357697e+09,0.000000000000000000e+00,-3.509445042443096185e-01,0.000000000000000000e+00,-3.509445042443096185e-01
2.500000000000000000e-01,1.685136143220901728e+09,0.000000000000000000e+00,-3.509445042443096185e-01,0.000000000000000000e+00,-3.509445042443096185e-01
2.666666666666666630e-01,1.685136143237080097e+09,0.000000000000000000e+00,-3.509445042443096185e-01,0.000000000000000000e+00,-3.509445042443096185e-01
2.833333333333333259e-01,1.685136143253787756e+09,0.000000000000000000e+00,-3.509445042443096185e-01,0.000000000000000000e+00,-3.509445042443096185e-01
2.999999999999999889e-01,1.685136143271762848e+09,0.000000000000000000e+00,-3.509445042443096185e-01,0.000000000000000000e+00,-3.509445042443096185e-01
3.166666666666666519e-01,1.685136143287800789e+09,0.000000000000000000e+00,-3.509445042443096185e-01,0.000000000000000000e+00,-3.509445042443096185e-01
3.333333333333333148e-01,1.685136143305819035e+09,0.000000000000000000e+00,-3.509445042443096185e-01,0.000000000000000000e+00,-3.509445042443096185e-01
3.499999999999999778e-01,1.685136143321819305e+09,0.000000000000000000e+00,-3.509445042443096185e-01,0.000000000000000000e+00,-3.509445042443096185e-01
3.666666666666666408e-01,1.685136143338796377e+09,0.000000000000000000e+00,-3.509445042443096185e-01,0.000000000000000000e+00,-3.509445042443096185e-01
3.833333333333333037e-01,1.685136143358787298e+09,0.000000000000000000e+00,-3.669693674518120785e-01,0.000000000000000000e+00,-3.669693674518120785e-01
4.000000000000000222e-01,1.685136143375761032e+09,0.000000000000000000e+00,-3.509445042443096185e-01,0.000000000000000000e+00,-3.509445042443096185e-01
4.166666666666666852e-01,1.685136143389760256e+09,0.000000000000000000e+00,-3.509445042443096185e-01,0.000000000000000000e+00,-3.509445042443096185e-01
4.333333333333333481e-01,1.685136143407759666e+09,0.000000000000000000e+00,-3.509445042443096185e-01,0.000000000000000000e+00,-3.509445042443096185e-01
4.500000000000000111e-01,1.685136143425795078e+09,0.000000000000000000e+00,-3.509445042443096185e-01,0.000000000000000000e+00,-3.509445042443096185e-01
4.666666666666666741e-01,1.685136143442759991e+09,0.000000000000000000e+00,-3.509445042443096185e-01,0.000000000000000000e+00,-3.509445042443096185e-01
4.833333333333333370e-01,1.685136143459759712e+09,0.000000000000000000e+00,-3.509445042443096185e-01,0.000000000000000000e+00,-3.509445042443096185e-01
5.000000000000000000e-01,1.685136143475759745e+09,0.000000000000000000e+00,-3.509445042443096185e-01,0.000000000000000000e+00,-3.509445042443096185e-01
5.166666666666666075e-01,1.685136143496761560e+09,0.000000000000000000e+00,-3.669693674518120785e-01,0.000000000000000000e+00,-3.669693674518120785e-01
5.333333333333333259e-01,1.685136143511759996e+09,0.000000000000000000e+00,-3.669693674518120785e-01,0.000000000000000000e+00,-3.669693674518120785e-01
5.500000000000000444e-01,1.685136143527759790e+09,0.000000000000000000e+00,-3.509445042443096185e-01,0.000000000000000000e+00,-3.509445042443096185e-01
5.666666666666666519e-01,1.685136143545761347e+09,0.000000000000000000e+00,-3.509445042443096185e-01,0.000000000000000000e+00,-3.509445042443096185e-01
5.833333333333333703e-01,1.685136143560802221e+09,0.000000000000000000e+00,-3.509445042443096185e-01,0.000000000000000000e+00,-3.509445042443096185e-01
5.999999999999999778e-01,1.685136143579762220e+09,0.000000000000000000e+00,-3.509445042443096185e-01,0.000000000000000000e+00,-3.509445042443096185e-01
6.166666666666666963e-01,1.685136143595763206e+09,0.000000000000000000e+00,-3.509445042443096185e-01,0.000000000000000000e+00,-3.509445042443096185e-01
6.333333333333333037e-01,1.685136143611795187e+09,0.000000000000000000e+00,-3.509445042443096185e-01,0.000000000000000000e+00,-3.509445042443096185e-01
6.500000000000000222e-01,1.685136143630761385e+09,0.000000000000000000e+00,-3.509445042443096185e-01,0.000000000000000000e+00,-3.509445042443096185e-01
6.666666666666666297e-01,1.685136143646761417e+09,0.000000000000000000e+00,-3.509445042443096185e-01,0.000000000000000000e+00,-3.509445042443096185e-01
6.833333333333333481e-01,1.685136143664760113e+09,0.000000000000000000e+00,-3.509445042443096185e-01,0.000000000000000000e+00,-3.509445042443096185e-01
6.999999999999999556e-01,1.685136143683760881e+09,0.000000000000000000e+00,-3.509445042443096185e-01,0.000000000000000000e+00,-3.509445042443096185e-01
7.166666666666666741e-01,1.685136143698761463e+09,0.000000000000000000e+00,-3.509445042443096185e-01,0.000000000000000000e+00,-3.509445042443096185e-01
7.333333333333332815e-01,1.685136143718760490e+09,0.000000000000000000e+00,-3.669693674518120785e-01,0.000000000000000000e+00,-3.669693674518120785e-01
7.500000000000000000e-01,1.685136143735764742e+09,0.000000000000000000e+00,-3.669693674518120785e-01,0.000000000000000000e+00,-3.669693674518120785e-01
7.666666666666666075e-01,1.685136143751760721e+09,0.000000000000000000e+00,-3.669693674518120785e-01,0.000000000000000000e+00,-3.669693674518120785e-01
7.833333333333333259e-01,1.685136143768760204e+09,0.000000000000000000e+00,-3.509445042443096185e-01,0.000000000000000000e+00,-3.509445042443096185e-01
8.000000000000000444e-01,1.685136143785760164e+09,0.000000000000000000e+00,-3.509445042443096185e-01,0.000000000000000000e+00,-3.509445042443096185e-01
8.166666666666666519e-01,1.685136143803759813e+09,0.000000000000000000e+00,-3.509445042443096185e-01,0.000000000000000000e+00,-3.509445042443096185e-01
8.333333333333333703e-01,1.685136143820761442e+09,0.000000000000000000e+00,-3.509445042443096185e-01,0.000000000000000000e+00,-3.509445042443096185e-01
8.499999999999999778e-01,1.685136143840760946e+09,0.000000000000000000e+00,-3.509445042443096185e-01,0.000000000000000000e+00,-3.509445042443096185e-01
8.666666666666666963e-01,1.685136143855798244e+09,0.000000000000000000e+00,-3.509445042443096185e-01,0.000000000000000000e+00,-3.509445042443096185e-01
8.833333333333333037e-01,1.685136143871761084e+09,0.000000000000000000e+00,-3.509445042443096185e-01,0.000000000000000000e+00,-3.509445042443096185e-01
9.000000000000000222e-01,1.685136143888787508e+09,0.000000000000000000e+00,-3.509445042443096185e-01,0.000000000000000000e+00,-3.509445042443096185e-01
9.166666666666666297e-01,1.685136143906760693e+09,0.000000000000000000e+00,-3.509445042443096185e-01,0.000000000000000000e+00,-3.509445042443096185e-01
9.333333333333333481e-01,1.685136143923788309e+09,0.000000000000000000e+00,-3.509445042443096185e-01,0.000000000000000000e+00,-3.509445042443096185e-01
9.499999999999999556e-01,1.685136143938787460e+09,0.000000000000000000e+00,-3.509445042443096185e-01,0.000000000000000000e+00,-3.509445042443096185e-01
9.666666666666666741e-01,1.685136143956761599e+09,0.000000000000000000e+00,-3.509445042443096185e-01,0.000000000000000000e+00,-3.509445042443096185e-01
9.833333333333332815e-01,1.685136143971761942e+09,0.000000000000000000e+00,-3.509445042443096185e-01,0.000000000000000000e+00,-3.509445042443096185e-01
1.000000000000000000e+00,1.685136143993808031e+09,0.000000000000000000e+00,-3.509445042443096185e-01,0.000000000000000000e+00,-3.509445042443096185e-01
1.016666666666666607e+00,1.685136144007759333e+09,0.000000000000000000e+00,-3.509445042443096185e-01,0.000000000000000000e+00,-3.509445042443096185e-01
1.033333333333333215e+00,1.685136144025796652e+09,0.000000000000000000e+00,-3.509445042443096185e-01,0.000000000000000000e+00,-3.509445042443096185e-01
1.050000000000000044e+00,1.685136144042796850e+09,0.000000000000000000e+00,-3.509445042443096185e-01,0.000000000000000000e+00,-3.509445042443096185e-01
1.066666666666666652e+00,1.685136144058797121e+09,0.000000000000000000e+00,-3.509445042443096185e-01,0.000000000000000000e+00,-3.509445042443096185e-01
1.083333333333333259e+00,1.685136144075760603e+09,0.000000000000000000e+00,-3.509445042443096185e-01,0.000000000000000000e+00,-3.509445042443096185e-01
1.100000000000000089e+00,1.685136144093796492e+09,0.000000000000000000e+00,-3.509445042443096185e-01,0.000000000000000000e+00,-3.509445042443096185e-01
1.116666666666666696e+00,1.685136144110801220e+09,0.000000000000000000e+00,-3.509445042443096185e-01,0.000000000000000000e+00,-3.509445042443096185e-01
1.133333333333333304e+00,1.685136144126759291e+09,0.000000000000000000e+00,-3.509445042443096185e-01,0.000000000000000000e+00,-3.509445042443096185e-01
1.149999999999999911e+00,1.685136144144761086e+09,0.000000000000000000e+00,-3.509445042443096185e-01,0.000000000000000000e+00,-3.509445042443096185e-01
1.166666666666666741e+00,1.685136144161787987e+09,0.000000000000000000e+00,-3.509445042443096185e-01,0.000000000000000000e+00,-3.509445042443096185e-01
1.183333333333333348e+00,1.685136144180761576e+09,0.000000000000000000e+00,-3.509445042443096185e-01,0.000000000000000000e+00,-3.509445042443096185e-01
1.199999999999999956e+00,1.685136144196766615e+09,0.000000000000000000e+00,-3.509445042443096185e-01,0.000000000000000000e+00,-3.509445042443096185e-01
1.216666666666666563e+00,1.685136144215761900e+09,0.000000000000000000e+00,-3.509445042443096185e-01,0.000000000000000000e+00,-3.509445042443096185e-01
1.233333333333333393e+00,1.685136144232788086e+09,0.000000000000000000e+00,-3.509445042443096185e-01,0.000000000000000000e+00,-3.509445042443096185e-01
1.250000000000000000e+00,1.685136144251761436e+09,0.000000000000000000e+00,-3.509445042443096185e-01,0.000000000000000000e+00,-3.509445042443096185e-01
1.266666666666666607e+00,1.685136144269806623e+09,0.000000000000000000e+00,-3.509445042443096185e-01,0.000000000000000000e+00,-3.509445042443096185e-01
1.283333333333333215e+00,1.685136144283792734e+09,0.000000000000000000e+00,-3.509445042443096185e-01,0.000000000000000000e+00,-3.509445042443096185e-01
1.300000000000000044e+00,1.685136144299786806e+09,0.000000000000000000e+00,-3.509445042443096185e-01,0.000000000000000000e+00,-3.509445042443096185e-01
1.316666666666666652e+00,1.685136144319761276e+09,0.000000000000000000e+00,-3.509445042443096185e-01,0.000000000000000000e+00,-3.509445042443096185e-01
1.333333333333333259e+00,1.685136144337761164e+09,0.000000000000000000e+00,-3.509445042443096185e-01,0.000000000000000000e+00,-3.509445042443096185e-01
1.350000000000000089e+00,1.685136144353760481e+09,0.000000000000000000e+00,-3.509445042443096185e-01,0.000000000000000000e+00,-3.509445042443096185e-01
1.366666666666666696e+00,1.685136144370795488e+09,0.000000000000000000e+00,-3.509445042443096185e-01,0.000000000000000000e+00,-3.509445042443096185e-01
1.383333333333333304e+00,1.685136144388815641e+09,0.000000000000000000e+00,-3.509445042443096185e-01,0.000000000000000000e+00,-3.509445042443096185e-01
1.399999999999999911e+00,1.685136144404787302e+09,0.000000000000000000e+00,-3.509445042443096185e-01,0.000000000000000000e+00,-3.509445042443096185e-01
1.416666666666666741e+00,1.685136144420787811e+09,0.000000000000000000e+00,-3.509445042443096185e-01,0.000000000000000000e+00,-3.509445042443096185e-01
1.433333333333333348e+00,1.685136144438786983e+09,0.000000000000000000e+00,-3.509445042443096185e-01,0.000000000000000000e+00,-3.509445042443096185e-01
1.449999999999999956e+00,1.685136144455805779e+09,0.000000000000000000e+00,-3.509445042443096185e-01,0.000000000000000000e+00,-3.509445042443096185e-01
1.466666666666666563e+00,1.685136144471787691e+09,0.000000000000000000e+00,-3.509445042443096185e-01,0.000000000000000000e+00,-3.509445042443096185e-01
1.483333333333333393e+00,1.685136144488785505e+09,0.000000000000000000e+00,-3.509445042443096185e-01,0.000000000000000000e+00,-3.509445042443096185e-01
1.500000000000000000e+00,1.685136144508788109e+09,0.000000000000000000e+00,-3.509445042443096185e-01,0.000000000000000000e+00,-3.509445042443096185e-01
1.516666666666666607e+00,1.685136144523787498e+09,0.000000000000000000e+00,-3.509445042443096185e-01,0.000000000000000000e+00,-3.509445042443096185e-01
1.533333333333333215e+00,1.685136144541805983e+09,0.000000000000000000e+00,-3.509445042443096185e-01,0.000000000000000000e+00,-3.509445042443096185e-01
1.550000000000000044e+00,1.685136144557759285e+09,0.000000000000000000e+00,-3.509445042443096185e-01,0.000000000000000000e+00,-3.509445042443096185e-01
1.566666666666666652e+00,1.685136144574793339e+09,0.000000000000000000e+00,-3.509445042443096185e-01,0.000000000000000000e+00,-3.509445042443096185e-01
1.583333333333333259e+00,1.685136144591761112e+09,0.000000000000000000e+00,-3.509445042443096185e-01,0.000000000000000000e+00,-3.509445042443096185e-01
1.600000000000000089e+00,1.685136144609786987e+09,0.000000000000000000e+00,-3.509445042443096185e-01,0.000000000000000000e+00,-3.509445042443096185e-01
1.616666666666666696e+00,1.685136144627787828e+09,0.000000000000000000e+00,-3.509445042443096185e-01,0.000000000000000000e+00,-3.509445042443096185e-01
1.633333333333333304e+00,1.685136144642808676e+09,0.000000000000000000e+00,-3.509445042443096185e-01,0.000000000000000000e+00,-3.509445042443096185e-01
1.649999999999999911e+00,1.685136144660785675e+09,0.000000000000000000e+00,-3.669693674518120785e-01,0.000000000000000000e+00,-3.669693674518120785e-01
1.666666666666666741e+00,1.685136144678806067e+09,0.000000000000000000e+00,-3.509445042443096185e-01,0.000000000000000000e+00,-3.509445042443096185e-01
1.683333333333333348e+00,1.685136144694786072e+09,0.000000000000000000e+00,-3.509445042443096185e-01,0.000000000000000000e+00,-3.509445042443096185e-01
1.699999999999999956e+00,1.685136144709785938e+09,0.000000000000000000e+00,-3.669693674518120785e-01,0.000000000000000000e+00,-3.669693674518120785e-01
1.716666666666666563e+00,1.685136144728761196e+09,0.000000000000000000e+00,-3.509445042443096185e-01,0.000000000000000000e+00,-3.509445042443096185e-01
1.733333333333333393e+00,1.685136144745785713e+09,0.000000000000000000e+00,-3.509445042443096185e-01,0.000000000000000000e+00,-3.509445042443096185e-01
1.750000000000000000e+00,1.685136144764764309e+09,0.000000000000000000e+00,-3.509445042443096185e-01,0.000000000000000000e+00,-3.509445042443096185e-01
1.766666666666666607e+00,1.685136144778788567e+09,0.000000000000000000e+00,-3.509445042443096185e-01,0.000000000000000000e+00,-3.509445042443096185e-01
1.783333333333333215e+00,1.685136144797761917e+09,0.000000000000000000e+00,-3.509445042443096185e-01,0.000000000000000000e+00,-3.509445042443096185e-01
1.800000000000000044e+00,1.685136144813762903e+09,0.000000000000000000e+00,-3.509445042443096185e-01,0.000000000000000000e+00,-3.509445042443096185e-01
1.816666666666666652e+00,1.685136144830761671e+09,0.000000000000000000e+00,-3.509445042443096185e-01,0.000000000000000000e+00,-3.509445042443096185e-01
1.833333333333333259e+00,1.685136144847804785e+09,0.000000000000000000e+00,-3.509445042443096185e-01,0.000000000000000000e+00,-3.509445042443096185e-01
1.849999999999999867e+00,1.685136145755956173e+09,0.000000000000000000e+00,-3.509445042443096185e-01,0.000000000000000000e+00,-3.509445042443096185e-01
1.866666666666666696e+00,1.685136145757955790e+09,0.000000000000000000e+00,-3.509445042443096185e-01,0.000000000000000000e+00,-3.509445042443096185e-01
1.883333333333333304e+00,1.685136145774956226e+09,0.000000000000000000e+00,-3.509445042443096185e-01,0.000000000000000000e+00,-3.509445042443096185e-01
1.899999999999999911e+00,1.685136145790982246e+09,0.000000000000000000e+00,-3.509445042443096185e-01,0.000000000000000000e+00,-3.509445042443096185e-01
1.916666666666666741e+00,1.685136145810002804e+09,0.000000000000000000e+00,-3.509445042443096185e-01,0.000000000000000000e+00,-3.509445042443096185e-01
1.933333333333333348e+00,1.685136145825956583e+09,0.000000000000000000e+00,-3.509445042443096185e-01,0.000000000000000000e+00,-3.509445042443096185e-01
1.949999999999999956e+00,1.685136145844271660e+09,0.000000000000000000e+00,-3.509445042443096185e-01,0.000000000000000000e+00,-3.509445042443096185e-01
1.966666666666666563e+00,1.685136145859260321e+09,0.000000000000000000e+00,-3.509445042443096185e-01,0.000000000000000000e+00,-3.509445042443096185e-01
1.983333333333333393e+00,1.685136145877260208e+09,0.000000000000000000e+00,-3.509445042443096185e-01,0.000000000000000000e+00,-3.509445042443096185e-01
2.000000000000000000e+00,1.685136145895260811e+09,0.000000000000000000e+00,-3.509445042443096185e-01,0.000000000000000000e+00,-3.509445042443096185e-01
2.016666666666666607e+00,1.685136145910270929e+09,0.000000000000000000e+00,-3.509445042443096185e-01,0.000000000000000000e+00,-3.509445042443096185e-01
2.033333333333333215e+00,1.685136145928261280e+09,0.000000000000000000e+00,-3.509445042443096185e-01,0.000000000000000000e+00,-3.509445042443096185e-01
2.049999999999999822e+00,1.685136145944261074e+09,0.000000000000000000e+00,-3.509445042443096185e-01,0.000000000000000000e+00,-3.509445042443096185e-01
2.066666666666666430e+00,1.685136145961233377e+09,0.000000000000000000e+00,-3.509445042443096185e-01,0.000000000000000000e+00,-3.509445042443096185e-01
2.083333333333333481e+00,1.685136145978260994e+09,0.000000000000000000e+00,-3.509445042443096185e-01,0.000000000000000000e+00,-3.509445042443096185e-01
2.100000000000000089e+00,1.685136145997234583e+09,0.000000000000000000e+00,-3.509445042443096185e-01,0.000000000000000000e+00,-3.509445042443096185e-01
2.116666666666666696e+00,1.685136146012260199e+09,0.000000000000000000e+00,-3.509445042443096185e-01,0.000000000000000000e+00,-3.509445042443096185e-01
2.133333333333333304e+00,1.685136146029260874e+09,0.000000000000000000e+00,-3.509445042443096185e-01,0.000000000000000000e+00,-3.509445042443096185e-01
2.149999999999999911e+00,1.685136146047262192e+09,0.000000000000000000e+00,-3.509445042443096185e-01,0.000000000000000000e+00,-3.509445042443096185e-01
2.166666666666666519e+00,1.685136146063261986e+09,0.000000000000000000e+00,-3.509445042443096185e-01,0.000000000000000000e+00,-3.509445042443096185e-01
2.183333333333333126e+00,1.685136146080263853e+09,0.000000000000000000e+00,-3.509445042443096185e-01,0.000000000000000000e+00,-3.509445042443096185e-01
2.200000000000000178e+00,1.685136146098236084e+09,0.000000000000000000e+00,-3.509445042443096185e-01,0.000000000000000000e+00,-3.509445042443096185e-01
2.216666666666666785e+00,1.685136146115235806e+09,0.000000000000000000e+00,-3.509445042443096185e-01,0.000000000000000000e+00,-3.509445042443096185e-01
2.233333333333333393e+00,1.685136146133234978e+09,0.000000000000000000e+00,-3.509445042443096185e-01,0.000000000000000000e+00,-3.509445042443096185e-01
2.250000000000000000e+00,1.685136146149236202e+09,0.000000000000000000e+00,-3.509445042443096185e-01,0.000000000000000000e+00,-3.509445042443096185e-01
2.266666666666666607e+00,1.685136146166236401e+09,0.000000000000000000e+00,-3.509445042443096185e-01,0.000000000000000000e+00,-3.509445042443096185e-01
2.283333333333333215e+00,1.685136146184234142e+09,0.000000000000000000e+00,-3.509445042443096185e-01,0.000000000000000000e+00,-3.509445042443096185e-01
2.299999999999999822e+00,1.685136146199261904e+09,0.000000000000000000e+00,-3.509445042443096185e-01,0.000000000000000000e+00,-3.509445042443096185e-01
2.316666666666666430e+00,1.685136146217234612e+09,0.000000000000000000e+00,-3.509445042443096185e-01,0.000000000000000000e+00,-3.509445042443096185e-01
2.333333333333333481e+00,1.685136146235260725e+09,0.000000000000000000e+00,-3.509445042443096185e-01,0.000000000000000000e+00,-3.509445042443096185e-01
2.350000000000000089e+00,1.685136146251233339e+09,0.000000000000000000e+00,-3.509445042443096185e-01,0.000000000000000000e+00,-3.509445042443096185e-01
2.366666666666666696e+00,1.685136146268261671e+09,0.000000000000000000e+00,-3.509445042443096185e-01,0.000000000000000000e+00,-3.509445042443096185e-01
2.383333333333333304e+00,1.685136146285273075e+09,0.000000000000000000e+00,-3.509445042443096185e-01,0.000000000000000000e+00,-3.509445042443096185e-01
2.399999999999999911e+00,1.685136146303292036e+09,0.000000000000000000e+00,-3.509445042443096185e-01,0.000000000000000000e+00,-3.509445042443096185e-01
2.416666666666666519e+00,1.685136146319291115e+09,0.000000000000000000e+00,-3.509445042443096185e-01,0.000000000000000000e+00,-3.509445042443096185e-01
2.433333333333333126e+00,1.685136146337271690e+09,0.000000000000000000e+00,-3.509445042443096185e-01,0.000000000000000000e+00,-3.509445042443096185e-01
2.450000000000000178e+00,1.685136146356271505e+09,0.000000000000000000e+00,-3.509445042443096185e-01,0.000000000000000000e+00,-3.509445042443096185e-01
2.466666666666666785e+00,1.685136146370275259e+09,0.000000000000000000e+00,-3.509445042443096185e-01,0.000000000000000000e+00,-3.509445042443096185e-01
2.483333333333333393e+00,1.685136146388235331e+09,0.000000000000000000e+00,-3.509445042443096185e-01,0.000000000000000000e+00,-3.509445042443096185e-01
2.500000000000000000e+00,1.685136146405271769e+09,0.000000000000000000e+00,-3.509445042443096185e-01,0.000000000000000000e+00,-3.509445042443096185e-01
2.516666666666666607e+00,1.685136146423269749e+09,0.000000000000000000e+00,-3.509445042443096185e-01,0.000000000000000000e+00,-3.509445042443096185e-01
2.533333333333333215e+00,1.685136146440276384e+09,0.000000000000000000e+00,-3.509445042443096185e-01,0.000000000000000000e+00,-3.509445042443096185e-01
2.549999999999999822e+00,1.685136146457269192e+09,0.000000000000000000e+00,-3.509445042443096185e-01,0.000000000000000000e+00,-3.509445042443096185e-01
2.566666666666666430e+00,1.685136146473268509e+09,0.000000000000000000e+00,-3.509445042443096185e-01,0.000000000000000000e+00,-3.509445042443096185e-01
2.583333333333333481e+00,1.685136146493293762e+09,0.000000000000000000e+00,-3.509445042443096185e-01,0.000000000000000000e+00,-3.509445042443096185e-01
2.600000000000000089e+00,1.685136146508269072e+09,0.000000000000000000e+00,-3.509445042443096185e-01,0.000000000000000000e+00,-3.509445042443096185e-01
2.616666666666666696e+00,1.685136146525272131e+09,0.000000000000000000e+00,-3.509445042443096185e-01,0.000000000000000000e+00,-3.509445042443096185e-01
2.633333333333333304e+00,1.685136146544269085e+09,0.000000000000000000e+00,-3.509445042443096185e-01,0.000000000000000000e+00,-3.509445042443096185e-01
2.649999999999999911e+00,1.685136146561276197e+09,0.000000000000000000e+00,-3.509445042443096185e-01,0.000000000000000000e+00,-3.509445042443096185e-01
2.666666666666666519e+00,1.685136146577270508e+09,0.000000000000000000e+00,-3.509445042443096185e-01,0.000000000000000000e+00,-3.509445042443096185e-01
2.683333333333333126e+00,1.685136146595269680e+09,0.000000000000000000e+00,-3.509445042443096185e-01,0.000000000000000000e+00,-3.509445042443096185e-01
2.700000000000000178e+00,1.685136146609262705e+09,0.000000000000000000e+00,-3.509445042443096185e-01,0.000000000000000000e+00,-3.509445042443096185e-01
2.716666666666666785e+00,1.685136146630291224e+09,0.000000000000000000e+00,-3.509445042443096185e-01,0.000000000000000000e+00,-3.509445042443096185e-01
2.733333333333333393e+00,1.685136146646235228e+09,0.000000000000000000e+00,-3.509445042443096185e-01,0.000000000000000000e+00,-3.509445042443096185e-01
2.750000000000000000e+00,1.685136146663268328e+09,0.000000000000000000e+00,-3.509445042443096185e-01,0.000000000000000000e+00,-3.509445042443096185e-01
2.766666666666666607e+00,1.685136146680270195e+09,0.000000000000000000e+00,-3.509445042443096185e-01,0.000000000000000000e+00,-3.509445042443096185e-01
2.783333333333333215e+00,1.685136146699265003e+09,0.000000000000000000e+00,-3.509445042443096185e-01,0.000000000000000000e+00,-3.509445042443096185e-01
2.799999999999999822e+00,1.685136146714271784e+09,0.000000000000000000e+00,-3.509445042443096185e-01,0.000000000000000000e+00,-3.509445042443096185e-01
2.816666666666666430e+00,1.685136146734235048e+09,0.000000000000000000e+00,-3.509445042443096185e-01,0.000000000000000000e+00,-3.509445042443096185e-01
2.833333333333333481e+00,1.685136146751235008e+09,0.000000000000000000e+00,-3.509445042443096185e-01,0.000000000000000000e+00,-3.509445042443096185e-01
2.850000000000000089e+00,1.685136146767235994e+09,0.000000000000000000e+00,-3.509445042443096185e-01,0.000000000000000000e+00,-3.509445042443096185e-01
2.866666666666666696e+00,1.685136146786270142e+09,0.000000000000000000e+00,-3.509445042443096185e-01,0.000000000000000000e+00,-3.509445042443096185e-01
2.883333333333333304e+00,1.685136146803270817e+09,0.000000000000000000e+00,-3.509445042443096185e-01,0.000000000000000000e+00,-3.509445042443096185e-01
2.899999999999999911e+00,1.685136146819256544e+09,0.000000000000000000e+00,-3.509445042443096185e-01,0.000000000000000000e+00,-3.509445042443096185e-01
2.916666666666666519e+00,1.685136146835270166e+09,0.000000000000000000e+00,-3.509445042443096185e-01,0.000000000000000000e+00,-3.509445042443096185e-01
2.933333333333333126e+00,1.685136146852269411e+09,0.000000000000000000e+00,-3.509445042443096185e-01,0.000000000000000000e+00,-3.509445042443096185e-01
2.950000000000000178e+00,1.685136146869269133e+09,0.000000000000000000e+00,-3.509445042443096185e-01,0.000000000000000000e+00,-3.509445042443096185e-01
2.966666666666666785e+00,1.685136146888271809e+09,0.000000000000000000e+00,-3.509445042443096185e-01,0.000000000000000000e+00,-3.509445042443096185e-01
2.983333333333333393e+00,1.685136146904235363e+09,0.000000000000000000e+00,-3.509445042443096185e-01,0.000000000000000000e+00,-3.509445042443096185e-01
3.000000000000000000e+00,1.685136146922262669e+09,0.000000000000000000e+00,-3.509445042443096185e-01,0.000000000000000000e+00,-3.509445042443096185e-01
3.016666666666666607e+00,1.685136146938267231e+09,0.000000000000000000e+00,-3.509445042443096185e-01,0.000000000000000000e+00,-3.509445042443096185e-01
3.033333333333333215e+00,1.685136146954263210e+09,0.000000000000000000e+00,-3.509445042443096185e-01,0.000000000000000000e+00,-3.509445042443096185e-01
3.049999999999999822e+00,1.685136146973261595e+09,0.000000000000000000e+00,-3.509445042443096185e-01,0.000000000000000000e+00,-3.509445042443096185e-01
3.066666666666666430e+00,1.685136146988260031e+09,0.000000000000000000e+00,-3.509445042443096185e-01,0.000000000000000000e+00,-3.509445042443096185e-01
3.083333333333333481e+00,1.685136147005252838e+09,0.000000000000000000e+00,-3.669693674518120785e-01,0.000000000000000000e+00,-3.669693674518120785e-01
3.100000000000000089e+00,1.685136147022281885e+09,0.000000000000000000e+00,-3.509445042443096185e-01,0.000000000000000000e+00,-3.509445042443096185e-01
3.116666666666666696e+00,1.685136147041262150e+09,0.000000000000000000e+00,-3.509445042443096185e-01,0.000000000000000000e+00,-3.509445042443096185e-01
3.133333333333333304e+00,1.685136147058283091e+09,0.000000000000000000e+00,-3.509445042443096185e-01,0.000000000000000000e+00,-3.509445042443096185e-01
3.149999999999999911e+00,1.685136147074268579e+09,0.000000000000000000e+00,-3.509445042443096185e-01,0.000000000000000000e+00,-3.509445042443096185e-01
3.166666666666666519e+00,1.685136147091268539e+09,0.000000000000000000e+00,-3.509445042443096185e-01,0.000000000000000000e+00,-3.509445042443096185e-01
3.183333333333333126e+00,1.685136147108269691e+09,0.000000000000000000e+00,-3.509445042443096185e-01,0.000000000000000000e+00,-3.509445042443096185e-01
3.200000000000000178e+00,1.685136147126294613e+09,0.000000000000000000e+00,-3.509445042443096185e-01,0.000000000000000000e+00,-3.509445042443096185e-01
3.216666666666666785e+00,1.685136147143291235e+09,0.000000000000000000e+00,-3.509445042443096185e-01,0.000000000000000000e+00,-3.509445042443096185e-01
3.233333333333333393e+00,1.685136147161297321e+09,0.000000000000000000e+00,-3.509445042443096185e-01,0.000000000000000000e+00,-3.509445042443096185e-01
3.250000000000000000e+00,1.685136147177269936e+09,0.000000000000000000e+00,-3.509445042443096185e-01,0.000000000000000000e+00,-3.509445042443096185e-01
3.266666666666666607e+00,1.685136147195290089e+09,0.000000000000000000e+00,-3.509445042443096185e-01,0.000000000000000000e+00,-3.509445042443096185e-01
3.283333333333333215e+00,1.685136147214291573e+09,0.000000000000000000e+00,-3.509445042443096185e-01,0.000000000000000000e+00,-3.509445042443096185e-01
3.299999999999999822e+00,1.685136147229270458e+09,0.000000000000000000e+00,-3.509445042443096185e-01,0.000000000000000000e+00,-3.509445042443096185e-01
3.316666666666666430e+00,1.685136147249270916e+09,0.000000000000000000e+00,-3.509445042443096185e-01,0.000000000000000000e+00,-3.509445042443096185e-01
3.333333333333333481e+00,1.685136147263291597e+09,0.000000000000000000e+00,-3.509445042443096185e-01,0.000000000000000000e+00,-3.509445042443096185e-01
3.350000000000000089e+00,1.685136147282290936e+09,0.000000000000000000e+00,-3.509445042443096185e-01,0.000000000000000000e+00,-3.509445042443096185e-01
3.366666666666666696e+00,1.685136147300290108e+09,0.000000000000000000e+00,-3.509445042443096185e-01,0.000000000000000000e+00,-3.509445042443096185e-01
3.383333333333333304e+00,1.685136147315245152e+09,0.000000000000000000e+00,-3.509445042443096185e-01,0.000000000000000000e+00,-3.509445042443096185e-01
3.399999999999999911e+00,1.685136147331271887e+09,0.000000000000000000e+00,-3.509445042443096185e-01,0.000000000000000000e+00,-3.509445042443096185e-01
3.416666666666666519e+00,1.685136147350293398e+09,0.000000000000000000e+00,-3.509445042443096185e-01,0.000000000000000000e+00,-3.509445042443096185e-01
3.433333333333333126e+00,1.685136147367235184e+09,0.000000000000000000e+00,-3.509445042443096185e-01,0.000000000000000000e+00,-3.509445042443096185e-01
3.449999999999999734e+00,1.685136147385292768e+09,0.000000000000000000e+00,-3.509445042443096185e-01,0.000000000000000000e+00,-3.509445042443096185e-01
3.466666666666666785e+00,1.685136147401270151e+09,0.000000000000000000e+00,-3.509445042443096185e-01,0.000000000000000000e+00,-3.509445042443096185e-01
3.483333333333333393e+00,1.685136147418234825e+09,0.000000000000000000e+00,-3.509445042443096185e-01,0.000000000000000000e+00,-3.509445042443096185e-01
3.500000000000000000e+00,1.685136147435270786e+09,0.000000000000000000e+00,-3.509445042443096185e-01,0.000000000000000000e+00,-3.509445042443096185e-01
3.516666666666666607e+00,1.685136147451269865e+09,0.000000000000000000e+00,-3.509445042443096185e-01,0.000000000000000000e+00,-3.509445042443096185e-01
3.533333333333333215e+00,1.685136147470249891e+09,0.000000000000000000e+00,-3.509445042443096185e-01,0.000000000000000000e+00,-3.509445042443096185e-01
3.549999999999999822e+00,1.685136147487268925e+09,0.000000000000000000e+00,-3.509445042443096185e-01,0.000000000000000000e+00,-3.509445042443096185e-01
3.566666666666666430e+00,1.685136147504268408e+09,0.000000000000000000e+00,-3.509445042443096185e-01,0.000000000000000000e+00,-3.509445042443096185e-01
3.583333333333333481e+00,1.685136147521290302e+09,0.000000000000000000e+00,-3.509445042443096185e-01,0.000000000000000000e+00,-3.509445042443096185e-01
3.600000000000000089e+00,1.685136147537270308e+09,0.000000000000000000e+00,-3.509445042443096185e-01,0.000000000000000000e+00,-3.509445042443096185e-01
3.616666666666666696e+00,1.685136147554274559e+09,0.000000000000000000e+00,-3.509445042443096185e-01,0.000000000000000000e+00,-3.509445042443096185e-01
3.633333333333333304e+00,1.685136147572283030e+09,0.000000000000000000e+00,-3.509445042443096185e-01,0.000000000000000000e+00,-3.509445042443096185e-01
3.649999999999999911e+00,1.685136147590283632e+09,0.000000000000000000e+00,-3.509445042443096185e-01,0.000000000000000000e+00,-3.509445042443096185e-01
3.666666666666666519e+00,1.685136147606284857e+09,0.000000000000000000e+00,-3.509445042443096185e-01,0.000000000000000000e+00,-3.509445042443096185e-01
3.683333333333333126e+00,1.685136147622261524e+09,0.000000000000000000e+00,-3.509445042443096185e-01,0.000000000000000000e+00,-3.509445042443096185e-01
3.699999999999999734e+00,1.685136147640261412e+09,0.000000000000000000e+00,-3.509445042443096185e-01,0.000000000000000000e+00,-3.509445042443096185e-01
3.716666666666666785e+00,1.685136147657261133e+09,0.000000000000000000e+00,-3.509445042443096185e-01,0.000000000000000000e+00,-3.509445042443096185e-01
3.733333333333333393e+00,1.685136147673260689e+09,0.000000000000000000e+00,-3.509445042443096185e-01,0.000000000000000000e+00,-3.509445042443096185e-01
3.750000000000000000e+00,1.685136147692259789e+09,0.000000000000000000e+00,-3.509445042443096185e-01,0.000000000000000000e+00,-3.509445042443096185e-01
3.766666666666666607e+00,1.685136147708259583e+09,0.000000000000000000e+00,-3.509445042443096185e-01,0.000000000000000000e+00,-3.509445042443096185e-01
3.783333333333333215e+00,1.685136147724261522e+09,0.000000000000000000e+00,-3.509445042443096185e-01,0.000000000000000000e+00,-3.509445042443096185e-01
3.799999999999999822e+00,1.685136147742282629e+09,0.000000000000000000e+00,-3.509445042443096185e-01,0.000000000000000000e+00,-3.509445042443096185e-01
3.816666666666666430e+00,1.685136147758233309e+09,0.000000000000000000e+00,-3.509445042443096185e-01,0.000000000000000000e+00,-3.509445042443096185e-01
3.833333333333333481e+00,1.685136147777290583e+09,0.000000000000000000e+00,-3.509445042443096185e-01,0.000000000000000000e+00,-3.509445042443096185e-01
3.850000000000000089e+00,1.685136147793235302e+09,0.000000000000000000e+00,-3.509445042443096185e-01,0.000000000000000000e+00,-3.509445042443096185e-01
3.866666666666666696e+00,1.685136147810268879e+09,0.000000000000000000e+00,-3.509445042443096185e-01,0.000000000000000000e+00,-3.509445042443096185e-01
3.883333333333333304e+00,1.685136147827261448e+09,0.000000000000000000e+00,-3.509445042443096185e-01,0.000000000000000000e+00,-3.509445042443096185e-01
3.899999999999999911e+00,1.685136147844234705e+09,0.000000000000000000e+00,-3.509445042443096185e-01,0.000000000000000000e+00,-3.509445042443096185e-01
3.916666666666666519e+00,1.685136147862270117e+09,0.000000000000000000e+00,-3.509445042443096185e-01,0.000000000000000000e+00,-3.509445042443096185e-01
3.933333333333333126e+00,1.685136147879235506e+09,0.000000000000000000e+00,-3.509445042443096185e-01,0.000000000000000000e+00,-3.509445042443096185e-01
3.949999999999999734e+00,1.685136147898236513e+09,0.000000000000000000e+00,-3.509445042443096185e-01,0.000000000000000000e+00,-3.509445042443096185e-01
3.966666666666666785e+00,1.685136147912292242e+09,0.000000000000000000e+00,-3.509445042443096185e-01,0.000000000000000000e+00,-3.509445042443096185e-01
3.983333333333333393e+00,1.685136147931291819e+09,0.000000000000000000e+00,-3.509445042443096185e-01,0.000000000000000000e+00,-3.509445042443096185e-01
4.000000000000000000e+00,1.685136147949244261e+09,0.000000000000000000e+00,-3.509445042443096185e-01,0.000000000000000000e+00,-3.509445042443096185e-01
4.016666666666666607e+00,1.685136147966260910e+09,0.000000000000000000e+00,-3.509445042443096185e-01,0.000000000000000000e+00,-3.509445042443096185e-01
4.033333333333333215e+00,1.685136147983239174e+09,0.000000000000000000e+00,-3.509445042443096185e-01,0.000000000000000000e+00,-3.509445042443096185e-01
4.049999999999999822e+00,1.685136148000235081e+09,0.000000000000000000e+00,-3.509445042443096185e-01,0.000000000000000000e+00,-3.509445042443096185e-01
4.066666666666666430e+00,1.685136148016251564e+09,0.000000000000000000e+00,-3.509445042443096185e-01,0.000000000000000000e+00,-3.509445042443096185e-01
4.083333333333333037e+00,1.685136148035290480e+09,0.000000000000000000e+00,-3.509445042443096185e-01,0.000000000000000000e+00,-3.509445042443096185e-01
4.099999999999999645e+00,1.685136148052280188e+09,0.000000000000000000e+00,-3.509445042443096185e-01,0.000000000000000000e+00,-3.509445042443096185e-01
4.116666666666666252e+00,1.685136148068262577e+09,0.000000000000000000e+00,-3.509445042443096185e-01,0.000000000000000000e+00,-3.509445042443096185e-01
4.133333333333332860e+00,1.685136148086261988e+09,0.000000000000000000e+00,-3.509445042443096185e-01,0.000000000000000000e+00,-3.509445042443096185e-01
4.150000000000000355e+00,1.685136148100290298e+09,0.000000000000000000e+00,-3.509445042443096185e-01,0.000000000000000000e+00,-3.509445042443096185e-01
4.166666666666666963e+00,1.685136148119259834e+09,0.000000000000000000e+00,-3.509445042443096185e-01,0.000000000000000000e+00,-3.509445042443096185e-01
4.183333333333333570e+00,1.685136148134280205e+09,0.000000000000000000e+00,-3.509445042443096185e-01,0.000000000000000000e+00,-3.509445042443096185e-01
4.200000000000000178e+00,1.685136148155290604e+09,0.000000000000000000e+00,-3.509445042443096185e-01,0.000000000000000000e+00,-3.509445042443096185e-01
4.216666666666666785e+00,1.685136148173291206e+09,0.000000000000000000e+00,-3.509445042443096185e-01,0.000000000000000000e+00,-3.509445042443096185e-01
4.233333333333333393e+00,1.685136148189233541e+09,0.000000000000000000e+00,-3.509445042443096185e-01,0.000000000000000000e+00,-3.509445042443096185e-01
4.250000000000000000e+00,1.685136148207271576e+09,0.000000000000000000e+00,-3.509445042443096185e-01,0.000000000000000000e+00,-3.509445042443096185e-01
4.266666666666666607e+00,1.685136148225290298e+09,0.000000000000000000e+00,-3.509445042443096185e-01,0.000000000000000000e+00,-3.509445042443096185e-01
4.283333333333333215e+00,1.685136148240290165e+09,0.000000000000000000e+00,-3.509445042443096185e-01,0.000000000000000000e+00,-3.509445042443096185e-01
4.299999999999999822e+00,1.685136148258269310e+09,0.000000000000000000e+00,-3.509445042443096185e-01,0.000000000000000000e+00,-3.509445042443096185e-01
4.316666666666666430e+00,1.685136148277268171e+09,0.000000000000000000e+00,-3.509445042443096185e-01,0.000000000000000000e+00,-3.509445042443096185e-01
4.333333333333333037e+00,1.685136148293269396e+09,0.000000000000000000e+00,-3.509445042443096185e-01,0.000000000000000000e+00,-3.509445042443096185e-01
4.349999999999999645e+00,1.685136148310269594e+09,0.000000000000000000e+00,-3.509445042443096185e-01,0.000000000000000000e+00,-3.509445042443096185e-01
4.366666666666666252e+00,1.685136148327274084e+09,0.000000000000000000e+00,-3.509445042443096185e-01,0.000000000000000000e+00,-3.509445042443096185e-01
4.383333333333332860e+00,1.685136148343262672e+09,0.000000000000000000e+00,-3.509445042443096185e-01,0.000000000000000000e+00,-3.509445042443096185e-01
4.400000000000000355e+00,1.685136148362291813e+09,0.000000000000000000e+00,-3.509445042443096185e-01,0.000000000000000000e+00,-3.509445042443096185e-01
4.416666666666666963e+00,1.685136148378270149e+09,0.000000000000000000e+00,-3.509445042443096185e-01,0.000000000000000000e+00,-3.509445042443096185e-01
4.433333333333333570e+00,1.685136148394261837e+09,0.000000000000000000e+00,-3.509445042443096185e-01,0.000000000000000000e+00,-3.509445042443096185e-01
4.450000000000000178e+00,1.685136148413269997e+09,0.000000000000000000e+00,-3.509445042443096185e-01,0.000000000000000000e+00,-3.509445042443096185e-01
4.466666666666666785e+00,1.685136148430264950e+09,0.000000000000000000e+00,-3.509445042443096185e-01,0.000000000000000000e+00,-3.509445042443096185e-01
4.483333333333333393e+00,1.685136148448260784e+09,0.000000000000000000e+00,-3.509445042443096185e-01,0.000000000000000000e+00,-3.509445042443096185e-01
4.500000000000000000e+00,1.685136148462233782e+09,0.000000000000000000e+00,-3.509445042443096185e-01,0.000000000000000000e+00,-3.509445042443096185e-01
4.516666666666666607e+00,1.685136148479292393e+09,0.000000000000000000e+00,-3.509445042443096185e-01,0.000000000000000000e+00,-3.509445042443096185e-01
4.533333333333333215e+00,1.685136148498234987e+09,0.000000000000000000e+00,-3.509445042443096185e-01,0.000000000000000000e+00,-3.509445042443096185e-01
4.549999999999999822e+00,1.685136148513290405e+09,0.000000000000000000e+00,-3.509445042443096185e-01,0.000000000000000000e+00,-3.509445042443096185e-01
4.566666666666666430e+00,1.685136148531270504e+09,0.000000000000000000e+00,-3.509445042443096185e-01,0.000000000000000000e+00,-3.509445042443096185e-01
4.583333333333333037e+00,1.685136148549269199e+09,0.000000000000000000e+00,-3.509445042443096185e-01,0.000000000000000000e+00,-3.509445042443096185e-01
4.599999999999999645e+00,1.685136148565269709e+09,0.000000000000000000e+00,-3.509445042443096185e-01,0.000000000000000000e+00,-3.509445042443096185e-01
4.616666666666666252e+00,1.685136148581268787e+09,0.000000000000000000e+00,-3.509445042443096185e-01,0.000000000000000000e+00,-3.509445042443096185e-01
4.633333333333332860e+00,1.685136148599233150e+09,0.000000000000000000e+00,-3.509445042443096185e-01,0.000000000000000000e+00,-3.509445042443096185e-01
4.650000000000000355e+00,1.685136148617233515e+09,0.000000000000000000e+00,-3.509445042443096185e-01,0.000000000000000000e+00,-3.509445042443096185e-01
4.666666666666666963e+00,1.685136148634290695e+09,0.000000000000000000e+00,-3.509445042443096185e-01,0.000000000000000000e+00,-3.509445042443096185e-01
4.683333333333333570e+00,1.685136148651264429e+09,0.000000000000000000e+00,-3.509445042443096185e-01,0.000000000000000000e+00,-3.509445042443096185e-01
4.700000000000000178e+00,1.685136148667270422e+09,0.000000000000000000e+00,-3.509445042443096185e-01,0.000000000000000000e+00,-3.509445042443096185e-01
4.716666666666666785e+00,1.685136148683236599e+09,0.000000000000000000e+00,-3.509445042443096185e-01,0.000000000000000000e+00,-3.509445042443096185e-01
4.733333333333333393e+00,1.685136148704291105e+09,0.000000000000000000e+00,-3.509445042443096185e-01,0.000000000000000000e+00,-3.509445042443096185e-01
4.750000000000000000e+00,1.685136148722290754e+09,0.000000000000000000e+00,-3.509445042443096185e-01,0.000000000000000000e+00,-3.509445042443096185e-01
4.766666666666666607e+00,1.685136148738235235e+09,0.000000000000000000e+00,-3.509445042443096185e-01,0.000000000000000000e+00,-3.509445042443096185e-01
4.783333333333333215e+00,1.685136148756269693e+09,0.000000000000000000e+00,-3.509445042443096185e-01,0.000000000000000000e+00,-3.509445042443096185e-01
4.799999999999999822e+00,1.685136148772235155e+09,0.000000000000000000e+00,-3.509445042443096185e-01,0.000000000000000000e+00,-3.509445042443096185e-01
4.816666666666666430e+00,1.685136148786290646e+09,0.000000000000000000e+00,-3.509445042443096185e-01,0.000000000000000000e+00,-3.509445042443096185e-01
4.833333333333333037e+00,1.685136148805272102e+09,0.000000000000000000e+00,-3.509445042443096185e-01,0.000000000000000000e+00,-3.509445042443096185e-01
4.849999999999999645e+00,1.685136148823291540e+09,0.000000000000000000e+00,-3.509445042443096185e-01,0.000000000000000000e+00,-3.509445042443096185e-01
4.866666666666666252e+00,1.685136148840271711e+09,0.000000000000000000e+00,-3.509445042443096185e-01,0.000000000000000000e+00,-3.509445042443096185e-01
4.883333333333332860e+00,1.685136148855233192e+09,0.000000000000000000e+00,-3.509445042443096185e-01,0.000000000000000000e+00,-3.509445042443096185e-01
4.900000000000000355e+00,1.685136148872233868e+09,0.000000000000000000e+00,-3.509445042443096185e-01,0.000000000000000000e+00,-3.509445042443096185e-01
4.916666666666666963e+00,1.685136148889233112e+09,0.000000000000000000e+00,-3.509445042443096185e-01,0.000000000000000000e+00,-3.509445042443096185e-01
4.933333333333333570e+00,1.685136148906233311e+09,0.000000000000000000e+00,-3.509445042443096185e-01,0.000000000000000000e+00,-3.509445042443096185e-01
4.950000000000000178e+00,1.685136148924270391e+09,0.000000000000000000e+00,-3.509445042443096185e-01,0.000000000000000000e+00,-3.509445042443096185e-01
4.966666666666666785e+00,1.685136148940235138e+09,0.000000000000000000e+00,-3.509445042443096185e-01,0.000000000000000000e+00,-3.509445042443096185e-01
4.983333333333333393e+00,1.685136148958233118e+09,0.000000000000000000e+00,-3.509445042443096185e-01,0.000000000000000000e+00,-3.509445042443096185e-01
5.000000000000000000e+00,1.685136148979260683e+09,0.000000000000000000e+00,-3.509445042443096185e-01,0.000000000000000000e+00,-3.509445042443096185e-01
5.016666666666666607e+00,1.685136148995293140e+09,0.000000000000000000e+00,-3.509445042443096185e-01,0.000000000000000000e+00,-3.509445042443096185e-01
5.033333333333333215e+00,1.685136149009282827e+09,0.000000000000000000e+00,-3.509445042443096185e-01,0.000000000000000000e+00,-3.509445042443096185e-01
5.049999999999999822e+00,1.685136149026260614e+09,0.000000000000000000e+00,-3.509445042443096185e-01,0.000000000000000000e+00,-3.509445042443096185e-01
5.066666666666666430e+00,1.685136149043271303e+09,0.000000000000000000e+00,-3.509445042443096185e-01,0.000000000000000000e+00,-3.509445042443096185e-01
5.083333333333333037e+00,1.685136149061262608e+09,0.000000000000000000e+00,-3.509445042443096185e-01,0.000000000000000000e+00,-3.509445042443096185e-01
5.099999999999999645e+00,1.685136149079268456e+09,0.000000000000000000e+00,-3.509445042443096185e-01,0.000000000000000000e+00,-3.509445042443096185e-01
5.116666666666666252e+00,1.685136149096292734e+09,0.000000000000000000e+00,-3.509445042443096185e-01,0.000000000000000000e+00,-3.509445042443096185e-01
5.133333333333332860e+00,1.685136149113268137e+09,0.000000000000000000e+00,-3.509445042443096185e-01,0.000000000000000000e+00,-3.509445042443096185e-01
5.150000000000000355e+00,1.685136149130235195e+09,0.000000000000000000e+00,-3.509445042443096185e-01,0.000000000000000000e+00,-3.509445042443096185e-01
5.166666666666666963e+00,1.685136149146270514e+09,0.000000000000000000e+00,-3.509445042443096185e-01,0.000000000000000000e+00,-3.509445042443096185e-01
5.183333333333333570e+00,1.685136149163292408e+09,0.000000000000000000e+00,-3.509445042443096185e-01,0.000000000000000000e+00,-3.509445042443096185e-01
5.200000000000000178e+00,1.685136149179292440e+09,0.000000000000000000e+00,-3.509445042443096185e-01,0.000000000000000000e+00,-3.509445042443096185e-01
5.216666666666666785e+00,1.685136149197292566e+09,0.000000000000000000e+00,-3.509445042443096185e-01,0.000000000000000000e+00,-3.509445042443096185e-01
5.233333333333333393e+00,1.685136149217274189e+09,0.000000000000000000e+00,-3.509445042443096185e-01,0.000000000000000000e+00,-3.509445042443096185e-01
5.250000000000000000e+00,1.685136149232296944e+09,0.000000000000000000e+00,-3.509445042443096185e-01,0.000000000000000000e+00,-3.509445042443096185e-01
5.266666666666666607e+00,1.685136149250236988e+09,0.000000000000000000e+00,-3.509445042443096185e-01,0.000000000000000000e+00,-3.509445042443096185e-01
5.283333333333333215e+00,1.685136149266269445e+09,0.000000000000000000e+00,-3.509445042443096185e-01,0.000000000000000000e+00,-3.509445042443096185e-01
5.299999999999999822e+00,1.685136149283261538e+09,0.000000000000000000e+00,-3.509445042443096185e-01,0.000000000000000000e+00,-3.509445042443096185e-01
5.316666666666666430e+00,1.685136149302261114e+09,0.000000000000000000e+00,-3.509445042443096185e-01,0.000000000000000000e+00,-3.509445042443096185e-01
5.333333333333333037e+00,1.685136149318234682e+09,0.000000000000000000e+00,-3.509445042443096185e-01,0.000000000000000000e+00,-3.509445042443096185e-01
5.349999999999999645e+00,1.685136149333298206e+09,0.000000000000000000e+00,-3.509445042443096185e-01,0.000000000000000000e+00,-3.509445042443096185e-01
5.366666666666666252e+00,1.685136149351290941e+09,0.000000000000000000e+00,-3.509445042443096185e-01,0.000000000000000000e+00,-3.509445042443096185e-01
5.383333333333332860e+00,1.685136149368272066e+09,0.000000000000000000e+00,-3.509445042443096185e-01,0.000000000000000000e+00,-3.509445042443096185e-01
5.400000000000000355e+00,1.685136149386271238e+09,0.000000000000000000e+00,-3.509445042443096185e-01,0.000000000000000000e+00,-3.509445042443096185e-01
5.416666666666666963e+00,1.685136149403234959e+09,0.000000000000000000e+00,-3.509445042443096185e-01,0.000000000000000000e+00,-3.509445042443096185e-01
5.433333333333333570e+00,1.685136149421269894e+09,0.000000000000000000e+00,-3.509445042443096185e-01,0.000000000000000000e+00,-3.509445042443096185e-01
5.450000000000000178e+00,1.685136149437269688e+09,0.000000000000000000e+00,-3.509445042443096185e-01,0.000000000000000000e+00,-3.509445042443096185e-01
5.466666666666666785e+00,1.685136149453274488e+09,0.000000000000000000e+00,-3.509445042443096185e-01,0.000000000000000000e+00,-3.509445042443096185e-01
5.483333333333333393e+00,1.685136149471269608e+09,0.000000000000000000e+00,-3.509445042443096185e-01,0.000000000000000000e+00,-3.509445042443096185e-01
5.500000000000000000e+00,1.685136149488270044e+09,0.000000000000000000e+00,-3.509445042443096185e-01,0.000000000000000000e+00,-3.509445042443096185e-01
5.516666666666666607e+00,1.685136149505271673e+09,0.000000000000000000e+00,-3.509445042443096185e-01,0.000000000000000000e+00,-3.509445042443096185e-01
5.533333333333333215e+00,1.685136149523270130e+09,0.000000000000000000e+00,-3.509445042443096185e-01,0.000000000000000000e+00,-3.509445042443096185e-01
5.549999999999999822e+00,1.685136149540293217e+09,0.000000000000000000e+00,-3.509445042443096185e-01,0.000000000000000000e+00,-3.509445042443096185e-01
5.566666666666666430e+00,1.685136149557269812e+09,0.000000000000000000e+00,-3.509445042443096185e-01,0.000000000000000000e+00,-3.509445042443096185e-01
5.583333333333333037e+00,1.685136149575268269e+09,0.000000000000000000e+00,-3.509445042443096185e-01,0.000000000000000000e+00,-3.509445042443096185e-01
5.599999999999999645e+00,1.685136149593269587e+09,0.000000000000000000e+00,-3.509445042443096185e-01,0.000000000000000000e+00,-3.509445042443096185e-01
5.616666666666666252e+00,1.685136149610261679e+09,0.000000000000000000e+00,-3.509445042443096185e-01,0.000000000000000000e+00,-3.509445042443096185e-01
5.633333333333332860e+00,1.685136149626270533e+09,0.000000000000000000e+00,-3.509445042443096185e-01,0.000000000000000000e+00,-3.509445042443096185e-01
5.650000000000000355e+00,1.685136149643270254e+09,0.000000000000000000e+00,-3.509445042443096185e-01,0.000000000000000000e+00,-3.509445042443096185e-01
5.666666666666666963e+00,1.685136149662271738e+09,0.000000000000000000e+00,-3.509445042443096185e-01,0.000000000000000000e+00,-3.509445042443096185e-01
5.683333333333333570e+00,1.685136149678276300e+09,0.000000000000000000e+00,-3.509445042443096185e-01,0.000000000000000000e+00,-3.509445042443096185e-01
5.700000000000000178e+00,1.685136149695272684e+09,0.000000000000000000e+00,-3.509445042443096185e-01,0.000000000000000000e+00,-3.509445042443096185e-01
5.716666666666666785e+00,1.685136149713234901e+09,0.000000000000000000e+00,-3.509445042443096185e-01,0.000000000000000000e+00,-3.509445042443096185e-01
5.733333333333333393e+00,1.685136149729233742e+09,0.000000000000000000e+00,-3.509445042443096185e-01,0.000000000000000000e+00,-3.509445042443096185e-01
5.750000000000000000e+00,1.685136149746292353e+09,0.000000000000000000e+00,-3.509445042443096185e-01,0.000000000000000000e+00,-3.509445042443096185e-01
5.766666666666666607e+00,1.685136149764269590e+09,0.000000000000000000e+00,-3.509445042443096185e-01,0.000000000000000000e+00,-3.509445042443096185e-01
5.783333333333333215e+00,1.685136149781270266e+09,0.000000000000000000e+00,-3.509445042443096185e-01,0.000000000000000000e+00,-3.509445042443096185e-01
5.799999999999999822e+00,1.685136149798233271e+09,0.000000000000000000e+00,-3.509445042443096185e-01,0.000000000000000000e+00,-3.509445042443096185e-01
5.816666666666666430e+00,1.685136149814270258e+09,0.000000000000000000e+00,-3.509445042443096185e-01,0.000000000000000000e+00,-3.509445042443096185e-01
5.833333333333333037e+00,1.685136149832261324e+09,0.000000000000000000e+00,-3.509445042443096185e-01,0.000000000000000000e+00,-3.509445042443096185e-01
5.849999999999999645e+00,1.685136149850290775e+09,0.000000000000000000e+00,-3.509445042443096185e-01,0.000000000000000000e+00,-3.509445042443096185e-01
5.866666666666666252e+00,1.685136149867235184e+09,0.000000000000000000e+00,-3.509445042443096185e-01,0.000000000000000000e+00,-3.509445042443096185e-01
5.883333333333332860e+00,1.685136149884234905e+09,0.000000000000000000e+00,-3.509445042443096185e-01,0.000000000000000000e+00,-3.509445042443096185e-01
5.900000000000000355e+00,1.685136149902271032e+09,0.000000000000000000e+00,-3.509445042443096185e-01,0.000000000000000000e+00,-3.509445042443096185e-01
5.916666666666666963e+00,1.685136149918291092e+09,0.000000000000000000e+00,-3.509445042443096185e-01,0.000000000000000000e+00,-3.509445042443096185e-01
5.933333333333333570e+00,1.685136149935270309e+09,0.000000000000000000e+00,-3.509445042443096185e-01,0.000000000000000000e+00,-3.509445042443096185e-01
5.950000000000000178e+00,1.685136149953271627e+09,0.000000000000000000e+00,-3.509445042443096185e-01,0.000000000000000000e+00,-3.509445042443096185e-01
5.966666666666666785e+00,1.685136149971290350e+09,0.000000000000000000e+00,-3.509445042443096185e-01,0.000000000000000000e+00,-3.509445042443096185e-01
5.983333333333333393e+00,1.685136149987233162e+09,0.000000000000000000e+00,-3.509445042443096185e-01,0.000000000000000000e+00,-3.509445042443096185e-01
6.000000000000000000e+00,1.685136150007269621e+09,0.000000000000000000e+00,-3.509445042443096185e-01,0.000000000000000000e+00,-3.509445042443096185e-01
6.016666666666666607e+00,1.685136150025261164e+09,0.000000000000000000e+00,-3.509445042443096185e-01,0.000000000000000000e+00,-3.509445042443096185e-01
6.033333333333333215e+00,1.685136150039260864e+09,0.000000000000000000e+00,-3.509445042443096185e-01,0.000000000000000000e+00,-3.509445042443096185e-01
6.049999999999999822e+00,1.685136150056234598e+09,0.000000000000000000e+00,-3.509445042443096185e-01,0.000000000000000000e+00,-3.509445042443096185e-01
6.066666666666666430e+00,1.685136150073261499e+09,0.000000000000000000e+00,-3.509445042443096185e-01,0.000000000000000000e+00,-3.509445042443096185e-01
6.083333333333333037e+00,1.685136150089233160e+09,0.000000000000000000e+00,-3.509445042443096185e-01,0.000000000000000000e+00,-3.509445042443096185e-01
6.099999999999999645e+00,1.685136150107235193e+09,0.000000000000000000e+00,-3.509445042443096185e-01,0.000000000000000000e+00,-3.509445042443096185e-01
6.116666666666666252e+00,1.685136150124235630e+09,0.000000000000000000e+00,-3.509445042443096185e-01,0.000000000000000000e+00,-3.509445042443096185e-01
6.133333333333332860e+00,1.685136150142235041e+09,0.000000000000000000e+00,-3.509445042443096185e-01,0.000000000000000000e+00,-3.509445042443096185e-01
6.150000000000000355e+00,1.685136150160270691e+09,0.000000000000000000e+00,-3.509445042443096185e-01,0.000000000000000000e+00,-3.509445042443096185e-01
6.166666666666666963e+00,1.685136150177235365e+09,0.000000000000000000e+00,-3.509445042443096185e-01,0.000000000000000000e+00,-3.509445042443096185e-01
6.183333333333333570e+00,1.685136150193269730e+09,0.000000000000000000e+00,-3.509445042443096185e-01,0.000000000000000000e+00,-3.509445042443096185e-01
6.200000000000000178e+00,1.685136150210269690e+09,0.000000000000000000e+00,-3.509445042443096185e-01,0.000000000000000000e+00,-3.509445042443096185e-01
6.216666666666666785e+00,1.685136150229290962e+09,0.000000000000000000e+00,-3.509445042443096185e-01,0.000000000000000000e+00,-3.509445042443096185e-01
6.233333333333333393e+00,1.685136150247272253e+09,0.000000000000000000e+00,-3.509445042443096185e-01,0.000000000000000000e+00,-3.509445042443096185e-01
6.250000000000000000e+00,1.685136150262270451e+09,0.000000000000000000e+00,-3.509445042443096185e-01,0.000000000000000000e+00,-3.509445042443096185e-01
6.266666666666666607e+00,1.685136150279272318e+09,0.000000000000000000e+00,-3.509445042443096185e-01,0.000000000000000000e+00,-3.509445042443096185e-01
6.283333333333333215e+00,1.685136150294233799e+09,0.000000000000000000e+00,-3.509445042443096185e-01,0.000000000000000000e+00,-3.509445042443096185e-01
6.299999999999999822e+00,1.685136150312270164e+09,0.000000000000000000e+00,-3.509445042443096185e-01,0.000000000000000000e+00,-3.509445042443096185e-01
6.316666666666666430e+00,1.685136150329267740e+09,0.000000000000000000e+00,-3.349196410368071586e-01,0.000000000000000000e+00,-3.349196410368071586e-01
6.333333333333333037e+00,1.685136150346272945e+09,0.000000000000000000e+00,-3.349196410368071586e-01,0.000000000000000000e+00,-3.349196410368071586e-01
6.349999999999999645e+00,1.685136150363270283e+09,0.000000000000000000e+00,-3.349196410368071586e-01,0.000000000000000000e+00,-3.349196410368071586e-01
6.366666666666666252e+00,1.685136150380271435e+09,0.000000000000000000e+00,-3.188947778293041435e-01,0.000000000000000000e+00,-3.188947778293041435e-01
6.383333333333332860e+00,1.685136150398274422e+09,0.000000000000000000e+00,-3.028699146218016836e-01,0.000000000000000000e+00,-3.028699146218016836e-01
6.400000000000000355e+00,1.685136150414290428e+09,0.000000000000000000e+00,-2.868450514142986130e-01,0.000000000000000000e+00,-2.868450514142986130e-01
6.416666666666666963e+00,1.685136150432270050e+09,0.000000000000000000e+00,-2.868450514142986130e-01,0.000000000000000000e+00,-2.868450514142986130e-01
6.433333333333333570e+00,1.685136150451236725e+09,0.000000000000000000e+00,-2.708201882067962085e-01,0.000000000000000000e+00,-2.708201882067962085e-01
6.450000000000000178e+00,1.685136150467259645e+09,0.000000000000000000e+00,-2.387704617917906780e-01,0.000000000000000000e+00,-2.387704617917906780e-01
6.466666666666666785e+00,1.685136150483282328e+09,0.000000000000000000e+00,-2.227455985842876351e-01,0.000000000000000000e+00,-2.227455985842876351e-01
6.483333333333333393e+00,1.685136150500233173e+09,0.000000000000000000e+00,-1.906958721692821324e-01,0.000000000000000000e+00,-1.906958721692821324e-01
6.500000000000000000e+00,1.685136150520235062e+09,0.000000000000000000e+00,-1.746710089617797002e-01,0.000000000000000000e+00,-1.746710089617797002e-01
6.516666666666666607e+00,1.685136150536269426e+09,0.000000000000000000e+00,-1.586461457542766296e-01,0.000000000000000000e+00,-1.586461457542766296e-01
6.533333333333333215e+00,1.685136150554292917e+09,0.000000000000000000e+00,-1.586461457542766296e-01,0.000000000000000000e+00,-1.586461457542766296e-01
6.549999999999999822e+00,1.685136150570271492e+09,0.000000000000000000e+00,-1.586461457542766296e-01,0.000000000000000000e+00,-1.586461457542766296e-01
6.566666666666666430e+00,1.685136150585284710e+09,0.000000000000000000e+00,-1.586461457542766296e-01,0.000000000000000000e+00,-1.586461457542766296e-01
6.583333333333333037e+00,1.685136150604270458e+09,0.000000000000000000e+00,-1.586461457542766296e-01,0.000000000000000000e+00,-1.586461457542766296e-01
6.599999999999999645e+00,1.685136150621235132e+09,0.000000000000000000e+00,-1.586461457542766296e-01,0.000000000000000000e+00,-1.586461457542766296e-01
6.616666666666666252e+00,1.685136150640233278e+09,0.000000000000000000e+00,-1.586461457542766296e-01,0.000000000000000000e+00,-1.586461457542766296e-01
6.633333333333332860e+00,1.685136150656269550e+09,0.000000000000000000e+00,-1.586461457542766296e-01,0.000000000000000000e+00,-1.586461457542766296e-01
6.649999999999999467e+00,1.685136150673275471e+09,0.000000000000000000e+00,-1.586461457542766296e-01,0.000000000000000000e+00,-1.586461457542766296e-01
6.666666666666666963e+00,1.685136150691269398e+09,0.000000000000000000e+00,-1.586461457542766296e-01,0.000000000000000000e+00,-1.586461457542766296e-01
6.683333333333333570e+00,1.685136150707269192e+09,0.000000000000000000e+00,-1.586461457542766296e-01,0.000000000000000000e+00,-1.586461457542766296e-01
6.700000000000000178e+00,1.685136150723269224e+09,0.000000000000000000e+00,-1.586461457542766296e-01,0.000000000000000000e+00,-1.586461457542766296e-01
6.716666666666666785e+00,1.685136150739274025e+09,0.000000000000000000e+00,-1.586461457542766296e-01,0.000000000000000000e+00,-1.586461457542766296e-01
6.733333333333333393e+00,1.685136150757270098e+09,0.000000000000000000e+00,-1.586461457542766296e-01,0.000000000000000000e+00,-1.586461457542766296e-01
6.750000000000000000e+00,1.685136150774269581e+09,0.000000000000000000e+00,-1.586461457542766296e-01,0.000000000000000000e+00,-1.586461457542766296e-01
6.766666666666666607e+00,1.685136150793290377e+09,0.000000000000000000e+00,-1.586461457542766296e-01,0.000000000000000000e+00,-1.586461457542766296e-01
6.783333333333333215e+00,1.685136150809269428e+09,0.000000000000000000e+00,-1.586461457542766296e-01,0.000000000000000000e+00,-1.586461457542766296e-01
6.799999999999999822e+00,1.685136150826234818e+09,0.000000000000000000e+00,-1.586461457542766296e-01,0.000000000000000000e+00,-1.586461457542766296e-01
6.816666666666666430e+00,1.685136150844280958e+09,0.000000000000000000e+00,-1.586461457542766296e-01,0.000000000000000000e+00,-1.586461457542766296e-01
6.833333333333333037e+00,1.685136150860237598e+09,0.000000000000000000e+00,-1.586461457542766296e-01,0.000000000000000000e+00,-1.586461457542766296e-01
6.849999999999999645e+00,1.685136150879235029e+09,0.000000000000000000e+00,-1.426212825467741974e-01,0.000000000000000000e+00,-1.426212825467741974e-01
6.866666666666666252e+00,1.685136150896233320e+09,0.000000000000000000e+00,-1.426212825467741974e-01,0.000000000000000000e+00,-1.426212825467741974e-01
6.883333333333332860e+00,1.685136150912268400e+09,0.000000000000000000e+00,-1.426212825467741974e-01,0.000000000000000000e+00,-1.426212825467741974e-01
6.899999999999999467e+00,1.685136150930268526e+09,0.000000000000000000e+00,-1.426212825467741974e-01,0.000000000000000000e+00,-1.426212825467741974e-01
6.916666666666666963e+00,1.685136150946297407e+09,0.000000000000000000e+00,-1.265964193392711545e-01,0.000000000000000000e+00,-1.265964193392711545e-01
6.933333333333333570e+00,1.685136150963273287e+09,0.000000000000000000e+00,-1.265964193392711545e-01,0.000000000000000000e+00,-1.265964193392711545e-01
6.950000000000000178e+00,1.685136150980269194e+09,0.000000000000000000e+00,-1.105715561317686946e-01,0.000000000000000000e+00,-1.105715561317686946e-01
6.966666666666666785e+00,1.685136150997271061e+09,0.000000000000000000e+00,-1.105715561317686946e-01,0.000000000000000000e+00,-1.105715561317686946e-01
6.983333333333333393e+00,1.685136151015234947e+09,0.000000000000000000e+00,-9.454669292426565175e-02,0.000000000000000000e+00,-9.454669292426565175e-02
7.000000000000000000e+00,1.685136151033235788e+09,0.000000000000000000e+00,-9.454669292426565175e-02,0.000000000000000000e+00,-9.454669292426565175e-02
7.016666666666666607e+00,1.685136151049269915e+09,0.000000000000000000e+00,-9.454669292426565175e-02,0.000000000000000000e+00,-9.454669292426565175e-02
7.033333333333333215e+00,1.685136151066276550e+09,0.000000000000000000e+00,-7.852182971676319179e-02,0.000000000000000000e+00,-7.852182971676319179e-02
7.049999999999999822e+00,1.685136151083270073e+09,0.000000000000000000e+00,-7.852182971676319179e-02,0.000000000000000000e+00,-7.852182971676319179e-02
7.066666666666666430e+00,1.685136151099267960e+09,0.000000000000000000e+00,-7.852182971676319179e-02,0.000000000000000000e+00,-7.852182971676319179e-02
7.083333333333333037e+00,1.685136151118270874e+09,0.000000000000000000e+00,-6.249696650926014896e-02,0.000000000000000000e+00,-6.249696650926014896e-02
7.099999999999999645e+00,1.685136151133290529e+09,0.000000000000000000e+00,-6.249696650926014896e-02,0.000000000000000000e+00,-6.249696650926014896e-02
7.116666666666666252e+00,1.685136151151268005e+09,0.000000000000000000e+00,-6.249696650926014896e-02,0.000000000000000000e+00,-6.249696650926014896e-02
7.133333333333332860e+00,1.685136151169291258e+09,0.000000000000000000e+00,-6.249696650926014896e-02,0.000000000000000000e+00,-6.249696650926014896e-02
7.149999999999999467e+00,1.685136151186236620e+09,0.000000000000000000e+00,-6.249696650926014896e-02,0.000000000000000000e+00,-6.249696650926014896e-02
7.166666666666666963e+00,1.685136151203293324e+09,0.000000000000000000e+00,-6.249696650926014896e-02,0.000000000000000000e+00,-6.249696650926014896e-02
7.183333333333333570e+00,1.685136151221270800e+09,0.000000000000000000e+00,-6.249696650926014896e-02,0.000000000000000000e+00,-6.249696650926014896e-02
7.200000000000000178e+00,1.685136151239290237e+09,0.000000000000000000e+00,-4.647210330175770288e-02,0.000000000000000000e+00,-4.647210330175770288e-02
7.216666666666666785e+00,1.685136151256234884e+09,0.000000000000000000e+00,-4.647210330175770288e-02,0.000000000000000000e+00,-4.647210330175770288e-02
7.233333333333333393e+00,1.685136151272292852e+09,0.000000000000000000e+00,-3.044724009425465311e-02,0.000000000000000000e+00,-3.044724009425465311e-02
7.250000000000000000e+00,1.685136151290235043e+09,0.000000000000000000e+00,-3.044724009425465311e-02,0.000000000000000000e+00,-3.044724009425465311e-02
7.266666666666666607e+00,1.685136151306233406e+09,0.000000000000000000e+00,-3.044724009425465311e-02,0.000000000000000000e+00,-3.044724009425465311e-02
7.283333333333333215e+00,1.685136151323290586e+09,0.000000000000000000e+00,-3.044724009425465311e-02,0.000000000000000000e+00,-3.044724009425465311e-02
7.299999999999999822e+00,1.685136151341268301e+09,0.000000000000000000e+00,-3.044724009425465311e-02,0.000000000000000000e+00,-3.044724009425465311e-02
7.316666666666666430e+00,1.685136151358235121e+09,0.000000000000000000e+00,-3.044724009425465311e-02,0.000000000000000000e+00,-3.044724009425465311e-02
7.333333333333333037e+00,1.685136151377287626e+09,0.000000000000000000e+00,-1.442237688675220356e-02,0.000000000000000000e+00,-1.442237688675220356e-02
7.349999999999999645e+00,1.685136151391289949e+09,0.000000000000000000e+00,-1.442237688675220356e-02,0.000000000000000000e+00,-1.442237688675220356e-02
7.366666666666666252e+00,1.685136151410235167e+09,0.000000000000000000e+00,-1.442237688675220356e-02,0.000000000000000000e+00,-1.442237688675220356e-02
7.383333333333332860e+00,1.685136151427270412e+09,0.000000000000000000e+00,1.602486320750845994e-03,0.000000000000000000e+00,1.602486320750845994e-03
7.399999999999999467e+00,1.685136151445290327e+09,0.000000000000000000e+00,1.602486320750845994e-03,0.000000000000000000e+00,1.602486320750845994e-03
7.416666666666666963e+00,1.685136151461270094e+09,0.000000000000000000e+00,1.602486320750845994e-03,0.000000000000000000e+00,1.602486320750845994e-03
7.433333333333333570e+00,1.685136151478269339e+09,0.000000000000000000e+00,1.762734952825329576e-02,0.000000000000000000e+00,1.762734952825329576e-02
7.450000000000000178e+00,1.685136151496235371e+09,0.000000000000000000e+00,1.762734952825329576e-02,0.000000000000000000e+00,1.762734952825329576e-02
7.466666666666666785e+00,1.685136151513269663e+09,0.000000000000000000e+00,1.762734952825329576e-02,0.000000000000000000e+00,1.762734952825329576e-02
7.483333333333333393e+00,1.685136151530253887e+09,0.000000000000000000e+00,1.762734952825329576e-02,0.000000000000000000e+00,1.762734952825329576e-02
7.500000000000000000e+00,1.685136151549261570e+09,0.000000000000000000e+00,1.762734952825329576e-02,0.000000000000000000e+00,1.762734952825329576e-02
7.516666666666666607e+00,1.685136151565270901e+09,0.000000000000000000e+00,1.762734952825329576e-02,0.000000000000000000e+00,1.762734952825329576e-02
7.533333333333333215e+00,1.685136151582234859e+09,0.000000000000000000e+00,1.762734952825329576e-02,0.000000000000000000e+00,1.762734952825329576e-02
7.549999999999999822e+00,1.685136151599269629e+09,0.000000000000000000e+00,1.762734952825329576e-02,0.000000000000000000e+00,1.762734952825329576e-02
7.566666666666666430e+00,1.685136151617269754e+09,0.000000000000000000e+00,3.365221273575574185e-02,0.000000000000000000e+00,3.365221273575574185e-02
7.583333333333333037e+00,1.685136151634290457e+09,0.000000000000000000e+00,3.365221273575574185e-02,0.000000000000000000e+00,3.365221273575574185e-02
7.599999999999999645e+00,1.685136151650261164e+09,0.000000000000000000e+00,3.365221273575574185e-02,0.000000000000000000e+00,3.365221273575574185e-02
7.616666666666666252e+00,1.685136151666269541e+09,0.000000000000000000e+00,3.365221273575574185e-02,0.000000000000000000e+00,3.365221273575574185e-02
7.633333333333332860e+00,1.685136151684269905e+09,0.000000000000000000e+00,3.365221273575574185e-02,0.000000000000000000e+00,3.365221273575574185e-02
7.649999999999999467e+00,1.685136151700233221e+09,0.000000000000000000e+00,3.365221273575574185e-02,0.000000000000000000e+00,3.365221273575574185e-02
7.666666666666666963e+00,1.685136151718269110e+09,0.000000000000000000e+00,4.967707594325939530e-02,0.000000000000000000e+00,4.967707594325939530e-02
7.683333333333333570e+00,1.685136151735271215e+09,0.000000000000000000e+00,4.967707594325939530e-02,0.000000000000000000e+00,4.967707594325939530e-02
7.700000000000000178e+00,1.685136151753273010e+09,0.000000000000000000e+00,4.967707594325939530e-02,0.000000000000000000e+00,4.967707594325939530e-02
7.716666666666666785e+00,1.685136151770235538e+09,0.000000000000000000e+00,4.967707594325939530e-02,0.000000000000000000e+00,4.967707594325939530e-02
7.733333333333333393e+00,1.685136151788235188e+09,0.000000000000000000e+00,6.570193915076183444e-02,0.000000000000000000e+00,6.570193915076183444e-02
7.750000000000000000e+00,1.685136151804272890e+09,0.000000000000000000e+00,4.967707594325939530e-02,0.000000000000000000e+00,4.967707594325939530e-02
7.766666666666666607e+00,1.685136151822270393e+09,0.000000000000000000e+00,6.570193915076183444e-02,0.000000000000000000e+00,6.570193915076183444e-02
7.783333333333333215e+00,1.685136151838271141e+09,0.000000000000000000e+00,4.967707594325939530e-02,0.000000000000000000e+00,4.967707594325939530e-02
7.799999999999999822e+00,1.685136151855270863e+09,0.000000000000000000e+00,4.967707594325939530e-02,0.000000000000000000e+00,4.967707594325939530e-02
7.816666666666666430e+00,1.685136151875268459e+09,0.000000000000000000e+00,6.570193915076183444e-02,0.000000000000000000e+00,6.570193915076183444e-02
7.833333333333333037e+00,1.685136151890268564e+09,0.000000000000000000e+00,6.570193915076183444e-02,0.000000000000000000e+00,6.570193915076183444e-02
7.849999999999999645e+00,1.685136151907270193e+09,0.000000000000000000e+00,6.570193915076183444e-02,0.000000000000000000e+00,6.570193915076183444e-02
7.866666666666666252e+00,1.685136151925274372e+09,0.000000000000000000e+00,6.570193915076183444e-02,0.000000000000000000e+00,6.570193915076183444e-02
7.883333333333332860e+00,1.685136151941270351e+09,0.000000000000000000e+00,4.967707594325939530e-02,0.000000000000000000e+00,4.967707594325939530e-02
7.899999999999999467e+00,1.685136151958290815e+09,0.000000000000000000e+00,6.570193915076183444e-02,0.000000000000000000e+00,6.570193915076183444e-02
7.916666666666666963e+00,1.685136151977271795e+09,0.000000000000000000e+00,6.570193915076183444e-02,0.000000000000000000e+00,6.570193915076183444e-02
7.933333333333333570e+00,1.685136151993268490e+09,0.000000000000000000e+00,6.570193915076183444e-02,0.000000000000000000e+00,6.570193915076183444e-02
7.950000000000000178e+00,1.685136152011234999e+09,0.000000000000000000e+00,6.570193915076183444e-02,0.000000000000000000e+00,6.570193915076183444e-02
7.966666666666666785e+00,1.685136152027269363e+09,0.000000000000000000e+00,6.570193915076183444e-02,0.000000000000000000e+00,6.570193915076183444e-02
7.983333333333333393e+00,1.685136152045269489e+09,0.000000000000000000e+00,6.570193915076183444e-02,0.000000000000000000e+00,6.570193915076183444e-02
8.000000000000000000e+00,1.685136152064269781e+09,0.000000000000000000e+00,4.967707594325939530e-02,0.000000000000000000e+00,4.967707594325939530e-02
8.016666666666665719e+00,1.685136152080290318e+09,0.000000000000000000e+00,4.967707594325939530e-02,0.000000000000000000e+00,4.967707594325939530e-02
8.033333333333333215e+00,1.685136152096271038e+09,0.000000000000000000e+00,6.570193915076183444e-02,0.000000000000000000e+00,6.570193915076183444e-02
8.050000000000000711e+00,1.685136152114268303e+09,0.000000000000000000e+00,6.570193915076183444e-02,0.000000000000000000e+00,6.570193915076183444e-02
8.066666666666666430e+00,1.685136152130233526e+09,0.000000000000000000e+00,6.570193915076183444e-02,0.000000000000000000e+00,6.570193915076183444e-02
8.083333333333333925e+00,1.685136152148270130e+09,0.000000000000000000e+00,4.967707594325939530e-02,0.000000000000000000e+00,4.967707594325939530e-02
8.099999999999999645e+00,1.685136152165290594e+09,0.000000000000000000e+00,4.967707594325939530e-02,0.000000000000000000e+00,4.967707594325939530e-02
8.116666666666667140e+00,1.685136152183234930e+09,0.000000000000000000e+00,6.570193915076183444e-02,0.000000000000000000e+00,6.570193915076183444e-02
8.133333333333332860e+00,1.685136152198268175e+09,0.000000000000000000e+00,6.570193915076183444e-02,0.000000000000000000e+00,6.570193915076183444e-02
8.150000000000000355e+00,1.685136152218268394e+09,0.000000000000000000e+00,6.570193915076183444e-02,0.000000000000000000e+00,6.570193915076183444e-02
8.166666666666666075e+00,1.685136152236235857e+09,0.000000000000000000e+00,6.570193915076183444e-02,0.000000000000000000e+00,6.570193915076183444e-02
8.183333333333333570e+00,1.685136152251270056e+09,0.000000000000000000e+00,6.570193915076183444e-02,0.000000000000000000e+00,6.570193915076183444e-02
8.199999999999999289e+00,1.685136152268293381e+09,0.000000000000000000e+00,6.570193915076183444e-02,0.000000000000000000e+00,6.570193915076183444e-02
8.216666666666666785e+00,1.685136152286235809e+09,0.000000000000000000e+00,6.570193915076183444e-02,0.000000000000000000e+00,6.570193915076183444e-02
8.233333333333332504e+00,1.685136152302260876e+09,0.000000000000000000e+00,6.570193915076183444e-02,0.000000000000000000e+00,6.570193915076183444e-02
8.250000000000000000e+00,1.685136152321266890e+09,0.000000000000000000e+00,4.967707594325939530e-02,0.000000000000000000e+00,4.967707594325939530e-02
8.266666666666665719e+00,1.685136152337233305e+09,0.000000000000000000e+00,6.570193915076183444e-02,0.000000000000000000e+00,6.570193915076183444e-02
8.283333333333333215e+00,1.685136152355259895e+09,0.000000000000000000e+00,6.570193915076183444e-02,0.000000000000000000e+00,6.570193915076183444e-02
8.300000000000000711e+00,1.685136152372234583e+09,0.000000000000000000e+00,4.967707594325939530e-02,0.000000000000000000e+00,4.967707594325939530e-02
8.316666666666666430e+00,1.685136152388259411e+09,0.000000000000000000e+00,6.570193915076183444e-02,0.000000000000000000e+00,6.570193915076183444e-02
8.333333333333333925e+00,1.685136152408261299e+09,0.000000000000000000e+00,6.570193915076183444e-02,0.000000000000000000e+00,6.570193915076183444e-02
8.349999999999999645e+00,1.685136152423270941e+09,0.000000000000000000e+00,6.570193915076183444e-02,0.000000000000000000e+00,6.570193915076183444e-02
8.366666666666667140e+00,1.685136152439234734e+09,0.000000000000000000e+00,4.967707594325939530e-02,0.000000000000000000e+00,4.967707594325939530e-02
8.383333333333332860e+00,1.685136152457235098e+09,0.000000000000000000e+00,6.570193915076183444e-02,0.000000000000000000e+00,6.570193915076183444e-02
8.400000000000000355e+00,1.685136152475234747e+09,0.000000000000000000e+00,4.967707594325939530e-02,0.000000000000000000e+00,4.967707594325939530e-02
8.416666666666666075e+00,1.685136152492257595e+09,0.000000000000000000e+00,4.967707594325939530e-02,0.000000000000000000e+00,4.967707594325939530e-02
8.433333333333333570e+00,1.685136152510283709e+09,0.000000000000000000e+00,6.570193915076183444e-02,0.000000000000000000e+00,6.570193915076183444e-02
8.449999999999999289e+00,1.685136152526262283e+09,0.000000000000000000e+00,4.967707594325939530e-02,0.000000000000000000e+00,4.967707594325939530e-02
8.466666666666666785e+00,1.685136152542296886e+09,0.000000000000000000e+00,4.967707594325939530e-02,0.000000000000000000e+00,4.967707594325939530e-02
8.483333333333332504e+00,1.685136152560271025e+09,0.000000000000000000e+00,4.967707594325939530e-02,0.000000000000000000e+00,4.967707594325939530e-02
8.500000000000000000e+00,1.685136152578234911e+09,0.000000000000000000e+00,4.967707594325939530e-02,0.000000000000000000e+00,4.967707594325939530e-02
8.516666666666665719e+00,1.685136152598291159e+09,0.000000000000000000e+00,4.967707594325939530e-02,0.000000000000000000e+00,4.967707594325939530e-02
8.533333333333333215e+00,1.685136152613271475e+09,0.000000000000000000e+00,4.967707594325939530e-02,0.000000000000000000e+00,4.967707594325939530e-02
8.550000000000000711e+00,1.685136152631291151e+09,0.000000000000000000e+00,4.967707594325939530e-02,0.000000000000000000e+00,4.967707594325939530e-02
8.566666666666666430e+00,1.685136152648269653e+09,0.000000000000000000e+00,4.967707594325939530e-02,0.000000000000000000e+00,4.967707594325939530e-02
8.583333333333333925e+00,1.685136152665290356e+09,0.000000000000000000e+00,4.967707594325939530e-02,0.000000000000000000e+00,4.967707594325939530e-02
8.599999999999999645e+00,1.685136152682233810e+09,0.000000000000000000e+00,6.570193915076183444e-02,0.000000000000000000e+00,6.570193915076183444e-02
8.616666666666667140e+00,1.685136152699284315e+09,0.000000000000000000e+00,6.570193915076183444e-02,0.000000000000000000e+00,6.570193915076183444e-02
8.633333333333332860e+00,1.685136152716261625e+09,0.000000000000000000e+00,4.967707594325939530e-02,0.000000000000000000e+00,4.967707594325939530e-02
8.650000000000000355e+00,1.685136152734260082e+09,0.000000000000000000e+00,6.570193915076183444e-02,0.000000000000000000e+00,6.570193915076183444e-02
8.666666666666666075e+00,1.685136152752282143e+09,0.000000000000000000e+00,4.967707594325939530e-02,0.000000000000000000e+00,4.967707594325939530e-02
8.683333333333333570e+00,1.685136152768234730e+09,0.000000000000000000e+00,4.967707594325939530e-02,0.000000000000000000e+00,4.967707594325939530e-02
8.699999999999999289e+00,1.685136152786262751e+09,0.000000000000000000e+00,4.967707594325939530e-02,0.000000000000000000e+00,4.967707594325939530e-02
8.716666666666666785e+00,1.685136152804271698e+09,0.000000000000000000e+00,6.570193915076183444e-02,0.000000000000000000e+00,6.570193915076183444e-02
8.733333333333332504e+00,1.685136152820235491e+09,0.000000000000000000e+00,6.570193915076183444e-02,0.000000000000000000e+00,6.570193915076183444e-02
8.750000000000000000e+00,1.685136152838234663e+09,0.000000000000000000e+00,4.967707594325939530e-02,0.000000000000000000e+00,4.967707594325939530e-02
8.766666666666665719e+00,1.685136152855261087e+09,0.000000000000000000e+00,4.967707594325939530e-02,0.000000000000000000e+00,4.967707594325939530e-02
8.783333333333333215e+00,1.685136152870234251e+09,0.000000000000000000e+00,4.967707594325939530e-02,0.000000000000000000e+00,4.967707594325939530e-02
8.800000000000000711e+00,1.685136152887262106e+09,0.000000000000000000e+00,4.967707594325939530e-02,0.000000000000000000e+00,4.967707594325939530e-02
8.816666666666666430e+00,1.685136152904233932e+09,0.000000000000000000e+00,6.570193915076183444e-02,0.000000000000000000e+00,6.570193915076183444e-02
8.833333333333333925e+00,1.685136152924292088e+09,0.000000000000000000e+00,4.967707594325939530e-02,0.000000000000000000e+00,4.967707594325939530e-02
8.849999999999999645e+00,1.685136152939269543e+09,0.000000000000000000e+00,4.967707594325939530e-02,0.000000000000000000e+00,4.967707594325939530e-02
8.866666666666667140e+00,1.685136152956235170e+09,0.000000000000000000e+00,4.967707594325939530e-02,0.000000000000000000e+00,4.967707594325939530e-02
8.883333333333332860e+00,1.685136152973235130e+09,0.000000000000000000e+00,4.967707594325939530e-02,0.000000000000000000e+00,4.967707594325939530e-02
8.900000000000000355e+00,1.685136152989233255e+09,0.000000000000000000e+00,4.967707594325939530e-02,0.000000000000000000e+00,4.967707594325939530e-02
8.916666666666666075e+00,1.685136153007253408e+09,0.000000000000000000e+00,4.967707594325939530e-02,0.000000000000000000e+00,4.967707594325939530e-02
8.933333333333333570e+00,1.685136153023291826e+09,0.000000000000000000e+00,4.967707594325939530e-02,0.000000000000000000e+00,4.967707594325939530e-02
8.949999999999999289e+00,1.685136153041294575e+09,0.000000000000000000e+00,6.570193915076183444e-02,0.000000000000000000e+00,6.570193915076183444e-02
8.966666666666666785e+00,1.685136153061271191e+09,0.000000000000000000e+00,4.967707594325939530e-02,0.000000000000000000e+00,4.967707594325939530e-02
8.983333333333332504e+00,1.685136153077235222e+09,0.000000000000000000e+00,4.967707594325939530e-02,0.000000000000000000e+00,4.967707594325939530e-02
9.000000000000000000e+00,1.685136153097234964e+09,0.000000000000000000e+00,4.967707594325939530e-02,0.000000000000000000e+00,4.967707594325939530e-02
9.016666666666665719e+00,1.685136153111262798e+09,0.000000000000000000e+00,4.967707594325939530e-02,0.000000000000000000e+00,4.967707594325939530e-02
9.033333333333333215e+00,1.685136153128282070e+09,0.000000000000000000e+00,4.967707594325939530e-02,0.000000000000000000e+00,4.967707594325939530e-02
9.050000000000000711e+00,1.685136153144263983e+09,0.000000000000000000e+00,4.967707594325939530e-02,0.000000000000000000e+00,4.967707594325939530e-02
9.066666666666666430e+00,1.685136153161291599e+09,0.000000000000000000e+00,4.967707594325939530e-02,0.000000000000000000e+00,4.967707594325939530e-02
9.083333333333333925e+00,1.685136153179234743e+09,0.000000000000000000e+00,4.967707594325939530e-02,0.000000000000000000e+00,4.967707594325939530e-02
9.099999999999999645e+00,1.685136153197261095e+09,0.000000000000000000e+00,4.967707594325939530e-02,0.000000000000000000e+00,4.967707594325939530e-02
9.116666666666667140e+00,1.685136153214234114e+09,0.000000000000000000e+00,4.967707594325939530e-02,0.000000000000000000e+00,4.967707594325939530e-02
9.133333333333332860e+00,1.685136153231234789e+09,0.000000000000000000e+00,4.967707594325939530e-02,0.000000000000000000e+00,4.967707594325939530e-02
9.150000000000000355e+00,1.685136153247290611e+09,0.000000000000000000e+00,4.967707594325939530e-02,0.000000000000000000e+00,4.967707594325939530e-02
9.166666666666666075e+00,1.685136153266270399e+09,0.000000000000000000e+00,4.967707594325939530e-02,0.000000000000000000e+00,4.967707594325939530e-02
9.183333333333333570e+00,1.685136153283235073e+09,0.000000000000000000e+00,4.967707594325939530e-02,0.000000000000000000e+00,4.967707594325939530e-02
9.199999999999999289e+00,1.685136153299290419e+09,0.000000000000000000e+00,4.967707594325939530e-02,0.000000000000000000e+00,4.967707594325939530e-02
9.216666666666666785e+00,1.685136153316290140e+09,0.000000000000000000e+00,4.967707594325939530e-02,0.000000000000000000e+00,4.967707594325939530e-02
9.233333333333332504e+00,1.685136153333270311e+09,0.000000000000000000e+00,3.365221273575574185e-02,0.000000000000000000e+00,3.365221273575574185e-02
9.250000000000000000e+00,1.685136153350233793e+09,0.000000000000000000e+00,4.967707594325939530e-02,0.000000000000000000e+00,4.967707594325939530e-02
9.266666666666665719e+00,1.685136153369270086e+09,0.000000000000000000e+00,4.967707594325939530e-02,0.000000000000000000e+00,4.967707594325939530e-02
9.283333333333333215e+00,1.685136153386234999e+09,0.000000000000000000e+00,4.967707594325939530e-02,0.000000000000000000e+00,4.967707594325939530e-02
9.300000000000000711e+00,1.685136153403266430e+09,0.000000000000000000e+00,4.967707594325939530e-02,0.000000000000000000e+00,4.967707594325939530e-02
9.316666666666666430e+00,1.685136153421271324e+09,0.000000000000000000e+00,4.967707594325939530e-02,0.000000000000000000e+00,4.967707594325939530e-02
9.333333333333333925e+00,1.685136153435268164e+09,0.000000000000000000e+00,3.365221273575574185e-02,0.000000000000000000e+00,3.365221273575574185e-02
9.349999999999999645e+00,1.685136153454233885e+09,0.000000000000000000e+00,3.365221273575574185e-02,0.000000000000000000e+00,3.365221273575574185e-02
9.366666666666667140e+00,1.685136153471292496e+09,0.000000000000000000e+00,1.762734952825329576e-02,0.000000000000000000e+00,1.762734952825329576e-02
9.383333333333332860e+00,1.685136153488236904e+09,0.000000000000000000e+00,1.762734952825329576e-02,0.000000000000000000e+00,1.762734952825329576e-02
9.400000000000000355e+00,1.685136153504234552e+09,0.000000000000000000e+00,1.762734952825329576e-02,0.000000000000000000e+00,1.762734952825329576e-02
9.416666666666666075e+00,1.685136153520292044e+09,0.000000000000000000e+00,1.762734952825329576e-02,0.000000000000000000e+00,1.762734952825329576e-02
9.433333333333333570e+00,1.685136153538234711e+09,0.000000000000000000e+00,1.602486320750845994e-03,0.000000000000000000e+00,1.602486320750845994e-03
9.449999999999999289e+00,1.685136153556291103e+09,0.000000000000000000e+00,1.602486320750845994e-03,0.000000000000000000e+00,1.602486320750845994e-03
9.466666666666666785e+00,1.685136153573290825e+09,0.000000000000000000e+00,1.602486320750845994e-03,0.000000000000000000e+00,1.602486320750845994e-03
9.483333333333332504e+00,1.685136153590269804e+09,0.000000000000000000e+00,1.602486320750845994e-03,0.000000000000000000e+00,1.602486320750845994e-03
9.500000000000000000e+00,1.685136153608270645e+09,0.000000000000000000e+00,-1.442237688675220356e-02,0.000000000000000000e+00,-1.442237688675220356e-02
9.516666666666665719e+00,1.685136153624290228e+09,0.000000000000000000e+00,-1.442237688675220356e-02,0.000000000000000000e+00,-1.442237688675220356e-02
9.533333333333333215e+00,1.685136153640232801e+09,0.000000000000000000e+00,-1.442237688675220356e-02,0.000000000000000000e+00,-1.442237688675220356e-02
9.550000000000000711e+00,1.685136153657235384e+09,0.000000000000000000e+00,-1.442237688675220356e-02,0.000000000000000000e+00,-1.442237688675220356e-02
9.566666666666666430e+00,1.685136153675271511e+09,0.000000000000000000e+00,-1.442237688675220356e-02,0.000000000000000000e+00,-1.442237688675220356e-02
9.583333333333333925e+00,1.685136153691275835e+09,0.000000000000000000e+00,-1.442237688675220356e-02,0.000000000000000000e+00,-1.442237688675220356e-02
9.599999999999999645e+00,1.685136153709269285e+09,0.000000000000000000e+00,-1.442237688675220356e-02,0.000000000000000000e+00,-1.442237688675220356e-02
9.616666666666667140e+00,1.685136153725290537e+09,0.000000000000000000e+00,-1.442237688675220356e-02,0.000000000000000000e+00,-1.442237688675220356e-02
9.633333333333332860e+00,1.685136153744270086e+09,0.000000000000000000e+00,-1.442237688675220356e-02,0.000000000000000000e+00,-1.442237688675220356e-02
9.650000000000000355e+00,1.685136153763292074e+09,0.000000000000000000e+00,-1.442237688675220356e-02,0.000000000000000000e+00,-1.442237688675220356e-02
9.666666666666666075e+00,1.685136153779292107e+09,0.000000000000000000e+00,-1.442237688675220356e-02,0.000000000000000000e+00,-1.442237688675220356e-02
9.683333333333333570e+00,1.685136153797235012e+09,0.000000000000000000e+00,-1.442237688675220356e-02,0.000000000000000000e+00,-1.442237688675220356e-02
9.699999999999999289e+00,1.685136153812235117e+09,0.000000000000000000e+00,-1.442237688675220356e-02,0.000000000000000000e+00,-1.442237688675220356e-02
9.716666666666666785e+00,1.685136153829248905e+09,0.000000000000000000e+00,-1.442237688675220356e-02,0.000000000000000000e+00,-1.442237688675220356e-02
9.733333333333332504e+00,1.685136153845269680e+09,0.000000000000000000e+00,-1.442237688675220356e-02,0.000000000000000000e+00,-1.442237688675220356e-02
9.750000000000000000e+00,1.685136153862233162e+09,0.000000000000000000e+00,-1.442237688675220356e-02,0.000000000000000000e+00,-1.442237688675220356e-02
9.766666666666665719e+00,1.685136153881290436e+09,0.000000000000000000e+00,-1.442237688675220356e-02,0.000000000000000000e+00,-1.442237688675220356e-02
9.783333333333333215e+00,1.685136153896291018e+09,0.000000000000000000e+00,-1.442237688675220356e-02,0.000000000000000000e+00,-1.442237688675220356e-02
9.800000000000000711e+00,1.685136153915235043e+09,0.000000000000000000e+00,-1.442237688675220356e-02,0.000000000000000000e+00,-1.442237688675220356e-02
9.816666666666666430e+00,1.685136153930234194e+09,0.000000000000000000e+00,-1.442237688675220356e-02,0.000000000000000000e+00,-1.442237688675220356e-02
9.833333333333333925e+00,1.685136153948269606e+09,0.000000000000000000e+00,-1.442237688675220356e-02,0.000000000000000000e+00,-1.442237688675220356e-02
9.849999999999999645e+00,1.685136153968292236e+09,0.000000000000000000e+00,-1.442237688675220356e-02,0.000000000000000000e+00,-1.442237688675220356e-02
9.866666666666667140e+00,1.685136153984235048e+09,0.000000000000000000e+00,-1.442237688675220356e-02,0.000000000000000000e+00,-1.442237688675220356e-02
9.883333333333332860e+00,1.685136154000234842e+09,0.000000000000000000e+00,-1.442237688675220356e-02,0.000000000000000000e+00,-1.442237688675220356e-02
9.900000000000000355e+00,1.685136154018270493e+09,0.000000000000000000e+00,1.602486320750845994e-03,0.000000000000000000e+00,1.602486320750845994e-03
9.916666666666666075e+00,1.685136154036272287e+09,0.000000000000000000e+00,1.762734952825329576e-02,0.000000000000000000e+00,1.762734952825329576e-02
9.933333333333333570e+00,1.685136154053269625e+09,0.000000000000000000e+00,1.762734952825329576e-02,0.000000000000000000e+00,1.762734952825329576e-02
9.949999999999999289e+00,1.685136154070277214e+09,0.000000000000000000e+00,3.365221273575574185e-02,0.000000000000000000e+00,3.365221273575574185e-02
9.966666666666666785e+00,1.685136154086269617e+09,0.000000000000000000e+00,3.365221273575574185e-02,0.000000000000000000e+00,3.365221273575574185e-02
9.983333333333332504e+00,1.685136154103272915e+09,0.000000000000000000e+00,4.967707594325939530e-02,0.000000000000000000e+00,4.967707594325939530e-02
1.000000000000000000e+01,1.685136154123233557e+09,0.000000000000000000e+00,8.172680235826429440e-02,0.000000000000000000e+00,8.172680235826429440e-02
1.001666666666666572e+01,1.685136154137291193e+09,0.000000000000000000e+00,8.172680235826429440e-02,0.000000000000000000e+00,8.172680235826429440e-02
1.003333333333333321e+01,1.685136154156234741e+09,0.000000000000000000e+00,1.137765287732703939e-01,0.000000000000000000e+00,1.137765287732703939e-01
1.005000000000000071e+01,1.685136154172249794e+09,0.000000000000000000e+00,1.618511183957777322e-01,0.000000000000000000e+00,1.618511183957777322e-01
1.006666666666666643e+01,1.685136154188235283e+09,0.000000000000000000e+00,2.099257080182862778e-01,0.000000000000000000e+00,2.099257080182862778e-01
1.008333333333333393e+01,1.685136154207268715e+09,0.000000000000000000e+00,2.740251608482972556e-01,0.000000000000000000e+00,2.740251608482972556e-01
1.009999999999999964e+01,1.685136154224234104e+09,0.000000000000000000e+00,3.220997504708058012e-01,0.000000000000000000e+00,3.220997504708058012e-01
1.011666666666666714e+01,1.685136154241269350e+09,0.000000000000000000e+00,3.701743400933131811e-01,0.000000000000000000e+00,3.701743400933131811e-01
1.013333333333333286e+01,1.685136154259269953e+09,0.000000000000000000e+00,4.342737929233241867e-01,0.000000000000000000e+00,4.342737929233241867e-01
1.015000000000000036e+01,1.685136154275290489e+09,0.000000000000000000e+00,4.663235193383302724e-01,0.000000000000000000e+00,4.663235193383302724e-01
1.016666666666666607e+01,1.685136154292281628e+09,0.000000000000000000e+00,4.983732457533351368e-01,0.000000000000000000e+00,4.983732457533351368e-01
1.018333333333333357e+01,1.685136154309233904e+09,0.000000000000000000e+00,5.464478353758437379e-01,0.000000000000000000e+00,5.464478353758437379e-01
