# 
# 
# 
# 
# 
# 
# 
# 
# 
# 
# time,realtime,ref,inp,inp0,inp1,dis,state...
0.000000000000000000e+00,1.643937967797267914e+09,-0.000000000000000000e+00,-3.163899349647163878e-02,3.709796277890268001e+00,-1.278784083958718121e+00,-0.000000000000000000e+00,0.000000000000000000e+00,0.000000000000000000e+00
1.666666666666666644e-02,1.643937967801275253e+09,-1.989867912377870993e-06,-5.541728618095538572e-02,3.614683107152333097e+00,-1.278784083958718121e+00,0.000000000000000000e+00,-7.654263218942977968e-06,-9.159671731303133157e-04
3.333333333333333287e-02,1.643937967802272558e+09,-7.919757644119849289e-06,9.735235774530047806e-03,3.875293194974274602e+00,-1.278784083958718121e+00,-1.142399897115739989e-05,-2.145081119377871375e-05,-7.401070955628293990e-04
5.000000000000000278e-02,1.643937967821169138e+09,-1.774150828134864571e-05,2.780673821473786736e-02,3.947579204735105929e+00,-1.278784083958718121e+00,-4.964693619178685242e-05,-2.984988219444619902e-05,-2.690898365863939891e-04
6.666666666666666574e-02,1.643937967838149786e+09,-3.142211321506751403e-05,3.282139887840517661e-02,3.871488668144757117e+00,-1.246734357543712202e+00,-1.197429639344158416e-04,-2.978077694963106209e-05,2.758686567433035340e-04
8.333333333333332871e-02,1.643937967855104923e+09,-4.894283042971107336e-05,-5.699435270458476886e-03,3.717405331549302527e+00,-1.246734357543712202e+00,-2.255844649751789386e-04,-2.603943580270149844e-05,1.733769866724797098e-04
1.000000000000000056e-01,1.643937967871315956e+09,-7.029733303044807542e-05,-2.307880813005752998e-02,3.744037019355924478e+00,-1.278784083958718121e+00,-3.697820664146926248e-04,-2.641249725217727356e-05,-2.170597884859148756e-04
1.166666666666666685e-01,1.643937967887478828e+09,-9.548894126235435941e-05,-4.531739836160438538e-03,3.818225292531512771e+00,-1.278784083958718121e+00,-5.536514604261689272e-04,-3.070257677066523679e-05,-2.975262305772037033e-04
1.333333333333333315e-01,1.643937967903540373e+09,-1.245269981336508114e-04,3.995488668375057201e-02,3.900022619366138699e+00,-1.246734357543712202e+00,-7.772074323097265649e-04,-3.020901220211857609e-05,3.549415257115969783e-04
1.499999999999999944e-01,1.643937967920637608e+09,-1.574224704600165367e-04,-5.958437397229156274e-03,3.812518502287237876e+00,-1.278784083958718121e+00,-1.039185079917799570e-03,-2.530885991571774990e-05,2.334143321394135592e-04
1.666666666666666574e-01,1.643937967937708855e+09,-1.941828753553875592e-04,3.852818912268140411e-02,3.894315829121862027e+00,-1.246734357543712202e+00,-1.337087792630724118e-03,-1.631400687775483538e-05,8.442711679356286816e-04
1.833333333333333204e-01,1.643937967955806971e+09,-2.348066485878080823e-04,4.280828180588830412e-02,3.911436199854689377e+00,-1.246734357543712202e+00,-1.667261147978655982e-03,3.322986400978038447e-06,1.510317852288723273e-03
2.000000000000000111e-01,1.643937967973130703e+09,-2.792770855060088247e-04,-1.356749105626412280e-02,3.782082287651097996e+00,-1.278784083958718121e+00,-2.024991485035440488e-03,2.613270328162295382e-05,1.227633426386418904e-03
2.166666666666666741e-01,1.643937967991997719e+09,-3.275559971653221468e-04,-3.211455935016151175e-02,3.707894014475508371e+00,-1.278784083958718121e+00,-2.404627531033931131e-03,4.165589173054647332e-05,6.367904565842380082e-04
2.333333333333333370e-01,1.643937968007964134e+09,-3.795772336186243115e-04,-1.236397669854983478e-01,3.245644004689142825e+00,-1.246734357543712202e+00,-2.799723096264408826e-03,3.471722673159060126e-05,-1.463595713112851799e-03
2.500000000000000000e-01,1.643937968027819633e+09,-4.352402329076522983e-04,-1.764275767450521892e-01,3.034492765650927737e+00,-1.246734357543712202e+00,-3.203198516965046275e-03,-1.428457489320846484e-05,-4.408440165855006393e-03
2.666666666666666630e-01,1.643937968042213202e+09,-4.944037579536243732e-04,-1.414947056987869711e-01,3.270373429081006922e+00,-1.278784083958718121e+00,-3.607518221039401288e-03,-1.071912732717022749e-04,-6.733903866140285646e-03
2.833333333333333259e-01,1.643937968058052063e+09,-5.568799842102069644e-04,-1.626361669880517224e-01,3.089658404678929493e+00,-1.246734357543712202e+00,-4.004881521128511070e-03,-2.415094589811958179e-04,-9.376936488917129650e-03
2.999999999999999889e-01,1.643937968078450918e+09,-6.224290985600258903e-04,-1.911701182094322493e-01,2.975522599793407164e+00,-1.246734357543712202e+00,-4.387423507506875604e-03,-4.235070918893344620e-04,-1.245423121795797596e-02
3.166666666666666519e-01,1.643937968094752312e+09,-6.907545645096665717e-04,-1.702452206470863871e-01,3.059222190042790945e+00,-1.246734357543712202e+00,-4.747422722695717780e-03,-6.535274987770295450e-04,-1.514075486723331573e-02
3.333333333333333148e-01,1.643937968110127211e+09,-7.614992003170007340e-04,-1.711963523544658416e-01,3.055417663213273016e+00,-1.246734357543712202e+00,-5.077512153337414985e-03,-9.281291987352537076e-04,-1.780405090907181270e-02
3.499999999999999778e-01,1.643937968127939701e+09,-8.342422053665276161e-04,-1.887922889409839322e-01,2.985033916867200432e+00,-1.246734357543712202e+00,-5.370889974972114546e-03,-1.249222191311552673e-03,-2.071901089842811267e-02
3.666666666666666408e-01,1.643937968146327972e+09,-9.084972560374106462e-04,-2.199630715575836004e-01,2.956499965645820183e+00,-1.278784083958718121e+00,-5.621526433570232621e-03,-1.622835176729961601e-03,-2.410514121286226608e-02
3.833333333333333037e-01,1.643937968162422895e+09,-9.837117756747574583e-04,-1.686019593590984689e-01,3.161944414439760820e+00,-1.278784083958718121e+00,-5.824363245096420526e-03,-2.045349966857376404e-03,-2.658973179947143189e-02
4.000000000000000222e-01,1.643937968179483175e+09,-1.059267464309483894e-03,-1.659651279638794941e-01,3.076342560775618296e+00,-1.246734357543712202e+00,-5.975501941515424034e-03,-2.508588102087535004e-03,-2.899217082933118819e-02
4.166666666666666852e-01,1.643937968197214603e+09,-1.134482152747787100e-03,-1.543349837484082887e-01,3.219012316882521318e+00,-1.278784083958718121e+00,-6.072377688401580861e-03,-3.009942080942154281e-03,-3.116427287442340155e-02
4.333333333333333481e-01,1.643937968211990595e+09,-1.208613022875802039e-03,-2.230330304066405200e-01,2.848070951004574081e+00,-1.246734357543712202e+00,-6.113915244981819701e-03,-3.556692094400848003e-03,-3.443663862182508306e-02
4.500000000000000111e-01,1.643937968230091810e+09,-1.280861211838269257e-03,-2.228164666797216309e-01,2.945086385157268172e+00,-1.278784083958718121e+00,-6.100663930729369536e-03,-4.157497814024898285e-03,-3.765111841237521462e-02
4.666666666666666741e-01,1.643937968245383263e+09,-1.350377792519133697e-03,-2.394612715588602947e-01,2.878507165640713517e+00,-1.278784083958718121e+00,-6.034908701644199625e-03,-4.813724117882314281e-03,-4.108649511285954181e-02
4.833333333333333370e-01,1.643937968263092995e+09,-1.416271096866421331e-03,-2.993825691237595454e-01,2.638821975381116403e+00,-1.278784083958718121e+00,-5.920754721650396853e-03,-5.534992796651099119e-03,-4.545361516484758974e-02
5.000000000000000000e-01,1.643937968282223940e+09,-1.477615322469232571e-03,-2.120950157717779450e-01,2.891823009544024714e+00,-1.246734357543712202e+00,-5.764183137104529966e-03,-6.316365794650704614e-03,-4.830322881532935625e-02
5.166666666666666075e-01,1.643937968299652338e+09,-1.533460336828814134e-03,-2.192285035771232016e-01,2.863289058322643577e+00,-1.246734357543712202e+00,-5.573076121721472036e-03,-7.145797648531151264e-03,-5.122048995642965175e-02
5.333333333333333259e-01,1.643937968314586163e+09,-1.582842568390190052e-03,-1.583560743048445241e-01,3.106778775411758176e+00,-1.246734357543712202e+00,-5.357209651282699575e-03,-8.015010041976213667e-03,-5.307983229558670829e-02
5.500000000000000444e-01,1.643937968331540823e+09,-1.624796849036866820e-03,-1.776377105792023292e-01,3.125801409559345156e+00,-1.278784083958718121e+00,-5.128212887855462809e-03,-8.917586221191552837e-03,-5.522335484082233070e-02
5.666666666666666519e-01,1.643937968350867987e+09,-1.658369049813014640e-03,-1.353123496008213356e-01,3.295102853472869242e+00,-1.278784083958718121e+00,-4.899493497084960424e-03,-9.849714120943467779e-03,-5.662809099270219027e-02
5.833333333333333703e-01,1.643937968367815971e+09,-1.682629330525193959e-03,-9.795921088625586526e-02,3.348366229086112700e+00,-1.246734357543712202e+00,-4.686128684253556935e-03,-1.079987156282335298e-02,-5.738868921033079412e-02
5.999999999999999778e-01,1.643937968383784533e+09,-1.696685804970965612e-03,-1.050926986916009553e-01,3.319832277864732450e+00,-1.246734357543712202e+00,-4.504722209770036477e-03,-1.176356081240068595e-02,-5.825162364244297619e-02
6.166666666666666963e-01,1.643937968400735617e+09,-1.699698407200472047e-03,-6.276733771321967026e-02,3.489133721778257424e+00,-1.246734357543712202e+00,-4.373228126878286361e-03,-1.273564895157306906e-02,-5.839854493393889512e-02
6.333333333333333037e-01,1.643937968417691231e+09,-1.690892730764746938e-03,-1.084216596674285743e-01,3.306516433961422141e+00,-1.246734357543712202e+00,-4.310742467808515235e-03,-1.371646265327305589e-02,-5.929660460115952769e-02
6.500000000000000222e-01,1.643937968433145761e+09,-1.669573602630620686e-03,-3.423338649183899768e-02,3.603269526663780198e+00,-1.246734357543712202e+00,-4.337264583397837381e-03,-1.470187671758305982e-02,-5.895403472143680157e-02
6.666666666666666297e-01,1.643937968451098204e+09,-1.635138146595866695e-03,-1.949084502745894107e-02,3.662239692521300771e+00,-1.246734357543712202e+00,-4.473430309401885650e-03,-1.567961115991526114e-02,-5.837570486805228331e-02
6.833333333333333481e-01,1.643937968467054129e+09,-1.587088087822897129e-03,-9.843477673994543986e-02,3.346463965671354401e+00,-1.246734357543712202e+00,-4.740219584373272371e-03,-1.665872727487229324e-02,-5.911617202516723096e-02
6.999999999999999556e-01,1.643937968484010458e+09,-1.525041050681369241e-03,-1.193596743022909967e-01,3.262764375421972396e+00,-1.246734357543712202e+00,-5.158641573261929514e-03,-1.765303018536748189e-02,-6.019717437926459108e-02
7.166666666666666741e-01,1.643937968501961231e+09,-1.448740606551963614e-03,-1.569293767437753562e-01,3.112485565656034847e+00,-1.246734357543712202e+00,-5.749400752139050691e-03,-1.867047123517973084e-02,-6.189104628771758404e-02
7.333333333333332815e-01,1.643937968517941713e+09,-1.358064836645745494e-03,-1.588316401585344040e-01,3.104876511996998545e+00,-1.246734357543712202e+00,-6.532547777239287347e-03,-1.971628043526290480e-02,-6.360130688656397135e-02
7.500000000000000000e-01,1.643937968536843777e+09,-1.253033187229214522e-03,-1.369556108888092538e-01,3.192380629075899368e+00,-1.246734357543712202e+00,-7.527119290738202260e-03,-2.078747359924836349e-02,-6.493815922557097386e-02
7.666666666666666075e-01,1.643937968552825212e+09,-1.133811410850792166e-03,-1.355289133277402247e-01,3.198087419320175595e+00,-1.246734357543712202e+00,-8.750771101580177500e-03,-2.188073494405815694e-02,-6.624955928791652349e-02
7.833333333333333259e-01,1.643937968569780111e+09,-1.000714407120929187e-03,-1.467259300893733187e-01,3.249448531518661198e+00,-1.278784083958718121e+00,-1.021940941791631315e-02,-2.299742121194191247e-02,-6.774862867848759074e-02
8.000000000000000444e-01,1.643937968586735010e+09,-8.542068001269865173e-04,-1.381657447229592273e-01,3.283689272984317675e+00,-1.278784083958718121e+00,-1.194682499444956782e-02,-2.413794117188356944e-02,-6.910998488050275335e-02
8.166666666666666519e-01,1.643937968602840185e+09,-6.949011164345915079e-04,-8.702119625139313752e-02,3.392118287625563777e+00,-1.246734357543712202e+00,-1.394433518989019426e-02,-2.529417415721125703e-02,-6.963651075252978717e-02
8.333333333333333703e-01,1.643937968619816065e+09,-5.235534575538337496e-04,-8.702119625139313752e-02,3.392118287625563777e+00,-1.246734357543712202e+00,-1.622043900404393502e-02,-2.645942422631775148e-02,-7.019195460434723977e-02
8.499999999999999778e-01,1.643937968637749910e+09,-3.410565933961645169e-04,-8.844789381246215276e-02,3.386411497381287550e+00,-1.246734357543712202e+00,-1.878049017864753811e-02,-2.763440562649721599e-02,-7.080411293735293377e-02
8.666666666666666963e-01,1.643937968653707504e+09,-1.484304382337210270e-04,-1.139118861847857461e-01,3.380704707137011766e+00,-1.278784083958718121e+00,-2.162639339942634339e-02,-2.882341529085084841e-02,-7.187407459940284293e-02
8.833333333333333037e-01,1.643937968670657873e+09,5.319009242649099141e-05,-1.015471739888543085e-01,3.430163555920737295e+00,-1.278784083958718121e+00,-2.475632852815729326e-02,-3.002883435391692432e-02,-7.277371391162029690e-02
9.000000000000000222e-01,1.643937968688873291e+09,2.625698072891397656e-04,-8.395123740233606524e-02,3.500547302266810323e+00,-1.278784083958718121e+00,-2.816450762262243113e-02,-3.124716352674517666e-02,-7.342398048920802112e-02
9.166666666666666297e-01,1.643937968705993414e+09,4.783904709617854451e-04,-5.801167917632289034e-02,3.508156355925844849e+00,-1.246734357543712202e+00,-3.184096926980914399e-02,-3.247316567071428794e-02,-7.369552248600777511e-02
9.333333333333333481e-01,1.643937968722955704e+09,6.992704260665752415e-04,-8.014671057281871902e-02,3.515765409584879819e+00,-1.278784083958718121e+00,-3.577141446480660431e-02,-3.370725618574670762e-02,-7.439340072160244288e-02
9.499999999999999556e-01,1.643937968738925934e+09,9.237864503002698449e-04,-7.560761576284114049e-02,3.437772609579771821e+00,-1.246734357543712202e+00,-3.993708791654358020e-02,-3.495283003627126100e-02,-7.507357193240096760e-02
9.666666666666666741e-01,1.643937968755885124e+09,1.150497653976715554e-03,-8.511893283663439502e-02,3.399727341284598747e+00,-1.246734357543712202e+00,-4.431470825445901762e-02,-3.621156447502092007e-02,-7.597206484516953739e-02
9.833333333333332815e-01,1.643937968773786545e+09,1.377971185803995207e-03,-8.607006454401384954e-02,3.395922814455080818e+00,-1.246734357543712202e+00,-4.887645015075064991e-02,-3.748591113621352333e-02,-7.694682676222300288e-02
1.000000000000000000e+00,1.643937968796117306e+09,1.604809478634099161e-03,-1.122261864969459066e-01,3.291298326643352645e+00,-1.246734357543712202e+00,-5.358998086496338797e-02,-3.878063292658411043e-02,-7.841570776121757624e-02
1.016666666666666607e+00,1.643937968806392193e+09,1.829678733223149027e-03,-8.987459137353118188e-02,3.380704707137011766e+00,-1.246734357543712202e+00,-5.841855316599479930e-02,-4.009721289570571806e-02,-7.957068020108806761e-02
1.033333333333333215e+00,1.643937968824404001e+09,2.051338307186797473e-03,-1.063028325257507900e-01,3.411140921773151646e+00,-1.278784083958718121e+00,-6.332115599625257052e-02,-4.143582910693648091e-02,-8.105913046522403298e-02
1.050000000000000044e+00,1.643937968842361689e+09,2.268670648830854904e-03,-9.795921088625586526e-02,3.348366229086112700e+00,-1.246734357543712202e+00,-6.825272361943372779e-02,-4.279857596247307883e-02,-8.246658251811558871e-02
1.066666666666666652e+00,1.643937968859749317e+09,2.480711391861946998e-03,-1.348367837471314556e-01,3.297005116887628873e+00,-1.278784083958718121e+00,-7.316440334337365181e-02,-4.419035790666336200e-02,-8.454148702543372307e-02
1.083333333333333259e+00,1.643937968877240896e+09,2.686679207568657551e-03,-1.188841084486014221e-01,3.264666638836730694e+00,-1.246734357543712202e+00,-7.800388123924785477e-02,-4.561490004542598925e-02,-8.639841138146858723e-02
1.100000000000000089e+00,1.643937968894421816e+09,2.886004996305586382e-03,-1.200942422827517009e-01,3.355975282745147670e+00,-1.278784083958718121e+00,-8.271576459505128320e-02,-4.707095239610645243e-02,-8.832252581208484277e-02
1.116666666666666696e+00,1.643937968911583424e+09,3.078359990351384797e-03,-8.559449869032396963e-02,3.397825077869840449e+00,-1.246734357543712202e+00,-8.724201915198126489e-02,-4.855466760772379764e-02,-8.971941923117258966e-02
1.133333333333333304e+00,1.643937968928079367e+09,3.263682335731051421e-03,-7.227865478701338275e-02,3.451088453483083018e+00,-1.246734357543712202e+00,-9.152245848455436983e-02,-5.006022346212216784e-02,-9.094388193130034659e-02
1.149999999999999911e+00,1.643937968945204496e+09,3.442201721617364155e-03,-6.514516698166798736e-02,3.479622404704464600e+00,-1.246734357543712202e+00,-9.549528220660638556e-02,-5.158558135228995256e-02,-9.209586486093714053e-02
1.166666666666666741e+00,1.643937968963151217e+09,3.614461632613035109e-03,-6.514516698166798736e-02,3.479622404704464600e+00,-1.246734357543712202e+00,-9.909765902339510990e-02,-5.313047740757805004e-02,-9.328834923906675902e-02
1.183333333333333348e+00,1.643937968982077599e+09,3.781338811653106244e-03,-8.442680325602608393e-02,3.498645038852050249e+00,-1.278784083958718121e+00,-1.022663500124931790e-01,-5.469818434636801452e-02,-9.483219485475211097e-02
1.199999999999999956e+00,1.643937968996038675e+09,3.944059539472236607e-03,-1.234232032585794586e-01,3.342659438841836916e+00,-1.278784083958718121e+00,-1.049383669105438954e-01,-5.629716407122628552e-02,-9.703924129937922805e-02
1.216666666666666563e+00,1.643937969014988184e+09,4.104212360498210588e-03,-1.888666885406579565e+00,-3.814464468995182322e+00,-1.246734357543712202e+00,-1.070516596166092710e-01,-5.817673129236588386e-02,-1.284216498286261110e-01
1.233333333333333393e+00,1.643937969031943083e+09,4.263756914528113451e-03,-5.230488893204682244e-02,3.530983516902948871e+00,-1.246734357543712202e+00,-1.085458266028450913e-01,-6.032157124157950384e-02,-1.289576551383273539e-01
1.250000000000000000e+00,1.643937969050891638e+09,4.425028568412996480e-03,-1.949084502745894107e-02,3.662239692521300771e+00,-1.246734357543712202e+00,-1.093628414563285883e-01,-6.247085113368251730e-02,-1.289559366876207869e-01
1.266666666666666607e+00,1.643937969067847013e+09,4.590738581937476095e-03,1.427433058450778419e-02,3.797300394969167492e+00,-1.246734357543712202e+00,-1.094477883683637742e-01,-6.461545069230019422e-02,-1.283975614254007080e-01
1.283333333333333215e+00,1.643937969084801674e+09,4.763969586785828103e-03,-3.321606002010162387e-03,3.726916648623095796e+00,-1.246734357543712202e+00,-1.087495990453109379e-01,-6.675315504490088314e-02,-1.281277104902553698e-01
1.300000000000000044e+00,1.643937969099761486e+09,4.948166206509855593e-03,1.760329156033554540e-02,3.810616238872478689e+00,-1.246734357543712202e+00,-1.072217832431982681e-01,-6.888329797388846598e-02,-1.274912090893154937e-01
1.316666666666666652e+00,1.643937969116717100e+09,5.147120698275423414e-03,-1.894908440941143676e-03,3.732623438867371579e+00,-1.246734357543712202e+00,-1.048231449316914116e-01,-7.100528226007760124e-02,-1.271478590260035624e-01
1.333333333333333259e+00,1.643937969134667873e+09,5.364953553313736405e-03,-2.688333495957516417e-02,3.728818912037854094e+00,-1.278784083958718121e+00,-1.015184759753768040e-01,-7.312458644030767063e-02,-1.271685850280226959e-01
1.350000000000000089e+00,1.643937969149628401e+09,5.606089051842358395e-03,-1.964349189663768147e+00,-4.117193686023936650e+00,-1.246734357543712202e+00,-9.727921918493460940e-02,-7.551125141354722570e-02,-1.591423935355948394e-01
1.366666666666666696e+00,1.643937969170572281e+09,5.875225829096776022e-03,-2.067552331832661405e+00,-4.530006254699508794e+00,-1.246734357543712202e+00,-9.208409264006214845e-02,-7.843993387288240859e-02,-1.922076514841383754e-01
1.383333333333333304e+00,1.643937969187527657e+09,6.177302571337243108e-03,-8.749676210508301744e-02,3.390216024210804147e+00,-1.246734357543712202e+00,-8.591966732152563069e-02,-8.164079927798451042e-02,-1.918970599028130830e-01
1.399999999999999911e+00,1.643937969200526476e+09,6.517459023537463397e-03,-6.894969381118562501e-02,3.464404297386393772e+00,-1.246734357543712202e+00,-7.878089031218968308e-02,-8.483298331402561177e-02,-1.911670522688282414e-01
1.416666666666666741e+00,1.643937969218444109e+09,6.900992553175385597e-03,-6.086507429846108042e-02,3.496742775437291950e+00,-1.246734357543712202e+00,-7.067154613613670089e-02,-8.801086466684060472e-02,-1.901814479232565580e-01
1.433333333333333348e+00,1.643937969237180710e+09,7.333310576356729706e-03,-9.367911820304851422e-02,3.365486599818942270e+00,-1.246734357543712202e+00,-6.160464919997622746e-02,-9.117573538051515492e-02,-1.896046399996324239e-01
1.449999999999999956e+00,1.643937969254444361e+09,7.819879212637719998e-03,-1.264931621076360868e-01,3.234230424200592147e+00,-1.246734357543712202e+00,-5.160276077918824617e-02,-9.433422312409221744e-02,-1.894144176375024413e-01
1.466666666666666563e+00,1.643937969270798922e+09,8.366168592593151848e-03,-8.749676210508301744e-02,3.390216024210804147e+00,-1.246734357543712202e+00,-4.069822455197593530e-02,-9.748267442636350533e-02,-1.884025494461821215e-01
1.483333333333333393e+00,1.643937969288732529e+09,8.977595296640539929e-03,-1.516831394440099935e-02,3.487231458363499570e+00,-1.182634904713701030e+00,-2.893331531987480831e-02,-1.006027860020356768e-01,-1.860174650249145356e-01
1.500000000000000000e+00,1.643937969305687189e+09,9.659462454130100448e-03,5.266347780615371343e-02,3.470111087630670443e+00,-1.086485725468685271e+00,-1.636029626363007250e-02,-1.036723700471487569e-01,-1.823428279540927344e-01
1.516666666666666607e+00,1.643937969322631121e+09,1.041689807753314045e-02,1.418957329727447703e-01,3.538592570561983397e+00,-9.903365462236681793e-01,-3.041380859176399509e-03,-1.066670532649378889e-01,-1.770339055344108126e-01
1.533333333333333215e+00,1.643937969339611292e+09,1.125479224703113644e-02,2.021184710642648097e-01,3.491035985193015723e+00,-8.941873669786521983e-01,1.095140358434164816e-02,-1.095637370284086448e-01,-1.705860571934632863e-01
1.550000000000000044e+00,1.643937969357546806e+09,1.217773379529522165e-02,3.108489262321328384e-01,3.637510268129436675e+00,-7.980381877336351071e-01,2.553645291168098186e-02,-1.123368148338819844e-01,-1.622065564022597273e-01
1.566666666666666652e+00,1.643937969373504400e+09,1.318994717018429595e-02,-1.731117081198079388e+00,-4.722652120081445304e+00,-7.339387349036241570e-01,4.062292484394314229e-02,-1.152513452864631499e-01,-1.874669285555808362e-01
1.583333333333333259e+00,1.643937969393432140e+09,1.429523017397026259e-02,-2.116495688684929100e+00,-6.456464908518873003e+00,-6.698392820736143172e-01,5.611117967181913219e-02,-1.186344824064675396e-01,-2.184235332524616102e-01
1.600000000000000089e+00,1.643937969408419847e+09,1.549689329108983743e-02,-2.715160789987488776e+00,-9.043423672219145004e+00,-6.057398292436033671e-01,7.189332215149936423e-02,-1.226097952815138475e-01,-2.585026781746817548e-01
1.616666666666666696e+00,1.643937969424081326e+09,1.679770132196987259e-02,-2.632641714613860096e+00,-8.809496549969649593e+00,-5.736901028285972259e-01,8.785384281198453660e-02,-1.272339561028261179e-01,-2.962916485500673991e-01
1.633333333333333304e+00,1.643937969441153526e+09,1.819981803790754124e-02,-2.856248522646465560e+00,-9.703923782100071449e+00,-5.736901028285972259e-01,1.038703558496494178e-01,-1.325113861407438975e-01,-3.368871879587632123e-01
1.649999999999999911e+00,1.643937969459403753e+09,1.970475456112998763e-02,-2.395274487625404625e+00,-7.860027642015826821e+00,-5.736901028285972259e-01,1.198144297533072222e-01,-1.383939292588077241e-01,-3.689289791385676476e-01
1.666666666666666741e+00,1.643937969474319458e+09,2.131332215492496782e-02,-1.569692788635741021e+00,-4.653850025302186388e+00,-5.416403764135924170e-01,1.355525057809748024e-01,-1.446898730945628819e-01,-3.865353733503918976e-01
1.683333333333333348e+00,1.643937969492297173e+09,2.302559008113658559e-02,-1.346129418964625124e+00,-3.855745725862741669e+00,-5.095906499985862759e-01,1.509468984084321730e-01,-1.512438200645331021e-01,-3.999011350563582146e-01
1.699999999999999956e+00,1.643937969510248184e+09,2.484084914647071568e-02,4.368270673323811359e-01,3.276080219325283593e+00,-5.095906499985862759e-01,1.658568708998545138e-01,-1.577703614315553726e-01,-3.833298613854653203e-01
1.716666666666666563e+00,1.643937969526939631e+09,2.675758151516238054e-02,-1.428778809422714291e+00,-4.378641646185132075e+00,-4.454911971685752703e-01,1.801397782226183131e-01,-1.642787093889456207e-01,-3.976321639480766557e-01
1.733333333333333393e+00,1.643937969545014858e+09,2.877343731393316312e-02,-1.174254497100932548e+00,-3.456693576143018642e+00,-4.134414707535703504e-01,1.936522686518676595e-01,-1.709864322376077050e-01,-4.072678115735656190e-01
1.750000000000000000e+00,1.643937969562072992e+09,3.088521849621755910e-02,5.741339121214795727e-01,3.344561702256596103e+00,-3.493420179235594003e-01,2.062515345954728241e-01,-1.776101898365272935e-01,-3.876376298626968420e-01
1.766666666666666607e+00,1.643937969578019619e+09,3.308887036686657124e-02,5.924644166884578400e-01,3.321734541279491193e+00,-3.172922915085532591e-01,2.177966024259024858e-01,-1.839053626417919418e-01,-3.678381067388595271e-01
1.783333333333333215e+00,1.643937969595522881e+09,3.537948109653283463e-02,6.954880816120488918e-01,3.445381663238808123e+00,-2.211431122635373892e-01,2.281496504412748316e-01,-1.898576184668430422e-01,-3.464918887129196934e-01
1.800000000000000044e+00,1.643937969612477541e+09,3.775128947739033597e-02,-1.319086403029285703e+00,-4.805214633816563996e+00,-1.570436594335263836e-01,2.371773435016486520e-01,-1.957340594653099453e-01,-3.586472653732467597e-01
1.816666666666666652e+00,1.643937969628456831e+09,4.019770108949238807e-02,-1.270924936683801576e+00,-4.612568768434627486e+00,-1.570436594335263836e-01,2.447521724061874904e-01,-2.018037128431820482e-01,-3.696804914000015319e-01
1.833333333333333259e+00,1.643937969646494389e+09,4.271131296075925121e-02,-1.129967519109290164e+00,-4.241037456626614244e+00,-9.294420660351540575e-02,2.507537856988975022e-01,-2.080354313521443066e-01,-3.781023351145458289e-01
1.849999999999999867e+00,1.643937969662486315e+09,4.528394671420041956e-02,-1.529106545551988550e+00,-6.029891920887441081e+00,-2.884475377350440711e-02,2.550703013213032055e-01,-2.144608837759590658e-01,-3.929108200945758411e-01
1.866666666666666696e+00,1.643937969680438280e+09,4.790669010446956672e-02,-1.584191659736887248e+00,-6.346381556872054297e+00,3.204972641501691987e-03,2.575995853746230191e-01,-2.211383579649215114e-01,-4.083432138116511179e-01
1.883333333333333304e+00,1.643937969695508957e+09,5.056994675320485716e-02,-1.147341796250056500e+00,-4.695131282169746179e+00,3.525469905650659153e-02,2.582504852159042130e-01,-2.280104793621835213e-01,-4.162892809316249831e-01
1.899999999999999911e+00,1.643937969713485003e+09,5.326349379986069360e-02,-9.375822838962802885e-01,-4.048391591244677734e+00,9.935415188651879059e-02,2.569440041950699638e-01,-2.349851460599898523e-01,-4.206585855621721715e-01
1.916666666666666741e+00,1.643937969730444193e+09,5.597654709292822217e-02,1.051206968444262424e+00,3.810616238872478689e+00,1.314038783015236689e-01,2.536144055449093271e-01,-2.417577983330480296e-01,-3.921389103892944927e-01
1.933333333333333348e+00,1.643937969748367071e+09,5.869783345663372870e-02,-8.861110278962989195e-01,-4.130954104979796426e+00,1.955033311315334810e-01,2.482102332643885412e-01,-2.483273915936159704e-01,-3.962009970392583735e-01
1.949999999999999956e+00,1.643937969765337229e+09,6.141566948145652655e-02,-9.687604183543873093e-01,-4.653850025302186388e+00,2.596027839615456800e-01,2.406952382869352314e-01,-2.549765787908208070e-01,-4.016862295098443947e-01
1.966666666666666563e+00,1.643937969782696486e+09,6.411804620415832712e-02,-9.894010467881668713e-01,-4.736412539037305081e+00,2.596027839615456800e-01,2.310491987978639805e-01,-2.617206121158419108e-01,-4.075813936513283386e-01
1.983333333333333393e+00,1.643937969798831701e+09,6.679271896548939769e-02,1.114801105911461088e+00,3.584246892516192773e+00,2.916525103765505444e-01,2.192686242561868448e-01,-2.682730776211084134e-01,-3.787944326432676756e-01
2.000000000000000000e+00,1.643937969817057848e+09,6.942730166231093902e-02,-6.765252689884745374e-01,-3.869506144818601001e+00,3.878016896215676357e-01,2.053673334816048801e-01,-2.745990754582651183e-01,-3.803210670645588154e-01
2.016666666666666607e+00,1.643937969832366705e+09,7.200936454647370588e-02,-7.075730883621157430e-01,-4.185995780803195565e+00,4.519011424515774755e-01,1.893768980824194481e-01,-2.809568032901552659e-01,-3.825999424039969177e-01
2.033333333333333215e+00,1.643937969849376917e+09,7.452653466629477474e-02,-7.523378883301258258e-01,-4.461204159920249879e+00,4.839508688665823399e-01,1.713469435181335654e-01,-2.873608708611325446e-01,-3.858790572465528590e-01
2.049999999999999822e+00,1.643937969865540266e+09,7.696659799866785445e-02,1.297588147327700447e+00,3.546201624221018367e+00,5.480503216965945112e-01,1.513453012042124679e-01,-2.935387632630916954e-01,-3.555522740357284772e-01
2.066666666666666430e+00,1.643937969884833097e+09,7.931760228143977520e-02,1.297630585727550745e+00,3.354073019330389371e+00,6.121497745266043511e-01,1.294580062674141330e-01,-2.992184152511179196e-01,-3.260878121811195407e-01
2.083333333333333481e+00,1.643937969898127317e+09,8.156795952730760968e-02,-6.080272427396251622e-01,-4.268558294538313369e+00,6.121497745266043511e-01,1.057891368388272357e-01,-3.046775420872657181e-01,-3.289993204433183660e-01
2.100000000000000089e+00,1.643937969916079998e+09,8.370654718264997074e-02,-6.597156905470491495e-01,-4.667610444258046165e+00,6.762492273566165224e-01,8.046049211794549516e-02,-3.101954295613922330e-01,-3.331356862763436011e-01
2.116666666666666696e+00,1.643937969933485508e+09,8.572280688781355740e-02,1.354307799116323929e+00,3.196185155905417297e+00,7.403486801866263622e-01,5.361110784346154179e-02,-3.155072156701774211e-01,-3.043585850515619917e-01
2.133333333333333304e+00,1.643937969949727297e+09,8.760683979971817248e-02,1.370736040268544453e+00,3.165748941269277417e+00,7.723984066016336136e-01,2.539660925318389106e-02,-3.203449860565547036e-01,-2.762519371731558815e-01
2.149999999999999911e+00,1.643937969967859983e+09,8.934949745339294813e-02,1.438308829892328555e+00,3.243741741274384527e+00,8.364978594316434535e-01,-4.011596906152642590e-03,-3.247129231045434716e-01,-2.479790462420641828e-01
2.166666666666666519e+00,1.643937969984965801e+09,9.094246716625398186e-02,1.488026680802824853e+00,3.346463965671354401e+00,8.685475858466483734e-01,-3.442728826147378740e-02,-3.286108843455745054e-01,-2.198544284586773090e-01
2.183333333333333126e+00,1.643937970002105474e+09,9.237835102749356042e-02,-1.922089529399614305e-01,-3.566776927789827134e+00,9.326470386766605447e-01,-6.565054602869078992e-02,-3.322803740991880916e-01,-2.204825970212079544e-01
2.200000000000000178e+00,1.643937970020374537e+09,9.365073756466030241e-02,-4.125059713180679877e-01,-4.736412539037305081e+00,1.028796217921677636e+00,-9.746902150802334852e-02,-3.359950688836985111e-01,-2.252674854504657376e-01
2.216666666666666785e+00,1.643937970036335230e+09,9.475426524002110440e-02,-4.366301428522984529e-01,-4.929058404419241590e+00,1.060845944336682445e+00,-1.296593423363915087e-01,-3.397966291033036046e-01,-2.309040833173388041e-01
2.233333333333333393e+00,1.643937970054282904e+09,9.568467700013741362e-02,-6.156024660013569294e-01,-5.837246055505504572e+00,1.124945397166692285e+00,-1.619886495407649729e-01,-3.437205391775978724e-01,-2.399400251687465457e-01
2.250000000000000000e+00,1.643937970070240021e+09,9.643886518266328589e-02,-1.066299625167012488e+00,-7.736183871413148339e+00,1.156995123581699536e+00,-1.942162550541791377e-01,-3.478605020434147876e-01,-2.568086603066161433e-01
2.266666666666666607e+00,1.643937970087193251e+09,9.701490617396167637e-02,-5.812882953347022763e-01,-5.892287731328922362e+00,1.189044849996704567e+00,-2.260954080387660436e-01,-3.522166920815278934e-01,-2.659088653247275169e-01
2.283333333333333215e+00,1.643937970107146740e+09,9.741208430890965775e-02,1.889183325862327401e+00,3.797300394969167492e+00,1.253144302826714185e+00,-2.573751571210676214e-01,-3.563863928799553826e-01,-2.345423617139457129e-01
2.299999999999999822e+00,1.643937970122271299e+09,9.763090460927884018e-02,1.950832761514917468e+00,3.755450599844476045e+00,1.349293482071731276e+00,-2.878022944970516361e-01,-3.600333385359158478e-01,-2.031782416076874931e-01
2.316666666666666430e+00,1.643937970139227390e+09,9.767309406830639029e-02,1.987493770648873115e+00,3.709796277890268001e+00,1.413392934901741116e+00,-3.171233668200452716e-01,-3.631608670889561186e-01,-1.722112063241667268e-01
2.333333333333333481e+00,1.643937970154379129e+09,9.754159130538138378e-02,2.007985540757380338e+00,3.599464999834261825e+00,1.477492387731753398e+00,-3.450867368558475090e-01,-3.657775875507461860e-01,-1.418795057973511464e-01
2.350000000000000089e+00,1.643937970172589779e+09,9.724052453497127047e-02,2.031806271841714917e+00,3.502449565681568622e+00,1.541591840561763238e+00,-3.714446790864006087e-01,-3.678933195409035406e-01,-1.120910805946052080e-01
2.366666666666666696e+00,1.643937970189536810e+09,9.677517791672807235e-02,2.065830449580453365e+00,3.542397097391501770e+00,1.573641566976770489e+00,-3.959554917763894455e-01,-3.695153781791069569e-01,-8.263777265966740226e-02
2.383333333333333304e+00,1.643937970205010891e+09,9.615194647784106041e-02,2.114597168783570069e+00,3.641314794958953271e+00,1.605691293391775298e+00,-4.183856074947293058e-01,-3.706469788325018611e-01,-5.323597931812514700e-02
2.399999999999999911e+00,1.643937970223019123e+09,9.537827992277940481e-02,2.131976541643168410e+00,3.614683107152333097e+00,1.637741019806780329e+00,-4.385116837127192579e-01,-3.712929899632764208e-01,-2.436555388850975348e-02
2.416666666666666519e+00,1.643937970240148544e+09,9.446261576822752304e-02,2.200500462974333438e+00,3.696480433986956804e+00,1.701840472636792390e+00,-4.561226548889084631e-01,-3.714547828123770934e-01,4.869202428681329575e-03
2.433333333333333126e+00,1.643937970257419348e+09,9.341430236087440442e-02,2.258778499251243854e+00,3.833443399849583599e+00,1.733890199051797421e+00,-4.710217274024898204e-01,-3.711273761178678909e-01,3.433774193165137212e-02
2.450000000000000178e+00,1.643937970274724007e+09,9.224351245140080535e-02,2.294921504131659518e+00,3.978015419371244921e+00,1.733890199051797421e+00,-4.830282988157538204e-01,-3.703095635714554468e-01,6.371814947383733219e-02
2.466666666666666785e+00,1.643937970289896488e+09,9.096114810817391982e-02,2.279011267232979865e+00,3.818225292531512771e+00,1.765939925466802229e+00,-4.919797832339642407e-01,-3.690095695159098521e-01,9.220201348494197480e-02
2.483333333333333393e+00,1.643937970308851719e+09,8.957873785748800277e-02,2.279962398940359236e+00,3.822029819361030700e+00,1.765939925466802229e+00,-4.977333249884656197e-01,-3.672394419102942842e-01,1.201357037785246440e-01
2.500000000000000000e+00,1.643937970324293375e+09,8.810832703243764996e-02,2.246197223328392223e+00,3.686969116913162647e+00,1.765939925466802229e+00,-5.001673834949231789e-01,-3.650126108713059869e-01,1.470093700700941253e-01
2.516666666666666607e+00,1.643937970341600418e+09,8.656236239848925929e-02,2.244770525767323388e+00,3.681262326668886420e+00,1.765939925466802229e+00,-4.991831729308060517e-01,-3.623416583148470482e-01,1.734315400609104385e-01
2.533333333333333215e+00,1.643937970358658314e+09,8.495357219942631377e-02,2.266646555037048483e+00,3.768766443747787243e+00,1.765939925466802229e+00,-4.947059413304177311e-01,-3.592303457763033059e-01,1.998525710841438374e-01
2.549999999999999822e+00,1.643937970375844955e+09,8.329484283158376801e-02,2.229076852595563984e+00,3.618487633981849694e+00,1.765939925466802229e+00,-4.866860748063207009e-01,-3.556864134447753623e-01,2.253484850491032643e-01
2.566666666666666430e+00,1.643937970393317699e+09,8.159909340627176377e-02,2.213858745277494489e+00,3.557615204709571266e+00,1.765939925466802229e+00,-4.751000138656671923e-01,-3.517215723822478823e-01,2.503629561767729550e-01
2.583333333333333481e+00,1.643937970410752058e+09,7.987914949924018737e-02,2.226699023327115778e+00,3.608976316908056425e+00,1.765939925466802229e+00,-4.599509701901166037e-01,-3.473394125797437115e-01,2.754265972598854417e-01
2.600000000000000089e+00,1.643937970425711870e+09,7.814761741133349759e-02,2.231238118137092385e+00,3.530983516902948871e+00,1.797989651881807038e+00,-4.412694337785381116e-01,-3.425397799832959889e-01,3.004597760694136532e-01
2.616666666666666696e+00,1.643937970442672729e+09,7.641676027562251117e-02,2.168204423323285557e+00,3.374997916892735095e+00,1.765939925466802229e+00,-4.191134620011397471e-01,-3.373320313866734477e-01,3.244035434948268626e-01
2.633333333333333304e+00,1.643937970461083174e+09,7.469837734295167730e-02,2.165351028201147887e+00,3.363584336404183972e+00,1.765939925466802229e+00,-3.935687438692448969e-01,-3.317253929878749563e-01,3.483266098348933859e-01
2.649999999999999911e+00,1.643937970476440907e+09,7.300368775980986547e-02,2.100198506245661623e+00,3.102974248582240246e+00,1.765939925466802229e+00,-3.647484346728112059e-01,-3.257283593059568383e-01,3.712537440125227572e-01
2.666666666666666519e+00,1.643937970493660927e+09,7.134322011969730648e-02,2.141097169662973698e+00,3.266568902251488993e+00,1.765939925466802229e+00,-3.327927580628282089e-01,-3.193423107504940184e-01,3.950061023170624019e-01
2.683333333333333126e+00,1.643937970510695696e+09,6.972670902187293185e-02,2.203179732769401600e+00,3.418749975432185728e+00,1.797989651881807038e+00,-2.978683746421083023e-01,-3.125502715963449640e-01,4.199692524650349146e-01
2.700000000000000178e+00,1.643937970527844191e+09,6.816299980981127549e-02,2.211956481862735746e+00,3.550006151050536296e+00,1.765939925466802229e+00,-2.601675181588468111e-01,-3.053392083524108513e-01,4.452880052828322444e-01
2.716666666666666785e+00,1.643937970544887066e+09,6.665996258636537608e-02,2.240490433084116439e+00,3.664141955936059070e+00,1.765939925466802229e+00,-2.199069024551889573e-01,-2.977001609937091064e-01,4.713253501012792945e-01
2.733333333333333393e+00,1.643937970560362339e+09,6.522441651412867747e-02,2.258561935524324049e+00,3.736427965696889064e+00,1.765939925466802229e+00,-1.773264043899775710e-01,-2.896223768945180299e-01,4.979348248543273292e-01
2.750000000000000000e+00,1.643937970579291582e+09,6.386206530863208775e-02,2.290208283994612515e+00,3.766864180333028944e+00,1.797989651881807038e+00,-1.326875300123447343e-01,-2.810942403103292020e-01,5.253653675031763060e-01
2.766666666666666607e+00,1.643937970596270800e+09,6.257744471970112798e-02,2.264268725768600277e+00,3.759255126673993974e+00,1.765939925466802229e+00,-8.627167329239424087e-02,-2.721098885389988675e-01,5.526809666064493864e-01
2.783333333333333215e+00,1.643937970613619328e+09,6.137388267365123662e-02,2.227650155034495150e+00,3.612780843737573022e+00,1.765939925466802229e+00,-3.837817869806745691e-02,-2.626724923286823943e-01,5.797314366684066522e-01
2.799999999999999822e+00,1.643937970630193710e+09,6.025347261719024572e-02,2.223845628204977665e+00,3.597562736419503526e+00,1.765939925466802229e+00,1.067777917505761780e-02,-2.527817410248540675e-01,6.070827421542456248e-01
2.816666666666666430e+00,1.643937970649321795e+09,5.921706046429327241e-02,2.230027984302943800e+00,3.622292160811367623e+00,1.765939925466802229e+00,6.056748388013227097e-02,-2.424311677045398461e-01,6.349087599703160389e-01
2.833333333333333481e+00,1.643937970665580988e+09,5.826424540132281449e-02,2.165826594054837351e+00,3.365486599818942270e+00,1.765939925466802229e+00,1.109511165278951467e-01,-2.316225792796640093e-01,6.620464667218191046e-01
2.850000000000000089e+00,1.643937970682652712e+09,5.739339465484268044e-02,2.188912757158711475e+00,3.361682072989423897e+00,1.797989651881807038e+00,1.614803279400517655e-01,-2.203552762236004603e-01,6.899523817507349222e-01
2.866666666666666696e+00,1.643937970699967623e+09,5.660167217251994842e-02,2.158217540395801937e+00,3.335050385182801946e+00,1.765939925466802229e+00,2.118009236800194039e-01,-2.086240182954929023e-01,7.177214315572243430e-01
2.883333333333333304e+00,1.643937970715893745e+09,5.588508101188718880e-02,2.169155555030665372e+00,3.378802443722253468e+00,1.765939925466802229e+00,2.615556407650423965e-01,-1.964253954352366549e-01,7.460346619602299389e-01
2.899999999999999911e+00,1.643937970734187365e+09,5.523851907627169017e-02,2.174645781548021350e+00,3.304614170546662955e+00,1.797989651881807038e+00,3.103869936997646350e-01,-1.837512931154489104e-01,7.747777725612385868e-01
2.916666666666666519e+00,1.643937970750248909e+09,5.465584768362802270e-02,2.142999433077732885e+00,3.274177955910523519e+00,1.765939925466802229e+00,3.579401664854265919e-01,-1.705999119065777503e-01,8.033087180117534087e-01
2.933333333333333126e+00,1.643937970768754005e+09,5.412997230406068477e-02,2.145636264472951193e+00,3.188576102246382771e+00,1.797989651881807038e+00,4.038659264626696110e-01,-1.569702481592680499e-01,8.321707574467039903e-01
2.950000000000000178e+00,1.643937970785165548e+09,5.365293465724626371e-02,2.142782869350812636e+00,3.177162521757829872e+00,1.797989651881807038e+00,4.478235352497616506e-01,-1.428578595261627004e-01,8.612351422236081966e-01
2.966666666666666785e+00,1.643937970801228046e+09,5.321601522343801655e-02,2.111612086734214078e+00,3.148628570536449622e+00,1.765939925466802229e+00,4.894836316505090656e-01,-1.282636300781828664e-01,8.899925080820404455e-01
2.983333333333333393e+00,1.643937970819438934e+09,5.280984509290619078e-02,2.096393979416144138e+00,3.087756141264171195e+00,1.765939925466802229e+00,5.285310612340466951e-01,-1.131907918630691845e-01,9.186684205444299867e-01
3.000000000000000000e+00,1.643937970839492083e+09,5.242452596011181604e-02,2.095442847708764766e+00,3.083951614434652821e+00,1.765939925466802229e+00,5.646676273373125721e-01,-9.763912267516483556e-02,9.474519259406268823e-01
3.016666666666666607e+00,1.643937970855423927e+09,5.204975696209414304e-02,2.153245318131985719e+00,3.219012316882521318e+00,1.797989651881807038e+00,5.976147385132261070e-01,-8.159916961195942675e-02,9.772596404881750409e-01
3.033333333333333215e+00,1.643937970871062994e+09,5.167496696685985186e-02,2.210788786428436570e+00,3.449186190068324720e+00,1.797989651881807038e+00,6.271159279449857182e-01,-6.505451571114317932e-02,1.008013398493582402e+00
3.049999999999999822e+00,1.643937970889481306e+09,5.128945083822307460e-02,2.195311676983596971e+00,3.483426931533980753e+00,1.765939925466802229e+00,6.529392210683988562e-01,-4.800011788125230217e-02,1.038429848964558033e+00
3.066666666666666430e+00,1.643937970906465292e+09,5.088250813967910152e-02,2.192458281861458858e+00,3.472013351045430074e+00,1.765939925466802229e+00,6.748793285871839132e-01,-3.044034407925453461e-02,1.068659035336704255e+00
3.083333333333333481e+00,1.643937970924056768e+09,5.044358269243404830e-02,2.210054218447977004e+00,3.542397097391501770e+00,1.765939925466802229e+00,6.927596432259217618e-01,-1.237602577717201655e-02,1.098974948062519941e+00
3.100000000000000089e+00,1.643937970941337347e+09,4.996240137244473134e-02,2.232881379425081469e+00,3.633705741299919190e+00,1.765939925466802229e+00,7.064340199348726479e-01,6.194412098613388123e-03,1.129393100176067088e+00
3.116666666666666696e+00,1.643937970956560850e+09,4.942911051884387591e-02,2.254281842841116656e+00,3.719307594964060826e+00,1.765939925466802229e+00,7.157883208316360157e-01,2.527186566933616388e-02,1.159816815999890283e+00
3.133333333333333304e+00,1.643937970971633196e+09,4.883440833184742730e-02,2.290208283994612515e+00,3.766864180333028944e+00,1.797989651881807038e+00,7.207417079256930315e-01,4.485782537392125902e-02,1.190413356160643588e+00
3.149999999999999911e+00,1.643937970992753029e+09,4.816967166236488240e-02,2.260421760539232494e+00,3.936165624246553474e+00,1.701840472636792390e+00,7.212476686108962864e-01,6.494545715918513540e-02,1.220020214861215146e+00
3.166666666666666519e+00,1.643937971007736683e+09,4.742707563808802596e-02,2.251343570919277060e+00,4.092151224256767250e+00,1.637741019806780329e+00,7.172947610133796337e-01,8.552064741371202816e-02,1.248922330138899195e+00
3.183333333333333126e+00,1.643937971022673130e+09,4.659970463160476029e-02,2.349870579432741913e+00,4.101662541330560074e+00,1.765939925466802229e+00,7.089070685324146970e-01,1.065859977022575178e-01,1.278836607316439666e+00
3.200000000000000178e+00,1.643937971039925575e+09,4.568165315468343535e-02,1.973358481965400424e+00,4.134001019381458697e+00,1.253144302826714185e+00,6.961443552915491662e-01,1.280920206711132769e-01,1.301822298301866354e+00
3.216666666666666785e+00,1.643937971057931662e+09,4.466811535868722011e-02,1.725894484447364707e+00,3.913338463269447676e+00,9.967464915066702735e-01,6.791019167082051888e-01,1.499414299336826462e-01,1.320056162391889831e+00
3.233333333333333393e+00,1.643937971075832367e+09,4.355546193329927485e-02,1.510293399126537928e+00,3.820127555946272402e+00,7.403486801866263622e-01,6.579101219713597848e-01,1.720595125099330380e-01,1.334074805167271061e+00
3.250000000000000000e+00,1.643937971092811823e+09,4.234130332336676766e-02,1.327548796110150198e+00,3.666044219350817368e+00,5.480503216965945112e-01,6.327336478675541498e-01,1.943805847075862903e-01,1.344425107035912781e+00
3.266666666666666607e+00,1.643937971109774590e+09,4.102453832551358065e-02,1.214020244005535654e+00,3.692675907157439319e+00,3.878016896215676357e-01,6.037704060931421424e-01,2.168530513098551049e-01,1.352249151268621885e+00
3.283333333333333215e+00,1.643937971126696110e+09,3.960538728084932875e-02,-7.451536103217815121e-01,-3.759422793171763200e+00,2.596027839615456800e-01,5.712501689119678927e-01,2.391797442067252200e-01,1.327024067681588315e+00
3.299999999999999822e+00,1.643937971142678022e+09,3.808540924611148598e-02,-2.826286662310016240e+00,-1.179550746338965084e+01,1.634536047165285888e-01,5.354329007392540918e-01,2.607971089104251794e-01,1.267225806951709055e+00
3.316666666666666430e+00,1.643937971159632444e+09,3.646750270119376164e-02,-2.998205022535196385e+00,-1.229088254580034167e+01,9.935415188651879059e-02,4.966068059300963178e-01,2.813969871716187066e-01,1.204932625080430419e+00
3.333333333333333481e+00,1.643937971177584171e+09,3.475588953445702539e-02,-3.073843888430900950e+00,-1.249728883013813707e+01,6.730442547151148369e-02,4.550861057005289312e-01,3.009510675625876597e-01,1.141732581643955191e+00
3.350000000000000089e+00,1.643937971194540977e+09,3.295608223654675206e-02,-3.311167677057870407e+00,-1.335043480540100269e+01,3.525469905650659153e-02,4.112085596865059367e-01,3.194217034491645402e-01,1.074929293801188956e+00
3.366666666666666696e+00,1.643937971210498571e+09,3.107483442660373407e-02,-3.090957535402739431e+00,-1.237344505953546303e+01,3.204972641501691987e-03,3.653327501275333566e-01,3.368122572534153480e-01,1.012111660242351441e+00
3.383333333333333304e+00,1.643937971228763580e+09,2.912007502968845876e-02,-3.276723191306750493e+00,-1.311650768315150728e+01,3.204972641501691987e-03,3.178351490235544752e-01,3.531323084637938980e-01,9.464768083272530053e-01
3.399999999999999911e+00,1.643937971244269133e+09,2.710082661874804386e-02,-3.307640695595930325e+00,-1.314402852106320552e+01,-2.884475377350440711e-02,2.691069908336683469e-01,3.683565102954414194e-01,8.806103780829011018e-01
3.416666666666666519e+00,1.643937971262335300e+09,2.502710862638708386e-02,-3.077110239723913843e+00,-1.212575751833012561e+01,-6.089448018850930622e-02,2.195509753412669962e-01,3.825170320739001428e-01,8.188238685647316606e-01
3.433333333333333126e+00,1.643937971279728413e+09,2.290982631883364123e-02,-3.283473085700209460e+00,-1.285505972299029231e+01,-9.294420660351540575e-02,1.695778271817931226e-01,3.956209074218327015e-01,7.538217389081588449e-01
3.449999999999999734e+00,1.643937971297247171e+09,2.076064660468135425e-02,-4.487509744337306650e+00,-1.767120635753867930e+01,-9.294420660351540575e-02,1.196027401971558740e-01,4.074771873407170841e-01,6.691670089202719218e-01
3.466666666666666785e+00,1.643937971314654589e+09,1.859186192206867955e-02,-4.583745800305298879e+00,-1.786385222292061670e+01,-1.570436594335263836e-01,7.004173622715202663e-02,4.179141100840156886e-01,5.835016851090042422e-01
3.483333333333333393e+00,1.643937971330611944e+09,1.641624360789543241e-02,-2.990933867803883039e+00,-1.139645531366993936e+01,-1.890933858485313035e-01,2.130796915668822789e-02,4.271483784143890183e-01,5.247736518011776319e-01
3.500000000000000000e+00,1.643937971347636938e+09,1.424688629946796285e-02,-2.609082241778975408e+00,-9.869048809570307057e+00,-1.890933858485313035e-01,-2.619199400577677112e-02,4.354581385534024296e-01,4.725426543990850492e-01
3.516666666666666607e+00,1.643937971363620043e+09,1.209704505078356904e-02,-3.819912233171021576e+00,-1.452007041664846021e+01,-2.531928386785423091e-01,-7.206188255093638750e-02,4.427310202259965854e-01,4.004035374644582812e-01
3.533333333333333215e+00,1.643937971380749702e+09,9.979966960736837145e-03,-3.795831499998277181e+00,-1.442374748395748263e+01,-2.531928386785423091e-01,-1.159193891069148497e-01,4.488088155960322512e-01,3.291298939426694492e-01
3.549999999999999822e+00,1.643937971397669554e+09,7.908719207334711718e-03,-3.641070225106425973e+00,-1.390085156363509178e+01,-2.211431122635373892e-01,-1.573997612719960359e-01,4.537242076733866702e-01,2.609066687590079758e-01
3.566666666666666430e+00,1.643937971416294098e+09,5.896015459123629850e-03,-3.341737674455146134e+00,-1.260737218178495844e+01,-2.531928386785423091e-01,-1.961592849728139576e-01,4.575479595000847000e-01,1.981179676085106089e-01
3.583333333333333481e+00,1.643937971434254408e+09,3.954042691264767276e-03,-4.009117993813993586e+00,-1.527689345922034647e+01,-2.531928386785423091e-01,-2.318786271220577289e-01,4.602367929049331341e-01,1.247458571880613321e-01
3.600000000000000089e+00,1.643937971450233936e+09,2.094290468064956539e-03,-4.215524278151784543e+00,-1.610251859657151030e+01,-2.531928386785423091e-01,-2.642660058841495574e-01,4.616799096953774217e-01,4.863956899701817049e-02
3.616666666666666696e+00,1.643937971466153860e+09,3.273847655144174348e-04,-5.041192853864425061e+00,-1.950134207866708635e+01,-2.211431122635373892e-01,-2.930601578811414254e-01,4.617470813695005449e-01,-4.033181953953106358e-02
3.633333333333333304e+00,1.643937971483273029e+09,-1.337071604028440336e-03,-4.628336846827356688e+00,-1.775376887127380243e+01,-2.531928386785423091e-01,-3.180330729797870570e-01,4.603972599467943683e-01,-1.214214967802772910e-01
3.649999999999999911e+00,1.643937971501112938e+09,-2.890649937701489283e-03,-4.649020913622627482e+00,-1.793265431769989604e+01,-2.211431122635373892e-01,-3.389924688870531999e-01,4.577013922342436647e-01,-2.018591854428878896e-01
3.666666666666666519e+00,1.643937971519194365e+09,-4.326235989549420159e-03,-4.466651924096090021e+00,-1.710702918034873221e+01,-2.531928386785423091e-01,-3.557839796357942785e-01,4.536988761149974292e-01,-2.782306010525064099e-01
3.683333333333333126e+00,1.643937971536335707e+09,-5.638157831982719241e-03,-4.800342083775513302e+00,-1.844178981906642534e+01,-2.531928386785423091e-01,-3.682930341525944562e-01,4.483862343187471344e-01,-3.590618778883912787e-01
3.699999999999999734e+00,1.643937971552649498e+09,-6.822299448043420492e-03,-3.795831499998277181e+00,-1.442374748395748263e+01,-2.531928386785423091e-01,-3.764464034514412583e-01,4.418751863871384633e-01,-4.220887950142779288e-01
3.716666666666666785e+00,1.643937971569583654e+09,-7.876198397445938193e-03,-2.743159449875562039e+00,-1.021305928346662206e+01,-2.531928386785423091e-01,-3.802133975728947957e-01,4.344672704357153692e-01,-4.667370931869957995e-01
3.733333333333333393e+00,1.643937971587238789e+09,-8.799126046565545686e-03,-1.718008237664546467e+00,-6.112454434622558885e+00,-2.531928386785423091e-01,-3.796066961698068565e-01,4.264630612214874716e-01,-4.936931328700071564e-01
3.750000000000000000e+00,1.643937971603175402e+09,-9.592149019461097131e-03,-1.208872736298000961e+00,-4.075912429156376859e+00,-2.531928386785423091e-01,-3.746827996061078414e-01,4.180843100014036695e-01,-5.117069739149918695e-01
3.766666666666666607e+00,1.643937971619136810e+09,-1.025817071216785469e-02,-9.439846713978409243e-01,-3.016360169555737158e+00,-2.531928386785423091e-01,-3.655420905616115768e-01,4.094456651689399873e-01,-5.248937751151857567e-01
3.783333333333333215e+00,1.643937971637059212e+09,-1.080195191416773171e-02,5.932414230687683698e-01,3.036395029065686035e+00,-2.211431122635373892e-01,-3.523284993985331681e-01,4.008032091870386004e-01,-5.122361037387804794e-01
3.799999999999999822e+00,1.643937971655660391e+09,-1.123010979720586583e-02,5.715819575259631913e-01,3.045906346139479748e+00,-2.531928386785423091e-01,-3.352287699176693669e-01,3.923693363178376026e-01,-4.998630110761079215e-01
3.816666666666666430e+00,1.643937971672875404e+09,-1.155109476037671778e-02,6.124806209432753779e-01,3.209500999808728050e+00,-2.531928386785423091e-01,-3.144713255867669921e-01,3.841484886543155564e-01,-4.866753418233107364e-01
3.833333333333333481e+00,1.643937971688956976e+09,-1.177514485932937109e-02,6.443435331404837596e-01,3.336952648597562021e+00,-2.531928386785423091e-01,-2.903247398309955485e-01,3.761533500506870631e-01,-4.727798899978574720e-01
3.850000000000000089e+00,1.643937971706666946e+09,-1.191421779414614766e-02,6.928512502168305831e-01,3.530983516902948871e+00,-2.531928386785423091e-01,-2.630958175064949112e-01,3.683983438465009974e-01,-4.578622932484991415e-01
3.866666666666666696e+00,1.643937971723361731e+09,-1.198190068232971896e-02,6.724019185081744343e-01,3.449186190068324720e+00,-2.531928386785423091e-01,-2.331272982018434414e-01,3.608912186238383280e-01,-4.430339243540643013e-01
3.883333333333333304e+00,1.643937971740312815e+09,-1.199329809774708072e-02,6.433924014331041663e-01,3.333148121768043648e+00,-2.531928386785423091e-01,-2.007951954984692478e-01,3.536296436982238056e-01,-4.283957293295392321e-01
3.899999999999999911e+00,1.643937971756269693e+09,-1.196489911058132294e-02,6.452946648478629088e-01,3.340757175427078618e+00,-2.531928386785423091e-01,-1.665057897385228691e-01,3.466150156662888837e-01,-4.134012867124486346e-01
3.916666666666666519e+00,1.643937971772203684e+09,-1.191442431456089628e-02,6.262720307002759279e-01,3.264666638836730694e+00,-2.531928386785423091e-01,-1.306922951667953692e-01,3.398505431334293836e-01,-3.983771519206977807e-01
3.933333333333333126e+00,1.643937971789184809e+09,-1.186065407316327230e-02,6.158095819191030662e-01,3.222816843712039248e+00,-2.531928386785423091e-01,-9.381122550162286633e-02,3.333380466592036351e-01,-3.831646828395139925e-01
3.949999999999999734e+00,1.643937971807015419e+09,-1.182323945334335866e-02,6.200896746023100148e-01,3.239937214444867042e+00,-2.531928386785423091e-01,-5.633848501862148694e-02,3.270827571046612259e-01,-3.675135401252434542e-01
3.966666666666666785e+00,1.643937971823534012e+09,-1.182249754090597404e-02,5.982136453325848091e-01,3.152433097365966219e+00,-2.531928386785423091e-01,-1.876521507202229960e-02,3.210883262957636153e-01,-3.518616354786697764e-01
3.983333333333333393e+00,1.643937971842482805e+09,-1.187919304323395431e-02,5.986892111862747168e-01,3.154335360780725850e+00,-2.531928386785423091e-01,1.840657139631482822e-02,3.153577985865169131e-01,-3.358461780597132296e-01
4.000000000000000000e+00,1.643937971859436274e+09,-1.201430828014943275e-02,5.858489331366534270e-01,3.102974248582240246e+00,-2.531928386785423091e-01,5.466853242637562116e-02,3.098952181191562127e-01,-3.197083064996353863e-01
4.016666666666666607e+00,1.643937971875396252e+09,-1.224880383984134138e-02,6.043960014305508333e-01,3.177162521757829872e+00,-2.531928386785423091e-01,8.951067963616880785e-02,3.047067473520096437e-01,-3.029547243813768276e-01
4.033333333333333215e+00,1.643937971893347502e+09,-1.260337233171892474e-02,6.315032550908622477e-01,3.285591536399075974e+00,-2.531928386785423091e-01,1.224261619630910986e-01,2.998034793106231777e-01,-2.854859660557577672e-01
4.049999999999999822e+00,1.643937971909304857e+09,-1.309818779973583383e-02,6.567082453364152528e-01,3.386411497381287550e+00,-2.531928386785423091e-01,1.529161101474350026e-01,2.951966370604001133e-01,-2.673853845474705171e-01
4.066666666666666430e+00,1.643937971927356482e+09,-1.375265346629045253e-02,6.814376697282782391e-01,3.485329194948739939e+00,-2.531928386785423091e-01,1.804945003599031927e-01,2.908961958887521515e-01,-2.487194072076861773e-01
4.083333333333333037e+00,1.643937971945616245e+09,-1.458515055663457162e-02,6.712342230738751470e-01,3.348366229086112700e+00,-2.211431122635373892e-01,2.046929945208223467e-01,2.869062091882746968e-01,-2.301306335472970976e-01
4.099999999999999645e+00,1.643937971960577965e+09,-1.561279100546241957e-02,7.071606642273717824e-01,3.395922814455080818e+00,-1.890933858485313035e-01,2.250657143588998821e-01,2.832312439596516573e-01,-2.109185620089028546e-01
4.116666666666666252e+00,1.643937971978528261e+09,-1.685117686993248959e-02,7.314569611653961578e-01,3.300809643717145470e+00,-1.249939330185202979e-01,2.411939061205071178e-01,2.798794097929778735e-01,-1.913558800541306781e-01
4.133333333333332860e+00,1.643937971995325089e+09,-1.831416926599793021e-02,7.433461075076379654e-01,3.348366229086112700e+00,-1.249939330185202979e-01,2.526904530742060673e-01,2.768541483617842913e-01,-1.717300092799063649e-01
4.150000000000000355e+00,1.643937972013370991e+09,-2.001366960712294002e-02,7.761601514122258294e-01,3.479622404704464600e+00,-1.249939330185202979e-01,2.592041935621859361e-01,2.741587060149674460e-01,-1.517784945168493271e-01
4.166666666666666963e+00,1.643937972029328585e+09,-2.195941585607431162e-02,8.020997096382382896e-01,3.487231458363499570e+00,-9.294420660351540575e-02,2.604240033314152991e-01,2.717967844664864741e-01,-1.317078444188741204e-01
4.183333333333333570e+00,1.643937972047282219e+09,-2.415879640167776371e-02,8.016241437845483819e-01,3.485329194948739939e+00,-9.294420660351540575e-02,2.560826022296376903e-01,2.697659362628861413e-01,-1.120485504483706846e-01
4.200000000000000178e+00,1.643937972063213587e+09,-2.661668404367338592e-02,8.011485779308586963e-01,3.483426931533980753e+00,-9.294420660351540575e-02,2.459600470684795426e-01,2.680585637895388507e-01,-9.288936755836774140e-02
4.216666666666666785e+00,1.643937972080218554e+09,-2.933529241095664264e-02,8.068553681751350348e-01,3.506254092511086551e+00,-9.294420660351540575e-02,2.298868745291050009e-01,2.666664329452291815e-01,-7.421819933565404481e-02
4.233333333333333393e+00,1.643937972096149206e+09,-3.231405695265498340e-02,8.182689486636870457e-01,3.551908414465294594e+00,-9.294420660351540575e-02,2.077468604019568621e-01,2.655814278265270501e-01,-5.603293073252454265e-02
4.250000000000000000e+00,1.643937972113264561e+09,-3.554954242914194068e-02,8.225490413468942164e-01,3.569028785198123277e+00,-9.294420660351540575e-02,1.794793641960360231e-01,2.647936856073601075e-01,-3.854471508764212295e-02
4.266666666666666607e+00,1.643937972130893707e+09,-3.903537859296470763e-02,8.496562950072059639e-01,3.677457799839369823e+00,-9.294420660351540575e-02,1.450812312059198694e-01,2.642939911479793014e-01,-2.146606185804252748e-02
4.283333333333333215e+00,1.643937972150242805e+09,-4.276222548986698818e-02,8.558386511051714329e-01,3.702187224231231699e+00,-9.294420660351540575e-02,1.046082274648144073e-01,2.640718457556234244e-01,-5.236468489520251790e-03
4.299999999999999822e+00,1.643937972165436506e+09,-4.671776952988689058e-02,8.701056267158618907e-01,3.759255126673993974e+00,-9.294420660351540575e-02,5.817598661505821167e-02,2.641135092640577442e-01,1.019322822422741477e-02
4.316666666666666430e+00,1.643937972182892323e+09,-5.088675118052336105e-02,8.677277974474132405e-01,3.749743809600199373e+00,-9.294420660351540575e-02,5.960451566733099109e-03,2.644026627642588334e-01,2.446554554092875144e-02
4.333333333333333037e+00,1.643937972199231148e+09,-5.525102482100364282e-02,8.241923026348830783e-01,3.671751009595093151e+00,-1.249939330185202979e-01,-5.180220213916267302e-02,2.649137255693307935e-01,3.682765107745211708e-02
4.349999999999999645e+00,1.643937972214955091e+09,-5.978965097176480725e-02,8.358648852502053028e-01,3.622292160811367623e+00,-9.294420660351540575e-02,-1.148161701252747025e-01,2.656220247087278108e-01,4.813683052347058483e-02
4.366666666666666252e+00,1.643937972234143019e+09,-6.447902077955017242e-02,8.277802657374807582e-01,3.589953682760469444e+00,-9.294420660351540575e-02,-1.827271546298320781e-01,2.665067515919706254e-01,5.800298882535524087e-02
4.383333333333332860e+00,1.643937972251450777e+09,-6.929301229939979767e-02,7.616766120746157887e-01,3.325539068109009122e+00,-9.294420660351540575e-02,-2.551240316460013369e-01,2.675354219657987698e-01,6.541686145867066371e-02
4.400000000000000355e+00,1.643937972267634869e+09,-7.420317777371604473e-02,7.398005828048905830e-01,3.238034951030108743e+00,-9.294420660351540575e-02,-3.315410452394513263e-01,2.686730565916024549e-01,7.108355245895765784e-02
4.416666666666666963e+00,1.643937972283832312e+09,-7.917896076900120261e-02,6.836838120695087895e-01,3.013567868088581569e+00,-9.294420660351540575e-02,-4.114605199628883492e-01,2.698855639871214906e-01,7.440809993188229887e-02
4.433333333333333570e+00,1.643937972301061869e+09,-8.418794169644717995e-02,6.613322169460940092e-01,2.924161487594922004e+00,-9.294420660351540575e-02,-4.943160777207079026e-01,2.711384900545821819e-01,7.593877618484473624e-02
4.450000000000000178e+00,1.643937972318243980e+09,-8.919610991677312528e-02,6.594299535313353777e-01,2.916552433935887478e+00,-9.294420660351540575e-02,-5.794963409162062762e-01,2.724046880931306758e-01,7.600480502321507736e-02
4.466666666666666785e+00,1.643937972334200621e+09,-9.416816031621415284e-02,6.775014559715429874e-01,2.988838443696718361e+00,-9.294420660351540575e-02,-6.663490992769084409e-01,2.736624773909949737e-01,7.493288833692804407e-02
4.483333333333333393e+00,1.643937972354450941e+09,-9.906781194271721547e-02,6.813059828010604724e-01,3.004056551014788301e+00,-9.294420660351540575e-02,-7.541859134403987586e-01,2.748909428829657831e-01,7.248975733430161605e-02
4.500000000000000000e+00,1.643937972371127605e+09,-1.038581460126617728e-01,7.046087096318544019e-01,3.097267458337963575e+00,-9.294420660351540575e-02,-8.422871242304277306e-01,2.760700769724289128e-01,6.901598300152893273e-02
4.516666666666666607e+00,1.643937972387084961e+09,-1.085019603419490331e-01,7.255336071942003473e-01,3.180967048587347801e+00,-9.294420660351540575e-02,-9.299072326003947619e-01,2.771825826466609022e-01,6.449725023719368733e-02
4.533333333333333215e+00,1.643937972404045105e+09,-1.129621370241430112e-01,7.507385974397533523e-01,3.281787009569559377e+00,-9.294420660351540575e-02,-1.016280611503196818e+00,2.782119516294155326e-01,5.904218102004835794e-02
4.549999999999999822e+00,1.643937972421014547e+09,-1.172020199753520536e-01,7.264847389015794965e-01,3.184771575416864398e+00,-9.294420660351540575e-02,-1.100627507499333246e+00,2.791361562583616340e-01,5.188226358113967596e-02
4.566666666666666430e+00,1.643937972437977552e+09,-1.211857987932534186e-01,6.946218267043712258e-01,3.057319926628031315e+00,-9.294420660351540575e-02,-1.182160286771056557e+00,2.799263555918750090e-01,4.296642324651489542e-02
4.583333333333333037e+00,1.643937972456379175e+09,-1.248788952383832335e-01,7.402761486585801576e-01,3.239937214444867042e+00,-9.294420660351540575e-02,-1.260089877400568881e+00,2.805647311705798397e-01,3.366448552211023793e-02
4.599999999999999645e+00,1.643937972473359108e+09,-1.282483485415739088e-01,7.588232169524775639e-01,3.314125487620456223e+00,-9.294420660351540575e-02,-1.333632357323911055e+00,2.810417632484624728e-01,2.360730110470373594e-02
4.616666666666666252e+00,1.643937972490587950e+09,-1.312631956738207206e-01,7.635788754893743091e-01,3.333148121768043648e+00,-9.294420660351540575e-02,-1.402015635313762276e+00,2.813437764108377426e-01,1.266467527858864892e-02
4.633333333333332860e+00,1.643937972505520344e+09,-1.338948426852582529e-01,7.747758922510078472e-01,3.281787009569559377e+00,-6.089448018850930622e-02,-1.464486170698586998e+00,2.814578419530740505e-01,1.055438428892713568e-03
4.650000000000000355e+00,1.643937972522501707e+09,-1.361174232292277630e-01,7.645300071967539024e-01,3.336952648597562021e+00,-9.294420660351540575e-02,-1.520315676310353137e+00,2.813708973221399345e-01,-1.145404475873313711e-02
4.666666666666666963e+00,1.643937972540835381e+09,-1.379081404361916507e-01,7.131688949982686321e-01,3.131508199803620940e+00,-9.294420660351540575e-02,-1.568807748386520151e+00,2.810633973491692417e-01,-2.540719234223329931e-02
4.683333333333333570e+00,1.643937972558086872e+09,-1.392475883906292289e-01,7.635788754893743091e-01,3.333148121768043648e+00,-9.294420660351540575e-02,-1.609304366845235590e+00,2.805266413706903883e-01,-3.896586121968546867e-02
4.700000000000000178e+00,1.643937972576374054e+09,-1.401200495917972744e-01,7.621521779283053633e-01,3.327441331523767420e+00,-9.294420660351540575e-02,-1.641192209516508571e+00,2.797611788867782057e-01,-5.285106592890998628e-02
4.716666666666666785e+00,1.643937972593330622e+09,-1.405137649456697224e-01,7.721390608557885393e-01,3.367388863233700569e+00,-9.294420660351540575e-02,-1.663908724550349660e+00,2.787644559326434290e-01,-6.671717070301790009e-02
4.733333333333333393e+00,1.643937972609288692e+09,-1.404211730394538116e-01,7.654811389041330516e-01,3.340757175427078618e+00,-9.294420660351540575e-02,-1.676947906337590055e+00,2.775358258517869880e-01,-8.067965341271909896e-02
4.750000000000000000e+00,1.643937972626399755e+09,-1.398391156902897836e-01,-1.016444062723507180e+00,-3.786943631083482753e+00,-9.294420660351540575e-02,-1.679865721867637829e+00,2.758298928227325697e-01,-1.239122167935170771e-01
4.766666666666666607e+00,1.643937972642880201e+09,-1.387690070342607884e-01,-1.590941554130351321e+00,-6.084933596710858872e+00,-9.294420660351540575e-02,-1.672285136502573266e+00,2.733310855279530993e-01,-1.758005210092863368e-01
4.783333333333333215e+00,1.643937972660258055e+09,-1.372169637284102184e-01,-1.573741030435531707e+00,-6.016131501931580416e+00,-9.294420660351540575e-02,-1.653900690658654193e+00,2.699795550151284362e-01,-2.262430191813647462e-01
4.799999999999999822e+00,1.643937972677197695e+09,-1.351938941744603717e-01,-1.398295688748415033e+00,-5.314350135183113721e+00,-9.294420660351540575e-02,-1.624482581839299389e+00,2.658225791844575636e-01,-2.724656811938224732e-01
4.816666666666666430e+00,1.643937972694450855e+09,-1.327155450354454425e-01,-1.584061344652421655e+00,-6.057412758799140207e+00,-9.294420660351540575e-02,-1.583880209839574338e+00,2.608815599255148721e-01,-3.203236878430796852e-01
4.833333333333333037e+00,1.643937972711410999e+09,-1.298025037022434991e-01,-2.536926918983722690e+00,-9.772725876879329476e+00,-1.249939330185202979e-01,-1.532025146718783537e+00,2.550250693727893481e-01,-3.822830650520626095e-01
4.849999999999999645e+00,1.643937972728359699e+09,-1.264801557724402059e-01,-2.595408699546096543e+00,-1.000665299912882666e+01,-1.249939330185202979e-01,-1.468933497288623435e+00,2.481451171107317000e-01,-4.431421494039169962e-01
4.866666666666666252e+00,1.643937972745467901e+09,-1.227785970253833653e-01,-2.240991034709917340e+00,-8.396683981294076560e+00,-1.890933858485313035e-01,-1.394707620360252642e+00,2.403184571231100630e-01,-4.959104670007982163e-01
4.883333333333332860e+00,1.643937972763893366e+09,-1.187324998105704216e-01,-2.770767164510242075e+00,-1.051578850049537550e+01,-1.890933858485313035e-01,-1.309537185801669557e+00,2.315582044014245222e-01,-5.551552867843112526e-01
4.900000000000000355e+00,1.643937972779928923e+09,-1.143809342075756408e-01,-1.814418047078490526e+00,-6.690392030768368414e+00,-1.890933858485313035e-01,-1.213699547540909807e+00,2.219640495004575331e-01,-5.960297584603342358e-01
4.916666666666666963e+00,1.643937972796907902e+09,-1.097671447601819006e-01,-1.446326840009432457e+00,-5.218027202492136141e+00,-1.890933858485313035e-01,-1.107559417972489468e+00,2.117598000761573840e-01,-6.283902800023994928e-01
4.933333333333333570e+00,1.643937972815023661e+09,-1.049382840308353826e-01,-2.093023092573015109e+00,-7.708663033501449213e+00,-2.211431122635373892e-01,-9.915678347429071060e-01,2.009473770838037521e-01,-6.689877057986445275e-01
4.950000000000000178e+00,1.643937972832321405e+09,-9.994510465957724688e-02,-2.182422377424567905e+00,-7.970110993662643750e+00,-2.531928386785423091e-01,-8.662604165622923569e-01,1.894688973141798183e-01,-7.083206059288016387e-01
4.966666666666666785e+00,1.643937972849276781e+09,-9.484161203965851827e-02,-2.006933597375961220e+00,-7.172006694223199474e+00,-2.852425650935483947e-01,-7.322549104693749644e-01,1.773830493940758424e-01,-7.418878998061199104e-01
4.983333333333333393e+00,1.643937972865872860e+09,-8.968468013579063147e-02,-2.416306061312573306e+00,-8.809496549969649593e+00,-2.852425650935483947e-01,-5.902480388174851100e-01,1.647054542383818987e-01,-7.793195396525935958e-01
5.000000000000000000e+00,1.643937972883556604e+09,-8.453363336601768530e-02,-2.154771224428402299e+00,-7.571058843942930494e+00,-3.493420179235594003e-01,-4.410116601046987217e-01,1.514659044206142224e-01,-8.093430379103776495e-01
5.016666666666666607e+00,1.643937972902502060e+09,-7.892276912649374976e-02,-1.759202617809129787e+00,-6.084933596710858872e+00,-3.172922915085532591e-01,-2.853882635908926435e-01,1.378062407402787237e-01,-8.297598889200424876e-01
5.033333333333333215e+00,1.643937972917437315e+09,-7.351259049482168628e-02,-1.391111410740071719e+00,-4.612568768434627486e+00,-3.172922915085532591e-01,-1.234613757503351117e-01,1.238823225591636906e-01,-8.410788505137675175e-01
5.049999999999999822e+00,1.643937972934652567e+09,-6.836211721476749548e-02,-1.618158323511637464e+00,-5.520756419520889580e+00,-3.172922915085532591e-01,4.078237913069160392e-02,1.097626439952715943e-01,-8.532487710228912059e-01
5.066666666666666430e+00,1.643937972950862169e+09,-6.352928852552072736e-02,-1.318825772860358292e+00,-4.227277037670754467e+00,-3.493420179235594003e-01,2.062856298388733856e-01,9.550601769121069839e-02,-8.575344804358551176e-01
5.083333333333333037e+00,1.643937972968200445e+09,-5.907047115876646465e-02,-1.373910887045256990e+00,-4.543766673655368571e+00,-3.172922915085532591e-01,3.719731572496010052e-01,8.119383130175847341e-02,-8.599212562096638646e-01
5.099999999999999645e+00,1.643937972984154701e+09,-5.503997765416472621e-02,-1.329146087077248017e+00,-4.268558294538313369e+00,-3.493420179235594003e-01,5.367598092656233888e-01,6.687113832984509232e-02,-8.588050012012775625e-01
5.116666666666666252e+00,1.643937973000292301e+09,-5.148959936160439621e-02,-1.067741565277537941e+00,-3.319089386584491486e+00,-3.172922915085532591e-01,6.995585271713724573e-01,5.262548659350605590e-02,-8.506957334333745679e-01
5.133333333333332860e+00,1.643937973017532825e+09,-4.846815837420202777e-02,3.504013971604126865e-01,2.353482463167310801e+00,-3.172922915085532591e-01,8.592884216330654024e-01,3.873180585016308686e-02,-8.166405557101402701e-01
5.150000000000000355e+00,1.643937973034874201e+09,-4.602108247138468611e-02,3.760819532596553216e-01,2.456204687564281119e+00,-3.172922915085532591e-01,1.014882836062905858e+00,2.542604547344813962e-02,-7.801520488447160062e-01
5.166666666666666963e+00,1.643937973054169655e+09,-4.419000694812673380e-02,3.974824166756907862e-01,2.541806541228422756e+00,-3.172922915085532591e-01,1.165297335042883020e+00,1.274711823538548540e-02,-7.414267924113437935e-01
5.183333333333333570e+00,1.643937973071218967e+09,-4.301240696635789951e-02,-1.301668687527028467e+00,-4.254797875582454481e+00,-3.172922915085532591e-01,1.309517555967971481e+00,4.934953566736455244e-04,-7.290423550586162538e-01
5.200000000000000178e+00,1.643937973087069273e+09,-4.252126379003139806e-02,-1.174384812185395921e+00,-3.745662374215923407e+00,-3.172922915085532591e-01,1.446566863018781568e+00,-1.151892094644601724e-02,-7.124935712416068379e-01
5.216666666666666785e+00,1.643937973105072975e+09,-4.274476795890444492e-02,-1.704160941985715993e+00,-5.864766893417203697e+00,-3.172922915085532591e-01,1.575513744001356464e+00,-2.331317264807598530e-02,-7.028434395063828388e-01
5.233333333333333393e+00,1.643937973121916294e+09,-4.370606212063385398e-02,-1.318869211221848081e+00,-4.323599970361732936e+00,-3.172922915085532591e-01,1.695478892486597999e+00,-3.487813536952544258e-02,-6.850016487638541651e-01
5.250000000000000000e+00,1.643937973140331507e+09,-4.542302587955834858e-02,5.744353526481010830e-01,3.057319926628031315e+00,-2.531928386785423091e-01,1.805641920029772862e+00,-4.587147928557405718e-02,-6.343403503031743718e-01
5.266666666666666607e+00,1.643937973157889843e+09,-4.790810463690935855e-02,7.200433806768441469e-01,3.255155321762937426e+00,-1.249939330185202979e-01,1.905247646031724695e+00,-5.599359654503860417e-02,-5.804633825985670015e-01
5.283333333333333215e+00,1.643937973173839569e+09,-5.116818399485201230e-02,8.930601028925199136e-01,3.274177955910523519e+00,9.935415188651879059e-02,1.993611915999245365e+00,-6.518910378336018052e-02,-5.231566750453826575e-01
5.299999999999999822e+00,1.643937973191026449e+09,-5.520451087953197333e-02,1.082721629987333012e+00,3.359779809574665599e+00,3.237022367915554644e-01,2.070126902544074277e+00,-7.340065002729201371e-02,-4.623976532592606881e-01
5.316666666666666430e+00,1.643937973206984997e+09,-6.001266211015913316e-02,1.333081461027358472e+00,3.399727341284598747e+00,6.441995009416116025e-01,2.134265847404208660e+00,-8.056449924667474782e-02,-3.974446822326851425e-01
5.333333333333333037e+00,1.643937973223958015e+09,-6.558256070620513412e-02,1.513231671048377969e+00,3.447283926653566422e+00,8.685475858466483734e-01,2.185587207043166558e+00,-8.662279931701666325e-02,-3.297394008608174887e-01
5.349999999999999645e+00,1.643937973243183374e+09,-7.189853978714069727e-02,1.629138052421442495e+00,3.430163555920737295e+00,1.028796217921677636e+00,2.223738168952555494e+00,-9.154075104128250873e-02,-2.606068454469849804e-01
5.366666666666666252e+00,1.643937973258230925e+09,-7.893945348301062426e-02,1.644615161866282094e+00,3.395922814455080818e+00,1.060845944336682445e+00,2.248457510612451138e+00,-9.531049017781659249e-02,-1.919525617691386632e-01
5.383333333333332860e+00,1.643937973274342537e+09,-8.667883384364996613e-02,1.674575810648731844e+00,3.515765409584879819e+00,1.060845944336682445e+00,2.259577778116711233e+00,-9.793979970031561899e-02,-1.237540257672155863e-01
5.400000000000000355e+00,1.643937973292296648e+09,-9.508509231362920200e-02,1.734756110340400781e+00,3.660337429106540696e+00,1.092895670751687476e+00,2.257026766706022425e+00,-9.943392678588490463e-02,-5.573018406420592041e-02
5.416666666666666963e+00,1.643937973309351683e+09,-1.041217639330629940e-01,1.741197468565136797e+00,3.589953682760469444e+00,1.124945397166692285e+00,2.240828290829635527e+00,-9.980506632132055134e-02,1.100805146114258726e-02
5.433333333333333570e+00,1.643937973327366114e+09,-1.137477920351083471e-01,1.749282088077861230e+00,3.622292160811367623e+00,1.124945397166692285e+00,2.211102236835090551e+00,-9.907610897545401918e-02,7.628549953049190702e-02
5.450000000000000178e+00,1.643937973343653440e+09,-1.239178508430093528e-01,1.760479104839495212e+00,3.570931048612881575e+00,1.156995123581699536e+00,2.168063896921093026e+00,-9.727260825490560703e-02,1.399577155059532896e-01
5.466666666666666785e+00,1.643937973360607862e+09,-1.345827030264229451e-01,1.689360790512961952e+00,3.382606970551770065e+00,1.124945397166692285e+00,2.112022588538551737e+00,-9.443426172354486836e-02,2.004757586254511115e-01
5.483333333333333393e+00,1.643937973378912210e+09,-1.456895889617181306e-01,1.689836356366651415e+00,3.384509233966529251e+00,1.124945397166692285e+00,2.043379568945169478e+00,-9.060505524522904919e-02,2.588668175689989859e-01
5.500000000000000000e+00,1.643937973395288944e+09,-1.571826441569782462e-01,1.696277714591388763e+00,3.314125487620456223e+00,1.156995123581699536e+00,1.962625260066773514e+00,-8.582099359520847792e-02,3.150644721632811507e-01
5.516666666666666607e+00,1.643937973412468195e+09,-1.690033410521900592e-01,1.753821182887839836e+00,3.544299360806260069e+00,1.156995123581699536e+00,1.870335804150939252e+00,-8.011286554985734554e-02,3.697589605685763225e-01
5.533333333333333215e+00,1.643937973428416491e+09,-1.810909511909932768e-01,1.734798548740252855e+00,3.468208824215912145e+00,1.156995123581699536e+00,1.767168975873644410e+00,-7.351759399729995703e-02,4.215298144262505375e-01
5.549999999999999822e+00,1.643937973446820021e+09,-1.933830235842807221e-01,1.739554207277149489e+00,3.487231458363499570e+00,1.156995123581699536e+00,1.653859481537200526e+00,-6.608161900658085508e-02,4.706507342491039192e-01
5.566666666666666430e+00,1.643937973462014675e+09,-2.058158749496424300e-01,1.724811665812769457e+00,3.428261292505978997e+00,1.156995123581699536e+00,1.531213680738452876e+00,-5.785272277115625916e-02,5.166889271228664038e-01
5.583333333333333037e+00,1.643937973480001450e+09,-2.183250874152278254e-01,1.692473187761871278e+00,3.298907380302387171e+00,1.156995123581699536e+00,1.400103770352961741e+00,-4.888545771230728282e-02,5.592646113659313079e-01
5.599999999999999645e+00,1.643937973496970177e+09,-2.308460092230573690e-01,1.728140626788597034e+00,3.441577136409290194e+00,1.156995123581699536e+00,1.261461474838954544e+00,-3.922870142938509469e-02,5.994345567768016858e-01
5.616666666666666252e+00,1.643937973513905048e+09,-2.433142539554479233e-01,1.732896285325494112e+00,3.460599770556877175e+00,1.156995123581699536e+00,1.116271290680958650e+00,-2.892739123593709993e-02,6.366193728501279292e-01
5.633333333333332860e+00,1.643937973530860186e+09,-2.556661938391649458e-01,1.730994021910735370e+00,3.452990716897843093e+00,1.156995123581699536e+00,9.655633362381808027e-01,-1.803254869272245126e-02,6.706671529427284950e-01
5.650000000000000355e+00,1.643937973546816111e+09,-2.678394427547227674e-01,1.740980904838218546e+00,3.492938248607775353e+00,1.156995123581699536e+00,8.104058613091915664e-01,-6.594996878942903373e-03,7.017527138980724777e-01
5.666666666666666963e+00,1.643937973563773394e+09,-2.797733246921865757e-01,1.769039290205909332e+00,3.605171790078538496e+00,1.156995123581699536e+00,6.518974733483661188e-01,5.338336244786802756e-03,7.301683268335806831e-01
5.683333333333333570e+00,1.643937973582623482e+09,-2.914093235486833744e-01,1.799475504842048545e+00,3.726916648623095796e+00,1.156995123581699536e+00,4.911591394517532683e-01,1.772334074507515844e-02,7.559605664048556495e-01
5.700000000000000178e+00,1.643937973598221779e+09,-3.026915103550313901e-01,1.798999938988359082e+00,3.725014385208337497e+00,1.156995123581699536e+00,3.293260249502025228e-01,3.051223531196757544e-02,7.786437712369392861e-01
5.716666666666666785e+00,1.643937973617199183e+09,-3.135669442475428892e-01,1.783781831670289364e+00,3.664141955936059070e+00,1.156995123581699536e+00,1.675392306975040657e-01,4.365160227183307456e-02,7.980264219832037265e-01
5.733333333333333393e+00,1.643937973633157730e+09,-3.239860437638292234e-01,1.776648343864944302e+00,3.635608004714678376e+00,1.156995123581699536e+00,6.937491904459691661e-03,5.708816859621770878e-02,8.143162862549758740e-01
5.750000000000000000e+00,1.643937973650168657e+09,-3.339029253357284066e-01,1.732161717345032770e+00,3.553810677880053781e+00,1.124945397166692285e+00,-1.513510983523962961e-01,7.076597528016362326e-02,8.269853232209072313e-01
5.766666666666666607e+00,1.643937973667124510e+09,-3.432757061754090344e-01,1.692906315215709334e+00,3.492938248607775353e+00,1.092895670751687476e+00,-3.062172780351231083e-01,8.462637055676021369e-02,8.362364118973204530e-01
5.783333333333333215e+00,1.643937973684114218e+09,-3.520667690990253451e-01,1.549200550601725457e+00,3.302711907131904656e+00,9.646967650916654646e-01,-4.565786552529095821e-01,9.859905617928550747e-02,8.404740911972754525e-01
5.799999999999999822e+00,1.643937973703049183e+09,-3.602429872026561841e-01,1.441896792994926457e+00,3.161944414439760820e+00,8.685475858466483734e-01,-6.013875365545674478e-01,1.126069625562810123e-01,8.404746724276193071e-01
5.816666666666666430e+00,1.643937973720379353e+09,-3.677759066939585431e-01,1.379079661908038990e+00,3.102974248582240246e+00,8.044481330166385336e-01,-7.396384850469800432e-01,1.265871069166904228e-01,8.371518810148942391e-01
5.833333333333333037e+00,1.643937973734529972e+09,-3.746418865862272130e-01,1.314360267406391225e+00,3.036395029065686035e+00,7.403486801866263622e-01,-8.703755511050988991e-01,1.404853338219693160e-01,8.306533993813035588e-01
5.849999999999999645e+00,1.643937973752505779e+09,-3.808221943754503402e-01,1.308870040889034803e+00,3.110583302241274772e+00,7.082989537716214423e-01,-9.926991210072066973e-01,1.542584965682106402e-01,8.221497519664260345e-01
5.866666666666666252e+00,1.643937973769799471e+09,-3.863030572413954089e-01,1.233688197606215953e+00,3.002154287600028670e+00,6.441995009416116025e-01,-1.105772331820964904e+00,1.678651045035556844e-01,8.106750751275018096e-01
5.883333333333332860e+00,1.643937973784772396e+09,-3.910756687367347162e-01,1.193222661642741711e+00,3.032590502236168550e+00,5.801000481115994312e-01,-1.208827004259106497e+00,1.812622296302122959e-01,7.970178776239057461e-01
5.900000000000000355e+00,1.643937973801709414e+09,-3.951361513495612043e-01,1.115662989091474433e+00,2.914650170521128736e+00,5.160005952815897023e-01,-1.301169048989467392e+00,1.944101542274423999e-01,7.807781853617090650e-01
5.916666666666666963e+00,1.643937973818711996e+09,-3.984854757402852554e-01,1.072603060132631958e+00,2.838559633930780368e+00,4.839508688665823399e-01,-1.382183305995538847e+00,2.072725231328926832e-01,7.627561456918769967e-01
5.933333333333333570e+00,1.643937973836292505e+09,-4.011293378598527193e-01,1.023836340929515032e+00,2.739641936363327979e+00,4.519011424515774755e-01,-1.451337781005688443e+00,2.198207265894401019e-01,7.430829182340600303e-01
5.950000000000000178e+00,1.643937973853220701e+09,-4.030779955485234711e-01,-1.646721682099053119e+00,-7.942590155750944625e+00,4.519011424515774755e-01,-1.508187247709486201e+00,2.316670493143038190e-01,6.786547800123873264e-01
5.966666666666666785e+00,1.643937973871624947e+09,-4.043460665893714445e-01,-2.155857183465598403e+00,-9.979132161217126651e+00,4.519011424515774755e-01,-1.552376189418700925e+00,2.423720431339013714e-01,6.061458966447181851e-01
5.983333333333333393e+00,1.643937973888583422e+09,-4.049522905445949172e-01,-2.011372784429146243e+00,-9.401194565071316234e+00,4.519011424515774755e-01,-1.583641058971970716e+00,2.518942084650938606e-01,5.367068339235070429e-01
6.000000000000000000e+00,1.643937973907529354e+09,-4.049192570322896478e-01,-2.001052470212256296e+00,-9.359913308203758220e+00,4.519011424515774755e-01,-1.601811840983704993e+00,2.602675627317282969e-01,4.682857411369398815e-01
6.016666666666666607e+00,1.643937973920630455e+09,-4.042731034034028892e-01,-3.449336565315734404e+00,-1.515304968861767065e+01,4.519011424515774755e-01,-1.606812905958850513e+00,2.673092873359383392e-01,3.769748586781534461e-01
6.033333333333333215e+00,1.643937973937610865e+09,-4.030431850503197189e-01,-3.793347039212048077e+00,-1.652909158420292357e+01,4.519011424515774755e-01,-1.598663151292651463e+00,2.727953865536903999e-01,2.816219229519897338e-01
6.049999999999999822e+00,1.643937973954777479e+09,-4.012617218173389344e-01,-2.957401587644008512e+00,-1.318530977793076708e+01,4.519011424515774755e-01,-1.577475429705594845e+00,2.768238280326282275e-01,2.020121978505585170e-01
6.066666666666666430e+00,1.643937973971733093e+09,-3.989634241870280151e-01,-3.504334802777656854e+00,-1.527689345922034647e+01,4.198514160365725556e-01,-1.543455271184746014e+00,2.794655926875213026e-01,1.152405986296254070e-01
6.083333333333333037e+00,1.643937973989682913e+09,-3.961851030831558540e-01,-3.346089984785355131e+00,-1.464391418725113780e+01,4.198514160365725556e-01,-1.496898909970243885e+00,2.807014361997083318e-01,3.328827353817839785e-02
6.099999999999999645e+00,1.643937974004993916e+09,-3.929652672591591456e-01,-3.294488413700906282e+00,-1.443750790291334241e+01,4.198514160365725556e-01,-1.438190633497571813e+00,2.805979629742574311e-01,-4.548623735634532705e-02
6.116666666666666252e+00,1.643937974023035765e+09,-3.893437123297355251e-01,-2.128249468830917479e+00,-9.676402944188371436e+00,3.878016896215676357e-01,-1.367799475439105183e+00,2.793632655755080574e-01,-1.025190223620962987e-01
6.133333333333332860e+00,1.643937974039297581e+09,-3.853611055514779005e-01,-2.252093239433589744e+00,-1.017177802659906227e+01,3.878016896215676357e-01,-1.286275280042856739e+00,2.771800539558750831e-01,-1.593086194004041112e-01
6.150000000000000355e+00,1.643937974056414127e+09,-3.810585704661422213e-01,-1.182220665616054989e+00,-5.892287731328922362e+00,3.878016896215676357e-01,-1.194244169801296662e+00,2.742186755763483252e-01,-1.959549882778332253e-01
6.166666666666666963e+00,1.643937974074340343e+09,-3.764772754872335869e-01,1.163610263514429644e+00,3.491035985193015723e+00,3.878016896215676357e-01,-1.092403453061863594e+00,2.709896596259978030e-01,-1.915391921532732522e-01
6.183333333333333570e+00,1.643937974090664864e+09,-3.716580304376101984e-01,1.174548278149292413e+00,3.534788043732466800e+00,3.878016896215676357e-01,-9.815160124769957140e-01,2.678504569584215234e-01,-1.851827850578253720e-01
6.200000000000000178e+00,1.643937974108430386e+09,-3.666408949335944745e-01,-7.831685158963275217e-01,-4.296079132450013383e+00,3.878016896215676357e-01,-8.624042191519077916e-01,2.645623674188725682e-01,-2.093209077690803555e-01
6.216666666666666785e+00,1.643937974125718594e+09,-3.614648023609003391e-01,1.119858204974979676e+00,3.316027751035215854e+00,3.878016896215676357e-01,-7.359434209520808734e-01,2.611556236324790725e-01,-1.995155842489718667e-01
6.233333333333333393e+00,1.643937974142105103e+09,-3.561672030011880929e-01,1.111298019608565557e+00,3.281787009569559377e+00,3.878016896215676357e-01,-6.030550566514474298e-01,2.579281198586874657e-01,-1.878173644258949448e-01
6.250000000000000000e+00,1.643937974160057306e+09,-3.507837296472151034e-01,-1.419587892604510460e+00,-6.841756639282745134e+00,3.878016896215676357e-01,-4.646994504115481428e-01,2.545635131716567079e-01,-2.158575467891318267e-01
6.266666666666666607e+00,1.643937974177120447e+09,-3.453478887916783813e-01,-1.663835329070890934e+00,-7.818746385148266143e+00,3.878016896215676357e-01,-3.218683434598902382e-01,2.507214353618481550e-01,-2.451105301881696397e-01
6.283333333333333215e+00,1.643937974193264008e+09,-3.398907801926055461e-01,-1.453988939994139917e+00,-6.979360828841262965e+00,3.878016896215676357e-01,-1.755772217638817689e-01,2.464450381560761016e-01,-2.679935690116979075e-01
6.299999999999999822e+00,1.643937974210690022e+09,-3.344408473094184764e-01,-1.859921299191792388e+00,-8.603090265631871958e+00,3.878016896215676357e-01,-2.685749996018158003e-02,2.417548912488336199e-01,-2.947497354236550127e-01
6.316666666666666430e+00,1.643937974226233006e+09,-3.290236607718126649e-01,-1.529671244251328499e+00,-7.282090045870017292e+00,3.878016896215676357e-01,1.232513772120768514e-01,2.366888512251692500e-01,-3.131240265173115267e-01
6.333333333333333037e+00,1.643937974242353916e+09,-3.236617366916760274e-01,-1.570952501118887845e+00,-7.447215073340253788e+00,3.878016896215676357e-01,2.737098542214755348e-01,2.313341904949869909e-01,-3.293900765687527987e-01
6.349999999999999645e+00,1.643937974261096478e+09,-3.183743912600889292e-01,-2.303694810518033709e+00,-1.037818431093683813e+01,3.878016896215676357e-01,4.234861430254143189e-01,2.256301560479155588e-01,-3.550228532465583564e-01
6.366666666666666252e+00,1.643937974278425694e+09,-3.131776326906946517e-01,-2.946994396704142094e+00,-1.295138265568126990e+01,3.878016896215676357e-01,5.715639990178225105e-01,2.194340487956430719e-01,-3.884172526223911848e-01
6.383333333333332860e+00,1.643937974295382500e+09,-3.080840911812673388e-01,-3.191241833170522124e+00,-1.392837240154679179e+01,3.878016896215676357e-01,7.169503342879318675e-01,2.126723259269185928e-01,-4.228937214017098878e-01
6.400000000000000355e+00,1.643937974311340809e+09,-3.031029871710926304e-01,-3.463010107548611938e+00,-1.501544549905915105e+01,3.878016896215676357e-01,8.586826092578656588e-01,2.053227965151535606e-01,-4.589496502947906231e-01
6.416666666666666963e+00,1.643937974329480410e+09,-2.982401377767874839e-01,-3.593734087629209650e+00,-1.553834141938154012e+01,3.878016896215676357e-01,9.958359456521902464e-01,1.973782030439622248e-01,-4.943033591898829404e-01
6.433333333333333570e+00,1.643937974346455574e+09,-2.934980008973465115e-01,-3.593734087629209650e+00,-1.553834141938154012e+01,3.878016896215676357e-01,1.127529906084673295e+00,1.888674537986255175e-01,-5.268960129702885409e-01
6.450000000000000178e+00,1.643937974363394976e+09,-2.888757560945258707e-01,-1.880561927625571839e+00,-8.685652779366989762e+00,3.878016896215676357e-01,1.252934888307916994e+00,1.800719405628330716e-01,-5.285609503897903405e-01
6.466666666666666785e+00,1.643937974381339550e+09,-2.843694209809457529e-01,-2.135129678308842038e+00,-9.703923782100071449e+00,3.878016896215676357e-01,1.371278085337066521e+00,1.712300929287132178e-01,-5.324499626385333917e-01
6.483333333333333393e+00,1.643937974397297144e+09,-2.799720014892714826e-01,-2.007845802967204385e+00,-9.194788280733520835e+00,3.878016896215676357e-01,1.481848966205025375e+00,1.623568181937036226e-01,-5.323433018495601354e-01
6.500000000000000000e+00,1.643937974414227486e+09,-2.756736740551076759e-01,-1.543431663207183169e+00,-7.337131721693435082e+00,3.878016896215676357e-01,1.584004236004874056e+00,1.535635612560190821e-01,-5.228738353652474524e-01
6.516666666666666607e+00,1.643937974431206942e+09,-2.714619974271675340e-01,-1.416147787865545515e+00,-6.827996220326885357e+00,3.878016896215676357e-01,1.677172238093040502e+00,1.449572697556136824e-01,-5.099171363610505159e-01
6.533333333333333215e+00,1.643937974449160576e+09,-2.673221515240802870e-01,-1.216621713005684446e+00,-6.029891920887441081e+00,3.878016896215676357e-01,1.760856765832883752e+00,1.366042508426250912e-01,-4.924935332342752492e-01
6.549999999999999822e+00,1.643937974467251539e+09,-2.632372004906897711e-01,1.101786702534771845e+00,3.243741741274384527e+00,3.878016896215676357e-01,1.834640256014133941e+00,1.288696294979781443e-01,-4.358184625804798484e-01
6.566666666666666430e+00,1.643937974483430624e+09,-2.591883768706012003e-01,1.058985775702701249e+00,3.072538033946101699e+00,3.878016896215676357e-01,1.898186341053290427e+00,1.220746300067926532e-01,-3.797372611433611489e-01
6.583333333333333037e+00,1.643937974500355005e+09,-2.551553836083012006e-01,1.090848687899909075e+00,3.199989682734933893e+00,3.878016896215676357e-01,1.951241742222580289e+00,1.162183002025143908e-01,-3.231794241703747073e-01
6.599999999999999645e+00,1.643937974517684460e+09,-2.511167104253768656e-01,1.110822453754875649e+00,3.279884746154800190e+00,3.878016896215676357e-01,1.993637491430277020e+00,1.113054037263301738e-01,-2.665255286077712893e-01
6.616666666666666252e+00,1.643937974534640074e+09,-2.470499609828845089e-01,1.120333770828669362e+00,3.317930014449974152e+00,3.878016896215676357e-01,2.025289474440793214e+00,1.073345992740791927e-01,-2.101276700676959486e-01
6.633333333333332860e+00,1.643937974550301790e+09,-2.429321871469561911e-01,1.150769985464808798e+00,3.439674872994531896e+00,3.878016896215676357e-01,2.046198293836492432e+00,1.043030612321871747e-01,-1.538133273707822379e-01
6.649999999999999467e+00,1.643937974567381382e+09,-2.387402266181951893e-01,1.137929707415187286e+00,3.388313760796045848e+00,3.878016896215676357e-01,2.056448455441285184e+00,1.022019596552887627e-01,-9.847258974627595696e-02
6.666666666666666963e+00,1.643937974582309484e+09,-2.344510401677790956e-01,1.133174048878290430e+00,3.369291126648458867e+00,3.878016896215676357e-01,2.056206887306475828e+00,1.010148697957299613e-01,-4.412915095030438967e-02
6.683333333333333570e+00,1.643937974601815701e+09,-2.300420447445750138e-01,1.149818853757429205e+00,3.435870346165013522e+00,3.878016896215676357e-01,2.045720805658247432e+00,1.007268486191473800e-01,9.417864549872798086e-03
6.700000000000000178e+00,1.643937974617204189e+09,-2.254914387776233153e-01,1.122236034243428104e+00,3.325539068109009122e+00,3.878016896215676357e-01,2.025314947382980346e+00,1.013172535402805663e-01,6.128664265584642112e-02
6.716666666666666785e+00,1.643937974637161970e+09,-2.207785160964449711e-01,1.080386239118736436e+00,3.158139887610242447e+00,3.878016896215676357e-01,1.995388193638645502e+00,1.027550601422560633e-01,1.111117432664939508e-01
6.733333333333333393e+00,1.643937974652113914e+09,-2.158839650266372590e-01,1.074679448874460430e+00,3.135312726633138425e+00,3.878016896215676357e-01,1.956409613990063967e+00,1.050102312543984145e-01,1.593747232020936710e-01
6.750000000000000000e+00,1.643937974669068098e+09,-2.107901493887456290e-01,1.088946424485150555e+00,3.192380629075899368e+00,3.878016896215676357e-01,1.908913965032615678e+00,1.080585296976540738e-01,2.062907645841340898e-01
6.766666666666666607e+00,1.643937974686719418e+09,-2.054813683325777962e-01,1.092275385460978354e+00,3.205696472979210565e+00,3.878016896215676357e-01,1.853496681759200015e+00,1.118750876318319876e-01,2.515704077702924923e-01
6.783333333333333215e+00,1.643937974701972008e+09,-1.999440921748833755e-01,1.085141897655633292e+00,3.177162521757829872e+00,3.878016896215676357e-01,1.790808403902941937e+00,1.164304084217568647e-01,2.949475920063438505e-01
6.799999999999999822e+00,1.643937974719959974e+09,-1.941671716731475650e-01,1.080386239118736436e+00,3.158139887610242447e+00,3.878016896215676357e-01,1.721549083123684820e+00,1.216924680180774682e-01,3.363844544473969522e-01
6.816666666666666430e+00,1.643937974736890554e+09,-1.881420184593885769e-01,1.088946424485150555e+00,3.192380629075899368e+00,3.878016896215676357e-01,1.646461720169685394e+00,1.276302299413359098e-01,3.760368282683858032e-01
6.833333333333333037e+00,1.643937974752868891e+09,-1.818627546723379229e-01,1.074679448874460430e+00,3.135312726633138425e+00,3.878016896215676357e-01,1.566325784012469580e+00,1.342103489786755643e-01,4.134734631124949988e-01
6.849999999999999645e+00,1.643937974770022631e+09,-1.753263301608979918e-01,1.121802906789588272e+00,3.131508199803620940e+00,4.519011424515774755e-01,1.481950367399456292e+00,1.414040959042762446e-01,4.496756040900450335e-01
6.866666666666666252e+00,1.643937974785978317e+09,-1.685326059829398704e-01,-1.120385657037693106e+00,-5.837246055505504572e+00,4.519011424515774755e-01,1.394167135276759506e+00,1.488743947213483632e-01,4.467683299102906958e-01
6.883333333333332860e+00,1.643937974803952217e+09,-1.614844032875980551e-01,-1.361236427126599313e+00,-6.896798315106144273e+00,4.839508688665823399e-01,1.303823124087922558e+00,1.562508957344715121e-01,4.384349405131895971e-01
6.899999999999999467e+00,1.643937974820886612e+09,-1.541875170426439956e-01,-1.395637474516233656e+00,-7.034402504664681643e+00,4.839508688665823399e-01,1.211773451041261218e+00,1.634721924996093700e-01,4.281492433568022116e-01
6.916666666666666963e+00,1.643937974837015867e+09,-1.466506944472626695e-01,-1.467879674034457294e+00,-7.323371302737576194e+00,4.839508688665823399e-01,1.118873993050355065e+00,1.705006721962948613e-01,4.153040023103816702e-01
6.933333333333333570e+00,1.643937974854532003e+09,-1.388855782508457981e-01,-1.457602798179056691e+00,-7.378412978560995761e+00,5.160005952815897023e-01,1.025974095185046231e+00,1.773054268002828837e-01,4.013054359898268197e-01
6.950000000000000178e+00,1.643937974872483253e+09,-1.309066155763164430e-01,-1.364676531865564035e+00,-6.910558734062003161e+00,4.839508688665823399e-01,9.339093681230336008e-01,1.838789244507913756e-01,3.875524856102761651e-01
6.966666666666666785e+00,1.643937974888562679e+09,-1.227309332180638035e-01,-1.158270247527777963e+00,-6.084933596710858872e+00,4.839508688665823399e-01,8.434946332678605607e-01,1.902411266367004250e-01,3.759440231867018367e-01
6.983333333333333393e+00,1.643937974906840086e+09,-1.143781807460817063e-01,-1.134232952716522691e+00,-6.084933596710858872e+00,5.160005952815897023e-01,7.555170729048787948e-01,1.964026263541231165e-01,3.634705921390851135e-01
7.000000000000000000e+00,1.643937974924790144e+09,-1.058703430955421215e-01,-9.553040679289519499e-01,-5.273068878315554819e+00,4.839508688665823399e-01,6.707296410135192843e-01,2.023709612550536052e-01,3.527593501228974415e-01
7.016666666666666607e+00,1.643937974939750910e+09,-9.723152465132137157e-02,-1.350916112909709588e+00,-6.855517058238585371e+00,4.839508688665823399e-01,5.898447881554790273e-01,2.080964409085184486e-01,3.343493483901954222e-01
7.033333333333333215e+00,1.643937974957723618e+09,-8.848770714643067192e-02,-1.392197369777268712e+00,-7.020642085708821867e+00,4.839508688665823399e-01,5.135285512328664481e-01,2.135013873738769163e-01,3.142999216157635889e-01
7.049999999999999822e+00,1.643937974973660707e+09,-7.966648397878590970e-02,-1.189231190178442477e+00,-6.208777367313516926e+00,4.839508688665823399e-01,4.423950558788989351e-01,2.185931547592869506e-01,2.967608853253611567e-01
7.066666666666666430e+00,1.643937974990982771e+09,-7.079677380926277519e-02,-5.700123371650791526e-01,-3.731901955260063630e+00,4.839508688665823399e-01,3.770014758306194924e-01,2.234715219966789956e-01,2.886656703990614359e-01
7.083333333333333037e+00,1.643937975007179260e+09,-6.190851653289654311e-02,1.284229865024537842e+00,3.685066853498404349e+00,4.839508688665823399e-01,3.178434898664552755e-01,2.284640250280646490e-01,3.103743899491923086e-01
7.099999999999999645e+00,1.643937975024647236e+09,-5.303235491197888507e-02,1.264990667150032611e+00,3.511960882755361446e+00,5.160005952815897023e-01,2.653512728005340549e-01,2.338054340539527098e-01,3.305386799224803718e-01
7.116666666666666252e+00,1.643937975043676615e+09,-4.419930532267345863e-02,1.220504040630121079e+00,3.430163555920737295e+00,4.839508688665823399e-01,2.198860526450077124e-01,2.394677052836568787e-01,3.488829102473616772e-01
7.133333333333332860e+00,1.643937975057612896e+09,-3.544042119387635914e-02,1.254528218368859971e+00,3.470111087630670443e+00,5.160005952815897023e-01,1.817372614142693799e-01,2.454326102775231111e-01,3.668557632498809506e-01
7.149999999999999467e+00,1.643937975075973749e+09,-2.678645280700948927e-02,1.221455172337500450e+00,3.433968082750255224e+00,4.839508688665823399e-01,1.511203021904465871e-01,2.516857835067013438e-01,3.834788479295018204e-01
7.166666666666666963e+00,1.643937975094120979e+09,-1.826750717738669441e-02,1.235030018367583082e+00,3.392118287625563777e+00,5.160005952815897023e-01,1.281749500346716086e-01,2.582124178994745223e-01,3.996722963434328757e-01
7.183333333333333570e+00,1.643937975111079931e+09,-9.912711750992940843e-03,1.186738865018154065e+00,3.295102853472869242e+00,4.839508688665823399e-01,1.129643991555855376e-01,2.649979355648979795e-01,4.145484997475717415e-01
7.200000000000000178e+00,1.643937975126375437e+09,-1.749885624914980509e-03,1.224567569586410443e+00,3.350268492500872775e+00,5.160005952815897023e-01,1.054749634753695542e-01,2.720335257200440227e-01,4.296802851434553538e-01
7.216666666666666785e+00,1.643937975145018101e+09,6.194778064629188896e-03,1.194823484530878721e+00,3.327441331523767420e+00,4.839508688665823399e-01,1.056164324075525851e-01,2.793151335605957852e-01,4.440726759185441019e-01
7.233333333333333393e+00,1.643937975161795139e+09,1.389701504510632013e-02,1.171520757700084792e+00,3.234230424200592147e+00,4.839508688665823399e-01,1.132230783220578019e-01,2.868324587460090447e-01,4.579677480001665413e-01
7.250000000000000000e+00,1.643937975180009365e+09,2.133477469923105579e-02,1.174157589095304655e+00,3.148628570536449622e+00,5.160005952815897023e-01,1.280553068642948933e-01,2.945818621071019661e-01,4.719218929050669198e-01
7.266666666666666607e+00,1.643937975198503494e+09,2.848848351841150317e-02,1.207447198853582204e+00,3.281787009569559377e+00,5.160005952815897023e-01,1.498019360592814930e-01,3.025695088292719714e-01,4.865550650981113057e-01
7.283333333333333215e+00,1.643937975214463472e+09,3.534128420048743280e-02,1.225518701293789592e+00,3.354073019330389371e+00,5.160005952815897023e-01,1.780830850104906382e-01,3.108054228649533846e-01,5.017125141675011779e-01
7.299999999999999822e+00,1.643937975231393814e+09,4.187924761538190654e-02,1.256906047637308399e+00,3.479622404704464600e+00,5.160005952815897023e-01,2.124536480375958103e-01,3.193009500126162692e-01,5.177063152810866820e-01
7.316666666666666430e+00,1.643937975248350859e+09,4.809155513316133029e-02,1.299231408615689531e+00,3.648923848617989574e+00,5.160005952815897023e-01,2.524073253269720762e-01,3.280721958622024315e-01,5.347957149972115687e-01
7.333333333333333037e+00,1.643937975264327288e+09,5.397064910664037957e-02,1.307791593982103651e+00,3.683164590083646051e+00,5.160005952815897023e-01,2.973811766325588080e-01,3.371332987918318480e-01,5.524874915778265061e-01
7.349999999999999645e+00,1.643937975281262398e+09,5.951234962237995918e-02,1.296594577220469224e+00,3.734525702282129878e+00,4.839508688665823399e-01,3.467606602979332875e-01,3.464920948488431907e-01,5.705179494794552220e-01
7.366666666666666252e+00,1.643937975297900915e+09,6.471593597624017424e-02,1.307316028128413965e+00,3.681262326668886420e+00,5.160005952815897023e-01,3.998851159083346429e-01,3.561577265901718636e-01,5.893056701387390239e-01
7.383333333333332860e+00,1.643937975314857006e+09,6.958419168929241838e-02,1.317519474782814948e+00,3.818225292531512771e+00,4.839508688665823399e-01,4.560536452549269759e-01,3.661430593702462155e-01,6.088798893592937134e-01
7.399999999999999467e+00,1.643937975331812382e+09,7.412341225321217308e-02,1.313022818372690192e+00,3.704089487645991774e+00,5.160005952815897023e-01,5.145313430322814297e-01,3.764593814247727543e-01,6.290228033281833886e-01
7.416666666666666963e+00,1.643937975349767685e+09,7.834337517749397073e-02,1.250464689412570829e+00,3.550006151050536296e+00,4.839508688665823399e-01,5.745558258201225454e-01,3.871082866143124579e-01,6.487909067258552653e-01
7.433333333333333570e+00,1.643937975365062714e+09,8.225727230011281588e-02,1.240002240631397967e+00,3.508156355925844849e+00,4.839508688665823399e-01,6.353440054444632334e-01,3.980908808285635314e-01,6.690640832795352599e-01
7.450000000000000178e+00,1.643937975382441521e+09,8.588160471468697654e-02,1.281635472029171385e+00,3.578540102271916545e+00,5.160005952815897023e-01,6.960990507915453263e-01,4.094227030973207060e-01,6.906945030577900102e-01
7.466666666666666785e+00,1.643937975397606611e+09,8.923604105677808429e-02,1.209566025995258753e+00,3.386411497381287550e+00,4.839508688665823399e-01,7.560174805766153305e-01,4.211103664535821300e-01,7.117665648110598209e-01
7.483333333333333393e+00,1.643937975415598869e+09,9.234324027573827254e-02,1.232176623245445191e+00,3.380704707137011766e+00,5.160005952815897023e-01,8.142963284614067598e-01,4.331574928459045459e-01,7.338273209471849468e-01
7.500000000000000000e+00,1.643937975432736397e+09,9.522864039271050629e-02,1.206237065019430954e+00,3.373095653477976796e+00,4.839508688665823399e-01,8.701403212772675921e-01,4.455733818799441637e-01,7.560177216847570048e-01
7.516666666666666607e+00,1.643937975449921370e+09,9.792021510594668687e-02,1.218860779342134215e+00,3.327441331523767420e+00,5.160005952815897023e-01,9.227690109527824092e-01,4.583650586716537245e-01,7.789198747312960913e-01
7.533333333333333215e+00,1.643937975465996981e+09,1.004482004481362933e-01,1.224567569586410443e+00,3.350268492500872775e+00,5.160005952815897023e-01,9.714238010634486109e-01,4.715427832059361224e-01,8.023420063745113628e-01
7.549999999999999822e+00,1.643937975482215405e+09,1.028447940231746321e-01,1.217175079654293279e+00,3.416847712017426542e+00,4.839508688665823399e-01,1.015374809718105675e+00,4.851126910052768748e-01,8.259812633980438967e-01
7.566666666666666430e+00,1.643937975499401331e+09,1.051438296485773805e-01,1.260710574466825662e+00,3.494840512022533652e+00,5.160005952815897023e-01,1.053927511761878932e+00,4.990846594184105145e-01,8.505865964220553632e-01
7.583333333333333037e+00,1.643937975518565178e+09,1.073804305014076643e-01,1.234295450387121740e+00,3.485329194948739939e+00,4.839508688665823399e-01,1.086429105003299922e+00,5.134641588805606283e-01,8.748858395497456364e-01
7.599999999999999645e+00,1.643937975532671213e+09,1.095906441072918430e-01,-5.115305566027052997e-01,-3.497974833010568219e+00,4.839508688665823399e-01,1.112274547345060371e+00,5.280077249307768561e-01,8.703546733452353079e-01
7.616666666666666252e+00,1.643937975550900698e+09,1.118110627214289610e-01,1.230966489411294162e+00,3.472013351045430074e+00,4.839508688665823399e-01,1.130912214301731389e+00,5.427196461964993723e-01,8.950073971413965435e-01
7.633333333333332860e+00,1.643937975566601753e+09,1.140784328250386281e-01,1.302560369591517331e+00,3.662239692521300771e+00,5.160005952815897023e-01,1.141849129398360585e+00,5.578504403402703149e-01,9.206167613141236217e-01
7.649999999999999467e+00,1.643937975584869146e+09,1.164292575988333245e-01,-7.041764219846416983e-01,-4.268558294538313369e+00,4.839508688665823399e-01,1.144655723341139186e+00,5.731277362032949352e-01,9.126807871403739281e-01
7.666666666666666963e+00,1.643937975600188017e+09,1.188993963350437749e-01,-7.970592499366448980e-01,-4.640089606346326612e+00,4.839508688665823399e-01,1.138970081605595874e+00,5.882602476245870626e-01,9.032467895802309688e-01
7.683333333333333570e+00,1.643937975619162321e+09,1.215236648103992373e-01,-1.168634000106151927e+00,-6.222537786269376703e+00,5.160005952815897023e-01,1.124501644170748715e+00,6.031835083039640555e-01,8.875879896352639742e-01
7.700000000000000178e+00,1.643937975635097027e+09,1.243354406633055964e-01,-2.056181022758640342e+00,-9.772725876879329476e+00,5.160005952815897023e-01,1.101034325506565992e+00,6.177221220301273297e-01,8.571302642882328016e-01
7.716666666666666785e+00,1.643937975652075529e+09,1.273662777990610950e-01,-2.210985736011982450e+00,-1.039194472989269968e+01,5.160005952815897023e-01,1.068429027561709210e+00,6.317314286724703409e-01,8.240783458383852400e-01
7.733333333333333393e+00,1.643937975669053316e+09,1.306455337872872435e-01,-2.087141965409309741e+00,-9.896569647482007070e+00,5.160005952815897023e-01,1.026625523362512116e+00,6.452057665973155443e-01,7.929287338794267503e-01
7.750000000000000000e+00,1.643937975685991049e+09,1.342000141162458249e-01,-2.768239265362522517e+00,-1.252480966804983709e+01,4.839508688665823399e-01,9.756436938835105765e-01,6.580641315881476938e-01,7.501937760306109926e-01
7.766666666666666607e+00,1.643937975703108549e+09,1.380536370303308558e-01,-2.200621983433608264e+00,-1.025434054033418008e+01,4.839508688665823399e-01,9.155841060443959956e-01,6.702862539771655692e-01,7.165543556851062812e-01
7.783333333333333215e+00,1.643937975720444202e+09,1.422271225007836759e-01,-1.512644474002465378e+00,-7.598579681854630508e+00,5.160005952815897023e-01,8.466279249866215384e-01,6.820378651886970234e-01,6.937024686566440890e-01
7.799999999999999822e+00,1.643937975736351967e+09,1.467377086674636621e-01,-1.323438713359494034e+00,-6.841756639282745134e+00,5.160005952815897023e-01,7.690361591431021937e-01,6.934271841111133705e-01,6.730731071639545204e-01
7.816666666666666430e+00,1.643937975754331112e+09,1.515988988429898543e-01,-1.237436094885415727e+00,-6.497746165386431905e+00,5.160005952815897023e-01,6.831482419931297345e-01,7.044755455222918572e-01,6.527866148712379024e-01
7.833333333333333037e+00,1.643937975772288322e+09,1.568202418923253516e-01,-9.278266683787316227e-01,-5.259308459359695043e+00,5.160005952815897023e-01,5.893799597498718956e-01,7.152184127955737436e-01,6.364029691208082928e-01
7.849999999999999645e+00,1.643937975788238287e+09,1.624071484933552745e-01,-1.553925730870024724e+00,-7.763704709324867892e+00,5.160005952815897023e-01,4.882207395157031060e-01,7.255900329467835919e-01,6.082695991136931601e-01
7.866666666666666252e+00,1.643937975804194927e+09,1.683607454502275558e-01,-1.182350980700517473e+00,-6.181256529401816913e+00,4.839508688665823399e-01,3.802303176199770540e-01,7.355330557919200762e-01,5.849578985505476947e-01
7.883333333333332860e+00,1.643937975822147131e+09,1.746777698743898488e-01,-1.024149601069699766e+00,-5.644600190123568062e+00,5.160005952815897023e-01,2.660348128825948955e-01,7.450968482314490604e-01,5.627588596412336219e-01
7.899999999999999467e+00,1.643937975840101004e+09,1.813505046716827884e-01,1.080471115918438363e+00,2.773882677828984455e+00,5.160005952815897023e-01,1.463222343849285290e-01,7.545678793339872792e-01,5.737343843770847940e-01
7.916666666666666963e+00,1.643937975856058359e+09,1.883667563813828383e-01,1.071910930552024244e+00,2.739641936363327979e+00,5.160005952815897023e-01,2.183745793853075767e-02,7.642019436673255228e-01,5.823294598519224152e-01
7.933333333333333570e+00,1.643937975872015715e+09,1.957098760082476852e-01,-3.464055291324759644e-01,-2.837474723129650656e+00,4.839508688665823399e-01,-1.066232902152747242e-01,7.737644304627205871e-01,5.652164927340648237e-01
7.950000000000000178e+00,1.643937975889967918e+09,2.033588230756518400e-01,-9.002623921055429301e-01,-5.052902175021918296e+00,4.839508688665823399e-01,-2.382183999002859265e-01,7.829493898225575732e-01,5.370568535074640160e-01
7.966666666666666785e+00,1.643937975907006741e+09,2.112882727105043768e-01,-6.319776608279020769e-01,-4.075912429156376859e+00,5.160005952815897023e-01,-3.720672474123782880e-01,7.916874796367173728e-01,5.115846818892996195e-01
7.983333333333333393e+00,1.643937975922955990e+09,2.194687651531584682e-01,-1.123912638499632743e+00,-6.043652339843299970e+00,5.160005952815897023e-01,-5.072569202109307174e-01,7.999179327166547893e-01,4.761680694975195527e-01
8.000000000000000000e+00,1.643937975943444967e+09,2.278668966719013811e-01,-1.973575070662037856e+00,-9.346152889247898443e+00,4.839508688665823399e-01,-6.428492433138052187e-01,8.074269168051602108e-01,4.250520135094166818e-01
8.016666666666665719e+00,1.643937975957439184e+09,2.364455504558692911e-01,-1.966738299545596869e+00,-9.414954984027156470e+00,5.160005952815897023e-01,-7.778880522737973147e-01,8.140733194729197209e-01,3.726618383113339261e-01
8.033333333333333215e+00,1.643937975973480463e+09,2.451641656665356495e-01,-3.270494557251143242e+00,-1.453383083560431999e+01,4.839508688665823399e-01,-9.114066555105378997e-01,8.196552715902319930e-01,2.973815326479936627e-01
8.050000000000000711e+00,1.643937975990182638e+09,2.539790424498806209e-01,-2.303868563963985761e+00,-1.076347604170071115e+01,5.160005952815897023e-01,-1.042435427117468727e+00,8.241083628050669407e-01,2.371567082484678235e-01
8.066666666666666430e+00,1.643937976007688522e+09,2.628436803530075361e-01,-1.381920493921867887e+00,-7.075683761532240545e+00,5.160005952815897023e-01,-1.170009470077033154e+00,8.276757445663633916e-01,1.910571604205230645e-01
8.083333333333333925e+00,1.643937976024336576e+09,2.717091472535851926e-01,-1.006905639013395914e+00,-5.479475162653330678e+00,4.839508688665823399e-01,-1.293176289104465804e+00,8.305159531994565913e-01,1.498822529854655639e-01
8.099999999999999645e+00,1.643937976040511131e+09,2.805244756015865537e-01,1.224784133313328249e+00,3.447283926653566422e+00,4.839508688665823399e-01,-1.411003412110787947e+00,8.329675682379394930e-01,1.443269833003583136e-01
8.116666666666667140e+00,1.643937976058528900e+09,2.892370824934322737e-01,1.255003784222549656e+00,3.472013351045430074e+00,5.160005952815897023e-01,-1.522585899528909659e+00,8.353161248693817820e-01,1.375187247471433560e-01
8.133333333333332860e+00,1.643937976076481104e+09,2.977932098514433079e-01,1.199103577214085892e+00,3.344561702256596103e+00,4.839508688665823399e-01,-1.627053681483242586e+00,8.375300007783511580e-01,1.281723471003547443e-01
8.150000000000000355e+00,1.643937976092438221e+09,3.061383807693047188e-01,1.267844062272170724e+00,3.523374463243913901e+00,5.160005952815897023e-01,-1.723578663996526483e+00,8.395855570442326554e-01,1.185212141390673268e-01
8.166666666666666075e+00,1.643937976110421658e+09,3.142178679087260784e-01,1.245016901295066480e+00,3.432065819335496926e+00,5.160005952815897023e-01,-1.811381547109019330e+00,8.414663138365020556e-01,1.072010465832320125e-01
8.183333333333333570e+00,1.643937976127343416e+09,3.219771696959886076e-01,1.226469833001168963e+00,3.357877546159907300e+00,5.160005952815897023e-01,-1.889738299922010256e+00,8.431465803125752778e-01,9.446630565847806416e-02
8.199999999999999289e+00,1.643937976145295382e+09,3.293624899704762909e-01,1.222665306171651478e+00,3.342659438841836916e+00,5.160005952815897023e-01,-1.957986240153029689e+00,8.446064081126375411e-01,8.075112895872611773e-02
8.216666666666666785e+00,1.643937976161252499e+09,3.363212166821299420e-01,1.216223947946914130e+00,3.413043185187909945e+00,4.839508688665823399e-01,-2.015529668784622253e+00,8.458307063707327655e-01,6.620506868666911626e-02
8.233333333333332504e+00,1.643937976177234888e+09,3.428023952212678194e-01,1.265466233003722518e+00,3.513863146170121521e+00,5.160005952815897023e-01,-2.061845013778627500e+00,8.468149836704851330e-01,5.194781170733500653e-02
8.250000000000000000e+00,1.643937976196196318e+09,3.487571919929303710e-01,1.194823484530878721e+00,3.327441331523767420e+00,4.839508688665823399e-01,-2.096485440586843829e+00,8.475490674753267673e-01,3.618602863489393806e-02
8.266666666666665719e+00,1.643937976211926222e+09,3.541393439184239433e-01,1.142770242751785847e+00,3.023079185162374838e+00,5.160005952815897023e-01,-2.119084891288616213e+00,8.480123208538353774e-01,1.945086444743816464e-02
8.283333333333333215e+00,1.643937976230662584e+09,3.589055896586370586e-01,-6.560583940006464720e-01,-4.172235361847355328e+00,5.160005952815897023e-01,-2.129361518592160607e+00,8.479490917766848712e-01,-2.690957168529140367e-02
8.300000000000000711e+00,1.643937976247773409e+09,3.630160785058931250e-01,-4.496521096628555703e-01,-3.346610224496191055e+00,5.160005952815897023e-01,-2.127120485617328693e+00,8.471484105621361893e-01,-6.905510039207916895e-02
8.316666666666666430e+00,1.643937976263773203e+09,3.664347530822542054e-01,-3.808065765221077537e-01,-2.975078912688178256e+00,4.839508688665823399e-01,-2.112256107293873253e+00,8.456626870853357625e-01,-1.091204216455450571e-01
8.333333333333333925e+00,1.643937976279486179e+09,3.691297022105505810e-01,1.016745291524021821e+00,2.518979380251318290e+00,5.160005952815897023e-01,-2.084753314324499840e+00,8.437115713573145603e-01,-1.249694396308651256e-01
8.349999999999999645e+00,1.643937976297585964e+09,3.710734805878119769e-01,1.022927647621987735e+00,2.543708804643181054e+00,5.160005952815897023e-01,-2.044688425934721998e+00,8.415048820962950371e-01,-1.397920966750578198e-01
8.366666666666667140e+00,1.643937976314763784e+09,3.722433921868263385e-01,1.078309850376907963e+00,2.861386794907885278e+00,4.839508688665823399e-01,-1.992229223020562490e+00,8.390680909727533665e-01,-1.525872950955771135e-01
8.383333333333332860e+00,1.643937976331334829e+09,3.726217346373794648e-01,1.105200540310301571e+00,2.872800375396437289e+00,5.160005952815897023e-01,-1.927634318768520316e+00,8.364324498573109112e-01,-1.636588836211050058e-01
8.400000000000000355e+00,1.643937976348440886e+09,3.721960021913593430e-01,1.096381352817115795e+00,2.933672804668715717e+00,4.839508688665823399e-01,-1.851251829316431285e+00,8.336231433567532489e-01,-1.734307517288692924e-01
8.416666666666666075e+00,1.643937976365565538e+09,3.709590452519098691e-01,1.122537474770048060e+00,3.038297292480444778e+00,4.839508688665823399e-01,-1.763517352505604263e+00,8.306680527093611710e-01,-1.811586590437364863e-01
8.433333333333333570e+00,1.643937976380731583e+09,3.689091848426878095e-01,-5.046503471247804073e-01,-3.470453995098868649e+00,4.839508688665823399e-01,-1.664951268201456447e+00,8.273740969920013733e-01,-2.140247302484806768e-01
8.449999999999999289e+00,1.643937976398320436e+09,3.660502808052524815e-01,1.258332745198377234e+00,3.485329194948739939e+00,5.160005952815897023e-01,-1.556155378987496229e+00,8.237954439462769063e-01,-2.154097877659082172e-01
8.466666666666666785e+00,1.643937976413277864e+09,3.623917529366742496e-01,1.275928681784895380e+00,3.555712941294812079e+00,5.160005952815897023e-01,-1.437808915226172823e+00,8.202126743455980806e-01,-2.145250220559173915e-01
8.483333333333332504e+00,1.643937976430477142e+09,3.579485547117722821e-01,-4.324515859680407859e-01,-3.277808129716932140e+00,5.160005952815897023e-01,-1.310663933485828547e+00,8.164261276291095992e-01,-2.397904006636600305e-01
8.500000000000000000e+00,1.643937976446718931e+09,3.527410996705311330e-01,-8.176998783704245710e-01,-4.722652120081445304e+00,4.839508688665823399e-01,-1.175540142119507525e+00,8.121874336149706997e-01,-2.687723736576866362e-01
8.516666666666665719e+00,1.643937976465640783e+09,3.467951409873923918e-01,-6.835357935508620253e-01,-4.185995780803195565e+00,4.839508688665823399e-01,-1.033319192307918577e+00,8.075078841610605629e-01,-2.927070739680894818e-01
8.533333333333333215e+00,1.643937976482593536e+09,3.401416051707966126e-01,1.199579143067775355e+00,3.346463965671354401e+00,4.839508688665823399e-01,-8.849384771118224968e-01,8.027133201011463770e-01,-2.826684988089094297e-01
8.550000000000000711e+00,1.643937976499657631e+09,3.328163812646606767e-01,1.231442055264983848e+00,3.473915614460188372e+00,4.839508688665823399e-01,-7.313844849833467388e-01,7.981102889695517177e-01,-2.697311748392875463e-01
8.566666666666666430e+00,1.643937976516194582e+09,3.248600673342186274e-01,1.197676879653016835e+00,3.338854912012320320e+00,4.839508688665823399e-01,-5.736857577317086010e-01,7.937382107584671775e-01,-2.549592445961811893e-01
8.583333333333333925e+00,1.643937976533122778e+09,3.163176764129823071e-01,-6.732589176954613119e-01,-4.241037456626614244e+00,5.160005952815897023e-01,-4.129055060969931690e-01,7.893740835410995027e-01,-2.686978577753543762e-01
8.599999999999999645e+00,1.643937976550105572e+09,3.072383044617472692e-01,-8.761816589327984239e-01,-4.956579242330940716e+00,4.839508688665823399e-01,-2.501339388320658608e-01,7.847773313213363133e-01,-2.828730321850056462e-01
8.616666666666667140e+00,1.643937976566129684e+09,2.976747632408288102e-01,1.180080943066498911e+00,3.268471165666248623e+00,4.839508688665823399e-01,-8.648036350537040284e-02,7.802529000069946541e-01,-2.601219245446451112e-01
8.633333333333332860e+00,1.643937976585421324e+09,2.876831813200310672e-01,1.210041591848948217e+00,3.388313760796045848e+00,4.839508688665823399e-01,7.693488090389430378e-02,7.761312206005095415e-01,-2.345506372589459265e-01
8.650000000000000355e+00,1.643937976600675583e+09,2.773225767437380584e-01,1.218601777215362336e+00,3.422554502261702325e+00,4.839508688665823399e-01,2.389885981529854542e-01,7.724557626738541849e-01,-2.065820064094847364e-01
8.666666666666666075e+00,1.643937976617410898e+09,2.666544051286066086e-01,1.275453115931205694e+00,3.553810677880053781e+00,5.160005952815897023e-01,3.985629532479711967e-01,7.692724783782606268e-01,-1.754984542942382708e-01
8.683333333333333570e+00,1.643937976633807182e+09,2.557420871957307162e-01,1.291622354956654561e+00,3.618487633981849694e+00,5.160005952815897023e-01,5.545536725146340551e-01,7.666267388282020923e-01,-1.420831142863249463e-01
8.699999999999999289e+00,1.643937976650830269e+09,2.446505199261313490e-01,1.292314484537262276e+00,3.717405331549302527e+00,4.839508688665823399e-01,7.058781624852306091e-01,7.645543028795179774e-01,-1.067074675539325668e-01
8.716666666666666785e+00,1.643937976667795181e+09,2.334455756757907452e-01,1.327981923563988031e+00,3.860075087656205550e+00,4.839508688665823399e-01,8.514834854086221760e-01,7.630916124253926958e-01,-6.892035361693045481e-02
8.733333333333332504e+00,1.643937976686767101e+09,2.221935936932605271e-01,1.279474206487640986e+00,3.666044219350817368e+00,4.839508688665823399e-01,9.903541302299522231e-01,7.622659690011877043e-01,-3.026423791409895564e-02
