2022-02-09-17:05:21.984510,5.0,18.0,524.0
2022-02-09-17:05:21.985476,3.0,13.0,525.0
2022-02-09-17:05:21.985476,3.0,6.0,526.0
2022-02-09-17:05:21.986504,2.0,13.0,528.0
2022-02-09-17:05:21.987469,2.0,13.0,528.0
2022-02-09-17:05:21.988500,3.0,14.0,528.0
2022-02-09-17:05:21.989496,6.0,12.0,529.0
2022-02-09-17:05:21.990462,9.0,4.0,528.0
2022-02-09-17:05:21.992488,6.0,3.0,529.0
2022-02-09-17:05:21.992488,3.0,9.0,530.0
2022-02-09-17:05:21.993454,5.0,14.0,531.0
2022-02-09-17:05:21.994484,4.0,3.0,531.0
2022-02-09-17:05:21.995448,1.0,11.0,533.0
2022-02-09-17:05:21.996480,4.0,10.0,534.0
2022-02-09-17:05:21.997477,4.0,10.0,534.0
2022-02-09-17:05:21.998476,7.0,7.0,534.0
2022-02-09-17:05:21.999471,5.0,11.0,535.0
2022-02-09-17:05:22.000468,6.0,11.0,535.0
2022-02-09-17:05:22.001467,4.0,3.0,535.0
2022-02-09-17:05:22.002463,8.0,11.0,536.0
2022-02-09-17:05:22.003460,5.0,8.0,536.0
2022-02-09-17:05:22.004459,1.0,8.0,537.0
2022-02-09-17:05:22.005455,1.0,5.0,536.0
2022-02-09-17:05:22.006455,7.0,14.0,536.0
2022-02-09-17:05:22.007450,9.0,5.0,536.0
2022-02-09-17:05:22.008447,2.0,6.0,536.0
2022-02-09-17:05:22.009445,8.0,7.0,536.0
2022-02-09-17:05:22.010452,6.0,6.0,536.0
2022-02-09-17:05:22.011406,2.0,1.0,536.0
2022-02-09-17:05:22.012404,3.0,10.0,537.0
2022-02-09-17:05:22.013435,6.0,7.0,536.0
2022-02-09-17:05:22.014441,6.0,8.0,536.0
2022-02-09-17:05:22.015396,2.0,8.0,537.0
2022-02-09-17:05:22.016393,5.0,10.0,536.0
2022-02-09-17:05:22.017425,4.0,9.0,536.0
2022-02-09-17:05:22.018426,7.0,11.0,536.0
2022-02-09-17:05:22.019418,5.0,8.0,537.0
2022-02-09-17:05:22.020416,5.0,3.0,536.0
2022-02-09-17:05:22.021412,5.0,4.0,537.0
2022-02-09-17:05:22.022409,4.0,1.0,536.0
2022-02-09-17:05:22.023407,4.0,11.0,536.0
2022-02-09-17:05:22.025425,5.0,11.0,537.0
2022-02-09-17:05:22.025425,3.0,0.0,536.0
2022-02-09-17:05:22.026399,3.0,3.0,537.0
2022-02-09-17:05:22.027417,6.0,14.0,536.0
2022-02-09-17:05:22.028363,1.0,7.0,536.0
2022-02-09-17:05:22.029357,5.0,1.0,537.0
2022-02-09-17:05:22.030393,6.0,10.0,536.0
2022-02-09-17:05:22.031386,6.0,6.0,536.0
2022-02-09-17:05:22.032349,5.0,5.0,536.0
2022-02-09-17:05:22.033386,6.0,1.0,536.0
2022-02-09-17:05:22.034377,8.0,11.0,536.0
2022-02-09-17:05:22.035375,3.0,6.0,536.0
2022-02-09-17:05:22.036373,6.0,6.0,536.0
2022-02-09-17:05:22.037375,5.0,8.0,536.0
2022-02-09-17:05:22.038367,4.0,3.0,536.0
2022-02-09-17:05:22.039365,5.0,11.0,536.0
2022-02-09-17:05:22.040361,3.0,11.0,537.0
2022-02-09-17:05:22.041360,4.0,9.0,536.0
2022-02-09-17:05:22.042356,7.0,0.0,536.0
2022-02-09-17:05:22.043356,1.0,9.0,536.0
2022-02-09-17:05:22.044352,5.0,10.0,536.0
2022-02-09-17:05:22.045316,3.0,3.0,536.0
2022-02-09-17:05:22.046313,6.0,0.0,537.0
2022-02-09-17:05:22.047345,6.0,13.0,536.0
2022-02-09-17:05:22.048341,7.0,12.0,536.0
2022-02-09-17:05:22.049305,3.0,11.0,537.0
2022-02-09-17:05:22.050334,4.0,3.0,536.0
2022-02-09-17:05:22.051332,3.0,8.0,536.0
2022-02-09-17:05:22.052331,3.0,8.0,536.0
2022-02-09-17:05:22.053326,3.0,14.0,536.0
2022-02-09-17:05:22.054323,7.0,12.0,536.0
2022-02-09-17:05:22.055322,7.0,6.0,536.0
2022-02-09-17:05:22.056318,4.0,4.0,537.0
2022-02-09-17:05:22.057321,5.0,10.0,536.0
2022-02-09-17:05:22.059312,6.0,12.0,537.0
2022-02-09-17:05:22.059312,6.0,9.0,536.0
2022-02-09-17:05:22.060310,3.0,10.0,536.0
2022-02-09-17:05:22.061272,5.0,7.0,536.0
2022-02-09-17:05:22.062270,3.0,5.0,537.0
2022-02-09-17:05:22.063301,6.0,2.0,537.0
2022-02-09-17:05:22.064299,5.0,8.0,537.0
2022-02-09-17:05:22.065262,1.0,2.0,537.0
2022-02-09-17:05:22.066293,3.0,9.0,536.0
2022-02-09-17:05:22.067290,3.0,9.0,536.0
2022-02-09-17:05:22.068288,3.0,9.0,536.0
2022-02-09-17:05:22.069251,3.0,9.0,536.0
2022-02-09-17:05:22.070281,4.0,9.0,537.0
2022-02-09-17:05:22.071279,4.0,9.0,537.0
2022-02-09-17:05:22.072275,4.0,9.0,537.0
2022-02-09-17:05:22.073275,4.0,9.0,537.0
2022-02-09-17:05:22.074271,6.0,9.0,536.0
2022-02-09-17:05:22.075267,6.0,9.0,536.0
2022-02-09-17:05:22.076266,6.0,9.0,536.0
2022-02-09-17:05:22.077262,6.0,9.0,536.0
2022-02-09-17:05:22.078259,6.0,9.0,536.0
2022-02-09-17:05:22.079225,3.0,3.0,536.0
2022-02-09-17:05:22.080221,3.0,3.0,536.0
2022-02-09-17:05:22.081253,3.0,3.0,536.0
2022-02-09-17:05:22.082249,3.0,3.0,536.0
2022-02-09-17:05:22.083247,5.0,9.0,537.0
2022-02-09-17:05:22.084245,10.0,9.0,536.0
2022-02-09-17:05:22.085246,2.0,12.0,537.0
2022-02-09-17:05:22.086206,2.0,12.0,537.0
2022-02-09-17:05:22.087203,5.0,7.0,537.0
2022-02-09-17:05:22.088201,4.0,9.0,536.0
2022-02-09-17:05:22.089198,4.0,9.0,536.0
2022-02-09-17:05:22.090220,4.0,9.0,536.0
2022-02-09-17:05:22.091225,7.0,7.0,537.0
2022-02-09-17:05:22.093220,7.0,7.0,537.0
2022-02-09-17:05:22.093220,7.0,7.0,537.0
2022-02-09-17:05:22.094217,5.0,6.0,537.0
2022-02-09-17:05:22.095215,2.0,5.0,537.0
2022-02-09-17:05:22.096179,2.0,5.0,537.0
2022-02-09-17:05:22.097178,2.0,5.0,537.0
2022-02-09-17:05:22.098209,2.0,5.0,537.0
2022-02-09-17:05:22.099210,2.0,5.0,537.0
2022-02-09-17:05:22.100202,3.0,11.0,537.0
2022-02-09-17:05:22.101198,3.0,11.0,537.0
2022-02-09-17:05:22.102163,3.0,11.0,537.0
2022-02-09-17:05:22.103194,7.0,5.0,536.0
2022-02-09-17:05:22.104190,7.0,3.0,536.0
2022-02-09-17:05:22.105189,7.0,3.0,536.0
2022-02-09-17:05:22.106153,7.0,3.0,536.0
2022-02-09-17:05:22.107186,3.0,7.0,537.0
2022-02-09-17:05:22.108181,7.0,6.0,537.0
2022-02-09-17:05:22.109177,7.0,6.0,537.0
2022-02-09-17:05:22.110174,7.0,6.0,537.0
2022-02-09-17:05:22.111172,7.0,8.0,536.0
2022-02-09-17:05:22.112137,2.0,7.0,536.0
2022-02-09-17:05:22.113169,2.0,7.0,536.0
2022-02-09-17:05:22.114163,2.0,7.0,536.0
2022-02-09-17:05:22.115161,2.0,7.0,536.0
2022-02-09-17:05:22.116160,5.0,5.0,536.0
2022-02-09-17:05:22.117156,6.0,6.0,536.0
2022-02-09-17:05:22.118153,6.0,6.0,536.0
2022-02-09-17:05:22.119151,6.0,6.0,536.0
2022-02-09-17:05:22.120148,7.0,3.0,536.0
2022-02-09-17:05:22.121146,2.0,4.0,537.0
2022-02-09-17:05:22.122142,2.0,4.0,537.0
2022-02-09-17:05:22.123139,2.0,4.0,537.0
2022-02-09-17:05:22.124138,6.0,8.0,536.0
2022-02-09-17:05:22.126152,7.0,10.0,536.0
2022-02-09-17:05:22.126152,7.0,10.0,536.0
2022-02-09-17:05:22.127130,4.0,8.0,537.0
2022-02-09-17:05:22.128127,4.0,8.0,537.0
2022-02-09-17:05:22.129091,4.0,8.0,537.0
2022-02-09-17:05:22.130122,4.0,8.0,537.0
2022-02-09-17:05:22.131118,4.0,8.0,537.0
2022-02-09-17:05:22.132116,7.0,5.0,536.0
2022-02-09-17:05:22.133113,9.0,9.0,536.0
2022-02-09-17:05:22.134110,9.0,9.0,536.0
2022-02-09-17:05:22.135110,9.0,9.0,536.0
2022-02-09-17:05:22.136105,6.0,3.0,536.0
2022-02-09-17:05:22.137104,6.0,8.0,536.0
2022-02-09-17:05:22.138101,6.0,8.0,536.0
2022-02-09-17:05:22.139065,6.0,8.0,536.0
2022-02-09-17:05:22.140096,3.0,12.0,537.0
2022-02-09-17:05:22.141092,2.0,9.0,537.0
2022-02-09-17:05:22.142089,2.0,9.0,537.0
2022-02-09-17:05:22.143054,2.0,9.0,537.0
2022-02-09-17:05:22.144085,6.0,10.0,536.0
2022-02-09-17:05:22.145082,4.0,9.0,536.0
2022-02-09-17:05:22.146083,4.0,9.0,536.0
2022-02-09-17:05:22.147047,4.0,9.0,536.0
2022-02-09-17:05:22.148074,2.0,1.0,537.0
2022-02-09-17:05:22.149070,2.0,9.0,536.0
2022-02-09-17:05:22.150068,2.0,9.0,536.0
2022-02-09-17:05:22.151067,2.0,9.0,536.0
2022-02-09-17:05:22.152063,6.0,10.0,537.0
2022-02-09-17:05:22.153063,5.0,3.0,536.0
2022-02-09-17:05:22.154058,5.0,3.0,536.0
2022-02-09-17:05:22.155054,5.0,3.0,536.0
2022-02-09-17:05:22.156053,5.0,3.0,536.0
2022-02-09-17:05:22.157049,4.0,14.0,536.0
2022-02-09-17:05:22.158051,5.0,15.0,536.0
2022-02-09-17:05:22.159046,5.0,15.0,536.0
2022-02-09-17:05:22.161059,4.0,13.0,536.0
2022-02-09-17:05:22.161059,0.0,10.0,536.0
2022-02-09-17:05:22.162061,0.0,10.0,536.0
2022-02-09-17:05:22.163001,0.0,10.0,536.0
2022-02-09-17:05:22.164032,0.0,10.0,536.0
2022-02-09-17:05:22.164995,5.0,7.0,536.0
2022-02-09-17:05:22.166025,8.0,5.0,536.0
2022-02-09-17:05:22.167023,8.0,5.0,536.0
2022-02-09-17:05:22.168020,8.0,5.0,536.0
2022-02-09-17:05:22.169022,5.0,9.0,536.0
2022-02-09-17:05:22.170016,6.0,2.0,536.0
2022-02-09-17:05:22.171034,6.0,2.0,536.0
2022-02-09-17:05:22.172032,6.0,2.0,536.0
2022-02-09-17:05:22.173031,4.0,10.0,536.0
2022-02-09-17:05:22.174025,8.0,10.0,536.0
2022-02-09-17:05:22.175023,8.0,10.0,536.0
2022-02-09-17:05:22.175966,8.0,10.0,536.0
2022-02-09-17:05:22.177016,4.0,10.0,536.0
2022-02-09-17:05:22.178014,3.0,8.0,535.0
2022-02-09-17:05:22.178990,3.0,8.0,535.0
2022-02-09-17:05:22.179956,3.0,8.0,535.0
2022-02-09-17:05:22.181010,6.0,1.0,535.0
2022-02-09-17:05:22.182004,2.0,2.0,535.0
2022-02-09-17:05:22.183002,2.0,2.0,535.0
2022-02-09-17:05:22.183945,2.0,2.0,535.0
2022-02-09-17:05:22.184996,6.0,3.0,535.0
2022-02-09-17:05:22.185993,7.0,1.0,535.0
2022-02-09-17:05:22.186991,7.0,1.0,535.0
2022-02-09-17:05:22.187989,7.0,1.0,535.0
2022-02-09-17:05:22.188989,4.0,11.0,535.0
2022-02-09-17:05:22.189983,4.0,10.0,535.0
2022-02-09-17:05:22.190981,4.0,10.0,535.0
2022-02-09-17:05:22.191977,4.0,10.0,535.0
2022-02-09-17:05:22.192975,6.0,9.0,535.0
2022-02-09-17:05:22.193919,3.0,10.0,535.0
2022-02-09-17:05:22.195968,3.0,10.0,535.0
2022-02-09-17:05:22.195968,3.0,10.0,535.0
2022-02-09-17:05:22.196943,4.0,1.0,534.0
2022-02-09-17:05:22.197943,4.0,1.0,534.0
2022-02-09-17:05:22.198939,4.0,1.0,534.0
2022-02-09-17:05:22.199935,4.0,1.0,534.0
2022-02-09-17:05:22.200934,4.0,1.0,534.0
2022-02-09-17:05:22.201930,2.0,7.0,535.0
2022-02-09-17:05:22.202928,6.0,5.0,534.0
2022-02-09-17:05:22.203926,6.0,5.0,534.0
2022-02-09-17:05:22.204923,6.0,5.0,534.0
2022-02-09-17:05:22.205922,4.0,8.0,535.0
2022-02-09-17:05:22.206918,4.0,8.0,535.0
2022-02-09-17:05:22.207914,4.0,8.0,535.0
2022-02-09-17:05:22.208912,4.0,8.0,535.0
2022-02-09-17:05:22.209933,4.0,10.0,535.0
2022-02-09-17:05:22.210906,5.0,11.0,535.0
2022-02-09-17:05:22.211905,5.0,11.0,535.0
2022-02-09-17:05:22.212866,5.0,11.0,535.0
2022-02-09-17:05:22.213865,5.0,5.0,535.0
2022-02-09-17:05:22.214896,6.0,7.0,534.0
2022-02-09-17:05:22.215893,6.0,7.0,534.0
2022-02-09-17:05:22.216857,6.0,7.0,534.0
2022-02-09-17:05:22.217887,4.0,7.0,535.0
2022-02-09-17:05:22.218886,4.0,1.0,535.0
2022-02-09-17:05:22.219883,4.0,1.0,535.0
2022-02-09-17:05:22.220846,4.0,1.0,535.0
2022-02-09-17:05:22.221879,5.0,11.0,535.0
2022-02-09-17:05:22.222875,2.0,11.0,534.0
2022-02-09-17:05:22.223875,2.0,11.0,534.0
2022-02-09-17:05:22.224869,2.0,11.0,534.0
2022-02-09-17:05:22.225890,4.0,11.0,534.0
2022-02-09-17:05:22.226889,6.0,8.0,535.0
2022-02-09-17:05:22.228825,6.0,8.0,535.0
2022-02-09-17:05:22.228825,4.0,11.0,534.0
2022-02-09-17:05:22.229858,4.0,2.0,534.0
2022-02-09-17:05:22.230875,4.0,2.0,534.0
2022-02-09-17:05:22.231872,4.0,2.0,534.0
2022-02-09-17:05:22.232873,4.0,2.0,534.0
2022-02-09-17:05:22.233869,4.0,2.0,534.0
2022-02-09-17:05:22.234843,8.0,4.0,534.0
2022-02-09-17:05:22.235863,8.0,4.0,534.0
2022-02-09-17:05:22.236860,8.0,4.0,534.0
2022-02-09-17:05:22.237856,8.0,4.0,534.0
2022-02-09-17:05:22.238832,6.0,11.0,535.0
2022-02-09-17:05:22.239830,7.0,11.0,535.0
2022-02-09-17:05:22.240794,7.0,11.0,535.0
2022-02-09-17:05:22.241790,7.0,11.0,535.0
2022-02-09-17:05:22.242788,4.0,8.0,534.0
2022-02-09-17:05:22.243785,4.0,9.0,535.0
2022-02-09-17:05:22.244782,4.0,9.0,535.0
2022-02-09-17:05:22.245780,4.0,9.0,535.0
2022-02-09-17:05:22.246777,6.0,6.0,535.0
2022-02-09-17:05:22.247775,6.0,0.0,535.0
2022-02-09-17:05:22.248772,6.0,0.0,535.0
2022-02-09-17:05:22.249769,6.0,0.0,535.0
2022-02-09-17:05:22.250766,4.0,6.0,535.0
2022-02-09-17:05:22.251764,6.0,4.0,534.0
2022-02-09-17:05:22.252761,6.0,4.0,534.0
2022-02-09-17:05:22.253758,6.0,4.0,534.0
2022-02-09-17:05:22.254756,6.0,7.0,535.0
2022-02-09-17:05:22.255754,5.0,10.0,534.0
2022-02-09-17:05:22.256750,5.0,10.0,534.0
2022-02-09-17:05:22.257748,5.0,10.0,534.0
2022-02-09-17:05:22.258745,8.0,9.0,535.0
2022-02-09-17:05:22.259742,3.0,7.0,534.0
2022-02-09-17:05:22.260741,3.0,7.0,534.0
2022-02-09-17:05:22.262733,3.0,7.0,534.0
2022-02-09-17:05:22.262733,2.0,3.0,535.0
2022-02-09-17:05:22.263733,2.0,3.0,535.0
2022-02-09-17:05:22.264729,2.0,3.0,535.0
2022-02-09-17:05:22.265726,2.0,3.0,535.0
2022-02-09-17:05:22.266724,3.0,7.0,534.0
2022-02-09-17:05:22.267722,6.0,4.0,534.0
2022-02-09-17:05:22.268718,6.0,4.0,534.0
2022-02-09-17:05:22.269716,6.0,4.0,534.0
2022-02-09-17:05:22.270714,5.0,2.0,535.0
2022-02-09-17:05:22.271711,1.0,12.0,535.0
2022-02-09-17:05:22.272741,1.0,12.0,535.0
2022-02-09-17:05:22.273736,1.0,12.0,535.0
2022-02-09-17:05:22.274734,1.0,12.0,535.0
2022-02-09-17:05:22.275699,7.0,11.0,534.0
2022-02-09-17:05:22.276737,6.0,11.0,535.0
2022-02-09-17:05:22.277700,6.0,11.0,535.0
2022-02-09-17:05:22.278716,6.0,11.0,535.0
2022-02-09-17:05:22.279689,5.0,7.0,535.0
2022-02-09-17:05:22.280720,4.0,3.0,535.0
2022-02-09-17:05:22.281715,4.0,3.0,535.0
2022-02-09-17:05:22.282713,4.0,3.0,535.0
2022-02-09-17:05:22.283712,8.0,5.0,535.0
2022-02-09-17:05:22.284714,5.0,7.0,534.0
2022-02-09-17:05:22.285705,5.0,7.0,534.0
2022-02-09-17:05:22.286702,5.0,7.0,534.0
2022-02-09-17:05:22.287667,5.0,2.0,534.0
2022-02-09-17:05:22.288698,5.0,14.0,534.0
2022-02-09-17:05:22.289694,5.0,14.0,534.0
2022-02-09-17:05:22.290659,5.0,14.0,534.0
2022-02-09-17:05:22.291689,8.0,12.0,534.0
2022-02-09-17:05:22.292686,4.0,8.0,535.0
2022-02-09-17:05:22.293683,4.0,8.0,535.0
2022-02-09-17:05:22.294649,4.0,8.0,535.0
2022-02-09-17:05:22.296642,3.0,12.0,534.0
2022-02-09-17:05:22.296642,1.0,1.0,535.0
2022-02-09-17:05:22.297674,1.0,1.0,535.0
2022-02-09-17:05:22.298638,1.0,1.0,535.0
2022-02-09-17:05:22.299668,4.0,9.0,534.0
2022-02-09-17:05:22.300664,5.0,6.0,534.0
2022-02-09-17:05:22.301662,5.0,6.0,534.0
2022-02-09-17:05:22.302649,5.0,6.0,534.0
2022-02-09-17:05:22.303657,6.0,0.0,534.0
2022-02-09-17:05:22.304656,2.0,14.0,535.0
2022-02-09-17:05:22.305651,2.0,14.0,535.0
2022-02-09-17:05:22.306648,2.0,14.0,535.0
2022-02-09-17:05:22.307647,3.0,12.0,534.0
2022-02-09-17:05:22.308643,3.0,7.0,535.0
2022-02-09-17:05:22.309640,3.0,7.0,535.0
2022-02-09-17:05:22.310638,3.0,7.0,535.0
2022-02-09-17:05:22.311635,2.0,7.0,535.0
2022-02-09-17:05:22.312601,2.0,7.0,535.0
2022-02-09-17:05:22.313630,2.0,7.0,535.0
2022-02-09-17:05:22.314633,2.0,7.0,535.0
2022-02-09-17:05:22.315625,2.0,7.0,535.0
2022-02-09-17:05:22.316621,7.0,6.0,535.0
2022-02-09-17:05:22.317625,6.0,9.0,534.0
2022-02-09-17:05:22.318586,6.0,9.0,534.0
2022-02-09-17:05:22.319583,6.0,9.0,534.0
2022-02-09-17:05:22.320580,2.0,8.0,535.0
2022-02-09-17:05:22.321577,1.0,11.0,535.0
2022-02-09-17:05:22.322574,1.0,11.0,535.0
2022-02-09-17:05:22.323572,1.0,11.0,535.0
2022-02-09-17:05:22.324569,7.0,12.0,535.0
2022-02-09-17:05:22.325566,8.0,9.0,534.0
2022-02-09-17:05:22.326564,8.0,9.0,534.0
2022-02-09-17:05:22.327561,8.0,9.0,534.0
2022-02-09-17:05:22.329556,6.0,9.0,534.0
2022-02-09-17:05:22.329556,5.0,5.0,535.0
2022-02-09-17:05:22.330553,5.0,5.0,535.0
2022-02-09-17:05:22.331550,5.0,5.0,535.0
2022-02-09-17:05:22.332548,6.0,6.0,535.0
2022-02-09-17:05:22.333545,5.0,6.0,535.0
2022-02-09-17:05:22.334543,5.0,6.0,535.0
2022-02-09-17:05:22.335540,5.0,6.0,535.0
2022-02-09-17:05:22.336537,3.0,1.0,535.0
2022-02-09-17:05:22.337534,1.0,8.0,535.0
2022-02-09-17:05:22.338532,1.0,8.0,535.0
2022-02-09-17:05:22.339529,1.0,8.0,535.0
2022-02-09-17:05:22.340526,3.0,12.0,534.0
2022-02-09-17:05:22.341524,3.0,12.0,534.0
2022-02-09-17:05:22.342521,3.0,12.0,534.0
2022-02-09-17:05:22.343518,3.0,12.0,534.0
2022-02-09-17:05:22.344516,3.0,12.0,534.0
2022-02-09-17:05:22.345512,5.0,7.0,534.0
2022-02-09-17:05:22.346510,5.0,7.0,534.0
2022-02-09-17:05:22.347508,5.0,7.0,534.0
2022-02-09-17:05:22.348505,5.0,7.0,534.0
2022-02-09-17:05:22.349503,3.0,6.0,535.0
2022-02-09-17:05:22.350500,7.0,7.0,535.0
2022-02-09-17:05:22.351497,7.0,7.0,535.0
2022-02-09-17:05:22.352495,7.0,7.0,535.0
2022-02-09-17:05:22.353492,5.0,1.0,535.0
2022-02-09-17:05:22.354489,4.0,8.0,535.0
2022-02-09-17:05:22.355486,4.0,8.0,535.0
2022-02-09-17:05:22.356484,4.0,8.0,535.0
2022-02-09-17:05:22.357481,1.0,9.0,535.0
2022-02-09-17:05:22.358478,3.0,11.0,535.0
2022-02-09-17:05:22.359476,3.0,11.0,535.0
2022-02-09-17:05:22.360473,3.0,11.0,535.0
2022-02-09-17:05:22.361470,5.0,9.0,535.0
2022-02-09-17:05:22.362468,6.0,9.0,535.0
2022-02-09-17:05:22.363465,6.0,9.0,535.0
2022-02-09-17:05:22.365460,6.0,9.0,535.0
2022-02-09-17:05:22.365460,5.0,4.0,535.0
2022-02-09-17:05:22.366457,9.0,12.0,534.0
2022-02-09-17:05:22.367454,9.0,12.0,534.0
2022-02-09-17:05:22.368452,9.0,12.0,534.0
2022-02-09-17:05:22.369449,4.0,1.0,535.0
2022-02-09-17:05:22.370446,2.0,7.0,535.0
2022-02-09-17:05:22.371444,2.0,7.0,535.0
2022-02-09-17:05:22.372441,2.0,7.0,535.0
2022-02-09-17:05:22.373438,5.0,8.0,535.0
2022-02-09-17:05:22.374436,5.0,11.0,535.0
2022-02-09-17:05:22.375434,5.0,11.0,535.0
2022-02-09-17:05:22.376431,5.0,11.0,535.0
2022-02-09-17:05:22.377428,5.0,4.0,534.0
2022-02-09-17:05:22.378425,5.0,8.0,535.0
2022-02-09-17:05:22.379423,5.0,8.0,535.0
2022-02-09-17:05:22.380420,5.0,8.0,535.0
2022-02-09-17:05:22.381448,5.0,8.0,535.0
2022-02-09-17:05:22.382447,2.0,0.0,535.0
2022-02-09-17:05:22.383443,4.0,9.0,535.0
2022-02-09-17:05:22.384442,4.0,9.0,535.0
2022-02-09-17:05:22.385437,4.0,9.0,535.0
2022-02-09-17:05:22.386435,4.0,2.0,534.0
2022-02-09-17:05:22.387434,4.0,2.0,534.0
2022-02-09-17:05:22.388430,4.0,2.0,534.0
2022-02-09-17:05:22.389395,4.0,2.0,534.0
2022-02-09-17:05:22.390425,2.0,10.0,534.0
2022-02-09-17:05:22.391431,3.0,10.0,535.0
2022-02-09-17:05:22.392422,3.0,10.0,535.0
2022-02-09-17:05:22.393418,3.0,10.0,535.0
2022-02-09-17:05:22.394414,8.0,9.0,534.0
2022-02-09-17:05:22.395413,5.0,9.0,535.0
2022-02-09-17:05:22.396377,5.0,9.0,535.0
2022-02-09-17:05:22.398404,5.0,9.0,535.0
2022-02-09-17:05:22.398404,2.0,0.0,535.0
2022-02-09-17:05:22.399400,5.0,9.0,534.0
2022-02-09-17:05:22.400400,5.0,9.0,534.0
2022-02-09-17:05:22.401395,5.0,9.0,534.0
2022-02-09-17:05:22.402393,7.0,6.0,535.0
2022-02-09-17:05:22.403392,7.0,1.0,534.0
2022-02-09-17:05:22.404387,7.0,1.0,534.0
2022-02-09-17:05:22.405353,7.0,1.0,534.0
2022-02-09-17:05:22.406383,1.0,9.0,534.0
2022-02-09-17:05:22.407380,7.0,6.0,535.0
2022-02-09-17:05:22.408378,7.0,6.0,535.0
2022-02-09-17:05:22.409342,7.0,6.0,535.0
2022-02-09-17:05:22.410371,2.0,10.0,534.0
2022-02-09-17:05:22.411370,2.0,7.0,535.0
2022-02-09-17:05:22.412334,2.0,7.0,535.0
2022-02-09-17:05:22.413334,2.0,7.0,535.0
2022-02-09-17:05:22.414362,2.0,7.0,535.0
2022-02-09-17:05:22.415359,1.0,5.0,535.0
2022-02-09-17:05:22.416362,6.0,9.0,534.0
2022-02-09-17:05:22.417353,6.0,9.0,534.0
2022-02-09-17:05:22.418351,5.0,11.0,535.0
2022-02-09-17:05:22.419349,4.0,4.0,535.0
2022-02-09-17:05:22.420345,4.0,4.0,535.0
2022-02-09-17:05:22.421342,4.0,4.0,535.0
2022-02-09-17:05:22.422340,5.0,4.0,535.0
2022-02-09-17:05:22.423337,7.0,9.0,535.0
2022-02-09-17:05:22.424337,7.0,9.0,535.0
2022-02-09-17:05:22.425337,7.0,9.0,535.0
2022-02-09-17:05:22.426329,7.0,9.0,535.0
2022-02-09-17:05:22.427328,6.0,9.0,535.0
2022-02-09-17:05:22.428326,5.0,8.0,535.0
2022-02-09-17:05:22.429311,5.0,8.0,535.0
2022-02-09-17:05:22.430319,5.0,8.0,535.0
2022-02-09-17:05:22.432315,3.0,3.0,535.0
2022-02-09-17:05:22.432315,3.0,3.0,535.0
2022-02-09-17:05:22.433309,3.0,3.0,535.0
2022-02-09-17:05:22.434307,3.0,3.0,535.0
2022-02-09-17:05:22.435306,6.0,11.0,535.0
2022-02-09-17:05:22.436302,6.0,6.0,535.0
2022-02-09-17:05:22.437300,6.0,6.0,535.0
2022-02-09-17:05:22.438298,6.0,6.0,535.0
2022-02-09-17:05:22.439294,2.0,11.0,535.0
2022-02-09-17:05:22.440294,4.0,9.0,535.0
2022-02-09-17:05:22.441288,4.0,9.0,535.0
2022-02-09-17:05:22.442286,4.0,9.0,535.0
2022-02-09-17:05:22.443277,6.0,8.0,535.0
2022-02-09-17:05:22.444286,7.0,10.0,534.0
2022-02-09-17:05:22.445282,7.0,10.0,534.0
2022-02-09-17:05:22.446243,7.0,10.0,534.0
2022-02-09-17:05:22.447241,5.0,1.0,535.0
2022-02-09-17:05:22.448275,6.0,7.0,535.0
2022-02-09-17:05:22.449269,6.0,7.0,535.0
2022-02-09-17:05:22.450232,6.0,7.0,535.0
2022-02-09-17:05:22.451265,5.0,6.0,534.0
2022-02-09-17:05:22.452261,3.0,1.0,535.0
2022-02-09-17:05:22.453258,3.0,1.0,535.0
2022-02-09-17:05:22.454256,3.0,1.0,535.0
2022-02-09-17:05:22.455252,4.0,8.0,534.0
2022-02-09-17:05:22.456251,6.0,7.0,535.0
2022-02-09-17:05:22.457247,6.0,7.0,535.0
2022-02-09-17:05:22.458211,6.0,7.0,535.0
2022-02-09-17:05:22.459208,6.0,7.0,535.0
2022-02-09-17:05:22.460205,5.0,10.0,535.0
2022-02-09-17:05:22.461202,5.0,10.0,535.0
2022-02-09-17:05:22.462199,5.0,10.0,535.0
2022-02-09-17:05:22.463197,5.0,10.0,535.0
2022-02-09-17:05:22.465192,6.0,1.0,535.0
2022-02-09-17:05:22.465192,3.0,4.0,535.0
2022-02-09-17:05:22.466189,3.0,4.0,535.0
2022-02-09-17:05:22.467186,3.0,4.0,535.0
2022-02-09-17:05:22.468183,9.0,5.0,534.0
2022-02-09-17:05:22.469181,8.0,3.0,535.0
2022-02-09-17:05:22.470212,8.0,3.0,535.0
2022-02-09-17:05:22.471208,8.0,3.0,535.0
2022-02-09-17:05:22.472208,2.0,11.0,535.0
2022-02-09-17:05:22.473203,4.0,13.0,535.0
2022-02-09-17:05:22.474200,4.0,13.0,535.0
2022-02-09-17:05:22.475199,4.0,13.0,535.0
2022-02-09-17:05:22.476195,3.0,10.0,534.0
2022-02-09-17:05:22.477192,3.0,11.0,535.0
2022-02-09-17:05:22.478190,3.0,11.0,535.0
2022-02-09-17:05:22.479155,3.0,11.0,535.0
2022-02-09-17:05:22.480187,3.0,6.0,535.0
2022-02-09-17:05:22.481182,7.0,2.0,535.0
2022-02-09-17:05:22.482179,7.0,2.0,535.0
2022-02-09-17:05:22.483145,7.0,2.0,535.0
2022-02-09-17:05:22.484174,6.0,6.0,535.0
2022-02-09-17:05:22.485179,3.0,0.0,535.0
2022-02-09-17:05:22.486169,3.0,0.0,535.0
2022-02-09-17:05:22.487134,3.0,0.0,535.0
2022-02-09-17:05:22.488165,1.0,10.0,535.0
2022-02-09-17:05:22.489160,6.0,14.0,535.0
2022-02-09-17:05:22.490158,6.0,14.0,535.0
2022-02-09-17:05:22.491122,6.0,14.0,535.0
2022-02-09-17:05:22.492153,6.0,11.0,534.0
2022-02-09-17:05:22.493150,4.0,6.0,534.0
2022-02-09-17:05:22.494148,4.0,6.0,534.0
2022-02-09-17:05:22.495144,4.0,6.0,534.0
2022-02-09-17:05:22.496112,4.0,6.0,534.0
2022-02-09-17:05:22.497139,1.0,0.0,535.0
2022-02-09-17:05:22.499135,1.0,0.0,535.0
2022-02-09-17:05:22.499135,1.0,0.0,535.0
2022-02-09-17:05:22.500131,6.0,4.0,534.0
2022-02-09-17:05:22.501128,6.0,4.0,534.0
2022-02-09-17:05:22.502126,6.0,4.0,534.0
2022-02-09-17:05:22.503123,6.0,4.0,534.0
2022-02-09-17:05:22.504123,6.0,4.0,534.0
2022-02-09-17:05:22.505117,6.0,9.0,534.0
2022-02-09-17:05:22.506084,3.0,11.0,535.0
2022-02-09-17:05:22.507081,3.0,11.0,535.0
2022-02-09-17:05:22.508110,3.0,11.0,535.0
2022-02-09-17:05:22.509112,3.0,8.0,535.0
2022-02-09-17:05:22.510105,5.0,7.0,535.0
2022-02-09-17:05:22.511102,5.0,7.0,535.0
2022-02-09-17:05:22.512102,5.0,7.0,535.0
2022-02-09-17:05:22.513099,2.0,7.0,535.0
2022-02-09-17:05:22.514096,5.0,1.0,535.0
2022-02-09-17:05:22.515093,5.0,1.0,535.0
2022-02-09-17:05:22.516090,5.0,1.0,535.0
2022-02-09-17:05:22.517086,6.0,8.0,535.0
2022-02-09-17:05:22.518084,5.0,4.0,535.0
2022-02-09-17:05:22.519081,5.0,4.0,535.0
2022-02-09-17:05:22.520046,5.0,4.0,535.0
2022-02-09-17:05:22.521044,5.0,13.0,535.0
2022-02-09-17:05:22.522041,5.0,13.0,535.0
2022-02-09-17:05:22.523038,5.0,13.0,535.0
2022-02-09-17:05:22.524035,5.0,13.0,535.0
2022-02-09-17:05:22.525033,4.0,12.0,534.0
2022-02-09-17:05:22.526030,3.0,10.0,534.0
2022-02-09-17:05:22.527028,3.0,10.0,534.0
2022-02-09-17:05:22.528024,3.0,10.0,534.0
2022-02-09-17:05:22.529022,7.0,7.0,535.0
2022-02-09-17:05:22.530018,5.0,0.0,534.0
2022-02-09-17:05:22.531017,5.0,0.0,534.0
2022-02-09-17:05:22.533012,5.0,0.0,534.0
2022-02-09-17:05:22.533012,4.0,7.0,535.0
2022-02-09-17:05:22.534009,8.0,9.0,535.0
2022-02-09-17:05:22.535006,8.0,9.0,535.0
2022-02-09-17:05:22.536004,8.0,9.0,535.0
2022-02-09-17:05:22.537001,8.0,9.0,535.0
2022-02-09-17:05:22.537998,2.0,12.0,535.0
2022-02-09-17:05:22.538996,2.0,12.0,535.0
2022-02-09-17:05:22.539993,2.0,12.0,535.0
2022-02-09-17:05:22.540990,2.0,12.0,535.0
2022-02-09-17:05:22.541988,6.0,10.0,535.0
2022-02-09-17:05:22.542985,6.0,10.0,535.0
2022-02-09-17:05:22.543983,6.0,10.0,535.0
2022-02-09-17:05:22.544980,6.0,10.0,535.0
2022-02-09-17:05:22.545991,1.0,8.0,535.0
2022-02-09-17:05:22.546975,3.0,4.0,534.0
2022-02-09-17:05:22.547972,3.0,4.0,534.0
2022-02-09-17:05:22.548969,3.0,4.0,534.0
2022-02-09-17:05:22.549966,7.0,9.0,534.0
2022-02-09-17:05:22.550964,6.0,10.0,535.0
2022-02-09-17:05:22.551961,6.0,10.0,535.0
2022-02-09-17:05:22.552958,6.0,10.0,535.0
2022-02-09-17:05:22.553956,4.0,0.0,534.0
2022-02-09-17:05:22.554953,5.0,10.0,535.0
2022-02-09-17:05:22.555950,5.0,10.0,535.0
2022-02-09-17:05:22.556948,5.0,10.0,535.0
2022-02-09-17:05:22.557945,4.0,11.0,534.0
2022-02-09-17:05:22.558942,5.0,11.0,535.0
2022-02-09-17:05:22.559940,5.0,11.0,535.0
2022-02-09-17:05:22.560937,5.0,11.0,535.0
2022-02-09-17:05:22.561934,5.0,10.0,535.0
2022-02-09-17:05:22.562932,4.0,7.0,534.0
2022-02-09-17:05:22.563929,4.0,7.0,534.0
2022-02-09-17:05:22.564926,4.0,7.0,534.0
2022-02-09-17:05:22.566921,6.0,6.0,534.0
2022-02-09-17:05:22.566921,6.0,8.0,535.0
2022-02-09-17:05:22.567941,6.0,8.0,535.0
2022-02-09-17:05:22.568946,6.0,8.0,535.0
2022-02-09-17:05:22.569945,6.0,6.0,534.0
2022-02-09-17:05:22.570944,3.0,9.0,535.0
2022-02-09-17:05:22.571940,3.0,9.0,535.0
2022-02-09-17:05:22.572937,3.0,9.0,535.0
2022-02-09-17:05:22.573940,5.0,9.0,535.0
2022-02-09-17:05:22.574931,7.0,10.0,535.0
2022-02-09-17:05:22.575931,7.0,10.0,535.0
2022-02-09-17:05:22.576926,7.0,10.0,535.0
2022-02-09-17:05:22.577923,7.0,10.0,535.0
2022-02-09-17:05:22.578927,3.0,10.0,535.0
2022-02-09-17:05:22.579918,3.0,8.0,535.0
2022-02-09-17:05:22.580915,3.0,8.0,535.0
2022-02-09-17:05:22.581914,3.0,8.0,535.0
2022-02-09-17:05:22.582910,3.0,0.0,535.0
2022-02-09-17:05:22.583910,8.0,10.0,534.0
2022-02-09-17:05:22.584905,8.0,10.0,534.0
2022-02-09-17:05:22.585903,8.0,10.0,534.0
2022-02-09-17:05:22.586901,3.0,4.0,535.0
2022-02-09-17:05:22.587897,2.0,7.0,534.0
2022-02-09-17:05:22.588894,2.0,7.0,534.0
2022-02-09-17:05:22.589892,2.0,7.0,534.0
2022-02-09-17:05:22.590889,8.0,9.0,534.0
2022-02-09-17:05:22.591888,7.0,8.0,535.0
2022-02-09-17:05:22.592883,7.0,8.0,535.0
2022-02-09-17:05:22.593881,7.0,8.0,535.0
2022-02-09-17:05:22.594880,3.0,13.0,535.0
2022-02-09-17:05:22.595843,5.0,10.0,534.0
2022-02-09-17:05:22.596840,5.0,10.0,534.0
2022-02-09-17:05:22.597838,5.0,10.0,534.0
2022-02-09-17:05:22.598867,3.0,3.0,534.0
2022-02-09-17:05:22.599867,5.0,9.0,534.0
2022-02-09-17:05:22.600863,5.0,9.0,534.0
2022-02-09-17:05:22.602858,5.0,9.0,534.0
2022-02-09-17:05:22.602858,5.0,6.0,535.0
2022-02-09-17:05:22.603854,3.0,7.0,534.0
2022-02-09-17:05:22.604852,3.0,7.0,534.0
2022-02-09-17:05:22.605822,3.0,7.0,534.0
2022-02-09-17:05:22.606848,7.0,11.0,535.0
2022-02-09-17:05:22.607845,7.0,13.0,534.0
2022-02-09-17:05:22.608841,7.0,13.0,534.0
2022-02-09-17:05:22.609838,7.0,13.0,534.0
2022-02-09-17:05:22.610842,7.0,13.0,534.0
2022-02-09-17:05:22.611833,4.0,7.0,534.0
2022-02-09-17:05:22.612798,4.0,7.0,534.0
2022-02-09-17:05:22.613799,4.0,7.0,534.0
2022-02-09-17:05:22.614825,4.0,7.0,534.0
2022-02-09-17:05:22.615825,6.0,7.0,534.0
2022-02-09-17:05:22.616819,6.0,4.0,534.0
2022-02-09-17:05:22.617816,6.0,4.0,534.0
2022-02-09-17:05:22.618815,5.0,0.0,534.0
2022-02-09-17:05:22.619811,5.0,2.0,534.0
2022-02-09-17:05:22.620808,5.0,2.0,534.0
2022-02-09-17:05:22.621807,5.0,2.0,534.0
2022-02-09-17:05:22.622803,5.0,2.0,534.0
2022-02-09-17:05:22.623803,6.0,11.0,534.0
2022-02-09-17:05:22.624804,6.0,11.0,534.0
2022-02-09-17:05:22.625796,6.0,11.0,534.0
2022-02-09-17:05:22.626794,6.0,11.0,534.0
2022-02-09-17:05:22.627790,7.0,11.0,534.0
2022-02-09-17:05:22.628787,4.0,13.0,534.0
2022-02-09-17:05:22.629752,4.0,13.0,534.0
2022-02-09-17:05:22.630749,4.0,13.0,534.0
2022-02-09-17:05:22.631746,3.0,3.0,534.0
2022-02-09-17:05:22.632744,5.0,8.0,534.0
2022-02-09-17:05:22.633776,5.0,8.0,534.0
2022-02-09-17:05:22.635770,5.0,8.0,534.0
2022-02-09-17:05:22.635770,5.0,1.0,534.0
2022-02-09-17:05:22.636773,5.0,1.0,534.0
2022-02-09-17:05:22.637766,5.0,1.0,534.0
2022-02-09-17:05:22.638729,5.0,1.0,534.0
2022-02-09-17:05:22.639760,3.0,10.0,534.0
2022-02-09-17:05:22.640757,5.0,10.0,534.0
2022-02-09-17:05:22.641754,5.0,10.0,534.0
2022-02-09-17:05:22.642718,5.0,10.0,534.0
2022-02-09-17:05:22.643749,7.0,7.0,534.0
2022-02-09-17:05:22.644748,3.0,11.0,534.0
2022-02-09-17:05:22.645744,3.0,11.0,534.0
2022-02-09-17:05:22.646742,3.0,11.0,534.0
2022-02-09-17:05:22.647739,3.0,2.0,534.0
2022-02-09-17:05:22.648736,6.0,8.0,534.0
2022-02-09-17:05:22.649736,6.0,8.0,534.0
2022-02-09-17:05:22.650731,6.0,8.0,534.0
2022-02-09-17:05:22.651728,5.0,5.0,534.0
2022-02-09-17:05:22.652727,4.0,2.0,534.0
2022-02-09-17:05:22.653723,4.0,2.0,534.0
2022-02-09-17:05:22.654719,4.0,2.0,534.0
2022-02-09-17:05:22.655717,4.0,2.0,534.0
2022-02-09-17:05:22.656714,3.0,10.0,534.0
2022-02-09-17:05:22.657711,3.0,8.0,534.0
2022-02-09-17:05:22.658710,3.0,8.0,534.0
2022-02-09-17:05:22.659706,3.0,8.0,534.0
2022-02-09-17:05:22.660706,7.0,4.0,533.0
2022-02-09-17:05:22.661673,3.0,10.0,533.0
2022-02-09-17:05:22.662664,3.0,10.0,533.0
2022-02-09-17:05:22.663662,3.0,10.0,533.0
2022-02-09-17:05:22.664692,5.0,0.0,533.0
2022-02-09-17:05:22.665689,5.0,12.0,534.0
2022-02-09-17:05:22.666687,5.0,12.0,534.0
2022-02-09-17:05:22.667685,5.0,12.0,534.0
2022-02-09-17:05:22.668681,7.0,2.0,533.0
2022-02-09-17:05:22.670677,7.0,2.0,533.0
2022-02-09-17:05:22.670677,7.0,2.0,533.0
2022-02-09-17:05:22.671675,7.0,2.0,533.0
2022-02-09-17:05:22.672670,7.0,13.0,532.0
2022-02-09-17:05:22.673667,7.0,13.0,532.0
2022-02-09-17:05:22.674666,7.0,13.0,532.0
2022-02-09-17:05:22.675630,7.0,13.0,532.0
2022-02-09-17:05:22.676659,3.0,5.0,532.0
2022-02-09-17:05:22.677658,4.0,8.0,532.0
2022-02-09-17:05:22.678654,4.0,8.0,532.0
2022-02-09-17:05:22.679620,4.0,8.0,532.0
2022-02-09-17:05:22.680649,4.0,4.0,531.0
2022-02-09-17:05:22.681646,6.0,8.0,530.0
2022-02-09-17:05:22.682645,6.0,8.0,530.0
2022-02-09-17:05:22.683641,6.0,8.0,530.0
2022-02-09-17:05:22.684645,6.0,4.0,530.0
2022-02-09-17:05:22.685641,6.0,4.0,530.0
2022-02-09-17:05:22.686633,6.0,4.0,530.0
2022-02-09-17:05:22.687632,6.0,4.0,530.0
2022-02-09-17:05:22.688629,2.0,12.0,530.0
2022-02-09-17:05:22.689625,4.0,8.0,529.0
2022-02-09-17:05:22.690624,4.0,8.0,529.0
2022-02-09-17:05:22.691619,4.0,8.0,529.0
2022-02-09-17:05:22.692620,4.0,8.0,529.0
2022-02-09-17:05:22.693615,6.0,8.0,528.0
2022-02-09-17:05:22.694612,6.0,8.0,528.0
2022-02-09-17:05:22.695610,6.0,8.0,528.0
2022-02-09-17:05:22.696608,6.0,8.0,528.0
2022-02-09-17:05:22.697605,6.0,7.0,527.0
2022-02-09-17:05:22.698603,4.0,4.0,528.0
2022-02-09-17:05:22.699599,4.0,4.0,528.0
2022-02-09-17:05:22.700599,4.0,4.0,528.0
2022-02-09-17:05:22.701595,2.0,5.0,526.0
2022-02-09-17:05:22.702613,5.0,0.0,527.0
2022-02-09-17:05:22.704610,5.0,0.0,527.0
2022-02-09-17:05:22.704610,5.0,10.0,526.0
2022-02-09-17:05:22.705584,4.0,12.0,526.0
2022-02-09-17:05:22.706582,4.0,12.0,526.0
2022-02-09-17:05:22.707579,4.0,12.0,526.0
2022-02-09-17:05:22.708542,4.0,12.0,526.0
2022-02-09-17:05:22.709595,3.0,12.0,525.0
2022-02-09-17:05:22.710571,1.0,10.0,524.0
2022-02-09-17:05:22.711568,1.0,10.0,524.0
2022-02-09-17:05:22.712531,1.0,10.0,524.0
2022-02-09-17:05:22.713562,6.0,5.0,524.0
2022-02-09-17:05:22.714561,6.0,7.0,523.0
2022-02-09-17:05:22.715557,6.0,7.0,523.0
2022-02-09-17:05:22.716521,6.0,7.0,523.0
2022-02-09-17:05:22.717552,8.0,4.0,523.0
2022-02-09-17:05:22.718548,7.0,2.0,522.0
2022-02-09-17:05:22.719546,7.0,2.0,522.0
2022-02-09-17:05:22.720509,7.0,2.0,522.0
2022-02-09-17:05:22.721540,5.0,12.0,522.0
2022-02-09-17:05:22.722539,5.0,12.0,522.0
2022-02-09-17:05:22.723536,5.0,12.0,522.0
2022-02-09-17:05:22.724535,5.0,12.0,522.0
2022-02-09-17:05:22.725531,5.0,12.0,522.0
2022-02-09-17:05:22.726528,4.0,9.0,521.0
2022-02-09-17:05:22.727525,4.0,9.0,521.0
2022-02-09-17:05:22.728522,4.0,9.0,521.0
2022-02-09-17:05:22.729486,4.0,9.0,521.0
2022-02-09-17:05:22.730483,3.0,9.0,521.0
2022-02-09-17:05:22.731514,6.0,4.0,520.0
2022-02-09-17:05:22.732514,6.0,4.0,520.0
2022-02-09-17:05:22.733509,6.0,4.0,520.0
2022-02-09-17:05:22.734513,7.0,9.0,519.0
2022-02-09-17:05:22.735504,5.0,5.0,519.0
2022-02-09-17:05:22.737506,5.0,5.0,519.0
2022-02-09-17:05:22.737506,5.0,5.0,519.0
2022-02-09-17:05:22.738517,5.0,13.0,519.0
2022-02-09-17:05:22.739493,5.0,10.0,518.0
2022-02-09-17:05:22.740493,5.0,10.0,518.0
2022-02-09-17:05:22.741488,5.0,10.0,518.0
2022-02-09-17:05:22.742484,5.0,13.0,518.0
2022-02-09-17:05:22.743482,5.0,6.0,517.0
2022-02-09-17:05:22.744480,5.0,6.0,517.0
2022-02-09-17:05:22.745476,5.0,6.0,517.0
2022-02-09-17:05:22.746480,3.0,9.0,517.0
2022-02-09-17:05:22.747472,7.0,1.0,517.0
2022-02-09-17:05:22.748476,7.0,1.0,517.0
2022-02-09-17:05:22.749433,7.0,1.0,517.0
2022-02-09-17:05:22.750464,6.0,11.0,517.0
2022-02-09-17:05:22.751461,2.0,6.0,517.0
2022-02-09-17:05:22.752458,2.0,6.0,517.0
2022-02-09-17:05:22.753422,2.0,6.0,517.0
2022-02-09-17:05:22.754476,3.0,11.0,517.0
2022-02-09-17:05:22.755418,8.0,12.0,517.0
2022-02-09-17:05:22.756446,8.0,12.0,517.0
2022-02-09-17:05:22.757410,8.0,12.0,517.0
2022-02-09-17:05:22.758441,5.0,11.0,516.0
2022-02-09-17:05:22.759440,5.0,11.0,516.0
2022-02-09-17:05:22.760436,5.0,11.0,516.0
2022-02-09-17:05:22.761442,5.0,11.0,516.0
2022-02-09-17:05:22.762436,5.0,1.0,515.0
2022-02-09-17:05:22.763429,5.0,1.0,515.0
2022-02-09-17:05:22.764425,5.0,1.0,515.0
2022-02-09-17:05:22.765423,5.0,1.0,515.0
2022-02-09-17:05:22.766419,5.0,1.0,515.0
2022-02-09-17:05:22.767418,8.0,6.0,515.0
2022-02-09-17:05:22.768414,8.0,6.0,515.0
2022-02-09-17:05:22.769412,8.0,6.0,515.0
2022-02-09-17:05:22.770410,8.0,6.0,515.0
2022-02-09-17:05:22.771406,5.0,3.0,515.0
2022-02-09-17:05:22.773402,5.0,10.0,515.0
2022-02-09-17:05:22.773402,5.0,10.0,515.0
2022-02-09-17:05:22.774398,5.0,10.0,515.0
2022-02-09-17:05:22.775398,5.0,10.0,515.0
2022-02-09-17:05:22.776392,5.0,10.0,515.0
2022-02-09-17:05:22.777390,5.0,10.0,515.0
2022-02-09-17:05:22.778389,5.0,10.0,515.0
2022-02-09-17:05:22.779353,2.0,1.0,515.0
2022-02-09-17:05:22.780383,2.0,1.0,515.0
2022-02-09-17:05:22.781381,2.0,1.0,515.0
2022-02-09-17:05:22.782377,2.0,1.0,515.0
2022-02-09-17:05:22.783376,6.0,10.0,515.0
2022-02-09-17:05:22.784371,5.0,7.0,515.0
2022-02-09-17:05:22.785369,5.0,7.0,515.0
2022-02-09-17:05:22.786334,5.0,7.0,515.0
2022-02-09-17:05:22.787364,4.0,13.0,514.0
2022-02-09-17:05:22.788360,3.0,13.0,515.0
2022-02-09-17:05:22.789359,3.0,13.0,515.0
2022-02-09-17:05:22.790323,3.0,13.0,515.0
2022-02-09-17:05:22.791356,8.0,10.0,515.0
2022-02-09-17:05:22.792351,8.0,10.0,515.0
2022-02-09-17:05:22.793347,8.0,10.0,515.0
2022-02-09-17:05:22.794313,8.0,10.0,515.0
2022-02-09-17:05:22.795342,0.0,6.0,515.0
2022-02-09-17:05:22.796311,0.0,6.0,515.0
2022-02-09-17:05:22.797338,0.0,6.0,515.0
2022-02-09-17:05:22.798335,0.0,6.0,515.0
2022-02-09-17:05:22.799335,6.0,4.0,514.0
2022-02-09-17:05:22.800328,3.0,7.0,514.0
2022-02-09-17:05:22.801326,3.0,7.0,514.0
2022-02-09-17:05:22.802291,3.0,7.0,514.0
2022-02-09-17:05:22.803322,3.0,7.0,514.0
2022-02-09-17:05:22.804319,1.0,9.0,515.0
2022-02-09-17:05:22.805316,1.0,9.0,515.0
2022-02-09-17:05:22.807312,1.0,9.0,515.0
2022-02-09-17:05:22.807312,6.0,13.0,514.0
2022-02-09-17:05:22.808307,2.0,14.0,515.0
2022-02-09-17:05:22.809309,2.0,14.0,515.0
2022-02-09-17:05:22.810304,2.0,14.0,515.0
2022-02-09-17:05:22.811300,2.0,14.0,515.0
2022-02-09-17:05:22.812296,2.0,6.0,515.0
2022-02-09-17:05:22.813295,2.0,6.0,515.0
2022-02-09-17:05:22.814291,2.0,6.0,515.0
2022-02-09-17:05:22.815291,2.0,6.0,515.0
2022-02-09-17:05:22.816287,7.0,7.0,515.0
2022-02-09-17:05:22.817283,7.0,7.0,515.0
2022-02-09-17:05:22.818282,7.0,7.0,515.0
2022-02-09-17:05:22.819278,7.0,7.0,515.0
2022-02-09-17:05:22.820276,5.0,10.0,514.0
2022-02-09-17:05:22.821274,5.0,10.0,514.0
2022-02-09-17:05:22.822270,5.0,10.0,514.0
2022-02-09-17:05:22.823269,5.0,10.0,514.0
2022-02-09-17:05:22.824265,1.0,13.0,515.0
2022-02-09-17:05:22.825262,7.0,15.0,515.0
2022-02-09-17:05:22.826261,7.0,15.0,515.0
2022-02-09-17:05:22.827226,7.0,15.0,515.0
2022-02-09-17:05:22.828254,4.0,8.0,515.0
2022-02-09-17:05:22.829253,1.0,10.0,514.0
2022-02-09-17:05:22.830250,1.0,10.0,514.0
2022-02-09-17:05:22.831214,1.0,10.0,514.0
2022-02-09-17:05:22.832244,3.0,5.0,515.0
2022-02-09-17:05:22.833208,3.0,5.0,515.0
2022-02-09-17:05:22.834206,6.0,6.0,515.0
2022-02-09-17:05:22.835202,6.0,6.0,515.0
2022-02-09-17:05:22.836239,6.0,3.0,515.0
2022-02-09-17:05:22.837198,6.0,5.0,515.0
2022-02-09-17:05:22.838195,6.0,5.0,515.0
2022-02-09-17:05:22.839193,6.0,5.0,515.0
2022-02-09-17:05:22.840523,6.0,5.0,515.0
2022-02-09-17:05:22.841563,3.0,11.0,515.0
2022-02-09-17:05:22.841563,3.0,11.0,515.0
2022-02-09-17:05:22.842568,3.0,11.0,515.0
2022-02-09-17:05:22.842568,3.0,11.0,515.0
2022-02-09-17:05:22.843601,3.0,11.0,515.0
2022-02-09-17:05:22.844601,5.0,7.0,514.0
2022-02-09-17:05:22.845792,7.0,7.0,515.0
2022-02-09-17:05:22.845996,7.0,7.0,515.0
2022-02-09-17:05:22.845996,7.0,7.0,515.0
2022-02-09-17:05:22.847054,7.0,7.0,515.0
2022-02-09-17:05:22.848026,7.0,7.0,515.0
2022-02-09-17:05:22.849024,3.0,0.0,515.0
2022-02-09-17:05:22.850022,5.0,5.0,515.0
2022-02-09-17:05:22.851021,5.0,5.0,515.0
2022-02-09-17:05:22.852016,5.0,5.0,515.0
2022-02-09-17:05:22.853013,3.0,6.0,515.0
2022-02-09-17:05:22.854010,3.0,6.0,515.0
2022-02-09-17:05:22.855010,3.0,6.0,515.0
2022-02-09-17:05:22.856006,3.0,6.0,515.0
2022-02-09-17:05:22.857003,2.0,11.0,515.0
2022-02-09-17:05:22.858001,2.0,11.0,515.0
2022-02-09-17:05:22.858997,2.0,11.0,515.0
2022-02-09-17:05:22.859961,2.0,11.0,515.0
2022-02-09-17:05:22.860993,5.0,10.0,514.0
2022-02-09-17:05:22.861990,5.0,10.0,514.0
2022-02-09-17:05:22.862953,5.0,10.0,514.0
2022-02-09-17:05:22.863951,5.0,10.0,514.0
2022-02-09-17:05:22.864982,0.0,3.0,515.0
2022-02-09-17:05:22.865979,8.0,5.0,514.0
2022-02-09-17:05:22.866977,8.0,5.0,514.0
2022-02-09-17:05:22.867987,8.0,5.0,514.0
2022-02-09-17:05:22.868971,6.0,4.0,514.0
2022-02-09-17:05:22.869968,4.0,6.0,514.0
2022-02-09-17:05:22.870967,4.0,6.0,514.0
2022-02-09-17:05:22.871963,4.0,6.0,514.0
2022-02-09-17:05:22.872960,3.0,9.0,514.0
2022-02-09-17:05:22.873958,7.0,9.0,514.0
2022-02-09-17:05:22.875920,7.0,9.0,514.0
2022-02-09-17:05:22.875920,7.0,9.0,514.0
2022-02-09-17:05:22.876950,4.0,12.0,514.0
2022-02-09-17:05:22.877946,4.0,12.0,514.0
2022-02-09-17:05:22.878946,4.0,12.0,514.0
2022-02-09-17:05:22.879942,4.0,12.0,514.0
2022-02-09-17:05:22.880963,4.0,12.0,514.0
2022-02-09-17:05:22.881936,3.0,7.0,515.0
2022-02-09-17:05:22.882933,3.0,5.0,515.0
2022-02-09-17:05:22.883930,3.0,5.0,515.0
2022-02-09-17:05:22.884929,3.0,5.0,515.0
2022-02-09-17:05:22.885925,4.0,3.0,515.0
2022-02-09-17:05:22.886925,2.0,10.0,515.0
2022-02-09-17:05:22.887920,2.0,10.0,515.0
2022-02-09-17:05:22.888918,2.0,10.0,515.0
2022-02-09-17:05:22.889918,6.0,10.0,515.0
2022-02-09-17:05:22.890912,3.0,8.0,515.0
2022-02-09-17:05:22.891913,3.0,8.0,515.0
2022-02-09-17:05:22.892907,3.0,8.0,515.0
2022-02-09-17:05:22.893905,4.0,7.0,515.0
2022-02-09-17:05:22.894903,5.0,9.0,515.0
2022-02-09-17:05:22.895921,5.0,9.0,515.0
2022-02-09-17:05:22.896863,5.0,9.0,515.0
2022-02-09-17:05:22.897894,6.0,4.0,515.0
2022-02-09-17:05:22.898890,4.0,11.0,515.0
2022-02-09-17:05:22.899888,4.0,11.0,515.0
2022-02-09-17:05:22.900854,4.0,11.0,515.0
2022-02-09-17:05:22.901882,6.0,0.0,515.0
2022-02-09-17:05:22.902882,5.0,6.0,514.0
2022-02-09-17:05:22.903878,5.0,6.0,514.0
2022-02-09-17:05:22.904874,5.0,6.0,514.0
2022-02-09-17:05:22.905873,3.0,13.0,515.0
2022-02-09-17:05:22.906869,5.0,10.0,514.0
2022-02-09-17:05:22.907866,5.0,10.0,514.0
2022-02-09-17:05:22.909829,5.0,10.0,514.0
2022-02-09-17:05:22.909829,3.0,14.0,514.0
2022-02-09-17:05:22.910857,3.0,14.0,514.0
2022-02-09-17:05:22.911855,3.0,14.0,514.0
2022-02-09-17:05:22.912842,3.0,14.0,514.0
2022-02-09-17:05:22.913817,3.0,14.0,514.0
2022-02-09-17:05:22.914848,2.0,6.0,515.0
2022-02-09-17:05:22.915846,7.0,4.0,515.0
2022-02-09-17:05:22.916843,7.0,4.0,515.0
2022-02-09-17:05:22.917841,7.0,4.0,515.0
2022-02-09-17:05:22.918842,7.0,1.0,514.0
2022-02-09-17:05:22.919835,1.0,4.0,515.0
2022-02-09-17:05:22.920832,1.0,4.0,515.0
2022-02-09-17:05:22.921831,1.0,4.0,515.0
2022-02-09-17:05:22.922827,4.0,8.0,515.0
2022-02-09-17:05:22.923824,3.0,11.0,515.0
2022-02-09-17:05:22.924822,3.0,11.0,515.0
2022-02-09-17:05:22.925819,3.0,11.0,515.0
2022-02-09-17:05:22.926790,4.0,7.0,515.0
2022-02-09-17:05:22.927780,4.0,7.0,515.0
2022-02-09-17:05:22.928777,4.0,7.0,515.0
2022-02-09-17:05:22.929782,4.0,7.0,515.0
2022-02-09-17:05:22.930805,6.0,10.0,514.0
2022-02-09-17:05:22.931803,3.0,8.0,515.0
2022-02-09-17:05:22.932801,3.0,8.0,515.0
2022-02-09-17:05:22.933797,3.0,8.0,515.0
2022-02-09-17:05:22.934797,7.0,5.0,514.0
2022-02-09-17:05:22.935792,2.0,1.0,515.0
2022-02-09-17:05:22.936790,2.0,1.0,515.0
2022-02-09-17:05:22.937753,2.0,1.0,515.0
2022-02-09-17:05:22.938787,0.0,10.0,515.0
2022-02-09-17:05:22.939784,5.0,8.0,515.0
2022-02-09-17:05:22.940780,5.0,8.0,515.0
2022-02-09-17:05:22.942741,5.0,8.0,515.0
2022-02-09-17:05:22.943739,3.0,11.0,514.0
2022-02-09-17:05:22.943739,3.0,11.0,514.0
2022-02-09-17:05:22.944768,3.0,11.0,514.0
2022-02-09-17:05:22.945765,3.0,11.0,514.0
2022-02-09-17:05:22.946763,5.0,6.0,515.0
2022-02-09-17:05:22.947760,2.0,7.0,515.0
2022-02-09-17:05:22.948758,2.0,7.0,515.0
2022-02-09-17:05:22.949755,2.0,7.0,515.0
2022-02-09-17:05:22.950754,2.0,7.0,515.0
2022-02-09-17:05:22.951750,6.0,3.0,515.0
2022-02-09-17:05:22.952750,6.0,3.0,515.0
2022-02-09-17:05:22.953745,6.0,3.0,515.0
2022-02-09-17:05:22.954741,6.0,3.0,515.0
2022-02-09-17:05:22.955738,4.0,9.0,514.0
2022-02-09-17:05:22.956737,4.0,7.0,515.0
2022-02-09-17:05:22.957737,4.0,7.0,515.0
2022-02-09-17:05:22.958733,4.0,7.0,515.0
2022-02-09-17:05:22.959728,9.0,11.0,514.0
2022-02-09-17:05:22.960725,3.0,10.0,515.0
2022-02-09-17:05:22.961724,3.0,10.0,515.0
2022-02-09-17:05:22.962729,3.0,10.0,515.0
2022-02-09-17:05:22.963719,6.0,7.0,515.0
2022-02-09-17:05:22.964715,9.0,9.0,515.0
2022-02-09-17:05:22.965712,9.0,9.0,515.0
2022-02-09-17:05:22.966712,9.0,9.0,515.0
2022-02-09-17:05:22.967708,4.0,4.0,515.0
2022-02-09-17:05:22.968711,9.0,1.0,515.0
2022-02-09-17:05:22.969702,9.0,1.0,515.0
2022-02-09-17:05:22.970699,9.0,1.0,515.0
2022-02-09-17:05:22.971696,7.0,11.0,515.0
2022-02-09-17:05:22.972694,6.0,10.0,515.0
2022-02-09-17:05:22.973690,6.0,10.0,515.0
2022-02-09-17:05:22.974655,6.0,10.0,515.0
2022-02-09-17:05:22.975653,1.0,12.0,515.0
2022-02-09-17:05:22.976656,1.0,12.0,515.0
2022-02-09-17:05:22.977681,1.0,12.0,515.0
2022-02-09-17:05:22.979641,1.0,12.0,515.0
2022-02-09-17:05:22.979641,3.0,11.0,515.0
2022-02-09-17:05:22.980653,3.0,4.0,515.0
2022-02-09-17:05:22.981636,4.0,0.0,514.0
2022-02-09-17:05:22.982669,4.0,0.0,514.0
2022-02-09-17:05:22.983631,4.0,0.0,514.0
2022-02-09-17:05:22.984662,6.0,4.0,514.0
2022-02-09-17:05:22.985660,6.0,4.0,514.0
2022-02-09-17:05:22.986656,6.0,4.0,514.0
2022-02-09-17:05:22.987654,7.0,2.0,515.0
2022-02-09-17:05:22.988657,5.0,10.0,515.0
2022-02-09-17:05:22.989649,5.0,10.0,515.0
2022-02-09-17:05:22.990613,5.0,10.0,515.0
2022-02-09-17:05:22.991644,5.0,10.0,515.0
2022-02-09-17:05:22.992641,4.0,6.0,515.0
2022-02-09-17:05:22.993639,4.0,6.0,515.0
2022-02-09-17:05:22.994635,4.0,6.0,515.0
2022-02-09-17:05:22.995632,4.0,6.0,515.0
2022-02-09-17:05:22.996630,4.0,9.0,514.0
2022-02-09-17:05:22.997626,5.0,0.0,514.0
2022-02-09-17:05:22.998591,5.0,0.0,514.0
2022-02-09-17:05:22.999588,5.0,0.0,514.0
2022-02-09-17:05:23.000619,5.0,8.0,514.0
2022-02-09-17:05:23.001617,5.0,7.0,514.0
2022-02-09-17:05:23.002614,5.0,7.0,514.0
2022-02-09-17:05:23.003610,5.0,7.0,514.0
2022-02-09-17:05:23.004609,7.0,6.0,515.0
2022-02-09-17:05:23.005572,2.0,9.0,515.0
2022-02-09-17:05:23.006605,2.0,9.0,515.0
2022-02-09-17:05:23.007601,2.0,9.0,515.0
2022-02-09-17:05:23.008597,0.0,11.0,514.0
2022-02-09-17:05:23.009595,5.0,10.0,515.0
2022-02-09-17:05:23.011557,5.0,10.0,515.0
2022-02-09-17:05:23.011557,5.0,10.0,515.0
2022-02-09-17:05:23.012553,4.0,2.0,514.0
2022-02-09-17:05:23.013551,4.0,2.0,514.0
2022-02-09-17:05:23.014585,4.0,2.0,514.0
2022-02-09-17:05:23.015546,4.0,2.0,514.0
2022-02-09-17:05:23.016577,4.0,3.0,515.0
2022-02-09-17:05:23.017575,5.0,9.0,514.0
2022-02-09-17:05:23.018571,5.0,9.0,514.0
2022-02-09-17:05:23.019569,5.0,9.0,514.0
2022-02-09-17:05:23.020566,4.0,5.0,515.0
2022-02-09-17:05:23.021530,7.0,9.0,515.0
2022-02-09-17:05:23.022562,7.0,9.0,515.0
2022-02-09-17:05:23.023558,7.0,9.0,515.0
2022-02-09-17:05:23.024555,7.0,9.0,515.0
2022-02-09-17:05:23.025554,4.0,9.0,515.0
2022-02-09-17:05:23.026573,4.0,9.0,515.0
2022-02-09-17:05:23.027573,4.0,9.0,515.0
2022-02-09-17:05:23.028567,4.0,9.0,515.0
2022-02-09-17:05:23.029507,2.0,6.0,514.0
2022-02-09-17:05:23.030505,2.0,6.0,514.0
2022-02-09-17:05:23.031524,2.0,6.0,514.0
2022-02-09-17:05:23.032533,2.0,6.0,514.0
2022-02-09-17:05:23.033531,5.0,8.0,515.0
2022-02-09-17:05:23.034528,6.0,9.0,515.0
2022-02-09-17:05:23.035525,6.0,9.0,515.0
2022-02-09-17:05:23.036523,6.0,9.0,515.0
2022-02-09-17:05:23.037520,5.0,4.0,514.0
2022-02-09-17:05:23.038519,3.0,11.0,514.0
2022-02-09-17:05:23.039515,3.0,11.0,514.0
2022-02-09-17:05:23.040512,3.0,11.0,514.0
2022-02-09-17:05:23.041510,6.0,8.0,515.0
2022-02-09-17:05:23.042507,3.0,8.0,514.0
2022-02-09-17:05:23.043505,3.0,8.0,514.0
2022-02-09-17:05:23.045466,3.0,8.0,514.0
2022-02-09-17:05:23.045466,3.0,7.0,514.0
2022-02-09-17:05:23.046469,0.0,4.0,515.0
2022-02-09-17:05:23.047494,0.0,4.0,515.0
2022-02-09-17:05:23.048492,0.0,4.0,515.0
2022-02-09-17:05:23.049490,8.0,7.0,515.0
2022-02-09-17:05:23.050487,8.0,7.0,515.0
2022-02-09-17:05:23.051483,8.0,7.0,515.0
2022-02-09-17:05:23.052447,8.0,7.0,515.0
2022-02-09-17:05:23.053477,5.0,1.0,514.0
2022-02-09-17:05:23.054477,3.0,8.0,515.0
2022-02-09-17:05:23.055472,3.0,8.0,515.0
2022-02-09-17:05:23.056441,3.0,8.0,515.0
2022-02-09-17:05:23.057469,5.0,7.0,515.0
2022-02-09-17:05:23.058465,3.0,8.0,515.0
2022-02-09-17:05:23.059461,3.0,8.0,515.0
2022-02-09-17:05:23.060459,3.0,8.0,515.0
2022-02-09-17:05:23.061456,3.0,8.0,515.0
2022-02-09-17:05:23.062456,4.0,8.0,514.0
2022-02-09-17:05:23.063418,4.0,8.0,514.0
2022-02-09-17:05:23.064415,4.0,8.0,514.0
2022-02-09-17:05:23.065446,4.0,8.0,514.0
2022-02-09-17:05:23.066442,3.0,6.0,514.0
2022-02-09-17:05:23.067440,3.0,6.0,514.0
2022-02-09-17:05:23.068405,3.0,6.0,514.0
2022-02-09-17:05:23.069441,3.0,6.0,514.0
2022-02-09-17:05:23.070400,7.0,1.0,515.0
2022-02-09-17:05:23.071397,4.0,9.0,515.0
2022-02-09-17:05:23.072395,4.0,9.0,515.0
2022-02-09-17:05:23.073426,4.0,9.0,515.0
2022-02-09-17:05:23.074420,7.0,12.0,515.0
2022-02-09-17:05:23.075387,2.0,10.0,515.0
2022-02-09-17:05:23.076384,2.0,10.0,515.0
2022-02-09-17:05:23.077381,2.0,10.0,515.0
2022-02-09-17:05:23.078378,6.0,10.0,514.0
2022-02-09-17:05:23.080371,6.0,10.0,514.0
2022-02-09-17:05:23.081368,6.0,10.0,514.0
2022-02-09-17:05:23.081368,3.0,7.0,515.0
2022-02-09-17:05:23.082388,3.0,7.0,514.0
2022-02-09-17:05:23.083363,3.0,7.0,514.0
2022-02-09-17:05:23.084360,3.0,7.0,514.0
2022-02-09-17:05:23.085358,3.0,7.0,514.0
2022-02-09-17:05:23.086355,6.0,8.0,514.0
2022-02-09-17:05:23.087352,4.0,9.0,515.0
2022-02-09-17:05:23.088350,4.0,9.0,515.0
2022-02-09-17:05:23.089347,4.0,9.0,515.0
2022-02-09-17:05:23.090344,8.0,11.0,515.0
2022-02-09-17:05:23.091341,7.0,7.0,515.0
2022-02-09-17:05:23.092339,7.0,7.0,515.0
2022-02-09-17:05:23.093336,7.0,7.0,515.0
2022-02-09-17:05:23.094333,5.0,9.0,514.0
2022-02-09-17:05:23.095331,5.0,9.0,514.0
2022-02-09-17:05:23.096329,5.0,9.0,514.0
2022-02-09-17:05:23.097326,5.0,9.0,514.0
2022-02-09-17:05:23.098323,5.0,4.0,514.0
2022-02-09-17:05:23.099321,9.0,6.0,514.0
2022-02-09-17:05:23.100351,9.0,6.0,514.0
2022-02-09-17:05:23.101317,9.0,6.0,514.0
2022-02-09-17:05:23.102314,7.0,10.0,515.0
2022-02-09-17:05:23.103343,7.0,5.0,514.0
2022-02-09-17:05:23.104309,7.0,5.0,514.0
2022-02-09-17:05:23.105306,7.0,5.0,514.0
2022-02-09-17:05:23.106345,7.0,5.0,514.0
2022-02-09-17:05:23.107300,4.0,9.0,515.0
2022-02-09-17:05:23.108332,4.0,9.0,515.0
2022-02-09-17:05:23.109328,4.0,9.0,515.0
2022-02-09-17:05:23.110292,4.0,9.0,515.0
2022-02-09-17:05:23.111291,3.0,12.0,515.0
2022-02-09-17:05:23.112288,1.0,4.0,515.0
2022-02-09-17:05:23.114283,1.0,4.0,515.0
2022-02-09-17:05:23.114283,7.0,9.0,514.0
2022-02-09-17:05:23.115280,7.0,9.0,514.0
2022-02-09-17:05:23.116278,7.0,9.0,514.0
2022-02-09-17:05:23.117275,7.0,9.0,514.0
2022-02-09-17:05:23.118272,7.0,9.0,514.0
2022-02-09-17:05:23.119269,6.0,8.0,514.0
2022-02-09-17:05:23.120267,4.0,9.0,514.0
2022-02-09-17:05:23.121264,4.0,9.0,514.0
2022-02-09-17:05:23.122259,4.0,9.0,514.0
2022-02-09-17:05:23.123257,3.0,9.0,515.0
2022-02-09-17:05:23.124254,4.0,7.0,514.0
2022-02-09-17:05:23.125251,2.0,7.0,514.0
2022-02-09-17:05:23.126248,3.0,8.0,514.0
2022-02-09-17:05:23.127247,7.0,9.0,514.0
2022-02-09-17:05:23.128245,4.0,9.0,514.0
2022-02-09-17:05:23.129240,4.0,9.0,514.0
2022-02-09-17:05:23.130239,4.0,9.0,514.0
2022-02-09-17:05:23.131235,7.0,3.0,514.0
2022-02-09-17:05:23.132233,6.0,11.0,514.0
2022-02-09-17:05:23.133231,6.0,11.0,514.0
2022-02-09-17:05:23.134229,6.0,11.0,514.0
2022-02-09-17:05:23.135227,4.0,5.0,514.0
2022-02-09-17:05:23.136256,4.0,5.0,514.0
2022-02-09-17:05:23.137254,4.0,5.0,514.0
2022-02-09-17:05:23.138218,4.0,5.0,514.0
2022-02-09-17:05:23.139216,4.0,5.0,514.0
2022-02-09-17:05:23.140213,4.0,5.0,514.0
2022-02-09-17:05:23.141209,4.0,5.0,514.0
2022-02-09-17:05:23.142206,4.0,5.0,514.0
2022-02-09-17:05:23.143203,4.0,5.0,514.0
2022-02-09-17:05:23.144200,9.0,6.0,514.0
2022-02-09-17:05:23.145200,3.0,11.0,513.0
2022-02-09-17:05:23.146197,3.0,11.0,513.0
2022-02-09-17:05:23.147196,3.0,11.0,513.0
2022-02-09-17:05:23.149190,5.0,0.0,514.0
2022-02-09-17:05:23.150184,3.0,8.0,514.0
2022-02-09-17:05:23.150184,3.0,8.0,514.0
2022-02-09-17:05:23.151182,3.0,8.0,514.0
2022-02-09-17:05:23.152179,2.0,9.0,514.0
2022-02-09-17:05:23.153177,5.0,1.0,513.0
2022-02-09-17:05:23.154176,5.0,1.0,513.0
2022-02-09-17:05:23.155173,5.0,1.0,513.0
2022-02-09-17:05:23.156171,5.0,11.0,513.0
2022-02-09-17:05:23.157167,8.0,10.0,513.0
2022-02-09-17:05:23.158196,8.0,10.0,513.0
2022-02-09-17:05:23.159162,8.0,10.0,513.0
2022-02-09-17:05:23.160160,2.0,9.0,512.0
2022-02-09-17:05:23.161160,3.0,4.0,512.0
2022-02-09-17:05:23.162155,3.0,4.0,512.0
2022-02-09-17:05:23.163151,3.0,4.0,512.0
2022-02-09-17:05:23.164150,12.0,1.0,511.0
2022-02-09-17:05:23.165146,12.0,1.0,511.0
2022-02-09-17:05:23.166143,12.0,1.0,511.0
2022-02-09-17:05:23.167141,12.0,1.0,511.0
2022-02-09-17:05:23.168138,5.0,3.0,510.0
2022-02-09-17:05:23.169136,6.0,5.0,510.0
2022-02-09-17:05:23.170133,6.0,5.0,510.0
2022-02-09-17:05:23.171131,6.0,5.0,510.0
2022-02-09-17:05:23.172128,4.0,9.0,508.0
2022-02-09-17:05:23.173125,4.0,9.0,508.0
2022-02-09-17:05:23.174123,4.0,9.0,508.0
2022-02-09-17:05:23.175120,4.0,9.0,508.0
2022-02-09-17:05:23.176116,5.0,9.0,506.0
2022-02-09-17:05:23.177113,5.0,9.0,506.0
2022-02-09-17:05:23.178143,5.0,9.0,506.0
2022-02-09-17:05:23.179109,5.0,9.0,506.0
2022-02-09-17:05:23.180106,2.0,12.0,506.0
2022-02-09-17:05:23.182103,3.0,3.0,505.0
2022-02-09-17:05:23.182103,3.0,3.0,505.0
2022-02-09-17:05:23.183099,3.0,3.0,505.0
2022-02-09-17:05:23.184096,3.0,3.0,505.0
2022-02-09-17:05:23.185094,7.0,0.0,503.0
2022-02-09-17:05:23.186091,7.0,0.0,503.0
2022-02-09-17:05:23.187088,7.0,0.0,503.0
2022-02-09-17:05:23.188086,7.0,0.0,503.0
2022-02-09-17:05:23.189084,3.0,9.0,501.0
2022-02-09-17:05:23.190080,3.0,9.0,501.0
2022-02-09-17:05:23.191077,3.0,9.0,501.0
2022-02-09-17:05:23.192074,3.0,9.0,501.0
2022-02-09-17:05:23.193106,7.0,10.0,501.0
2022-02-09-17:05:23.194102,6.0,11.0,499.0
2022-02-09-17:05:23.195066,6.0,11.0,499.0
2022-02-09-17:05:23.196111,6.0,11.0,499.0
2022-02-09-17:05:23.197061,5.0,12.0,498.0
2022-02-09-17:05:23.198057,5.0,7.0,497.0
2022-02-09-17:05:23.199090,5.0,7.0,497.0
2022-02-09-17:05:23.200086,5.0,7.0,497.0
2022-02-09-17:05:23.201049,5.0,11.0,497.0
2022-02-09-17:05:23.202048,10.0,2.0,497.0
2022-02-09-17:05:23.203044,10.0,2.0,497.0
2022-02-09-17:05:23.204043,10.0,2.0,497.0
2022-02-09-17:05:23.205071,1.0,10.0,497.0
2022-02-09-17:05:23.206035,4.0,13.0,496.0
2022-02-09-17:05:23.207034,4.0,13.0,496.0
2022-02-09-17:05:23.208030,4.0,13.0,496.0
2022-02-09-17:05:23.209029,4.0,13.0,496.0
2022-02-09-17:05:23.210025,5.0,14.0,496.0
2022-02-09-17:05:23.211023,4.0,10.0,495.0
2022-02-09-17:05:23.212065,4.0,10.0,495.0
2022-02-09-17:05:23.213016,3.0,9.0,495.0
2022-02-09-17:05:23.215013,4.0,2.0,495.0
2022-02-09-17:05:23.215013,4.0,2.0,495.0
2022-02-09-17:05:23.216042,4.0,2.0,495.0
2022-02-09-17:05:23.217041,4.0,2.0,495.0
2022-02-09-17:05:23.218038,4.0,6.0,495.0
2022-02-09-17:05:23.219033,3.0,4.0,495.0
2022-02-09-17:05:23.220000,3.0,4.0,495.0
2022-02-09-17:05:23.220997,3.0,4.0,495.0
2022-02-09-17:05:23.221994,4.0,12.0,494.0
2022-02-09-17:05:23.222991,6.0,11.0,494.0
2022-02-09-17:05:23.223987,6.0,11.0,494.0
2022-02-09-17:05:23.224984,6.0,11.0,494.0
2022-02-09-17:05:23.225982,3.0,11.0,494.0
2022-02-09-17:05:23.226979,3.0,9.0,494.0
2022-02-09-17:05:23.227976,3.0,9.0,494.0
2022-02-09-17:05:23.228973,3.0,9.0,494.0
2022-02-09-17:05:23.229971,2.0,10.0,493.0
2022-02-09-17:05:23.230969,8.0,2.0,493.0
2022-02-09-17:05:23.231966,8.0,2.0,493.0
2022-02-09-17:05:23.232964,8.0,2.0,493.0
2022-02-09-17:05:23.233961,5.0,3.0,493.0
2022-02-09-17:05:23.234958,5.0,3.0,493.0
2022-02-09-17:05:23.235955,5.0,3.0,493.0
2022-02-09-17:05:23.236952,5.0,3.0,493.0
2022-02-09-17:05:23.237950,3.0,8.0,493.0
2022-02-09-17:05:23.238947,4.0,11.0,493.0
2022-02-09-17:05:23.239945,4.0,11.0,493.0
2022-02-09-17:05:23.240941,4.0,11.0,493.0
2022-02-09-17:05:23.241939,8.0,9.0,493.0
2022-02-09-17:05:23.242936,6.0,7.0,492.0
2022-02-09-17:05:23.243933,6.0,7.0,492.0
2022-02-09-17:05:23.244931,6.0,7.0,492.0
2022-02-09-17:05:23.245928,5.0,8.0,491.0
2022-02-09-17:05:23.246925,6.0,2.0,491.0
2022-02-09-17:05:23.247923,6.0,2.0,491.0
2022-02-09-17:05:23.249918,6.0,2.0,491.0
2022-02-09-17:05:23.249918,4.0,7.0,491.0
2022-02-09-17:05:23.250915,2.0,7.0,491.0
2022-02-09-17:05:23.251912,2.0,7.0,491.0
2022-02-09-17:05:23.252910,2.0,7.0,491.0
2022-02-09-17:05:23.253907,7.0,7.0,490.0
2022-02-09-17:05:23.254904,5.0,5.0,490.0
2022-02-09-17:05:23.255902,5.0,5.0,490.0
2022-02-09-17:05:23.256899,5.0,5.0,490.0
2022-02-09-17:05:23.257897,5.0,5.0,490.0
2022-02-09-17:05:23.258894,2.0,8.0,490.0
2022-02-09-17:05:23.259891,4.0,10.0,490.0
2022-02-09-17:05:23.260889,4.0,10.0,490.0
2022-02-09-17:05:23.261887,4.0,10.0,490.0
2022-02-09-17:05:23.262883,7.0,12.0,489.0
2022-02-09-17:05:23.263883,6.0,6.0,489.0
2022-02-09-17:05:23.264881,6.0,6.0,489.0
2022-02-09-17:05:23.265876,6.0,6.0,489.0
2022-02-09-17:05:23.266873,6.0,6.0,489.0
2022-02-09-17:05:23.267870,8.0,9.0,489.0
2022-02-09-17:05:23.268869,8.0,9.0,489.0
2022-02-09-17:05:23.269868,8.0,9.0,489.0
2022-02-09-17:05:23.270864,4.0,1.0,489.0
2022-02-09-17:05:23.271861,1.0,8.0,489.0
2022-02-09-17:05:23.272859,1.0,8.0,489.0
2022-02-09-17:05:23.273856,1.0,8.0,489.0
2022-02-09-17:05:23.274884,3.0,12.0,488.0
2022-02-09-17:05:23.275882,8.0,12.0,488.0
2022-02-09-17:05:23.276848,8.0,12.0,488.0
2022-02-09-17:05:23.277845,8.0,12.0,488.0
2022-02-09-17:05:23.278843,5.0,12.0,488.0
2022-02-09-17:05:23.279840,2.0,1.0,488.0
2022-02-09-17:05:23.280836,2.0,1.0,488.0
2022-02-09-17:05:23.281835,2.0,1.0,488.0
2022-02-09-17:05:23.282832,5.0,8.0,488.0
2022-02-09-17:05:23.284827,4.0,6.0,488.0
2022-02-09-17:05:23.284827,4.0,6.0,488.0
2022-02-09-17:05:23.285824,4.0,6.0,488.0
2022-02-09-17:05:23.286821,6.0,6.0,487.0
2022-02-09-17:05:23.287819,1.0,12.0,487.0
2022-02-09-17:05:23.288817,1.0,12.0,487.0
2022-02-09-17:05:23.289813,1.0,12.0,487.0
2022-02-09-17:05:23.290809,1.0,12.0,487.0
2022-02-09-17:05:23.291808,6.0,9.0,486.0
2022-02-09-17:05:23.292805,3.0,9.0,485.0
2022-02-09-17:05:23.293801,3.0,9.0,485.0
2022-02-09-17:05:23.294800,5.0,6.0,485.0
2022-02-09-17:05:23.295796,6.0,8.0,484.0
2022-02-09-17:05:23.296793,6.0,8.0,484.0
2022-02-09-17:05:23.297790,6.0,8.0,484.0
2022-02-09-17:05:23.298825,10.0,6.0,484.0
2022-02-09-17:05:23.299784,6.0,8.0,483.0
2022-02-09-17:05:23.300782,6.0,8.0,483.0
2022-02-09-17:05:23.301781,6.0,8.0,483.0
2022-02-09-17:05:23.302778,6.0,8.0,483.0
2022-02-09-17:05:23.303776,8.0,0.0,483.0
2022-02-09-17:05:23.304773,2.0,8.0,482.0
2022-02-09-17:05:23.305770,2.0,8.0,482.0
2022-02-09-17:05:23.306767,2.0,8.0,482.0
2022-02-09-17:05:23.307765,7.0,8.0,481.0
2022-02-09-17:05:23.308762,7.0,8.0,481.0
2022-02-09-17:05:23.309759,7.0,8.0,481.0
2022-02-09-17:05:23.310757,7.0,8.0,481.0
2022-02-09-17:05:23.311753,4.0,12.0,481.0
2022-02-09-17:05:23.312750,5.0,7.0,480.0
2022-02-09-17:05:23.313749,5.0,7.0,480.0
2022-02-09-17:05:23.314746,5.0,7.0,480.0
2022-02-09-17:05:23.315744,2.0,8.0,479.0
2022-02-09-17:05:23.317738,7.0,9.0,479.0
2022-02-09-17:05:23.317738,7.0,9.0,479.0
2022-02-09-17:05:23.318735,7.0,9.0,479.0
2022-02-09-17:05:23.319734,6.0,5.0,478.0
2022-02-09-17:05:23.320731,5.0,8.0,477.0
2022-02-09-17:05:23.321728,5.0,8.0,477.0
2022-02-09-17:05:23.322725,5.0,8.0,477.0
2022-02-09-17:05:23.323723,4.0,10.0,477.0
2022-02-09-17:05:23.324719,4.0,9.0,476.0
2022-02-09-17:05:23.325717,4.0,9.0,476.0
2022-02-09-17:05:23.326715,4.0,9.0,476.0
2022-02-09-17:05:23.327711,4.0,9.0,475.0
2022-02-09-17:05:23.328710,8.0,10.0,475.0
2022-02-09-17:05:23.329705,8.0,10.0,475.0
2022-02-09-17:05:23.330704,8.0,10.0,475.0
2022-02-09-17:05:23.331702,8.0,10.0,475.0
2022-02-09-17:05:23.332698,7.0,6.0,473.0
2022-02-09-17:05:23.333695,7.0,6.0,473.0
2022-02-09-17:05:23.334692,7.0,6.0,473.0
2022-02-09-17:05:23.335690,7.0,6.0,473.0
2022-02-09-17:05:23.336688,7.0,5.0,472.0
2022-02-09-17:05:23.337723,3.0,16.0,471.0
2022-02-09-17:05:23.338717,3.0,16.0,471.0
2022-02-09-17:05:23.339713,3.0,16.0,471.0
2022-02-09-17:05:23.340715,7.0,13.0,471.0
2022-02-09-17:05:23.341709,4.0,13.0,470.0
2022-02-09-17:05:23.342710,4.0,13.0,470.0
2022-02-09-17:05:23.343669,4.0,13.0,470.0
2022-02-09-17:05:23.344666,3.0,11.0,470.0
2022-02-09-17:05:23.345664,2.0,4.0,470.0
2022-02-09-17:05:23.346660,2.0,4.0,470.0
2022-02-09-17:05:23.347659,2.0,4.0,470.0
2022-02-09-17:05:23.348656,4.0,3.0,469.0
2022-02-09-17:05:23.349653,4.0,3.0,469.0
2022-02-09-17:05:23.351648,7.0,8.0,468.0
2022-02-09-17:05:23.351648,7.0,2.0,468.0
2022-02-09-17:05:23.352646,2.0,11.0,467.0
2022-02-09-17:05:23.353643,2.0,11.0,467.0
2022-02-09-17:05:23.354639,2.0,11.0,467.0
2022-02-09-17:05:23.355636,2.0,11.0,467.0
2022-02-09-17:05:23.356635,10.0,12.0,467.0
2022-02-09-17:05:23.357641,7.0,7.0,466.0
2022-02-09-17:05:23.358627,7.0,7.0,466.0
2022-02-09-17:05:23.359625,7.0,7.0,466.0
2022-02-09-17:05:23.360624,5.0,11.0,465.0
2022-02-09-17:05:23.361619,4.0,10.0,466.0
2022-02-09-17:05:23.362618,7.0,6.0,465.0
2022-02-09-17:05:23.363616,7.0,6.0,465.0
2022-02-09-17:05:23.364613,6.0,7.0,465.0
2022-02-09-17:05:23.365611,6.0,7.0,465.0
2022-02-09-17:05:23.366608,6.0,7.0,465.0
2022-02-09-17:05:23.367605,6.0,7.0,465.0
2022-02-09-17:05:23.368603,7.0,2.0,464.0
2022-02-09-17:05:23.369600,6.0,11.0,464.0
2022-02-09-17:05:23.370597,6.0,11.0,464.0
2022-02-09-17:05:23.371594,6.0,11.0,464.0
2022-02-09-17:05:23.372624,6.0,11.0,464.0
2022-02-09-17:05:23.373587,3.0,12.0,463.0
2022-02-09-17:05:23.374584,7.0,9.0,463.0
2022-02-09-17:05:23.375614,7.0,9.0,463.0
2022-02-09-17:05:23.376618,7.0,9.0,463.0
2022-02-09-17:05:23.377610,6.0,5.0,463.0
2022-02-09-17:05:23.378606,5.0,9.0,463.0
2022-02-09-17:05:23.379604,5.0,9.0,463.0
2022-02-09-17:05:23.380569,5.0,9.0,463.0
2022-02-09-17:05:23.381566,7.0,3.0,462.0
2022-02-09-17:05:23.382563,4.0,9.0,462.0
2022-02-09-17:05:23.383560,4.0,9.0,462.0
2022-02-09-17:05:23.385555,4.0,9.0,462.0
2022-02-09-17:05:23.385555,2.0,5.0,462.0
2022-02-09-17:05:23.386552,2.0,5.0,462.0
2022-02-09-17:05:23.387549,2.0,5.0,462.0
2022-02-09-17:05:23.388547,2.0,5.0,462.0
2022-02-09-17:05:23.389544,3.0,9.0,461.0
2022-02-09-17:05:23.390541,4.0,12.0,461.0
2022-02-09-17:05:23.391539,4.0,12.0,461.0
2022-02-09-17:05:23.392536,4.0,12.0,461.0
2022-02-09-17:05:23.393533,6.0,8.0,461.0
2022-02-09-17:05:23.394531,7.0,3.0,461.0
2022-02-09-17:05:23.395528,7.0,3.0,461.0
2022-02-09-17:05:23.396526,7.0,3.0,461.0
2022-02-09-17:05:23.397523,5.0,7.0,461.0
2022-02-09-17:05:23.398520,5.0,7.0,461.0
2022-02-09-17:05:23.399517,5.0,7.0,461.0
2022-02-09-17:05:23.400515,5.0,7.0,461.0
2022-02-09-17:05:23.401512,7.0,3.0,461.0
2022-02-09-17:05:23.402509,2.0,5.0,460.0
2022-02-09-17:05:23.403507,2.0,5.0,460.0
2022-02-09-17:05:23.404504,2.0,5.0,460.0
2022-02-09-17:05:23.405501,2.0,5.0,460.0
2022-02-09-17:05:23.406499,7.0,10.0,460.0
2022-02-09-17:05:23.407496,7.0,10.0,460.0
2022-02-09-17:05:23.408494,7.0,10.0,460.0
2022-02-09-17:05:23.409491,7.0,10.0,460.0
2022-02-09-17:05:23.410488,4.0,9.0,459.0
2022-02-09-17:05:23.411486,4.0,9.0,459.0
2022-02-09-17:05:23.412483,4.0,9.0,459.0
2022-02-09-17:05:23.413480,4.0,9.0,459.0
2022-02-09-17:05:23.414478,3.0,2.0,459.0
2022-02-09-17:05:23.415475,7.0,7.0,459.0
2022-02-09-17:05:23.416472,7.0,7.0,459.0
2022-02-09-17:05:23.417469,7.0,7.0,459.0
2022-02-09-17:05:23.418467,6.0,4.0,459.0
2022-02-09-17:05:23.420462,2.0,3.0,459.0
2022-02-09-17:05:23.420462,2.0,3.0,459.0
2022-02-09-17:05:23.421459,2.0,3.0,459.0
2022-02-09-17:05:23.422456,5.0,12.0,458.0
2022-02-09-17:05:23.423454,5.0,12.0,458.0
2022-02-09-17:05:23.424451,5.0,12.0,458.0
2022-02-09-17:05:23.425448,5.0,12.0,458.0
2022-02-09-17:05:23.426446,9.0,7.0,458.0
2022-02-09-17:05:23.427477,4.0,11.0,459.0
2022-02-09-17:05:23.428478,4.0,11.0,459.0
2022-02-09-17:05:23.429440,4.0,11.0,459.0
2022-02-09-17:05:23.430437,5.0,3.0,458.0
2022-02-09-17:05:23.431434,6.0,6.0,458.0
2022-02-09-17:05:23.432431,6.0,6.0,458.0
2022-02-09-17:05:23.433429,6.0,6.0,458.0
2022-02-09-17:05:23.434459,6.0,9.0,457.0
2022-02-09-17:05:23.435451,7.0,1.0,456.0
2022-02-09-17:05:23.436454,7.0,1.0,456.0
2022-02-09-17:05:23.437417,7.0,1.0,456.0
2022-02-09-17:05:23.438448,6.0,8.0,456.0
2022-02-09-17:05:23.439445,5.0,12.0,455.0
2022-02-09-17:05:23.440444,5.0,12.0,455.0
2022-02-09-17:05:23.441440,5.0,12.0,455.0
2022-02-09-17:05:23.442441,6.0,8.0,455.0
2022-02-09-17:05:23.443435,8.0,6.0,454.0
2022-02-09-17:05:23.444435,8.0,6.0,454.0
2022-02-09-17:05:23.445432,8.0,6.0,454.0
2022-02-09-17:05:23.446427,8.0,6.0,454.0
2022-02-09-17:05:23.447427,7.0,10.0,453.0
2022-02-09-17:05:23.448422,7.0,10.0,453.0
2022-02-09-17:05:23.449422,7.0,10.0,453.0
2022-02-09-17:05:23.450416,7.0,10.0,453.0
2022-02-09-17:05:23.451414,4.0,2.0,452.0
2022-02-09-17:05:23.452410,4.0,2.0,452.0
2022-02-09-17:05:23.454405,4.0,2.0,452.0
2022-02-09-17:05:23.454405,4.0,14.0,450.0
2022-02-09-17:05:23.455369,6.0,9.0,450.0
2022-02-09-17:05:23.456402,6.0,9.0,450.0
2022-02-09-17:05:23.457396,6.0,9.0,450.0
2022-02-09-17:05:23.458394,6.0,9.0,450.0
2022-02-09-17:05:23.459392,4.0,7.0,449.0
2022-02-09-17:05:23.460356,7.0,8.0,449.0
2022-02-09-17:05:23.461389,7.0,8.0,449.0
2022-02-09-17:05:23.462351,7.0,8.0,449.0
2022-02-09-17:05:23.463348,4.0,11.0,449.0
2022-02-09-17:05:23.464346,3.0,1.0,447.0
2022-02-09-17:05:23.465343,3.0,1.0,447.0
2022-02-09-17:05:23.466340,3.0,1.0,447.0
2022-02-09-17:05:23.467337,6.0,8.0,447.0
2022-02-09-17:05:23.468335,2.0,6.0,446.0
2022-02-09-17:05:23.469332,2.0,6.0,446.0
2022-02-09-17:05:23.470329,2.0,6.0,446.0
2022-02-09-17:05:23.471327,7.0,7.0,445.0
2022-02-09-17:05:23.472324,3.0,12.0,445.0
2022-02-09-17:05:23.473321,3.0,12.0,445.0
2022-02-09-17:05:23.474319,3.0,12.0,445.0
2022-02-09-17:05:23.475316,3.0,12.0,445.0
2022-02-09-17:05:23.476314,8.0,9.0,443.0
2022-02-09-17:05:23.477311,8.0,9.0,443.0
2022-02-09-17:05:23.478308,8.0,9.0,443.0
2022-02-09-17:05:23.479306,1.0,3.0,442.0
2022-02-09-17:05:23.480303,1.0,3.0,442.0
2022-02-09-17:05:23.481300,1.0,3.0,442.0
2022-02-09-17:05:23.482298,1.0,3.0,442.0
2022-02-09-17:05:23.483295,5.0,4.0,442.0
2022-02-09-17:05:23.484293,6.0,5.0,441.0
2022-02-09-17:05:23.485290,6.0,5.0,441.0
2022-02-09-17:05:23.487284,6.0,5.0,441.0
2022-02-09-17:05:23.487284,4.0,12.0,440.0
2022-02-09-17:05:23.488282,4.0,12.0,440.0
2022-02-09-17:05:23.489279,4.0,12.0,440.0
2022-02-09-17:05:23.490276,4.0,12.0,440.0
2022-02-09-17:05:23.491274,4.0,12.0,440.0
2022-02-09-17:05:23.492271,7.0,13.0,439.0
2022-02-09-17:05:23.493268,5.0,10.0,439.0
2022-02-09-17:05:23.494266,5.0,10.0,439.0
2022-02-09-17:05:23.495263,5.0,10.0,439.0
2022-02-09-17:05:23.496260,7.0,12.0,438.0
2022-02-09-17:05:23.497258,3.0,3.0,438.0
2022-02-09-17:05:23.498255,3.0,3.0,438.0
2022-02-09-17:05:23.499252,3.0,3.0,438.0
2022-02-09-17:05:23.500250,5.0,7.0,438.0
2022-02-09-17:05:23.501247,5.0,6.0,437.0
2022-02-09-17:05:23.502244,5.0,6.0,437.0
2022-02-09-17:05:23.503242,5.0,6.0,437.0
2022-02-09-17:05:23.504239,2.0,13.0,437.0
2022-02-09-17:05:23.505238,5.0,16.0,436.0
2022-02-09-17:05:23.506234,5.0,16.0,436.0
2022-02-09-17:05:23.507232,5.0,16.0,436.0
2022-02-09-17:05:23.508265,7.0,12.0,436.0
2022-02-09-17:05:23.509257,7.0,12.0,436.0
2022-02-09-17:05:23.510256,7.0,12.0,436.0
2022-02-09-17:05:23.511220,7.0,12.0,436.0
2022-02-09-17:05:23.512252,5.0,11.0,436.0
2022-02-09-17:05:23.513232,5.0,4.0,436.0
2022-02-09-17:05:23.514246,5.0,4.0,436.0
2022-02-09-17:05:23.515241,5.0,4.0,436.0
2022-02-09-17:05:23.516239,5.0,3.0,435.0
2022-02-09-17:05:23.517241,6.0,3.0,435.0
2022-02-09-17:05:23.518234,6.0,3.0,435.0
2022-02-09-17:05:23.519231,6.0,3.0,435.0
2022-02-09-17:05:23.520230,6.0,3.0,435.0
2022-02-09-17:05:23.522192,0.0,11.0,435.0
2022-02-09-17:05:23.522192,0.0,11.0,435.0
2022-02-09-17:05:23.523221,0.0,11.0,435.0
2022-02-09-17:05:23.524218,0.0,11.0,435.0
2022-02-09-17:05:23.525215,5.0,12.0,435.0
2022-02-09-17:05:23.526213,5.0,12.0,435.0
2022-02-09-17:05:23.527210,5.0,12.0,435.0
2022-02-09-17:05:23.528208,5.0,12.0,435.0
2022-02-09-17:05:23.529207,2.0,10.0,435.0
2022-02-09-17:05:23.530171,2.0,8.0,434.0
2022-02-09-17:05:23.531200,2.0,8.0,434.0
2022-02-09-17:05:23.532196,2.0,8.0,434.0
2022-02-09-17:05:23.533196,5.0,4.0,435.0
2022-02-09-17:05:23.534197,6.0,4.0,434.0
2022-02-09-17:05:23.535188,6.0,4.0,434.0
2022-02-09-17:05:23.536187,6.0,4.0,434.0
2022-02-09-17:05:23.537153,5.0,2.0,435.0
2022-02-09-17:05:23.538182,4.0,11.0,435.0
2022-02-09-17:05:23.539178,4.0,11.0,435.0
2022-02-09-17:05:23.540175,4.0,11.0,435.0
2022-02-09-17:05:23.541436,7.0,11.0,434.0
2022-02-09-17:05:23.541436,2.0,10.0,435.0
2022-02-09-17:05:23.542435,2.0,10.0,435.0
2022-02-09-17:05:23.543433,2.0,10.0,435.0
2022-02-09-17:05:23.544430,2.0,10.0,435.0
2022-02-09-17:05:23.545460,6.0,10.0,434.0
2022-02-09-17:05:23.546491,4.0,9.0,435.0
2022-02-09-17:05:23.546491,4.0,9.0,435.0
2022-02-09-17:05:23.547719,4.0,9.0,435.0
2022-02-09-17:05:23.547970,4.0,9.0,435.0
2022-02-09-17:05:23.548071,4.0,9.0,435.0
2022-02-09-17:05:23.548071,5.0,6.0,434.0
2022-02-09-17:05:23.549071,5.0,6.0,434.0
2022-02-09-17:05:23.550095,5.0,6.0,434.0
2022-02-09-17:05:23.551090,5.0,6.0,434.0
2022-02-09-17:05:23.552069,5.0,6.0,434.0
2022-02-09-17:05:23.553060,7.0,3.0,435.0
2022-02-09-17:05:23.554058,4.0,11.0,434.0
2022-02-09-17:05:23.555082,4.0,11.0,434.0
2022-02-09-17:05:23.557049,4.0,11.0,434.0
2022-02-09-17:05:23.557049,7.0,13.0,435.0
2022-02-09-17:05:23.558076,4.0,10.0,435.0
2022-02-09-17:05:23.559069,4.0,10.0,435.0
2022-02-09-17:05:23.560068,4.0,10.0,435.0
2022-02-09-17:05:23.561063,4.0,10.0,435.0
2022-02-09-17:05:23.562063,4.0,9.0,435.0
2022-02-09-17:05:23.563103,2.0,3.0,434.0
2022-02-09-17:05:23.564064,2.0,3.0,434.0
2022-02-09-17:05:23.565063,2.0,3.0,434.0
2022-02-09-17:05:23.566063,5.0,7.0,435.0
2022-02-09-17:05:23.567056,7.0,7.0,434.0
2022-02-09-17:05:23.568056,7.0,7.0,434.0
2022-02-09-17:05:23.569052,7.0,7.0,434.0
2022-02-09-17:05:23.570047,5.0,1.0,434.0
2022-02-09-17:05:23.571046,0.0,10.0,435.0
2022-02-09-17:05:23.572041,0.0,10.0,435.0
2022-02-09-17:05:23.573041,0.0,10.0,435.0
2022-02-09-17:05:23.574042,5.0,8.0,435.0
2022-02-09-17:05:23.575033,5.0,8.0,434.0
2022-02-09-17:05:23.576031,5.0,8.0,434.0
2022-02-09-17:05:23.577028,5.0,8.0,434.0
2022-02-09-17:05:23.578028,4.0,8.0,434.0
2022-02-09-17:05:23.579025,2.0,4.0,434.0
2022-02-09-17:05:23.579990,2.0,4.0,434.0
2022-02-09-17:05:23.581012,2.0,4.0,434.0
2022-02-09-17:05:23.582022,6.0,1.0,435.0
2022-02-09-17:05:23.583014,4.0,6.0,435.0
2022-02-09-17:05:23.584014,7.0,7.0,434.0
2022-02-09-17:05:23.584975,7.0,7.0,434.0
2022-02-09-17:05:23.585972,2.0,9.0,435.0
2022-02-09-17:05:23.586969,1.0,10.0,435.0
2022-02-09-17:05:23.587966,1.0,10.0,435.0
2022-02-09-17:05:23.588964,1.0,10.0,435.0
2022-02-09-17:05:23.590958,8.0,12.0,435.0
2022-02-09-17:05:23.590958,4.0,9.0,435.0
2022-02-09-17:05:23.591956,4.0,9.0,435.0
2022-02-09-17:05:23.592953,4.0,9.0,435.0
2022-02-09-17:05:23.593983,7.0,12.0,435.0
2022-02-09-17:05:23.594983,3.0,6.0,434.0
2022-02-09-17:05:23.595978,3.0,6.0,434.0
2022-02-09-17:05:23.596943,3.0,6.0,434.0
2022-02-09-17:05:23.597973,3.0,6.0,434.0
2022-02-09-17:05:23.598970,3.0,9.0,434.0
2022-02-09-17:05:23.599967,3.0,9.0,434.0
2022-02-09-17:05:23.600964,3.0,9.0,434.0
2022-02-09-17:05:23.601962,3.0,9.0,434.0
2022-02-09-17:05:23.602962,2.0,3.0,435.0
2022-02-09-17:05:23.603957,5.0,12.0,435.0
2022-02-09-17:05:23.604954,5.0,12.0,435.0
2022-02-09-17:05:23.605951,5.0,12.0,435.0
2022-02-09-17:05:23.606949,9.0,9.0,434.0
2022-02-09-17:05:23.607949,9.0,9.0,434.0
2022-02-09-17:05:23.608944,9.0,9.0,434.0
2022-02-09-17:05:23.609941,9.0,9.0,434.0
2022-02-09-17:05:23.610940,6.0,8.0,435.0
2022-02-09-17:05:23.611935,1.0,9.0,435.0
2022-02-09-17:05:23.612932,1.0,9.0,435.0
2022-02-09-17:05:23.613898,1.0,9.0,435.0
2022-02-09-17:05:23.614928,6.0,7.0,435.0
2022-02-09-17:05:23.615928,6.0,10.0,434.0
2022-02-09-17:05:23.616925,6.0,10.0,434.0
2022-02-09-17:05:23.617920,6.0,10.0,434.0
2022-02-09-17:05:23.618918,3.0,0.0,434.0
2022-02-09-17:05:23.619915,6.0,9.0,434.0
2022-02-09-17:05:23.620912,6.0,9.0,434.0
2022-02-09-17:05:23.621876,6.0,9.0,434.0
2022-02-09-17:05:23.622907,4.0,12.0,435.0
2022-02-09-17:05:23.624868,5.0,13.0,434.0
2022-02-09-17:05:23.624868,5.0,13.0,434.0
2022-02-09-17:05:23.625865,5.0,13.0,434.0
2022-02-09-17:05:23.626897,5.0,8.0,434.0
2022-02-09-17:05:23.627893,4.0,7.0,434.0
2022-02-09-17:05:23.628891,4.0,7.0,434.0
2022-02-09-17:05:23.629894,4.0,7.0,434.0
2022-02-09-17:05:23.630885,6.0,1.0,434.0
2022-02-09-17:05:23.631881,5.0,8.0,434.0
2022-02-09-17:05:23.632881,5.0,8.0,434.0
2022-02-09-17:05:23.633900,5.0,8.0,434.0
2022-02-09-17:05:23.634896,5.0,8.0,434.0
2022-02-09-17:05:23.635896,5.0,10.0,434.0
2022-02-09-17:05:23.636891,5.0,10.0,434.0
2022-02-09-17:05:23.637889,5.0,10.0,434.0
2022-02-09-17:05:23.638887,5.0,10.0,434.0
2022-02-09-17:05:23.639883,3.0,10.0,434.0
2022-02-09-17:05:23.640881,3.0,10.0,434.0
2022-02-09-17:05:23.641878,3.0,10.0,434.0
2022-02-09-17:05:23.642875,3.0,10.0,434.0
2022-02-09-17:05:23.643874,6.0,7.0,434.0
2022-02-09-17:05:23.644870,6.0,9.0,434.0
2022-02-09-17:05:23.645868,6.0,9.0,434.0
2022-02-09-17:05:23.646811,6.0,9.0,434.0
2022-02-09-17:05:23.647807,4.0,2.0,434.0
2022-02-09-17:05:23.648859,7.0,2.0,434.0
2022-02-09-17:05:23.649857,7.0,2.0,434.0
2022-02-09-17:05:23.650854,7.0,2.0,434.0
2022-02-09-17:05:23.651853,7.0,6.0,435.0
2022-02-09-17:05:23.652848,5.0,6.0,434.0
2022-02-09-17:05:23.653846,5.0,6.0,434.0
2022-02-09-17:05:23.654844,5.0,6.0,434.0
2022-02-09-17:05:23.655840,8.0,9.0,434.0
2022-02-09-17:05:23.656838,3.0,13.0,435.0
2022-02-09-17:05:23.658777,3.0,13.0,435.0
2022-02-09-17:05:23.658777,3.0,13.0,435.0
2022-02-09-17:05:23.659831,6.0,9.0,434.0
2022-02-09-17:05:23.660826,6.0,9.0,434.0
2022-02-09-17:05:23.661824,6.0,9.0,434.0
2022-02-09-17:05:23.662767,6.0,9.0,434.0
2022-02-09-17:05:23.663766,1.0,4.0,434.0
2022-02-09-17:05:23.664816,5.0,5.0,435.0
2022-02-09-17:05:23.665814,5.0,5.0,435.0
2022-02-09-17:05:23.666790,5.0,5.0,435.0
2022-02-09-17:05:23.667815,4.0,6.0,435.0
2022-02-09-17:05:23.668806,6.0,8.0,435.0
2022-02-09-17:05:23.669803,6.0,8.0,435.0
2022-02-09-17:05:23.670802,6.0,8.0,435.0
2022-02-09-17:05:23.671798,4.0,15.0,435.0
2022-02-09-17:05:23.672795,4.0,14.0,434.0
2022-02-09-17:05:23.673793,4.0,14.0,434.0
2022-02-09-17:05:23.674790,4.0,14.0,434.0
2022-02-09-17:05:23.675789,5.0,13.0,434.0
2022-02-09-17:05:23.676763,5.0,12.0,434.0
2022-02-09-17:05:23.677782,5.0,12.0,434.0
2022-02-09-17:05:23.678784,5.0,12.0,434.0
2022-02-09-17:05:23.679777,5.0,12.0,434.0
2022-02-09-17:05:23.680719,3.0,9.0,434.0
2022-02-09-17:05:23.681771,5.0,5.0,435.0
2022-02-09-17:05:23.682769,5.0,5.0,435.0
2022-02-09-17:05:23.683768,5.0,5.0,435.0
2022-02-09-17:05:23.684764,7.0,6.0,434.0
2022-02-09-17:05:23.685761,7.0,1.0,434.0
2022-02-09-17:05:23.686759,7.0,1.0,434.0
2022-02-09-17:05:23.687756,7.0,1.0,434.0
2022-02-09-17:05:23.688753,4.0,10.0,435.0
2022-02-09-17:05:23.689750,6.0,14.0,435.0
2022-02-09-17:05:23.690748,6.0,14.0,435.0
2022-02-09-17:05:23.691690,6.0,14.0,435.0
2022-02-09-17:05:23.692688,5.0,12.0,434.0
2022-02-09-17:05:23.694683,3.0,10.0,435.0
2022-02-09-17:05:23.694683,3.0,10.0,435.0
2022-02-09-17:05:23.695679,3.0,10.0,435.0
2022-02-09-17:05:23.697226,4.0,2.0,434.0
2022-02-09-17:05:23.697474,8.0,1.0,434.0
2022-02-09-17:05:23.697474,8.0,1.0,434.0
2022-02-09-17:05:23.698474,8.0,1.0,434.0
2022-02-09-17:05:23.699492,8.0,1.0,434.0
2022-02-09-17:05:23.700468,5.0,6.0,435.0
2022-02-09-17:05:23.701465,7.0,2.0,435.0
2022-02-09-17:05:23.702463,7.0,2.0,435.0
2022-02-09-17:05:23.703460,7.0,2.0,435.0
2022-02-09-17:05:23.704457,7.0,2.0,435.0
2022-02-09-17:05:23.705455,2.0,12.0,434.0
2022-02-09-17:05:23.706452,2.0,12.0,434.0
2022-02-09-17:05:23.707449,2.0,12.0,434.0
2022-02-09-17:05:23.708479,3.0,12.0,435.0
2022-02-09-17:05:23.709444,2.0,10.0,434.0
2022-02-09-17:05:23.710441,6.0,8.0,434.0
2022-02-09-17:05:23.711439,6.0,8.0,434.0
2022-02-09-17:05:23.712436,6.0,8.0,434.0
2022-02-09-17:05:23.713433,5.0,8.0,434.0
2022-02-09-17:05:23.714431,8.0,2.0,435.0
2022-02-09-17:05:23.715428,8.0,2.0,435.0
2022-02-09-17:05:23.716425,8.0,2.0,435.0
2022-02-09-17:05:23.717423,6.0,6.0,434.0
2022-02-09-17:05:23.718420,2.0,5.0,435.0
2022-02-09-17:05:23.719417,2.0,5.0,435.0
2022-02-09-17:05:23.720415,2.0,5.0,435.0
2022-02-09-17:05:23.721412,2.0,10.0,435.0
2022-02-09-17:05:23.722409,7.0,11.0,434.0
2022-02-09-17:05:23.723441,7.0,11.0,434.0
2022-02-09-17:05:23.724438,7.0,11.0,434.0
2022-02-09-17:05:23.726455,2.0,9.0,435.0
2022-02-09-17:05:23.726455,5.0,10.0,434.0
2022-02-09-17:05:23.727396,5.0,12.0,434.0
2022-02-09-17:05:23.728393,5.0,12.0,434.0
2022-02-09-17:05:23.729391,5.0,6.0,434.0
2022-02-09-17:05:23.730403,8.0,0.0,434.0
2022-02-09-17:05:23.731385,8.0,0.0,434.0
2022-02-09-17:05:23.732383,8.0,0.0,434.0
2022-02-09-17:05:23.733380,6.0,6.0,434.0
2022-02-09-17:05:23.734413,6.0,4.0,434.0
2022-02-09-17:05:23.735375,6.0,4.0,434.0
2022-02-09-17:05:23.736372,6.0,4.0,434.0
2022-02-09-17:05:23.737369,2.0,13.0,435.0
2022-02-09-17:05:23.738367,3.0,11.0,435.0
2022-02-09-17:05:23.739364,3.0,11.0,435.0
2022-02-09-17:05:23.740361,3.0,11.0,435.0
2022-02-09-17:05:23.741359,6.0,14.0,434.0
2022-02-09-17:05:23.742356,5.0,11.0,434.0
2022-02-09-17:05:23.743353,5.0,11.0,434.0
2022-02-09-17:05:23.744351,5.0,11.0,434.0
2022-02-09-17:05:23.745348,5.0,11.0,434.0
2022-02-09-17:05:23.746345,2.0,2.0,435.0
2022-02-09-17:05:23.747343,2.0,2.0,435.0
2022-02-09-17:05:23.748340,2.0,2.0,435.0
2022-02-09-17:05:23.749337,2.0,2.0,435.0
2022-02-09-17:05:23.750335,4.0,4.0,434.0
2022-02-09-17:05:23.751332,9.0,3.0,434.0
2022-02-09-17:05:23.752329,9.0,3.0,434.0
2022-02-09-17:05:23.753327,9.0,3.0,434.0
2022-02-09-17:05:23.754324,7.0,7.0,434.0
2022-02-09-17:05:23.755321,3.0,12.0,434.0
2022-02-09-17:05:23.756319,3.0,12.0,434.0
2022-02-09-17:05:23.757316,3.0,12.0,434.0
2022-02-09-17:05:23.759348,2.0,9.0,434.0
2022-02-09-17:05:23.759348,2.0,9.0,434.0
2022-02-09-17:05:23.760308,2.0,9.0,434.0
2022-02-09-17:05:23.761305,2.0,9.0,434.0
2022-02-09-17:05:23.762303,5.0,9.0,434.0
2022-02-09-17:05:23.763300,2.0,9.0,434.0
2022-02-09-17:05:23.764331,2.0,9.0,434.0
2022-02-09-17:05:23.765295,2.0,9.0,434.0
2022-02-09-17:05:23.766292,7.0,4.0,434.0
2022-02-09-17:05:23.767289,6.0,6.0,434.0
2022-02-09-17:05:23.768287,6.0,6.0,434.0
2022-02-09-17:05:23.769284,6.0,6.0,434.0
2022-02-09-17:05:23.770316,4.0,10.0,435.0
2022-02-09-17:05:23.771279,1.0,13.0,434.0
2022-02-09-17:05:23.772276,1.0,13.0,434.0
2022-02-09-17:05:23.773273,1.0,13.0,434.0
2022-02-09-17:05:23.774271,6.0,11.0,434.0
2022-02-09-17:05:23.775268,4.0,10.0,435.0
2022-02-09-17:05:23.776265,4.0,10.0,435.0
2022-02-09-17:05:23.777263,4.0,10.0,435.0
2022-02-09-17:05:23.778260,4.0,10.0,435.0
2022-02-09-17:05:23.779257,3.0,7.0,434.0
2022-02-09-17:05:23.780255,3.0,7.0,434.0
2022-02-09-17:05:23.781288,3.0,7.0,434.0
2022-02-09-17:05:23.782249,3.0,7.0,434.0
2022-02-09-17:05:23.783247,3.0,4.0,435.0
2022-02-09-17:05:23.784244,5.0,8.0,434.0
2022-02-09-17:05:23.785241,5.0,8.0,434.0
2022-02-09-17:05:23.786239,5.0,8.0,434.0
2022-02-09-17:05:23.787236,3.0,14.0,434.0
2022-02-09-17:05:23.788233,1.0,11.0,434.0
2022-02-09-17:05:23.789231,1.0,11.0,434.0
2022-02-09-17:05:23.790228,1.0,11.0,434.0
2022-02-09-17:05:23.791225,4.0,8.0,435.0
2022-02-09-17:05:23.792223,5.0,9.0,434.0
2022-02-09-17:05:23.794251,5.0,9.0,434.0
2022-02-09-17:05:23.794251,4.0,12.0,434.0
2022-02-09-17:05:23.795249,3.0,0.0,435.0
2022-02-09-17:05:23.796212,3.0,0.0,435.0
2022-02-09-17:05:23.797209,3.0,0.0,435.0
2022-02-09-17:05:23.798207,3.0,0.0,435.0
2022-02-09-17:05:23.799204,8.0,8.0,435.0
2022-02-09-17:05:23.800201,6.0,8.0,434.0
2022-02-09-17:05:23.801233,6.0,8.0,434.0
2022-02-09-17:05:23.802196,6.0,8.0,434.0
2022-02-09-17:05:23.803194,3.0,2.0,435.0
2022-02-09-17:05:23.804230,3.0,8.0,434.0
2022-02-09-17:05:23.805188,3.0,8.0,434.0
2022-02-09-17:05:23.806185,3.0,8.0,434.0
2022-02-09-17:05:23.807183,4.0,6.0,435.0
2022-02-09-17:05:23.808180,6.0,12.0,434.0
2022-02-09-17:05:23.809177,6.0,12.0,434.0
2022-02-09-17:05:23.810175,6.0,12.0,434.0
2022-02-09-17:05:23.811172,3.0,11.0,435.0
2022-02-09-17:05:23.812169,6.0,3.0,434.0
2022-02-09-17:05:23.813167,6.0,3.0,434.0
2022-02-09-17:05:23.814164,6.0,3.0,434.0
2022-02-09-17:05:23.815161,7.0,9.0,435.0
2022-02-09-17:05:23.816191,4.0,8.0,435.0
2022-02-09-17:05:23.817156,4.0,8.0,435.0
2022-02-09-17:05:23.818153,4.0,8.0,435.0
2022-02-09-17:05:23.819185,7.0,3.0,434.0
2022-02-09-17:05:23.820148,4.0,8.0,435.0
2022-02-09-17:05:23.821145,0.0,12.0,434.0
2022-02-09-17:05:23.822143,0.0,12.0,434.0
2022-02-09-17:05:23.823140,0.0,12.0,434.0
2022-02-09-17:05:23.824137,1.0,10.0,435.0
2022-02-09-17:05:23.825135,2.0,7.0,434.0
2022-02-09-17:05:23.827163,2.0,7.0,434.0
2022-02-09-17:05:23.827163,2.0,7.0,434.0
2022-02-09-17:05:23.828127,3.0,5.0,434.0
2022-02-09-17:05:23.829124,3.0,5.0,434.0
2022-02-09-17:05:23.830122,3.0,5.0,434.0
2022-02-09-17:05:23.831153,3.0,5.0,434.0
2022-02-09-17:05:23.832116,3.0,5.0,434.0
2022-02-09-17:05:23.833113,8.0,10.0,434.0
2022-02-09-17:05:23.834111,8.0,10.0,434.0
2022-02-09-17:05:23.835108,8.0,10.0,434.0
2022-02-09-17:05:23.836105,4.0,5.0,434.0
2022-02-09-17:05:23.837103,1.0,10.0,434.0
2022-02-09-17:05:23.838100,1.0,10.0,434.0
2022-02-09-17:05:23.839097,1.0,10.0,434.0
2022-02-09-17:05:23.840095,4.0,2.0,434.0
2022-02-09-17:05:23.841092,2.0,5.0,435.0
2022-02-09-17:05:23.842089,2.0,5.0,435.0
2022-02-09-17:05:23.843087,2.0,5.0,435.0
2022-02-09-17:05:23.844084,5.0,3.0,435.0
2022-02-09-17:05:23.845081,5.0,3.0,435.0
2022-02-09-17:05:23.846079,5.0,3.0,435.0
2022-02-09-17:05:23.847076,5.0,3.0,435.0
2022-02-09-17:05:23.848074,7.0,14.0,435.0
2022-02-09-17:05:23.849071,7.0,10.0,434.0
2022-02-09-17:05:23.850103,7.0,10.0,434.0
2022-02-09-17:05:23.851065,7.0,10.0,434.0
2022-02-09-17:05:23.852063,6.0,8.0,435.0
2022-02-09-17:05:23.853060,4.0,5.0,435.0
2022-02-09-17:05:23.854057,4.0,5.0,435.0
2022-02-09-17:05:23.855055,4.0,5.0,435.0
2022-02-09-17:05:23.856052,2.0,7.0,435.0
2022-02-09-17:05:23.857049,5.0,6.0,435.0
2022-02-09-17:05:23.858047,5.0,6.0,435.0
2022-02-09-17:05:23.859044,5.0,6.0,435.0
2022-02-09-17:05:23.861073,4.0,6.0,435.0
2022-02-09-17:05:23.861073,3.0,3.0,434.0
2022-02-09-17:05:23.862036,3.0,3.0,434.0
2022-02-09-17:05:23.863033,3.0,3.0,434.0
2022-02-09-17:05:23.864031,3.0,3.0,434.0
2022-02-09-17:05:23.865064,8.0,10.0,434.0
2022-02-09-17:05:23.866025,6.0,16.0,434.0
2022-02-09-17:05:23.867023,6.0,16.0,434.0
2022-02-09-17:05:23.868020,6.0,16.0,434.0
2022-02-09-17:05:23.869017,5.0,3.0,434.0
2022-02-09-17:05:23.870015,6.0,2.0,435.0
2022-02-09-17:05:23.871012,6.0,2.0,435.0
2022-02-09-17:05:23.872009,6.0,2.0,435.0
2022-02-09-17:05:23.873007,4.0,7.0,435.0
2022-02-09-17:05:23.874004,6.0,2.0,435.0
2022-02-09-17:05:23.875001,6.0,2.0,435.0
2022-02-09-17:05:23.875999,6.0,2.0,435.0
2022-02-09-17:05:23.876996,5.0,1.0,434.0
2022-02-09-17:05:23.877993,4.0,4.0,434.0
2022-02-09-17:05:23.878991,4.0,4.0,434.0
2022-02-09-17:05:23.879988,4.0,4.0,434.0
2022-02-09-17:05:23.881021,1.0,9.0,435.0
2022-02-09-17:05:23.882016,4.0,15.0,435.0
2022-02-09-17:05:23.882980,4.0,15.0,435.0
2022-02-09-17:05:23.883977,4.0,15.0,435.0
2022-02-09-17:05:23.884975,4.0,7.0,435.0
2022-02-09-17:05:23.885972,3.0,1.0,434.0
2022-02-09-17:05:23.886969,3.0,1.0,434.0
2022-02-09-17:05:23.887967,3.0,1.0,434.0
2022-02-09-17:05:23.888964,2.0,0.0,435.0
2022-02-09-17:05:23.889961,4.0,4.0,434.0
2022-02-09-17:05:23.890959,4.0,4.0,434.0
2022-02-09-17:05:23.891956,4.0,4.0,434.0
2022-02-09-17:05:23.892953,7.0,2.0,434.0
2022-02-09-17:05:23.893951,5.0,5.0,434.0
2022-02-09-17:05:23.896001,4.0,2.0,434.0
2022-02-09-17:05:23.896001,4.0,2.0,434.0
2022-02-09-17:05:23.896943,8.0,13.0,434.0
2022-02-09-17:05:23.897997,8.0,13.0,434.0
2022-02-09-17:05:23.898937,8.0,13.0,434.0
2022-02-09-17:05:23.899935,8.0,13.0,434.0
2022-02-09-17:05:23.900932,8.0,13.0,434.0
2022-02-09-17:05:23.901929,6.0,10.0,435.0
2022-02-09-17:05:23.902927,5.0,3.0,434.0
2022-02-09-17:05:23.903924,5.0,3.0,434.0
2022-02-09-17:05:23.904921,5.0,3.0,434.0
2022-02-09-17:05:23.905919,4.0,5.0,434.0
2022-02-09-17:05:23.906916,6.0,3.0,435.0
2022-02-09-17:05:23.907913,6.0,3.0,435.0
2022-02-09-17:05:23.908911,6.0,3.0,435.0
2022-02-09-17:05:23.909908,5.0,5.0,434.0
2022-02-09-17:05:23.910905,7.0,4.0,434.0
2022-02-09-17:05:23.911903,7.0,4.0,434.0
2022-02-09-17:05:23.912900,7.0,4.0,434.0
2022-02-09-17:05:23.913898,3.0,7.0,434.0
2022-02-09-17:05:23.914895,4.0,14.0,435.0
2022-02-09-17:05:23.915892,4.0,14.0,435.0
2022-02-09-17:05:23.916889,4.0,14.0,435.0
2022-02-09-17:05:23.917887,6.0,10.0,435.0
2022-02-09-17:05:23.918884,7.0,6.0,435.0
2022-02-09-17:05:23.919881,7.0,6.0,435.0
2022-02-09-17:05:23.920879,7.0,6.0,435.0
2022-02-09-17:05:23.921876,3.0,7.0,434.0
2022-02-09-17:05:23.922873,8.0,6.0,434.0
2022-02-09-17:05:23.923871,8.0,6.0,434.0
2022-02-09-17:05:23.924868,8.0,6.0,434.0
2022-02-09-17:05:23.925865,7.0,5.0,434.0
2022-02-09-17:05:23.926863,3.0,6.0,434.0
2022-02-09-17:05:23.928857,3.0,6.0,434.0
2022-02-09-17:05:23.928857,3.0,6.0,434.0
2022-02-09-17:05:23.929891,3.0,6.0,434.0
2022-02-09-17:05:23.930852,2.0,10.0,435.0
2022-02-09-17:05:23.931849,2.0,10.0,435.0
2022-02-09-17:05:23.932847,2.0,10.0,435.0
2022-02-09-17:05:23.933844,2.0,10.0,435.0
2022-02-09-17:05:23.934841,7.0,3.0,435.0
2022-02-09-17:05:23.935839,7.0,3.0,435.0
2022-02-09-17:05:23.936836,7.0,3.0,435.0
2022-02-09-17:05:23.937833,7.0,3.0,435.0
2022-02-09-17:05:23.938831,4.0,10.0,434.0
2022-02-09-17:05:23.939828,6.0,12.0,435.0
2022-02-09-17:05:23.940827,6.0,12.0,435.0
2022-02-09-17:05:23.941823,6.0,12.0,435.0
2022-02-09-17:05:23.942820,5.0,13.0,434.0
2022-02-09-17:05:23.943817,2.0,8.0,435.0
2022-02-09-17:05:23.944815,2.0,8.0,435.0
2022-02-09-17:05:23.945812,2.0,8.0,435.0
2022-02-09-17:05:23.946865,6.0,4.0,434.0
2022-02-09-17:05:23.947807,3.0,3.0,435.0
2022-02-09-17:05:23.948804,3.0,3.0,435.0
2022-02-09-17:05:23.949801,3.0,3.0,435.0
2022-02-09-17:05:23.950799,2.0,7.0,434.0
2022-02-09-17:05:23.951796,5.0,2.0,434.0
2022-02-09-17:05:23.952793,5.0,2.0,434.0
2022-02-09-17:05:23.953791,5.0,2.0,434.0
2022-02-09-17:05:23.954788,7.0,15.0,434.0
2022-02-09-17:05:23.955785,8.0,13.0,434.0
2022-02-09-17:05:23.956783,8.0,13.0,434.0
2022-02-09-17:05:23.957780,8.0,13.0,434.0
2022-02-09-17:05:23.958777,2.0,14.0,435.0
2022-02-09-17:05:23.959775,6.0,8.0,434.0
2022-02-09-17:05:23.960772,6.0,8.0,434.0
2022-02-09-17:05:23.961769,6.0,8.0,434.0
2022-02-09-17:05:23.963764,6.0,9.0,434.0
2022-02-09-17:05:23.963764,6.0,2.0,434.0
2022-02-09-17:05:23.964761,6.0,2.0,434.0
2022-02-09-17:05:23.965759,6.0,2.0,434.0
2022-02-09-17:05:23.966756,5.0,4.0,434.0
2022-02-09-17:05:23.967753,7.0,1.0,434.0
2022-02-09-17:05:23.968751,7.0,1.0,434.0
2022-02-09-17:05:23.969748,7.0,1.0,434.0
2022-02-09-17:05:23.970745,6.0,4.0,435.0
2022-02-09-17:05:23.971743,5.0,19.0,434.0
2022-02-09-17:05:23.972740,5.0,19.0,434.0
2022-02-09-17:05:23.973737,5.0,19.0,434.0
2022-02-09-17:05:23.974735,5.0,19.0,434.0
2022-02-09-17:05:23.975792,7.0,15.0,434.0
2022-02-09-17:05:23.976784,4.0,16.0,435.0
2022-02-09-17:05:23.977727,4.0,16.0,435.0
2022-02-09-17:05:23.978780,4.0,16.0,435.0
2022-02-09-17:05:23.979721,3.0,2.0,435.0
2022-02-09-17:05:23.980779,3.0,2.0,435.0
2022-02-09-17:05:23.981716,3.0,2.0,435.0
2022-02-09-17:05:23.982713,3.0,2.0,435.0
2022-02-09-17:05:23.983767,6.0,8.0,434.0
2022-02-09-17:05:23.984708,5.0,4.0,434.0
2022-02-09-17:05:23.985705,5.0,4.0,434.0
2022-02-09-17:05:23.986703,5.0,4.0,434.0
2022-02-09-17:05:23.987756,4.0,19.0,435.0
2022-02-09-17:05:23.988697,6.0,19.0,434.0
2022-02-09-17:05:23.989695,6.0,19.0,434.0
2022-02-09-17:05:23.990692,6.0,19.0,434.0
2022-02-09-17:05:23.991746,5.0,14.0,434.0
2022-02-09-17:05:23.992687,6.0,12.0,435.0
2022-02-09-17:05:23.993684,6.0,12.0,435.0
2022-02-09-17:05:23.994681,6.0,12.0,435.0
2022-02-09-17:05:23.995679,3.0,12.0,434.0
2022-02-09-17:05:23.996710,4.0,4.0,434.0
2022-02-09-17:05:23.997709,4.0,4.0,434.0
2022-02-09-17:05:23.999703,4.0,4.0,434.0
2022-02-09-17:05:23.999703,8.0,5.0,434.0
2022-02-09-17:05:24.000700,4.0,4.0,434.0
2022-02-09-17:05:24.001667,4.0,4.0,434.0
2022-02-09-17:05:24.002694,4.0,4.0,434.0
2022-02-09-17:05:24.003678,3.0,2.0,435.0
2022-02-09-17:05:24.004666,6.0,13.0,434.0
2022-02-09-17:05:24.005652,6.0,13.0,434.0
2022-02-09-17:05:24.006649,6.0,13.0,434.0
2022-02-09-17:05:24.007674,6.0,13.0,434.0
2022-02-09-17:05:24.008671,5.0,10.0,435.0
2022-02-09-17:05:24.009641,5.0,10.0,435.0
2022-02-09-17:05:24.010638,5.0,10.0,435.0
2022-02-09-17:05:24.011636,5.0,10.0,435.0
2022-02-09-17:05:24.012634,7.0,1.0,435.0
2022-02-09-17:05:24.013647,7.0,1.0,435.0
2022-02-09-17:05:24.014662,7.0,1.0,435.0
2022-02-09-17:05:24.015625,7.0,1.0,435.0
2022-02-09-17:05:24.016658,7.0,9.0,435.0
2022-02-09-17:05:24.017654,4.0,3.0,435.0
2022-02-09-17:05:24.018617,4.0,3.0,435.0
2022-02-09-17:05:24.019615,4.0,3.0,435.0
2022-02-09-17:05:24.020646,6.0,11.0,435.0
2022-02-09-17:05:24.021609,5.0,15.0,434.0
2022-02-09-17:05:24.022607,5.0,15.0,434.0
2022-02-09-17:05:24.023604,5.0,15.0,434.0
2022-02-09-17:05:24.024637,5.0,14.0,434.0
2022-02-09-17:05:24.025634,4.0,12.0,435.0
2022-02-09-17:05:24.026596,4.0,12.0,435.0
2022-02-09-17:05:24.027632,4.0,12.0,435.0
2022-02-09-17:05:24.028625,3.0,11.0,435.0
2022-02-09-17:05:24.029588,2.0,5.0,435.0
2022-02-09-17:05:24.030585,2.0,5.0,435.0
2022-02-09-17:05:24.032580,2.0,5.0,435.0
2022-02-09-17:05:24.032580,9.0,7.0,435.0
2022-02-09-17:05:24.033611,7.0,5.0,434.0
2022-02-09-17:05:24.034575,7.0,5.0,434.0
2022-02-09-17:05:24.035572,7.0,5.0,434.0
2022-02-09-17:05:24.036604,3.0,16.0,435.0
2022-02-09-17:05:24.037567,1.0,17.0,434.0
2022-02-09-17:05:24.038564,1.0,17.0,434.0
2022-02-09-17:05:24.039561,1.0,17.0,434.0
2022-02-09-17:05:24.040603,8.0,14.0,434.0
2022-02-09-17:05:24.041590,1.0,16.0,434.0
2022-02-09-17:05:24.042553,1.0,16.0,434.0
2022-02-09-17:05:24.043551,1.0,16.0,434.0
2022-02-09-17:05:24.044548,1.0,16.0,434.0
2022-02-09-17:05:24.045581,5.0,2.0,434.0
2022-02-09-17:05:24.046578,5.0,2.0,434.0
2022-02-09-17:05:24.046952,5.0,2.0,434.0
2022-02-09-17:05:24.047541,5.0,2.0,434.0
2022-02-09-17:05:24.048538,5.0,2.0,434.0
2022-02-09-17:05:24.049536,6.0,5.0,435.0
2022-02-09-17:05:24.050566,4.0,6.0,434.0
2022-02-09-17:05:24.051529,4.0,6.0,434.0
2022-02-09-17:05:24.052527,4.0,6.0,434.0
2022-02-09-17:05:24.053560,4.0,10.0,434.0
2022-02-09-17:05:24.054555,3.0,16.0,434.0
2022-02-09-17:05:24.055519,3.0,16.0,434.0
2022-02-09-17:05:24.056516,3.0,16.0,434.0
2022-02-09-17:05:24.057547,3.0,14.0,435.0
2022-02-09-17:05:24.058546,3.0,10.0,435.0
2022-02-09-17:05:24.059508,3.0,10.0,435.0
2022-02-09-17:05:24.060505,3.0,10.0,435.0
2022-02-09-17:05:24.061538,5.0,11.0,434.0
2022-02-09-17:05:24.062534,3.0,9.0,434.0
2022-02-09-17:05:24.065492,3.0,9.0,434.0
2022-02-09-17:05:24.065492,3.0,3.0,434.0
2022-02-09-17:05:24.066489,6.0,8.0,435.0
2022-02-09-17:05:24.067487,6.0,8.0,435.0
2022-02-09-17:05:24.068484,6.0,8.0,435.0
2022-02-09-17:05:24.069481,7.0,2.0,434.0
2022-02-09-17:05:24.070535,2.0,10.0,434.0
2022-02-09-17:05:24.070895,2.0,10.0,434.0
2022-02-09-17:05:24.071137,2.0,10.0,434.0
2022-02-09-17:05:24.071137,2.0,10.0,434.0
2022-02-09-17:05:24.072312,2.0,10.0,434.0
2022-02-09-17:05:24.072312,2.0,13.0,435.0
2022-02-09-17:05:24.073346,1.0,12.0,435.0
2022-02-09-17:05:24.074344,1.0,12.0,435.0
2022-02-09-17:05:24.075340,1.0,12.0,435.0
2022-02-09-17:05:24.076337,1.0,12.0,435.0
2022-02-09-17:05:24.077642,6.0,11.0,435.0
2022-02-09-17:05:24.077642,5.0,8.0,434.0
2022-02-09-17:05:24.078641,5.0,8.0,434.0
2022-02-09-17:05:24.079638,5.0,8.0,434.0
2022-02-09-17:05:24.080636,5.0,8.0,434.0
2022-02-09-17:05:24.081634,3.0,10.0,435.0
2022-02-09-17:05:24.082630,3.0,10.0,435.0
2022-02-09-17:05:24.083628,3.0,10.0,435.0
2022-02-09-17:05:24.084625,3.0,10.0,435.0
2022-02-09-17:05:24.085659,7.0,8.0,434.0
2022-02-09-17:05:24.086620,5.0,9.0,435.0
2022-02-09-17:05:24.087617,5.0,9.0,435.0
2022-02-09-17:05:24.088614,5.0,9.0,435.0
2022-02-09-17:05:24.089612,5.0,9.0,435.0
2022-02-09-17:05:24.090609,7.0,9.0,435.0
2022-02-09-17:05:24.091606,7.0,9.0,435.0
2022-02-09-17:05:24.092604,7.0,9.0,435.0
2022-02-09-17:05:24.093601,7.0,9.0,435.0
2022-02-09-17:05:24.094598,3.0,8.0,435.0
2022-02-09-17:05:24.095596,3.0,8.0,435.0
2022-02-09-17:05:24.096593,3.0,8.0,435.0
2022-02-09-17:05:24.097590,3.0,8.0,435.0
2022-02-09-17:05:24.099618,5.0,10.0,434.0
2022-02-09-17:05:24.099618,5.0,10.0,434.0
2022-02-09-17:05:24.100582,5.0,10.0,434.0
2022-02-09-17:05:24.101580,5.0,10.0,434.0
2022-02-09-17:05:24.102577,6.0,4.0,434.0
2022-02-09-17:05:24.103574,3.0,13.0,434.0
2022-02-09-17:05:24.104572,3.0,13.0,434.0
2022-02-09-17:05:24.105569,3.0,13.0,434.0
2022-02-09-17:05:24.106566,6.0,9.0,435.0
2022-02-09-17:05:24.107564,4.0,9.0,434.0
2022-02-09-17:05:24.108561,4.0,9.0,434.0
2022-02-09-17:05:24.109558,4.0,9.0,434.0
2022-02-09-17:05:24.110556,7.0,7.0,434.0
2022-02-09-17:05:24.111553,4.0,6.0,434.0
2022-02-09-17:05:24.112550,4.0,6.0,434.0
2022-02-09-17:05:24.113548,4.0,6.0,434.0
2022-02-09-17:05:24.114545,8.0,7.0,435.0
2022-02-09-17:05:24.115542,8.0,7.0,435.0
2022-02-09-17:05:24.116540,8.0,7.0,435.0
2022-02-09-17:05:24.117537,8.0,7.0,435.0
2022-02-09-17:05:24.118534,5.0,0.0,435.0
2022-02-09-17:05:24.119532,3.0,9.0,434.0
2022-02-09-17:05:24.120529,3.0,9.0,434.0
2022-02-09-17:05:24.121526,3.0,9.0,434.0
2022-02-09-17:05:24.122524,4.0,8.0,435.0
2022-02-09-17:05:24.123521,3.0,9.0,434.0
2022-02-09-17:05:24.124518,3.0,9.0,434.0
2022-02-09-17:05:24.125516,3.0,9.0,434.0
2022-02-09-17:05:24.126513,4.0,7.0,435.0
2022-02-09-17:05:24.127510,3.0,7.0,435.0
2022-02-09-17:05:24.128508,3.0,7.0,435.0
2022-02-09-17:05:24.129505,3.0,7.0,435.0
2022-02-09-17:05:24.130537,3.0,7.0,435.0
2022-02-09-17:05:24.132530,8.0,11.0,434.0
2022-02-09-17:05:24.132530,8.0,11.0,434.0
2022-02-09-17:05:24.133494,8.0,11.0,434.0
2022-02-09-17:05:24.134492,8.0,11.0,434.0
2022-02-09-17:05:24.135489,7.0,8.0,434.0
2022-02-09-17:05:24.136486,4.0,6.0,434.0
2022-02-09-17:05:24.137484,4.0,6.0,434.0
2022-02-09-17:05:24.138481,4.0,6.0,434.0
2022-02-09-17:05:24.139478,3.0,8.0,434.0
2022-02-09-17:05:24.140476,4.0,9.0,435.0
2022-02-09-17:05:24.141473,4.0,9.0,435.0
2022-02-09-17:05:24.142470,4.0,9.0,435.0
2022-02-09-17:05:24.143468,1.0,7.0,435.0
2022-02-09-17:05:24.144465,2.0,6.0,434.0
2022-02-09-17:05:24.145462,2.0,6.0,434.0
2022-02-09-17:05:24.146460,2.0,6.0,434.0
2022-02-09-17:05:24.147457,2.0,1.0,434.0
2022-02-09-17:05:24.148487,6.0,13.0,435.0
2022-02-09-17:05:24.149452,6.0,13.0,435.0
2022-02-09-17:05:24.150449,6.0,13.0,435.0
2022-02-09-17:05:24.151481,4.0,6.0,435.0
2022-02-09-17:05:24.152444,7.0,2.0,434.0
2022-02-09-17:05:24.153441,7.0,2.0,434.0
2022-02-09-17:05:24.154438,7.0,2.0,434.0
2022-02-09-17:05:24.155436,7.0,7.0,434.0
2022-02-09-17:05:24.156433,5.0,10.0,435.0
2022-02-09-17:05:24.157430,5.0,10.0,435.0
2022-02-09-17:05:24.158428,5.0,10.0,435.0
2022-02-09-17:05:24.159425,5.0,8.0,435.0
2022-02-09-17:05:24.160422,4.0,6.0,434.0
2022-02-09-17:05:24.161420,4.0,6.0,434.0
2022-02-09-17:05:24.162417,4.0,6.0,434.0
2022-02-09-17:05:24.163414,8.0,10.0,434.0
2022-02-09-17:05:24.164412,8.0,10.0,434.0
2022-02-09-17:05:24.166439,8.0,10.0,434.0
2022-02-09-17:05:24.166439,8.0,10.0,434.0
2022-02-09-17:05:24.167404,7.0,1.0,434.0
2022-02-09-17:05:24.168401,7.0,1.0,434.0
2022-02-09-17:05:24.169398,7.0,1.0,434.0
2022-02-09-17:05:24.170396,7.0,1.0,434.0
2022-02-09-17:05:24.171393,7.0,1.0,434.0
2022-02-09-17:05:24.172390,2.0,10.0,434.0
2022-02-09-17:05:24.173388,4.0,7.0,435.0
2022-02-09-17:05:24.174385,4.0,7.0,435.0
2022-02-09-17:05:24.175382,4.0,7.0,435.0
2022-02-09-17:05:24.176380,4.0,10.0,434.0
2022-02-09-17:05:24.177377,8.0,18.0,434.0
2022-02-09-17:05:24.178374,8.0,18.0,434.0
2022-02-09-17:05:24.179372,8.0,18.0,434.0
2022-02-09-17:05:24.180369,4.0,1.0,435.0
2022-02-09-17:05:24.181367,6.0,6.0,434.0
2022-02-09-17:05:24.182364,6.0,6.0,434.0
2022-02-09-17:05:24.183361,6.0,6.0,434.0
2022-02-09-17:05:24.184358,4.0,9.0,434.0
2022-02-09-17:05:24.185356,6.0,1.0,435.0
2022-02-09-17:05:24.186353,6.0,1.0,435.0
2022-02-09-17:05:24.187350,6.0,1.0,435.0
2022-02-09-17:05:24.188348,4.0,11.0,434.0
2022-02-09-17:05:24.189345,7.0,14.0,434.0
2022-02-09-17:05:24.190342,7.0,14.0,434.0
2022-02-09-17:05:24.191340,7.0,14.0,434.0
2022-02-09-17:05:24.192337,4.0,13.0,434.0
2022-02-09-17:05:24.193334,5.0,9.0,434.0
2022-02-09-17:05:24.194332,5.0,9.0,434.0
2022-02-09-17:05:24.195363,5.0,9.0,434.0
2022-02-09-17:05:24.195363,5.0,13.0,435.0
2022-02-09-17:05:24.196393,5.0,2.0,434.0
2022-02-09-17:05:24.197360,5.0,2.0,434.0
2022-02-09-17:05:24.198357,5.0,2.0,434.0
2022-02-09-17:05:24.200351,5.0,2.0,434.0
2022-02-09-17:05:24.200351,7.0,1.0,435.0
2022-02-09-17:05:24.201348,7.0,1.0,435.0
2022-02-09-17:05:24.202346,7.0,1.0,435.0
2022-02-09-17:05:24.203343,7.0,1.0,435.0
2022-02-09-17:05:24.204340,2.0,12.0,434.0
2022-02-09-17:05:24.205338,2.0,12.0,434.0
2022-02-09-17:05:24.206335,2.0,12.0,434.0
2022-02-09-17:05:24.207526,2.0,12.0,434.0
2022-02-09-17:05:24.207526,5.0,13.0,434.0
2022-02-09-17:05:24.208526,4.0,10.0,435.0
2022-02-09-17:05:24.209523,4.0,10.0,435.0
2022-02-09-17:05:24.210700,4.0,10.0,435.0
2022-02-09-17:05:24.210928,4.0,10.0,435.0
2022-02-09-17:05:24.210928,4.0,10.0,435.0
2022-02-09-17:05:24.211927,4.0,10.0,435.0
2022-02-09-17:05:24.212925,4.0,8.0,435.0
2022-02-09-17:05:24.213922,6.0,1.0,434.0
2022-02-09-17:05:24.214954,6.0,1.0,434.0
2022-02-09-17:05:24.215917,6.0,1.0,434.0
2022-02-09-17:05:24.216914,6.0,3.0,435.0
2022-02-09-17:05:24.217911,7.0,1.0,435.0
2022-02-09-17:05:24.218909,7.0,1.0,435.0
2022-02-09-17:05:24.219906,7.0,1.0,435.0
2022-02-09-17:05:24.220903,4.0,10.0,434.0
2022-02-09-17:05:24.221901,1.0,16.0,435.0
2022-02-09-17:05:24.222898,1.0,16.0,435.0
2022-02-09-17:05:24.223895,1.0,16.0,435.0
2022-02-09-17:05:24.224927,3.0,16.0,435.0
2022-02-09-17:05:24.225890,5.0,15.0,435.0
2022-02-09-17:05:24.226887,5.0,15.0,435.0
2022-02-09-17:05:24.227885,5.0,15.0,435.0
2022-02-09-17:05:24.228882,6.0,13.0,434.0
2022-02-09-17:05:24.229879,7.0,3.0,435.0
2022-02-09-17:05:24.230877,7.0,3.0,435.0
2022-02-09-17:05:24.231874,7.0,3.0,435.0
2022-02-09-17:05:24.233903,5.0,5.0,434.0
2022-02-09-17:05:24.233903,7.0,2.0,434.0
2022-02-09-17:05:24.234866,7.0,2.0,434.0
2022-02-09-17:05:24.235863,7.0,2.0,434.0
2022-02-09-17:05:24.236861,7.0,2.0,434.0
2022-02-09-17:05:24.237858,1.0,16.0,434.0
2022-02-09-17:05:24.238855,2.0,13.0,434.0
2022-02-09-17:05:24.239853,2.0,13.0,434.0
2022-02-09-17:05:24.240850,2.0,13.0,434.0
2022-02-09-17:05:24.241847,3.0,12.0,434.0
2022-02-09-17:05:24.242845,4.0,14.0,434.0
2022-02-09-17:05:24.243842,4.0,14.0,434.0
2022-02-09-17:05:24.244839,4.0,14.0,434.0
2022-02-09-17:05:24.245837,3.0,4.0,434.0
2022-02-09-17:05:24.246834,4.0,4.0,435.0
2022-02-09-17:05:24.247831,4.0,4.0,435.0
2022-02-09-17:05:24.248829,4.0,4.0,435.0
2022-02-09-17:05:24.249860,3.0,3.0,435.0
2022-02-09-17:05:24.250823,3.0,3.0,435.0
2022-02-09-17:05:24.251821,3.0,3.0,435.0
2022-02-09-17:05:24.252818,3.0,3.0,435.0
2022-02-09-17:05:24.253815,5.0,13.0,435.0
2022-02-09-17:05:24.254868,4.0,13.0,434.0
2022-02-09-17:05:24.255810,4.0,13.0,434.0
2022-02-09-17:05:24.256807,4.0,13.0,434.0
2022-02-09-17:05:24.257805,5.0,10.0,434.0
2022-02-09-17:05:24.258802,6.0,9.0,434.0
2022-02-09-17:05:24.259799,6.0,9.0,434.0
2022-02-09-17:05:24.260797,6.0,9.0,434.0
2022-02-09-17:05:24.261794,1.0,9.0,435.0
2022-02-09-17:05:24.262791,3.0,2.0,434.0
2022-02-09-17:05:24.263789,3.0,2.0,434.0
2022-02-09-17:05:24.264786,3.0,2.0,434.0
2022-02-09-17:05:24.265783,8.0,8.0,435.0
2022-02-09-17:05:24.266815,3.0,6.0,435.0
2022-02-09-17:05:24.268831,3.0,6.0,435.0
2022-02-09-17:05:24.268831,6.0,13.0,435.0
2022-02-09-17:05:24.269773,2.0,11.0,434.0
2022-02-09-17:05:24.270770,2.0,11.0,434.0
2022-02-09-17:05:24.271767,2.0,11.0,434.0
2022-02-09-17:05:24.272765,2.0,11.0,434.0
2022-02-09-17:05:24.273762,2.0,11.0,434.0
2022-02-09-17:05:24.274759,3.0,9.0,435.0
2022-02-09-17:05:24.275757,4.0,8.0,434.0
2022-02-09-17:05:24.276754,4.0,8.0,434.0
2022-02-09-17:05:24.277751,4.0,8.0,434.0
2022-02-09-17:05:24.278749,3.0,6.0,434.0
2022-02-09-17:05:24.279746,3.0,3.0,435.0
2022-02-09-17:05:24.280743,3.0,3.0,435.0
2022-02-09-17:05:24.281741,3.0,3.0,435.0
2022-02-09-17:05:24.282738,6.0,11.0,435.0
2022-02-09-17:05:24.283735,7.0,8.0,434.0
2022-02-09-17:05:24.284733,7.0,8.0,434.0
2022-02-09-17:05:24.285730,7.0,8.0,434.0
2022-02-09-17:05:24.286727,4.0,10.0,435.0
2022-02-09-17:05:24.287725,2.0,12.0,435.0
2022-02-09-17:05:24.288722,2.0,12.0,435.0
2022-02-09-17:05:24.289719,2.0,12.0,435.0
2022-02-09-17:05:24.290717,5.0,10.0,435.0
2022-02-09-17:05:24.291714,2.0,10.0,434.0
2022-02-09-17:05:24.292711,2.0,10.0,434.0
2022-02-09-17:05:24.293709,2.0,10.0,434.0
2022-02-09-17:05:24.294706,3.0,6.0,435.0
2022-02-09-17:05:24.295703,5.0,3.0,434.0
2022-02-09-17:05:24.296701,5.0,3.0,434.0
2022-02-09-17:05:24.297698,5.0,3.0,434.0
2022-02-09-17:05:24.298695,4.0,11.0,435.0
2022-02-09-17:05:24.299693,8.0,5.0,434.0
2022-02-09-17:05:24.300690,8.0,5.0,434.0
2022-02-09-17:05:24.302685,8.0,5.0,434.0
2022-02-09-17:05:24.302685,3.0,11.0,434.0
2022-02-09-17:05:24.303682,3.0,11.0,434.0
2022-02-09-17:05:24.304679,3.0,11.0,434.0
2022-02-09-17:05:24.305677,3.0,11.0,434.0
2022-02-09-17:05:24.306674,3.0,11.0,434.0
2022-02-09-17:05:24.307671,2.0,8.0,435.0
2022-02-09-17:05:24.308669,2.0,8.0,435.0
2022-02-09-17:05:24.309666,2.0,8.0,435.0
2022-02-09-17:05:24.310663,2.0,8.0,435.0
2022-02-09-17:05:24.311661,3.0,11.0,434.0
2022-02-09-17:05:24.312658,3.0,7.0,434.0
2022-02-09-17:05:24.313655,3.0,7.0,434.0
2022-02-09-17:05:24.314653,3.0,7.0,434.0
2022-02-09-17:05:24.315650,7.0,8.0,435.0
2022-02-09-17:05:24.316647,6.0,9.0,434.0
2022-02-09-17:05:24.317645,6.0,9.0,434.0
2022-02-09-17:05:24.318642,6.0,9.0,434.0
2022-02-09-17:05:24.319639,5.0,9.0,434.0
2022-02-09-17:05:24.320637,5.0,9.0,434.0
2022-02-09-17:05:24.321634,5.0,9.0,434.0
2022-02-09-17:05:24.322631,5.0,9.0,434.0
2022-02-09-17:05:24.323629,5.0,13.0,435.0
2022-02-09-17:05:24.324626,2.0,13.0,434.0
2022-02-09-17:05:24.325623,2.0,13.0,434.0
2022-02-09-17:05:24.326621,2.0,13.0,434.0
2022-02-09-17:05:24.327618,6.0,11.0,434.0
2022-02-09-17:05:24.328615,4.0,6.0,434.0
2022-02-09-17:05:24.329613,4.0,6.0,434.0
2022-02-09-17:05:24.330610,4.0,6.0,434.0
2022-02-09-17:05:24.331607,8.0,12.0,434.0
2022-02-09-17:05:24.332638,7.0,12.0,434.0
2022-02-09-17:05:24.333602,7.0,12.0,434.0
2022-02-09-17:05:24.334600,7.0,12.0,434.0
2022-02-09-17:05:24.336596,4.0,5.0,435.0
2022-02-09-17:05:24.336596,6.0,12.0,435.0
2022-02-09-17:05:24.337591,6.0,12.0,435.0
2022-02-09-17:05:24.338649,6.0,12.0,435.0
2022-02-09-17:05:24.338915,0.0,9.0,435.0
2022-02-09-17:05:24.339420,7.0,10.0,434.0
2022-02-09-17:05:24.339663,7.0,10.0,434.0
2022-02-09-17:05:24.339898,7.0,10.0,434.0
2022-02-09-17:05:24.339898,7.0,10.0,434.0
2022-02-09-17:05:24.340898,7.0,10.0,434.0
2022-02-09-17:05:24.341936,7.0,10.0,434.0
2022-02-09-17:05:24.342334,7.0,10.0,434.0
2022-02-09-17:05:24.342576,7.0,10.0,434.0
2022-02-09-17:05:24.342576,7.0,10.0,434.0
2022-02-09-17:05:24.343610,5.0,11.0,435.0
2022-02-09-17:05:24.344607,5.0,11.0,435.0
2022-02-09-17:05:24.345604,5.0,11.0,435.0
2022-02-09-17:05:24.346603,5.0,11.0,435.0
2022-02-09-17:05:24.347599,6.0,4.0,434.0
2022-02-09-17:05:24.348599,5.0,9.0,435.0
2022-02-09-17:05:24.349595,5.0,9.0,435.0
2022-02-09-17:05:24.350591,5.0,9.0,435.0
2022-02-09-17:05:24.351589,3.0,12.0,434.0
2022-02-09-17:05:24.352586,3.0,12.0,434.0
2022-02-09-17:05:24.353591,3.0,12.0,434.0
2022-02-09-17:05:24.354580,3.0,12.0,434.0
2022-02-09-17:05:24.355577,3.0,12.0,434.0
2022-02-09-17:05:24.356575,2.0,10.0,434.0
2022-02-09-17:05:24.357573,8.0,13.0,434.0
2022-02-09-17:05:24.358569,8.0,13.0,434.0
2022-02-09-17:05:24.359567,8.0,13.0,434.0
2022-02-09-17:05:24.360565,4.0,13.0,435.0
2022-02-09-17:05:24.361569,4.0,9.0,434.0
2022-02-09-17:05:24.362561,4.0,9.0,434.0
2022-02-09-17:05:24.363556,4.0,9.0,434.0
2022-02-09-17:05:24.364520,7.0,0.0,434.0
2022-02-09-17:05:24.365552,7.0,9.0,434.0
2022-02-09-17:05:24.366548,7.0,9.0,434.0
2022-02-09-17:05:24.367546,7.0,9.0,434.0
2022-02-09-17:05:24.368543,10.0,4.0,435.0
2022-02-09-17:05:24.369541,4.0,9.0,434.0
2022-02-09-17:05:24.371501,4.0,9.0,434.0
2022-02-09-17:05:24.371501,5.0,13.0,434.0
2022-02-09-17:05:24.372535,6.0,9.0,434.0
2022-02-09-17:05:24.373531,6.0,9.0,434.0
2022-02-09-17:05:24.374527,6.0,9.0,434.0
2022-02-09-17:05:24.375491,6.0,9.0,434.0
2022-02-09-17:05:24.376521,5.0,7.0,434.0
2022-02-09-17:05:24.377527,2.0,4.0,435.0
2022-02-09-17:05:24.378518,2.0,4.0,435.0
2022-02-09-17:05:24.379481,2.0,4.0,435.0
2022-02-09-17:05:24.380511,5.0,7.0,434.0
2022-02-09-17:05:24.381474,5.0,12.0,434.0
2022-02-09-17:05:24.382528,5.0,12.0,434.0
2022-02-09-17:05:24.383524,5.0,12.0,434.0
2022-02-09-17:05:24.384500,6.0,8.0,435.0
2022-02-09-17:05:24.385497,5.0,5.0,434.0
2022-02-09-17:05:24.386495,5.0,5.0,434.0
2022-02-09-17:05:24.387520,5.0,5.0,434.0
2022-02-09-17:05:24.388512,5.0,5.0,434.0
2022-02-09-17:05:24.389488,5.0,12.0,434.0
2022-02-09-17:05:24.390484,4.0,12.0,434.0
2022-02-09-17:05:24.391485,4.0,12.0,434.0
2022-02-09-17:05:24.392479,4.0,12.0,434.0
2022-02-09-17:05:24.393476,3.0,9.0,435.0
2022-02-09-17:05:24.394495,2.0,10.0,435.0
2022-02-09-17:05:24.395495,2.0,10.0,435.0
2022-02-09-17:05:24.396490,2.0,10.0,435.0
2022-02-09-17:05:24.397436,6.0,8.0,435.0
2022-02-09-17:05:24.398468,5.0,7.0,434.0
2022-02-09-17:05:24.399461,5.0,7.0,434.0
2022-02-09-17:05:24.400457,5.0,7.0,434.0
2022-02-09-17:05:24.401455,2.0,4.0,435.0
2022-02-09-17:05:24.402473,6.0,5.0,435.0
2022-02-09-17:05:24.404469,6.0,5.0,435.0
2022-02-09-17:05:24.404469,1.0,13.0,435.0
2022-02-09-17:05:24.405445,5.0,12.0,435.0
2022-02-09-17:05:24.406441,5.0,12.0,435.0
2022-02-09-17:05:24.407440,5.0,12.0,435.0
2022-02-09-17:05:24.408403,5.0,12.0,435.0
2022-02-09-17:05:24.409434,4.0,9.0,435.0
2022-02-09-17:05:24.410431,4.0,9.0,435.0
2022-02-09-17:05:24.411428,4.0,9.0,435.0
2022-02-09-17:05:24.412392,4.0,9.0,435.0
2022-02-09-17:05:24.413423,5.0,2.0,434.0
2022-02-09-17:05:24.414387,5.0,10.0,434.0
2022-02-09-17:05:24.415440,5.0,10.0,434.0
2022-02-09-17:05:24.416397,5.0,10.0,434.0
2022-02-09-17:05:24.417412,3.0,8.0,434.0
2022-02-09-17:05:24.418433,8.0,0.0,435.0
2022-02-09-17:05:24.419431,8.0,0.0,435.0
2022-02-09-17:05:24.420404,8.0,0.0,435.0
2022-02-09-17:05:24.421403,5.0,12.0,435.0
2022-02-09-17:05:24.422399,4.0,12.0,434.0
2022-02-09-17:05:24.423400,4.0,12.0,434.0
2022-02-09-17:05:24.424394,4.0,12.0,434.0
2022-02-09-17:05:24.425390,4.0,12.0,434.0
2022-02-09-17:05:24.426412,4.0,7.0,434.0
2022-02-09-17:05:24.427410,7.0,12.0,434.0
2022-02-09-17:05:24.428405,7.0,12.0,434.0
2022-02-09-17:05:24.429347,7.0,12.0,434.0
2022-02-09-17:05:24.430399,0.0,5.0,434.0
2022-02-09-17:05:24.431397,7.0,9.0,434.0
2022-02-09-17:05:24.432396,7.0,9.0,434.0
2022-02-09-17:05:24.433392,7.0,9.0,434.0
2022-02-09-17:05:24.434388,9.0,14.0,435.0
2022-02-09-17:05:24.435389,7.0,6.0,435.0
2022-02-09-17:05:24.437365,7.0,6.0,435.0
2022-02-09-17:05:24.437365,7.0,6.0,435.0
2022-02-09-17:05:24.438378,5.0,9.0,434.0
2022-02-09-17:05:24.439374,5.0,9.0,434.0
2022-02-09-17:05:24.440372,5.0,9.0,434.0
2022-02-09-17:05:24.441375,5.0,9.0,434.0
2022-02-09-17:05:24.442368,5.0,6.0,434.0
2022-02-09-17:05:24.443367,2.0,7.0,435.0
2022-02-09-17:05:24.444361,2.0,7.0,435.0
2022-02-09-17:05:24.445304,2.0,7.0,435.0
2022-02-09-17:05:24.446301,6.0,3.0,434.0
2022-02-09-17:05:24.447299,6.0,6.0,434.0
2022-02-09-17:05:24.448296,6.0,6.0,434.0
2022-02-09-17:05:24.449293,6.0,6.0,434.0
2022-02-09-17:05:24.450326,5.0,11.0,435.0
2022-02-09-17:05:24.451321,5.0,7.0,434.0
2022-02-09-17:05:24.452319,5.0,7.0,434.0
2022-02-09-17:05:24.453283,5.0,7.0,434.0
2022-02-09-17:05:24.454321,3.0,8.0,434.0
2022-02-09-17:05:24.455278,2.0,8.0,435.0
2022-02-09-17:05:24.456275,2.0,8.0,435.0
2022-02-09-17:05:24.457272,2.0,8.0,435.0
2022-02-09-17:05:24.458268,2.0,8.0,435.0
2022-02-09-17:05:24.459266,3.0,8.0,435.0
2022-02-09-17:05:24.460263,3.0,8.0,435.0
2022-02-09-17:05:24.461260,3.0,8.0,435.0
2022-02-09-17:05:24.462258,3.0,8.0,435.0
2022-02-09-17:05:24.463255,7.0,14.0,434.0
2022-02-09-17:05:24.464252,7.0,14.0,434.0
2022-02-09-17:05:24.465250,7.0,14.0,434.0
2022-02-09-17:05:24.466247,7.0,14.0,434.0
2022-02-09-17:05:24.467244,7.0,8.0,434.0
2022-02-09-17:05:24.468242,8.0,2.0,435.0
2022-02-09-17:05:24.469239,8.0,2.0,435.0
2022-02-09-17:05:24.470236,8.0,2.0,435.0
2022-02-09-17:05:24.471234,4.0,11.0,434.0
2022-02-09-17:05:24.473228,4.0,11.0,434.0
2022-02-09-17:05:24.473228,4.0,11.0,434.0
2022-02-09-17:05:24.474226,3.0,10.0,434.0
2022-02-09-17:05:24.475223,3.0,10.0,434.0
2022-02-09-17:05:24.476220,3.0,10.0,434.0
2022-02-09-17:05:24.477218,3.0,10.0,434.0
2022-02-09-17:05:24.478215,3.0,10.0,434.0
2022-02-09-17:05:24.479247,1.0,6.0,435.0
2022-02-09-17:05:24.480243,1.0,6.0,435.0
2022-02-09-17:05:24.481208,1.0,6.0,435.0
2022-02-09-17:05:24.482239,1.0,6.0,435.0
2022-02-09-17:05:24.483235,6.0,13.0,435.0
2022-02-09-17:05:24.484233,3.0,10.0,435.0
2022-02-09-17:05:24.485231,3.0,10.0,435.0
2022-02-09-17:05:24.486195,3.0,10.0,435.0
2022-02-09-17:05:24.487226,6.0,12.0,435.0
2022-02-09-17:05:24.488222,3.0,14.0,435.0
2022-02-09-17:05:24.489219,3.0,14.0,435.0
2022-02-09-17:05:24.490184,3.0,14.0,435.0
2022-02-09-17:05:24.491214,11.0,19.0,434.0
2022-02-09-17:05:24.492211,7.0,11.0,434.0
2022-02-09-17:05:24.493209,7.0,11.0,434.0
2022-02-09-17:05:24.494194,7.0,11.0,434.0
2022-02-09-17:05:24.495204,4.0,2.0,435.0
2022-02-09-17:05:24.496200,5.0,7.0,434.0
2022-02-09-17:05:24.497198,5.0,7.0,434.0
2022-02-09-17:05:24.498196,5.0,7.0,434.0
2022-02-09-17:05:24.499193,5.0,7.0,434.0
2022-02-09-17:05:24.500190,7.0,10.0,435.0
2022-02-09-17:05:24.501188,7.0,10.0,435.0
2022-02-09-17:05:24.502191,7.0,10.0,435.0
2022-02-09-17:05:24.503183,7.0,10.0,435.0
2022-02-09-17:05:24.504179,7.0,10.0,435.0
2022-02-09-17:05:24.506175,5.0,8.0,434.0
2022-02-09-17:05:24.506175,5.0,8.0,434.0
2022-02-09-17:05:24.507171,7.0,5.0,434.0
2022-02-09-17:05:24.508168,4.0,6.0,434.0
2022-02-09-17:05:24.509167,4.0,6.0,434.0
2022-02-09-17:05:24.510163,4.0,6.0,434.0
2022-02-09-17:05:24.511162,4.0,6.0,434.0
2022-02-09-17:05:24.512158,7.0,8.0,434.0
2022-02-09-17:05:24.513156,7.0,8.0,434.0
2022-02-09-17:05:24.514120,7.0,8.0,434.0
2022-02-09-17:05:24.515150,7.0,8.0,434.0
2022-02-09-17:05:24.516152,7.0,14.0,434.0
2022-02-09-17:05:24.517146,5.0,10.0,434.0
2022-02-09-17:05:24.518141,5.0,10.0,434.0
2022-02-09-17:05:24.519141,5.0,10.0,434.0
2022-02-09-17:05:24.520103,4.0,6.0,434.0
2022-02-09-17:05:24.521100,4.0,8.0,434.0
2022-02-09-17:05:24.522098,4.0,8.0,434.0
2022-02-09-17:05:24.523095,4.0,8.0,434.0
2022-02-09-17:05:24.524092,4.0,4.0,434.0
2022-02-09-17:05:24.525090,3.0,1.0,434.0
2022-02-09-17:05:24.526087,3.0,1.0,434.0
2022-02-09-17:05:24.527084,3.0,1.0,434.0
2022-02-09-17:05:24.528082,7.0,2.0,434.0
2022-02-09-17:05:24.529079,6.0,5.0,434.0
2022-02-09-17:05:24.530077,6.0,5.0,434.0
2022-02-09-17:05:24.531074,6.0,5.0,434.0
2022-02-09-17:05:24.532071,6.0,13.0,434.0
2022-02-09-17:05:24.533068,6.0,15.0,434.0
2022-02-09-17:05:24.534066,6.0,15.0,434.0
2022-02-09-17:05:24.535063,6.0,15.0,434.0
2022-02-09-17:05:24.536061,6.0,15.0,434.0
2022-02-09-17:05:24.537061,6.0,5.0,435.0
2022-02-09-17:05:24.538057,6.0,5.0,435.0
2022-02-09-17:05:24.540050,6.0,5.0,435.0
2022-02-09-17:05:24.541047,4.0,5.0,434.0
2022-02-09-17:05:24.541047,6.0,4.0,434.0
2022-02-09-17:05:24.542044,6.0,4.0,434.0
2022-02-09-17:05:24.543042,6.0,4.0,434.0
2022-02-09-17:05:24.544039,6.0,4.0,434.0
2022-02-09-17:05:24.545036,5.0,2.0,435.0
2022-02-09-17:05:24.546034,0.0,2.0,435.0
2022-02-09-17:05:24.547031,0.0,2.0,435.0
2022-02-09-17:05:24.548028,0.0,2.0,435.0
2022-02-09-17:05:24.549026,5.0,12.0,434.0
2022-02-09-17:05:24.550023,3.0,15.0,435.0
2022-02-09-17:05:24.551021,3.0,15.0,435.0
2022-02-09-17:05:24.552018,3.0,15.0,435.0
2022-02-09-17:05:24.553015,6.0,3.0,434.0
2022-02-09-17:05:24.554013,2.0,11.0,434.0
2022-02-09-17:05:24.555010,2.0,11.0,434.0
2022-02-09-17:05:24.556007,2.0,11.0,434.0
2022-02-09-17:05:24.557005,5.0,9.0,434.0
2022-02-09-17:05:24.558002,6.0,5.0,434.0
2022-02-09-17:05:24.559000,6.0,5.0,434.0
2022-02-09-17:05:24.559996,6.0,5.0,434.0
2022-02-09-17:05:24.560994,3.0,5.0,435.0
2022-02-09-17:05:24.561991,4.0,0.0,435.0
2022-02-09-17:05:24.562988,4.0,0.0,435.0
2022-02-09-17:05:24.563986,4.0,0.0,435.0
2022-02-09-17:05:24.564983,6.0,14.0,434.0
2022-02-09-17:05:24.565981,6.0,14.0,434.0
2022-02-09-17:05:24.566978,6.0,14.0,434.0
2022-02-09-17:05:24.567975,6.0,14.0,434.0
2022-02-09-17:05:24.568974,5.0,5.0,435.0
2022-02-09-17:05:24.570159,6.0,12.0,434.0
2022-02-09-17:05:24.570159,6.0,12.0,434.0
2022-02-09-17:05:24.571159,6.0,12.0,434.0
2022-02-09-17:05:24.572156,6.0,12.0,434.0
2022-02-09-17:05:24.573153,6.0,6.0,435.0
2022-02-09-17:05:24.575149,4.0,8.0,435.0
2022-02-09-17:05:24.575149,4.0,8.0,435.0
2022-02-09-17:05:24.576145,4.0,8.0,435.0
2022-02-09-17:05:24.577189,2.0,7.0,434.0
2022-02-09-17:05:24.577606,6.0,6.0,435.0
2022-02-09-17:05:24.577878,6.0,6.0,435.0
2022-02-09-17:05:24.578135,6.0,6.0,435.0
2022-02-09-17:05:24.578390,6.0,6.0,435.0
2022-02-09-17:05:24.578639,6.0,6.0,435.0
2022-02-09-17:05:24.578896,6.0,6.0,435.0
2022-02-09-17:05:24.579137,6.0,6.0,435.0
2022-02-09-17:05:24.579137,6.0,6.0,435.0
2022-02-09-17:05:24.580136,6.0,6.0,435.0
2022-02-09-17:05:24.581133,6.0,6.0,435.0
2022-02-09-17:05:24.582131,6.0,11.0,434.0
2022-02-09-17:05:24.583128,6.0,11.0,434.0
2022-02-09-17:05:24.584125,6.0,11.0,434.0
2022-02-09-17:05:24.585122,6.0,11.0,434.0
2022-02-09-17:05:24.586120,3.0,11.0,435.0
2022-02-09-17:05:24.587117,3.0,11.0,435.0
2022-02-09-17:05:24.588115,3.0,11.0,435.0
2022-02-09-17:05:24.589112,3.0,11.0,435.0
2022-02-09-17:05:24.590109,6.0,15.0,435.0
2022-02-09-17:05:24.591164,4.0,12.0,435.0
2022-02-09-17:05:24.592104,4.0,12.0,435.0
2022-02-09-17:05:24.593101,4.0,12.0,435.0
2022-02-09-17:05:24.594099,7.0,15.0,434.0
2022-02-09-17:05:24.595096,6.0,13.0,434.0
2022-02-09-17:05:24.596093,6.0,13.0,434.0
2022-02-09-17:05:24.597091,6.0,13.0,434.0
2022-02-09-17:05:24.598145,4.0,2.0,435.0
2022-02-09-17:05:24.599085,5.0,6.0,435.0
2022-02-09-17:05:24.600083,5.0,6.0,435.0
2022-02-09-17:05:24.601080,5.0,6.0,435.0
2022-02-09-17:05:24.602077,2.0,5.0,435.0
2022-02-09-17:05:24.603075,5.0,10.0,435.0
2022-02-09-17:05:24.604072,5.0,10.0,435.0
2022-02-09-17:05:24.605069,5.0,10.0,435.0
2022-02-09-17:05:24.606067,6.0,11.0,434.0
2022-02-09-17:05:24.607064,4.0,14.0,435.0
2022-02-09-17:05:24.609059,4.0,14.0,435.0
2022-02-09-17:05:24.609059,7.0,12.0,435.0
2022-02-09-17:05:24.610110,6.0,7.0,434.0
2022-02-09-17:05:24.611053,6.0,7.0,434.0
2022-02-09-17:05:24.612051,6.0,7.0,434.0
2022-02-09-17:05:24.613048,6.0,7.0,434.0
2022-02-09-17:05:24.614045,5.0,6.0,435.0
2022-02-09-17:05:24.615101,7.0,10.0,434.0
2022-02-09-17:05:24.616040,7.0,10.0,434.0
2022-02-09-17:05:24.617037,7.0,10.0,434.0
2022-02-09-17:05:24.618035,5.0,5.0,434.0
2022-02-09-17:05:24.619032,5.0,5.0,434.0
2022-02-09-17:05:24.620029,5.0,5.0,434.0
2022-02-09-17:05:24.621027,5.0,5.0,434.0
2022-02-09-17:05:24.622024,5.0,5.0,434.0
2022-02-09-17:05:24.623021,4.0,15.0,434.0
2022-02-09-17:05:24.624019,4.0,15.0,434.0
2022-02-09-17:05:24.625016,4.0,15.0,434.0
2022-02-09-17:05:24.626013,4.0,15.0,434.0
2022-02-09-17:05:24.627011,4.0,9.0,434.0
2022-02-09-17:05:24.628008,4.0,9.0,434.0
2022-02-09-17:05:24.629005,4.0,9.0,434.0
2022-02-09-17:05:24.630003,4.0,9.0,434.0
2022-02-09-17:05:24.631000,2.0,1.0,435.0
2022-02-09-17:05:24.631997,7.0,5.0,434.0
2022-02-09-17:05:24.632995,7.0,5.0,434.0
2022-02-09-17:05:24.633992,7.0,5.0,434.0
2022-02-09-17:05:24.634989,5.0,1.0,435.0
2022-02-09-17:05:24.635987,5.0,4.0,435.0
2022-02-09-17:05:24.636984,5.0,4.0,435.0
2022-02-09-17:05:24.637981,5.0,4.0,435.0
2022-02-09-17:05:24.638979,5.0,14.0,435.0
2022-02-09-17:05:24.641036,4.0,11.0,435.0
2022-02-09-17:05:24.641036,4.0,11.0,435.0
2022-02-09-17:05:24.641971,3.0,11.0,435.0
2022-02-09-17:05:24.642968,4.0,9.0,435.0
2022-02-09-17:05:24.643965,4.0,9.0,435.0
2022-02-09-17:05:24.644964,4.0,9.0,435.0
2022-02-09-17:05:24.645961,4.0,9.0,435.0
2022-02-09-17:05:24.646959,4.0,5.0,434.0
2022-02-09-17:05:24.647956,3.0,10.0,435.0
2022-02-09-17:05:24.648987,3.0,10.0,435.0
2022-02-09-17:05:24.649949,3.0,10.0,435.0
2022-02-09-17:05:24.650947,4.0,8.0,434.0
2022-02-09-17:05:24.651944,5.0,0.0,434.0
2022-02-09-17:05:24.652941,5.0,0.0,434.0
2022-02-09-17:05:24.653939,5.0,0.0,434.0
2022-02-09-17:05:24.654936,8.0,11.0,434.0
2022-02-09-17:05:24.655933,4.0,14.0,435.0
2022-02-09-17:05:24.656931,4.0,14.0,435.0
2022-02-09-17:05:24.657928,4.0,14.0,435.0
2022-02-09-17:05:24.658961,4.0,14.0,435.0
2022-02-09-17:05:24.659923,3.0,11.0,435.0
2022-02-09-17:05:24.660920,3.0,11.0,435.0
2022-02-09-17:05:24.661917,3.0,11.0,435.0
2022-02-09-17:05:24.662915,3.0,11.0,435.0
2022-02-09-17:05:24.663913,5.0,1.0,434.0
2022-02-09-17:05:24.664909,6.0,9.0,434.0
2022-02-09-17:05:24.665907,6.0,9.0,434.0
2022-02-09-17:05:24.666904,6.0,9.0,434.0
2022-02-09-17:05:24.667901,4.0,8.0,435.0
2022-02-09-17:05:24.668899,6.0,1.0,434.0
2022-02-09-17:05:24.669896,6.0,1.0,434.0
2022-02-09-17:05:24.670893,6.0,1.0,434.0
2022-02-09-17:05:24.671891,7.0,14.0,434.0
2022-02-09-17:05:24.672888,6.0,15.0,435.0
2022-02-09-17:05:24.673885,6.0,15.0,435.0
2022-02-09-17:05:24.674883,6.0,15.0,435.0
2022-02-09-17:05:24.675914,5.0,13.0,435.0
2022-02-09-17:05:24.677910,4.0,10.0,434.0
2022-02-09-17:05:24.677910,4.0,10.0,434.0
2022-02-09-17:05:24.678872,4.0,10.0,434.0
2022-02-09-17:05:24.679869,6.0,5.0,434.0
2022-02-09-17:05:24.680867,5.0,5.0,434.0
2022-02-09-17:05:24.681864,5.0,5.0,434.0
2022-02-09-17:05:24.682861,5.0,5.0,434.0
2022-02-09-17:05:24.683859,6.0,6.0,434.0
2022-02-09-17:05:24.684856,8.0,8.0,435.0
2022-02-09-17:05:24.685853,8.0,8.0,435.0
2022-02-09-17:05:24.686851,8.0,8.0,435.0
2022-02-09-17:05:24.687848,3.0,15.0,434.0
2022-02-09-17:05:24.688845,2.0,14.0,434.0
2022-02-09-17:05:24.689843,2.0,14.0,434.0
2022-02-09-17:05:24.690840,2.0,14.0,434.0
2022-02-09-17:05:24.691872,3.0,16.0,435.0
2022-02-09-17:05:24.692835,3.0,16.0,435.0
2022-02-09-17:05:24.693877,3.0,16.0,435.0
2022-02-09-17:05:24.693877,3.0,16.0,435.0
2022-02-09-17:05:24.695135,3.0,16.0,435.0
2022-02-09-17:05:24.695492,6.0,5.0,435.0
2022-02-09-17:05:24.695492,6.0,5.0,435.0
2022-02-09-17:05:24.696526,6.0,5.0,435.0
2022-02-09-17:05:24.697523,6.0,5.0,435.0
2022-02-09-17:05:24.698544,6.0,5.0,435.0
2022-02-09-17:05:24.699689,6.0,5.0,435.0
2022-02-09-17:05:24.700070,6.0,1.0,435.0
2022-02-09-17:05:24.700314,9.0,4.0,435.0
2022-02-09-17:05:24.700558,9.0,4.0,435.0
2022-02-09-17:05:24.700558,9.0,4.0,435.0
2022-02-09-17:05:24.701558,9.0,4.0,435.0
2022-02-09-17:05:24.702555,9.0,4.0,435.0
2022-02-09-17:05:24.703552,9.0,4.0,435.0
2022-02-09-17:05:24.704550,8.0,11.0,435.0
2022-02-09-17:05:24.705581,6.0,16.0,434.0
2022-02-09-17:05:24.706544,6.0,16.0,434.0
2022-02-09-17:05:24.707542,6.0,16.0,434.0
2022-02-09-17:05:24.709537,6.0,15.0,434.0
2022-02-09-17:05:24.709537,6.0,14.0,435.0
2022-02-09-17:05:24.710534,6.0,14.0,435.0
2022-02-09-17:05:24.711531,6.0,14.0,435.0
2022-02-09-17:05:24.712528,7.0,4.0,434.0
2022-02-09-17:05:24.713526,5.0,0.0,434.0
2022-02-09-17:05:24.714523,5.0,0.0,434.0
2022-02-09-17:05:24.715561,5.0,0.0,434.0
2022-02-09-17:05:24.716518,9.0,0.0,435.0
2022-02-09-17:05:24.717515,9.0,5.0,434.0
2022-02-09-17:05:24.718512,9.0,5.0,434.0
2022-02-09-17:05:24.719510,9.0,5.0,434.0
2022-02-09-17:05:24.720507,3.0,20.0,434.0
2022-02-09-17:05:24.721504,6.0,16.0,435.0
2022-02-09-17:05:24.722502,6.0,16.0,435.0
2022-02-09-17:05:24.723499,6.0,16.0,435.0
2022-02-09-17:05:24.724496,6.0,16.0,435.0
2022-02-09-17:05:24.725494,4.0,15.0,434.0
2022-02-09-17:05:24.726491,6.0,14.0,434.0
2022-02-09-17:05:24.727488,6.0,14.0,434.0
2022-02-09-17:05:24.728486,6.0,14.0,434.0
2022-02-09-17:05:24.729483,5.0,4.0,435.0
2022-02-09-17:05:24.730480,5.0,4.0,435.0
2022-02-09-17:05:24.731478,5.0,4.0,435.0
2022-02-09-17:05:24.732475,5.0,4.0,435.0
2022-02-09-17:05:24.733472,8.0,5.0,434.0
2022-02-09-17:05:24.734470,7.0,0.0,434.0
2022-02-09-17:05:24.735467,7.0,0.0,434.0
2022-02-09-17:05:24.736464,7.0,0.0,434.0
2022-02-09-17:05:24.737462,4.0,17.0,434.0
2022-02-09-17:05:24.738459,3.0,17.0,434.0
2022-02-09-17:05:24.739456,3.0,17.0,434.0
2022-02-09-17:05:24.740454,3.0,17.0,434.0
2022-02-09-17:05:24.741451,6.0,18.0,435.0
2022-02-09-17:05:24.743502,5.0,17.0,435.0
2022-02-09-17:05:24.743502,5.0,17.0,435.0
2022-02-09-17:05:24.744443,5.0,17.0,435.0
2022-02-09-17:05:24.745440,5.0,8.0,435.0
2022-02-09-17:05:24.746438,7.0,2.0,435.0
2022-02-09-17:05:24.747435,7.0,2.0,435.0
2022-02-09-17:05:24.748432,7.0,2.0,435.0
2022-02-09-17:05:24.749430,6.0,1.0,435.0
2022-02-09-17:05:24.750427,5.0,1.0,435.0
2022-02-09-17:05:24.751424,5.0,1.0,435.0
2022-02-09-17:05:24.752422,5.0,1.0,435.0
2022-02-09-17:05:24.753419,3.0,22.0,435.0
2022-02-09-17:05:24.754416,5.0,21.0,435.0
2022-02-09-17:05:24.755414,5.0,21.0,435.0
2022-02-09-17:05:24.756411,5.0,21.0,435.0
2022-02-09-17:05:24.757408,6.0,20.0,435.0
2022-02-09-17:05:24.758406,4.0,16.0,435.0
2022-02-09-17:05:24.759403,4.0,16.0,435.0
2022-02-09-17:05:24.760400,4.0,16.0,435.0
2022-02-09-17:05:24.761398,0.0,14.0,435.0
2022-02-09-17:05:24.762395,5.0,4.0,434.0
2022-02-09-17:05:24.763392,5.0,4.0,434.0
2022-02-09-17:05:24.764390,5.0,4.0,434.0
2022-02-09-17:05:24.765424,6.0,1.0,435.0
2022-02-09-17:05:24.766384,6.0,1.0,435.0
2022-02-09-17:05:24.767382,6.0,1.0,435.0
2022-02-09-17:05:24.768379,6.0,1.0,435.0
2022-02-09-17:05:24.769376,6.0,1.0,435.0
2022-02-09-17:05:24.770374,6.0,9.0,434.0
2022-02-09-17:05:24.771371,2.0,19.0,435.0
2022-02-09-17:05:24.772368,2.0,19.0,435.0
2022-02-09-17:05:24.773366,2.0,19.0,435.0
2022-02-09-17:05:24.774363,6.0,14.0,435.0
2022-02-09-17:05:24.775360,1.0,13.0,434.0
2022-02-09-17:05:24.777395,1.0,13.0,434.0
2022-02-09-17:05:24.777395,1.0,13.0,434.0
2022-02-09-17:05:24.778352,2.0,3.0,435.0
2022-02-09-17:05:24.779350,2.0,3.0,435.0
2022-02-09-17:05:24.780347,2.0,3.0,435.0
2022-02-09-17:05:24.781344,2.0,3.0,435.0
2022-02-09-17:05:24.782342,4.0,7.0,434.0
2022-02-09-17:05:24.783339,6.0,8.0,434.0
2022-02-09-17:05:24.784336,6.0,8.0,434.0
2022-02-09-17:05:24.785334,6.0,8.0,434.0
2022-02-09-17:05:24.786331,3.0,6.0,435.0
2022-02-09-17:05:24.787328,5.0,12.0,434.0
2022-02-09-17:05:24.788326,5.0,12.0,434.0
2022-02-09-17:05:24.789323,5.0,12.0,434.0
2022-02-09-17:05:24.790320,5.0,15.0,434.0
2022-02-09-17:05:24.791318,7.0,10.0,435.0
2022-02-09-17:05:24.792315,7.0,10.0,435.0
2022-02-09-17:05:24.793312,7.0,10.0,435.0
2022-02-09-17:05:24.794344,6.0,13.0,434.0
2022-02-09-17:05:24.795307,2.0,5.0,435.0
2022-02-09-17:05:24.796304,2.0,5.0,435.0
2022-02-09-17:05:24.797302,2.0,5.0,435.0
2022-02-09-17:05:24.798299,6.0,8.0,434.0
2022-02-09-17:05:24.799296,4.0,11.0,435.0
2022-02-09-17:05:24.800294,4.0,11.0,435.0
2022-02-09-17:05:24.801291,4.0,11.0,435.0
2022-02-09-17:05:24.802288,7.0,6.0,434.0
2022-02-09-17:05:24.803286,4.0,9.0,434.0
2022-02-09-17:05:24.804283,4.0,9.0,434.0
2022-02-09-17:05:24.805280,4.0,9.0,434.0
2022-02-09-17:05:24.806278,4.0,9.0,434.0
2022-02-09-17:05:24.807275,6.0,9.0,434.0
2022-02-09-17:05:24.808272,4.0,4.0,435.0
2022-02-09-17:05:24.809270,4.0,4.0,435.0
2022-02-09-17:05:24.810267,4.0,4.0,435.0
2022-02-09-17:05:24.812262,3.0,10.0,435.0
2022-02-09-17:05:24.812262,1.0,0.0,435.0
2022-02-09-17:05:24.813259,1.0,0.0,435.0
2022-02-09-17:05:24.814256,1.0,0.0,435.0
2022-02-09-17:05:24.815254,5.0,15.0,435.0
2022-02-09-17:05:24.816251,7.0,12.0,434.0
2022-02-09-17:05:24.817248,7.0,12.0,434.0
2022-02-09-17:05:24.818246,7.0,12.0,434.0
2022-02-09-17:05:24.819243,7.0,9.0,435.0
2022-02-09-17:05:24.820240,2.0,8.0,435.0
2022-02-09-17:05:24.821238,2.0,8.0,435.0
2022-02-09-17:05:24.822291,2.0,8.0,435.0
2022-02-09-17:05:24.823232,5.0,8.0,434.0
2022-02-09-17:05:24.824230,5.0,9.0,434.0
2022-02-09-17:05:24.825227,5.0,9.0,434.0
2022-02-09-17:05:24.826224,5.0,9.0,434.0
2022-02-09-17:05:24.827222,2.0,1.0,435.0
2022-02-09-17:05:24.828219,2.0,1.0,435.0
2022-02-09-17:05:24.829216,2.0,1.0,435.0
2022-02-09-17:05:24.830270,2.0,1.0,435.0
2022-02-09-17:05:24.831246,4.0,11.0,434.0
2022-02-09-17:05:24.832208,6.0,16.0,434.0
2022-02-09-17:05:24.833206,6.0,16.0,434.0
2022-02-09-17:05:24.834203,6.0,16.0,434.0
2022-02-09-17:05:24.835200,6.0,6.0,434.0
2022-02-09-17:05:24.836198,4.0,3.0,435.0
2022-02-09-17:05:24.837195,4.0,3.0,435.0
2022-02-09-17:05:24.838193,4.0,3.0,435.0
2022-02-09-17:05:24.839190,4.0,3.0,435.0
2022-02-09-17:05:24.840187,5.0,2.0,434.0
2022-02-09-17:05:24.841184,5.0,2.0,434.0
2022-02-09-17:05:24.842182,5.0,2.0,434.0
