# 
# 
# 
# 
# 
# 
# 
# 
# 
# 
# time,realtime,ref,inp,dis,state...
0.000000000000000000e+00,1.644454913719991922e+09,0.000000000000000000e+00,6.337833398567335186e-01,0.000000000000000000e+00,5.296217290079657802e-01
1.666666666666666644e-02,1.644454913721021414e+09,0.000000000000000000e+00,5.296217290079657802e-01,0.000000000000000000e+00,5.296217290079657802e-01
3.333333333333333287e-02,1.644454913723016500e+09,0.000000000000000000e+00,6.337833398567335186e-01,0.000000000000000000e+00,6.337833398567335186e-01
5.000000000000000278e-02,1.644454913739937782e+09,0.000000000000000000e+00,6.337833398567335186e-01,0.000000000000000000e+00,6.337833398567335186e-01
6.666666666666666574e-02,1.644454913755951405e+09,0.000000000000000000e+00,6.417957714604847208e-01,0.000000000000000000e+00,6.417957714604847208e-01
8.333333333333332871e-02,1.644454913772906303e+09,0.000000000000000000e+00,6.498082030642360341e-01,0.000000000000000000e+00,6.498082030642360341e-01
1.000000000000000056e-01,1.644454913789861679e+09,0.000000000000000000e+00,6.417957714604847208e-01,0.000000000000000000e+00,6.417957714604847208e-01
1.166666666666666685e-01,1.644454913807315350e+09,0.000000000000000000e+00,6.498082030642360341e-01,0.000000000000000000e+00,6.498082030642360341e-01
1.333333333333333315e-01,1.644454913822420120e+09,0.000000000000000000e+00,6.578206346679877914e-01,0.000000000000000000e+00,6.578206346679877914e-01
1.499999999999999944e-01,1.644454913838419676e+09,0.000000000000000000e+00,6.578206346679877914e-01,0.000000000000000000e+00,6.578206346679877914e-01
1.666666666666666574e-01,1.644454913856476784e+09,0.000000000000000000e+00,6.658330662717389936e-01,0.000000000000000000e+00,6.658330662717389936e-01
1.833333333333333204e-01,1.644454913873303413e+09,0.000000000000000000e+00,6.738454978754903069e-01,0.000000000000000000e+00,6.738454978754903069e-01
2.000000000000000111e-01,1.644454913889958382e+09,0.000000000000000000e+00,6.818579294792415091e-01,0.000000000000000000e+00,6.818579294792415091e-01
2.166666666666666741e-01,1.644454913907416821e+09,0.000000000000000000e+00,6.898703610829932664e-01,0.000000000000000000e+00,6.898703610829932664e-01
2.333333333333333370e-01,1.644454913924371719e+09,0.000000000000000000e+00,6.978827926867445797e-01,0.000000000000000000e+00,6.978827926867445797e-01
2.500000000000000000e-01,1.644454913942360401e+09,0.000000000000000000e+00,6.978827926867445797e-01,0.000000000000000000e+00,6.978827926867445797e-01
2.666666666666666630e-01,1.644454913957861900e+09,0.000000000000000000e+00,6.978827926867445797e-01,0.000000000000000000e+00,6.978827926867445797e-01
2.833333333333333259e-01,1.644454913976846933e+09,0.000000000000000000e+00,6.898703610829932664e-01,0.000000000000000000e+00,6.898703610829932664e-01
2.999999999999999889e-01,1.644454913992946863e+09,0.000000000000000000e+00,6.978827926867445797e-01,0.000000000000000000e+00,6.978827926867445797e-01
3.166666666666666519e-01,1.644454914011815310e+09,0.000000000000000000e+00,6.978827926867445797e-01,0.000000000000000000e+00,6.978827926867445797e-01
3.333333333333333148e-01,1.644454914027580976e+09,0.000000000000000000e+00,6.898703610829932664e-01,0.000000000000000000e+00,6.898703610829932664e-01
3.499999999999999778e-01,1.644454914045493603e+09,0.000000000000000000e+00,6.978827926867445797e-01,0.000000000000000000e+00,6.978827926867445797e-01
3.666666666666666408e-01,1.644454914061063290e+09,0.000000000000000000e+00,6.978827926867445797e-01,0.000000000000000000e+00,6.978827926867445797e-01
3.833333333333333037e-01,1.644454914076823711e+09,0.000000000000000000e+00,6.898703610829932664e-01,0.000000000000000000e+00,6.898703610829932664e-01
4.000000000000000222e-01,1.644454914094702721e+09,0.000000000000000000e+00,6.578206346679877914e-01,0.000000000000000000e+00,6.578206346679877914e-01
4.166666666666666852e-01,1.644454914112712383e+09,0.000000000000000000e+00,6.097460450454792458e-01,0.000000000000000000e+00,6.097460450454792458e-01
4.333333333333333481e-01,1.644454914129239798e+09,0.000000000000000000e+00,5.616714554229713663e-01,0.000000000000000000e+00,5.616714554229713663e-01
4.500000000000000111e-01,1.644454914147136450e+09,0.000000000000000000e+00,5.376341606117170935e-01,0.000000000000000000e+00,5.376341606117170935e-01
4.666666666666666741e-01,1.644454914163164616e+09,0.000000000000000000e+00,5.216092974042145780e-01,0.000000000000000000e+00,5.216092974042145780e-01
4.833333333333333370e-01,1.644454914178636312e+09,0.000000000000000000e+00,5.216092974042145780e-01,0.000000000000000000e+00,5.216092974042145780e-01
5.000000000000000000e-01,1.644454914198618650e+09,0.000000000000000000e+00,5.216092974042145780e-01,0.000000000000000000e+00,5.216092974042145780e-01
5.166666666666666075e-01,1.644454914215708256e+09,0.000000000000000000e+00,5.216092974042145780e-01,0.000000000000000000e+00,5.216092974042145780e-01
5.333333333333333259e-01,1.644454914231015682e+09,0.000000000000000000e+00,5.216092974042145780e-01,0.000000000000000000e+00,5.216092974042145780e-01
5.500000000000000444e-01,1.644454914247216225e+09,0.000000000000000000e+00,5.135968658004628207e-01,0.000000000000000000e+00,5.135968658004628207e-01
5.666666666666666519e-01,1.644454914263599396e+09,0.000000000000000000e+00,5.055844341967115074e-01,0.000000000000000000e+00,5.055844341967115074e-01
5.833333333333333703e-01,1.644454914280667305e+09,0.000000000000000000e+00,4.895595709892091030e-01,0.000000000000000000e+00,4.895595709892091030e-01
5.999999999999999778e-01,1.644454914298765659e+09,0.000000000000000000e+00,4.815471393854572901e-01,0.000000000000000000e+00,4.815471393854572901e-01
6.166666666666666963e-01,1.644454914315277815e+09,0.000000000000000000e+00,4.815471393854572901e-01,0.000000000000000000e+00,4.815471393854572901e-01
6.333333333333333037e-01,1.644454914330106258e+09,0.000000000000000000e+00,4.735347077817060879e-01,0.000000000000000000e+00,4.735347077817060879e-01
6.500000000000000222e-01,1.644454914349121571e+09,0.000000000000000000e+00,4.575098445742036279e-01,0.000000000000000000e+00,4.575098445742036279e-01
6.666666666666666297e-01,1.644454914367074251e+09,0.000000000000000000e+00,4.174476865554462846e-01,0.000000000000000000e+00,4.174476865554462846e-01
6.833333333333333481e-01,1.644454914384313583e+09,0.000000000000000000e+00,3.853979601404408095e-01,0.000000000000000000e+00,3.853979601404408095e-01
6.999999999999999556e-01,1.644454914402489424e+09,0.000000000000000000e+00,3.613606653291871473e-01,0.000000000000000000e+00,3.613606653291871473e-01
7.166666666666666741e-01,1.644454914419445753e+09,0.000000000000000000e+00,3.533482337254352790e-01,0.000000000000000000e+00,3.533482337254352790e-01
7.333333333333332815e-01,1.644454914435708284e+09,0.000000000000000000e+00,3.453358021216840767e-01,0.000000000000000000e+00,3.453358021216840767e-01
7.500000000000000000e-01,1.644454914452166796e+09,0.000000000000000000e+00,3.373233705179328190e-01,0.000000000000000000e+00,3.373233705179328190e-01
7.666666666666666075e-01,1.644454914468042612e+09,0.000000000000000000e+00,3.212985073104304146e-01,0.000000000000000000e+00,3.212985073104304146e-01
7.833333333333333259e-01,1.644454914485477924e+09,0.000000000000000000e+00,3.132860757066785462e-01,0.000000000000000000e+00,3.132860757066785462e-01
8.000000000000000444e-01,1.644454914502855062e+09,0.000000000000000000e+00,2.972612124991761418e-01,0.000000000000000000e+00,2.972612124991761418e-01
8.166666666666666519e-01,1.644454914519314766e+09,0.000000000000000000e+00,2.892487808954248840e-01,0.000000000000000000e+00,2.892487808954248840e-01
8.333333333333333703e-01,1.644454914534266472e+09,0.000000000000000000e+00,2.812363492916730712e-01,0.000000000000000000e+00,2.812363492916730712e-01
8.499999999999999778e-01,1.644454914553014994e+09,0.000000000000000000e+00,2.732239176879218689e-01,0.000000000000000000e+00,2.732239176879218689e-01
8.666666666666666963e-01,1.644454914569144964e+09,0.000000000000000000e+00,2.571990544804194090e-01,0.000000000000000000e+00,2.571990544804194090e-01
8.833333333333333037e-01,1.644454914586797953e+09,0.000000000000000000e+00,2.251493280654139062e-01,0.000000000000000000e+00,2.251493280654139062e-01
9.000000000000000222e-01,1.644454914604017496e+09,0.000000000000000000e+00,2.091244648579108634e-01,0.000000000000000000e+00,2.091244648579108634e-01
9.166666666666666297e-01,1.644454914621720076e+09,0.000000000000000000e+00,1.930996016504084034e-01,0.000000000000000000e+00,1.930996016504084034e-01
9.333333333333333481e-01,1.644454914636554718e+09,0.000000000000000000e+00,1.850871700466565906e-01,0.000000000000000000e+00,1.850871700466565906e-01
9.499999999999999556e-01,1.644454914653656960e+09,0.000000000000000000e+00,1.690623068391541306e-01,0.000000000000000000e+00,1.690623068391541306e-01
9.666666666666666741e-01,1.644454914670447350e+09,0.000000000000000000e+00,1.530374436316510878e-01,0.000000000000000000e+00,1.530374436316510878e-01
9.833333333333332815e-01,1.644454914687399149e+09,0.000000000000000000e+00,1.450250120278998578e-01,0.000000000000000000e+00,1.450250120278998578e-01
1.000000000000000000e+00,1.644454914705683231e+09,0.000000000000000000e+00,1.370125804241486278e-01,0.000000000000000000e+00,1.370125804241486278e-01
1.016666666666666607e+00,1.644454914720322609e+09,0.000000000000000000e+00,1.370125804241486278e-01,0.000000000000000000e+00,1.370125804241486278e-01
1.033333333333333215e+00,1.644454914739460230e+09,0.000000000000000000e+00,1.290001488203974256e-01,0.000000000000000000e+00,1.290001488203974256e-01
1.050000000000000044e+00,1.644454914755416632e+09,0.000000000000000000e+00,1.290001488203974256e-01,0.000000000000000000e+00,1.290001488203974256e-01
1.066666666666666652e+00,1.644454914771374941e+09,0.000000000000000000e+00,1.370125804241486278e-01,0.000000000000000000e+00,1.370125804241486278e-01
1.083333333333333259e+00,1.644454914789004087e+09,0.000000000000000000e+00,1.209877172166455850e-01,0.000000000000000000e+00,1.209877172166455850e-01
1.100000000000000089e+00,1.644454914806992054e+09,0.000000000000000000e+00,9.695042240539190892e-02,0.000000000000000000e+00,9.695042240539190892e-02
1.116666666666666696e+00,1.644454914822983027e+09,0.000000000000000000e+00,7.291312759413763611e-02,0.000000000000000000e+00,7.291312759413763611e-02
1.133333333333333304e+00,1.644454914839926243e+09,0.000000000000000000e+00,4.086340117913214720e-02,0.000000000000000000e+00,4.086340117913214720e-02
1.149999999999999911e+00,1.644454914857890129e+09,0.000000000000000000e+00,4.086340117913214720e-02,0.000000000000000000e+00,4.086340117913214720e-02
1.166666666666666741e+00,1.644454914873124123e+09,0.000000000000000000e+00,3.285096957538091722e-02,0.000000000000000000e+00,3.285096957538091722e-02
1.183333333333333348e+00,1.644454914890805721e+09,0.000000000000000000e+00,3.285096957538091722e-02,0.000000000000000000e+00,3.285096957538091722e-02
1.199999999999999956e+00,1.644454914907941103e+09,0.000000000000000000e+00,3.285096957538091722e-02,0.000000000000000000e+00,3.285096957538091722e-02
1.216666666666666563e+00,1.644454914924559832e+09,0.000000000000000000e+00,3.285096957538091722e-02,0.000000000000000000e+00,3.285096957538091722e-02
1.233333333333333393e+00,1.644454914941462517e+09,0.000000000000000000e+00,3.285096957538091722e-02,0.000000000000000000e+00,3.285096957538091722e-02
1.250000000000000000e+00,1.644454914960447311e+09,0.000000000000000000e+00,3.285096957538091722e-02,0.000000000000000000e+00,3.285096957538091722e-02
1.266666666666666607e+00,1.644454914975710154e+09,0.000000000000000000e+00,3.285096957538091722e-02,0.000000000000000000e+00,3.285096957538091722e-02
1.283333333333333215e+00,1.644454914992566824e+09,0.000000000000000000e+00,3.285096957538091722e-02,0.000000000000000000e+00,3.285096957538091722e-02
1.300000000000000044e+00,1.644454915009440899e+09,0.000000000000000000e+00,3.285096957538091722e-02,0.000000000000000000e+00,3.285096957538091722e-02
1.316666666666666652e+00,1.644454915025702477e+09,0.000000000000000000e+00,3.285096957538091722e-02,0.000000000000000000e+00,3.285096957538091722e-02
1.333333333333333259e+00,1.644454915041434288e+09,0.000000000000000000e+00,3.285096957538091722e-02,0.000000000000000000e+00,3.285096957538091722e-02
1.350000000000000089e+00,1.644454915060384989e+09,0.000000000000000000e+00,3.285096957538091722e-02,0.000000000000000000e+00,3.285096957538091722e-02
1.366666666666666696e+00,1.644454915076378345e+09,0.000000000000000000e+00,3.285096957538091722e-02,0.000000000000000000e+00,3.285096957538091722e-02
1.383333333333333304e+00,1.644454915093827248e+09,0.000000000000000000e+00,3.285096957538091722e-02,0.000000000000000000e+00,3.285096957538091722e-02
1.399999999999999911e+00,1.644454915110661507e+09,0.000000000000000000e+00,3.285096957538091722e-02,0.000000000000000000e+00,3.285096957538091722e-02
1.416666666666666741e+00,1.644454915126971722e+09,0.000000000000000000e+00,3.285096957538091722e-02,0.000000000000000000e+00,3.285096957538091722e-02
1.433333333333333348e+00,1.644454915144311905e+09,0.000000000000000000e+00,3.285096957538091722e-02,0.000000000000000000e+00,3.285096957538091722e-02
1.449999999999999956e+00,1.644454915162579536e+09,0.000000000000000000e+00,3.285096957538091722e-02,0.000000000000000000e+00,3.285096957538091722e-02
1.466666666666666563e+00,1.644454915179848433e+09,0.000000000000000000e+00,3.285096957538091722e-02,0.000000000000000000e+00,3.285096957538091722e-02
1.483333333333333393e+00,1.644454915196854591e+09,0.000000000000000000e+00,1.682610636787787092e-02,0.000000000000000000e+00,1.682610636787787092e-02
1.500000000000000000e+00,1.644454915213889599e+09,0.000000000000000000e+00,1.682610636787787092e-02,0.000000000000000000e+00,1.682610636787787092e-02
1.516666666666666607e+00,1.644454915229892969e+09,0.000000000000000000e+00,1.682610636787787092e-02,0.000000000000000000e+00,1.682610636787787092e-02
1.533333333333333215e+00,1.644454915246847391e+09,0.000000000000000000e+00,1.682610636787787092e-02,0.000000000000000000e+00,1.682610636787787092e-02
1.550000000000000044e+00,1.644454915262367249e+09,0.000000000000000000e+00,1.682610636787787092e-02,0.000000000000000000e+00,1.682610636787787092e-02
1.566666666666666652e+00,1.644454915280075788e+09,0.000000000000000000e+00,8.813674764126647881e-03,0.000000000000000000e+00,8.813674764126647881e-03
1.583333333333333259e+00,1.644454915295631647e+09,0.000000000000000000e+00,1.682610636787787092e-02,0.000000000000000000e+00,1.682610636787787092e-02
1.600000000000000089e+00,1.644454915312591553e+09,0.000000000000000000e+00,1.682610636787787092e-02,0.000000000000000000e+00,1.682610636787787092e-02
1.616666666666666696e+00,1.644454915330722570e+09,0.000000000000000000e+00,1.682610636787787092e-02,0.000000000000000000e+00,1.682610636787787092e-02
1.633333333333333304e+00,1.644454915347690582e+09,0.000000000000000000e+00,8.813674764126647881e-03,0.000000000000000000e+00,8.813674764126647881e-03
1.649999999999999911e+00,1.644454915363634825e+09,0.000000000000000000e+00,8.813674764126647881e-03,0.000000000000000000e+00,8.813674764126647881e-03
1.666666666666666741e+00,1.644454915383582115e+09,0.000000000000000000e+00,8.012431603754229968e-04,0.000000000000000000e+00,8.012431603754229968e-04
