# 
# 
# 
# 
# 
# 
# 
# 
# 
# 
# time,realtime,ref,inp,dis,state...
0.000000000000000000e+00,1.639373508224292994e+09,0.000000000000000000e+00,3.132860757066785462e-01,0.000000000000000000e+00,-9.435881693593815012e-01
1.666666666666666644e-02,1.639373508226322889e+09,0.000000000000000000e+00,-9.435881693593815012e-01,0.000000000000000000e+00,-9.435881693593815012e-01
3.333333333333333287e-02,1.639373508228316307e+09,0.000000000000000000e+00,3.132860757066785462e-01,0.000000000000000000e+00,3.132860757066785462e-01
5.000000000000000278e-02,1.639373508244273186e+09,0.000000000000000000e+00,3.132860757066785462e-01,0.000000000000000000e+00,3.132860757066785462e-01
6.666666666666666574e-02,1.639373508261228323e+09,0.000000000000000000e+00,3.212985073104304146e-01,0.000000000000000000e+00,3.212985073104304146e-01
8.333333333333332871e-02,1.639373508279178143e+09,0.000000000000000000e+00,3.132860757066785462e-01,0.000000000000000000e+00,3.132860757066785462e-01
1.000000000000000056e-01,1.639373508295135498e+09,0.000000000000000000e+00,-3.150148328005245579e-01,0.000000000000000000e+00,-3.150148328005245579e-01
1.166666666666666685e-01,1.639373508313089609e+09,0.000000000000000000e+00,-3.379183146994302334e-01,0.000000000000000000e+00,-3.379183146994302334e-01
1.333333333333333315e-01,1.639373508330044508e+09,0.000000000000000000e+00,-5.364151578232798645e-01,0.000000000000000000e+00,-5.364151578232798645e-01
1.499999999999999944e-01,1.639373508346998215e+09,0.000000000000000000e+00,-5.338703265011787158e-01,0.000000000000000000e+00,-5.338703265011787158e-01
1.666666666666666574e-01,1.639373508362953901e+09,0.000000000000000000e+00,-8.494294104416572067e-01,0.000000000000000000e+00,-8.494294104416572067e-01
1.833333333333333204e-01,1.639373508378879786e+09,0.000000000000000000e+00,-1.012298615056097750e+00,0.000000000000000000e+00,-1.012298615056097750e+00
2.000000000000000111e-01,1.639373508396865368e+09,0.000000000000000000e+00,-1.154809169093733656e+00,0.000000000000000000e+00,-1.154809169093733656e+00
2.166666666666666741e-01,1.639373508413818121e+09,0.000000000000000000e+00,-1.256602421977758510e+00,0.000000000000000000e+00,-1.256602421977758510e+00
2.333333333333333370e-01,1.639373508431737423e+09,0.000000000000000000e+00,-1.152264337771633507e+00,0.000000000000000000e+00,-1.152264337771633507e+00
2.500000000000000000e-01,1.639373508451684237e+09,0.000000000000000000e+00,-1.208250626857847232e+00,0.000000000000000000e+00,-1.208250626857847232e+00
2.666666666666666630e-01,1.639373508466645241e+09,0.000000000000000000e+00,-9.181398561383750101e-01,0.000000000000000000e+00,-9.181398561383750101e-01
2.833333333333333259e-01,1.639373508483600616e+09,0.000000000000000000e+00,-7.705396394565375839e-01,0.000000000000000000e+00,-7.705396394565375839e-01
2.999999999999999889e-01,1.639373508501560688e+09,0.000000000000000000e+00,-1.096655986322868870e+00,0.000000000000000000e+00,-1.096655986322868870e+00
3.166666666666666519e-01,1.639373508519539356e+09,0.000000000000000000e+00,-1.058105578853909101e+00,0.000000000000000000e+00,-1.058105578853909101e+00
3.333333333333333148e-01,1.639373508534464121e+09,0.000000000000000000e+00,-1.073374566786513329e+00,0.000000000000000000e+00,-1.073374566786513329e+00
3.499999999999999778e-01,1.639373508550453186e+09,0.000000000000000000e+00,-9.690364825803864379e-01,0.000000000000000000e+00,-9.690364825803864379e-01
3.666666666666666408e-01,1.639373508566377401e+09,0.000000000000000000e+00,-9.941068581639435076e-01,0.000000000000000000e+00,-9.941068581639435076e-01
3.833333333333333037e-01,1.639373508583332062e+09,0.000000000000000000e+00,-1.022477940344499903e+00,0.000000000000000000e+00,-1.022477940344499903e+00
4.000000000000000222e-01,1.639373508600286722e+09,0.000000000000000000e+00,-1.190436807603142855e+00,0.000000000000000000e+00,-1.190436807603142855e+00
4.166666666666666852e-01,1.639373508619235992e+09,0.000000000000000000e+00,-7.934431213554432594e-01,0.000000000000000000e+00,-7.934431213554432594e-01
4.333333333333333481e-01,1.639373508634196281e+09,0.000000000000000000e+00,-8.341604225090534230e-01,0.000000000000000000e+00,-8.341604225090534230e-01
4.500000000000000111e-01,1.639373508652148962e+09,0.000000000000000000e+00,-6.636567239283116537e-01,0.000000000000000000e+00,-6.636567239283116537e-01
4.666666666666666741e-01,1.639373508670099974e+09,0.000000000000000000e+00,-5.847669529431914759e-01,0.000000000000000000e+00,-5.847669529431914759e-01
4.833333333333333370e-01,1.639373508686058044e+09,0.000000000000000000e+00,-7.425464949134307213e-01,0.000000000000000000e+00,-7.425464949134307213e-01
5.000000000000000000e-01,1.639373508705007553e+09,0.000000000000000000e+00,-1.030112434310802350e+00,0.000000000000000000e+00,-1.030112434310802350e+00
5.166666666666666075e-01,1.639373508719966888e+09,0.000000000000000000e+00,-1.014843446378197678e+00,0.000000000000000000e+00,-1.014843446378197678e+00
5.333333333333333259e-01,1.639373508737918854e+09,0.000000000000000000e+00,-6.051256035199968908e-01,0.000000000000000000e+00,-6.051256035199968908e-01
5.500000000000000444e-01,1.639373508752878904e+09,0.000000000000000000e+00,-5.109668446022731514e-01,0.000000000000000000e+00,-5.109668446022731514e-01
5.666666666666666519e-01,1.639373508769833088e+09,0.000000000000000000e+00,-4.295322422950529351e-01,0.000000000000000000e+00,-4.295322422950529351e-01
5.833333333333333703e-01,1.639373508786787748e+09,0.000000000000000000e+00,3.132860757066785462e-01,0.000000000000000000e+00,3.132860757066785462e-01
5.999999999999999778e-01,1.639373508804739714e+09,0.000000000000000000e+00,3.212985073104304146e-01,0.000000000000000000e+00,3.212985073104304146e-01
6.166666666666666963e-01,1.639373508820697069e+09,0.000000000000000000e+00,3.132860757066785462e-01,0.000000000000000000e+00,3.132860757066785462e-01
6.333333333333333037e-01,1.639373508837651491e+09,0.000000000000000000e+00,3.132860757066785462e-01,0.000000000000000000e+00,3.132860757066785462e-01
6.500000000000000222e-01,1.639373508855603695e+09,0.000000000000000000e+00,3.132860757066785462e-01,0.000000000000000000e+00,3.132860757066785462e-01
6.666666666666666297e-01,1.639373508871561050e+09,0.000000000000000000e+00,3.132860757066785462e-01,0.000000000000000000e+00,3.132860757066785462e-01
6.833333333333333481e-01,1.639373508888515711e+09,0.000000000000000000e+00,3.212985073104304146e-01,0.000000000000000000e+00,3.212985073104304146e-01
6.999999999999999556e-01,1.639373508905471325e+09,0.000000000000000000e+00,3.132860757066785462e-01,0.000000000000000000e+00,3.132860757066785462e-01
7.166666666666666741e-01,1.639373508923424006e+09,0.000000000000000000e+00,3.132860757066785462e-01,0.000000000000000000e+00,3.132860757066785462e-01
7.333333333333332815e-01,1.639373508939379692e+09,0.000000000000000000e+00,3.212985073104304146e-01,0.000000000000000000e+00,3.212985073104304146e-01
7.500000000000000000e-01,1.639373508957331181e+09,0.000000000000000000e+00,3.132860757066785462e-01,0.000000000000000000e+00,3.132860757066785462e-01
7.666666666666666075e-01,1.639373508973288536e+09,0.000000000000000000e+00,3.132860757066785462e-01,0.000000000000000000e+00,3.132860757066785462e-01
7.833333333333333259e-01,1.639373508990243196e+09,0.000000000000000000e+00,3.132860757066785462e-01,0.000000000000000000e+00,3.132860757066785462e-01
8.000000000000000444e-01,1.639373509008235455e+09,0.000000000000000000e+00,3.132860757066785462e-01,0.000000000000000000e+00,3.132860757066785462e-01
8.166666666666666519e-01,1.639373509025183201e+09,0.000000000000000000e+00,3.132860757066785462e-01,0.000000000000000000e+00,3.132860757066785462e-01
8.333333333333333703e-01,1.639373509042140007e+09,0.000000000000000000e+00,3.132860757066785462e-01,0.000000000000000000e+00,3.132860757066785462e-01
8.499999999999999778e-01,1.639373509059093952e+09,0.000000000000000000e+00,3.132860757066785462e-01,0.000000000000000000e+00,3.132860757066785462e-01
8.666666666666666963e-01,1.639373509076047182e+09,0.000000000000000000e+00,3.212985073104304146e-01,0.000000000000000000e+00,3.212985073104304146e-01
8.833333333333333037e-01,1.639373509093001842e+09,0.000000000000000000e+00,3.132860757066785462e-01,0.000000000000000000e+00,3.132860757066785462e-01
9.000000000000000222e-01,1.639373509107928514e+09,0.000000000000000000e+00,3.132860757066785462e-01,0.000000000000000000e+00,3.132860757066785462e-01
9.166666666666666297e-01,1.639373509126878262e+09,0.000000000000000000e+00,3.132860757066785462e-01,0.000000000000000000e+00,3.132860757066785462e-01
9.333333333333333481e-01,1.639373509143832684e+09,0.000000000000000000e+00,3.132860757066785462e-01,0.000000000000000000e+00,3.132860757066785462e-01
9.499999999999999556e-01,1.639373509162816763e+09,0.000000000000000000e+00,-1.775939414070905886e-01,0.000000000000000000e+00,-1.775939414070905886e-01
9.666666666666666741e-01,1.639373509179736853e+09,0.000000000000000000e+00,-2.055870859501974235e-01,0.000000000000000000e+00,-2.055870859501974235e-01
9.833333333333332815e-01,1.639373509194696426e+09,0.000000000000000000e+00,3.132860757066785462e-01,0.000000000000000000e+00,3.132860757066785462e-01
1.000000000000000000e+00,1.639373509213645697e+09,0.000000000000000000e+00,3.132860757066785462e-01,0.000000000000000000e+00,3.132860757066785462e-01
1.016666666666666607e+00,1.639373509230634451e+09,0.000000000000000000e+00,3.132860757066785462e-01,0.000000000000000000e+00,3.132860757066785462e-01
1.033333333333333215e+00,1.639373509245562553e+09,0.000000000000000000e+00,3.132860757066785462e-01,0.000000000000000000e+00,3.132860757066785462e-01
1.050000000000000044e+00,1.639373509264511585e+09,0.000000000000000000e+00,3.132860757066785462e-01,0.000000000000000000e+00,3.132860757066785462e-01
1.066666666666666652e+00,1.639373509280467033e+09,0.000000000000000000e+00,-1.521456281860839310e-01,0.000000000000000000e+00,-1.521456281860839310e-01
1.083333333333333259e+00,1.639373509298419476e+09,0.000000000000000000e+00,3.132860757066785462e-01,0.000000000000000000e+00,3.132860757066785462e-01
1.100000000000000089e+00,1.639373509315373898e+09,0.000000000000000000e+00,3.132860757066785462e-01,0.000000000000000000e+00,3.132860757066785462e-01
1.116666666666666696e+00,1.639373509330333710e+09,0.000000000000000000e+00,3.132860757066785462e-01,0.000000000000000000e+00,3.132860757066785462e-01
1.133333333333333304e+00,1.639373509349285364e+09,0.000000000000000000e+00,3.132860757066785462e-01,0.000000000000000000e+00,3.132860757066785462e-01
1.149999999999999911e+00,1.639373509364243031e+09,0.000000000000000000e+00,3.132860757066785462e-01,0.000000000000000000e+00,3.132860757066785462e-01
1.166666666666666741e+00,1.639373509382194757e+09,0.000000000000000000e+00,3.132860757066785462e-01,0.000000000000000000e+00,3.132860757066785462e-01
1.183333333333333348e+00,1.639373509399149656e+09,0.000000000000000000e+00,3.132860757066785462e-01,0.000000000000000000e+00,3.132860757066785462e-01
1.199999999999999956e+00,1.639373509417101383e+09,0.000000000000000000e+00,3.132860757066785462e-01,0.000000000000000000e+00,3.132860757066785462e-01
1.216666666666666563e+00,1.639373509434057236e+09,0.000000000000000000e+00,3.132860757066785462e-01,0.000000000000000000e+00,3.132860757066785462e-01
1.233333333333333393e+00,1.639373509449049234e+09,0.000000000000000000e+00,3.132860757066785462e-01,0.000000000000000000e+00,3.132860757066785462e-01
1.250000000000000000e+00,1.639373509467001200e+09,0.000000000000000000e+00,-1.928629293396940392e-01,0.000000000000000000e+00,-1.928629293396940392e-01
1.266666666666666607e+00,1.639373509483955383e+09,0.000000000000000000e+00,3.132860757066785462e-01,0.000000000000000000e+00,3.132860757066785462e-01
1.283333333333333215e+00,1.639373509500913858e+09,0.000000000000000000e+00,3.212985073104304146e-01,0.000000000000000000e+00,3.212985073104304146e-01
1.300000000000000044e+00,1.639373509517864704e+09,0.000000000000000000e+00,3.132860757066785462e-01,0.000000000000000000e+00,3.132860757066785462e-01
1.316666666666666652e+00,1.639373509534822226e+09,0.000000000000000000e+00,3.132860757066785462e-01,0.000000000000000000e+00,3.132860757066785462e-01
1.333333333333333259e+00,1.639373509551773787e+09,0.000000000000000000e+00,3.132860757066785462e-01,0.000000000000000000e+00,3.132860757066785462e-01
1.350000000000000089e+00,1.639373509567731619e+09,0.000000000000000000e+00,3.132860757066785462e-01,0.000000000000000000e+00,3.132860757066785462e-01
1.366666666666666696e+00,1.639373509584686518e+09,0.000000000000000000e+00,-2.386698931375053623e-01,0.000000000000000000e+00,-2.386698931375053623e-01
1.383333333333333304e+00,1.639373509602639437e+09,0.000000000000000000e+00,3.132860757066785462e-01,0.000000000000000000e+00,3.132860757066785462e-01
1.399999999999999911e+00,1.639373509618596315e+09,0.000000000000000000e+00,3.132860757066785462e-01,0.000000000000000000e+00,3.132860757066785462e-01
1.416666666666666741e+00,1.639373509635551214e+09,0.000000000000000000e+00,-2.895665195795178448e-01,0.000000000000000000e+00,-2.895665195795178448e-01
1.433333333333333348e+00,1.639373509652509212e+09,0.000000000000000000e+00,-1.772160037696400292e-01,0.000000000000000000e+00,-1.772160037696400292e-01
1.449999999999999956e+00,1.639373509669460058e+09,0.000000000000000000e+00,3.212985073104304146e-01,0.000000000000000000e+00,3.212985073104304146e-01
1.466666666666666563e+00,1.639373509686416388e+09,0.000000000000000000e+00,3.132860757066785462e-01,0.000000000000000000e+00,3.132860757066785462e-01
1.483333333333333393e+00,1.639373509704333782e+09,0.000000000000000000e+00,-1.368766402534803972e-01,0.000000000000000000e+00,-1.368766402534803972e-01
1.500000000000000000e+00,1.639373509720301628e+09,0.000000000000000000e+00,-3.633666279204360028e-01,0.000000000000000000e+00,-3.633666279204360028e-01
1.516666666666666607e+00,1.639373509738275528e+09,0.000000000000000000e+00,-8.112569406101477476e-01,0.000000000000000000e+00,-8.112569406101477476e-01
1.533333333333333215e+00,1.639373509755196333e+09,0.000000000000000000e+00,-6.382084107073049406e-01,0.000000000000000000e+00,-6.382084107073049406e-01
1.550000000000000044e+00,1.639373509771170139e+09,0.000000000000000000e+00,-3.786356158530403970e-01,0.000000000000000000e+00,-3.786356158530403970e-01
1.566666666666666652e+00,1.639373509789139032e+09,0.000000000000000000e+00,3.132860757066785462e-01,0.000000000000000000e+00,3.132860757066785462e-01
1.583333333333333259e+00,1.639373509804102659e+09,0.000000000000000000e+00,-3.426300397061817771e-01,0.000000000000000000e+00,-3.426300397061817771e-01
1.600000000000000089e+00,1.639373509822055578e+09,0.000000000000000000e+00,-2.844768569353168242e-01,0.000000000000000000e+00,-2.844768569353168242e-01
1.616666666666666696e+00,1.639373509837977409e+09,0.000000000000000000e+00,3.132860757066785462e-01,0.000000000000000000e+00,3.132860757066785462e-01
1.633333333333333304e+00,1.639373509854964256e+09,0.000000000000000000e+00,3.132860757066785462e-01,0.000000000000000000e+00,3.132860757066785462e-01
1.649999999999999911e+00,1.639373509872916937e+09,0.000000000000000000e+00,3.132860757066785462e-01,0.000000000000000000e+00,3.132860757066785462e-01
1.666666666666666741e+00,1.639373509888876200e+09,0.000000000000000000e+00,3.132860757066785462e-01,0.000000000000000000e+00,3.132860757066785462e-01
1.683333333333333348e+00,1.639373509905827999e+09,0.000000000000000000e+00,3.132860757066785462e-01,0.000000000000000000e+00,3.132860757066785462e-01
1.699999999999999956e+00,1.639373509922782660e+09,0.000000000000000000e+00,3.212985073104304146e-01,0.000000000000000000e+00,3.212985073104304146e-01
1.716666666666666563e+00,1.639373509939740658e+09,0.000000000000000000e+00,3.132860757066785462e-01,0.000000000000000000e+00,3.132860757066785462e-01
1.733333333333333393e+00,1.639373509957696199e+09,0.000000000000000000e+00,3.132860757066785462e-01,0.000000000000000000e+00,3.132860757066785462e-01
1.750000000000000000e+00,1.639373509974642992e+09,0.000000000000000000e+00,3.132860757066785462e-01,0.000000000000000000e+00,3.132860757066785462e-01
1.766666666666666607e+00,1.639373509991565466e+09,0.000000000000000000e+00,3.132860757066785462e-01,0.000000000000000000e+00,3.132860757066785462e-01
1.783333333333333215e+00,1.639373510007554293e+09,0.000000000000000000e+00,3.132860757066785462e-01,0.000000000000000000e+00,3.132860757066785462e-01
1.800000000000000044e+00,1.639373510025474310e+09,0.000000000000000000e+00,3.132860757066785462e-01,0.000000000000000000e+00,3.132860757066785462e-01
1.816666666666666652e+00,1.639373510042470694e+09,0.000000000000000000e+00,3.132860757066785462e-01,0.000000000000000000e+00,3.132860757066785462e-01
1.833333333333333259e+00,1.639373510058386326e+09,0.000000000000000000e+00,3.132860757066785462e-01,0.000000000000000000e+00,3.132860757066785462e-01
1.849999999999999867e+00,1.639373510076371431e+09,0.000000000000000000e+00,3.132860757066785462e-01,0.000000000000000000e+00,3.132860757066785462e-01
1.866666666666666696e+00,1.639373510092327833e+09,0.000000000000000000e+00,3.132860757066785462e-01,0.000000000000000000e+00,3.132860757066785462e-01
1.883333333333333304e+00,1.639373510110279322e+09,0.000000000000000000e+00,3.132860757066785462e-01,0.000000000000000000e+00,3.132860757066785462e-01
1.899999999999999911e+00,1.639373510127235413e+09,0.000000000000000000e+00,3.212985073104304146e-01,0.000000000000000000e+00,3.212985073104304146e-01
1.916666666666666741e+00,1.639373510144157887e+09,0.000000000000000000e+00,3.293109389141816168e-01,0.000000000000000000e+00,3.293109389141816168e-01
1.933333333333333348e+00,1.639373510161143541e+09,0.000000000000000000e+00,-8.522413853656837790e-02,0.000000000000000000e+00,-8.522413853656837790e-02
1.949999999999999956e+00,1.639373510177068710e+09,0.000000000000000000e+00,-3.164258512102761101e-01,0.000000000000000000e+00,-3.164258512102761101e-01
1.966666666666666563e+00,1.639373510195056438e+09,0.000000000000000000e+00,-8.958915173743218219e-01,0.000000000000000000e+00,-8.958915173743218219e-01
1.983333333333333393e+00,1.639373510210013151e+09,0.000000000000000000e+00,-8.119120837450012340e-01,0.000000000000000000e+00,-8.119120837450012340e-01
2.000000000000000000e+00,1.639373510227931738e+09,0.000000000000000000e+00,-3.996494095646984657e-01,0.000000000000000000e+00,-3.996494095646984657e-01
2.016666666666666607e+00,1.639373510244922638e+09,0.000000000000000000e+00,-1.124614078047762589e-01,0.000000000000000000e+00,-1.124614078047762589e-01
2.033333333333333215e+00,1.639373510262874842e+09,0.000000000000000000e+00,-3.822135279474439540e-01,0.000000000000000000e+00,-3.822135279474439540e-01
2.049999999999999822e+00,1.639373510279829264e+09,0.000000000000000000e+00,-9.293522621990806254e-01,0.000000000000000000e+00,-9.293522621990806254e-01
2.066666666666666430e+00,1.639373510296782970e+09,0.000000000000000000e+00,-8.610197541398117993e-01,0.000000000000000000e+00,-8.610197541398117993e-01
2.083333333333333481e+00,1.639373510313736200e+09,0.000000000000000000e+00,-7.948541397651958107e-01,0.000000000000000000e+00,-7.948541397651958107e-01
2.100000000000000089e+00,1.639373510330694675e+09,0.000000000000000000e+00,-8.635645854619127260e-01,0.000000000000000000e+00,-8.635645854619127260e-01
2.116666666666666696e+00,1.639373510348645449e+09,0.000000000000000000e+00,-9.042818866155228896e-01,0.000000000000000000e+00,-9.042818866155228896e-01
2.133333333333333304e+00,1.639373510365564346e+09,0.000000000000000000e+00,-1.077330416518365919e+00,0.000000000000000000e+00,-1.077330416518365919e+00
2.149999999999999911e+00,1.639373510381555080e+09,0.000000000000000000e+00,-7.999438024093969979e-01,0.000000000000000000e+00,-7.999438024093969979e-01
2.166666666666666519e+00,1.639373510398509502e+09,0.000000000000000000e+00,-5.963572966413461796e-01,0.000000000000000000e+00,-5.963572966413461796e-01
2.183333333333333126e+00,1.639373510416461706e+09,0.000000000000000000e+00,-8.584749228177115388e-01,0.000000000000000000e+00,-8.584749228177115388e-01
2.200000000000000178e+00,1.639373510432417631e+09,0.000000000000000000e+00,-9.042818866155228896e-01,0.000000000000000000e+00,-9.042818866155228896e-01
2.216666666666666785e+00,1.639373510450372696e+09,0.000000000000000000e+00,-9.068267179376230391e-01,0.000000000000000000e+00,-9.068267179376230391e-01
2.233333333333333393e+00,1.639373510467348814e+09,0.000000000000000000e+00,-1.278372090964315477e+00,0.000000000000000000e+00,-1.278372090964315477e+00
2.250000000000000000e+00,1.639373510484247208e+09,0.000000000000000000e+00,-6.497987544054595332e-01,0.000000000000000000e+00,-6.497987544054595332e-01
2.266666666666666607e+00,1.639373510501256466e+09,0.000000000000000000e+00,-5.047433690457234778e-01,0.000000000000000000e+00,-5.047433690457234778e-01
2.283333333333333215e+00,1.639373510518212080e+09,0.000000000000000000e+00,-2.324464175809556055e-01,0.000000000000000000e+00,-2.324464175809556055e-01
2.299999999999999822e+00,1.639373510535170317e+09,0.000000000000000000e+00,-3.643997086927393547e-01,0.000000000000000000e+00,-3.643997086927393547e-01
2.316666666666666430e+00,1.639373510552099705e+09,0.000000000000000000e+00,-3.240603451765782794e-01,0.000000000000000000e+00,-3.240603451765782794e-01
2.333333333333333481e+00,1.639373510569053173e+09,0.000000000000000000e+00,3.373233705179328190e-01,0.000000000000000000e+00,3.373233705179328190e-01
2.350000000000000089e+00,1.639373510586033583e+09,0.000000000000000000e+00,3.373233705179328190e-01,0.000000000000000000e+00,3.373233705179328190e-01
2.366666666666666696e+00,1.639373510604979277e+09,0.000000000000000000e+00,3.453358021216840767e-01,0.000000000000000000e+00,3.453358021216840767e-01
2.383333333333333304e+00,1.639373510619942427e+09,0.000000000000000000e+00,3.373233705179328190e-01,0.000000000000000000e+00,3.373233705179328190e-01
2.399999999999999911e+00,1.639373510636898756e+09,0.000000000000000000e+00,-1.459221526295341187e-01,0.000000000000000000e+00,-1.459221526295341187e-01
2.416666666666666519e+00,1.639373510653793097e+09,0.000000000000000000e+00,3.373233705179328190e-01,0.000000000000000000e+00,3.373233705179328190e-01
2.433333333333333126e+00,1.639373510670782089e+09,0.000000000000000000e+00,3.453358021216840767e-01,0.000000000000000000e+00,3.453358021216840767e-01
2.450000000000000178e+00,1.639373510687736273e+09,0.000000000000000000e+00,3.453358021216840767e-01,0.000000000000000000e+00,3.453358021216840767e-01
2.466666666666666785e+00,1.639373510704690456e+09,0.000000000000000000e+00,3.453358021216840767e-01,0.000000000000000000e+00,3.453358021216840767e-01
2.483333333333333393e+00,1.639373510723640203e+09,0.000000000000000000e+00,3.453358021216840767e-01,0.000000000000000000e+00,3.453358021216840767e-01
2.500000000000000000e+00,1.639373510738600731e+09,0.000000000000000000e+00,3.453358021216840767e-01,0.000000000000000000e+00,3.453358021216840767e-01
2.516666666666666607e+00,1.639373510755555391e+09,0.000000000000000000e+00,3.453358021216840767e-01,0.000000000000000000e+00,3.453358021216840767e-01
2.533333333333333215e+00,1.639373510772511244e+09,0.000000000000000000e+00,3.453358021216840767e-01,0.000000000000000000e+00,3.453358021216840767e-01
2.549999999999999822e+00,1.639373510790461302e+09,0.000000000000000000e+00,3.453358021216840767e-01,0.000000000000000000e+00,3.453358021216840767e-01
2.566666666666666430e+00,1.639373510806420326e+09,0.000000000000000000e+00,3.533482337254352790e-01,0.000000000000000000e+00,3.533482337254352790e-01
2.583333333333333481e+00,1.639373510824337721e+09,0.000000000000000000e+00,3.613606653291871473e-01,0.000000000000000000e+00,3.613606653291871473e-01
2.600000000000000089e+00,1.639373510840326309e+09,0.000000000000000000e+00,3.613606653291871473e-01,0.000000000000000000e+00,3.613606653291871473e-01
2.616666666666666696e+00,1.639373510857284546e+09,0.000000000000000000e+00,3.613606653291871473e-01,0.000000000000000000e+00,3.613606653291871473e-01
2.633333333333333304e+00,1.639373510875235319e+09,0.000000000000000000e+00,3.613606653291871473e-01,0.000000000000000000e+00,3.613606653291871473e-01
2.649999999999999911e+00,1.639373510891192436e+09,0.000000000000000000e+00,3.613606653291871473e-01,0.000000000000000000e+00,3.613606653291871473e-01
2.666666666666666519e+00,1.639373510908145189e+09,0.000000000000000000e+00,3.613606653291871473e-01,0.000000000000000000e+00,3.613606653291871473e-01
2.683333333333333126e+00,1.639373510927094698e+09,0.000000000000000000e+00,3.613606653291871473e-01,0.000000000000000000e+00,3.613606653291871473e-01
2.700000000000000178e+00,1.639373510944048882e+09,0.000000000000000000e+00,3.613606653291871473e-01,0.000000000000000000e+00,3.613606653291871473e-01
2.716666666666666785e+00,1.639373510960006952e+09,0.000000000000000000e+00,3.613606653291871473e-01,0.000000000000000000e+00,3.613606653291871473e-01
2.733333333333333393e+00,1.639373510977959394e+09,0.000000000000000000e+00,3.613606653291871473e-01,0.000000000000000000e+00,3.613606653291871473e-01
2.750000000000000000e+00,1.639373510994914532e+09,0.000000000000000000e+00,3.613606653291871473e-01,0.000000000000000000e+00,3.613606653291871473e-01
2.766666666666666607e+00,1.639373511012864113e+09,0.000000000000000000e+00,3.533482337254352790e-01,0.000000000000000000e+00,3.533482337254352790e-01
2.783333333333333215e+00,1.639373511028821468e+09,0.000000000000000000e+00,3.613606653291871473e-01,0.000000000000000000e+00,3.613606653291871473e-01
2.799999999999999822e+00,1.639373511045778513e+09,0.000000000000000000e+00,3.533482337254352790e-01,0.000000000000000000e+00,3.533482337254352790e-01
2.816666666666666430e+00,1.639373511063728333e+09,0.000000000000000000e+00,3.533482337254352790e-01,0.000000000000000000e+00,3.533482337254352790e-01
2.833333333333333481e+00,1.639373511079692602e+09,0.000000000000000000e+00,3.453358021216840767e-01,0.000000000000000000e+00,3.453358021216840767e-01
2.850000000000000089e+00,1.639373511096643925e+09,0.000000000000000000e+00,3.373233705179328190e-01,0.000000000000000000e+00,3.373233705179328190e-01
2.866666666666666696e+00,1.639373511114594460e+09,0.000000000000000000e+00,3.212985073104304146e-01,0.000000000000000000e+00,3.212985073104304146e-01
2.883333333333333304e+00,1.639373511130551577e+09,0.000000000000000000e+00,3.212985073104304146e-01,0.000000000000000000e+00,3.212985073104304146e-01
2.899999999999999911e+00,1.639373511147503853e+09,0.000000000000000000e+00,3.212985073104304146e-01,0.000000000000000000e+00,3.212985073104304146e-01
2.916666666666666519e+00,1.639373511164458513e+09,0.000000000000000000e+00,-2.459264494663570000e-01,0.000000000000000000e+00,-2.459264494663570000e-01
2.933333333333333126e+00,1.639373511182411194e+09,0.000000000000000000e+00,-4.902302563880180375e-01,0.000000000000000000e+00,-4.902302563880180375e-01
2.950000000000000178e+00,1.639373511199364901e+09,0.000000000000000000e+00,-8.948584366020184699e-01,0.000000000000000000e+00,-8.948584366020184699e-01
2.966666666666666785e+00,1.639373511216323376e+09,0.000000000000000000e+00,-1.027189665351252668e+00,0.000000000000000000e+00,-1.027189665351252668e+00
2.983333333333333393e+00,1.639373511233274698e+09,0.000000000000000000e+00,-9.995744584455952264e-01,0.000000000000000000e+00,-9.995744584455952264e-01
3.000000000000000000e+00,1.639373511253189564e+09,0.000000000000000000e+00,-9.635688822987367175e-01,0.000000000000000000e+00,-9.635688822987367175e-01
3.016666666666666607e+00,1.639373511267186403e+09,0.000000000000000000e+00,-1.365652231190636279e+00,0.000000000000000000e+00,-1.365652231190636279e+00
3.033333333333333215e+00,1.639373511285472870e+09,0.000000000000000000e+00,-1.292230060487167709e+00,0.000000000000000000e+00,-1.292230060487167709e+00
3.049999999999999822e+00,1.639373511299501181e+09,0.000000000000000000e+00,-9.799716831436887654e-01,0.000000000000000000e+00,-9.799716831436887654e-01
3.066666666666666430e+00,1.639373511317487717e+09,0.000000000000000000e+00,-5.892014724525390656e-01,0.000000000000000000e+00,-5.892014724525390656e-01
3.083333333333333481e+00,1.639373511335439205e+09,0.000000000000000000e+00,-5.925021790495390572e-01,0.000000000000000000e+00,-5.925021790495390572e-01
3.100000000000000089e+00,1.639373511352392197e+09,0.000000000000000000e+00,-4.067294925361927826e-01,0.000000000000000000e+00,-4.067294925361927826e-01
3.116666666666666696e+00,1.639373511369346619e+09,0.000000000000000000e+00,-3.532880347720792069e-01,0.000000000000000000e+00,-3.532880347720792069e-01
3.133333333333333304e+00,1.639373511385303736e+09,0.000000000000000000e+00,2.571990544804194090e-01,0.000000000000000000e+00,2.571990544804194090e-01
3.149999999999999911e+00,1.639373511403255701e+09,0.000000000000000000e+00,2.571990544804194090e-01,0.000000000000000000e+00,2.571990544804194090e-01
3.166666666666666519e+00,1.639373511419214487e+09,0.000000000000000000e+00,2.571990544804194090e-01,0.000000000000000000e+00,2.571990544804194090e-01
3.183333333333333126e+00,1.639373511437133074e+09,0.000000000000000000e+00,2.571990544804194090e-01,0.000000000000000000e+00,2.571990544804194090e-01
3.200000000000000178e+00,1.639373511455085039e+09,0.000000000000000000e+00,2.571990544804194090e-01,0.000000000000000000e+00,2.571990544804194090e-01
3.216666666666666785e+00,1.639373511472077608e+09,0.000000000000000000e+00,2.571990544804194090e-01,0.000000000000000000e+00,2.571990544804194090e-01
3.233333333333333393e+00,1.639373511488028526e+09,0.000000000000000000e+00,2.491866228766675684e-01,0.000000000000000000e+00,2.491866228766675684e-01
3.250000000000000000e+00,1.639373511504983902e+09,0.000000000000000000e+00,2.571990544804194090e-01,0.000000000000000000e+00,2.571990544804194090e-01
3.266666666666666607e+00,1.639373511522935152e+09,0.000000000000000000e+00,2.571990544804194090e-01,0.000000000000000000e+00,2.571990544804194090e-01
3.283333333333333215e+00,1.639373511538860083e+09,0.000000000000000000e+00,2.571990544804194090e-01,0.000000000000000000e+00,2.571990544804194090e-01
3.299999999999999822e+00,1.639373511556812525e+09,0.000000000000000000e+00,2.571990544804194090e-01,0.000000000000000000e+00,2.571990544804194090e-01
3.316666666666666430e+00,1.639373511574800014e+09,0.000000000000000000e+00,2.652114860841706112e-01,0.000000000000000000e+00,2.652114860841706112e-01
3.333333333333333481e+00,1.639373511590756178e+09,0.000000000000000000e+00,2.571990544804194090e-01,0.000000000000000000e+00,2.571990544804194090e-01
3.350000000000000089e+00,1.639373511606678486e+09,0.000000000000000000e+00,2.652114860841706112e-01,0.000000000000000000e+00,2.652114860841706112e-01
3.366666666666666696e+00,1.639373511624630213e+09,0.000000000000000000e+00,2.652114860841706112e-01,0.000000000000000000e+00,2.652114860841706112e-01
3.383333333333333304e+00,1.639373511642583132e+09,0.000000000000000000e+00,2.652114860841706112e-01,0.000000000000000000e+00,2.652114860841706112e-01
3.399999999999999911e+00,1.639373511658579826e+09,0.000000000000000000e+00,2.652114860841706112e-01,0.000000000000000000e+00,2.652114860841706112e-01
3.416666666666666519e+00,1.639373511675494671e+09,0.000000000000000000e+00,2.652114860841706112e-01,0.000000000000000000e+00,2.652114860841706112e-01
3.433333333333333126e+00,1.639373511694444656e+09,0.000000000000000000e+00,2.652114860841706112e-01,0.000000000000000000e+00,2.652114860841706112e-01
3.449999999999999734e+00,1.639373511710401535e+09,0.000000000000000000e+00,2.652114860841706112e-01,0.000000000000000000e+00,2.652114860841706112e-01
3.466666666666666785e+00,1.639373511726358414e+09,0.000000000000000000e+00,2.652114860841706112e-01,0.000000000000000000e+00,2.652114860841706112e-01
3.483333333333333393e+00,1.639373511745343685e+09,0.000000000000000000e+00,2.652114860841706112e-01,0.000000000000000000e+00,2.652114860841706112e-01
3.500000000000000000e+00,1.639373511765255690e+09,0.000000000000000000e+00,2.652114860841706112e-01,0.000000000000000000e+00,2.652114860841706112e-01
3.516666666666666607e+00,1.639373511779251099e+09,0.000000000000000000e+00,2.652114860841706112e-01,0.000000000000000000e+00,2.652114860841706112e-01
3.533333333333333215e+00,1.639373511795370817e+09,0.000000000000000000e+00,2.652114860841706112e-01,0.000000000000000000e+00,2.652114860841706112e-01
3.549999999999999822e+00,1.639373511814171791e+09,0.000000000000000000e+00,2.732239176879218689e-01,0.000000000000000000e+00,2.732239176879218689e-01
3.566666666666666430e+00,1.639373511831161022e+09,0.000000000000000000e+00,2.732239176879218689e-01,0.000000000000000000e+00,2.732239176879218689e-01
3.583333333333333481e+00,1.639373511848081350e+09,0.000000000000000000e+00,-2.205788683853964205e-01,0.000000000000000000e+00,-2.205788683853964205e-01
3.600000000000000089e+00,1.639373511865070820e+09,0.000000000000000000e+00,2.652114860841706112e-01,0.000000000000000000e+00,2.652114860841706112e-01
3.616666666666666696e+00,1.639373511884019375e+09,0.000000000000000000e+00,2.652114860841706112e-01,0.000000000000000000e+00,2.652114860841706112e-01
3.633333333333333304e+00,1.639373511897982359e+09,0.000000000000000000e+00,-5.361379523258753554e-01,0.000000000000000000e+00,-5.361379523258753554e-01
3.649999999999999911e+00,1.639373511915902615e+09,0.000000000000000000e+00,-3.376411092020258353e-01,0.000000000000000000e+00,-3.376411092020258353e-01
3.666666666666666519e+00,1.639373511932888746e+09,0.000000000000000000e+00,-3.478204344904280987e-01,0.000000000000000000e+00,-3.478204344904280987e-01
3.683333333333333126e+00,1.639373511950807333e+09,0.000000000000000000e+00,-6.735588437193095190e-01,0.000000000000000000e+00,-6.735588437193095190e-01
3.699999999999999734e+00,1.639373511966798306e+09,0.000000000000000000e+00,-1.179980276817335083e+00,0.000000000000000000e+00,-1.179980276817335083e+00
3.716666666666666785e+00,1.639373511989704132e+09,0.000000000000000000e+00,-1.266504541768757486e+00,0.000000000000000000e+00,-1.266504541768757486e+00
3.733333333333333393e+00,1.639373512001704931e+09,0.000000000000000000e+00,-1.202883758716241758e+00,0.000000000000000000e+00,-1.202883758716241758e+00
3.750000000000000000e+00,1.639373512018660307e+09,0.000000000000000000e+00,-8.695108555210582235e-01,0.000000000000000000e+00,-8.695108555210582235e-01
3.766666666666666607e+00,1.639373512036613703e+09,0.000000000000000000e+00,-9.356764698956749893e-01,0.000000000000000000e+00,-9.356764698956749893e-01
3.783333333333333215e+00,1.639373512053532600e+09,0.000000000000000000e+00,-7.902431468984898455e-01,0.000000000000000000e+00,-7.902431468984898455e-01
3.799999999999999822e+00,1.639373512069489717e+09,0.000000000000000000e+00,-1.179980276817335083e+00,0.000000000000000000e+00,-1.179980276817335083e+00
3.816666666666666430e+00,1.639373512086477757e+09,0.000000000000000000e+00,-1.253780385158253186e+00,0.000000000000000000e+00,-1.253780385158253186e+00
3.833333333333333481e+00,1.639373512104433775e+09,0.000000000000000000e+00,-1.001464146632842889e+00,0.000000000000000000e+00,-1.001464146632842889e+00
3.850000000000000089e+00,1.639373512121384382e+09,0.000000000000000000e+00,-8.564087612731056121e-01,0.000000000000000000e+00,-8.564087612731056121e-01
3.866666666666666696e+00,1.639373512137342215e+09,0.000000000000000000e+00,-9.051384940304669779e-01,0.000000000000000000e+00,-9.051384940304669779e-01
3.883333333333333304e+00,1.639373512155293703e+09,0.000000000000000000e+00,-4.903309885280641156e-01,0.000000000000000000e+00,-4.903309885280641156e-01
3.899999999999999911e+00,1.639373512171251297e+09,0.000000000000000000e+00,-3.834480729998371307e-01,0.000000000000000000e+00,-3.834480729998371307e-01
3.916666666666666519e+00,1.639373512189204216e+09,0.000000000000000000e+00,-3.758135790335359050e-01,0.000000000000000000e+00,-3.758135790335359050e-01
3.933333333333333126e+00,1.639373512206157684e+09,0.000000000000000000e+00,-5.819449161236867063e-01,0.000000000000000000e+00,-5.819449161236867063e-01
3.949999999999999734e+00,1.639373512222114801e+09,0.000000000000000000e+00,-7.851534842542877701e-01,0.000000000000000000e+00,-7.851534842542877701e-01
3.966666666666666785e+00,1.639373512239071608e+09,0.000000000000000000e+00,-8.084349037906433111e-01,0.000000000000000000e+00,-8.084349037906433111e-01
3.983333333333333393e+00,1.639373512256024837e+09,0.000000000000000000e+00,-7.266223638459741174e-01,0.000000000000000000e+00,-7.266223638459741174e-01
4.000000000000000000e+00,1.639373512273976564e+09,0.000000000000000000e+00,-8.389728796558512114e-01,0.000000000000000000e+00,-8.389728796558512114e-01
4.016666666666666607e+00,1.639373512290930510e+09,0.000000000000000000e+00,-6.990071569403161211e-01,0.000000000000000000e+00,-6.990071569403161211e-01
4.033333333333333215e+00,1.639373512307887793e+09,0.000000000000000000e+00,-4.470688560523530253e-01,0.000000000000000000e+00,-4.470688560523530253e-01
4.049999999999999822e+00,1.639373512324841261e+09,0.000000000000000000e+00,-4.848633882464131184e-01,0.000000000000000000e+00,-4.848633882464131184e-01
4.066666666666666430e+00,1.639373512340798378e+09,0.000000000000000000e+00,-3.448976655308790273e-01,0.000000000000000000e+00,-3.448976655308790273e-01
4.083333333333333037e+00,1.639373512357753754e+09,0.000000000000000000e+00,-5.375489707356270186e-01,0.000000000000000000e+00,-5.375489707356270186e-01
4.099999999999999645e+00,1.639373512374709129e+09,0.000000000000000000e+00,-4.201087922815485709e-01,0.000000000000000000e+00,-4.201087922815485709e-01
4.116666666666666252e+00,1.639373512391662359e+09,0.000000000000000000e+00,-1.881512043329419404e-01,0.000000000000000000e+00,-1.881512043329419404e-01
4.133333333333332860e+00,1.639373512408620834e+09,0.000000000000000000e+00,-4.600702181602607244e-01,0.000000000000000000e+00,-4.600702181602607244e-01
4.150000000000000355e+00,1.639373512425570726e+09,0.000000000000000000e+00,-3.451748710282819266e-01,0.000000000000000000e+00,-3.451748710282819266e-01
4.166666666666666963e+00,1.639373512444519281e+09,0.000000000000000000e+00,-6.323628727882041334e-01,0.000000000000000000e+00,-6.323628727882041334e-01
4.183333333333333570e+00,1.639373512460476398e+09,0.000000000000000000e+00,-3.444189957533838609e-01,0.000000000000000000e+00,-3.444189957533838609e-01
4.200000000000000178e+00,1.639373512477429867e+09,0.000000000000000000e+00,-9.210275722797159337e-02,0.000000000000000000e+00,-9.210275722797159337e-02
4.216666666666666785e+00,1.639373512493387699e+09,0.000000000000000000e+00,-2.931444316739213463e-01,0.000000000000000000e+00,-2.931444316739213463e-01
4.233333333333333393e+00,1.639373512510310411e+09,0.000000000000000000e+00,-2.643954118559149746e-01,0.000000000000000000e+00,-2.643954118559149746e-01
4.250000000000000000e+00,1.639373512528262615e+09,0.000000000000000000e+00,-1.036931009261262832e-01,0.000000000000000000e+00,-1.036931009261262832e-01
4.266666666666666607e+00,1.639373512545215845e+09,0.000000000000000000e+00,-5.210454377506292811e-01,0.000000000000000000e+00,-5.210454377506292811e-01
4.283333333333333215e+00,1.639373512561173439e+09,0.000000000000000000e+00,-3.959707653302497743e-01,0.000000000000000000e+00,-3.959707653302497743e-01
4.299999999999999822e+00,1.639373512578127861e+09,0.000000000000000000e+00,-1.512890207711397317e-01,0.000000000000000000e+00,-1.512890207711397317e-01
4.316666666666666430e+00,1.639373512595082521e+09,0.000000000000000000e+00,-2.327236230783600868e-01,0.000000000000000000e+00,-2.327236230783600868e-01
4.333333333333333037e+00,1.639373512613068104e+09,0.000000000000000000e+00,-4.079390466658533998e-01,0.000000000000000000e+00,-4.079390466658533998e-01
4.349999999999999645e+00,1.639373512630022287e+09,0.000000000000000000e+00,-4.512011791415637685e-01,0.000000000000000000e+00,-4.512011791415637685e-01
4.366666666666666252e+00,1.639373512646958351e+09,0.000000000000000000e+00,-7.202131214856989649e-02,0.000000000000000000e+00,-7.202131214856989649e-02
4.383333333333332860e+00,1.639373512662935495e+09,0.000000000000000000e+00,-1.916283842872993637e-01,0.000000000000000000e+00,-1.916283842872993637e-01
4.400000000000000355e+00,1.639373512680888176e+09,0.000000000000000000e+00,-4.842839863288727065e-01,0.000000000000000000e+00,-4.842839863288727065e-01
4.416666666666666963e+00,1.639373512698837519e+09,0.000000000000000000e+00,-5.402702754150864317e-01,0.000000000000000000e+00,-5.402702754150864317e-01
4.433333333333333570e+00,1.639373512713797808e+09,0.000000000000000000e+00,-2.705181552724195693e-01,0.000000000000000000e+00,-2.705181552724195693e-01
4.450000000000000178e+00,1.639373512729755640e+09,0.000000000000000000e+00,-3.163251190702308091e-01,0.000000000000000000e+00,-3.163251190702308091e-01
4.466666666666666785e+00,1.639373512748708963e+09,0.000000000000000000e+00,-5.929715553806651218e-02,0.000000000000000000e+00,-5.929715553806651218e-02
4.483333333333333393e+00,1.639373512765667200e+09,0.000000000000000000e+00,4.014228233479438246e-01,0.000000000000000000e+00,4.014228233479438246e-01
4.500000000000000000e+00,1.639373512782613993e+09,0.000000000000000000e+00,-5.382955525641634070e-02,0.000000000000000000e+00,-5.382955525641634070e-02
4.516666666666666607e+00,1.639373512798539400e+09,0.000000000000000000e+00,4.014228233479438246e-01,0.000000000000000000e+00,4.014228233479438246e-01
4.533333333333333215e+00,1.639373512815525055e+09,0.000000000000000000e+00,4.094352549516950823e-01,0.000000000000000000e+00,4.094352549516950823e-01
4.549999999999999822e+00,1.639373512832482100e+09,0.000000000000000000e+00,4.094352549516950823e-01,0.000000000000000000e+00,4.094352549516950823e-01
4.566666666666666430e+00,1.639373512849434376e+09,0.000000000000000000e+00,4.254601181591980974e-01,0.000000000000000000e+00,4.254601181591980974e-01
4.583333333333333037e+00,1.639373512866389036e+09,0.000000000000000000e+00,-1.214061880407846794e-01,0.000000000000000000e+00,-1.214061880407846794e-01
4.599999999999999645e+00,1.639373512884341240e+09,0.000000000000000000e+00,-6.249712999502093913e-02,0.000000000000000000e+00,-6.249712999502093913e-02
4.616666666666666252e+00,1.639373512901295900e+09,0.000000000000000000e+00,4.334725497629493551e-01,0.000000000000000000e+00,4.334725497629493551e-01
4.633333333333332860e+00,1.639373512918251038e+09,0.000000000000000000e+00,-4.314976716996126171e-01,0.000000000000000000e+00,-4.314976716996126171e-01
4.650000000000000355e+00,1.639373512934208393e+09,0.000000000000000000e+00,-4.696701415311217431e-01,0.000000000000000000e+00,-4.696701415311217431e-01
4.666666666666666963e+00,1.639373512951162815e+09,0.000000000000000000e+00,-3.373389127818889888e-01,0.000000000000000000e+00,-3.373389127818889888e-01
4.683333333333333570e+00,1.639373512969083309e+09,0.000000000000000000e+00,-3.780562139354990969e-01,0.000000000000000000e+00,-3.780562139354990969e-01
4.700000000000000178e+00,1.639373512986070633e+09,0.000000000000000000e+00,-2.050076840326560679e-01,0.000000000000000000e+00,-2.050076840326560679e-01
4.716666666666666785e+00,1.639373513003024817e+09,0.000000000000000000e+00,4.334725497629493551e-01,0.000000000000000000e+00,4.334725497629493551e-01
4.733333333333333393e+00,1.639373513020979643e+09,0.000000000000000000e+00,4.334725497629493551e-01,0.000000000000000000e+00,4.334725497629493551e-01
4.750000000000000000e+00,1.639373513036900520e+09,0.000000000000000000e+00,4.334725497629493551e-01,0.000000000000000000e+00,4.334725497629493551e-01
4.766666666666666607e+00,1.639373513053889990e+09,0.000000000000000000e+00,4.334725497629493551e-01,0.000000000000000000e+00,4.334725497629493551e-01
4.783333333333333215e+00,1.639373513071842194e+09,0.000000000000000000e+00,4.334725497629493551e-01,0.000000000000000000e+00,4.334725497629493551e-01
4.799999999999999822e+00,1.639373513087801695e+09,0.000000000000000000e+00,4.334725497629493551e-01,0.000000000000000000e+00,4.334725497629493551e-01
4.816666666666666430e+00,1.639373513105733871e+09,0.000000000000000000e+00,4.334725497629493551e-01,0.000000000000000000e+00,4.334725497629493551e-01
4.833333333333333037e+00,1.639373513121708632e+09,0.000000000000000000e+00,4.334725497629493551e-01,0.000000000000000000e+00,4.334725497629493551e-01
4.849999999999999645e+00,1.639373513138629198e+09,0.000000000000000000e+00,4.334725497629493551e-01,0.000000000000000000e+00,4.334725497629493551e-01
4.866666666666666252e+00,1.639373513156617165e+09,0.000000000000000000e+00,4.334725497629493551e-01,0.000000000000000000e+00,4.334725497629493551e-01
4.883333333333332860e+00,1.639373513172574043e+09,0.000000000000000000e+00,4.334725497629493551e-01,0.000000000000000000e+00,4.334725497629493551e-01
4.900000000000000355e+00,1.639373513190522909e+09,0.000000000000000000e+00,4.334725497629493551e-01,0.000000000000000000e+00,4.334725497629493551e-01
4.916666666666666963e+00,1.639373513206504345e+09,0.000000000000000000e+00,4.334725497629493551e-01,0.000000000000000000e+00,4.334725497629493551e-01
4.933333333333333570e+00,1.639373513223435879e+09,0.000000000000000000e+00,4.334725497629493551e-01,0.000000000000000000e+00,4.334725497629493551e-01
4.950000000000000178e+00,1.639373513240389824e+09,0.000000000000000000e+00,4.334725497629493551e-01,0.000000000000000000e+00,4.334725497629493551e-01
4.966666666666666785e+00,1.639373513257311821e+09,0.000000000000000000e+00,4.334725497629493551e-01,0.000000000000000000e+00,4.334725497629493551e-01
4.983333333333333393e+00,1.639373513274299383e+09,0.000000000000000000e+00,4.334725497629493551e-01,0.000000000000000000e+00,4.334725497629493551e-01
5.000000000000000000e+00,1.639373513295237064e+09,0.000000000000000000e+00,4.334725497629493551e-01,0.000000000000000000e+00,4.334725497629493551e-01
5.016666666666666607e+00,1.639373513308207989e+09,0.000000000000000000e+00,4.334725497629493551e-01,0.000000000000000000e+00,4.334725497629493551e-01
5.033333333333333215e+00,1.639373513326159716e+09,0.000000000000000000e+00,4.334725497629493551e-01,0.000000000000000000e+00,4.334725497629493551e-01
5.049999999999999822e+00,1.639373513344112158e+09,0.000000000000000000e+00,4.334725497629493551e-01,0.000000000000000000e+00,4.334725497629493551e-01
5.066666666666666430e+00,1.639373513361033440e+09,0.000000000000000000e+00,4.334725497629493551e-01,0.000000000000000000e+00,4.334725497629493551e-01
5.083333333333333037e+00,1.639373513378004074e+09,0.000000000000000000e+00,4.334725497629493551e-01,0.000000000000000000e+00,4.334725497629493551e-01
5.099999999999999645e+00,1.639373513393979549e+09,0.000000000000000000e+00,4.334725497629493551e-01,0.000000000000000000e+00,4.334725497629493551e-01
5.116666666666666252e+00,1.639373513410934210e+09,0.000000000000000000e+00,4.334725497629493551e-01,0.000000000000000000e+00,4.334725497629493551e-01
5.133333333333332860e+00,1.639373513427855492e+09,0.000000000000000000e+00,4.334725497629493551e-01,0.000000000000000000e+00,4.334725497629493551e-01
5.150000000000000355e+00,1.639373513445807457e+09,0.000000000000000000e+00,4.334725497629493551e-01,0.000000000000000000e+00,4.334725497629493551e-01
5.166666666666666963e+00,1.639373513463791609e+09,0.000000000000000000e+00,4.334725497629493551e-01,0.000000000000000000e+00,4.334725497629493551e-01
5.183333333333333570e+00,1.639373513478719473e+09,0.000000000000000000e+00,4.334725497629493551e-01,0.000000000000000000e+00,4.334725497629493551e-01
5.200000000000000178e+00,1.639373513495710135e+09,0.000000000000000000e+00,4.334725497629493551e-01,0.000000000000000000e+00,4.334725497629493551e-01
5.216666666666666785e+00,1.639373513513660431e+09,0.000000000000000000e+00,4.254601181591980974e-01,0.000000000000000000e+00,4.254601181591980974e-01
5.233333333333333393e+00,1.639373513530615091e+09,0.000000000000000000e+00,4.254601181591980974e-01,0.000000000000000000e+00,4.254601181591980974e-01
5.250000000000000000e+00,1.639373513548557520e+09,0.000000000000000000e+00,4.174476865554462846e-01,0.000000000000000000e+00,4.174476865554462846e-01
5.266666666666666607e+00,1.639373513564514160e+09,0.000000000000000000e+00,4.254601181591980974e-01,0.000000000000000000e+00,4.254601181591980974e-01
5.283333333333333215e+00,1.639373513581477880e+09,0.000000000000000000e+00,4.174476865554462846e-01,0.000000000000000000e+00,4.174476865554462846e-01
5.299999999999999822e+00,1.639373513597401857e+09,0.000000000000000000e+00,4.174476865554462846e-01,0.000000000000000000e+00,4.174476865554462846e-01
5.316666666666666430e+00,1.639373513615388393e+09,0.000000000000000000e+00,4.094352549516950823e-01,0.000000000000000000e+00,4.094352549516950823e-01
5.333333333333333037e+00,1.639373513631344795e+09,0.000000000000000000e+00,4.094352549516950823e-01,0.000000000000000000e+00,4.094352549516950823e-01
5.349999999999999645e+00,1.639373513649319410e+09,0.000000000000000000e+00,4.014228233479438246e-01,0.000000000000000000e+00,4.014228233479438246e-01
5.366666666666666252e+00,1.639373513666274786e+09,0.000000000000000000e+00,3.934103917441926224e-01,0.000000000000000000e+00,3.934103917441926224e-01
5.383333333333332860e+00,1.639373513682231903e+09,0.000000000000000000e+00,3.934103917441926224e-01,0.000000000000000000e+00,3.934103917441926224e-01
5.400000000000000355e+00,1.639373513700182915e+09,0.000000000000000000e+00,3.853979601404408095e-01,0.000000000000000000e+00,3.853979601404408095e-01
5.416666666666666963e+00,1.639373513716109276e+09,0.000000000000000000e+00,3.853979601404408095e-01,0.000000000000000000e+00,3.853979601404408095e-01
5.433333333333333570e+00,1.639373513734070778e+09,0.000000000000000000e+00,3.853979601404408095e-01,0.000000000000000000e+00,3.853979601404408095e-01
5.450000000000000178e+00,1.639373513752044916e+09,0.000000000000000000e+00,3.773855285366895518e-01,0.000000000000000000e+00,3.773855285366895518e-01
5.466666666666666785e+00,1.639373513769000292e+09,0.000000000000000000e+00,3.773855285366895518e-01,0.000000000000000000e+00,3.773855285366895518e-01
5.483333333333333393e+00,1.639373513785897493e+09,0.000000000000000000e+00,3.693730969329383496e-01,0.000000000000000000e+00,3.693730969329383496e-01
5.500000000000000000e+00,1.639373513802909613e+09,0.000000000000000000e+00,3.613606653291871473e-01,0.000000000000000000e+00,3.613606653291871473e-01
5.516666666666666607e+00,1.639373513818865299e+09,0.000000000000000000e+00,3.613606653291871473e-01,0.000000000000000000e+00,3.613606653291871473e-01
5.533333333333333215e+00,1.639373513834798098e+09,0.000000000000000000e+00,3.613606653291871473e-01,0.000000000000000000e+00,3.613606653291871473e-01
5.549999999999999822e+00,1.639373513853751659e+09,0.000000000000000000e+00,3.613606653291871473e-01,0.000000000000000000e+00,3.613606653291871473e-01
5.566666666666666430e+00,1.639373513870702505e+09,0.000000000000000000e+00,3.613606653291871473e-01,0.000000000000000000e+00,3.613606653291871473e-01
5.583333333333333037e+00,1.639373513886659145e+09,0.000000000000000000e+00,3.613606653291871473e-01,0.000000000000000000e+00,3.613606653291871473e-01
5.599999999999999645e+00,1.639373513904580116e+09,0.000000000000000000e+00,3.613606653291871473e-01,0.000000000000000000e+00,3.613606653291871473e-01
5.616666666666666252e+00,1.639373513920574903e+09,0.000000000000000000e+00,3.613606653291871473e-01,0.000000000000000000e+00,3.613606653291871473e-01
5.633333333333332860e+00,1.639373513939518929e+09,0.000000000000000000e+00,3.613606653291871473e-01,0.000000000000000000e+00,3.613606653291871473e-01
5.650000000000000355e+00,1.639373513954446554e+09,0.000000000000000000e+00,3.613606653291871473e-01,0.000000000000000000e+00,3.613606653291871473e-01
5.666666666666666963e+00,1.639373513970435381e+09,0.000000000000000000e+00,-1.091607012077765310e-01,0.000000000000000000e+00,-1.091607012077765310e-01
5.683333333333333570e+00,1.639373513989353180e+09,0.000000000000000000e+00,3.613606653291871473e-01,0.000000000000000000e+00,3.613606653291871473e-01
5.700000000000000178e+00,1.639373514006339788e+09,0.000000000000000000e+00,3.533482337254352790e-01,0.000000000000000000e+00,3.533482337254352790e-01
5.716666666666666785e+00,1.639373514021268606e+09,0.000000000000000000e+00,3.533482337254352790e-01,0.000000000000000000e+00,3.533482337254352790e-01
5.733333333333333393e+00,1.639373514040250301e+09,0.000000000000000000e+00,3.453358021216840767e-01,0.000000000000000000e+00,3.453358021216840767e-01
5.750000000000000000e+00,1.639373514056174517e+09,0.000000000000000000e+00,3.373233705179328190e-01,0.000000000000000000e+00,3.373233705179328190e-01
5.766666666666666607e+00,1.639373514074158430e+09,0.000000000000000000e+00,3.293109389141816168e-01,0.000000000000000000e+00,3.293109389141816168e-01
5.783333333333333215e+00,1.639373514090115786e+09,0.000000000000000000e+00,3.132860757066785462e-01,0.000000000000000000e+00,3.132860757066785462e-01
5.799999999999999822e+00,1.639373514107071161e+09,0.000000000000000000e+00,3.132860757066785462e-01,0.000000000000000000e+00,3.132860757066785462e-01
5.816666666666666430e+00,1.639373514125024080e+09,0.000000000000000000e+00,2.892487808954248840e-01,0.000000000000000000e+00,2.892487808954248840e-01
5.833333333333333037e+00,1.639373514141977787e+09,0.000000000000000000e+00,2.652114860841706112e-01,0.000000000000000000e+00,2.652114860841706112e-01
5.849999999999999645e+00,1.639373514157934904e+09,0.000000000000000000e+00,2.331617596691651362e-01,0.000000000000000000e+00,2.331617596691651362e-01
5.866666666666666252e+00,1.639373514175887585e+09,0.000000000000000000e+00,2.011120332541596334e-01,0.000000000000000000e+00,2.011120332541596334e-01
5.883333333333332860e+00,1.639373514192842007e+09,0.000000000000000000e+00,1.690623068391541306e-01,0.000000000000000000e+00,1.690623068391541306e-01
5.900000000000000355e+00,1.639373514208799124e+09,0.000000000000000000e+00,1.530374436316510878e-01,0.000000000000000000e+00,1.530374436316510878e-01
5.916666666666666963e+00,1.639373514225756168e+09,0.000000000000000000e+00,1.530374436316510878e-01,0.000000000000000000e+00,1.530374436316510878e-01
5.933333333333333570e+00,1.639373514243705750e+09,0.000000000000000000e+00,1.450250120278998578e-01,0.000000000000000000e+00,1.450250120278998578e-01
5.950000000000000178e+00,1.639373514259663105e+09,0.000000000000000000e+00,1.450250120278998578e-01,0.000000000000000000e+00,1.450250120278998578e-01
5.966666666666666785e+00,1.639373514277615786e+09,0.000000000000000000e+00,1.450250120278998578e-01,0.000000000000000000e+00,1.450250120278998578e-01
5.983333333333333393e+00,1.639373514294570208e+09,0.000000000000000000e+00,1.450250120278998578e-01,0.000000000000000000e+00,1.450250120278998578e-01
6.000000000000000000e+00,1.639373514312488317e+09,0.000000000000000000e+00,1.450250120278998578e-01,0.000000000000000000e+00,1.450250120278998578e-01
6.016666666666666607e+00,1.639373514329470634e+09,0.000000000000000000e+00,1.610498752354029006e-01,0.000000000000000000e+00,1.610498752354029006e-01
6.033333333333333215e+00,1.639373514344437599e+09,0.000000000000000000e+00,1.770747384429053606e-01,0.000000000000000000e+00,1.770747384429053606e-01
6.049999999999999822e+00,1.639373514362368584e+09,0.000000000000000000e+00,1.850871700466565906e-01,0.000000000000000000e+00,1.850871700466565906e-01
6.066666666666666430e+00,1.639373514380341530e+09,0.000000000000000000e+00,1.850871700466565906e-01,0.000000000000000000e+00,1.850871700466565906e-01
6.083333333333333037e+00,1.639373514395267010e+09,0.000000000000000000e+00,1.850871700466565906e-01,0.000000000000000000e+00,1.850871700466565906e-01
6.099999999999999645e+00,1.639373514412255526e+09,0.000000000000000000e+00,1.850871700466565906e-01,0.000000000000000000e+00,1.850871700466565906e-01
6.116666666666666252e+00,1.639373514429176807e+09,0.000000000000000000e+00,1.850871700466565906e-01,0.000000000000000000e+00,1.850871700466565906e-01
6.133333333333332860e+00,1.639373514446168184e+09,0.000000000000000000e+00,1.850871700466565906e-01,0.000000000000000000e+00,1.850871700466565906e-01
6.150000000000000355e+00,1.639373514463085890e+09,0.000000000000000000e+00,1.850871700466565906e-01,0.000000000000000000e+00,1.850871700466565906e-01
6.166666666666666963e+00,1.639373514480072498e+09,0.000000000000000000e+00,1.850871700466565906e-01,0.000000000000000000e+00,1.850871700466565906e-01
6.183333333333333570e+00,1.639373514497027159e+09,0.000000000000000000e+00,1.850871700466565906e-01,0.000000000000000000e+00,1.850871700466565906e-01
6.200000000000000178e+00,1.639373514514946938e+09,0.000000000000000000e+00,1.770747384429053606e-01,0.000000000000000000e+00,1.770747384429053606e-01
6.216666666666666785e+00,1.639373514532930613e+09,0.000000000000000000e+00,1.690623068391541306e-01,0.000000000000000000e+00,1.690623068391541306e-01
6.233333333333333393e+00,1.639373514548888206e+09,0.000000000000000000e+00,1.690623068391541306e-01,0.000000000000000000e+00,1.690623068391541306e-01
6.250000000000000000e+00,1.639373514565848827e+09,0.000000000000000000e+00,1.610498752354029006e-01,0.000000000000000000e+00,1.610498752354029006e-01
6.266666666666666607e+00,1.639373514581801891e+09,0.000000000000000000e+00,1.610498752354029006e-01,0.000000000000000000e+00,1.610498752354029006e-01
6.283333333333333215e+00,1.639373514598757267e+09,0.000000000000000000e+00,1.530374436316510878e-01,0.000000000000000000e+00,1.530374436316510878e-01
6.299999999999999822e+00,1.639373514616710901e+09,0.000000000000000000e+00,1.450250120278998578e-01,0.000000000000000000e+00,1.450250120278998578e-01
6.316666666666666430e+00,1.639373514633629084e+09,0.000000000000000000e+00,1.450250120278998578e-01,0.000000000000000000e+00,1.450250120278998578e-01
6.333333333333333037e+00,1.639373514649619102e+09,0.000000000000000000e+00,1.450250120278998578e-01,0.000000000000000000e+00,1.450250120278998578e-01
6.349999999999999645e+00,1.639373514667574167e+09,0.000000000000000000e+00,1.450250120278998578e-01,0.000000000000000000e+00,1.450250120278998578e-01
