2022-02-06-13:27:22.050652,1.0,16.0,383.0
2022-02-06-13:27:22.051622,0.0,8.0,383.0
2022-02-06-13:27:22.052628,7.0,2.0,382.0
2022-02-06-13:27:22.052628,6.0,3.0,382.0
2022-02-06-13:27:22.053616,11.0,3.0,382.0
2022-02-06-13:27:22.054613,1.0,18.0,382.0
2022-02-06-13:27:22.055623,2.0,10.0,382.0
2022-02-06-13:27:22.056619,3.0,5.0,382.0
2022-02-06-13:27:22.057641,8.0,0.0,383.0
2022-02-06-13:27:22.058638,9.0,12.0,382.0
2022-02-06-13:27:22.060632,4.0,12.0,382.0
2022-02-06-13:27:22.061595,1.0,17.0,383.0
2022-02-06-13:27:22.061595,4.0,3.0,383.0
2022-02-06-13:27:22.062593,7.0,0.0,383.0
2022-02-06-13:27:22.063607,11.0,10.0,382.0
2022-02-06-13:27:22.064621,8.0,2.0,383.0
2022-02-06-13:27:22.065642,7.0,6.0,382.0
2022-02-06-13:27:22.066634,3.0,17.0,382.0
2022-02-06-13:27:22.067628,3.0,16.0,382.0
2022-02-06-13:27:22.068625,1.0,4.0,382.0
2022-02-06-13:27:22.069622,4.0,3.0,383.0
2022-02-06-13:27:22.070620,13.0,10.0,383.0
2022-02-06-13:27:22.071570,0.0,17.0,383.0
2022-02-06-13:27:22.072614,4.0,3.0,382.0
2022-02-06-13:27:22.073616,4.0,2.0,382.0
2022-02-06-13:27:22.074588,3.0,11.0,383.0
2022-02-06-13:27:22.075586,5.0,10.0,382.0
2022-02-06-13:27:22.076603,5.0,3.0,382.0
2022-02-06-13:27:22.077602,12.0,8.0,382.0
2022-02-06-13:27:22.078601,3.0,16.0,382.0
2022-02-06-13:27:22.079550,1.0,10.0,383.0
2022-02-06-13:27:22.080577,6.0,5.0,382.0
2022-02-06-13:27:22.081569,11.0,6.0,382.0
2022-02-06-13:27:22.082566,0.0,16.0,382.0
2022-02-06-13:27:22.083537,2.0,7.0,382.0
2022-02-06-13:27:22.084534,4.0,5.0,382.0
2022-02-06-13:27:22.085531,6.0,2.0,382.0
2022-02-06-13:27:22.086529,11.0,9.0,383.0
2022-02-06-13:27:22.087552,5.0,2.0,382.0
2022-02-06-13:27:22.088546,1.0,19.0,383.0
2022-02-06-13:27:22.089525,0.0,11.0,382.0
2022-02-06-13:27:22.090556,2.0,8.0,382.0
2022-02-06-13:27:22.091516,4.0,5.0,383.0
2022-02-06-13:27:22.095261,9.0,7.0,382.0
2022-02-06-13:27:22.095540,11.0,9.0,383.0
2022-02-06-13:27:22.096537,8.0,2.0,382.0
2022-02-06-13:27:22.097535,4.0,8.0,382.0
2022-02-06-13:27:22.098532,3.0,2.0,382.0
2022-02-06-13:27:22.099530,7.0,8.0,382.0
2022-02-06-13:27:22.100532,2.0,17.0,382.0
2022-02-06-13:27:22.101524,3.0,11.0,382.0
2022-02-06-13:27:22.102521,7.0,5.0,382.0
2022-02-06-13:27:22.103519,9.0,7.0,382.0
2022-02-06-13:27:22.104516,1.0,17.0,382.0
2022-02-06-13:27:22.105479,4.0,4.0,382.0
2022-02-06-13:27:22.106510,3.0,1.0,383.0
2022-02-06-13:27:22.107478,9.0,10.0,382.0
2022-02-06-13:27:22.108485,11.0,1.0,382.0
2022-02-06-13:27:22.109503,2.0,8.0,382.0
2022-02-06-13:27:22.110465,8.0,8.0,382.0
2022-02-06-13:27:22.111488,4.0,6.0,382.0
2022-02-06-13:27:22.112485,5.0,6.0,382.0
2022-02-06-13:27:22.113490,1.0,13.0,382.0
2022-02-06-13:27:22.114481,3.0,3.0,382.0
2022-02-06-13:27:22.115479,10.0,5.0,383.0
2022-02-06-13:27:22.116476,10.0,2.0,382.0
2022-02-06-13:27:22.117480,3.0,19.0,383.0
2022-02-06-13:27:22.118471,2.0,6.0,383.0
2022-02-06-13:27:22.119467,5.0,2.0,383.0
2022-02-06-13:27:22.120464,12.0,6.0,383.0
2022-02-06-13:27:22.121455,11.0,4.0,382.0
2022-02-06-13:27:22.122459,8.0,0.0,382.0
2022-02-06-13:27:22.123478,1.0,14.0,382.0
2022-02-06-13:27:22.124476,1.0,22.0,383.0
2022-02-06-13:27:22.125463,0.0,13.0,383.0
2022-02-06-13:27:22.127470,0.0,13.0,383.0
2022-02-06-13:27:22.128418,9.0,4.0,382.0
2022-02-06-13:27:22.128418,7.0,7.0,383.0
2022-02-06-13:27:22.129459,9.0,6.0,383.0
2022-02-06-13:27:22.130460,6.0,2.0,382.0
2022-02-06-13:27:22.131453,1.0,21.0,383.0
2022-02-06-13:27:22.132454,0.0,12.0,382.0
2022-02-06-13:27:22.133449,4.0,5.0,382.0
2022-02-06-13:27:22.134446,3.0,4.0,382.0
2022-02-06-13:27:22.135443,7.0,3.0,382.0
2022-02-06-13:27:22.136440,9.0,6.0,382.0
2022-02-06-13:27:22.137438,9.0,7.0,382.0
2022-02-06-13:27:22.138391,11.0,1.0,383.0
2022-02-06-13:27:22.139416,3.0,16.0,382.0
2022-02-06-13:27:22.140410,1.0,8.0,382.0
2022-02-06-13:27:22.141407,5.0,3.0,383.0
2022-02-06-13:27:22.142406,10.0,0.0,382.0
2022-02-06-13:27:22.143403,14.0,7.0,382.0
2022-02-06-13:27:22.144400,9.0,3.0,383.0
2022-02-06-13:27:22.145397,2.0,14.0,383.0
2022-02-06-13:27:22.146394,6.0,10.0,383.0
2022-02-06-13:27:22.147394,3.0,3.0,383.0
2022-02-06-13:27:22.148390,7.0,1.0,383.0
2022-02-06-13:27:22.149387,9.0,12.0,383.0
2022-02-06-13:27:22.150385,5.0,1.0,384.0
2022-02-06-13:27:22.151381,2.0,17.0,383.0
2022-02-06-13:27:22.152378,2.0,19.0,384.0
2022-02-06-13:27:22.153376,0.0,14.0,384.0
2022-02-06-13:27:22.154375,3.0,7.0,383.0
2022-02-06-13:27:22.155374,4.0,1.0,384.0
2022-02-06-13:27:22.156373,5.0,1.0,383.0
2022-02-06-13:27:22.157366,8.0,1.0,384.0
2022-02-06-13:27:22.158364,7.0,8.0,384.0
2022-02-06-13:27:22.159360,10.0,10.0,384.0
2022-02-06-13:27:22.160357,5.0,10.0,384.0
2022-02-06-13:27:22.162326,2.0,13.0,384.0
2022-02-06-13:27:22.162326,2.0,5.0,385.0
2022-02-06-13:27:22.163324,7.0,8.0,384.0
2022-02-06-13:27:22.164345,7.0,1.0,384.0
2022-02-06-13:27:22.165342,3.0,20.0,385.0
2022-02-06-13:27:22.166370,2.0,3.0,384.0
2022-02-06-13:27:22.167337,3.0,1.0,384.0
2022-02-06-13:27:22.168335,5.0,3.0,384.0
2022-02-06-13:27:22.169332,6.0,3.0,385.0
2022-02-06-13:27:22.170329,3.0,11.0,384.0
2022-02-06-13:27:22.171326,3.0,9.0,384.0
2022-02-06-13:27:22.172301,2.0,1.0,384.0
2022-02-06-13:27:22.173330,5.0,2.0,384.0
2022-02-06-13:27:22.174322,8.0,4.0,384.0
2022-02-06-13:27:22.175292,13.0,11.0,384.0
2022-02-06-13:27:22.176315,6.0,11.0,384.0
2022-02-06-13:27:22.177312,1.0,8.0,384.0
2022-02-06-13:27:22.178309,3.0,4.0,384.0
2022-02-06-13:27:22.179309,6.0,1.0,383.0
2022-02-06-13:27:22.180303,3.0,5.0,384.0
2022-02-06-13:27:22.181301,9.0,6.0,384.0
2022-02-06-13:27:22.182309,3.0,7.0,384.0
2022-02-06-13:27:22.183297,0.0,20.0,384.0
2022-02-06-13:27:22.184293,0.0,11.0,384.0
2022-02-06-13:27:22.185295,4.0,6.0,384.0
2022-02-06-13:27:22.186288,6.0,1.0,383.0
2022-02-06-13:27:22.187287,5.0,1.0,384.0
2022-02-06-13:27:22.188258,8.0,12.0,383.0
2022-02-06-13:27:22.189255,7.0,0.0,383.0
2022-02-06-13:27:22.190279,4.0,15.0,384.0
2022-02-06-13:27:22.191275,1.0,17.0,384.0
2022-02-06-13:27:22.192487,0.0,9.0,384.0
2022-02-06-13:27:22.192487,4.0,5.0,384.0
2022-02-06-13:27:22.194285,6.0,9.0,384.0
2022-02-06-13:27:22.194285,9.0,10.0,384.0
2022-02-06-13:27:22.195282,4.0,7.0,383.0
2022-02-06-13:27:22.196281,1.0,19.0,384.0
2022-02-06-13:27:22.197278,1.0,11.0,384.0
2022-02-06-13:27:22.198275,3.0,7.0,384.0
2022-02-06-13:27:22.199259,5.0,3.0,384.0
2022-02-06-13:27:22.200270,8.0,5.0,384.0
2022-02-06-13:27:22.201267,12.0,7.0,384.0
2022-02-06-13:27:22.202264,7.0,0.0,384.0
2022-02-06-13:27:22.203253,0.0,18.0,383.0
2022-02-06-13:27:22.204260,2.0,11.0,383.0
2022-02-06-13:27:22.205213,6.0,6.0,384.0
2022-02-06-13:27:22.206236,6.0,2.0,384.0
2022-02-06-13:27:22.207251,8.0,10.0,384.0
2022-02-06-13:27:22.208249,7.0,4.0,383.0
2022-02-06-13:27:22.209248,0.0,18.0,384.0
2022-02-06-13:27:22.210230,0.0,16.0,384.0
2022-02-06-13:27:22.211195,2.0,10.0,383.0
2022-02-06-13:27:22.211195,4.0,3.0,384.0
2022-02-06-13:27:22.212226,9.0,4.0,383.0
2022-02-06-13:27:22.213235,5.0,3.0,383.0
2022-02-06-13:27:22.214232,12.0,5.0,383.0
2022-02-06-13:27:22.215234,10.0,10.0,384.0
2022-02-06-13:27:22.216233,10.0,1.0,384.0
2022-02-06-13:27:22.217224,2.0,17.0,384.0
2022-02-06-13:27:22.218226,0.0,14.0,384.0
2022-02-06-13:27:22.219221,2.0,9.0,384.0
2022-02-06-13:27:22.220216,2.0,9.0,384.0
2022-02-06-13:27:22.221214,4.0,6.0,384.0
2022-02-06-13:27:22.222166,7.0,2.0,384.0
2022-02-06-13:27:22.223209,3.0,6.0,384.0
2022-02-06-13:27:22.224205,3.0,6.0,384.0
2022-02-06-13:27:22.225208,6.0,1.0,384.0
2022-02-06-13:27:22.226205,6.0,4.0,383.0
2022-02-06-13:27:22.227197,8.0,11.0,384.0
2022-02-06-13:27:22.228197,8.0,11.0,384.0
2022-02-06-13:27:22.230195,11.0,2.0,384.0
2022-02-06-13:27:22.230195,4.0,6.0,384.0
2022-02-06-13:27:22.231191,4.0,6.0,384.0
2022-02-06-13:27:22.232140,4.0,6.0,384.0
2022-02-06-13:27:22.233184,5.0,14.0,384.0
2022-02-06-13:27:22.234184,0.0,16.0,384.0
2022-02-06-13:27:22.235160,2.0,12.0,384.0
2022-02-06-13:27:22.236129,2.0,12.0,384.0
2022-02-06-13:27:22.237172,0.0,8.0,384.0
2022-02-06-13:27:22.238171,5.0,3.0,384.0
2022-02-06-13:27:22.239154,5.0,3.0,384.0
2022-02-06-13:27:22.240129,5.0,3.0,384.0
2022-02-06-13:27:22.241141,5.0,1.0,384.0
2022-02-06-13:27:22.242140,11.0,3.0,383.0
2022-02-06-13:27:22.243138,9.0,8.0,384.0
2022-02-06-13:27:22.244134,9.0,8.0,384.0
2022-02-06-13:27:22.245132,9.0,8.0,384.0
2022-02-06-13:27:22.246130,0.0,3.0,384.0
2022-02-06-13:27:22.247125,0.0,3.0,384.0
2022-02-06-13:27:22.248122,0.0,3.0,384.0
2022-02-06-13:27:22.249121,0.0,3.0,384.0
2022-02-06-13:27:22.250117,4.0,13.0,384.0
2022-02-06-13:27:22.251117,1.0,16.0,384.0
2022-02-06-13:27:22.252112,0.0,14.0,384.0
2022-02-06-13:27:22.253110,0.0,14.0,384.0
2022-02-06-13:27:22.254107,1.0,8.0,384.0
2022-02-06-13:27:22.255078,2.0,5.0,384.0
2022-02-06-13:27:22.256102,6.0,4.0,384.0
2022-02-06-13:27:22.257099,6.0,4.0,384.0
2022-02-06-13:27:22.258097,7.0,3.0,383.0
2022-02-06-13:27:22.259096,10.0,1.0,384.0
2022-02-06-13:27:22.260091,10.0,10.0,384.0
2022-02-06-13:27:22.261088,10.0,10.0,384.0
2022-02-06-13:27:22.262086,14.0,9.0,384.0
2022-02-06-13:27:22.263083,6.0,4.0,384.0
2022-02-06-13:27:22.264081,5.0,4.0,383.0
2022-02-06-13:27:22.265078,5.0,4.0,383.0
2022-02-06-13:27:22.267046,5.0,4.0,383.0
2022-02-06-13:27:22.267046,1.0,8.0,384.0
2022-02-06-13:27:22.268068,1.0,8.0,384.0
2022-02-06-13:27:22.269066,1.0,8.0,384.0
2022-02-06-13:27:22.270064,3.0,6.0,383.0
2022-02-06-13:27:22.271179,6.0,1.0,383.0
2022-02-06-13:27:22.271179,6.0,1.0,383.0
2022-02-06-13:27:22.272229,6.0,1.0,383.0
2022-02-06-13:27:22.273370,6.0,1.0,383.0
2022-02-06-13:27:22.273370,4.0,0.0,384.0
2022-02-06-13:27:22.274394,4.0,0.0,384.0
2022-02-06-13:27:22.275515,8.0,8.0,384.0
2022-02-06-13:27:22.275515,8.0,8.0,384.0
2022-02-06-13:27:22.276561,8.0,8.0,384.0
2022-02-06-13:27:22.277562,8.0,8.0,384.0
2022-02-06-13:27:22.278557,10.0,12.0,383.0
2022-02-06-13:27:22.279599,7.0,4.0,384.0
2022-02-06-13:27:22.279599,6.0,5.0,384.0
2022-02-06-13:27:22.280622,6.0,5.0,384.0
2022-02-06-13:27:22.281624,6.0,5.0,384.0
2022-02-06-13:27:22.282618,2.0,21.0,384.0
2022-02-06-13:27:22.283615,2.0,13.0,384.0
2022-02-06-13:27:22.284614,2.0,13.0,384.0
2022-02-06-13:27:22.285610,2.0,13.0,384.0
2022-02-06-13:27:22.286607,3.0,11.0,384.0
2022-02-06-13:27:22.287604,1.0,3.0,384.0
2022-02-06-13:27:22.288579,1.0,3.0,384.0
2022-02-06-13:27:22.289622,1.0,3.0,384.0
2022-02-06-13:27:22.290620,7.0,2.0,384.0
2022-02-06-13:27:22.291616,10.0,4.0,384.0
2022-02-06-13:27:22.292613,10.0,9.0,384.0
2022-02-06-13:27:22.293564,10.0,9.0,384.0
2022-02-06-13:27:22.294607,10.0,8.0,383.0
2022-02-06-13:27:22.295606,10.0,3.0,384.0
2022-02-06-13:27:22.296605,10.0,3.0,384.0
2022-02-06-13:27:22.298598,10.0,3.0,384.0
2022-02-06-13:27:22.298598,1.0,20.0,384.0
2022-02-06-13:27:22.299548,3.0,9.0,384.0
2022-02-06-13:27:22.300592,3.0,9.0,384.0
2022-02-06-13:27:22.301569,3.0,9.0,384.0
2022-02-06-13:27:22.302567,1.0,7.0,383.0
2022-02-06-13:27:22.303563,3.0,3.0,384.0
2022-02-06-13:27:22.304560,3.0,3.0,384.0
2022-02-06-13:27:22.305532,3.0,3.0,384.0
2022-02-06-13:27:22.306576,3.0,3.0,384.0
2022-02-06-13:27:22.307574,3.0,2.0,384.0
2022-02-06-13:27:22.308571,8.0,7.0,384.0
2022-02-06-13:27:22.309570,8.0,7.0,384.0
2022-02-06-13:27:22.310565,8.0,7.0,384.0
2022-02-06-13:27:22.311568,9.0,12.0,384.0
2022-02-06-13:27:22.312562,5.0,2.0,383.0
2022-02-06-13:27:22.313557,3.0,0.0,384.0
2022-02-06-13:27:22.314794,3.0,0.0,384.0
2022-02-06-13:27:22.314794,3.0,8.0,384.0
2022-02-06-13:27:22.315847,3.0,23.0,384.0
2022-02-06-13:27:22.316837,2.0,17.0,383.0
2022-02-06-13:27:22.317834,2.0,17.0,383.0
2022-02-06-13:27:22.318834,2.0,17.0,383.0
2022-02-06-13:27:22.319831,1.0,5.0,384.0
2022-02-06-13:27:22.320826,2.0,3.0,384.0
2022-02-06-13:27:22.321778,2.0,3.0,384.0
2022-02-06-13:27:22.322821,2.0,3.0,384.0
2022-02-06-13:27:22.323820,2.0,5.0,384.0
2022-02-06-13:27:22.324821,5.0,4.0,384.0
2022-02-06-13:27:22.325813,7.0,3.0,384.0
2022-02-06-13:27:22.326813,7.0,3.0,384.0
2022-02-06-13:27:22.327807,8.0,13.0,383.0
2022-02-06-13:27:22.328812,8.0,5.0,384.0
2022-02-06-13:27:22.329804,8.0,1.0,384.0
2022-02-06-13:27:22.330801,8.0,1.0,384.0
2022-02-06-13:27:22.332748,3.0,15.0,384.0
2022-02-06-13:27:22.332748,1.0,17.0,384.0
2022-02-06-13:27:22.333866,1.0,17.0,384.0
2022-02-06-13:27:22.333866,1.0,17.0,384.0
2022-02-06-13:27:22.335070,1.0,17.0,384.0
2022-02-06-13:27:22.335070,2.0,12.0,383.0
2022-02-06-13:27:22.336094,2.0,12.0,383.0
2022-02-06-13:27:22.337208,0.0,3.0,384.0
2022-02-06-13:27:22.337208,0.0,3.0,384.0
2022-02-06-13:27:22.338255,0.0,3.0,384.0
2022-02-06-13:27:22.339398,0.0,3.0,384.0
2022-02-06-13:27:22.339398,5.0,3.0,384.0
2022-02-06-13:27:22.340426,5.0,3.0,384.0
2022-02-06-13:27:22.341535,8.0,5.0,384.0
2022-02-06-13:27:22.341535,8.0,5.0,384.0
2022-02-06-13:27:22.342763,8.0,5.0,384.0
2022-02-06-13:27:22.342763,8.0,8.0,384.0
2022-02-06-13:27:22.343790,8.0,8.0,384.0
2022-02-06-13:27:22.344785,8.0,2.0,384.0
2022-02-06-13:27:22.345790,8.0,2.0,384.0
2022-02-06-13:27:22.346755,8.0,2.0,384.0
2022-02-06-13:27:22.347784,2.0,5.0,384.0
2022-02-06-13:27:22.348781,2.0,19.0,384.0
2022-02-06-13:27:22.349748,2.0,19.0,384.0
2022-02-06-13:27:22.350744,2.0,19.0,384.0
2022-02-06-13:27:22.351776,2.0,19.0,384.0
2022-02-06-13:27:22.352771,2.0,11.0,384.0
2022-02-06-13:27:22.353768,8.0,6.0,384.0
2022-02-06-13:27:22.354768,8.0,6.0,384.0
2022-02-06-13:27:22.355786,8.0,6.0,384.0
2022-02-06-13:27:22.356783,7.0,1.0,383.0
2022-02-06-13:27:22.357777,8.0,3.0,383.0
2022-02-06-13:27:22.358770,8.0,3.0,383.0
2022-02-06-13:27:22.359768,8.0,3.0,383.0
2022-02-06-13:27:22.360765,14.0,4.0,384.0
2022-02-06-13:27:22.361762,14.0,12.0,383.0
2022-02-06-13:27:22.362760,6.0,3.0,384.0
2022-02-06-13:27:22.363757,6.0,3.0,384.0
2022-02-06-13:27:22.364755,1.0,3.0,384.0
2022-02-06-13:27:22.365755,6.0,19.0,384.0
2022-02-06-13:27:22.367699,6.0,19.0,384.0
2022-02-06-13:27:22.367699,4.0,7.0,384.0
2022-02-06-13:27:22.368724,4.0,7.0,384.0
2022-02-06-13:27:22.369722,4.0,7.0,384.0
2022-02-06-13:27:22.370717,4.0,7.0,384.0
2022-02-06-13:27:22.371689,4.0,7.0,384.0
2022-02-06-13:27:22.372711,2.0,5.0,384.0
2022-02-06-13:27:22.373710,8.0,0.0,384.0
2022-02-06-13:27:22.374704,8.0,0.0,384.0
2022-02-06-13:27:22.375704,8.0,0.0,384.0
2022-02-06-13:27:22.376701,10.0,8.0,384.0
2022-02-06-13:27:22.377698,11.0,7.0,384.0
2022-02-06-13:27:22.378695,11.0,7.0,384.0
2022-02-06-13:27:22.379693,11.0,7.0,384.0
2022-02-06-13:27:22.380690,10.0,0.0,384.0
2022-02-06-13:27:22.381691,4.0,16.0,384.0
2022-02-06-13:27:22.382685,1.0,20.0,384.0
2022-02-06-13:27:22.383657,1.0,20.0,384.0
2022-02-06-13:27:22.384680,3.0,18.0,384.0
2022-02-06-13:27:22.385677,2.0,6.0,384.0
2022-02-06-13:27:22.386675,2.0,6.0,384.0
2022-02-06-13:27:22.387646,2.0,6.0,384.0
2022-02-06-13:27:22.388644,1.0,5.0,384.0
2022-02-06-13:27:22.389670,3.0,3.0,384.0
2022-02-06-13:27:22.390663,8.0,1.0,383.0
2022-02-06-13:27:22.391662,8.0,1.0,383.0
2022-02-06-13:27:22.392659,9.0,2.0,384.0
2022-02-06-13:27:22.393655,11.0,10.0,384.0
2022-02-06-13:27:22.394653,7.0,9.0,384.0
2022-02-06-13:27:22.395650,7.0,9.0,384.0
2022-02-06-13:27:22.396648,7.0,9.0,384.0
2022-02-06-13:27:22.397648,8.0,2.0,384.0
2022-02-06-13:27:22.398642,0.0,19.0,384.0
2022-02-06-13:27:22.399641,0.0,19.0,384.0
2022-02-06-13:27:22.400636,0.0,19.0,384.0
2022-02-06-13:27:22.402606,6.0,5.0,384.0
2022-02-06-13:27:22.402606,6.0,5.0,384.0
2022-02-06-13:27:22.403628,6.0,5.0,384.0
2022-02-06-13:27:22.404625,6.0,5.0,384.0
2022-02-06-13:27:22.405628,8.0,4.0,383.0
2022-02-06-13:27:22.406620,2.0,1.0,384.0
2022-02-06-13:27:22.407619,0.0,3.0,384.0
2022-02-06-13:27:22.408615,0.0,3.0,384.0
2022-02-06-13:27:22.409611,1.0,2.0,384.0
2022-02-06-13:27:22.410610,8.0,8.0,384.0
2022-02-06-13:27:22.411605,8.0,8.0,384.0
2022-02-06-13:27:22.412603,8.0,8.0,384.0
2022-02-06-13:27:22.413604,5.0,3.0,384.0
2022-02-06-13:27:22.414598,3.0,13.0,384.0
2022-02-06-13:27:22.415571,3.0,13.0,384.0
2022-02-06-13:27:22.416592,3.0,13.0,384.0
2022-02-06-13:27:22.418131,2.0,18.0,384.0
2022-02-06-13:27:22.418131,2.0,6.0,384.0
2022-02-06-13:27:22.419189,2.0,6.0,384.0
2022-02-06-13:27:22.420243,2.0,6.0,384.0
2022-02-06-13:27:22.420243,2.0,6.0,384.0
2022-02-06-13:27:22.421274,2.0,6.0,384.0
2022-02-06-13:27:22.422273,8.0,2.0,383.0
2022-02-06-13:27:22.423269,8.0,2.0,383.0
2022-02-06-13:27:22.424235,8.0,2.0,383.0
2022-02-06-13:27:22.425460,8.0,2.0,383.0
2022-02-06-13:27:22.425460,5.0,4.0,384.0
2022-02-06-13:27:22.426486,9.0,7.0,384.0
2022-02-06-13:27:22.427483,10.0,9.0,383.0
2022-02-06-13:27:22.428482,10.0,9.0,383.0
2022-02-06-13:27:22.429478,10.0,9.0,383.0
2022-02-06-13:27:22.430568,6.0,3.0,384.0
2022-02-06-13:27:22.430568,1.0,13.0,384.0
2022-02-06-13:27:22.431601,1.0,13.0,384.0
2022-02-06-13:27:22.432600,1.0,13.0,384.0
2022-02-06-13:27:22.433596,2.0,19.0,384.0
2022-02-06-13:27:22.434891,0.0,9.0,384.0
2022-02-06-13:27:22.435890,2.0,7.0,384.0
2022-02-06-13:27:22.435890,2.0,7.0,384.0
2022-02-06-13:27:22.436888,2.0,7.0,384.0
2022-02-06-13:27:22.437919,4.0,5.0,383.0
2022-02-06-13:27:22.438936,3.0,1.0,384.0
2022-02-06-13:27:22.439942,5.0,1.0,384.0
2022-02-06-13:27:22.440891,5.0,1.0,384.0
2022-02-06-13:27:22.441930,8.0,4.0,383.0
2022-02-06-13:27:22.442927,9.0,12.0,384.0
2022-02-06-13:27:22.443929,8.0,10.0,384.0
2022-02-06-13:27:22.444922,8.0,10.0,384.0
2022-02-06-13:27:22.445919,8.0,10.0,384.0
2022-02-06-13:27:22.446916,6.0,2.0,384.0
2022-02-06-13:27:22.448011,5.0,12.0,384.0
2022-02-06-13:27:22.448011,5.0,12.0,384.0
2022-02-06-13:27:22.449011,5.0,12.0,384.0
2022-02-06-13:27:22.450054,0.0,17.0,384.0
2022-02-06-13:27:22.451053,1.0,13.0,384.0
2022-02-06-13:27:22.452049,4.0,13.0,384.0
2022-02-06-13:27:22.453050,4.0,13.0,384.0
2022-02-06-13:27:22.454045,5.0,0.0,384.0
2022-02-06-13:27:22.455041,5.0,0.0,384.0
2022-02-06-13:27:22.456018,5.0,0.0,384.0
2022-02-06-13:27:22.457036,5.0,0.0,384.0
2022-02-06-13:27:22.458034,5.0,0.0,384.0
2022-02-06-13:27:22.459032,9.0,4.0,384.0
2022-02-06-13:27:22.460077,7.0,6.0,384.0
2022-02-06-13:27:22.460077,12.0,11.0,384.0
2022-02-06-13:27:22.461135,12.0,11.0,384.0
2022-02-06-13:27:22.462130,12.0,11.0,384.0
2022-02-06-13:27:22.463129,11.0,8.0,384.0
2022-02-06-13:27:22.464124,4.0,10.0,384.0
2022-02-06-13:27:22.465121,4.0,10.0,384.0
2022-02-06-13:27:22.466119,4.0,10.0,384.0
2022-02-06-13:27:22.467115,2.0,14.0,384.0
2022-02-06-13:27:22.468113,3.0,13.0,384.0
2022-02-06-13:27:22.469089,3.0,12.0,384.0
2022-02-06-13:27:22.470108,3.0,12.0,384.0
2022-02-06-13:27:22.472068,3.0,12.0,384.0
2022-02-06-13:27:22.472068,6.0,4.0,384.0
2022-02-06-13:27:22.473045,6.0,4.0,384.0
2022-02-06-13:27:22.474095,6.0,4.0,384.0
2022-02-06-13:27:22.475093,6.0,4.0,384.0
2022-02-06-13:27:22.476090,7.0,6.0,383.0
2022-02-06-13:27:22.477092,10.0,7.0,384.0
2022-02-06-13:27:22.478086,10.0,7.0,384.0
2022-02-06-13:27:22.479077,10.0,9.0,384.0
2022-02-06-13:27:22.480072,6.0,2.0,384.0
2022-02-06-13:27:22.481163,6.0,11.0,384.0
2022-02-06-13:27:22.481163,6.0,11.0,384.0
2022-02-06-13:27:22.482163,6.0,11.0,384.0
2022-02-06-13:27:22.483223,1.0,19.0,384.0
2022-02-06-13:27:22.483223,1.0,11.0,384.0
2022-02-06-13:27:22.484269,3.0,4.0,384.0
2022-02-06-13:27:22.485271,3.0,4.0,384.0
2022-02-06-13:27:22.486272,3.0,4.0,384.0
2022-02-06-13:27:22.487262,2.0,4.0,384.0
2022-02-06-13:27:22.488365,8.0,6.0,384.0
2022-02-06-13:27:22.488365,10.0,1.0,384.0
2022-02-06-13:27:22.489399,10.0,1.0,384.0
2022-02-06-13:27:22.490568,10.0,1.0,384.0
2022-02-06-13:27:22.490568,8.0,0.0,384.0
2022-02-06-13:27:22.491614,7.0,9.0,384.0
2022-02-06-13:27:22.492615,9.0,12.0,384.0
2022-02-06-13:27:22.493609,9.0,12.0,384.0
2022-02-06-13:27:22.494609,9.0,12.0,384.0
2022-02-06-13:27:22.495605,8.0,9.0,383.0
2022-02-06-13:27:22.496602,3.0,2.0,384.0
2022-02-06-13:27:22.497602,1.0,13.0,384.0
2022-02-06-13:27:22.498597,1.0,13.0,384.0
2022-02-06-13:27:22.499596,1.0,20.0,384.0
2022-02-06-13:27:22.500594,1.0,11.0,384.0
2022-02-06-13:27:22.501542,0.0,10.0,384.0
2022-02-06-13:27:22.502566,0.0,10.0,384.0
2022-02-06-13:27:22.504587,6.0,5.0,384.0
2022-02-06-13:27:22.504587,3.0,3.0,384.0
2022-02-06-13:27:22.505581,3.0,3.0,384.0
2022-02-06-13:27:22.506528,3.0,3.0,384.0
2022-02-06-13:27:22.507526,7.0,2.0,384.0
2022-02-06-13:27:22.508573,9.0,3.0,384.0
2022-02-06-13:27:22.509571,8.0,6.0,383.0
2022-02-06-13:27:22.510518,8.0,6.0,383.0
2022-02-06-13:27:22.511540,11.0,9.0,384.0
2022-02-06-13:27:22.512538,6.0,4.0,384.0
2022-02-06-13:27:22.513535,3.0,8.0,384.0
2022-02-06-13:27:22.514532,3.0,8.0,384.0
2022-02-06-13:27:22.515511,2.0,15.0,384.0
2022-02-06-13:27:22.516502,4.0,15.0,384.0
2022-02-06-13:27:22.517546,2.0,9.0,384.0
2022-02-06-13:27:22.518545,2.0,9.0,384.0
2022-02-06-13:27:22.519541,2.0,9.0,384.0
2022-02-06-13:27:22.520539,4.0,4.0,384.0
2022-02-06-13:27:22.521535,4.0,4.0,384.0
2022-02-06-13:27:22.522529,4.0,4.0,384.0
2022-02-06-13:27:22.523483,4.0,4.0,384.0
2022-02-06-13:27:22.524530,7.0,4.0,384.0
2022-02-06-13:27:22.525525,10.0,5.0,384.0
2022-02-06-13:27:22.526524,12.0,10.0,383.0
2022-02-06-13:27:22.527520,12.0,10.0,383.0
2022-02-06-13:27:22.528517,10.0,11.0,384.0
2022-02-06-13:27:22.529522,10.0,2.0,384.0
2022-02-06-13:27:22.530512,5.0,6.0,383.0
2022-02-06-13:27:22.531508,5.0,6.0,383.0
2022-02-06-13:27:22.532499,0.0,17.0,384.0
2022-02-06-13:27:22.533503,2.0,16.0,384.0
2022-02-06-13:27:22.534501,0.0,12.0,384.0
2022-02-06-13:27:22.535476,0.0,12.0,384.0
2022-02-06-13:27:22.536496,0.0,9.0,384.0
2022-02-06-13:27:22.538443,3.0,5.0,384.0
2022-02-06-13:27:22.538443,3.0,5.0,384.0
2022-02-06-13:27:22.539488,3.0,5.0,384.0
2022-02-06-13:27:22.540487,8.0,2.0,384.0
2022-02-06-13:27:22.541481,14.0,10.0,384.0
2022-02-06-13:27:22.542479,14.0,10.0,384.0
2022-02-06-13:27:22.543430,14.0,10.0,384.0
2022-02-06-13:27:22.544473,14.0,9.0,383.0
2022-02-06-13:27:22.545479,8.0,1.0,384.0
2022-02-06-13:27:22.546468,3.0,4.0,384.0
2022-02-06-13:27:22.547419,3.0,4.0,384.0
2022-02-06-13:27:22.548416,4.0,9.0,384.0
2022-02-06-13:27:22.549517,3.0,21.0,384.0
2022-02-06-13:27:22.549517,2.0,15.0,384.0
2022-02-06-13:27:22.550541,2.0,15.0,384.0
2022-02-06-13:27:22.551540,2.0,15.0,384.0
2022-02-06-13:27:22.552536,2.0,7.0,384.0
2022-02-06-13:27:22.553585,4.0,6.0,384.0
2022-02-06-13:27:22.553585,1.0,3.0,384.0
2022-02-06-13:27:22.554633,1.0,3.0,384.0
2022-02-06-13:27:22.555582,2.0,3.0,383.0
2022-02-06-13:27:22.556627,7.0,2.0,384.0
2022-02-06-13:27:22.557731,5.0,7.0,384.0
2022-02-06-13:27:22.557731,5.0,7.0,384.0
2022-02-06-13:27:22.558757,5.0,7.0,384.0
2022-02-06-13:27:22.559923,5.0,7.0,384.0
2022-02-06-13:27:22.559923,12.0,8.0,384.0
2022-02-06-13:27:22.560971,7.0,7.0,383.0
2022-02-06-13:27:22.561970,6.0,1.0,384.0
2022-02-06-13:27:22.562967,6.0,1.0,384.0
2022-02-06-13:27:22.563915,6.0,1.0,384.0
2022-02-06-13:27:22.564960,2.0,11.0,384.0
2022-02-06-13:27:22.565959,3.0,21.0,384.0
2022-02-06-13:27:22.566955,1.0,15.0,384.0
2022-02-06-13:27:22.567904,1.0,15.0,384.0
2022-02-06-13:27:22.568949,5.0,13.0,384.0
2022-02-06-13:27:22.569947,4.0,5.0,384.0
2022-02-06-13:27:22.570946,4.0,5.0,384.0
2022-02-06-13:27:22.571895,4.0,5.0,384.0
2022-02-06-13:27:22.573888,4.0,5.0,384.0
2022-02-06-13:27:22.573888,6.0,1.0,384.0
2022-02-06-13:27:22.574932,5.0,3.0,384.0
2022-02-06-13:27:22.575930,5.0,3.0,384.0
2022-02-06-13:27:22.576926,5.0,3.0,384.0
2022-02-06-13:27:22.577923,10.0,11.0,384.0
2022-02-06-13:27:22.578921,7.0,1.0,384.0
2022-02-06-13:27:22.579918,7.0,1.0,384.0
2022-02-06-13:27:22.580918,7.0,1.0,384.0
2022-02-06-13:27:22.581917,6.0,4.0,384.0
2022-02-06-13:27:22.582912,2.0,18.0,384.0
2022-02-06-13:27:22.583909,1.0,17.0,384.0
2022-02-06-13:27:22.584906,1.0,17.0,384.0
2022-02-06-13:27:22.585904,0.0,12.0,384.0
2022-02-06-13:27:22.586903,4.0,5.0,384.0
2022-02-06-13:27:22.587898,3.0,8.0,384.0
2022-02-06-13:27:22.588849,3.0,8.0,384.0
2022-02-06-13:27:22.589895,5.0,5.0,384.0
2022-02-06-13:27:22.590890,4.0,0.0,384.0
2022-02-06-13:27:22.591889,5.0,4.0,383.0
2022-02-06-13:27:22.592885,5.0,4.0,383.0
2022-02-06-13:27:22.593882,7.0,9.0,383.0
2022-02-06-13:27:22.594883,13.0,5.0,384.0
2022-02-06-13:27:22.595881,8.0,7.0,383.0
2022-02-06-13:27:22.596874,8.0,7.0,383.0
2022-02-06-13:27:22.597874,8.0,3.0,384.0
2022-02-06-13:27:22.598868,1.0,20.0,384.0
2022-02-06-13:27:22.599868,3.0,21.0,384.0
2022-02-06-13:27:22.600864,3.0,21.0,384.0
2022-02-06-13:27:22.601861,4.0,14.0,383.0
2022-02-06-13:27:22.602865,6.0,8.0,384.0
2022-02-06-13:27:22.603856,4.0,3.0,384.0
2022-02-06-13:27:22.604806,4.0,3.0,384.0
2022-02-06-13:27:22.605853,5.0,0.0,384.0
2022-02-06-13:27:22.607797,6.0,4.0,384.0
2022-02-06-13:27:22.607797,6.0,4.0,384.0
2022-02-06-13:27:22.608819,6.0,4.0,384.0
2022-02-06-13:27:22.609818,10.0,7.0,384.0
2022-02-06-13:27:22.610789,12.0,8.0,384.0
2022-02-06-13:27:22.611786,7.0,13.0,383.0
2022-02-06-13:27:22.612784,8.0,5.0,384.0
2022-02-06-13:27:22.613807,8.0,5.0,384.0
2022-02-06-13:27:22.614808,3.0,4.0,384.0
2022-02-06-13:27:22.615803,1.0,23.0,384.0
2022-02-06-13:27:22.616804,1.0,23.0,384.0
2022-02-06-13:27:22.617797,1.0,23.0,384.0
2022-02-06-13:27:22.618799,1.0,16.0,384.0
2022-02-06-13:27:22.619793,1.0,3.0,384.0
2022-02-06-13:27:22.620795,3.0,6.0,384.0
2022-02-06-13:27:22.621786,3.0,6.0,384.0
2022-02-06-13:27:22.622786,12.0,0.0,384.0
2022-02-06-13:27:22.623782,9.0,3.0,384.0
2022-02-06-13:27:22.624778,9.0,3.0,384.0
2022-02-06-13:27:22.625777,9.0,3.0,384.0
2022-02-06-13:27:22.626772,12.0,12.0,384.0
2022-02-06-13:27:22.627790,8.0,5.0,384.0
2022-02-06-13:27:22.628789,8.0,5.0,384.0
2022-02-06-13:27:22.629789,8.0,5.0,384.0
2022-02-06-13:27:22.630784,12.0,2.0,384.0
2022-02-06-13:27:22.631782,2.0,12.0,384.0
2022-02-06-13:27:22.632779,1.0,18.0,384.0
2022-02-06-13:27:22.633777,1.0,18.0,384.0
2022-02-06-13:27:22.634775,5.0,14.0,384.0
2022-02-06-13:27:22.635770,2.0,8.0,383.0
2022-02-06-13:27:22.636767,2.0,3.0,384.0
2022-02-06-13:27:22.637768,2.0,3.0,384.0
2022-02-06-13:27:22.638723,4.0,2.0,384.0
2022-02-06-13:27:22.639739,4.0,4.0,384.0
2022-02-06-13:27:22.640740,6.0,1.0,384.0
2022-02-06-13:27:22.642759,6.0,1.0,384.0
2022-02-06-13:27:22.642759,5.0,1.0,384.0
2022-02-06-13:27:22.643843,11.0,10.0,384.0
2022-02-06-13:27:22.643843,11.0,10.0,384.0
2022-02-06-13:27:22.644893,11.0,10.0,384.0
2022-02-06-13:27:22.645887,11.0,10.0,384.0
2022-02-06-13:27:22.646885,6.0,2.0,383.0
2022-02-06-13:27:22.647930,6.0,4.0,383.0
2022-02-06-13:27:22.648203,2.0,17.0,383.0
2022-02-06-13:27:22.648203,2.0,17.0,383.0
2022-02-06-13:27:22.649251,2.0,17.0,383.0
2022-02-06-13:27:22.650411,2.0,17.0,383.0
2022-02-06-13:27:22.650411,3.0,20.0,384.0
2022-02-06-13:27:22.651459,3.0,7.0,383.0
2022-02-06-13:27:22.652455,7.0,4.0,383.0
2022-02-06-13:27:22.653452,7.0,4.0,383.0
2022-02-06-13:27:22.654450,7.0,4.0,383.0
2022-02-06-13:27:22.655401,3.0,6.0,384.0
2022-02-06-13:27:22.656445,3.0,6.0,384.0
2022-02-06-13:27:22.657442,7.0,1.0,383.0
2022-02-06-13:27:22.658439,7.0,1.0,383.0
2022-02-06-13:27:22.659437,5.0,1.0,384.0
2022-02-06-13:27:22.660434,6.0,12.0,384.0
2022-02-06-13:27:22.661436,8.0,8.0,383.0
2022-02-06-13:27:22.662429,8.0,8.0,383.0
2022-02-06-13:27:22.663427,8.0,8.0,383.0
2022-02-06-13:27:22.664424,1.0,1.0,384.0
2022-02-06-13:27:22.665437,3.0,16.0,384.0
2022-02-06-13:27:22.666418,3.0,16.0,384.0
2022-02-06-13:27:22.667416,1.0,15.0,383.0
2022-02-06-13:27:22.668488,4.0,7.0,384.0
2022-02-06-13:27:22.668488,4.0,7.0,384.0
2022-02-06-13:27:22.669535,4.0,7.0,384.0
2022-02-06-13:27:22.670536,4.0,7.0,384.0
2022-02-06-13:27:22.671530,5.0,5.0,383.0
2022-02-06-13:27:22.673011,6.0,2.0,383.0
2022-02-06-13:27:22.674011,8.0,1.0,384.0
2022-02-06-13:27:22.674011,8.0,1.0,384.0
2022-02-06-13:27:22.675034,10.0,8.0,383.0
2022-02-06-13:27:22.676053,12.0,8.0,383.0
2022-02-06-13:27:22.677050,12.0,8.0,383.0
2022-02-06-13:27:22.678046,12.0,8.0,383.0
2022-02-06-13:27:22.679052,12.0,8.0,383.0
2022-02-06-13:27:22.680045,13.0,6.0,384.0
2022-02-06-13:27:22.681040,9.0,5.0,384.0
2022-02-06-13:27:22.682039,3.0,11.0,383.0
2022-02-06-13:27:22.683013,3.0,11.0,383.0
2022-02-06-13:27:22.684032,0.0,17.0,384.0
2022-02-06-13:27:22.685031,3.0,12.0,384.0
2022-02-06-13:27:22.686033,4.0,6.0,384.0
2022-02-06-13:27:22.687031,4.0,6.0,384.0
2022-02-06-13:27:22.688024,3.0,5.0,384.0
2022-02-06-13:27:22.688971,4.0,4.0,384.0
2022-02-06-13:27:22.690017,8.0,0.0,384.0
2022-02-06-13:27:22.691015,8.0,0.0,384.0
2022-02-06-13:27:22.692011,6.0,2.0,384.0
2022-02-06-13:27:22.693010,9.0,8.0,384.0
2022-02-06-13:27:22.694005,9.0,8.0,384.0
2022-02-06-13:27:22.694955,9.0,8.0,384.0
2022-02-06-13:27:22.696002,8.0,9.0,384.0
2022-02-06-13:27:22.696997,2.0,4.0,384.0
2022-02-06-13:27:22.697996,1.0,13.0,384.0
2022-02-06-13:27:22.698979,1.0,13.0,384.0
2022-02-06-13:27:22.699992,1.0,16.0,384.0
2022-02-06-13:27:22.700988,2.0,13.0,384.0
2022-02-06-13:27:22.702061,0.0,5.0,384.0
2022-02-06-13:27:22.702061,0.0,5.0,384.0
2022-02-06-13:27:22.703081,0.0,5.0,384.0
2022-02-06-13:27:22.704114,0.0,6.0,384.0
2022-02-06-13:27:22.705104,1.0,5.0,383.0
2022-02-06-13:27:22.706052,6.0,2.0,384.0
2022-02-06-13:27:22.708072,6.0,2.0,384.0
2022-02-06-13:27:22.708072,11.0,6.0,384.0
2022-02-06-13:27:22.709044,11.0,6.0,384.0
2022-02-06-13:27:22.710136,11.0,6.0,384.0
2022-02-06-13:27:22.710136,11.0,6.0,384.0
2022-02-06-13:27:22.711170,11.0,6.0,384.0
2022-02-06-13:27:22.712165,11.0,6.0,384.0
2022-02-06-13:27:22.713166,11.0,3.0,383.0
2022-02-06-13:27:22.714174,8.0,10.0,384.0
2022-02-06-13:27:22.715125,1.0,14.0,384.0
2022-02-06-13:27:22.716161,1.0,14.0,384.0
2022-02-06-13:27:22.717190,2.0,23.0,384.0
2022-02-06-13:27:22.717190,1.0,14.0,384.0
2022-02-06-13:27:22.718214,7.0,6.0,384.0
2022-02-06-13:27:22.719247,7.0,6.0,384.0
2022-02-06-13:27:22.720265,7.0,6.0,384.0
2022-02-06-13:27:22.721262,7.0,5.0,384.0
2022-02-06-13:27:22.722207,7.0,1.0,384.0
2022-02-06-13:27:22.723203,7.0,1.0,384.0
2022-02-06-13:27:22.724236,7.0,1.0,384.0
2022-02-06-13:27:22.725231,14.0,12.0,383.0
2022-02-06-13:27:22.726232,14.0,12.0,383.0
2022-02-06-13:27:22.727226,14.0,12.0,383.0
2022-02-06-13:27:22.728224,14.0,12.0,383.0
2022-02-06-13:27:22.729220,12.0,7.0,383.0
2022-02-06-13:27:22.730224,5.0,6.0,383.0
2022-02-06-13:27:22.731216,4.0,16.0,384.0
2022-02-06-13:27:22.732213,4.0,16.0,384.0
2022-02-06-13:27:22.733216,1.0,15.0,384.0
2022-02-06-13:27:22.734211,2.0,14.0,384.0
2022-02-06-13:27:22.735205,1.0,11.0,384.0
2022-02-06-13:27:22.736203,1.0,11.0,384.0
2022-02-06-13:27:22.737199,2.0,6.0,383.0
2022-02-06-13:27:22.738196,4.0,4.0,384.0
2022-02-06-13:27:22.739160,9.0,0.0,384.0
2022-02-06-13:27:22.740183,9.0,0.0,384.0
2022-02-06-13:27:22.742204,4.0,3.0,383.0
2022-02-06-13:27:22.742204,8.0,8.0,384.0
2022-02-06-13:27:22.743174,8.0,8.0,384.0
2022-02-06-13:27:22.744193,8.0,8.0,384.0
2022-02-06-13:27:22.745191,9.0,8.0,383.0
2022-02-06-13:27:22.746189,6.0,5.0,383.0
2022-02-06-13:27:22.747186,6.0,10.0,384.0
2022-02-06-13:27:22.748169,6.0,10.0,384.0
2022-02-06-13:27:22.749183,0.0,18.0,384.0
2022-02-06-13:27:22.750182,2.0,15.0,384.0
2022-02-06-13:27:22.751176,4.0,7.0,383.0
2022-02-06-13:27:22.752372,4.0,7.0,383.0
2022-02-06-13:27:22.752372,2.0,6.0,384.0
2022-02-06-13:27:22.753428,7.0,1.0,384.0
2022-02-06-13:27:22.754426,6.0,3.0,384.0
2022-02-06-13:27:22.755368,6.0,3.0,384.0
2022-02-06-13:27:22.756364,6.0,3.0,384.0
2022-02-06-13:27:22.757395,4.0,1.0,384.0
2022-02-06-13:27:22.758498,10.0,10.0,384.0
2022-02-06-13:27:22.758498,10.0,10.0,384.0
2022-02-06-13:27:22.759545,10.0,10.0,384.0
2022-02-06-13:27:22.760697,10.0,10.0,384.0
2022-02-06-13:27:22.760697,11.0,8.0,384.0
2022-02-06-13:27:22.761753,7.0,2.0,384.0
2022-02-06-13:27:22.762748,2.0,7.0,383.0
2022-02-06-13:27:22.763745,2.0,7.0,383.0
2022-02-06-13:27:22.764746,2.0,7.0,383.0
2022-02-06-13:27:22.765741,2.0,13.0,383.0
2022-02-06-13:27:22.766735,1.0,19.0,384.0
2022-02-06-13:27:22.767721,1.0,12.0,384.0
2022-02-06-13:27:22.768678,1.0,12.0,384.0
2022-02-06-13:27:22.769676,0.0,5.0,384.0
2022-02-06-13:27:22.770672,3.0,5.0,383.0
2022-02-06-13:27:22.771725,3.0,3.0,384.0
2022-02-06-13:27:22.772687,3.0,3.0,384.0
2022-02-06-13:27:22.773698,8.0,2.0,383.0
2022-02-06-13:27:22.774715,9.0,3.0,384.0
2022-02-06-13:27:22.776711,11.0,4.0,385.0
2022-02-06-13:27:22.776711,4.0,3.0,383.0
2022-02-06-13:27:22.777710,4.0,3.0,383.0
2022-02-06-13:27:22.778706,4.0,3.0,383.0
2022-02-06-13:27:22.779703,4.0,3.0,383.0
2022-02-06-13:27:22.780704,4.0,3.0,383.0
2022-02-06-13:27:22.781699,4.0,3.0,383.0
2022-02-06-13:27:22.782697,1.0,11.0,383.0
2022-02-06-13:27:22.783696,1.0,16.0,383.0
2022-02-06-13:27:22.784683,1.0,13.0,383.0
2022-02-06-13:27:22.785681,1.0,13.0,383.0
2022-02-06-13:27:22.786677,1.0,11.0,384.0
2022-02-06-13:27:22.787674,1.0,5.0,384.0
2022-02-06-13:27:22.788671,4.0,7.0,384.0
2022-02-06-13:27:22.789670,4.0,7.0,384.0
2022-02-06-13:27:22.790645,4.0,2.0,384.0
2022-02-06-13:27:22.791666,8.0,4.0,384.0
2022-02-06-13:27:22.792660,8.0,4.0,384.0
2022-02-06-13:27:22.793660,8.0,4.0,384.0
2022-02-06-13:27:22.794656,10.0,9.0,384.0
2022-02-06-13:27:22.795653,8.0,3.0,384.0
2022-02-06-13:27:22.796653,6.0,1.0,384.0
2022-02-06-13:27:22.797648,6.0,1.0,384.0
2022-02-06-13:27:22.798647,6.0,1.0,384.0
2022-02-06-13:27:22.799645,1.0,16.0,384.0
2022-02-06-13:27:22.800640,1.0,15.0,384.0
2022-02-06-13:27:22.801639,1.0,15.0,384.0
2022-02-06-13:27:22.802640,1.0,15.0,384.0
2022-02-06-13:27:22.803632,0.0,6.0,384.0
2022-02-06-13:27:22.804631,3.0,4.0,384.0
2022-02-06-13:27:22.805629,3.0,4.0,384.0
2022-02-06-13:27:22.806623,4.0,1.0,384.0
2022-02-06-13:27:22.807624,4.0,0.0,384.0
2022-02-06-13:27:22.809568,8.0,4.0,384.0
2022-02-06-13:27:22.809568,9.0,11.0,384.0
2022-02-06-13:27:22.810589,3.0,1.0,383.0
2022-02-06-13:27:22.811593,3.0,1.0,383.0
2022-02-06-13:27:22.812584,3.0,1.0,383.0
2022-02-06-13:27:22.813607,3.0,1.0,383.0
2022-02-06-13:27:22.814581,3.0,7.0,383.0
2022-02-06-13:27:22.815552,3.0,12.0,383.0
2022-02-06-13:27:22.816550,3.0,12.0,383.0
2022-02-06-13:27:22.817572,3.0,12.0,383.0
2022-02-06-13:27:22.818568,3.0,12.0,383.0
2022-02-06-13:27:22.819568,6.0,5.0,384.0
2022-02-06-13:27:22.820563,6.0,5.0,384.0
2022-02-06-13:27:22.821560,6.0,5.0,384.0
2022-02-06-13:27:22.822584,6.0,5.0,384.0
2022-02-06-13:27:22.823584,4.0,0.0,384.0
2022-02-06-13:27:22.824576,5.0,4.0,384.0
2022-02-06-13:27:22.825575,5.0,4.0,384.0
2022-02-06-13:27:22.826573,5.0,4.0,384.0
2022-02-06-13:27:22.827568,10.0,11.0,384.0
2022-02-06-13:27:22.828568,11.0,5.0,384.0
2022-02-06-13:27:22.829562,5.0,1.0,384.0
2022-02-06-13:27:22.830559,5.0,1.0,384.0
2022-02-06-13:27:22.831560,5.0,3.0,384.0
2022-02-06-13:27:22.832554,0.0,16.0,384.0
2022-02-06-13:27:22.833553,1.0,14.0,384.0
2022-02-06-13:27:22.834549,1.0,14.0,384.0
2022-02-06-13:27:22.835547,2.0,10.0,384.0
2022-02-06-13:27:22.836547,3.0,4.0,384.0
2022-02-06-13:27:22.837546,6.0,3.0,383.0
2022-02-06-13:27:22.838538,6.0,3.0,383.0
2022-02-06-13:27:22.839513,7.0,1.0,384.0
2022-02-06-13:27:22.840533,9.0,3.0,383.0
2022-02-06-13:27:22.841532,9.0,3.0,383.0
2022-02-06-13:27:22.843526,9.0,3.0,383.0
2022-02-06-13:27:22.843526,17.0,11.0,383.0
2022-02-06-13:27:22.844504,11.0,3.0,384.0
2022-02-06-13:27:22.845497,11.0,3.0,384.0
2022-02-06-13:27:22.846477,11.0,3.0,384.0
2022-02-06-13:27:22.847493,3.0,9.0,384.0
2022-02-06-13:27:22.848490,3.0,18.0,384.0
2022-02-06-13:27:22.849488,3.0,18.0,384.0
2022-02-06-13:27:22.850486,3.0,18.0,384.0
2022-02-06-13:27:22.851503,1.0,15.0,383.0
2022-02-06-13:27:22.852610,3.0,4.0,384.0
2022-02-06-13:27:22.852610,3.0,4.0,384.0
2022-02-06-13:27:22.853669,3.0,4.0,384.0
2022-02-06-13:27:22.854649,3.0,4.0,384.0
2022-02-06-13:27:22.855641,3.0,5.0,384.0
2022-02-06-13:27:22.856657,6.0,4.0,384.0
2022-02-06-13:27:22.857654,6.0,4.0,384.0
2022-02-06-13:27:22.858653,6.0,4.0,384.0
2022-02-06-13:27:22.859967,11.0,11.0,384.0
2022-02-06-13:27:22.860184,12.0,2.0,384.0
2022-02-06-13:27:22.860184,12.0,2.0,384.0
2022-02-06-13:27:22.861218,12.0,2.0,384.0
2022-02-06-13:27:22.862212,12.0,2.0,384.0
2022-02-06-13:27:22.863216,12.0,2.0,384.0
2022-02-06-13:27:22.864210,8.0,4.0,384.0
2022-02-06-13:27:22.865204,3.0,22.0,384.0
2022-02-06-13:27:22.866202,3.0,22.0,384.0
2022-02-06-13:27:22.867202,3.0,22.0,384.0
2022-02-06-13:27:22.868197,0.0,16.0,384.0
2022-02-06-13:27:22.869197,1.0,9.0,384.0
2022-02-06-13:27:22.870192,9.0,6.0,384.0
2022-02-06-13:27:22.871188,9.0,6.0,384.0
2022-02-06-13:27:22.872189,6.0,4.0,383.0
2022-02-06-13:27:22.873184,6.0,1.0,383.0
2022-02-06-13:27:22.874182,3.0,0.0,384.0
2022-02-06-13:27:22.876175,3.0,0.0,384.0
2022-02-06-13:27:22.876175,7.0,4.0,384.0
2022-02-06-13:27:22.877177,7.0,4.0,384.0
2022-02-06-13:27:22.878162,7.0,4.0,384.0
2022-02-06-13:27:22.879169,7.0,4.0,384.0
2022-02-06-13:27:22.880167,5.0,1.0,384.0
2022-02-06-13:27:22.881162,1.0,14.0,383.0
2022-02-06-13:27:22.882184,2.0,19.0,384.0
2022-02-06-13:27:22.883164,2.0,19.0,384.0
2022-02-06-13:27:22.884154,2.0,19.0,384.0
2022-02-06-13:27:22.885159,2.0,8.0,384.0
2022-02-06-13:27:22.886148,2.0,5.0,383.0
2022-02-06-13:27:22.887147,2.0,5.0,383.0
2022-02-06-13:27:22.888145,2.0,5.0,383.0
2022-02-06-13:27:22.889168,5.0,5.0,384.0
2022-02-06-13:27:22.890138,8.0,2.0,384.0
2022-02-06-13:27:22.891138,8.0,2.0,384.0
2022-02-06-13:27:22.892101,8.0,2.0,384.0
2022-02-06-13:27:22.893100,12.0,4.0,384.0
2022-02-06-13:27:22.894128,14.0,11.0,383.0
2022-02-06-13:27:22.895126,15.0,5.0,384.0
2022-02-06-13:27:22.896124,15.0,5.0,384.0
2022-02-06-13:27:22.897120,13.0,1.0,384.0
2022-02-06-13:27:22.898117,6.0,11.0,383.0
2022-02-06-13:27:22.899083,0.0,16.0,384.0
2022-02-06-13:27:22.900326,0.0,16.0,384.0
2022-02-06-13:27:22.900326,3.0,20.0,384.0
2022-02-06-13:27:22.901380,1.0,8.0,384.0
2022-02-06-13:27:22.902376,1.0,8.0,384.0
2022-02-06-13:27:22.903375,1.0,8.0,384.0
2022-02-06-13:27:22.904372,1.0,8.0,384.0
2022-02-06-13:27:22.905370,4.0,3.0,384.0
2022-02-06-13:27:22.906367,4.0,2.0,384.0
2022-02-06-13:27:22.907365,4.0,1.0,383.0
2022-02-06-13:27:22.909304,4.0,1.0,383.0
2022-02-06-13:27:22.909812,9.0,12.0,383.0
2022-02-06-13:27:22.909812,9.0,12.0,383.0
2022-02-06-13:27:22.910845,9.0,12.0,383.0
2022-02-06-13:27:22.911840,9.0,12.0,383.0
2022-02-06-13:27:22.912847,9.0,12.0,383.0
2022-02-06-13:27:22.913836,5.0,1.0,384.0
2022-02-06-13:27:22.914833,8.0,6.0,384.0
2022-02-06-13:27:22.915833,5.0,14.0,384.0
2022-02-06-13:27:22.916827,5.0,14.0,384.0
2022-02-06-13:27:22.917824,4.0,21.0,383.0
2022-02-06-13:27:22.918823,6.0,14.0,384.0
2022-02-06-13:27:22.919819,4.0,7.0,384.0
2022-02-06-13:27:22.920817,4.0,7.0,384.0
2022-02-06-13:27:22.921815,7.0,4.0,384.0
2022-02-06-13:27:22.922813,3.0,3.0,384.0
2022-02-06-13:27:22.923811,3.0,3.0,384.0
2022-02-06-13:27:22.924806,3.0,3.0,384.0
2022-02-06-13:27:22.925804,3.0,5.0,383.0
2022-02-06-13:27:22.926802,3.0,5.0,383.0
2022-02-06-13:27:22.927798,3.0,9.0,384.0
2022-02-06-13:27:22.928982,6.0,8.0,384.0
2022-02-06-13:27:22.928982,6.0,5.0,384.0
2022-02-06-13:27:22.930013,2.0,11.0,384.0
2022-02-06-13:27:22.931012,0.0,18.0,384.0
2022-02-06-13:27:22.932012,0.0,18.0,384.0
2022-02-06-13:27:22.933007,0.0,18.0,384.0
2022-02-06-13:27:22.934012,1.0,18.0,384.0
2022-02-06-13:27:22.935000,11.0,6.0,384.0
2022-02-06-13:27:22.935998,9.0,7.0,384.0
2022-02-06-13:27:22.936999,9.0,7.0,384.0
2022-02-06-13:27:22.937994,15.0,3.0,383.0
2022-02-06-13:27:22.938958,11.0,3.0,384.0
2022-02-06-13:27:22.939993,11.0,3.0,384.0
2022-02-06-13:27:22.940986,11.0,3.0,384.0
2022-02-06-13:27:22.942947,9.0,7.0,384.0
2022-02-06-13:27:22.942947,11.0,5.0,383.0
2022-02-06-13:27:22.944075,11.0,5.0,383.0
2022-02-06-13:27:22.944075,11.0,5.0,383.0
2022-02-06-13:27:22.945289,11.0,5.0,383.0
2022-02-06-13:27:22.945289,8.0,1.0,384.0
2022-02-06-13:27:22.946320,3.0,13.0,384.0
2022-02-06-13:27:22.947324,1.0,16.0,383.0
2022-02-06-13:27:22.948315,1.0,16.0,383.0
2022-02-06-13:27:22.949315,1.0,16.0,383.0
2022-02-06-13:27:22.950311,1.0,20.0,384.0
2022-02-06-13:27:22.951307,2.0,7.0,384.0
2022-02-06-13:27:22.952304,1.0,7.0,384.0
2022-02-06-13:27:22.953303,1.0,7.0,384.0
2022-02-06-13:27:22.954299,4.0,2.0,383.0
2022-02-06-13:27:22.955298,6.0,5.0,384.0
2022-02-06-13:27:22.956325,9.0,1.0,384.0
2022-02-06-13:27:22.957305,9.0,1.0,384.0
2022-02-06-13:27:22.958305,11.0,4.0,384.0
2022-02-06-13:27:22.959411,11.0,9.0,384.0
2022-02-06-13:27:22.959411,11.0,9.0,384.0
2022-02-06-13:27:22.960443,11.0,9.0,384.0
2022-02-06-13:27:22.961442,11.0,9.0,384.0
2022-02-06-13:27:22.962507,14.0,5.0,383.0
2022-02-06-13:27:22.962847,7.0,7.0,383.0
2022-02-06-13:27:22.962847,2.0,13.0,384.0
2022-02-06-13:27:22.963879,2.0,13.0,384.0
2022-02-06-13:27:22.964876,2.0,13.0,384.0
2022-02-06-13:27:22.965865,2.0,13.0,384.0
2022-02-06-13:27:22.966863,1.0,20.0,384.0
2022-02-06-13:27:22.967860,1.0,15.0,384.0
2022-02-06-13:27:22.968863,1.0,9.0,383.0
2022-02-06-13:27:22.969854,5.0,6.0,384.0
2022-02-06-13:27:22.970852,3.0,5.0,383.0
2022-02-06-13:27:22.971850,6.0,3.0,384.0
2022-02-06-13:27:22.972846,7.0,3.0,383.0
2022-02-06-13:27:22.974121,7.0,3.0,383.0
2022-02-06-13:27:22.974121,4.0,1.0,383.0
2022-02-06-13:27:22.976118,8.0,8.0,384.0
2022-02-06-13:27:22.976118,10.0,11.0,384.0
2022-02-06-13:27:22.977171,10.0,11.0,384.0
2022-02-06-13:27:22.978170,10.0,11.0,384.0
2022-02-06-13:27:22.979165,12.0,11.0,384.0
2022-02-06-13:27:22.980163,6.0,5.0,384.0
2022-02-06-13:27:22.981160,4.0,14.0,384.0
2022-02-06-13:27:22.982137,4.0,14.0,384.0
2022-02-06-13:27:22.983101,1.0,18.0,383.0
2022-02-06-13:27:22.984151,4.0,16.0,383.0
2022-02-06-13:27:22.985150,7.0,9.0,384.0
2022-02-06-13:27:22.986149,7.0,9.0,384.0
2022-02-06-13:27:22.987135,4.0,2.0,384.0
2022-02-06-13:27:22.988135,9.0,1.0,383.0
2022-02-06-13:27:22.989085,9.0,1.0,383.0
2022-02-06-13:27:22.990137,9.0,1.0,383.0
2022-02-06-13:27:22.991128,8.0,1.0,384.0
2022-02-06-13:27:22.992123,8.0,7.0,384.0
2022-02-06-13:27:22.993122,7.0,11.0,383.0
2022-02-06-13:27:22.994120,7.0,11.0,383.0
2022-02-06-13:27:22.995116,8.0,3.0,384.0
2022-02-06-13:27:22.996113,4.0,6.0,384.0
2022-02-06-13:27:22.997110,4.0,6.0,384.0
2022-02-06-13:27:22.998060,4.0,6.0,384.0
2022-02-06-13:27:22.999107,6.0,14.0,384.0
2022-02-06-13:27:23.000102,5.0,21.0,384.0
2022-02-06-13:27:23.001174,5.0,7.0,384.0
2022-02-06-13:27:23.001174,5.0,7.0,384.0
2022-02-06-13:27:23.002368,5.0,7.0,384.0
2022-02-06-13:27:23.002368,4.0,4.0,384.0
2022-02-06-13:27:23.003416,6.0,0.0,384.0
2022-02-06-13:27:23.004412,8.0,1.0,383.0
2022-02-06-13:27:23.005409,8.0,1.0,383.0
2022-02-06-13:27:23.006408,8.0,1.0,383.0
2022-02-06-13:27:23.008354,8.0,3.0,384.0
2022-02-06-13:27:23.008354,12.0,9.0,384.0
2022-02-06-13:27:23.009352,12.0,9.0,384.0
2022-02-06-13:27:23.010349,12.0,9.0,384.0
2022-02-06-13:27:23.011395,14.0,12.0,384.0
2022-02-06-13:27:23.012389,10.0,1.0,384.0
2022-02-06-13:27:23.013387,6.0,3.0,384.0
2022-02-06-13:27:23.014352,6.0,3.0,384.0
2022-02-06-13:27:23.015383,3.0,16.0,384.0
2022-02-06-13:27:23.016381,2.0,20.0,384.0
2022-02-06-13:27:23.017378,5.0,10.0,384.0
2022-02-06-13:27:23.018374,5.0,10.0,384.0
2022-02-06-13:27:23.019374,6.0,11.0,384.0
2022-02-06-13:27:23.020370,2.0,6.0,383.0
2022-02-06-13:27:23.021367,1.0,4.0,384.0
2022-02-06-13:27:23.022318,1.0,4.0,384.0
2022-02-06-13:27:23.023362,1.0,4.0,384.0
2022-02-06-13:27:23.024359,1.0,5.0,384.0
2022-02-06-13:27:23.025363,8.0,8.0,384.0
2022-02-06-13:27:23.026353,8.0,8.0,384.0
2022-02-06-13:27:23.027352,8.0,8.0,384.0
2022-02-06-13:27:23.028348,11.0,10.0,384.0
2022-02-06-13:27:23.029346,5.0,1.0,384.0
2022-02-06-13:27:23.030429,5.0,5.0,384.0
2022-02-06-13:27:23.030429,5.0,5.0,384.0
2022-02-06-13:27:23.031454,5.0,5.0,384.0
2022-02-06-13:27:23.032527,0.0,12.0,384.0
2022-02-06-13:27:23.032527,5.0,17.0,384.0
2022-02-06-13:27:23.033575,1.0,12.0,384.0
2022-02-06-13:27:23.034571,1.0,12.0,384.0
2022-02-06-13:27:23.035569,1.0,12.0,384.0
2022-02-06-13:27:23.036574,3.0,9.0,384.0
2022-02-06-13:27:23.037565,5.0,8.0,383.0
2022-02-06-13:27:23.038562,2.0,7.0,384.0
2022-02-06-13:27:23.039560,2.0,7.0,384.0
2022-02-06-13:27:23.040556,4.0,1.0,384.0
2022-02-06-13:27:23.041553,4.0,3.0,384.0
2022-02-06-13:27:23.042502,4.0,6.0,384.0
2022-02-06-13:27:23.043500,4.0,6.0,384.0
2022-02-06-13:27:23.044522,5.0,7.0,384.0
2022-02-06-13:27:23.046491,6.0,0.0,384.0
2022-02-06-13:27:23.047492,5.0,6.0,384.0
2022-02-06-13:27:23.047492,1.0,22.0,384.0
2022-02-06-13:27:23.048537,1.0,19.0,383.0
2022-02-06-13:27:23.049532,1.0,19.0,383.0
2022-02-06-13:27:23.050529,1.0,19.0,383.0
2022-02-06-13:27:23.051509,1.0,19.0,383.0
2022-02-06-13:27:23.052526,1.0,11.0,384.0
2022-02-06-13:27:23.053522,5.0,5.0,384.0
2022-02-06-13:27:23.054519,8.0,4.0,384.0
2022-02-06-13:27:23.055468,8.0,4.0,384.0
2022-02-06-13:27:23.056513,10.0,1.0,384.0
2022-02-06-13:27:23.057517,8.0,4.0,383.0
2022-02-06-13:27:23.058508,10.0,0.0,384.0
2022-02-06-13:27:23.059457,10.0,0.0,384.0
2022-02-06-13:27:23.060479,14.0,6.0,383.0
2022-02-06-13:27:23.061452,6.0,3.0,383.0
2022-02-06-13:27:23.062476,4.0,4.0,384.0
2022-02-06-13:27:23.063473,4.0,4.0,384.0
2022-02-06-13:27:23.064472,4.0,9.0,384.0
2022-02-06-13:27:23.065441,3.0,17.0,384.0
2022-02-06-13:27:23.066438,3.0,17.0,384.0
2022-02-06-13:27:23.067443,3.0,17.0,384.0
2022-02-06-13:27:23.068433,3.0,17.0,384.0
2022-02-06-13:27:23.069477,0.0,9.0,384.0
2022-02-06-13:27:23.070454,3.0,4.0,384.0
2022-02-06-13:27:23.071475,3.0,4.0,384.0
2022-02-06-13:27:23.072436,3.0,4.0,384.0
2022-02-06-13:27:23.073423,6.0,2.0,383.0
2022-02-06-13:27:23.074418,10.0,0.0,384.0
2022-02-06-13:27:23.075415,10.0,0.0,384.0
2022-02-06-13:27:23.076438,11.0,10.0,384.0
2022-02-06-13:27:23.078406,8.0,6.0,383.0
2022-02-06-13:27:23.078406,7.0,1.0,384.0
2022-02-06-13:27:23.079453,7.0,1.0,384.0
2022-02-06-13:27:23.080458,7.0,1.0,384.0
2022-02-06-13:27:23.081447,4.0,7.0,384.0
2022-02-06-13:27:23.082444,2.0,18.0,384.0
2022-02-06-13:27:23.083444,3.0,20.0,384.0
2022-02-06-13:27:23.084440,3.0,20.0,384.0
2022-02-06-13:27:23.085436,4.0,11.0,384.0
2022-02-06-13:27:23.086434,1.0,6.0,384.0
2022-02-06-13:27:23.087432,2.0,5.0,384.0
2022-02-06-13:27:23.088428,2.0,5.0,384.0
2022-02-06-13:27:23.089377,4.0,2.0,383.0
2022-02-06-13:27:23.090374,5.0,1.0,384.0
2022-02-06-13:27:23.091372,5.0,1.0,384.0
2022-02-06-13:27:23.092369,5.0,1.0,384.0
2022-02-06-13:27:23.093392,3.0,8.0,384.0
2022-02-06-13:27:23.094391,8.0,10.0,384.0
2022-02-06-13:27:23.095388,4.0,8.0,384.0
2022-02-06-13:27:23.096358,4.0,8.0,384.0
2022-02-06-13:27:23.097408,4.0,1.0,383.0
2022-02-06-13:27:23.098401,2.0,10.0,384.0
2022-02-06-13:27:23.099492,3.0,20.0,384.0
2022-02-06-13:27:23.099492,3.0,20.0,384.0
2022-02-06-13:27:23.100552,3.0,20.0,384.0
2022-02-06-13:27:23.101546,3.0,13.0,384.0
2022-02-06-13:27:23.102544,0.0,8.0,383.0
2022-02-06-13:27:23.103618,3.0,6.0,384.0
2022-02-06-13:27:23.103618,3.0,6.0,384.0
2022-02-06-13:27:23.104670,3.0,6.0,384.0
2022-02-06-13:27:23.105656,0.0,2.0,384.0
2022-02-06-13:27:23.106612,4.0,1.0,384.0
2022-02-06-13:27:23.107610,4.0,1.0,383.0
2022-02-06-13:27:23.108606,4.0,1.0,383.0
2022-02-06-13:27:23.109604,8.0,6.0,384.0
2022-02-06-13:27:23.110864,8.0,6.0,384.0
2022-02-06-13:27:23.111864,11.0,5.0,384.0
2022-02-06-13:27:23.111864,11.0,5.0,384.0
2022-02-06-13:27:23.112910,11.0,5.0,384.0
2022-02-06-13:27:23.113887,1.0,9.0,384.0
2022-02-06-13:27:23.115000,4.0,19.0,384.0
2022-02-06-13:27:23.115000,4.0,19.0,384.0
2022-02-06-13:27:23.116058,4.0,19.0,384.0
2022-02-06-13:27:23.117200,4.0,19.0,384.0
2022-02-06-13:27:23.117200,6.0,15.0,383.0
2022-02-06-13:27:23.118246,1.0,8.0,384.0
2022-02-06-13:27:23.119244,1.0,7.0,384.0
2022-02-06-13:27:23.120242,1.0,7.0,384.0
2022-02-06-13:27:23.121239,1.0,7.0,384.0
2022-02-06-13:27:23.122191,5.0,3.0,383.0
2022-02-06-13:27:23.123188,2.0,3.0,383.0
2022-02-06-13:27:23.124220,2.0,3.0,383.0
2022-02-06-13:27:23.125182,2.0,3.0,383.0
2022-02-06-13:27:23.126180,8.0,5.0,384.0
2022-02-06-13:27:23.127177,10.0,6.0,384.0
2022-02-06-13:27:23.128173,10.0,6.0,384.0
2022-02-06-13:27:23.129170,10.0,6.0,384.0
2022-02-06-13:27:23.130191,9.0,8.0,384.0
2022-02-06-13:27:23.131166,9.0,8.0,384.0
2022-02-06-13:27:23.132172,5.0,16.0,383.0
2022-02-06-13:27:23.133161,5.0,16.0,383.0
2022-02-06-13:27:23.134157,3.0,16.0,384.0
2022-02-06-13:27:23.135154,4.0,6.0,383.0
2022-02-06-13:27:23.136152,4.0,6.0,383.0
2022-02-06-13:27:23.137149,4.0,6.0,383.0
2022-02-06-13:27:23.138195,5.0,6.0,384.0
2022-02-06-13:27:23.139146,5.0,1.0,384.0
2022-02-06-13:27:23.140153,3.0,3.0,384.0
2022-02-06-13:27:23.141166,3.0,3.0,384.0
2022-02-06-13:27:23.142162,3.0,3.0,384.0
2022-02-06-13:27:23.144157,11.0,11.0,384.0
2022-02-06-13:27:23.144157,12.0,10.0,384.0
2022-02-06-13:27:23.145155,12.0,10.0,384.0
2022-02-06-13:27:23.146151,12.0,10.0,384.0
2022-02-06-13:27:23.147123,7.0,2.0,383.0
2022-02-06-13:27:23.148123,8.0,3.0,384.0
2022-02-06-13:27:23.149117,1.0,21.0,384.0
2022-02-06-13:27:23.150149,1.0,21.0,384.0
2022-02-06-13:27:23.151112,0.0,16.0,384.0
2022-02-06-13:27:23.152137,2.0,8.0,384.0
2022-02-06-13:27:23.153106,2.0,5.0,383.0
2022-02-06-13:27:23.154104,2.0,5.0,383.0
2022-02-06-13:27:23.155102,6.0,5.0,384.0
2022-02-06-13:27:23.156098,4.0,1.0,384.0
2022-02-06-13:27:23.157096,3.0,1.0,383.0
2022-02-06-13:27:23.158093,3.0,1.0,383.0
2022-02-06-13:27:23.159090,6.0,4.0,384.0
2022-02-06-13:27:23.160087,6.0,10.0,383.0
2022-02-06-13:27:23.161086,6.0,10.0,383.0
2022-02-06-13:27:23.162083,6.0,10.0,383.0
2022-02-06-13:27:23.163080,6.0,2.0,383.0
2022-02-06-13:27:23.164077,4.0,20.0,383.0
2022-02-06-13:27:23.165074,4.0,20.0,383.0
2022-02-06-13:27:23.166071,4.0,20.0,383.0
2022-02-06-13:27:23.167069,5.0,11.0,384.0
2022-02-06-13:27:23.168066,4.0,7.0,384.0
2022-02-06-13:27:23.169063,4.0,7.0,384.0
2022-02-06-13:27:23.170061,4.0,7.0,384.0
2022-02-06-13:27:23.171058,5.0,2.0,384.0
2022-02-06-13:27:23.172056,2.0,1.0,383.0
2022-02-06-13:27:23.173054,2.0,1.0,383.0
2022-02-06-13:27:23.174050,2.0,1.0,383.0
2022-02-06-13:27:23.175048,6.0,4.0,384.0
2022-02-06-13:27:23.176047,13.0,10.0,384.0
2022-02-06-13:27:23.177044,12.0,7.0,384.0
2022-02-06-13:27:23.178075,10.0,10.0,383.0
2022-02-06-13:27:23.180074,1.0,4.0,384.0
2022-02-06-13:27:23.181033,1.0,11.0,384.0
2022-02-06-13:27:23.182043,1.0,16.0,383.0
2022-02-06-13:27:23.183061,1.0,16.0,383.0
2022-02-06-13:27:23.184024,3.0,9.0,384.0
2022-02-06-13:27:23.185377,3.0,5.0,384.0
2022-02-06-13:27:23.186373,3.0,5.0,384.0
2022-02-06-13:27:23.187371,5.0,4.0,384.0
2022-02-06-13:27:23.188368,7.0,3.0,384.0
2022-02-06-13:27:23.189365,7.0,3.0,384.0
2022-02-06-13:27:23.190362,7.0,3.0,384.0
2022-02-06-13:27:23.191363,10.0,11.0,384.0
2022-02-06-13:27:23.192391,11.0,8.0,383.0
2022-02-06-13:27:23.193359,11.0,8.0,383.0
2022-02-06-13:27:23.194359,11.0,8.0,383.0
2022-02-06-13:27:23.195387,10.0,0.0,384.0
2022-02-06-13:27:23.196410,3.0,17.0,384.0
2022-02-06-13:27:23.196410,3.0,17.0,384.0
2022-02-06-13:27:23.197344,3.0,17.0,384.0
2022-02-06-13:27:23.198343,3.0,17.0,384.0
2022-02-06-13:27:23.199339,3.0,17.0,384.0
2022-02-06-13:27:23.200376,3.0,21.0,384.0
2022-02-06-13:27:23.200376,2.0,11.0,384.0
2022-02-06-13:27:23.201371,2.0,11.0,384.0
2022-02-06-13:27:23.202369,2.0,11.0,384.0
2022-02-06-13:27:23.203408,2.0,11.0,384.0
2022-02-06-13:27:23.203408,10.0,5.0,384.0
2022-02-06-13:27:23.204399,5.0,3.0,383.0
2022-02-06-13:27:23.205396,4.0,1.0,383.0
2022-02-06-13:27:23.206393,4.0,1.0,383.0
2022-02-06-13:27:23.207391,4.0,1.0,383.0
2022-02-06-13:27:23.208388,7.0,4.0,383.0
2022-02-06-13:27:23.209420,9.0,7.0,384.0
2022-02-06-13:27:23.211381,9.0,12.0,384.0
2022-02-06-13:27:23.211381,9.0,12.0,384.0
2022-02-06-13:27:23.212413,0.0,4.0,384.0
2022-02-06-13:27:23.213400,0.0,16.0,384.0
2022-02-06-13:27:23.214397,0.0,16.0,384.0
2022-02-06-13:27:23.215406,0.0,16.0,384.0
2022-02-06-13:27:23.216402,1.0,17.0,384.0
2022-02-06-13:27:23.217398,3.0,11.0,384.0
2022-02-06-13:27:23.218377,5.0,9.0,384.0
2022-02-06-13:27:23.219359,5.0,9.0,384.0
2022-02-06-13:27:23.220356,6.0,2.0,383.0
2022-02-06-13:27:23.221353,6.0,3.0,384.0
2022-02-06-13:27:23.222351,4.0,1.0,384.0
2022-02-06-13:27:23.223361,4.0,1.0,384.0
2022-02-06-13:27:23.224345,6.0,2.0,384.0
2022-02-06-13:27:23.225343,12.0,9.0,383.0
2022-02-06-13:27:23.226340,12.0,9.0,383.0
2022-02-06-13:27:23.227338,12.0,9.0,383.0
2022-02-06-13:27:23.228373,11.0,10.0,384.0
2022-02-06-13:27:23.229332,4.0,11.0,384.0
2022-02-06-13:27:23.230330,4.0,11.0,384.0
2022-02-06-13:27:23.231363,4.0,11.0,384.0
2022-02-06-13:27:23.232325,4.0,11.0,384.0
2022-02-06-13:27:23.233323,1.0,15.0,384.0
2022-02-06-13:27:23.234355,1.0,16.0,384.0
2022-02-06-13:27:23.235341,2.0,12.0,384.0
2022-02-06-13:27:23.236347,2.0,12.0,384.0
2022-02-06-13:27:23.237336,7.0,3.0,384.0
2022-02-06-13:27:23.238309,5.0,4.0,384.0
2022-02-06-13:27:23.239306,5.0,4.0,384.0
2022-02-06-13:27:23.240303,5.0,4.0,384.0
2022-02-06-13:27:23.241300,6.0,2.0,384.0
2022-02-06-13:27:23.242297,11.0,7.0,384.0
2022-02-06-13:27:23.243295,11.0,7.0,384.0
2022-02-06-13:27:23.244293,11.0,7.0,384.0
2022-02-06-13:27:23.245323,9.0,4.0,384.0
2022-02-06-13:27:23.247286,6.0,6.0,384.0
2022-02-06-13:27:23.248282,6.0,6.0,384.0
2022-02-06-13:27:23.248282,1.0,20.0,384.0
2022-02-06-13:27:23.249281,1.0,7.0,384.0
2022-02-06-13:27:23.250276,1.0,7.0,384.0
2022-02-06-13:27:23.251273,1.0,7.0,384.0
2022-02-06-13:27:23.252272,1.0,7.0,384.0
2022-02-06-13:27:23.253269,4.0,5.0,384.0
2022-02-06-13:27:23.254291,7.0,0.0,383.0
2022-02-06-13:27:23.255291,7.0,0.0,383.0
2022-02-06-13:27:23.256261,7.0,0.0,383.0
2022-02-06-13:27:23.257286,7.0,2.0,383.0
2022-02-06-13:27:23.258282,10.0,12.0,384.0
2022-02-06-13:27:23.259278,10.0,12.0,384.0
2022-02-06-13:27:23.260250,10.0,12.0,384.0
2022-02-06-13:27:23.261280,10.0,9.0,384.0
2022-02-06-13:27:23.262270,6.0,8.0,384.0
2022-02-06-13:27:23.263242,6.0,8.0,384.0
2022-02-06-13:27:23.264239,6.0,8.0,384.0
2022-02-06-13:27:23.265236,2.0,19.0,384.0
2022-02-06-13:27:23.266233,1.0,14.0,384.0
2022-02-06-13:27:23.267231,1.0,14.0,384.0
2022-02-06-13:27:23.268228,1.0,14.0,384.0
2022-02-06-13:27:23.269225,4.0,5.0,384.0
2022-02-06-13:27:23.270223,5.0,6.0,384.0
2022-02-06-13:27:23.271220,5.0,6.0,384.0
2022-02-06-13:27:23.272218,5.0,6.0,384.0
2022-02-06-13:27:23.273215,5.0,6.0,384.0
2022-02-06-13:27:23.274213,9.0,2.0,384.0
2022-02-06-13:27:23.275209,10.0,1.0,383.0
2022-02-06-13:27:23.276207,9.0,9.0,384.0
2022-02-06-13:27:23.277204,11.0,10.0,383.0
2022-02-06-13:27:23.278201,6.0,3.0,383.0
2022-02-06-13:27:23.279199,6.0,3.0,383.0
2022-02-06-13:27:23.281193,6.0,3.0,383.0
2022-02-06-13:27:23.281193,0.0,19.0,384.0
2022-02-06-13:27:23.282191,1.0,15.0,384.0
2022-02-06-13:27:23.283188,1.0,15.0,384.0
2022-02-06-13:27:23.284185,1.0,15.0,384.0
2022-02-06-13:27:23.285183,1.0,15.0,384.0
2022-02-06-13:27:23.286181,4.0,3.0,383.0
2022-02-06-13:27:23.287213,4.0,1.0,383.0
2022-02-06-13:27:23.288175,4.0,1.0,383.0
2022-02-06-13:27:23.289173,4.0,1.0,383.0
2022-02-06-13:27:23.290169,4.0,7.0,384.0
2022-02-06-13:27:23.291167,11.0,9.0,383.0
2022-02-06-13:27:23.292166,11.0,9.0,383.0
2022-02-06-13:27:23.293161,11.0,9.0,383.0
2022-02-06-13:27:23.294160,7.0,3.0,384.0
2022-02-06-13:27:23.295158,4.0,5.0,383.0
2022-02-06-13:27:23.296155,4.0,5.0,383.0
2022-02-06-13:27:23.297151,4.0,5.0,383.0
2022-02-06-13:27:23.298149,2.0,6.0,383.0
2022-02-06-13:27:23.299145,3.0,17.0,384.0
2022-02-06-13:27:23.300143,3.0,17.0,384.0
2022-02-06-13:27:23.301141,3.0,17.0,384.0
2022-02-06-13:27:23.302138,0.0,13.0,384.0
2022-02-06-13:27:23.303135,3.0,9.0,383.0
2022-02-06-13:27:23.304132,2.0,1.0,384.0
2022-02-06-13:27:23.305129,2.0,1.0,384.0
2022-02-06-13:27:23.306127,4.0,3.0,384.0
2022-02-06-13:27:23.307124,9.0,8.0,383.0
2022-02-06-13:27:23.308121,9.0,8.0,383.0
2022-02-06-13:27:23.309118,9.0,8.0,383.0
2022-02-06-13:27:23.310116,8.0,11.0,384.0
2022-02-06-13:27:23.311113,9.0,1.0,384.0
2022-02-06-13:27:23.312111,9.0,1.0,384.0
2022-02-06-13:27:23.313108,9.0,1.0,384.0
2022-02-06-13:27:23.314106,9.0,1.0,384.0
2022-02-06-13:27:23.316101,0.0,16.0,383.0
2022-02-06-13:27:23.316101,4.0,18.0,384.0
2022-02-06-13:27:23.317098,4.0,18.0,384.0
2022-02-06-13:27:23.318096,4.0,18.0,384.0
2022-02-06-13:27:23.319092,1.0,8.0,383.0
2022-02-06-13:27:23.320090,3.0,5.0,384.0
2022-02-06-13:27:23.321087,3.0,5.0,384.0
2022-02-06-13:27:23.322084,3.0,5.0,384.0
2022-02-06-13:27:23.323081,6.0,2.0,383.0
2022-02-06-13:27:23.324080,5.0,2.0,384.0
2022-02-06-13:27:23.325076,9.0,4.0,384.0
2022-02-06-13:27:23.326074,9.0,4.0,384.0
2022-02-06-13:27:23.327071,12.0,12.0,384.0
2022-02-06-13:27:23.328068,10.0,12.0,384.0
2022-02-06-13:27:23.329065,10.0,7.0,384.0
2022-02-06-13:27:23.330063,9.0,1.0,384.0
2022-02-06-13:27:23.331060,2.0,13.0,384.0
2022-02-06-13:27:23.332059,4.0,16.0,384.0
2022-02-06-13:27:23.333056,4.0,16.0,384.0
2022-02-06-13:27:23.334054,4.0,16.0,384.0
2022-02-06-13:27:23.335050,3.0,13.0,383.0
2022-02-06-13:27:23.336047,1.0,9.0,384.0
2022-02-06-13:27:23.337044,3.0,3.0,384.0
2022-02-06-13:27:23.338042,3.0,3.0,384.0
2022-02-06-13:27:23.339039,4.0,4.0,384.0
2022-02-06-13:27:23.340039,4.0,3.0,384.0
2022-02-06-13:27:23.341035,7.0,1.0,384.0
2022-02-06-13:27:23.342033,7.0,1.0,384.0
2022-02-06-13:27:23.343029,9.0,6.0,383.0
2022-02-06-13:27:23.344028,12.0,9.0,384.0
2022-02-06-13:27:23.345025,7.0,7.0,384.0
2022-02-06-13:27:23.346020,12.0,5.0,384.0
2022-02-06-13:27:23.348016,12.0,5.0,384.0
2022-02-06-13:27:23.349013,1.0,20.0,384.0
2022-02-06-13:27:23.349013,1.0,20.0,384.0
2022-02-06-13:27:23.350063,1.0,20.0,384.0
2022-02-06-13:27:23.351044,1.0,20.0,384.0
2022-02-06-13:27:23.352030,1.0,16.0,384.0
2022-02-06-13:27:23.353028,2.0,6.0,383.0
2022-02-06-13:27:23.354024,2.0,6.0,383.0
2022-02-06-13:27:23.355023,2.0,6.0,383.0
2022-02-06-13:27:23.355995,5.0,2.0,383.0
2022-02-06-13:27:23.357002,6.0,0.0,384.0
2022-02-06-13:27:23.357989,4.0,3.0,384.0
2022-02-06-13:27:23.358986,4.0,3.0,384.0
2022-02-06-13:27:23.359983,13.0,13.0,383.0
2022-02-06-13:27:23.360980,8.0,3.0,384.0
2022-02-06-13:27:23.361977,8.0,3.0,384.0
2022-02-06-13:27:23.362975,8.0,3.0,384.0
2022-02-06-13:27:23.363972,3.0,5.0,383.0
2022-02-06-13:27:23.364970,5.0,17.0,384.0
2022-02-06-13:27:23.365967,5.0,17.0,384.0
2022-02-06-13:27:23.366964,5.0,17.0,384.0
2022-02-06-13:27:23.367995,2.0,7.0,384.0
2022-02-06-13:27:23.368960,4.0,6.0,384.0
2022-02-06-13:27:23.369957,5.0,3.0,383.0
2022-02-06-13:27:23.370954,5.0,3.0,383.0
2022-02-06-13:27:23.371952,4.0,2.0,384.0
2022-02-06-13:27:23.372949,7.0,4.0,384.0
2022-02-06-13:27:23.373946,5.0,0.0,384.0
2022-02-06-13:27:23.374943,5.0,0.0,384.0
2022-02-06-13:27:23.375941,11.0,10.0,384.0
2022-02-06-13:27:23.376938,9.0,11.0,384.0
2022-02-06-13:27:23.377935,8.0,4.0,384.0
2022-02-06-13:27:23.378932,8.0,4.0,384.0
2022-02-06-13:27:23.379931,8.0,4.0,384.0
2022-02-06-13:27:23.380928,2.0,10.0,383.0
2022-02-06-13:27:23.381959,2.0,20.0,383.0
2022-02-06-13:27:23.383919,2.0,20.0,383.0
2022-02-06-13:27:23.383919,6.0,5.0,384.0
2022-02-06-13:27:23.384952,6.0,5.0,384.0
2022-02-06-13:27:23.385953,6.0,5.0,384.0
2022-02-06-13:27:23.386945,6.0,5.0,384.0
2022-02-06-13:27:23.387944,6.0,5.0,384.0
2022-02-06-13:27:23.388938,4.0,2.0,384.0
2022-02-06-13:27:23.389935,6.0,3.0,384.0
2022-02-06-13:27:23.390935,6.0,3.0,384.0
2022-02-06-13:27:23.391930,6.0,3.0,384.0
2022-02-06-13:27:23.392932,7.0,6.0,384.0
2022-02-06-13:27:23.394048,12.0,4.0,383.0
2022-02-06-13:27:23.394048,12.0,4.0,383.0
2022-02-06-13:27:23.395093,12.0,4.0,383.0
2022-02-06-13:27:23.396090,12.0,4.0,383.0
2022-02-06-13:27:23.397087,9.0,2.0,384.0
2022-02-06-13:27:23.398083,1.0,6.0,384.0
2022-02-06-13:27:23.399037,1.0,6.0,384.0
2022-02-06-13:27:23.400037,1.0,13.0,384.0
2022-02-06-13:27:23.401056,2.0,5.0,383.0
2022-02-06-13:27:23.402104,2.0,5.0,383.0
2022-02-06-13:27:23.402104,2.0,5.0,383.0
2022-02-06-13:27:23.403139,2.0,5.0,383.0
2022-02-06-13:27:23.404133,2.0,5.0,383.0
2022-02-06-13:27:23.405133,3.0,6.0,384.0
2022-02-06-13:27:23.406128,7.0,3.0,384.0
2022-02-06-13:27:23.407125,4.0,1.0,384.0
2022-02-06-13:27:23.408124,4.0,1.0,384.0
2022-02-06-13:27:23.409122,11.0,2.0,384.0
2022-02-06-13:27:23.410117,13.0,10.0,384.0
2022-02-06-13:27:23.411121,11.0,5.0,384.0
2022-02-06-13:27:23.412113,11.0,5.0,384.0
2022-02-06-13:27:23.413112,8.0,0.0,384.0
2022-02-06-13:27:23.414107,1.0,15.0,384.0
2022-02-06-13:27:23.415104,1.0,20.0,384.0
2022-02-06-13:27:23.416103,1.0,20.0,384.0
2022-02-06-13:27:23.418095,1.0,18.0,384.0
2022-02-06-13:27:23.418095,1.0,8.0,384.0
2022-02-06-13:27:23.419096,1.0,8.0,384.0
2022-02-06-13:27:23.420082,1.0,8.0,384.0
2022-02-06-13:27:23.421082,2.0,4.0,383.0
2022-02-06-13:27:23.422077,4.0,3.0,383.0
2022-02-06-13:27:23.423074,7.0,4.0,384.0
2022-02-06-13:27:23.424087,7.0,4.0,384.0
2022-02-06-13:27:23.425069,4.0,1.0,383.0
2022-02-06-13:27:23.426066,10.0,11.0,384.0
2022-02-06-13:27:23.427066,11.0,10.0,384.0
2022-02-06-13:27:23.428101,11.0,10.0,384.0
2022-02-06-13:27:23.429061,11.0,1.0,384.0
2022-02-06-13:27:23.430055,1.0,13.0,384.0
2022-02-06-13:27:23.431055,3.0,19.0,384.0
2022-02-06-13:27:23.432053,3.0,19.0,384.0
2022-02-06-13:27:23.433024,3.0,14.0,384.0
2022-02-06-13:27:23.434021,5.0,6.0,384.0
2022-02-06-13:27:23.435050,5.0,6.0,384.0
2022-02-06-13:27:23.436040,5.0,6.0,384.0
2022-02-06-13:27:23.437209,5.0,6.0,384.0
2022-02-06-13:27:23.437209,2.0,3.0,383.0
2022-02-06-13:27:23.438243,3.0,2.0,385.0
2022-02-06-13:27:23.439246,4.0,2.0,384.0
2022-02-06-13:27:23.440237,4.0,2.0,384.0
2022-02-06-13:27:23.441235,4.0,2.0,384.0
2022-02-06-13:27:23.442231,8.0,9.0,384.0
2022-02-06-13:27:23.443228,11.0,9.0,383.0
2022-02-06-13:27:23.444227,11.0,9.0,383.0
2022-02-06-13:27:23.445223,11.0,9.0,383.0
2022-02-06-13:27:23.446189,9.0,5.0,384.0
2022-02-06-13:27:23.447186,1.0,13.0,384.0
2022-02-06-13:27:23.448184,1.0,13.0,384.0
2022-02-06-13:27:23.449181,1.0,13.0,384.0
2022-02-06-13:27:23.450178,2.0,7.0,384.0
2022-02-06-13:27:23.452173,2.0,7.0,384.0
2022-02-06-13:27:23.452173,2.0,7.0,384.0
2022-02-06-13:27:23.453171,2.0,7.0,384.0
2022-02-06-13:27:23.454168,5.0,2.0,384.0
2022-02-06-13:27:23.455165,5.0,2.0,384.0
2022-02-06-13:27:23.456163,5.0,2.0,384.0
2022-02-06-13:27:23.457160,5.0,2.0,384.0
2022-02-06-13:27:23.458157,8.0,3.0,383.0
2022-02-06-13:27:23.459154,10.0,8.0,384.0
2022-02-06-13:27:23.460152,10.0,8.0,384.0
2022-02-06-13:27:23.461149,10.0,8.0,384.0
2022-02-06-13:27:23.462146,9.0,1.0,383.0
2022-02-06-13:27:23.463143,5.0,11.0,383.0
2022-02-06-13:27:23.464141,5.0,11.0,383.0
2022-02-06-13:27:23.465138,5.0,11.0,383.0
2022-02-06-13:27:23.466136,1.0,20.0,384.0
2022-02-06-13:27:23.467134,4.0,8.0,383.0
2022-02-06-13:27:23.468164,4.0,8.0,383.0
2022-02-06-13:27:23.469127,4.0,8.0,383.0
2022-02-06-13:27:23.470158,1.0,6.0,384.0
2022-02-06-13:27:23.471173,4.0,2.0,384.0
2022-02-06-13:27:23.472170,5.0,1.0,384.0
2022-02-06-13:27:23.473116,5.0,1.0,384.0
2022-02-06-13:27:23.474166,5.0,1.0,383.0
2022-02-06-13:27:23.475163,10.0,10.0,384.0
2022-02-06-13:27:23.476161,8.0,14.0,384.0
2022-02-06-13:27:23.477105,8.0,14.0,384.0
2022-02-06-13:27:23.478154,9.0,0.0,384.0
2022-02-06-13:27:23.479152,5.0,11.0,384.0
2022-02-06-13:27:23.480149,5.0,11.0,384.0
2022-02-06-13:27:23.481148,5.0,11.0,384.0
2022-02-06-13:27:23.482149,5.0,11.0,384.0
2022-02-06-13:27:23.484086,4.0,19.0,384.0
2022-02-06-13:27:23.484086,1.0,9.0,384.0
2022-02-06-13:27:23.485084,1.0,9.0,384.0
2022-02-06-13:27:23.486115,1.0,9.0,384.0
2022-02-06-13:27:23.487110,5.0,1.0,383.0
2022-02-06-13:27:23.488076,6.0,3.0,384.0
2022-02-06-13:27:23.489074,6.0,3.0,384.0
2022-02-06-13:27:23.490071,6.0,3.0,384.0
2022-02-06-13:27:23.491121,5.0,2.0,384.0
2022-02-06-13:27:23.492120,9.0,5.0,384.0
2022-02-06-13:27:23.493116,9.0,8.0,384.0
2022-02-06-13:27:23.494112,9.0,8.0,384.0
2022-02-06-13:27:23.495111,8.0,9.0,384.0
2022-02-06-13:27:23.496107,4.0,5.0,384.0
2022-02-06-13:27:23.497105,2.0,9.0,384.0
2022-02-06-13:27:23.498102,2.0,9.0,384.0
2022-02-06-13:27:23.499100,4.0,12.0,384.0
2022-02-06-13:27:23.500097,2.0,17.0,384.0
2022-02-06-13:27:23.501087,0.0,10.0,384.0
2022-02-06-13:27:23.502083,0.0,10.0,384.0
2022-02-06-13:27:23.503080,2.0,9.0,384.0
2022-02-06-13:27:23.504079,1.0,3.0,383.0
2022-02-06-13:27:23.505076,1.0,3.0,383.0
2022-02-06-13:27:23.506029,1.0,3.0,383.0
2022-02-06-13:27:23.507054,6.0,2.0,384.0
2022-02-06-13:27:23.508068,11.0,9.0,383.0
2022-02-06-13:27:23.509072,11.0,9.0,383.0
2022-02-06-13:27:23.510017,11.0,9.0,383.0
2022-02-06-13:27:23.511067,13.0,11.0,384.0
2022-02-06-13:27:23.512056,7.0,2.0,384.0
2022-02-06-13:27:23.513055,3.0,5.0,383.0
2022-02-06-13:27:23.514066,3.0,5.0,383.0
2022-02-06-13:27:23.515049,2.0,13.0,384.0
2022-02-06-13:27:23.516047,1.0,18.0,384.0
2022-02-06-13:27:23.517043,2.0,13.0,384.0
2022-02-06-13:27:23.518040,2.0,13.0,384.0
2022-02-06-13:27:23.519019,2.0,13.0,384.0
2022-02-06-13:27:23.521034,7.0,5.0,384.0
2022-02-06-13:27:23.521034,5.0,3.0,383.0
2022-02-06-13:27:23.522036,5.0,3.0,383.0
2022-02-06-13:27:23.522983,5.0,3.0,383.0
2022-02-06-13:27:23.524025,11.0,1.0,384.0
2022-02-06-13:27:23.525104,7.0,13.0,383.0
2022-02-06-13:27:23.525104,7.0,13.0,383.0
2022-02-06-13:27:23.526157,7.0,13.0,383.0
2022-02-06-13:27:23.527334,7.0,13.0,383.0
2022-02-06-13:27:23.527334,12.0,9.0,384.0
2022-02-06-13:27:23.528384,5.0,2.0,384.0
2022-02-06-13:27:23.529377,7.0,2.0,383.0
2022-02-06-13:27:23.530375,7.0,2.0,383.0
2022-02-06-13:27:23.531374,0.0,12.0,384.0
2022-02-06-13:27:23.532371,0.0,12.0,384.0
2022-02-06-13:27:23.533367,0.0,12.0,384.0
2022-02-06-13:27:23.534369,0.0,12.0,384.0
2022-02-06-13:27:23.535362,0.0,12.0,384.0
2022-02-06-13:27:23.536359,3.0,7.0,384.0
2022-02-06-13:27:23.537356,4.0,4.0,384.0
2022-02-06-13:27:23.538354,6.0,3.0,384.0
2022-02-06-13:27:23.539336,6.0,3.0,384.0
2022-02-06-13:27:23.540328,3.0,1.0,384.0
2022-02-06-13:27:23.541345,10.0,9.0,384.0
2022-02-06-13:27:23.542344,10.0,9.0,384.0
2022-02-06-13:27:23.543340,10.0,9.0,384.0
2022-02-06-13:27:23.544337,8.0,7.0,384.0
2022-02-06-13:27:23.545335,4.0,0.0,383.0
2022-02-06-13:27:23.546332,4.0,0.0,383.0
2022-02-06-13:27:23.547336,4.0,0.0,383.0
2022-02-06-13:27:23.548327,6.0,9.0,384.0
2022-02-06-13:27:23.549324,1.0,20.0,384.0
2022-02-06-13:27:23.550328,2.0,15.0,383.0
2022-02-06-13:27:23.551319,2.0,15.0,383.0
2022-02-06-13:27:23.552316,4.0,12.0,384.0
2022-02-06-13:27:23.554264,2.0,2.0,384.0
2022-02-06-13:27:23.554264,2.0,2.0,384.0
2022-02-06-13:27:23.555310,2.0,2.0,384.0
2022-02-06-13:27:23.556259,2.0,2.0,384.0
2022-02-06-13:27:23.557302,7.0,2.0,383.0
2022-02-06-13:27:23.558400,7.0,3.0,383.0
2022-02-06-13:27:23.558400,7.0,3.0,383.0
2022-02-06-13:27:23.559449,7.0,3.0,383.0
2022-02-06-13:27:23.560486,10.0,10.0,384.0
2022-02-06-13:27:23.560486,8.0,3.0,384.0
2022-02-06-13:27:23.561532,8.0,2.0,384.0
2022-02-06-13:27:23.562529,8.0,2.0,384.0
2022-02-06-13:27:23.563528,8.0,2.0,384.0
2022-02-06-13:27:23.564526,6.0,5.0,384.0
2022-02-06-13:27:23.565475,1.0,20.0,384.0
2022-02-06-13:27:23.566473,5.0,17.0,384.0
2022-02-06-13:27:23.567470,5.0,17.0,384.0
2022-02-06-13:27:23.568513,5.0,15.0,384.0
2022-02-06-13:27:23.569511,1.0,9.0,384.0
2022-02-06-13:27:23.570508,4.0,6.0,384.0
2022-02-06-13:27:23.571459,4.0,6.0,384.0
2022-02-06-13:27:23.572505,5.0,2.0,384.0
2022-02-06-13:27:23.573480,5.0,1.0,384.0
2022-02-06-13:27:23.574497,5.0,1.0,384.0
2022-02-06-13:27:23.575506,5.0,1.0,384.0
2022-02-06-13:27:23.576492,10.0,5.0,384.0
2022-02-06-13:27:23.577490,9.0,4.0,383.0
2022-02-06-13:27:23.578487,9.0,4.0,383.0
2022-02-06-13:27:23.579484,9.0,4.0,383.0
2022-02-06-13:27:23.580483,9.0,4.0,383.0
2022-02-06-13:27:23.581479,1.0,16.0,384.0
2022-02-06-13:27:23.582476,0.0,23.0,384.0
2022-02-06-13:27:23.583478,0.0,23.0,384.0
2022-02-06-13:27:23.584471,0.0,23.0,384.0
2022-02-06-13:27:23.585469,0.0,16.0,384.0
2022-02-06-13:27:23.586465,1.0,9.0,384.0
2022-02-06-13:27:23.588414,5.0,5.0,384.0
2022-02-06-13:27:23.588414,5.0,2.0,384.0
2022-02-06-13:27:23.589412,8.0,2.0,384.0
2022-02-06-13:27:23.590432,8.0,2.0,384.0
2022-02-06-13:27:23.591429,8.0,2.0,384.0
2022-02-06-13:27:23.592434,8.0,2.0,384.0
2022-02-06-13:27:23.593424,7.0,3.0,384.0
2022-02-06-13:27:23.594422,9.0,8.0,384.0
2022-02-06-13:27:23.595422,10.0,2.0,384.0
2022-02-06-13:27:23.596419,10.0,2.0,384.0
2022-02-06-13:27:23.597413,4.0,8.0,383.0
2022-02-06-13:27:23.598549,1.0,16.0,384.0
2022-02-06-13:27:23.598549,1.0,16.0,384.0
2022-02-06-13:27:23.599598,1.0,16.0,384.0
2022-02-06-13:27:23.600593,1.0,16.0,384.0
2022-02-06-13:27:23.601591,1.0,11.0,384.0
2022-02-06-13:27:23.602570,4.0,7.0,384.0
2022-02-06-13:27:23.603539,4.0,7.0,384.0
2022-02-06-13:27:23.604707,4.0,7.0,384.0
2022-02-06-13:27:23.604707,4.0,7.0,384.0
2022-02-06-13:27:23.605731,6.0,2.0,384.0
2022-02-06-13:27:23.606731,8.0,1.0,384.0
2022-02-06-13:27:23.607726,8.0,1.0,384.0
2022-02-06-13:27:23.608724,8.0,1.0,384.0
2022-02-06-13:27:23.609723,9.0,8.0,384.0
2022-02-06-13:27:23.610719,11.0,5.0,384.0
2022-02-06-13:27:23.611717,7.0,2.0,383.0
2022-02-06-13:27:23.612715,7.0,2.0,383.0
2022-02-06-13:27:23.613711,6.0,4.0,384.0
2022-02-06-13:27:23.614709,2.0,17.0,384.0
2022-02-06-13:27:23.615706,0.0,20.0,384.0
2022-02-06-13:27:23.616704,0.0,20.0,384.0
2022-02-06-13:27:23.617703,0.0,13.0,384.0
2022-02-06-13:27:23.618673,4.0,5.0,384.0
2022-02-06-13:27:23.619700,7.0,3.0,383.0
2022-02-06-13:27:23.621664,7.0,3.0,383.0
2022-02-06-13:27:23.621664,5.0,2.0,383.0
2022-02-06-13:27:23.622689,9.0,2.0,383.0
2022-02-06-13:27:23.623684,9.0,2.0,383.0
2022-02-06-13:27:23.624681,9.0,2.0,383.0
2022-02-06-13:27:23.625680,12.0,10.0,384.0
2022-02-06-13:27:23.626675,11.0,8.0,383.0
2022-02-06-13:27:23.627675,8.0,4.0,383.0
2022-02-06-13:27:23.628671,8.0,4.0,383.0
2022-02-06-13:27:23.629669,8.0,4.0,383.0
2022-02-06-13:27:23.630666,3.0,8.0,384.0
2022-02-06-13:27:23.631742,1.0,21.0,384.0
2022-02-06-13:27:23.631742,1.0,21.0,384.0
2022-02-06-13:27:23.632769,1.0,21.0,384.0
2022-02-06-13:27:23.633768,1.0,21.0,384.0
2022-02-06-13:27:23.635058,2.0,9.0,383.0
2022-02-06-13:27:23.635058,2.0,9.0,383.0
2022-02-06-13:27:23.636083,3.0,7.0,384.0
2022-02-06-13:27:23.637055,3.0,7.0,384.0
2022-02-06-13:27:23.638101,4.0,3.0,384.0
2022-02-06-13:27:23.639100,5.0,3.0,384.0
2022-02-06-13:27:23.640095,5.0,3.0,384.0
2022-02-06-13:27:23.641070,5.0,3.0,384.0
2022-02-06-13:27:23.642089,8.0,2.0,383.0
2022-02-06-13:27:23.643087,8.0,10.0,384.0
2022-02-06-13:27:23.644084,9.0,1.0,383.0
2022-02-06-13:27:23.645081,9.0,1.0,383.0
2022-02-06-13:27:23.646079,4.0,1.0,384.0
2022-02-06-13:27:23.647079,1.0,21.0,384.0
2022-02-06-13:27:23.648073,1.0,21.0,384.0
2022-02-06-13:27:23.649070,1.0,21.0,384.0
2022-02-06-13:27:23.650068,1.0,21.0,384.0
2022-02-06-13:27:23.651065,1.0,17.0,384.0
2022-02-06-13:27:23.652062,0.0,10.0,383.0
2022-02-06-13:27:23.654009,1.0,7.0,384.0
2022-02-06-13:27:23.654009,6.0,4.0,384.0
2022-02-06-13:27:23.655163,3.0,2.0,384.0
2022-02-06-13:27:23.655163,3.0,2.0,384.0
2022-02-06-13:27:23.656189,3.0,2.0,384.0
2022-02-06-13:27:23.657208,3.0,2.0,384.0
2022-02-06-13:27:23.658207,3.0,2.0,384.0
2022-02-06-13:27:23.659404,7.0,6.0,383.0
2022-02-06-13:27:23.659404,10.0,7.0,383.0
2022-02-06-13:27:23.660532,6.0,4.0,383.0
2022-02-06-13:27:23.660532,6.0,4.0,383.0
2022-02-06-13:27:23.661558,6.0,4.0,383.0
2022-02-06-13:27:23.662616,2.0,1.0,384.0
2022-02-06-13:27:23.662616,2.0,18.0,384.0
2022-02-06-13:27:23.663663,3.0,16.0,384.0
2022-02-06-13:27:23.664660,3.0,16.0,384.0
2022-02-06-13:27:23.665611,3.0,16.0,384.0
2022-02-06-13:27:23.666608,1.0,18.0,384.0
2022-02-06-13:27:23.667657,2.0,11.0,384.0
2022-02-06-13:27:23.668650,0.0,6.0,384.0
2022-02-06-13:27:23.669650,0.0,6.0,384.0
2022-02-06-13:27:23.670644,0.0,6.0,384.0
2022-02-06-13:27:23.671620,7.0,2.0,384.0
2022-02-06-13:27:23.672638,7.0,2.0,384.0
2022-02-06-13:27:23.673637,7.0,2.0,384.0
2022-02-06-13:27:23.674634,7.0,2.0,384.0
2022-02-06-13:27:23.675635,9.0,0.0,384.0
2022-02-06-13:27:23.676629,10.0,10.0,384.0
2022-02-06-13:27:23.677629,13.0,7.0,383.0
2022-02-06-13:27:23.678623,13.0,7.0,383.0
2022-02-06-13:27:23.679599,2.0,3.0,384.0
2022-02-06-13:27:23.680616,4.0,19.0,384.0
2022-02-06-13:27:23.681569,4.0,19.0,384.0
2022-02-06-13:27:23.682571,4.0,19.0,384.0
2022-02-06-13:27:23.683562,5.0,19.0,384.0
2022-02-06-13:27:23.684559,3.0,6.0,383.0
2022-02-06-13:27:23.685557,3.0,6.0,383.0
2022-02-06-13:27:23.686581,3.0,6.0,383.0
2022-02-06-13:27:23.688606,8.0,5.0,383.0
2022-02-06-13:27:23.688606,9.0,1.0,383.0
2022-02-06-13:27:23.689568,9.0,1.0,383.0
2022-02-06-13:27:23.690573,9.0,1.0,383.0
2022-02-06-13:27:23.691567,8.0,3.0,383.0
2022-02-06-13:27:23.692564,11.0,7.0,384.0
2022-02-06-13:27:23.693564,14.0,8.0,384.0
2022-02-06-13:27:23.694558,14.0,8.0,384.0
2022-02-06-13:27:23.695556,12.0,2.0,384.0
2022-02-06-13:27:23.696554,3.0,4.0,383.0
2022-02-06-13:27:23.697647,1.0,17.0,384.0
2022-02-06-13:27:23.697647,1.0,17.0,384.0
2022-02-06-13:27:23.698674,1.0,17.0,384.0
2022-02-06-13:27:23.699848,1.0,19.0,384.0
2022-02-06-13:27:23.699848,3.0,16.0,384.0
2022-02-06-13:27:23.700961,2.0,9.0,384.0
2022-02-06-13:27:23.700961,2.0,9.0,384.0
2022-02-06-13:27:23.701988,2.0,9.0,384.0
2022-02-06-13:27:23.702985,2.0,9.0,384.0
2022-02-06-13:27:23.704219,3.0,7.0,384.0
2022-02-06-13:27:23.704559,2.0,0.0,384.0
2022-02-06-13:27:23.704559,2.0,0.0,384.0
2022-02-06-13:27:23.705585,2.0,0.0,384.0
2022-02-06-13:27:23.706556,2.0,0.0,384.0
2022-02-06-13:27:23.707553,4.0,0.0,383.0
2022-02-06-13:27:23.708592,4.0,5.0,383.0
2022-02-06-13:27:23.708592,8.0,9.0,384.0
2022-02-06-13:27:23.709618,9.0,7.0,383.0
2022-02-06-13:27:23.710621,9.0,7.0,383.0
2022-02-06-13:27:23.711613,9.0,7.0,383.0
2022-02-06-13:27:23.712611,12.0,7.0,383.0
2022-02-06-13:27:23.713608,11.0,3.0,384.0
2022-02-06-13:27:23.714605,4.0,14.0,384.0
2022-02-06-13:27:23.715602,4.0,14.0,384.0
2022-02-06-13:27:23.716599,4.0,13.0,384.0
2022-02-06-13:27:23.717597,5.0,7.0,384.0
2022-02-06-13:27:23.718595,5.0,7.0,384.0
2022-02-06-13:27:23.719592,5.0,7.0,384.0
2022-02-06-13:27:23.720589,5.0,5.0,384.0
2022-02-06-13:27:23.721587,7.0,1.0,383.0
2022-02-06-13:27:23.723605,7.0,1.0,383.0
2022-02-06-13:27:23.723605,2.0,2.0,384.0
2022-02-06-13:27:23.724712,8.0,6.0,384.0
2022-02-06-13:27:23.724712,8.0,6.0,384.0
2022-02-06-13:27:23.725743,8.0,6.0,384.0
2022-02-06-13:27:23.726742,8.0,6.0,384.0
2022-02-06-13:27:23.727740,8.0,6.0,384.0
2022-02-06-13:27:23.728735,8.0,6.0,384.0
2022-02-06-13:27:23.729732,7.0,9.0,384.0
2022-02-06-13:27:23.730733,5.0,10.0,384.0
2022-02-06-13:27:23.731916,5.0,10.0,384.0
2022-02-06-13:27:23.731916,3.0,18.0,384.0
2022-02-06-13:27:23.733103,1.0,15.0,384.0
2022-02-06-13:27:23.733103,2.0,10.0,384.0
2022-02-06-13:27:23.734129,2.0,10.0,384.0
2022-02-06-13:27:23.735124,2.0,10.0,384.0
2022-02-06-13:27:23.736121,2.0,10.0,384.0
2022-02-06-13:27:23.737449,5.0,7.0,384.0
2022-02-06-13:27:23.737449,5.0,7.0,384.0
2022-02-06-13:27:23.738597,12.0,0.0,384.0
2022-02-06-13:27:23.738597,12.0,0.0,384.0
2022-02-06-13:27:23.739621,12.0,0.0,384.0
2022-02-06-13:27:23.740837,9.0,2.0,384.0
2022-02-06-13:27:23.740837,8.0,6.0,384.0
2022-02-06-13:27:23.741891,11.0,14.0,384.0
2022-02-06-13:27:23.742888,11.0,14.0,384.0
2022-02-06-13:27:23.743871,11.0,14.0,384.0
2022-02-06-13:27:23.744853,14.0,10.0,383.0
2022-02-06-13:27:23.745826,5.0,7.0,384.0
2022-02-06-13:27:23.746823,5.0,7.0,384.0
2022-02-06-13:27:23.747845,5.0,7.0,384.0
2022-02-06-13:27:23.748842,1.0,12.0,384.0
2022-02-06-13:27:23.749840,4.0,15.0,384.0
2022-02-06-13:27:23.750837,2.0,10.0,384.0
2022-02-06-13:27:23.751810,2.0,10.0,384.0
2022-02-06-13:27:23.752833,3.0,6.0,383.0
2022-02-06-13:27:23.753833,4.0,2.0,383.0
2022-02-06-13:27:23.754834,3.0,2.0,384.0
2022-02-06-13:27:23.755799,3.0,2.0,384.0
2022-02-06-13:27:23.756796,4.0,5.0,384.0
2022-02-06-13:27:23.758837,11.0,8.0,384.0
2022-02-06-13:27:23.758837,11.0,8.0,384.0
2022-02-06-13:27:23.759855,11.0,8.0,384.0
2022-02-06-13:27:23.760835,13.0,12.0,383.0
2022-02-06-13:27:23.761829,8.0,0.0,384.0
2022-02-06-13:27:23.762828,9.0,3.0,383.0
2022-02-06-13:27:23.763827,9.0,3.0,383.0
2022-02-06-13:27:23.764821,9.0,3.0,383.0
2022-02-06-13:27:23.765819,0.0,15.0,384.0
2022-02-06-13:27:23.766816,0.0,14.0,384.0
2022-02-06-13:27:23.767814,0.0,14.0,384.0
2022-02-06-13:27:23.768814,0.0,14.0,384.0
2022-02-06-13:27:23.769787,0.0,14.0,384.0
2022-02-06-13:27:23.770807,6.0,6.0,384.0
2022-02-06-13:27:23.771805,6.0,6.0,384.0
2022-02-06-13:27:23.772800,6.0,6.0,384.0
2022-02-06-13:27:23.773776,7.0,1.0,384.0
2022-02-06-13:27:23.775136,8.0,6.0,384.0
2022-02-06-13:27:23.775136,8.0,6.0,384.0
2022-02-06-13:27:23.776166,8.0,6.0,384.0
2022-02-06-13:27:23.777160,8.0,6.0,384.0
2022-02-06-13:27:23.778207,12.0,9.0,384.0
2022-02-06-13:27:23.778207,10.0,3.0,383.0
2022-02-06-13:27:23.779233,7.0,6.0,384.0
2022-02-06-13:27:23.780229,7.0,6.0,384.0
2022-02-06-13:27:23.781227,7.0,6.0,384.0
2022-02-06-13:27:23.782226,1.0,16.0,384.0
2022-02-06-13:27:23.783309,4.0,15.0,383.0
2022-02-06-13:27:23.783309,4.0,15.0,383.0
2022-02-06-13:27:23.784335,4.0,15.0,383.0
2022-02-06-13:27:23.785332,4.0,15.0,383.0
2022-02-06-13:27:23.786329,2.0,11.0,384.0
2022-02-06-13:27:23.787326,1.0,4.0,383.0
2022-02-06-13:27:23.788633,8.0,1.0,384.0
2022-02-06-13:27:23.788633,7.0,1.0,383.0
2022-02-06-13:27:23.790640,9.0,7.0,384.0
2022-02-06-13:27:23.790640,9.0,7.0,384.0
2022-02-06-13:27:23.791728,9.0,7.0,384.0
2022-02-06-13:27:23.791728,9.0,7.0,384.0
2022-02-06-13:27:23.792909,9.0,7.0,384.0
2022-02-06-13:27:23.792909,10.0,10.0,383.0
2022-02-06-13:27:23.793933,11.0,5.0,384.0
2022-02-06-13:27:23.794933,6.0,1.0,384.0
2022-02-06-13:27:23.795929,6.0,1.0,384.0
2022-02-06-13:27:23.796931,6.0,1.0,384.0
2022-02-06-13:27:23.797927,3.0,9.0,384.0
2022-02-06-13:27:23.798922,1.0,21.0,384.0
2022-02-06-13:27:23.799920,2.0,17.0,384.0
2022-02-06-13:27:23.800890,2.0,17.0,384.0
2022-02-06-13:27:23.801934,2.0,12.0,384.0
2022-02-06-13:27:23.802932,4.0,5.0,384.0
2022-02-06-13:27:23.803929,4.0,5.0,384.0
2022-02-06-13:27:23.804925,4.0,5.0,384.0
2022-02-06-13:27:23.805906,7.0,2.0,384.0
2022-02-06-13:27:23.806874,6.0,5.0,384.0
2022-02-06-13:27:23.807898,6.0,5.0,384.0
2022-02-06-13:27:23.808894,6.0,5.0,384.0
2022-02-06-13:27:23.809892,6.0,5.0,384.0
2022-02-06-13:27:23.810890,12.0,11.0,384.0
2022-02-06-13:27:23.811890,10.0,2.0,383.0
2022-02-06-13:27:23.812884,10.0,2.0,383.0
2022-02-06-13:27:23.813883,10.0,2.0,383.0
2022-02-06-13:27:23.814879,1.0,8.0,384.0
2022-02-06-13:27:23.815878,4.0,20.0,384.0
2022-02-06-13:27:23.816873,1.0,13.0,384.0
2022-02-06-13:27:23.817870,1.0,13.0,384.0
2022-02-06-13:27:23.818869,2.0,10.0,384.0
2022-02-06-13:27:23.819865,0.0,6.0,384.0
2022-02-06-13:27:23.820862,5.0,2.0,384.0
2022-02-06-13:27:23.821864,5.0,2.0,384.0
2022-02-06-13:27:23.822859,8.0,1.0,384.0
2022-02-06-13:27:23.824826,9.0,5.0,384.0
2022-02-06-13:27:23.824826,9.0,5.0,384.0
2022-02-06-13:27:23.825848,8.0,1.0,384.0
2022-02-06-13:27:23.826848,7.0,1.0,384.0
2022-02-06-13:27:23.827842,7.0,1.0,384.0
2022-02-06-13:27:23.828839,7.0,1.0,384.0
2022-02-06-13:27:23.829840,7.0,1.0,384.0
2022-02-06-13:27:23.830834,2.0,9.0,384.0
2022-02-06-13:27:23.831835,0.0,12.0,383.0
2022-02-06-13:27:23.832829,0.0,12.0,383.0
2022-02-06-13:27:23.833826,0.0,12.0,383.0
2022-02-06-13:27:23.834827,1.0,10.0,384.0
2022-02-06-13:27:23.835826,8.0,3.0,384.0
2022-02-06-13:27:23.836818,8.0,3.0,384.0
2022-02-06-13:27:23.837792,8.0,3.0,384.0
2022-02-06-13:27:23.838813,4.0,3.0,384.0
2022-02-06-13:27:23.839787,10.0,6.0,383.0
2022-02-06-13:27:23.840836,10.0,6.0,383.0
2022-02-06-13:27:23.841808,10.0,6.0,383.0
2022-02-06-13:27:23.842824,10.0,13.0,384.0
2022-02-06-13:27:23.843829,13.0,5.0,384.0
2022-02-06-13:27:23.844819,9.0,2.0,384.0
2022-02-06-13:27:23.845820,9.0,2.0,384.0
2022-02-06-13:27:23.846814,9.0,2.0,384.0
2022-02-06-13:27:23.847812,1.0,15.0,384.0
2022-02-06-13:27:23.848925,3.0,17.0,384.0
2022-02-06-13:27:23.848925,3.0,17.0,384.0
2022-02-06-13:27:23.850150,3.0,17.0,384.0
2022-02-06-13:27:23.850150,2.0,9.0,384.0
2022-02-06-13:27:23.851196,3.0,0.0,384.0
2022-02-06-13:27:23.852193,3.0,0.0,384.0
2022-02-06-13:27:23.853171,3.0,0.0,384.0
2022-02-06-13:27:23.854142,3.0,0.0,384.0
2022-02-06-13:27:23.855164,6.0,1.0,383.0
2022-02-06-13:27:23.856161,4.0,1.0,384.0
2022-02-06-13:27:23.858131,4.0,1.0,384.0
2022-02-06-13:27:23.858131,4.0,1.0,384.0
2022-02-06-13:27:23.859158,9.0,0.0,384.0
2022-02-06-13:27:23.860172,9.0,0.0,384.0
2022-02-06-13:27:23.861169,9.0,0.0,384.0
2022-02-06-13:27:23.862168,9.0,0.0,384.0
2022-02-06-13:27:23.863164,9.0,0.0,384.0
2022-02-06-13:27:23.864161,0.0,12.0,384.0
2022-02-06-13:27:23.865161,3.0,18.0,384.0
2022-02-06-13:27:23.866156,3.0,18.0,384.0
2022-02-06-13:27:23.867154,3.0,18.0,384.0
2022-02-06-13:27:23.868150,0.0,12.0,383.0
2022-02-06-13:27:23.869219,4.0,8.0,384.0
2022-02-06-13:27:23.869402,4.0,8.0,384.0
2022-02-06-13:27:23.869605,4.0,8.0,384.0
2022-02-06-13:27:23.869605,4.0,8.0,384.0
2022-02-06-13:27:23.870630,4.0,8.0,384.0
2022-02-06-13:27:23.871628,2.0,1.0,384.0
2022-02-06-13:27:23.872626,7.0,2.0,384.0
2022-02-06-13:27:23.873597,8.0,1.0,384.0
2022-02-06-13:27:23.874619,8.0,1.0,384.0
2022-02-06-13:27:23.875591,5.0,8.0,384.0
2022-02-06-13:27:23.876638,10.0,8.0,384.0
2022-02-06-13:27:23.877633,7.0,4.0,384.0
2022-02-06-13:27:23.878815,7.0,4.0,384.0
2022-02-06-13:27:23.878815,6.0,3.0,384.0
2022-02-06-13:27:23.879863,0.0,18.0,384.0
2022-02-06-13:27:23.880862,0.0,21.0,384.0
2022-02-06-13:27:23.881856,0.0,21.0,384.0
2022-02-06-13:27:23.882807,0.0,21.0,384.0
2022-02-06-13:27:23.883851,1.0,15.0,383.0
2022-02-06-13:27:23.884829,5.0,5.0,384.0
2022-02-06-13:27:23.885799,5.0,5.0,384.0
2022-02-06-13:27:23.886821,5.0,5.0,384.0
2022-02-06-13:27:23.887826,6.0,1.0,384.0
2022-02-06-13:27:23.888817,6.0,1.0,383.0
2022-02-06-13:27:23.889789,6.0,1.0,383.0
2022-02-06-13:27:23.890820,6.0,1.0,383.0
2022-02-06-13:27:23.891817,6.0,6.0,384.0
2022-02-06-13:27:23.893778,7.0,7.0,384.0
2022-02-06-13:27:23.893778,7.0,7.0,384.0
2022-02-06-13:27:23.894807,7.0,7.0,384.0
2022-02-06-13:27:23.895810,7.0,7.0,384.0
2022-02-06-13:27:23.896801,0.0,14.0,384.0
2022-02-06-13:27:23.897799,3.0,21.0,384.0
2022-02-06-13:27:23.898792,3.0,21.0,384.0
2022-02-06-13:27:23.899763,3.0,21.0,384.0
2022-02-06-13:27:23.900794,0.0,11.0,384.0
2022-02-06-13:27:23.901788,4.0,5.0,384.0
2022-02-06-13:27:23.902786,4.0,5.0,384.0
2022-02-06-13:27:23.903784,4.0,5.0,384.0
2022-02-06-13:27:23.904780,3.0,7.0,384.0
2022-02-06-13:27:23.905777,8.0,2.0,383.0
2022-02-06-13:27:23.906743,8.0,2.0,383.0
2022-02-06-13:27:23.907795,8.0,2.0,383.0
2022-02-06-13:27:23.908772,9.0,9.0,384.0
2022-02-06-13:27:23.909781,9.0,5.0,384.0
2022-02-06-13:27:23.910778,9.0,5.0,384.0
2022-02-06-13:27:23.911785,9.0,5.0,384.0
2022-02-06-13:27:23.912777,5.0,1.0,384.0
2022-02-06-13:27:23.913771,5.0,13.0,384.0
2022-02-06-13:27:23.914769,0.0,17.0,383.0
2022-02-06-13:27:23.915766,0.0,17.0,383.0
2022-02-06-13:27:23.916763,1.0,20.0,383.0
2022-02-06-13:27:23.917760,3.0,13.0,384.0
2022-02-06-13:27:23.918856,3.0,7.0,383.0
2022-02-06-13:27:23.918856,3.0,7.0,383.0
2022-02-06-13:27:23.919902,3.0,7.0,383.0
2022-02-06-13:27:23.920940,1.0,5.0,384.0
2022-02-06-13:27:23.920940,5.0,5.0,383.0
2022-02-06-13:27:23.921988,4.0,3.0,383.0
2022-02-06-13:27:23.922964,4.0,3.0,383.0
2022-02-06-13:27:23.923980,4.0,3.0,383.0
2022-02-06-13:27:23.924979,5.0,0.0,384.0
2022-02-06-13:27:23.926975,8.0,9.0,384.0
2022-02-06-13:27:23.926975,11.0,5.0,384.0
2022-02-06-13:27:23.927923,11.0,5.0,384.0
2022-02-06-13:27:23.928967,10.0,0.0,384.0
2022-02-06-13:27:23.929971,4.0,9.0,384.0
2022-02-06-13:27:23.930963,3.0,14.0,384.0
2022-02-06-13:27:23.931933,3.0,14.0,384.0
2022-02-06-13:27:23.932910,2.0,22.0,384.0
2022-02-06-13:27:23.933955,0.0,13.0,384.0
2022-02-06-13:27:23.934955,2.0,7.0,383.0
2022-02-06-13:27:23.935949,2.0,7.0,383.0
2022-02-06-13:27:23.936947,2.0,7.0,383.0
2022-02-06-13:27:23.937945,6.0,7.0,384.0
2022-02-06-13:27:23.938941,6.0,4.0,383.0
2022-02-06-13:27:23.939893,6.0,4.0,383.0
2022-02-06-13:27:23.940914,6.0,4.0,383.0
2022-02-06-13:27:23.941932,6.0,7.0,384.0
2022-02-06-13:27:23.942931,10.0,9.0,384.0
2022-02-06-13:27:23.943929,10.0,9.0,384.0
2022-02-06-13:27:23.944926,10.0,9.0,384.0
2022-02-06-13:27:23.945924,8.0,6.0,383.0
2022-02-06-13:27:23.946927,1.0,16.0,384.0
2022-02-06-13:27:23.947917,1.0,16.0,384.0
2022-02-06-13:27:23.948916,1.0,16.0,384.0
2022-02-06-13:27:23.949913,3.0,18.0,384.0
2022-02-06-13:27:23.950910,2.0,12.0,384.0
2022-02-06-13:27:23.951907,1.0,8.0,384.0
2022-02-06-13:27:23.952904,1.0,8.0,384.0
2022-02-06-13:27:23.953902,4.0,4.0,384.0
2022-02-06-13:27:23.954900,8.0,4.0,383.0
2022-02-06-13:27:23.955901,5.0,4.0,383.0
2022-02-06-13:27:23.956894,5.0,4.0,383.0
2022-02-06-13:27:23.957891,8.0,1.0,383.0
2022-02-06-13:27:23.958888,10.0,13.0,384.0
2022-02-06-13:27:23.959886,10.0,13.0,384.0
2022-02-06-13:27:23.961833,10.0,13.0,384.0
2022-02-06-13:27:23.961833,10.0,2.0,383.0
2022-02-06-13:27:23.962830,5.0,5.0,384.0
2022-02-06-13:27:23.963852,5.0,13.0,384.0
2022-02-06-13:27:23.964825,5.0,13.0,384.0
2022-02-06-13:27:23.965870,4.0,17.0,384.0
2022-02-06-13:27:23.966867,2.0,16.0,383.0
2022-02-06-13:27:23.967863,1.0,12.0,384.0
2022-02-06-13:27:23.968814,1.0,12.0,384.0
2022-02-06-13:27:23.969860,2.0,4.0,384.0
2022-02-06-13:27:23.970857,5.0,4.0,384.0
2022-02-06-13:27:23.971853,7.0,1.0,384.0
2022-02-06-13:27:23.972859,7.0,1.0,384.0
2022-02-06-13:27:23.973849,9.0,2.0,384.0
2022-02-06-13:27:23.974845,13.0,7.0,384.0
2022-02-06-13:27:23.975843,13.0,7.0,384.0
2022-02-06-13:27:23.976841,13.0,7.0,384.0
2022-02-06-13:27:23.977815,13.0,7.0,384.0
2022-02-06-13:27:23.978834,6.0,8.0,384.0
2022-02-06-13:27:23.980014,6.0,8.0,384.0
2022-02-06-13:27:23.980014,6.0,8.0,384.0
2022-02-06-13:27:23.981062,6.0,8.0,384.0
2022-02-06-13:27:23.982101,0.0,14.0,383.0
2022-02-06-13:27:23.982101,6.0,16.0,384.0
2022-02-06-13:27:23.983147,4.0,12.0,384.0
2022-02-06-13:27:23.984146,4.0,12.0,384.0
2022-02-06-13:27:23.985143,4.0,12.0,384.0
2022-02-06-13:27:23.986144,4.0,6.0,384.0
2022-02-06-13:27:23.987140,5.0,1.0,384.0
2022-02-06-13:27:23.988135,4.0,1.0,383.0
2022-02-06-13:27:23.989133,4.0,1.0,383.0
2022-02-06-13:27:23.990132,4.0,1.0,383.0
2022-02-06-13:27:23.991128,3.0,6.0,383.0
2022-02-06-13:27:23.992125,7.0,8.0,384.0
2022-02-06-13:27:23.993126,7.0,8.0,384.0
2022-02-06-13:27:23.994119,7.0,8.0,384.0
2022-02-06-13:27:23.996066,3.0,8.0,384.0
2022-02-06-13:27:23.996066,1.0,4.0,383.0
2022-02-06-13:27:23.997208,1.0,4.0,383.0
2022-02-06-13:27:23.997208,1.0,4.0,383.0
2022-02-06-13:27:23.998452,1.0,4.0,383.0
2022-02-06-13:27:23.998452,4.0,16.0,384.0
2022-02-06-13:27:23.999477,4.0,16.0,384.0
2022-02-06-13:27:24.000473,4.0,13.0,384.0
2022-02-06-13:27:24.001492,4.0,13.0,384.0
2022-02-06-13:27:24.002470,3.0,3.0,384.0
2022-02-06-13:27:24.003465,6.0,4.0,384.0
2022-02-06-13:27:24.004465,6.0,4.0,384.0
2022-02-06-13:27:24.005542,6.0,4.0,384.0
2022-02-06-13:27:24.005542,6.0,1.0,384.0
2022-02-06-13:27:24.006577,13.0,9.0,384.0
2022-02-06-13:27:24.007596,13.0,9.0,384.0
2022-02-06-13:27:24.008597,13.0,9.0,384.0
2022-02-06-13:27:24.009590,13.0,9.0,384.0
2022-02-06-13:27:24.010586,13.0,9.0,384.0
2022-02-06-13:27:24.011584,9.0,1.0,383.0
2022-02-06-13:27:24.012582,7.0,2.0,383.0
2022-02-06-13:27:24.013578,7.0,2.0,383.0
2022-02-06-13:27:24.014778,7.0,2.0,383.0
2022-02-06-13:27:24.014778,2.0,11.0,384.0
2022-02-06-13:27:24.015826,1.0,16.0,384.0
2022-02-06-13:27:24.016802,2.0,13.0,384.0
2022-02-06-13:27:24.017822,2.0,13.0,384.0
2022-02-06-13:27:24.018818,2.0,13.0,384.0
2022-02-06-13:27:24.019816,1.0,6.0,384.0
2022-02-06-13:27:24.020902,9.0,4.0,384.0
2022-02-06-13:27:24.020902,9.0,4.0,384.0
2022-02-06-13:27:24.021952,9.0,4.0,384.0
2022-02-06-13:27:24.022946,9.0,4.0,384.0
2022-02-06-13:27:24.023944,2.0,1.0,384.0
2022-02-06-13:27:24.025226,6.0,1.0,384.0
2022-02-06-13:27:24.026225,7.0,8.0,384.0
2022-02-06-13:27:24.026225,12.0,8.0,384.0
2022-02-06-13:27:24.027375,7.0,1.0,384.0
2022-02-06-13:27:24.027375,7.0,1.0,384.0
2022-02-06-13:27:24.028420,7.0,1.0,384.0
2022-02-06-13:27:24.029418,7.0,1.0,384.0
2022-02-06-13:27:24.030415,7.0,1.0,384.0
2022-02-06-13:27:24.031461,2.0,7.0,383.0
2022-02-06-13:27:24.031461,2.0,17.0,384.0
2022-02-06-13:27:24.032516,1.0,13.0,384.0
2022-02-06-13:27:24.033518,1.0,13.0,384.0
2022-02-06-13:27:24.034455,1.0,13.0,384.0
2022-02-06-13:27:24.035508,0.0,12.0,383.0
2022-02-06-13:27:24.036506,4.0,8.0,384.0
2022-02-06-13:27:24.037622,3.0,4.0,383.0
2022-02-06-13:27:24.037622,3.0,4.0,383.0
2022-02-06-13:27:24.038668,3.0,4.0,383.0
2022-02-06-13:27:24.039667,5.0,1.0,384.0
2022-02-06-13:27:24.040817,7.0,7.0,383.0
2022-02-06-13:27:24.040817,7.0,7.0,383.0
2022-02-06-13:27:24.041872,7.0,7.0,383.0
2022-02-06-13:27:24.042870,7.0,7.0,383.0
2022-02-06-13:27:24.043867,11.0,7.0,384.0
2022-02-06-13:27:24.044869,8.0,0.0,384.0
2022-02-06-13:27:24.045862,4.0,8.0,384.0
2022-02-06-13:27:24.046859,4.0,8.0,384.0
2022-02-06-13:27:24.047849,1.0,13.0,384.0
2022-02-06-13:27:24.048846,3.0,13.0,384.0
2022-02-06-13:27:24.049856,3.0,13.0,384.0
2022-02-06-13:27:24.050793,3.0,13.0,384.0
2022-02-06-13:27:24.051846,4.0,10.0,384.0
2022-02-06-13:27:24.052835,6.0,3.0,384.0
2022-02-06-13:27:24.053833,2.0,3.0,384.0
2022-02-06-13:27:24.054810,2.0,3.0,384.0
2022-02-06-13:27:24.055813,6.0,4.0,383.0
2022-02-06-13:27:24.056831,10.0,7.0,384.0
2022-02-06-13:27:24.057821,10.0,7.0,384.0
2022-02-06-13:27:24.058820,10.0,7.0,384.0
2022-02-06-13:27:24.059817,10.0,9.0,384.0
2022-02-06-13:27:24.060818,3.0,7.0,384.0
2022-02-06-13:27:24.061763,3.0,7.0,384.0
2022-02-06-13:27:24.062808,3.0,7.0,384.0
2022-02-06-13:27:24.064755,5.0,12.0,383.0
2022-02-06-13:27:24.065759,0.0,17.0,384.0
2022-02-06-13:27:24.066751,0.0,17.0,384.0
2022-02-06-13:27:24.067774,0.0,17.0,384.0
2022-02-06-13:27:24.068776,3.0,8.0,384.0
2022-02-06-13:27:24.069768,3.0,8.0,384.0
2022-02-06-13:27:24.070768,1.0,5.0,384.0
2022-02-06-13:27:24.071737,5.0,1.0,384.0
2022-02-06-13:27:24.072760,3.0,2.0,384.0
2022-02-06-13:27:24.073758,10.0,9.0,383.0
2022-02-06-13:27:24.074755,10.0,9.0,383.0
2022-02-06-13:27:24.075726,10.0,9.0,383.0
2022-02-06-13:27:24.076724,10.0,5.0,384.0
2022-02-06-13:27:24.077721,8.0,3.0,384.0
2022-02-06-13:27:24.078718,8.0,3.0,384.0
2022-02-06-13:27:24.079743,8.0,3.0,384.0
2022-02-06-13:27:24.080738,2.0,16.0,384.0
2022-02-06-13:27:24.081758,5.0,14.0,384.0
2022-02-06-13:27:24.082756,5.0,14.0,384.0
2022-02-06-13:27:24.083753,5.0,14.0,384.0
2022-02-06-13:27:24.084754,4.0,7.0,383.0
2022-02-06-13:27:24.085747,2.0,6.0,384.0
2022-02-06-13:27:24.086724,3.0,1.0,384.0
2022-02-06-13:27:24.087694,3.0,1.0,384.0
2022-02-06-13:27:24.088719,3.0,5.0,383.0
2022-02-06-13:27:24.089689,7.0,3.0,384.0
2022-02-06-13:27:24.090687,11.0,1.0,384.0
2022-02-06-13:27:24.091685,11.0,1.0,384.0
2022-02-06-13:27:24.092873,12.0,6.0,383.0
2022-02-06-13:27:24.092873,6.0,3.0,384.0
2022-02-06-13:27:24.093679,6.0,3.0,384.0
2022-02-06-13:27:24.094677,6.0,3.0,384.0
2022-02-06-13:27:24.095704,6.0,3.0,384.0
2022-02-06-13:27:24.096675,4.0,8.0,384.0
2022-02-06-13:27:24.097692,0.0,14.0,383.0
2022-02-06-13:27:24.099665,1.0,17.0,384.0
2022-02-06-13:27:24.100666,2.0,16.0,384.0
2022-02-06-13:27:24.100666,2.0,14.0,384.0
2022-02-06-13:27:24.101658,3.0,4.0,383.0
2022-02-06-13:27:24.102655,7.0,7.0,384.0
2022-02-06-13:27:24.103666,7.0,7.0,384.0
2022-02-06-13:27:24.104649,7.0,7.0,384.0
2022-02-06-13:27:24.105646,5.0,4.0,384.0
2022-02-06-13:27:24.106645,5.0,2.0,384.0
2022-02-06-13:27:24.107671,2.0,2.0,384.0
2022-02-06-13:27:24.108638,2.0,2.0,384.0
2022-02-06-13:27:24.109637,10.0,6.0,384.0
2022-02-06-13:27:24.110634,8.0,7.0,384.0
2022-02-06-13:27:24.111631,12.0,5.0,384.0
2022-02-06-13:27:24.112630,6.0,0.0,384.0
2022-02-06-13:27:24.113626,3.0,21.0,384.0
2022-02-06-13:27:24.114624,3.0,21.0,384.0
2022-02-06-13:27:24.115621,3.0,21.0,384.0
2022-02-06-13:27:24.116617,3.0,21.0,384.0
2022-02-06-13:27:24.117614,1.0,14.0,383.0
2022-02-06-13:27:24.118611,5.0,6.0,384.0
2022-02-06-13:27:24.119609,5.0,6.0,384.0
2022-02-06-13:27:24.120606,5.0,6.0,384.0
2022-02-06-13:27:24.121603,6.0,4.0,384.0
2022-02-06-13:27:24.122601,7.0,3.0,384.0
2022-02-06-13:27:24.123599,7.0,3.0,384.0
2022-02-06-13:27:24.124595,7.0,3.0,384.0
2022-02-06-13:27:24.125593,9.0,4.0,383.0
2022-02-06-13:27:24.126591,9.0,1.0,384.0
2022-02-06-13:27:24.127588,9.0,1.0,384.0
2022-02-06-13:27:24.128585,9.0,1.0,384.0
2022-02-06-13:27:24.129618,8.0,6.0,384.0
2022-02-06-13:27:24.131577,0.0,22.0,384.0
2022-02-06-13:27:24.131577,0.0,22.0,384.0
2022-02-06-13:27:24.132574,0.0,22.0,384.0
2022-02-06-13:27:24.133573,3.0,16.0,384.0
2022-02-06-13:27:24.134608,5.0,7.0,384.0
2022-02-06-13:27:24.135713,5.0,7.0,384.0
2022-02-06-13:27:24.135713,5.0,4.0,384.0
2022-02-06-13:27:24.136914,5.0,4.0,384.0
2022-02-06-13:27:24.136914,3.0,5.0,383.0
2022-02-06-13:27:24.137945,3.0,5.0,383.0
2022-02-06-13:27:24.138944,5.0,3.0,384.0
2022-02-06-13:27:24.139909,5.0,3.0,384.0
2022-02-06-13:27:24.140906,5.0,3.0,384.0
2022-02-06-13:27:24.141943,8.0,4.0,384.0
2022-02-06-13:27:24.142938,10.0,11.0,384.0
2022-02-06-13:27:24.143932,12.0,3.0,384.0
2022-02-06-13:27:24.144930,12.0,3.0,384.0
2022-02-06-13:27:24.145927,4.0,1.0,383.0
2022-02-06-13:27:24.146924,2.0,18.0,384.0
2022-02-06-13:27:24.147921,2.0,18.0,384.0
2022-02-06-13:27:24.148919,2.0,18.0,384.0
2022-02-06-13:27:24.149917,2.0,10.0,383.0
2022-02-06-13:27:24.150916,3.0,4.0,383.0
2022-02-06-13:27:24.151911,3.0,4.0,383.0
2022-02-06-13:27:24.152913,3.0,4.0,383.0
2022-02-06-13:27:24.153905,3.0,4.0,383.0
2022-02-06-13:27:24.154903,2.0,5.0,384.0
2022-02-06-13:27:24.155902,3.0,3.0,384.0
2022-02-06-13:27:24.156863,6.0,0.0,384.0
2022-02-06-13:27:24.157894,6.0,0.0,384.0
2022-02-06-13:27:24.158887,5.0,1.0,384.0
2022-02-06-13:27:24.159881,10.0,10.0,384.0
2022-02-06-13:27:24.160879,9.0,7.0,384.0
2022-02-06-13:27:24.161877,9.0,7.0,384.0
2022-02-06-13:27:24.162875,9.0,1.0,383.0
2022-02-06-13:27:24.163880,9.0,1.0,383.0
2022-02-06-13:27:24.165886,3.0,11.0,384.0
2022-02-06-13:27:24.165886,1.0,20.0,384.0
2022-02-06-13:27:24.166887,1.0,20.0,384.0
2022-02-06-13:27:24.167881,0.0,6.0,383.0
2022-02-06-13:27:24.168863,0.0,8.0,384.0
2022-02-06-13:27:24.169874,0.0,8.0,384.0
2022-02-06-13:27:24.170872,0.0,8.0,384.0
2022-02-06-13:27:24.171869,6.0,7.0,384.0
2022-02-06-13:27:24.172868,7.0,2.0,384.0
2022-02-06-13:27:24.173819,8.0,4.0,384.0
2022-02-06-13:27:24.174845,8.0,6.0,384.0
2022-02-06-13:27:24.175859,11.0,9.0,384.0
2022-02-06-13:27:24.176856,13.0,10.0,384.0
2022-02-06-13:27:24.177807,13.0,10.0,384.0
2022-02-06-13:27:24.178853,6.0,4.0,383.0
2022-02-06-13:27:24.179829,7.0,4.0,384.0
2022-02-06-13:27:24.180826,2.0,16.0,384.0
2022-02-06-13:27:24.181797,2.0,16.0,384.0
2022-02-06-13:27:24.182823,2.0,14.0,384.0
2022-02-06-13:27:24.183818,1.0,12.0,384.0
2022-02-06-13:27:24.184913,2.0,5.0,384.0
2022-02-06-13:27:24.184913,2.0,5.0,384.0
2022-02-06-13:27:24.185941,2.0,5.0,384.0
2022-02-06-13:27:24.186940,1.0,3.0,384.0
2022-02-06-13:27:24.187937,5.0,4.0,384.0
2022-02-06-13:27:24.188932,7.0,0.0,384.0
2022-02-06-13:27:24.189930,7.0,0.0,384.0
2022-02-06-13:27:24.190927,7.0,0.0,384.0
2022-02-06-13:27:24.191922,4.0,2.0,384.0
2022-02-06-13:27:24.192894,13.0,10.0,384.0
2022-02-06-13:27:24.193919,13.0,10.0,384.0
2022-02-06-13:27:24.194536,13.0,10.0,384.0
2022-02-06-13:27:24.194889,8.0,7.0,383.0
2022-02-06-13:27:24.195920,7.0,0.0,383.0
2022-02-06-13:27:24.196908,1.0,12.0,383.0
2022-02-06-13:27:24.197905,1.0,12.0,383.0
2022-02-06-13:27:24.198878,3.0,17.0,383.0
2022-02-06-13:27:24.200919,4.0,13.0,384.0
2022-02-06-13:27:24.200919,2.0,10.0,384.0
2022-02-06-13:27:24.201916,1.0,8.0,384.0
2022-02-06-13:27:24.202915,1.0,8.0,384.0
2022-02-06-13:27:24.203911,2.0,3.0,384.0
2022-02-06-13:27:24.204911,4.0,2.0,384.0
2022-02-06-13:27:24.205906,4.0,2.0,383.0
2022-02-06-13:27:24.206856,4.0,2.0,383.0
2022-02-06-13:27:24.207902,4.0,2.0,383.0
2022-02-06-13:27:24.208898,7.0,2.0,384.0
2022-02-06-13:27:24.209895,10.0,11.0,384.0
2022-02-06-13:27:24.210893,10.0,11.0,384.0
2022-02-06-13:27:24.211890,11.0,5.0,383.0
2022-02-06-13:27:24.212941,6.0,4.0,384.0
2022-02-06-13:27:24.212941,0.0,12.0,384.0
2022-02-06-13:27:24.213999,0.0,12.0,384.0
2022-02-06-13:27:24.214994,0.0,12.0,384.0
2022-02-06-13:27:24.215992,1.0,18.0,384.0
2022-02-06-13:27:24.216989,4.0,8.0,384.0
2022-02-06-13:27:24.217984,4.0,8.0,384.0
2022-02-06-13:27:24.219232,4.0,8.0,384.0
2022-02-06-13:27:24.219232,5.0,6.0,384.0
2022-02-06-13:27:24.220278,9.0,6.0,383.0
2022-02-06-13:27:24.221276,8.0,0.0,383.0
2022-02-06-13:27:24.222272,8.0,0.0,383.0
2022-02-06-13:27:24.223250,8.0,0.0,383.0
2022-02-06-13:27:24.224248,5.0,0.0,384.0
2022-02-06-13:27:24.225268,9.0,10.0,383.0
2022-02-06-13:27:24.226262,9.0,10.0,383.0
2022-02-06-13:27:24.227259,9.0,10.0,383.0
2022-02-06-13:27:24.228256,14.0,8.0,384.0
2022-02-06-13:27:24.229254,5.0,2.0,383.0
2022-02-06-13:27:24.230251,3.0,8.0,384.0
2022-02-06-13:27:24.231248,3.0,8.0,384.0
2022-02-06-13:27:24.232246,0.0,14.0,384.0
2022-02-06-13:27:24.234241,1.0,15.0,384.0
2022-02-06-13:27:24.234241,3.0,9.0,384.0
2022-02-06-13:27:24.235192,3.0,9.0,384.0
2022-02-06-13:27:24.236240,6.0,3.0,383.0
2022-02-06-13:27:24.237233,7.0,4.0,384.0
2022-02-06-13:27:24.238233,5.0,1.0,384.0
2022-02-06-13:27:24.239181,5.0,1.0,384.0
2022-02-06-13:27:24.240179,4.0,1.0,384.0
2022-02-06-13:27:24.241225,7.0,5.0,384.0
2022-02-06-13:27:24.242201,10.0,10.0,384.0
2022-02-06-13:27:24.243197,10.0,10.0,384.0
2022-02-06-13:27:24.244215,10.0,13.0,383.0
2022-02-06-13:27:24.245211,10.0,0.0,384.0
2022-02-06-13:27:24.246211,5.0,6.0,384.0
2022-02-06-13:27:24.247205,5.0,6.0,384.0
2022-02-06-13:27:24.248203,2.0,13.0,384.0
2022-02-06-13:27:24.249204,4.0,16.0,383.0
2022-02-06-13:27:24.250198,1.0,14.0,384.0
2022-02-06-13:27:24.251331,1.0,14.0,384.0
2022-02-06-13:27:24.251331,1.0,14.0,384.0
2022-02-06-13:27:24.252544,1.0,14.0,384.0
2022-02-06-13:27:24.252544,5.0,6.0,384.0
2022-02-06-13:27:24.253589,2.0,2.0,384.0
2022-02-06-13:27:24.254586,5.0,2.0,383.0
2022-02-06-13:27:24.255538,5.0,2.0,383.0
2022-02-06-13:27:24.256562,5.0,1.0,384.0
2022-02-06-13:27:24.257561,7.0,1.0,384.0
2022-02-06-13:27:24.258576,11.0,8.0,383.0
2022-02-06-13:27:24.259583,11.0,8.0,383.0
2022-02-06-13:27:24.260570,9.0,7.0,384.0
2022-02-06-13:27:24.261568,9.0,2.0,383.0
2022-02-06-13:27:24.262566,4.0,14.0,383.0
2022-02-06-13:27:24.263563,4.0,14.0,383.0
2022-02-06-13:27:24.264564,4.0,14.0,383.0
2022-02-06-13:27:24.265557,4.0,18.0,383.0
2022-02-06-13:27:24.267506,0.0,8.0,383.0
2022-02-06-13:27:24.267506,0.0,8.0,383.0
2022-02-06-13:27:24.268531,4.0,3.0,384.0
2022-02-06-13:27:24.269550,4.0,3.0,384.0
2022-02-06-13:27:24.270524,4.0,3.0,384.0
2022-02-06-13:27:24.271543,4.0,3.0,384.0
2022-02-06-13:27:24.272542,4.0,3.0,384.0
2022-02-06-13:27:24.273490,8.0,5.0,383.0
2022-02-06-13:27:24.274535,10.0,5.0,383.0
2022-02-06-13:27:24.275532,8.0,6.0,384.0
2022-02-06-13:27:24.276529,8.0,6.0,384.0
2022-02-06-13:27:24.277534,9.0,9.0,384.0
2022-02-06-13:27:24.278524,7.0,1.0,383.0
2022-02-06-13:27:24.279521,5.0,9.0,384.0
2022-02-06-13:27:24.280521,5.0,9.0,384.0
2022-02-06-13:27:24.281515,3.0,18.0,384.0
2022-02-06-13:27:24.282513,3.0,16.0,384.0
2022-02-06-13:27:24.283514,4.0,11.0,384.0
2022-02-06-13:27:24.284742,4.0,11.0,384.0
2022-02-06-13:27:24.284742,6.0,8.0,384.0
2022-02-06-13:27:24.285788,2.0,7.0,384.0
2022-02-06-13:27:24.286785,3.0,4.0,384.0
2022-02-06-13:27:24.287782,3.0,4.0,384.0
2022-02-06-13:27:24.288782,3.0,4.0,384.0
2022-02-06-13:27:24.289780,7.0,1.0,384.0
2022-02-06-13:27:24.290756,11.0,6.0,384.0
2022-02-06-13:27:24.291751,11.0,6.0,384.0
2022-02-06-13:27:24.292750,11.0,6.0,384.0
2022-02-06-13:27:24.293748,9.0,12.0,384.0
2022-02-06-13:27:24.294744,8.0,2.0,384.0
2022-02-06-13:27:24.295741,4.0,2.0,384.0
2022-02-06-13:27:24.296738,4.0,2.0,384.0
2022-02-06-13:27:24.297736,2.0,10.0,383.0
2022-02-06-13:27:24.298735,4.0,19.0,383.0
2022-02-06-13:27:24.299731,1.0,9.0,384.0
2022-02-06-13:27:24.301699,1.0,9.0,384.0
2022-02-06-13:27:24.301699,7.0,3.0,384.0
2022-02-06-13:27:24.302721,7.0,3.0,384.0
2022-02-06-13:27:24.303757,7.0,3.0,384.0
2022-02-06-13:27:24.303757,7.0,3.0,384.0
2022-02-06-13:27:24.304920,7.0,3.0,384.0
2022-02-06-13:27:24.304920,7.0,2.0,384.0
2022-02-06-13:27:24.305946,9.0,3.0,384.0
2022-02-06-13:27:24.306918,9.0,9.0,384.0
2022-02-06-13:27:24.307941,9.0,9.0,384.0
2022-02-06-13:27:24.308912,9.0,9.0,384.0
2022-02-06-13:27:24.309935,9.0,11.0,384.0
2022-02-06-13:27:24.310933,8.0,0.0,384.0
2022-02-06-13:27:24.311933,9.0,4.0,384.0
2022-02-06-13:27:24.312901,9.0,4.0,384.0
2022-02-06-13:27:24.313926,2.0,10.0,384.0
2022-02-06-13:27:24.314922,6.0,17.0,384.0
2022-02-06-13:27:24.315930,2.0,14.0,383.0
2022-02-06-13:27:24.316917,2.0,14.0,383.0
2022-02-06-13:27:24.317914,0.0,10.0,383.0
2022-02-06-13:27:24.318912,5.0,3.0,384.0
2022-02-06-13:27:24.319911,7.0,3.0,384.0
2022-02-06-13:27:24.320906,7.0,3.0,384.0
2022-02-06-13:27:24.321907,7.0,3.0,384.0
2022-02-06-13:27:24.322900,9.0,2.0,384.0
2022-02-06-13:27:24.323952,6.0,6.0,384.0
2022-02-06-13:27:24.323952,6.0,6.0,384.0
2022-02-06-13:27:24.324979,6.0,6.0,384.0
2022-02-06-13:27:24.325975,6.0,6.0,384.0
2022-02-06-13:27:24.327150,11.0,7.0,384.0
2022-02-06-13:27:24.327150,12.0,9.0,384.0
2022-02-06-13:27:24.328277,6.0,1.0,384.0
2022-02-06-13:27:24.328277,6.0,1.0,384.0
2022-02-06-13:27:24.329307,6.0,1.0,384.0
2022-02-06-13:27:24.330298,4.0,9.0,384.0
2022-02-06-13:27:24.331297,3.0,18.0,384.0
2022-02-06-13:27:24.332293,1.0,20.0,384.0
2022-02-06-13:27:24.333265,1.0,20.0,384.0
2022-02-06-13:27:24.335308,1.0,20.0,384.0
2022-02-06-13:27:24.335308,3.0,4.0,384.0
2022-02-06-13:27:24.336310,3.0,4.0,384.0
2022-02-06-13:27:24.337305,3.0,4.0,384.0
2022-02-06-13:27:24.338301,3.0,4.0,384.0
2022-02-06-13:27:24.339299,1.0,6.0,383.0
2022-02-06-13:27:24.340283,7.0,4.0,384.0
2022-02-06-13:27:24.340283,8.0,2.0,384.0
2022-02-06-13:27:24.341339,8.0,2.0,384.0
2022-02-06-13:27:24.342336,8.0,2.0,384.0
2022-02-06-13:27:24.343334,10.0,6.0,384.0
2022-02-06-13:27:24.344331,8.0,0.0,384.0
2022-02-06-13:27:24.345328,8.0,0.0,384.0
2022-02-06-13:27:24.346326,8.0,0.0,384.0
2022-02-06-13:27:24.347323,4.0,5.0,384.0
2022-02-06-13:27:24.348321,2.0,14.0,383.0
2022-02-06-13:27:24.349299,5.0,16.0,384.0
2022-02-06-13:27:24.350293,5.0,16.0,384.0
2022-02-06-13:27:24.351313,2.0,7.0,384.0
2022-02-06-13:27:24.352310,2.0,7.0,384.0
2022-02-06-13:27:24.353307,2.0,7.0,384.0
2022-02-06-13:27:24.354306,2.0,7.0,384.0
2022-02-06-13:27:24.355302,6.0,4.0,384.0
2022-02-06-13:27:24.356300,8.0,3.0,384.0
2022-02-06-13:27:24.357296,7.0,4.0,384.0
2022-02-06-13:27:24.358299,7.0,4.0,384.0
2022-02-06-13:27:24.359292,10.0,11.0,383.0
2022-02-06-13:27:24.360289,9.0,8.0,384.0
2022-02-06-13:27:24.361286,9.0,1.0,383.0
2022-02-06-13:27:24.362283,9.0,1.0,383.0
2022-02-06-13:27:24.363281,8.0,1.0,383.0
2022-02-06-13:27:24.364279,7.0,21.0,383.0
2022-02-06-13:27:24.365275,7.0,21.0,383.0
2022-02-06-13:27:24.366277,7.0,21.0,383.0
2022-02-06-13:27:24.368267,4.0,7.0,384.0
2022-02-06-13:27:24.368267,4.0,5.0,384.0
2022-02-06-13:27:24.369264,4.0,5.0,384.0
2022-02-06-13:27:24.370234,4.0,5.0,384.0
2022-02-06-13:27:24.371259,3.0,6.0,384.0
2022-02-06-13:27:24.372258,5.0,7.0,383.0
2022-02-06-13:27:24.373254,8.0,1.0,383.0
2022-02-06-13:27:24.374256,8.0,1.0,383.0
2022-02-06-13:27:24.375249,10.0,8.0,383.0
2022-02-06-13:27:24.376246,10.0,11.0,384.0
2022-02-06-13:27:24.377244,11.0,6.0,384.0
2022-02-06-13:27:24.378241,11.0,6.0,384.0
2022-02-06-13:27:24.379237,7.0,1.0,383.0
2022-02-06-13:27:24.380236,1.0,18.0,384.0
2022-02-06-13:27:24.381232,1.0,18.0,384.0
2022-02-06-13:27:24.382232,1.0,18.0,384.0
2022-02-06-13:27:24.383228,1.0,18.0,384.0
2022-02-06-13:27:24.384224,1.0,10.0,384.0
2022-02-06-13:27:24.385199,0.0,6.0,384.0
2022-02-06-13:27:24.386219,0.0,6.0,384.0
2022-02-06-13:27:24.387217,0.0,6.0,384.0
2022-02-06-13:27:24.388215,4.0,7.0,384.0
2022-02-06-13:27:24.389211,4.0,1.0,384.0
2022-02-06-13:27:24.390186,6.0,2.0,384.0
2022-02-06-13:27:24.391206,6.0,2.0,384.0
2022-02-06-13:27:24.392203,5.0,2.0,383.0
2022-02-06-13:27:24.393200,11.0,5.0,384.0
2022-02-06-13:27:24.394198,11.0,5.0,384.0
2022-02-06-13:27:24.395194,11.0,5.0,384.0
2022-02-06-13:27:24.396193,9.0,2.0,384.0
2022-02-06-13:27:24.397189,4.0,15.0,383.0
2022-02-06-13:27:24.398187,0.0,19.0,384.0
2022-02-06-13:27:24.399185,0.0,19.0,384.0
2022-02-06-13:27:24.400187,1.0,19.0,383.0
2022-02-06-13:27:24.401185,1.0,19.0,383.0
2022-02-06-13:27:24.403166,1.0,10.0,383.0
2022-02-06-13:27:24.403166,6.0,2.0,383.0
2022-02-06-13:27:24.404270,7.0,1.0,384.0
2022-02-06-13:27:24.404270,7.0,1.0,384.0
2022-02-06-13:27:24.405321,7.0,1.0,384.0
2022-02-06-13:27:24.406314,7.0,1.0,384.0
2022-02-06-13:27:24.407313,7.0,1.0,384.0
2022-02-06-13:27:24.408532,4.0,1.0,384.0
2022-02-06-13:27:24.408532,12.0,10.0,383.0
2022-02-06-13:27:24.409692,12.0,10.0,383.0
2022-02-06-13:27:24.409692,12.0,10.0,383.0
2022-02-06-13:27:24.410742,12.0,10.0,383.0
2022-02-06-13:27:24.411735,12.0,10.0,383.0
2022-02-06-13:27:24.412732,10.0,2.0,384.0
2022-02-06-13:27:24.413683,5.0,14.0,383.0
2022-02-06-13:27:24.414707,5.0,14.0,383.0
2022-02-06-13:27:24.415727,5.0,14.0,383.0
2022-02-06-13:27:24.416723,4.0,21.0,384.0
2022-02-06-13:27:24.417733,4.0,21.0,384.0
2022-02-06-13:27:24.417733,2.0,5.0,384.0
2022-02-06-13:27:24.419016,2.0,5.0,384.0
2022-02-06-13:27:24.419016,2.0,5.0,384.0
2022-02-06-13:27:24.420238,2.0,5.0,384.0
2022-02-06-13:27:24.420238,3.0,2.0,383.0
2022-02-06-13:27:24.421270,3.0,2.0,383.0
2022-02-06-13:27:24.422407,5.0,4.0,384.0
2022-02-06-13:27:24.422407,5.0,4.0,384.0
2022-02-06-13:27:24.423462,5.0,4.0,384.0
2022-02-06-13:27:24.424671,7.0,3.0,384.0
2022-02-06-13:27:24.424813,10.0,7.0,384.0
2022-02-06-13:27:24.424813,10.0,7.0,384.0
2022-02-06-13:27:24.425859,10.0,7.0,384.0
2022-02-06-13:27:24.426856,10.0,7.0,384.0
2022-02-06-13:27:24.427854,10.0,7.0,384.0
2022-02-06-13:27:24.429156,10.0,1.0,384.0
2022-02-06-13:27:24.429156,2.0,8.0,384.0
2022-02-06-13:27:24.430188,0.0,18.0,384.0
2022-02-06-13:27:24.431187,0.0,18.0,384.0
2022-02-06-13:27:24.432183,0.0,18.0,384.0
2022-02-06-13:27:24.434184,0.0,21.0,384.0
2022-02-06-13:27:24.434184,1.0,10.0,383.0
2022-02-06-13:27:24.435142,1.0,10.0,383.0
2022-02-06-13:27:24.436178,1.0,10.0,383.0
2022-02-06-13:27:24.437162,3.0,3.0,384.0
2022-02-06-13:27:24.438164,5.0,7.0,383.0
2022-02-06-13:27:24.439158,5.0,4.0,383.0
2022-02-06-13:27:24.440130,5.0,4.0,383.0
2022-02-06-13:27:24.441152,5.0,4.0,383.0
2022-02-06-13:27:24.442151,8.0,4.0,383.0
2022-02-06-13:27:24.443146,11.0,7.0,383.0
2022-02-06-13:27:24.444118,13.0,12.0,384.0
2022-02-06-13:27:24.445141,7.0,0.0,384.0
2022-02-06-13:27:24.446161,0.0,17.0,384.0
2022-02-06-13:27:24.447158,0.0,17.0,384.0
2022-02-06-13:27:24.448108,0.0,17.0,384.0
2022-02-06-13:27:24.449160,2.0,18.0,384.0
2022-02-06-13:27:24.450152,4.0,15.0,384.0
2022-02-06-13:27:24.451148,2.0,8.0,383.0
2022-02-06-13:27:24.452134,2.0,8.0,383.0
2022-02-06-13:27:24.453142,2.0,4.0,384.0
2022-02-06-13:27:24.454140,5.0,0.0,383.0
2022-02-06-13:27:24.455136,5.0,0.0,383.0
2022-02-06-13:27:24.456137,5.0,0.0,383.0
2022-02-06-13:27:24.457084,5.0,0.0,383.0
2022-02-06-13:27:24.458131,3.0,1.0,384.0
2022-02-06-13:27:24.459125,9.0,11.0,384.0
2022-02-06-13:27:24.460123,9.0,11.0,384.0
2022-02-06-13:27:24.461120,6.0,1.0,384.0
2022-02-06-13:27:24.462118,5.0,9.0,384.0
2022-02-06-13:27:24.463113,5.0,9.0,384.0
2022-02-06-13:27:24.464110,5.0,9.0,384.0
2022-02-06-13:27:24.465108,5.0,9.0,384.0
2022-02-06-13:27:24.466108,2.0,17.0,384.0
2022-02-06-13:27:24.467103,1.0,10.0,383.0
2022-02-06-13:27:24.469051,1.0,10.0,383.0
2022-02-06-13:27:24.469051,7.0,2.0,383.0
2022-02-06-13:27:24.470073,7.0,2.0,383.0
2022-02-06-13:27:24.471184,6.0,4.0,384.0
2022-02-06-13:27:24.471184,6.0,4.0,384.0
2022-02-06-13:27:24.472207,6.0,4.0,384.0
2022-02-06-13:27:24.473371,6.0,4.0,384.0
2022-02-06-13:27:24.473371,2.0,1.0,383.0
2022-02-06-13:27:24.474404,2.0,1.0,383.0
2022-02-06-13:27:24.475400,6.0,7.0,384.0
2022-02-06-13:27:24.476398,6.0,7.0,384.0
2022-02-06-13:27:24.477396,6.0,7.0,384.0
2022-02-06-13:27:24.478392,9.0,2.0,384.0
2022-02-06-13:27:24.479356,6.0,4.0,383.0
2022-02-06-13:27:24.480353,6.0,4.0,383.0
2022-02-06-13:27:24.481383,6.0,4.0,383.0
2022-02-06-13:27:24.482390,2.0,17.0,384.0
2022-02-06-13:27:24.483378,3.0,15.0,384.0
2022-02-06-13:27:24.484376,4.0,11.0,383.0
2022-02-06-13:27:24.485374,4.0,11.0,383.0
2022-02-06-13:27:24.486362,4.0,6.0,384.0
2022-02-06-13:27:24.487359,4.0,0.0,383.0
2022-02-06-13:27:24.488357,5.0,1.0,384.0
2022-02-06-13:27:24.489354,5.0,1.0,384.0
2022-02-06-13:27:24.490359,10.0,1.0,384.0
2022-02-06-13:27:24.491429,8.0,1.0,383.0
2022-02-06-13:27:24.491429,11.0,11.0,383.0
2022-02-06-13:27:24.492484,11.0,12.0,383.0
2022-02-06-13:27:24.493482,11.0,12.0,383.0
2022-02-06-13:27:24.494479,9.0,8.0,384.0
2022-02-06-13:27:24.495478,6.0,3.0,384.0
2022-02-06-13:27:24.496474,1.0,11.0,384.0
2022-02-06-13:27:24.497477,1.0,11.0,384.0
2022-02-06-13:27:24.498470,0.0,17.0,384.0
2022-02-06-13:27:24.499465,2.0,11.0,384.0
2022-02-06-13:27:24.500463,0.0,10.0,383.0
2022-02-06-13:27:24.501405,0.0,10.0,383.0
2022-02-06-13:27:24.503399,5.0,0.0,383.0
2022-02-06-13:27:24.503399,5.0,0.0,383.0
2022-02-06-13:27:24.504396,5.0,0.0,383.0
2022-02-06-13:27:24.505395,5.0,0.0,383.0
2022-02-06-13:27:24.506423,5.0,0.0,383.0
2022-02-06-13:27:24.507422,12.0,7.0,384.0
2022-02-06-13:27:24.508423,9.0,9.0,384.0
2022-02-06-13:27:24.509417,9.0,9.0,384.0
2022-02-06-13:27:24.510416,10.0,5.0,383.0
2022-02-06-13:27:24.511411,5.0,7.0,384.0
2022-02-06-13:27:24.512408,0.0,10.0,384.0
2022-02-06-13:27:24.513406,0.0,10.0,384.0
2022-02-06-13:27:24.514407,0.0,10.0,384.0
2022-02-06-13:27:24.515420,0.0,16.0,384.0
2022-02-06-13:27:24.516365,0.0,11.0,384.0
2022-02-06-13:27:24.517395,0.0,11.0,384.0
2022-02-06-13:27:24.518394,0.0,11.0,384.0
2022-02-06-13:27:24.519526,6.0,1.0,384.0
2022-02-06-13:27:24.519526,6.0,1.0,384.0
2022-02-06-13:27:24.520580,6.0,1.0,384.0
2022-02-06-13:27:24.521578,6.0,1.0,384.0
2022-02-06-13:27:24.522578,6.0,1.0,384.0
2022-02-06-13:27:24.523573,6.0,3.0,384.0
2022-02-06-13:27:24.524549,13.0,8.0,383.0
2022-02-06-13:27:24.525566,13.0,8.0,383.0
2022-02-06-13:27:24.526564,13.0,8.0,383.0
2022-02-06-13:27:24.527568,10.0,12.0,384.0
2022-02-06-13:27:24.528560,6.0,0.0,384.0
2022-02-06-13:27:24.529558,5.0,7.0,384.0
2022-02-06-13:27:24.530556,5.0,7.0,384.0
2022-02-06-13:27:24.531552,1.0,16.0,384.0
2022-02-06-13:27:24.532551,1.0,15.0,384.0
2022-02-06-13:27:24.533546,0.0,11.0,384.0
2022-02-06-13:27:24.534544,0.0,11.0,384.0
2022-02-06-13:27:24.535510,1.0,4.0,384.0
2022-02-06-13:27:24.537527,2.0,5.0,384.0
2022-02-06-13:27:24.537527,3.0,4.0,384.0
2022-02-06-13:27:24.538526,3.0,4.0,384.0
2022-02-06-13:27:24.539522,3.0,4.0,384.0
2022-02-06-13:27:24.540520,5.0,1.0,384.0
2022-02-06-13:27:24.541517,10.0,7.0,384.0
2022-02-06-13:27:24.542514,10.0,7.0,384.0
2022-02-06-13:27:24.543513,12.0,8.0,384.0
2022-02-06-13:27:24.544509,8.0,0.0,384.0
2022-02-06-13:27:24.545507,6.0,5.0,384.0
2022-02-06-13:27:24.546505,6.0,5.0,384.0
2022-02-06-13:27:24.547501,1.0,12.0,384.0
2022-02-06-13:27:24.548499,3.0,17.0,384.0
2022-02-06-13:27:24.549497,0.0,13.0,384.0
2022-02-06-13:27:24.550497,0.0,13.0,384.0
2022-02-06-13:27:24.551491,0.0,5.0,384.0
2022-02-06-13:27:24.552486,0.0,5.0,384.0
2022-02-06-13:27:24.553463,1.0,5.0,384.0
2022-02-06-13:27:24.554484,7.0,0.0,383.0
2022-02-06-13:27:24.555479,7.0,0.0,383.0
2022-02-06-13:27:24.556478,6.0,0.0,384.0
2022-02-06-13:27:24.557475,5.0,0.0,383.0
2022-02-06-13:27:24.558470,11.0,4.0,384.0
2022-02-06-13:27:24.559471,11.0,4.0,384.0
2022-02-06-13:27:24.560470,10.0,8.0,384.0
2022-02-06-13:27:24.561463,7.0,5.0,384.0
2022-02-06-13:27:24.562462,7.0,5.0,384.0
2022-02-06-13:27:24.563462,7.0,5.0,384.0
2022-02-06-13:27:24.564455,0.0,13.0,384.0
2022-02-06-13:27:24.565453,0.0,19.0,384.0
2022-02-06-13:27:24.566449,0.0,14.0,384.0
2022-02-06-13:27:24.567449,0.0,14.0,384.0
2022-02-06-13:27:24.568444,1.0,10.0,384.0
2022-02-06-13:27:24.569421,1.0,10.0,384.0
2022-02-06-13:27:24.571437,3.0,9.0,383.0
2022-02-06-13:27:24.571437,9.0,1.0,383.0
2022-02-06-13:27:24.572434,8.0,4.0,383.0
2022-02-06-13:27:24.573430,8.0,4.0,383.0
2022-02-06-13:27:24.574428,8.0,4.0,383.0
2022-02-06-13:27:24.575428,8.0,4.0,383.0
2022-02-06-13:27:24.576422,8.0,4.0,383.0
2022-02-06-13:27:24.577421,10.0,9.0,384.0
2022-02-06-13:27:24.578526,4.0,1.0,384.0
2022-02-06-13:27:24.578526,4.0,1.0,384.0
2022-02-06-13:27:24.579740,4.0,1.0,384.0
2022-02-06-13:27:24.579740,1.0,10.0,383.0
2022-02-06-13:27:24.580773,3.0,20.0,384.0
2022-02-06-13:27:24.581769,2.0,17.0,384.0
2022-02-06-13:27:24.582768,2.0,17.0,384.0
2022-02-06-13:27:24.583764,2.0,17.0,384.0
2022-02-06-13:27:24.584762,4.0,9.0,384.0
2022-02-06-13:27:24.585758,7.0,4.0,383.0
2022-02-06-13:27:24.586755,7.0,4.0,383.0
2022-02-06-13:27:24.587753,7.0,4.0,383.0
2022-02-06-13:27:24.588853,3.0,3.0,384.0
2022-02-06-13:27:24.588853,3.0,3.0,384.0
2022-02-06-13:27:24.589885,3.0,3.0,384.0
2022-02-06-13:27:24.590965,3.0,3.0,384.0
2022-02-06-13:27:24.591192,3.0,3.0,384.0
2022-02-06-13:27:24.591192,3.0,3.0,384.0
2022-02-06-13:27:24.592430,3.0,3.0,384.0
2022-02-06-13:27:24.592430,10.0,10.0,383.0
2022-02-06-13:27:24.593484,9.0,6.0,384.0
2022-02-06-13:27:24.594485,6.0,2.0,384.0
2022-02-06-13:27:24.595528,6.0,2.0,384.0
2022-02-06-13:27:24.595528,3.0,4.0,384.0
2022-02-06-13:27:24.596553,3.0,19.0,384.0
2022-02-06-13:27:24.597549,3.0,17.0,383.0
2022-02-06-13:27:24.598546,3.0,17.0,383.0
2022-02-06-13:27:24.599547,3.0,17.0,383.0
2022-02-06-13:27:24.600516,4.0,8.0,384.0
2022-02-06-13:27:24.601514,4.0,8.0,384.0
2022-02-06-13:27:24.602511,4.0,8.0,384.0
2022-02-06-13:27:24.603534,4.0,8.0,384.0
2022-02-06-13:27:24.604761,7.0,2.0,383.0
2022-02-06-13:27:24.605761,1.0,0.0,384.0
2022-02-06-13:27:24.605761,9.0,3.0,384.0
2022-02-06-13:27:24.606790,9.0,3.0,384.0
2022-02-06-13:27:24.607793,9.0,3.0,384.0
2022-02-06-13:27:24.608786,8.0,9.0,384.0
2022-02-06-13:27:24.609787,10.0,10.0,383.0
2022-02-06-13:27:24.610779,12.0,3.0,383.0
2022-02-06-13:27:24.611777,12.0,3.0,383.0
2022-02-06-13:27:24.612776,12.0,3.0,383.0
2022-02-06-13:27:24.613772,2.0,10.0,384.0
2022-02-06-13:27:24.614769,1.0,20.0,383.0
2022-02-06-13:27:24.615769,1.0,20.0,383.0
2022-02-06-13:27:24.616764,1.0,20.0,383.0
2022-02-06-13:27:24.617755,3.0,15.0,383.0
2022-02-06-13:27:24.618751,1.0,10.0,384.0
2022-02-06-13:27:24.619749,1.0,3.0,383.0
2022-02-06-13:27:24.620747,1.0,3.0,383.0
2022-02-06-13:27:24.621743,8.0,0.0,384.0
2022-02-06-13:27:24.622740,8.0,0.0,384.0
2022-02-06-13:27:24.623714,8.0,0.0,384.0
2022-02-06-13:27:24.624736,8.0,0.0,384.0
2022-02-06-13:27:24.625735,4.0,5.0,384.0
2022-02-06-13:27:24.626731,9.0,10.0,384.0
2022-02-06-13:27:24.627728,8.0,6.0,384.0
2022-02-06-13:27:24.628726,8.0,6.0,384.0
2022-02-06-13:27:24.629723,6.0,3.0,383.0
2022-02-06-13:27:24.630720,4.0,17.0,384.0
2022-02-06-13:27:24.631693,4.0,17.0,384.0
2022-02-06-13:27:24.632716,4.0,17.0,384.0
2022-02-06-13:27:24.633713,3.0,14.0,384.0
2022-02-06-13:27:24.634710,6.0,5.0,384.0
2022-02-06-13:27:24.635707,6.0,5.0,384.0
2022-02-06-13:27:24.636705,6.0,5.0,384.0
2022-02-06-13:27:24.638721,5.0,4.0,384.0
2022-02-06-13:27:24.639214,5.0,4.0,384.0
2022-02-06-13:27:24.639214,5.0,4.0,384.0
2022-02-06-13:27:24.640241,5.0,4.0,384.0
2022-02-06-13:27:24.641403,5.0,4.0,384.0
2022-02-06-13:27:24.641403,6.0,0.0,384.0
2022-02-06-13:27:24.642451,12.0,12.0,384.0
2022-02-06-13:27:24.643448,8.0,6.0,384.0
2022-02-06-13:27:24.644444,8.0,6.0,384.0
2022-02-06-13:27:24.645444,8.0,6.0,384.0
2022-02-06-13:27:24.646439,1.0,11.0,384.0
2022-02-06-13:27:24.647438,0.0,17.0,384.0
2022-02-06-13:27:24.648436,0.0,17.0,384.0
2022-02-06-13:27:24.649432,0.0,17.0,384.0
2022-02-06-13:27:24.650429,4.0,19.0,384.0
2022-02-06-13:27:24.651426,4.0,13.0,384.0
2022-02-06-13:27:24.652424,4.0,4.0,384.0
2022-02-06-13:27:24.653423,4.0,4.0,384.0
2022-02-06-13:27:24.654395,8.0,6.0,384.0
2022-02-06-13:27:24.655415,7.0,1.0,383.0
2022-02-06-13:27:24.656414,7.0,1.0,383.0
2022-02-06-13:27:24.657363,7.0,1.0,383.0
2022-02-06-13:27:24.658408,7.0,1.0,384.0
2022-02-06-13:27:24.659405,8.0,11.0,384.0
2022-02-06-13:27:24.660402,8.0,7.0,383.0
2022-02-06-13:27:24.661402,8.0,7.0,383.0
2022-02-06-13:27:24.662375,7.0,2.0,384.0
2022-02-06-13:27:24.663485,2.0,14.0,384.0
2022-02-06-13:27:24.663485,2.0,14.0,384.0
2022-02-06-13:27:24.664533,2.0,14.0,384.0
2022-02-06-13:27:24.665688,2.0,14.0,384.0
2022-02-06-13:27:24.665688,3.0,16.0,384.0
2022-02-06-13:27:24.666740,3.0,12.0,384.0
2022-02-06-13:27:24.667732,6.0,9.0,383.0
2022-02-06-13:27:24.668733,6.0,9.0,383.0
2022-02-06-13:27:24.670677,6.0,9.0,383.0
2022-02-06-13:27:24.670677,7.0,1.0,384.0
2022-02-06-13:27:24.671721,7.0,1.0,384.0
2022-02-06-13:27:24.672718,7.0,1.0,384.0
2022-02-06-13:27:24.673670,7.0,1.0,384.0
2022-02-06-13:27:24.674714,4.0,2.0,384.0
2022-02-06-13:27:24.675711,9.0,6.0,384.0
2022-02-06-13:27:24.676712,10.0,9.0,384.0
2022-02-06-13:27:24.677706,10.0,9.0,384.0
2022-02-06-13:27:24.678703,10.0,9.0,384.0
2022-02-06-13:27:24.679701,7.0,4.0,384.0
2022-02-06-13:27:24.680698,6.0,8.0,384.0
2022-02-06-13:27:24.681648,1.0,13.0,384.0
2022-02-06-13:27:24.682697,0.0,19.0,384.0
2022-02-06-13:27:24.683777,5.0,7.0,383.0
2022-02-06-13:27:24.683777,5.0,7.0,383.0
2022-02-06-13:27:24.684834,5.0,7.0,383.0
2022-02-06-13:27:24.685829,5.0,7.0,383.0
2022-02-06-13:27:24.686805,4.0,3.0,384.0
2022-02-06-13:27:24.687825,7.0,2.0,383.0
2022-02-06-13:27:24.688821,7.0,2.0,383.0
2022-02-06-13:27:24.689790,7.0,2.0,383.0
2022-02-06-13:27:24.690817,7.0,3.0,384.0
2022-02-06-13:27:24.691813,11.0,6.0,384.0
2022-02-06-13:27:24.692817,12.0,12.0,384.0
2022-02-06-13:27:24.693794,12.0,12.0,384.0
2022-02-06-13:27:24.694806,9.0,4.0,383.0
2022-02-06-13:27:24.695804,8.0,7.0,383.0
2022-02-06-13:27:24.696839,6.0,9.0,384.0
2022-02-06-13:27:24.696839,6.0,9.0,384.0
2022-02-06-13:27:24.698081,6.0,9.0,384.0
2022-02-06-13:27:24.698081,1.0,19.0,384.0
2022-02-06-13:27:24.699136,0.0,7.0,383.0
2022-02-06-13:27:24.700133,0.0,7.0,383.0
2022-02-06-13:27:24.701132,0.0,7.0,383.0
2022-02-06-13:27:24.702073,0.0,7.0,383.0
2022-02-06-13:27:24.703126,6.0,4.0,384.0
2022-02-06-13:27:24.704101,4.0,1.0,383.0
2022-02-06-13:27:24.706061,8.0,4.0,384.0
2022-02-06-13:27:24.706061,13.0,8.0,384.0
2022-02-06-13:27:24.707060,13.0,8.0,384.0
2022-02-06-13:27:24.708095,13.0,8.0,384.0
2022-02-06-13:27:24.709088,13.0,8.0,384.0
2022-02-06-13:27:24.710083,13.0,8.0,384.0
2022-02-06-13:27:24.711081,9.0,3.0,383.0
2022-02-06-13:27:24.712182,0.0,17.0,384.0
2022-02-06-13:27:24.712182,0.0,17.0,384.0
2022-02-06-13:27:24.713234,0.0,17.0,384.0
2022-02-06-13:27:24.714229,0.0,17.0,384.0
2022-02-06-13:27:24.715486,2.0,20.0,384.0
2022-02-06-13:27:24.715486,0.0,10.0,384.0
2022-02-06-13:27:24.716518,0.0,10.0,384.0
2022-02-06-13:27:24.717518,2.0,6.0,383.0
2022-02-06-13:27:24.718481,2.0,6.0,383.0
2022-02-06-13:27:24.719510,5.0,3.0,383.0
2022-02-06-13:27:24.720510,7.0,4.0,383.0
2022-02-06-13:27:24.721505,7.0,4.0,383.0
2022-02-06-13:27:24.722493,7.0,4.0,383.0
2022-02-06-13:27:24.723502,9.0,3.0,384.0
2022-02-06-13:27:24.724501,8.0,12.0,384.0
2022-02-06-13:27:24.725496,8.0,12.0,384.0
2022-02-06-13:27:24.726493,8.0,12.0,384.0
2022-02-06-13:27:24.727491,8.0,12.0,384.0
2022-02-06-13:27:24.728488,10.0,1.0,384.0
2022-02-06-13:27:24.729586,0.0,15.0,384.0
2022-02-06-13:27:24.729586,0.0,15.0,384.0
2022-02-06-13:27:24.730612,0.0,15.0,384.0
2022-02-06-13:27:24.731661,0.0,15.0,384.0
2022-02-06-13:27:24.731661,0.0,15.0,383.0
2022-02-06-13:27:24.732796,0.0,9.0,383.0
2022-02-06-13:27:24.732796,0.0,9.0,383.0
2022-02-06-13:27:24.733822,0.0,9.0,383.0
2022-02-06-13:27:24.734818,0.0,9.0,383.0
2022-02-06-13:27:24.735817,2.0,7.0,383.0
2022-02-06-13:27:24.736814,7.0,1.0,384.0
2022-02-06-13:27:24.737811,7.0,1.0,384.0
2022-02-06-13:27:24.739805,7.0,1.0,384.0
2022-02-06-13:27:24.739805,11.0,9.0,383.0
2022-02-06-13:27:24.740866,11.0,9.0,383.0
2022-02-06-13:27:24.740866,11.0,9.0,383.0
2022-02-06-13:27:24.741891,11.0,9.0,383.0
2022-02-06-13:27:24.742890,11.0,9.0,383.0
2022-02-06-13:27:24.743890,11.0,9.0,383.0
2022-02-06-13:27:24.744857,4.0,12.0,384.0
2022-02-06-13:27:24.745902,4.0,12.0,384.0
2022-02-06-13:27:24.746899,4.0,12.0,384.0
2022-02-06-13:27:24.747897,4.0,12.0,384.0
2022-02-06-13:27:24.748847,2.0,18.0,384.0
2022-02-06-13:27:24.749945,1.0,11.0,383.0
2022-02-06-13:27:24.749945,3.0,9.0,383.0
2022-02-06-13:27:24.750980,3.0,9.0,383.0
2022-02-06-13:27:24.751976,3.0,9.0,383.0
2022-02-06-13:27:24.752973,5.0,4.0,384.0
2022-02-06-13:27:24.753971,5.0,3.0,384.0
2022-02-06-13:27:24.755121,5.0,3.0,384.0
2022-02-06-13:27:24.755392,5.0,3.0,384.0
2022-02-06-13:27:24.755392,7.0,0.0,384.0
2022-02-06-13:27:24.756424,7.0,0.0,384.0
2022-02-06-13:27:24.757389,11.0,8.0,383.0
2022-02-06-13:27:24.758442,11.0,8.0,383.0
2022-02-06-13:27:24.759384,11.0,8.0,383.0
2022-02-06-13:27:24.760439,8.0,7.0,383.0
2022-02-06-13:27:24.761434,3.0,8.0,384.0
2022-02-06-13:27:24.762432,3.0,8.0,384.0
2022-02-06-13:27:24.763447,3.0,8.0,384.0
2022-02-06-13:27:24.764425,4.0,16.0,384.0
2022-02-06-13:27:24.765520,1.0,14.0,384.0
2022-02-06-13:27:24.765520,1.0,14.0,384.0
2022-02-06-13:27:24.766567,1.0,14.0,384.0
2022-02-06-13:27:24.767790,1.0,14.0,384.0
2022-02-06-13:27:24.767790,4.0,6.0,384.0
2022-02-06-13:27:24.768849,6.0,2.0,384.0
2022-02-06-13:27:24.769843,6.0,2.0,384.0
2022-02-06-13:27:24.770843,6.0,2.0,384.0
2022-02-06-13:27:24.771782,6.0,2.0,384.0
2022-02-06-13:27:24.772813,9.0,1.0,384.0
2022-02-06-13:27:24.774829,8.0,3.0,384.0
2022-02-06-13:27:24.774829,12.0,10.0,383.0
2022-02-06-13:27:24.775772,12.0,10.0,383.0
2022-02-06-13:27:24.776815,6.0,11.0,383.0
2022-02-06-13:27:24.777812,8.0,1.0,384.0
2022-02-06-13:27:24.778812,7.0,7.0,384.0
2022-02-06-13:27:24.779807,7.0,7.0,384.0
2022-02-06-13:27:24.780805,1.0,18.0,384.0
2022-02-06-13:27:24.781803,5.0,17.0,384.0
2022-02-06-13:27:24.782806,1.0,15.0,384.0
2022-02-06-13:27:24.783798,1.0,15.0,384.0
2022-02-06-13:27:24.784799,1.0,15.0,384.0
2022-02-06-13:27:24.785792,2.0,6.0,383.0
2022-02-06-13:27:24.786792,3.0,5.0,384.0
2022-02-06-13:27:24.787764,3.0,2.0,384.0
2022-02-06-13:27:24.788783,3.0,2.0,384.0
2022-02-06-13:27:24.789781,7.0,1.0,383.0
2022-02-06-13:27:24.790731,9.0,6.0,384.0
2022-02-06-13:27:24.791776,9.0,6.0,384.0
2022-02-06-13:27:24.792777,9.0,6.0,384.0
2022-02-06-13:27:24.793774,8.0,10.0,384.0
2022-02-06-13:27:24.794771,7.0,1.0,384.0
2022-02-06-13:27:24.795765,6.0,4.0,384.0
2022-02-06-13:27:24.796763,6.0,4.0,384.0
2022-02-06-13:27:24.797760,6.0,4.0,384.0
2022-02-06-13:27:24.798761,0.0,11.0,384.0
