2022-02-08-11:09:43.517365,1.0,7.0,350.0
2022-02-08-11:09:43.518329,1.0,5.0,350.0
2022-02-08-11:09:43.519327,2.0,6.0,350.0
2022-02-08-11:09:43.519327,2.0,1.0,350.0
2022-02-08-11:09:43.520355,6.0,2.0,350.0
2022-02-08-11:09:43.521348,9.0,3.0,350.0
2022-02-08-11:09:43.522344,8.0,7.0,350.0
2022-02-08-11:09:43.526315,8.0,7.0,350.0
2022-02-08-11:09:43.527315,2.0,4.0,350.0
2022-02-08-11:09:43.529304,0.0,3.0,350.0
2022-02-08-11:09:43.529304,6.0,1.0,350.0
2022-02-08-11:09:43.530297,6.0,2.0,350.0
2022-02-08-11:09:43.531321,8.0,3.0,350.0
2022-02-08-11:09:43.532321,13.0,13.0,350.0
2022-02-08-11:09:43.533315,0.0,6.0,350.0
2022-02-08-11:09:43.534313,2.0,3.0,350.0
2022-02-08-11:09:43.535312,2.0,2.0,350.0
2022-02-08-11:09:43.536309,2.0,0.0,350.0
2022-02-08-11:09:43.537306,15.0,5.0,350.0
2022-02-08-11:09:43.538302,16.0,12.0,350.0
2022-02-08-11:09:43.539273,19.0,10.0,350.0
2022-02-08-11:09:43.540299,27.0,2.0,350.0
2022-02-08-11:09:43.541294,23.0,3.0,350.0
2022-02-08-11:09:43.542295,3.0,2.0,350.0
2022-02-08-11:09:43.543291,1.0,3.0,350.0
2022-02-08-11:09:43.544317,1.0,7.0,350.0
2022-02-08-11:09:43.546256,9.0,5.0,350.0
2022-02-08-11:09:43.546256,6.0,12.0,350.0
2022-02-08-11:09:43.547278,8.0,11.0,350.0
2022-02-08-11:09:43.548272,2.0,1.0,350.0
2022-02-08-11:09:43.549268,3.0,3.0,350.0
2022-02-08-11:09:43.550245,1.0,5.0,350.0
2022-02-08-11:09:43.551292,12.0,6.0,350.0
2022-02-08-11:09:43.552286,9.0,5.0,349.0
2022-02-08-11:09:43.553284,2.0,6.0,350.0
2022-02-08-11:09:43.554257,0.0,3.0,350.0
2022-02-08-11:09:43.555278,16.0,7.0,350.0
2022-02-08-11:09:43.556276,15.0,4.0,350.0
2022-02-08-11:09:43.557276,16.0,2.0,350.0
2022-02-08-11:09:43.558270,16.0,7.0,350.0
2022-02-08-11:09:43.559220,9.0,5.0,350.0
2022-02-08-11:09:43.560267,13.0,1.0,350.0
2022-02-08-11:09:43.562259,8.0,1.0,350.0
2022-02-08-11:09:43.563239,1.0,5.0,350.0
2022-02-08-11:09:43.563239,1.0,9.0,350.0
2022-02-08-11:09:43.564206,3.0,0.0,349.0
2022-02-08-11:09:43.565255,1.0,3.0,350.0
2022-02-08-11:09:43.566250,7.0,8.0,350.0
2022-02-08-11:09:43.567249,1.0,6.0,350.0
2022-02-08-11:09:43.568244,16.0,7.0,350.0
2022-02-08-11:09:43.569241,6.0,6.0,350.0
2022-02-08-11:09:43.570242,0.0,4.0,350.0
2022-02-08-11:09:43.571216,3.0,1.0,350.0
2022-02-08-11:09:43.572212,2.0,6.0,350.0
2022-02-08-11:09:43.573209,7.0,3.0,350.0
2022-02-08-11:09:43.574206,11.0,7.0,350.0
2022-02-08-11:09:43.575206,4.0,5.0,350.0
2022-02-08-11:09:43.576201,3.0,4.0,350.0
2022-02-08-11:09:43.577206,7.0,0.0,350.0
2022-02-08-11:09:43.578185,9.0,9.0,350.0
2022-02-08-11:09:43.579186,1.0,4.0,350.0
2022-02-08-11:09:43.580164,1.0,4.0,350.0
2022-02-08-11:09:43.581188,5.0,5.0,350.0
2022-02-08-11:09:43.582160,10.0,5.0,350.0
2022-02-08-11:09:43.583185,1.0,3.0,350.0
2022-02-08-11:09:43.583616,2.0,3.0,350.0
2022-02-08-11:09:43.584179,17.0,12.0,350.0
2022-02-08-11:09:43.585177,10.0,6.0,350.0
2022-02-08-11:09:43.586318,4.0,8.0,350.0
2022-02-08-11:09:43.586318,4.0,6.0,350.0
2022-02-08-11:09:43.587296,6.0,7.0,350.0
2022-02-08-11:09:43.588323,6.0,6.0,350.0
2022-02-08-11:09:43.588323,1.0,3.0,350.0
2022-02-08-11:09:43.589345,7.0,4.0,350.0
2022-02-08-11:09:43.590355,10.0,4.0,350.0
2022-02-08-11:09:43.591376,4.0,4.0,350.0
2022-02-08-11:09:43.592376,1.0,5.0,350.0
2022-02-08-11:09:43.592376,2.0,0.0,350.0
2022-02-08-11:09:43.593400,8.0,6.0,350.0
2022-02-08-11:09:43.594401,2.0,1.0,350.0
2022-02-08-11:09:43.596695,1.0,3.0,350.0
2022-02-08-11:09:43.596695,3.0,7.0,349.0
2022-02-08-11:09:43.597737,11.0,9.0,350.0
2022-02-08-11:09:43.598989,1.0,6.0,350.0
2022-02-08-11:09:43.600038,1.0,3.0,350.0
2022-02-08-11:09:43.601034,3.0,5.0,350.0
2022-02-08-11:09:43.602034,6.0,1.0,350.0
2022-02-08-11:09:43.603028,1.0,11.0,349.0
2022-02-08-11:09:43.604026,5.0,0.0,350.0
2022-02-08-11:09:43.605024,5.0,3.0,350.0
2022-02-08-11:09:43.606021,6.0,5.0,350.0
2022-02-08-11:09:43.607017,5.0,6.0,350.0
2022-02-08-11:09:43.608015,0.0,2.0,350.0
2022-02-08-11:09:43.609013,1.0,2.0,350.0
2022-02-08-11:09:43.610012,10.0,5.0,350.0
2022-02-08-11:09:43.611007,8.0,3.0,350.0
2022-02-08-11:09:43.611957,8.0,3.0,350.0
2022-02-08-11:09:43.612981,3.0,7.0,350.0
2022-02-08-11:09:43.613983,3.0,7.0,350.0
2022-02-08-11:09:43.614950,3.0,7.0,350.0
2022-02-08-11:09:43.615973,3.0,7.0,350.0
2022-02-08-11:09:43.616971,2.0,4.0,350.0
2022-02-08-11:09:43.617969,4.0,8.0,350.0
2022-02-08-11:09:43.618967,4.0,8.0,350.0
2022-02-08-11:09:43.619936,4.0,8.0,350.0
2022-02-08-11:09:43.620960,7.0,4.0,350.0
2022-02-08-11:09:43.621958,5.0,8.0,350.0
2022-02-08-11:09:43.622953,5.0,8.0,350.0
2022-02-08-11:09:43.623926,5.0,8.0,350.0
2022-02-08-11:09:43.624957,7.0,11.0,350.0
2022-02-08-11:09:43.625947,3.0,5.0,350.0
2022-02-08-11:09:43.626946,3.0,5.0,350.0
2022-02-08-11:09:43.627952,3.0,5.0,350.0
2022-02-08-11:09:43.628946,6.0,4.0,350.0
2022-02-08-11:09:43.629943,2.0,13.0,350.0
2022-02-08-11:09:43.631959,2.0,13.0,350.0
2022-02-08-11:09:43.631959,2.0,13.0,350.0
2022-02-08-11:09:43.632957,6.0,4.0,350.0
2022-02-08-11:09:43.633956,6.0,4.0,350.0
2022-02-08-11:09:43.634950,6.0,4.0,350.0
2022-02-08-11:09:43.635948,6.0,4.0,350.0
2022-02-08-11:09:43.636893,6.0,4.0,350.0
2022-02-08-11:09:43.637942,8.0,6.0,350.0
2022-02-08-11:09:43.638943,8.0,6.0,350.0
2022-02-08-11:09:43.639938,8.0,6.0,350.0
2022-02-08-11:09:43.640936,8.0,6.0,350.0
2022-02-08-11:09:43.641935,4.0,2.0,350.0
2022-02-08-11:09:43.642930,5.0,2.0,350.0
2022-02-08-11:09:43.643928,5.0,2.0,350.0
2022-02-08-11:09:43.644924,5.0,2.0,350.0
2022-02-08-11:09:43.645880,5.0,7.0,350.0
2022-02-08-11:09:43.646918,5.0,7.0,350.0
2022-02-08-11:09:43.647895,3.0,1.0,350.0
2022-02-08-11:09:43.648915,3.0,1.0,350.0
2022-02-08-11:09:43.649890,4.0,5.0,350.0
2022-02-08-11:09:43.650908,4.0,0.0,350.0
2022-02-08-11:09:43.651906,4.0,0.0,350.0
2022-02-08-11:09:43.652903,4.0,0.0,350.0
2022-02-08-11:09:43.653900,1.0,3.0,350.0
2022-02-08-11:09:43.654897,9.0,4.0,350.0
2022-02-08-11:09:43.655895,9.0,4.0,350.0
2022-02-08-11:09:43.656838,9.0,4.0,350.0
2022-02-08-11:09:43.657893,10.0,8.0,350.0
2022-02-08-11:09:43.658886,10.0,14.0,350.0
2022-02-08-11:09:43.659885,10.0,14.0,350.0
2022-02-08-11:09:43.660826,10.0,14.0,350.0
2022-02-08-11:09:43.661880,1.0,3.0,350.0
2022-02-08-11:09:43.662822,3.0,2.0,350.0
2022-02-08-11:09:43.664817,3.0,2.0,350.0
2022-02-08-11:09:43.665815,3.0,2.0,350.0
2022-02-08-11:09:43.665815,4.0,0.0,350.0
2022-02-08-11:09:43.666866,4.0,0.0,350.0
2022-02-08-11:09:43.667863,4.0,0.0,350.0
2022-02-08-11:09:43.668860,4.0,0.0,350.0
2022-02-08-11:09:43.669857,4.0,0.0,350.0
2022-02-08-11:09:43.670858,6.0,4.0,350.0
2022-02-08-11:09:43.671852,6.0,4.0,350.0
2022-02-08-11:09:43.672850,6.0,4.0,350.0
2022-02-08-11:09:43.673826,6.0,4.0,350.0
2022-02-08-11:09:43.674825,10.0,8.0,350.0
2022-02-08-11:09:43.675842,11.0,12.0,350.0
2022-02-08-11:09:43.676818,11.0,12.0,350.0
2022-02-08-11:09:43.677836,11.0,12.0,350.0
2022-02-08-11:09:43.678833,2.0,9.0,350.0
2022-02-08-11:09:43.679810,2.0,9.0,350.0
2022-02-08-11:09:43.680815,2.0,9.0,350.0
2022-02-08-11:09:43.681771,2.0,9.0,350.0
2022-02-08-11:09:43.682824,5.0,2.0,350.0
2022-02-08-11:09:43.683820,1.0,5.0,350.0
2022-02-08-11:09:43.684818,1.0,5.0,350.0
2022-02-08-11:09:43.685816,1.0,5.0,350.0
2022-02-08-11:09:43.686758,0.0,3.0,350.0
2022-02-08-11:09:43.687833,6.0,1.0,350.0
2022-02-08-11:09:43.688813,6.0,1.0,350.0
2022-02-08-11:09:43.689807,6.0,1.0,350.0
2022-02-08-11:09:43.690808,9.0,2.0,350.0
2022-02-08-11:09:43.691799,10.0,10.0,350.0
2022-02-08-11:09:43.692797,10.0,10.0,350.0
2022-02-08-11:09:43.693793,10.0,10.0,350.0
2022-02-08-11:09:43.694793,1.0,1.0,350.0
2022-02-08-11:09:43.695788,2.0,4.0,350.0
2022-02-08-11:09:43.697729,2.0,4.0,350.0
2022-02-08-11:09:43.697729,2.0,4.0,350.0
2022-02-08-11:09:43.698726,2.0,2.0,350.0
2022-02-08-11:09:43.699757,4.0,4.0,350.0
2022-02-08-11:09:43.700754,4.0,4.0,350.0
2022-02-08-11:09:43.701732,4.0,4.0,350.0
2022-02-08-11:09:43.702749,1.0,2.0,350.0
2022-02-08-11:09:43.703747,5.0,6.0,350.0
2022-02-08-11:09:43.704744,5.0,6.0,350.0
2022-02-08-11:09:43.705741,5.0,6.0,350.0
2022-02-08-11:09:43.706740,5.0,6.0,350.0
2022-02-08-11:09:43.707738,7.0,5.0,350.0
2022-02-08-11:09:43.708732,8.0,8.0,350.0
2022-02-08-11:09:43.709731,8.0,8.0,350.0
2022-02-08-11:09:43.710727,8.0,8.0,350.0
2022-02-08-11:09:43.711691,7.0,2.0,350.0
2022-02-08-11:09:43.712689,3.0,2.0,350.0
2022-02-08-11:09:43.713720,1.0,1.0,350.0
2022-02-08-11:09:43.714716,3.0,2.0,350.0
2022-02-08-11:09:43.715715,4.0,8.0,350.0
2022-02-08-11:09:43.716717,2.0,16.0,350.0
2022-02-08-11:09:43.717709,2.0,16.0,350.0
2022-02-08-11:09:43.718706,2.0,16.0,350.0
2022-02-08-11:09:43.719707,5.0,21.0,350.0
2022-02-08-11:09:43.720702,5.0,1.0,350.0
2022-02-08-11:09:43.721698,5.0,8.0,350.0
2022-02-08-11:09:43.722700,5.0,8.0,350.0
2022-02-08-11:09:43.723693,8.0,15.0,350.0
2022-02-08-11:09:43.724690,8.0,2.0,350.0
2022-02-08-11:09:43.725688,7.0,3.0,350.0
2022-02-08-11:09:43.726688,7.0,3.0,350.0
2022-02-08-11:09:43.727682,8.0,5.0,350.0
2022-02-08-11:09:43.728707,3.0,12.0,350.0
2022-02-08-11:09:43.729642,5.0,10.0,350.0
2022-02-08-11:09:43.730673,5.0,10.0,350.0
2022-02-08-11:09:43.731638,3.0,6.0,350.0
2022-02-08-11:09:43.733690,0.0,2.0,350.0
2022-02-08-11:09:43.733690,6.0,20.0,350.0
2022-02-08-11:09:43.734630,6.0,20.0,350.0
2022-02-08-11:09:43.735681,2.0,17.0,350.0
2022-02-08-11:09:43.736623,1.0,1.0,350.0
2022-02-08-11:09:43.737679,3.0,3.0,350.0
2022-02-08-11:09:43.738624,3.0,3.0,350.0
2022-02-08-11:09:43.739671,7.0,7.0,350.0
2022-02-08-11:09:43.740668,10.0,3.0,350.0
2022-02-08-11:09:43.741665,9.0,7.0,350.0
2022-02-08-11:09:43.742671,9.0,7.0,350.0
2022-02-08-11:09:43.743661,11.0,2.0,350.0
2022-02-08-11:09:43.744658,5.0,3.0,350.0
2022-02-08-11:09:43.745604,5.0,3.0,350.0
2022-02-08-11:09:43.746604,5.0,3.0,350.0
2022-02-08-11:09:43.747600,5.0,3.0,350.0
2022-02-08-11:09:43.748626,3.0,9.0,350.0
2022-02-08-11:09:43.749625,3.0,9.0,350.0
2022-02-08-11:09:43.750587,3.0,9.0,350.0
2022-02-08-11:09:43.751616,3.0,9.0,350.0
2022-02-08-11:09:43.752614,2.0,14.0,350.0
2022-02-08-11:09:43.753611,0.0,5.0,350.0
2022-02-08-11:09:43.754612,0.0,5.0,350.0
2022-02-08-11:09:43.755606,0.0,5.0,350.0
2022-02-08-11:09:43.756603,7.0,3.0,350.0
2022-02-08-11:09:43.757603,8.0,5.0,350.0
2022-02-08-11:09:43.758600,8.0,5.0,350.0
2022-02-08-11:09:43.759594,8.0,5.0,350.0
2022-02-08-11:09:43.760598,10.0,5.0,350.0
2022-02-08-11:09:43.761591,2.0,11.0,350.0
2022-02-08-11:09:43.762588,2.0,11.0,350.0
2022-02-08-11:09:43.763586,2.0,11.0,350.0
2022-02-08-11:09:43.764583,1.0,0.0,350.0
2022-02-08-11:09:43.766577,1.0,0.0,350.0
2022-02-08-11:09:43.766577,0.0,6.0,350.0
2022-02-08-11:09:43.767542,1.0,8.0,350.0
2022-02-08-11:09:43.768580,4.0,8.0,350.0
2022-02-08-11:09:43.769581,4.0,8.0,350.0
2022-02-08-11:09:43.770565,4.0,8.0,350.0
2022-02-08-11:09:43.771531,4.0,8.0,350.0
2022-02-08-11:09:43.772560,6.0,11.0,350.0
2022-02-08-11:09:43.773560,9.0,2.0,350.0
2022-02-08-11:09:43.774556,9.0,2.0,350.0
2022-02-08-11:09:43.775523,9.0,2.0,350.0
2022-02-08-11:09:43.776555,8.0,10.0,350.0
2022-02-08-11:09:43.777547,9.0,12.0,350.0
2022-02-08-11:09:43.778544,4.0,4.0,350.0
2022-02-08-11:09:43.779515,4.0,4.0,350.0
2022-02-08-11:09:43.780561,2.0,2.0,350.0
2022-02-08-11:09:43.781504,4.0,4.0,350.0
2022-02-08-11:09:43.782506,4.0,4.0,350.0
2022-02-08-11:09:43.783534,4.0,4.0,350.0
2022-02-08-11:09:43.784552,4.0,4.0,350.0
2022-02-08-11:09:43.785555,1.0,1.0,350.0
2022-02-08-11:09:43.786545,2.0,2.0,350.0
2022-02-08-11:09:43.787543,2.0,2.0,350.0
2022-02-08-11:09:43.788485,2.0,2.0,350.0
2022-02-08-11:09:43.789544,2.0,6.0,350.0
2022-02-08-11:09:43.790538,11.0,11.0,350.0
2022-02-08-11:09:43.791533,10.0,3.0,350.0
2022-02-08-11:09:43.792530,10.0,3.0,350.0
2022-02-08-11:09:43.793530,10.0,3.0,350.0
2022-02-08-11:09:43.794524,6.0,13.0,350.0
2022-02-08-11:09:43.795522,5.0,6.0,350.0
2022-02-08-11:09:43.796472,5.0,6.0,350.0
2022-02-08-11:09:43.797463,0.0,2.0,350.0
2022-02-08-11:09:43.798513,3.0,0.0,350.0
2022-02-08-11:09:43.800509,3.0,0.0,350.0
2022-02-08-11:09:43.800509,3.0,0.0,350.0
2022-02-08-11:09:43.801451,5.0,4.0,350.0
2022-02-08-11:09:43.802503,5.0,4.0,350.0
2022-02-08-11:09:43.803500,5.0,4.0,350.0
2022-02-08-11:09:43.804498,5.0,4.0,350.0
2022-02-08-11:09:43.805495,6.0,12.0,350.0
2022-02-08-11:09:43.806492,9.0,5.0,350.0
2022-02-08-11:09:43.807489,10.0,4.0,350.0
2022-02-08-11:09:43.808432,10.0,4.0,350.0
2022-02-08-11:09:43.809487,12.0,5.0,350.0
2022-02-08-11:09:43.810485,7.0,4.0,350.0
2022-02-08-11:09:43.811479,6.0,5.0,350.0
2022-02-08-11:09:43.812422,6.0,5.0,350.0
2022-02-08-11:09:43.813475,2.0,6.0,350.0
2022-02-08-11:09:43.814478,4.0,7.0,350.0
2022-02-08-11:09:43.815469,4.0,7.0,350.0
2022-02-08-11:09:43.816467,4.0,7.0,350.0
2022-02-08-11:09:43.817465,0.0,8.0,350.0
2022-02-08-11:09:43.818460,2.0,1.0,350.0
2022-02-08-11:09:43.819458,2.0,1.0,350.0
2022-02-08-11:09:43.820455,2.0,1.0,350.0
2022-02-08-11:09:43.821452,2.0,1.0,350.0
2022-02-08-11:09:43.822452,9.0,11.0,350.0
2022-02-08-11:09:43.823447,12.0,3.0,350.0
2022-02-08-11:09:43.824445,12.0,3.0,350.0
2022-02-08-11:09:43.825444,12.0,3.0,350.0
2022-02-08-11:09:43.826384,11.0,4.0,350.0
2022-02-08-11:09:43.827437,6.0,1.0,350.0
2022-02-08-11:09:43.828433,6.0,1.0,350.0
2022-02-08-11:09:43.829389,6.0,1.0,350.0
2022-02-08-11:09:43.830431,1.0,1.0,350.0
2022-02-08-11:09:43.831408,1.0,9.0,350.0
2022-02-08-11:09:43.832424,0.0,7.0,350.0
2022-02-08-11:09:43.833423,0.0,7.0,350.0
2022-02-08-11:09:43.835416,2.0,1.0,350.0
2022-02-08-11:09:43.835416,6.0,0.0,350.0
2022-02-08-11:09:43.836412,6.0,0.0,350.0
2022-02-08-11:09:43.837409,6.0,0.0,350.0
2022-02-08-11:09:43.838410,5.0,4.0,350.0
2022-02-08-11:09:43.839404,7.0,4.0,350.0
2022-02-08-11:09:43.840402,7.0,4.0,350.0
2022-02-08-11:09:43.841402,7.0,4.0,350.0
2022-02-08-11:09:43.842396,10.0,5.0,350.0
2022-02-08-11:09:43.843394,15.0,10.0,350.0
2022-02-08-11:09:43.844392,9.0,27.0,350.0
2022-02-08-11:09:43.845334,9.0,27.0,350.0
2022-02-08-11:09:43.846336,5.0,21.0,350.0
2022-02-08-11:09:43.847383,1.0,9.0,350.0
2022-02-08-11:09:43.848326,2.0,4.0,350.0
2022-02-08-11:09:43.849331,2.0,4.0,350.0
2022-02-08-11:09:43.850375,2.0,4.0,350.0
2022-02-08-11:09:43.851325,3.0,10.0,350.0
2022-02-08-11:09:43.852369,1.0,5.0,350.0
2022-02-08-11:09:43.853313,1.0,5.0,350.0
2022-02-08-11:09:43.854367,1.0,4.0,350.0
2022-02-08-11:09:43.855361,9.0,1.0,350.0
2022-02-08-11:09:43.856360,12.0,2.0,350.0
2022-02-08-11:09:43.857362,12.0,2.0,350.0
2022-02-08-11:09:43.858357,10.0,0.0,350.0
2022-02-08-11:09:43.859351,10.0,4.0,350.0
2022-02-08-11:09:43.860348,3.0,4.0,350.0
2022-02-08-11:09:43.861345,3.0,4.0,350.0
2022-02-08-11:09:43.862351,3.0,4.0,350.0
2022-02-08-11:09:43.863286,3.0,9.0,350.0
2022-02-08-11:09:43.864283,3.0,9.0,350.0
2022-02-08-11:09:43.865337,5.0,2.0,350.0
2022-02-08-11:09:43.866334,5.0,2.0,350.0
2022-02-08-11:09:43.868326,1.0,4.0,350.0
2022-02-08-11:09:43.868326,1.0,10.0,350.0
2022-02-08-11:09:43.869330,1.0,10.0,350.0
2022-02-08-11:09:43.870321,1.0,10.0,350.0
2022-02-08-11:09:43.871318,5.0,6.0,350.0
2022-02-08-11:09:43.872317,9.0,5.0,350.0
2022-02-08-11:09:43.873316,8.0,2.0,350.0
2022-02-08-11:09:43.874311,8.0,2.0,350.0
2022-02-08-11:09:43.875309,15.0,11.0,350.0
2022-02-08-11:09:43.876305,9.0,6.0,350.0
2022-02-08-11:09:43.877302,7.0,1.0,350.0
2022-02-08-11:09:43.878300,7.0,1.0,350.0
2022-02-08-11:09:43.879297,1.0,1.0,350.0
2022-02-08-11:09:43.880267,1.0,3.0,350.0
2022-02-08-11:09:43.881295,1.0,3.0,350.0
2022-02-08-11:09:43.882291,1.0,3.0,350.0
2022-02-08-11:09:43.883280,2.0,2.0,350.0
2022-02-08-11:09:43.884276,2.0,2.0,350.0
2022-02-08-11:09:43.885274,2.0,10.0,350.0
2022-02-08-11:09:43.886224,8.0,18.0,350.0
2022-02-08-11:09:43.887268,0.0,11.0,350.0
2022-02-08-11:09:43.888267,13.0,22.0,350.0
2022-02-08-11:09:43.889219,13.0,22.0,350.0
2022-02-08-11:09:43.890218,13.0,22.0,350.0
2022-02-08-11:09:43.891258,10.0,20.0,350.0
2022-02-08-11:09:43.892256,9.0,13.0,350.0
2022-02-08-11:09:43.893252,9.0,6.0,350.0
2022-02-08-11:09:43.894249,9.0,6.0,350.0
2022-02-08-11:09:43.895248,5.0,3.0,350.0
2022-02-08-11:09:43.896198,1.0,14.0,350.0
2022-02-08-11:09:43.897209,1.0,10.0,350.0
2022-02-08-11:09:43.898193,1.0,10.0,350.0
2022-02-08-11:09:43.899237,1.0,10.0,350.0
2022-02-08-11:09:43.900233,1.0,1.0,350.0
2022-02-08-11:09:43.901211,2.0,1.0,350.0
2022-02-08-11:09:43.903226,2.0,1.0,350.0
2022-02-08-11:09:43.903226,3.0,8.0,350.0
2022-02-08-11:09:43.904204,10.0,6.0,350.0
2022-02-08-11:09:43.905223,10.0,6.0,350.0
2022-02-08-11:09:43.906217,10.0,6.0,350.0
2022-02-08-11:09:43.907216,10.0,6.0,350.0
2022-02-08-11:09:43.908212,8.0,16.0,350.0
2022-02-08-11:09:43.909216,8.0,15.0,350.0
2022-02-08-11:09:43.910225,7.0,17.0,350.0
2022-02-08-11:09:43.911204,7.0,17.0,350.0
2022-02-08-11:09:43.912203,7.0,11.0,350.0
2022-02-08-11:09:43.913152,0.0,5.0,350.0
2022-02-08-11:09:43.914197,0.0,2.0,350.0
2022-02-08-11:09:43.915202,0.0,2.0,350.0
2022-02-08-11:09:43.916192,1.0,3.0,350.0
2022-02-08-11:09:43.917189,1.0,2.0,350.0
2022-02-08-11:09:43.918189,1.0,1.0,350.0
2022-02-08-11:09:43.919184,1.0,1.0,350.0
2022-02-08-11:09:43.920186,5.0,7.0,350.0
2022-02-08-11:09:43.921181,5.0,7.0,350.0
2022-02-08-11:09:43.922174,5.0,7.0,350.0
2022-02-08-11:09:43.923126,5.0,7.0,350.0
2022-02-08-11:09:43.924170,8.0,0.0,350.0
2022-02-08-11:09:43.925167,5.0,7.0,350.0
2022-02-08-11:09:43.926167,12.0,14.0,350.0
2022-02-08-11:09:43.927116,12.0,14.0,350.0
2022-02-08-11:09:43.928160,5.0,13.0,350.0
2022-02-08-11:09:43.929159,1.0,8.0,350.0
2022-02-08-11:09:43.930156,1.0,2.0,350.0
2022-02-08-11:09:43.931131,1.0,2.0,350.0
2022-02-08-11:09:43.932151,2.0,4.0,349.0
2022-02-08-11:09:43.933146,2.0,4.0,349.0
2022-02-08-11:09:43.934143,4.0,5.0,350.0
2022-02-08-11:09:43.936139,4.0,5.0,350.0
2022-02-08-11:09:43.936139,5.0,9.0,350.0
2022-02-08-11:09:43.937088,5.0,9.0,350.0
2022-02-08-11:09:43.938132,5.0,9.0,350.0
2022-02-08-11:09:43.939138,5.0,9.0,350.0
2022-02-08-11:09:43.940080,5.0,9.0,350.0
2022-02-08-11:09:43.941128,12.0,14.0,350.0
2022-02-08-11:09:43.942129,10.0,15.0,350.0
2022-02-08-11:09:43.943119,10.0,15.0,350.0
2022-02-08-11:09:43.944123,10.0,15.0,350.0
2022-02-08-11:09:43.945117,5.0,8.0,350.0
2022-02-08-11:09:43.946103,2.0,9.0,350.0
2022-02-08-11:09:43.947109,5.0,8.0,350.0
2022-02-08-11:09:43.948061,5.0,8.0,350.0
2022-02-08-11:09:43.949057,4.0,12.0,350.0
2022-02-08-11:09:43.950103,2.0,3.0,350.0
2022-02-08-11:09:43.951098,2.0,1.0,350.0
2022-02-08-11:09:43.952096,2.0,1.0,350.0
2022-02-08-11:09:43.953071,0.0,8.0,350.0
2022-02-08-11:09:43.954071,7.0,7.0,350.0
2022-02-08-11:09:43.955087,7.0,7.0,350.0
2022-02-08-11:09:43.956084,7.0,7.0,350.0
2022-02-08-11:09:43.957082,12.0,11.0,350.0
2022-02-08-11:09:43.958079,9.0,16.0,350.0
2022-02-08-11:09:43.959076,9.0,16.0,350.0
2022-02-08-11:09:43.960027,9.0,16.0,350.0
2022-02-08-11:09:43.961074,10.0,15.0,350.0
2022-02-08-11:09:43.962070,3.0,4.0,350.0
2022-02-08-11:09:43.963019,5.0,1.0,350.0
2022-02-08-11:09:43.964043,5.0,1.0,350.0
2022-02-08-11:09:43.965014,5.0,1.0,350.0
2022-02-08-11:09:43.966036,5.0,6.0,350.0
2022-02-08-11:09:43.967055,5.0,6.0,350.0
2022-02-08-11:09:43.969053,5.0,6.0,350.0
2022-02-08-11:09:43.969053,6.0,2.0,350.0
2022-02-08-11:09:43.970029,6.0,2.0,350.0
2022-02-08-11:09:43.971045,6.0,2.0,350.0
2022-02-08-11:09:43.972041,6.0,2.0,350.0
2022-02-08-11:09:43.973039,6.0,5.0,350.0
2022-02-08-11:09:43.974036,9.0,7.0,350.0
2022-02-08-11:09:43.975034,10.0,11.0,350.0
2022-02-08-11:09:43.976032,10.0,11.0,350.0
2022-02-08-11:09:43.977031,10.0,11.0,350.0
2022-02-08-11:09:43.978025,2.0,10.0,350.0
2022-02-08-11:09:43.979024,2.0,8.0,350.0
2022-02-08-11:09:43.980021,2.0,8.0,350.0
2022-02-08-11:09:43.981019,2.0,8.0,350.0
2022-02-08-11:09:43.982018,1.0,11.0,350.0
2022-02-08-11:09:43.983016,2.0,2.0,350.0
2022-02-08-11:09:43.984010,2.0,2.0,350.0
2022-02-08-11:09:43.985010,2.0,2.0,350.0
2022-02-08-11:09:43.986004,5.0,14.0,350.0
2022-02-08-11:09:43.987002,5.0,14.0,350.0
2022-02-08-11:09:43.987998,5.0,14.0,350.0
2022-02-08-11:09:43.988996,5.0,14.0,350.0
2022-02-08-11:09:43.989947,7.0,6.0,350.0
2022-02-08-11:09:43.990970,11.0,3.0,350.0
2022-02-08-11:09:43.991989,11.0,3.0,350.0
2022-02-08-11:09:43.992992,11.0,3.0,350.0
2022-02-08-11:09:43.993984,11.0,11.0,350.0
2022-02-08-11:09:43.994981,8.0,6.0,350.0
2022-02-08-11:09:43.995978,1.0,1.0,350.0
2022-02-08-11:09:43.996975,1.0,1.0,350.0
2022-02-08-11:09:43.997953,1.0,1.0,350.0
2022-02-08-11:09:43.998971,3.0,2.0,350.0
2022-02-08-11:09:43.999968,3.0,2.0,350.0
2022-02-08-11:09:44.000917,3.0,2.0,350.0
2022-02-08-11:09:44.001939,5.0,5.0,350.0
2022-02-08-11:09:44.002912,4.0,2.0,350.0
2022-02-08-11:09:44.004908,4.0,2.0,350.0
2022-02-08-11:09:44.004908,11.0,7.0,350.0
2022-02-08-11:09:44.005951,11.0,13.0,350.0
2022-02-08-11:09:44.006948,11.0,13.0,350.0
2022-02-08-11:09:44.007946,11.0,13.0,350.0
2022-02-08-11:09:44.008946,11.0,13.0,350.0
2022-02-08-11:09:44.009948,9.0,18.0,350.0
2022-02-08-11:09:44.010946,6.0,11.0,350.0
2022-02-08-11:09:44.011942,2.0,12.0,350.0
2022-02-08-11:09:44.012898,2.0,12.0,350.0
2022-02-08-11:09:44.013916,2.0,12.0,350.0
2022-02-08-11:09:44.014881,1.0,0.0,350.0
2022-02-08-11:09:44.015878,1.0,1.0,350.0
2022-02-08-11:09:44.016932,1.0,1.0,350.0
2022-02-08-11:09:44.017927,1.0,1.0,350.0
2022-02-08-11:09:44.018925,2.0,12.0,350.0
2022-02-08-11:09:44.019901,4.0,12.0,350.0
2022-02-08-11:09:44.020899,4.0,12.0,350.0
2022-02-08-11:09:44.021919,4.0,12.0,350.0
2022-02-08-11:09:44.022914,6.0,9.0,350.0
2022-02-08-11:09:44.023912,9.0,4.0,350.0
2022-02-08-11:09:44.024911,9.0,4.0,350.0
2022-02-08-11:09:44.025906,9.0,4.0,350.0
2022-02-08-11:09:44.026903,10.0,7.0,350.0
2022-02-08-11:09:44.027877,2.0,7.0,350.0
2022-02-08-11:09:44.028883,1.0,12.0,350.0
2022-02-08-11:09:44.029841,1.0,12.0,350.0
2022-02-08-11:09:44.030854,2.0,3.0,350.0
2022-02-08-11:09:44.031892,0.0,2.0,350.0
2022-02-08-11:09:44.032890,1.0,8.0,350.0
2022-02-08-11:09:44.033890,1.0,8.0,350.0
2022-02-08-11:09:44.034883,4.0,10.0,350.0
2022-02-08-11:09:44.035873,4.0,3.0,350.0
2022-02-08-11:09:44.036847,5.0,2.0,350.0
2022-02-08-11:09:44.037819,5.0,2.0,350.0
2022-02-08-11:09:44.039814,4.0,3.0,350.0
2022-02-08-11:09:44.039814,8.0,7.0,350.0
2022-02-08-11:09:44.040864,9.0,7.0,349.0
2022-02-08-11:09:44.041809,12.0,4.0,350.0
2022-02-08-11:09:44.042805,5.0,10.0,350.0
2022-02-08-11:09:44.043851,8.0,16.0,350.0
2022-02-08-11:09:44.044801,3.0,10.0,350.0
2022-02-08-11:09:44.045810,3.0,10.0,350.0
2022-02-08-11:09:44.046807,0.0,2.0,350.0
2022-02-08-11:09:44.047843,2.0,11.0,350.0
2022-02-08-11:09:44.048840,2.0,11.0,350.0
2022-02-08-11:09:44.049814,2.0,11.0,350.0
2022-02-08-11:09:44.050831,2.0,11.0,350.0
2022-02-08-11:09:44.051839,3.0,9.0,350.0
2022-02-08-11:09:44.052835,3.0,1.0,350.0
2022-02-08-11:09:44.053826,2.0,11.0,350.0
2022-02-08-11:09:44.054822,2.0,11.0,350.0
2022-02-08-11:09:44.055819,5.0,0.0,350.0
2022-02-08-11:09:44.056818,10.0,15.0,350.0
2022-02-08-11:09:44.057813,6.0,16.0,350.0
2022-02-08-11:09:44.058811,6.0,16.0,350.0
2022-02-08-11:09:44.059807,9.0,9.0,350.0
2022-02-08-11:09:44.060804,7.0,6.0,350.0
2022-02-08-11:09:44.061805,7.0,6.0,350.0
2022-02-08-11:09:44.062799,7.0,6.0,350.0
2022-02-08-11:09:44.063777,2.0,1.0,350.0
2022-02-08-11:09:44.064750,5.0,9.0,350.0
2022-02-08-11:09:44.065773,5.0,9.0,350.0
2022-02-08-11:09:44.066769,5.0,9.0,350.0
2022-02-08-11:09:44.067765,0.0,11.0,350.0
2022-02-08-11:09:44.068763,3.0,14.0,349.0
2022-02-08-11:09:44.069736,3.0,14.0,349.0
2022-02-08-11:09:44.070758,3.0,14.0,349.0
2022-02-08-11:09:44.072752,1.0,7.0,350.0
2022-02-08-11:09:44.072752,16.0,9.0,350.0
2022-02-08-11:09:44.073752,16.0,9.0,350.0
2022-02-08-11:09:44.074721,16.0,9.0,350.0
2022-02-08-11:09:44.075743,11.0,6.0,350.0
2022-02-08-11:09:44.076714,9.0,14.0,350.0
2022-02-08-11:09:44.077719,9.0,14.0,350.0
2022-02-08-11:09:44.078710,3.0,10.0,350.0
2022-02-08-11:09:44.079707,3.0,10.0,350.0
2022-02-08-11:09:44.080728,1.0,9.0,350.0
2022-02-08-11:09:44.081702,1.0,12.0,350.0
2022-02-08-11:09:44.082700,1.0,12.0,350.0
2022-02-08-11:09:44.083720,2.0,8.0,350.0
2022-02-08-11:09:44.084721,4.0,3.0,350.0
2022-02-08-11:09:44.085715,3.0,3.0,350.0
2022-02-08-11:09:44.086713,3.0,3.0,350.0
2022-02-08-11:09:44.087711,3.0,3.0,350.0
2022-02-08-11:09:44.088707,3.0,2.0,350.0
2022-02-08-11:09:44.089705,10.0,8.0,350.0
2022-02-08-11:09:44.090702,10.0,8.0,350.0
2022-02-08-11:09:44.091700,10.0,8.0,350.0
2022-02-08-11:09:44.092703,10.0,14.0,350.0
2022-02-08-11:09:44.093696,3.0,8.0,350.0
2022-02-08-11:09:44.094692,3.0,8.0,350.0
2022-02-08-11:09:44.095665,3.0,8.0,350.0
2022-02-08-11:09:44.096676,1.0,0.0,350.0
2022-02-08-11:09:44.097673,1.0,0.0,350.0
2022-02-08-11:09:44.098681,2.0,6.0,350.0
2022-02-08-11:09:44.099689,2.0,6.0,350.0
2022-02-08-11:09:44.100678,6.0,8.0,350.0
2022-02-08-11:09:44.101672,1.0,0.0,350.0
2022-02-08-11:09:44.102671,4.0,11.0,350.0
2022-02-08-11:09:44.103673,4.0,11.0,350.0
2022-02-08-11:09:44.104665,1.0,1.0,350.0
2022-02-08-11:09:44.105662,1.0,1.0,350.0
2022-02-08-11:09:44.107656,6.0,6.0,350.0
2022-02-08-11:09:44.107656,11.0,11.0,350.0
2022-02-08-11:09:44.108656,7.0,3.0,350.0
2022-02-08-11:09:44.109651,7.0,3.0,350.0
2022-02-08-11:09:44.110648,7.0,3.0,350.0
2022-02-08-11:09:44.111647,7.0,3.0,350.0
2022-02-08-11:09:44.112644,2.0,0.0,350.0
2022-02-08-11:09:44.113641,1.0,1.0,350.0
2022-02-08-11:09:44.114641,1.0,1.0,350.0
2022-02-08-11:09:44.115611,1.0,1.0,350.0
2022-02-08-11:09:44.116635,3.0,7.0,350.0
2022-02-08-11:09:44.117635,7.0,8.0,350.0
2022-02-08-11:09:44.118627,7.0,8.0,350.0
2022-02-08-11:09:44.119601,7.0,8.0,350.0
2022-02-08-11:09:44.120603,6.0,5.0,350.0
2022-02-08-11:09:44.121619,7.0,7.0,350.0
2022-02-08-11:09:44.122617,7.0,7.0,350.0
2022-02-08-11:09:44.123609,7.0,7.0,350.0
2022-02-08-11:09:44.124614,14.0,14.0,350.0
2022-02-08-11:09:44.125610,6.0,9.0,350.0
2022-02-08-11:09:44.126606,6.0,9.0,350.0
2022-02-08-11:09:44.127604,6.0,9.0,350.0
2022-02-08-11:09:44.128609,6.0,9.0,350.0
2022-02-08-11:09:44.129583,6.0,2.0,350.0
2022-02-08-11:09:44.130590,6.0,2.0,350.0
2022-02-08-11:09:44.131569,6.0,2.0,350.0
2022-02-08-11:09:44.132600,6.0,2.0,350.0
2022-02-08-11:09:44.133597,6.0,11.0,350.0
2022-02-08-11:09:44.134587,4.0,12.0,350.0
2022-02-08-11:09:44.135583,0.0,0.0,350.0
2022-02-08-11:09:44.136581,0.0,0.0,350.0
2022-02-08-11:09:44.137582,0.0,4.0,350.0
2022-02-08-11:09:44.138576,3.0,3.0,350.0
2022-02-08-11:09:44.140571,8.0,1.0,350.0
2022-02-08-11:09:44.140571,8.0,1.0,350.0
2022-02-08-11:09:44.141567,5.0,7.0,350.0
2022-02-08-11:09:44.142564,5.0,7.0,350.0
2022-02-08-11:09:44.143561,5.0,7.0,350.0
2022-02-08-11:09:44.144559,5.0,7.0,350.0
2022-02-08-11:09:44.145531,5.0,9.0,350.0
2022-02-08-11:09:44.146528,5.0,14.0,350.0
2022-02-08-11:09:44.147552,5.0,14.0,350.0
2022-02-08-11:09:44.148553,5.0,14.0,350.0
2022-02-08-11:09:44.149545,3.0,10.0,350.0
2022-02-08-11:09:44.150544,4.0,19.0,350.0
2022-02-08-11:09:44.151540,4.0,19.0,350.0
2022-02-08-11:09:44.152513,4.0,19.0,350.0
2022-02-08-11:09:44.153535,3.0,10.0,350.0
2022-02-08-11:09:44.154533,6.0,2.0,350.0
2022-02-08-11:09:44.155531,6.0,2.0,350.0
2022-02-08-11:09:44.156502,6.0,2.0,350.0
2022-02-08-11:09:44.157524,10.0,3.0,350.0
2022-02-08-11:09:44.158521,10.0,7.0,350.0
2022-02-08-11:09:44.159519,8.0,22.0,350.0
2022-02-08-11:09:44.160492,8.0,22.0,350.0
2022-02-08-11:09:44.161513,9.0,12.0,350.0
2022-02-08-11:09:44.162521,2.0,6.0,350.0
2022-02-08-11:09:44.163483,2.0,6.0,350.0
2022-02-08-11:09:44.164507,2.0,6.0,350.0
2022-02-08-11:09:44.165502,2.0,6.0,350.0
2022-02-08-11:09:44.166500,2.0,0.0,350.0
2022-02-08-11:09:44.167503,2.0,0.0,350.0
2022-02-08-11:09:44.168494,2.0,0.0,350.0
2022-02-08-11:09:44.169499,2.0,0.0,350.0
2022-02-08-11:09:44.170465,2.0,9.0,350.0
2022-02-08-11:09:44.171486,6.0,3.0,350.0
2022-02-08-11:09:44.172467,6.0,3.0,350.0
2022-02-08-11:09:44.173468,6.0,3.0,350.0
2022-02-08-11:09:44.175477,11.0,12.0,350.0
2022-02-08-11:09:44.176450,11.0,10.0,350.0
2022-02-08-11:09:44.176450,11.0,10.0,350.0
2022-02-08-11:09:44.177475,11.0,10.0,350.0
2022-02-08-11:09:44.178468,5.0,10.0,350.0
2022-02-08-11:09:44.179465,2.0,1.0,350.0
2022-02-08-11:09:44.180465,2.0,1.0,350.0
2022-02-08-11:09:44.181444,2.0,1.0,350.0
2022-02-08-11:09:44.182478,2.0,2.0,350.0
2022-02-08-11:09:44.183455,2.0,6.0,350.0
2022-02-08-11:09:44.184451,2.0,6.0,350.0
2022-02-08-11:09:44.185449,2.0,6.0,350.0
2022-02-08-11:09:44.186451,4.0,4.0,350.0
2022-02-08-11:09:44.187444,8.0,11.0,350.0
2022-02-08-11:09:44.188443,8.0,11.0,350.0
2022-02-08-11:09:44.189438,8.0,11.0,350.0
2022-02-08-11:09:44.190435,7.0,5.0,350.0
2022-02-08-11:09:44.191439,10.0,3.0,350.0
2022-02-08-11:09:44.192430,10.0,3.0,350.0
2022-02-08-11:09:44.193403,10.0,3.0,350.0
2022-02-08-11:09:44.194430,7.0,5.0,350.0
2022-02-08-11:09:44.195422,0.0,3.0,350.0
2022-02-08-11:09:44.196394,1.0,15.0,350.0
2022-02-08-11:09:44.197401,1.0,15.0,350.0
2022-02-08-11:09:44.198414,1.0,15.0,350.0
2022-02-08-11:09:44.199412,3.0,12.0,350.0
2022-02-08-11:09:44.200411,4.0,1.0,350.0
2022-02-08-11:09:44.201405,4.0,1.0,350.0
2022-02-08-11:09:44.202410,4.0,1.0,350.0
2022-02-08-11:09:44.203401,4.0,6.0,350.0
2022-02-08-11:09:44.204400,4.0,6.0,350.0
2022-02-08-11:09:44.205395,4.0,6.0,350.0
2022-02-08-11:09:44.206400,4.0,6.0,350.0
2022-02-08-11:09:44.207399,8.0,1.0,350.0
2022-02-08-11:09:44.208402,8.0,1.0,350.0
2022-02-08-11:09:44.209401,8.0,1.0,350.0
2022-02-08-11:09:44.211387,8.0,1.0,350.0
2022-02-08-11:09:44.211387,5.0,13.0,350.0
2022-02-08-11:09:44.212387,5.0,13.0,350.0
2022-02-08-11:09:44.213350,5.0,13.0,350.0
2022-02-08-11:09:44.214379,5.0,13.0,350.0
2022-02-08-11:09:44.215382,2.0,13.0,350.0
2022-02-08-11:09:44.216366,1.0,4.0,350.0
2022-02-08-11:09:44.217363,1.0,4.0,350.0
2022-02-08-11:09:44.218361,1.0,4.0,350.0
2022-02-08-11:09:44.219358,5.0,0.0,350.0
2022-02-08-11:09:44.220370,6.0,3.0,350.0
2022-02-08-11:09:44.221332,6.0,3.0,350.0
2022-02-08-11:09:44.222358,6.0,3.0,350.0
2022-02-08-11:09:44.223356,8.0,6.0,350.0
2022-02-08-11:09:44.224352,9.0,13.0,350.0
2022-02-08-11:09:44.225350,9.0,13.0,350.0
2022-02-08-11:09:44.226348,9.0,13.0,350.0
2022-02-08-11:09:44.227344,11.0,14.0,350.0
2022-02-08-11:09:44.228337,7.0,8.0,350.0
2022-02-08-11:09:44.229332,3.0,5.0,350.0
2022-02-08-11:09:44.230305,3.0,5.0,350.0
2022-02-08-11:09:44.231309,1.0,4.0,350.0
2022-02-08-11:09:44.232323,1.0,3.0,350.0
2022-02-08-11:09:44.233321,1.0,3.0,350.0
2022-02-08-11:09:44.234294,1.0,3.0,350.0
2022-02-08-11:09:44.235318,1.0,3.0,350.0
2022-02-08-11:09:44.236315,2.0,6.0,350.0
2022-02-08-11:09:44.237310,2.0,6.0,350.0
2022-02-08-11:09:44.238308,2.0,6.0,350.0
2022-02-08-11:09:44.239316,10.0,2.0,350.0
2022-02-08-11:09:44.240302,8.0,1.0,350.0
2022-02-08-11:09:44.241306,8.0,1.0,350.0
2022-02-08-11:09:44.242297,8.0,1.0,350.0
2022-02-08-11:09:44.244301,11.0,3.0,350.0
2022-02-08-11:09:44.244301,4.0,1.0,350.0
2022-02-08-11:09:44.245296,4.0,1.0,350.0
2022-02-08-11:09:44.246264,4.0,1.0,350.0
2022-02-08-11:09:44.247297,4.0,1.0,350.0
2022-02-08-11:09:44.248257,1.0,1.0,350.0
2022-02-08-11:09:44.249271,2.0,7.0,350.0
2022-02-08-11:09:44.250284,2.0,7.0,350.0
2022-02-08-11:09:44.251281,2.0,7.0,350.0
2022-02-08-11:09:44.252281,1.0,2.0,350.0
2022-02-08-11:09:44.253281,3.0,0.0,350.0
2022-02-08-11:09:44.254278,3.0,11.0,350.0
2022-02-08-11:09:44.255277,3.0,11.0,350.0
2022-02-08-11:09:44.256267,4.0,2.0,350.0
2022-02-08-11:09:44.257272,15.0,17.0,350.0
2022-02-08-11:09:44.258262,15.0,17.0,350.0
2022-02-08-11:09:44.259228,15.0,17.0,350.0
2022-02-08-11:09:44.260259,7.0,14.0,349.0
2022-02-08-11:09:44.261254,3.0,15.0,350.0
2022-02-08-11:09:44.262252,3.0,15.0,350.0
2022-02-08-11:09:44.263217,3.0,15.0,350.0
2022-02-08-11:09:44.264235,5.0,7.0,350.0
2022-02-08-11:09:44.265243,2.0,1.0,350.0
2022-02-08-11:09:44.266208,2.0,1.0,350.0
2022-02-08-11:09:44.267213,2.0,1.0,350.0
2022-02-08-11:09:44.268237,6.0,1.0,350.0
2022-02-08-11:09:44.269232,6.0,1.0,350.0
2022-02-08-11:09:44.270230,8.0,1.0,350.0
2022-02-08-11:09:44.271195,8.0,1.0,350.0
2022-02-08-11:09:44.272224,1.0,0.0,350.0
2022-02-08-11:09:44.273221,5.0,1.0,350.0
2022-02-08-11:09:44.274220,13.0,0.0,350.0
2022-02-08-11:09:44.275194,13.0,0.0,350.0
2022-02-08-11:09:44.276216,7.0,6.0,350.0
2022-02-08-11:09:44.278209,7.0,6.0,350.0
2022-02-08-11:09:44.278209,5.0,9.0,350.0
2022-02-08-11:09:44.279207,3.0,7.0,350.0
2022-02-08-11:09:44.280206,5.0,6.0,350.0
2022-02-08-11:09:44.281202,1.0,8.0,350.0
2022-02-08-11:09:44.282198,1.0,8.0,350.0
2022-02-08-11:09:44.283195,1.0,8.0,350.0
2022-02-08-11:09:44.284195,1.0,8.0,350.0
2022-02-08-11:09:44.285159,1.0,6.0,350.0
2022-02-08-11:09:44.286187,1.0,0.0,349.0
2022-02-08-11:09:44.287185,0.0,2.0,350.0
2022-02-08-11:09:44.288182,0.0,2.0,350.0
2022-02-08-11:09:44.289179,2.0,5.0,350.0
2022-02-08-11:09:44.290171,11.0,10.0,350.0
2022-02-08-11:09:44.291166,8.0,5.0,350.0
2022-02-08-11:09:44.292174,8.0,5.0,350.0
2022-02-08-11:09:44.293168,9.0,9.0,350.0
2022-02-08-11:09:44.294158,9.0,9.0,350.0
2022-02-08-11:09:44.295157,5.0,10.0,350.0
2022-02-08-11:09:44.296153,1.0,5.0,350.0
2022-02-08-11:09:44.297154,6.0,5.0,350.0
2022-02-08-11:09:44.298124,0.0,2.0,350.0
2022-02-08-11:09:44.299145,0.0,2.0,350.0
2022-02-08-11:09:44.300145,0.0,2.0,350.0
2022-02-08-11:09:44.301144,1.0,3.0,350.0
2022-02-08-11:09:44.302137,3.0,13.0,350.0
2022-02-08-11:09:44.303135,5.0,8.0,350.0
2022-02-08-11:09:44.304132,5.0,8.0,350.0
2022-02-08-11:09:44.305129,9.0,4.0,350.0
2022-02-08-11:09:44.306127,6.0,0.0,350.0
2022-02-08-11:09:44.307124,6.0,5.0,350.0
2022-02-08-11:09:44.308097,6.0,5.0,350.0
2022-02-08-11:09:44.309119,5.0,4.0,350.0
2022-02-08-11:09:44.310091,6.0,16.0,350.0
2022-02-08-11:09:44.312087,5.0,16.0,350.0
2022-02-08-11:09:44.312087,3.0,9.0,350.0
2022-02-08-11:09:44.313093,1.0,6.0,350.0
2022-02-08-11:09:44.314081,1.0,6.0,350.0
2022-02-08-11:09:44.315078,1.0,6.0,350.0
2022-02-08-11:09:44.316122,1.0,6.0,350.0
2022-02-08-11:09:44.317120,3.0,4.0,350.0
2022-02-08-11:09:44.318120,2.0,5.0,350.0
2022-02-08-11:09:44.319115,6.0,3.0,350.0
2022-02-08-11:09:44.320114,6.0,3.0,350.0
2022-02-08-11:09:44.321109,6.0,3.0,350.0
2022-02-08-11:09:44.322107,6.0,6.0,350.0
2022-02-08-11:09:44.323103,11.0,1.0,350.0
2022-02-08-11:09:44.324103,11.0,1.0,350.0
2022-02-08-11:09:44.325106,11.0,1.0,350.0
2022-02-08-11:09:44.326095,10.0,0.0,350.0
2022-02-08-11:09:44.327094,8.0,10.0,350.0
2022-02-08-11:09:44.328069,7.0,7.0,350.0
2022-02-08-11:09:44.329088,7.0,7.0,350.0
2022-02-08-11:09:44.330038,3.0,5.0,350.0
2022-02-08-11:09:44.331047,3.0,3.0,350.0
2022-02-08-11:09:44.332079,3.0,3.0,350.0
2022-02-08-11:09:44.333080,3.0,3.0,350.0
2022-02-08-11:09:44.334076,4.0,9.0,350.0
2022-02-08-11:09:44.335052,3.0,3.0,350.0
2022-02-08-11:09:44.336071,4.0,0.0,350.0
2022-02-08-11:09:44.337066,4.0,0.0,350.0
2022-02-08-11:09:44.338064,1.0,2.0,350.0
2022-02-08-11:09:44.339061,9.0,15.0,350.0
2022-02-08-11:09:44.340058,9.0,5.0,350.0
2022-02-08-11:09:44.341009,9.0,5.0,350.0
2022-02-08-11:09:44.342053,8.0,4.0,350.0
2022-02-08-11:09:44.343051,6.0,2.0,350.0
2022-02-08-11:09:44.344050,6.0,1.0,350.0
2022-02-08-11:09:44.344998,6.0,1.0,350.0
2022-02-08-11:09:44.347090,1.0,0.0,350.0
2022-02-08-11:09:44.347732,6.0,2.0,350.0
2022-02-08-11:09:44.347732,6.0,2.0,350.0
2022-02-08-11:09:44.348764,6.0,2.0,350.0
2022-02-08-11:09:44.349774,6.0,2.0,350.0
2022-02-08-11:09:44.350752,1.0,0.0,350.0
2022-02-08-11:09:44.351748,4.0,1.0,350.0
2022-02-08-11:09:44.352745,4.0,1.0,350.0
2022-02-08-11:09:44.353750,4.0,1.0,350.0
2022-02-08-11:09:44.354747,1.0,1.0,350.0
2022-02-08-11:09:44.355747,7.0,7.0,350.0
2022-02-08-11:09:44.356742,7.0,7.0,350.0
2022-02-08-11:09:44.357739,7.0,7.0,350.0
2022-02-08-11:09:44.358738,12.0,8.0,350.0
2022-02-08-11:09:44.359739,10.0,18.0,350.0
2022-02-08-11:09:44.360731,10.0,18.0,350.0
2022-02-08-11:09:44.361731,10.0,18.0,350.0
2022-02-08-11:09:44.362718,0.0,1.0,350.0
2022-02-08-11:09:44.363692,7.0,2.0,350.0
2022-02-08-11:09:44.364691,7.0,2.0,350.0
2022-02-08-11:09:44.365710,7.0,2.0,350.0
2022-02-08-11:09:44.366709,4.0,6.0,350.0
2022-02-08-11:09:44.367705,0.0,5.0,350.0
2022-02-08-11:09:44.368702,0.0,5.0,350.0
2022-02-08-11:09:44.369701,0.0,5.0,350.0
2022-02-08-11:09:44.370697,1.0,6.0,350.0
2022-02-08-11:09:44.371697,8.0,1.0,350.0
2022-02-08-11:09:44.372668,8.0,1.0,350.0
2022-02-08-11:09:44.373665,8.0,1.0,350.0
2022-02-08-11:09:44.374687,12.0,2.0,350.0
2022-02-08-11:09:44.375684,7.0,8.0,350.0
2022-02-08-11:09:44.376686,7.0,8.0,350.0
2022-02-08-11:09:44.377655,7.0,8.0,350.0
2022-02-08-11:09:44.378676,0.0,10.0,350.0
2022-02-08-11:09:44.380670,0.0,10.0,350.0
2022-02-08-11:09:44.380670,0.0,3.0,350.0
2022-02-08-11:09:44.381648,0.0,3.0,350.0
2022-02-08-11:09:44.382666,3.0,7.0,350.0
2022-02-08-11:09:44.383663,4.0,11.0,350.0
2022-02-08-11:09:44.384659,4.0,11.0,350.0
2022-02-08-11:09:44.385657,4.0,11.0,350.0
2022-02-08-11:09:44.386654,4.0,11.0,350.0
2022-02-08-11:09:44.387654,7.0,5.0,350.0
2022-02-08-11:09:44.388651,7.0,5.0,350.0
2022-02-08-11:09:44.389648,7.0,5.0,350.0
2022-02-08-11:09:44.390645,7.0,5.0,350.0
2022-02-08-11:09:44.391641,11.0,4.0,350.0
2022-02-08-11:09:44.392639,5.0,2.0,350.0
2022-02-08-11:09:44.393636,5.0,2.0,350.0
2022-02-08-11:09:44.394633,5.0,2.0,350.0
2022-02-08-11:09:44.395634,8.0,11.0,350.0
2022-02-08-11:09:44.396604,8.0,11.0,350.0
2022-02-08-11:09:44.397610,0.0,10.0,350.0
2022-02-08-11:09:44.398624,0.0,5.0,350.0
2022-02-08-11:09:44.399620,1.0,9.0,350.0
2022-02-08-11:09:44.400617,1.0,9.0,350.0
2022-02-08-11:09:44.401614,1.0,9.0,350.0
2022-02-08-11:09:44.402620,1.0,9.0,350.0
2022-02-08-11:09:44.403615,2.0,11.0,350.0
2022-02-08-11:09:44.404609,7.0,3.0,350.0
2022-02-08-11:09:44.405603,7.0,3.0,350.0
2022-02-08-11:09:44.406610,7.0,3.0,350.0
2022-02-08-11:09:44.407606,10.0,6.0,350.0
2022-02-08-11:09:44.408596,11.0,4.0,350.0
2022-02-08-11:09:44.409602,12.0,2.0,350.0
2022-02-08-11:09:44.410566,12.0,2.0,350.0
2022-02-08-11:09:44.411590,12.0,3.0,350.0
2022-02-08-11:09:44.412585,3.0,7.0,350.0
2022-02-08-11:09:44.414556,3.0,7.0,350.0
2022-02-08-11:09:44.414556,3.0,7.0,350.0
2022-02-08-11:09:44.415587,5.0,27.0,350.0
2022-02-08-11:09:44.416574,1.0,7.0,350.0
2022-02-08-11:09:44.417573,1.0,7.0,350.0
2022-02-08-11:09:44.418559,1.0,7.0,350.0
2022-02-08-11:09:44.419578,3.0,3.0,350.0
2022-02-08-11:09:44.420573,6.0,0.0,350.0
2022-02-08-11:09:44.421570,6.0,0.0,350.0
2022-02-08-11:09:44.422538,6.0,0.0,350.0
2022-02-08-11:09:44.423563,6.0,0.0,350.0
2022-02-08-11:09:44.424565,8.0,21.0,350.0
2022-02-08-11:09:44.425530,8.0,21.0,350.0
2022-02-08-11:09:44.426523,8.0,21.0,350.0
2022-02-08-11:09:44.427522,8.0,21.0,350.0
2022-02-08-11:09:44.428518,7.0,18.0,350.0
2022-02-08-11:09:44.429516,3.0,10.0,350.0
2022-02-08-11:09:44.430518,3.0,10.0,350.0
2022-02-08-11:09:44.431521,3.0,4.0,350.0
2022-02-08-11:09:44.432523,2.0,2.0,350.0
2022-02-08-11:09:44.433537,2.0,3.0,350.0
2022-02-08-11:09:44.434534,11.0,1.0,350.0
2022-02-08-11:09:44.435534,11.0,1.0,350.0
2022-02-08-11:09:44.436529,5.0,6.0,350.0
2022-02-08-11:09:44.437527,6.0,3.0,350.0
2022-02-08-11:09:44.438524,6.0,3.0,350.0
2022-02-08-11:09:44.439521,6.0,3.0,350.0
2022-02-08-11:09:44.440485,12.0,7.0,350.0
2022-02-08-11:09:44.441484,9.0,1.0,350.0
2022-02-08-11:09:44.442481,9.0,1.0,350.0
2022-02-08-11:09:44.443478,9.0,1.0,350.0
2022-02-08-11:09:44.444476,2.0,6.0,350.0
2022-02-08-11:09:44.445473,1.0,4.0,350.0
2022-02-08-11:09:44.446571,1.0,4.0,350.0
2022-02-08-11:09:44.447492,1.0,4.0,350.0
2022-02-08-11:09:44.448521,1.0,9.0,350.0
2022-02-08-11:09:44.449469,4.0,17.0,350.0
2022-02-08-11:09:44.451603,4.0,17.0,350.0
2022-02-08-11:09:44.451603,2.0,4.0,350.0
2022-02-08-11:09:44.452479,3.0,0.0,350.0
2022-02-08-11:09:44.453489,3.0,0.0,350.0
2022-02-08-11:09:44.454451,3.0,0.0,350.0
2022-02-08-11:09:44.455451,3.0,0.0,350.0
2022-02-08-11:09:44.456443,15.0,5.0,350.0
2022-02-08-11:09:44.457443,12.0,10.0,350.0
2022-02-08-11:09:44.458438,12.0,10.0,350.0
2022-02-08-11:09:44.459436,12.0,10.0,350.0
2022-02-08-11:09:44.460439,1.0,5.0,350.0
2022-02-08-11:09:44.461432,2.0,9.0,350.0
2022-02-08-11:09:44.462427,2.0,9.0,350.0
2022-02-08-11:09:44.463424,2.0,9.0,350.0
2022-02-08-11:09:44.464422,2.0,9.0,350.0
2022-02-08-11:09:44.465419,1.0,2.0,350.0
2022-02-08-11:09:44.466419,1.0,2.0,350.0
2022-02-08-11:09:44.467418,1.0,2.0,350.0
2022-02-08-11:09:44.468411,1.0,2.0,350.0
2022-02-08-11:09:44.469408,4.0,1.0,350.0
2022-02-08-11:09:44.470406,1.0,10.0,350.0
2022-02-08-11:09:44.471403,1.0,10.0,350.0
2022-02-08-11:09:44.472400,1.0,10.0,350.0
2022-02-08-11:09:44.473454,6.0,5.0,350.0
2022-02-08-11:09:44.474430,12.0,25.0,350.0
2022-02-08-11:09:44.475431,12.0,25.0,350.0
2022-02-08-11:09:44.476424,12.0,25.0,350.0
2022-02-08-11:09:44.477428,11.0,16.0,350.0
2022-02-08-11:09:44.478420,2.0,2.0,350.0
2022-02-08-11:09:44.479402,2.0,2.0,350.0
2022-02-08-11:09:44.480395,2.0,2.0,350.0
2022-02-08-11:09:44.481388,1.0,2.0,350.0
2022-02-08-11:09:44.482435,3.0,2.0,350.0
2022-02-08-11:09:44.483426,3.0,2.0,350.0
2022-02-08-11:09:44.484427,3.0,2.0,350.0
2022-02-08-11:09:44.486424,4.0,1.0,350.0
2022-02-08-11:09:44.486424,4.0,1.0,350.0
2022-02-08-11:09:44.487418,6.0,2.0,350.0
2022-02-08-11:09:44.488359,3.0,8.0,350.0
2022-02-08-11:09:44.489411,7.0,6.0,350.0
2022-02-08-11:09:44.490407,8.0,20.0,350.0
2022-02-08-11:09:44.491404,10.0,7.0,350.0
2022-02-08-11:09:44.492348,10.0,7.0,350.0
2022-02-08-11:09:44.493400,7.0,3.0,350.0
2022-02-08-11:09:44.494398,1.0,6.0,350.0
2022-02-08-11:09:44.495397,0.0,19.0,350.0
2022-02-08-11:09:44.496391,0.0,19.0,350.0
2022-02-08-11:09:44.497371,6.0,7.0,350.0
2022-02-08-11:09:44.498332,4.0,3.0,350.0
2022-02-08-11:09:44.499329,4.0,3.0,350.0
2022-02-08-11:09:44.500389,4.0,3.0,350.0
2022-02-08-11:09:44.501358,4.0,5.0,350.0
2022-02-08-11:09:44.502376,1.0,5.0,350.0
2022-02-08-11:09:44.503375,2.0,2.0,350.0
2022-02-08-11:09:44.504370,2.0,5.0,350.0
2022-02-08-11:09:44.505368,2.0,5.0,350.0
2022-02-08-11:09:44.506364,3.0,2.0,350.0
2022-02-08-11:09:44.507362,11.0,5.0,350.0
2022-02-08-11:09:44.508359,11.0,2.0,350.0
2022-02-08-11:09:44.509356,11.0,2.0,350.0
2022-02-08-11:09:44.510355,9.0,0.0,350.0
2022-02-08-11:09:44.511359,4.0,8.0,350.0
2022-02-08-11:09:44.512355,2.0,5.0,350.0
2022-02-08-11:09:44.513293,2.0,5.0,350.0
2022-02-08-11:09:44.514318,1.0,12.0,350.0
2022-02-08-11:09:44.515340,4.0,14.0,350.0
2022-02-08-11:09:44.516341,2.0,3.0,350.0
2022-02-08-11:09:44.517283,2.0,3.0,350.0
2022-02-08-11:09:44.518312,5.0,8.0,350.0
2022-02-08-11:09:44.519301,1.0,14.0,350.0
2022-02-08-11:09:44.520276,1.0,14.0,350.0
2022-02-08-11:09:44.522267,1.0,14.0,350.0
2022-02-08-11:09:44.522267,1.0,14.0,350.0
2022-02-08-11:09:44.523276,10.0,22.0,350.0
2022-02-08-11:09:44.524262,7.0,19.0,350.0
2022-02-08-11:09:44.525260,7.0,19.0,350.0
2022-02-08-11:09:44.526284,8.0,12.0,350.0
2022-02-08-11:09:44.527281,4.0,3.0,350.0
2022-02-08-11:09:44.528303,0.0,4.0,350.0
2022-02-08-11:09:44.529250,0.0,4.0,350.0
2022-02-08-11:09:44.530247,1.0,7.0,350.0
2022-02-08-11:09:44.531291,2.0,8.0,350.0
2022-02-08-11:09:44.532291,4.0,10.0,350.0
2022-02-08-11:09:44.533272,4.0,10.0,350.0
2022-02-08-11:09:44.534284,4.0,4.0,350.0
2022-02-08-11:09:44.535283,4.0,4.0,350.0
2022-02-08-11:09:44.536259,1.0,5.0,350.0
2022-02-08-11:09:44.537228,1.0,5.0,350.0
2022-02-08-11:09:44.538224,7.0,5.0,350.0
2022-02-08-11:09:44.539380,9.0,3.0,350.0
2022-02-08-11:09:44.540254,9.0,3.0,350.0
2022-02-08-11:09:44.541250,9.0,3.0,350.0
2022-02-08-11:09:44.542231,9.0,3.0,350.0
2022-02-08-11:09:44.543225,11.0,30.0,350.0
2022-02-08-11:09:44.544218,2.0,7.0,350.0
2022-02-08-11:09:44.545325,2.0,7.0,350.0
2022-02-08-11:09:44.546243,2.0,7.0,350.0
2022-02-08-11:09:44.547333,3.0,4.0,350.0
2022-02-08-11:09:44.548202,3.0,4.0,350.0
2022-02-08-11:09:44.549195,3.0,4.0,350.0
2022-02-08-11:09:44.550281,3.0,4.0,350.0
2022-02-08-11:09:44.551340,4.0,3.0,350.0
2022-02-08-11:09:44.552288,0.0,1.0,350.0
2022-02-08-11:09:44.553196,0.0,1.0,350.0
2022-02-08-11:09:44.555197,0.0,1.0,350.0
2022-02-08-11:09:44.555197,8.0,24.0,350.0
2022-02-08-11:09:44.556198,12.0,2.0,350.0
2022-02-08-11:09:44.557195,12.0,2.0,350.0
2022-02-08-11:09:44.558185,12.0,2.0,350.0
2022-02-08-11:09:44.559180,8.0,2.0,350.0
2022-02-08-11:09:44.560181,1.0,5.0,350.0
2022-02-08-11:09:44.561167,1.0,5.0,350.0
2022-02-08-11:09:44.562162,1.0,5.0,350.0
2022-02-08-11:09:44.563194,2.0,6.0,350.0
2022-02-08-11:09:44.564164,1.0,7.0,350.0
2022-02-08-11:09:44.565187,1.0,7.0,350.0
2022-02-08-11:09:44.566150,1.0,7.0,350.0
2022-02-08-11:09:44.567183,1.0,6.0,350.0
2022-02-08-11:09:44.568145,3.0,3.0,350.0
2022-02-08-11:09:44.568145,2.0,6.0,350.0
2022-02-08-11:09:44.569175,2.0,6.0,350.0
2022-02-08-11:09:44.570149,2.0,6.0,350.0
2022-02-08-11:09:44.571177,1.0,5.0,350.0
2022-02-08-11:09:44.572185,8.0,5.0,350.0
2022-02-08-11:09:44.573211,10.0,11.0,350.0
2022-02-08-11:09:44.574218,10.0,11.0,350.0
2022-02-08-11:09:44.575245,7.0,3.0,350.0
2022-02-08-11:09:44.576271,3.0,2.0,350.0
2022-02-08-11:09:44.576271,3.0,2.0,350.0
2022-02-08-11:09:44.577319,3.0,2.0,350.0
2022-02-08-11:09:44.578321,3.0,2.0,350.0
2022-02-08-11:09:44.578321,2.0,0.0,350.0
2022-02-08-11:09:44.579375,5.0,17.0,350.0
2022-02-08-11:09:44.580725,5.0,6.0,350.0
2022-02-08-11:09:44.580725,5.0,6.0,350.0
2022-02-08-11:09:44.581718,5.0,6.0,350.0
2022-02-08-11:09:44.582771,5.0,6.0,350.0
2022-02-08-11:09:44.583823,3.0,1.0,350.0
2022-02-08-11:09:44.584802,0.0,4.0,350.0
2022-02-08-11:09:44.586819,0.0,4.0,350.0
2022-02-08-11:09:44.586819,0.0,4.0,350.0
2022-02-08-11:09:44.587793,0.0,1.0,350.0
2022-02-08-11:09:44.588811,10.0,3.0,350.0
2022-02-08-11:09:44.589808,6.0,8.0,350.0
2022-02-08-11:09:44.590752,6.0,8.0,350.0
2022-02-08-11:09:44.591802,9.0,3.0,350.0
2022-02-08-11:09:44.592800,7.0,1.0,350.0
2022-02-08-11:09:44.593798,3.0,0.0,350.0
2022-02-08-11:09:44.594742,3.0,0.0,350.0
2022-02-08-11:09:44.595792,0.0,6.0,350.0
2022-02-08-11:09:44.596753,2.0,0.0,350.0
2022-02-08-11:09:44.597786,1.0,10.0,350.0
2022-02-08-11:09:44.598786,1.0,10.0,350.0
2022-02-08-11:09:44.599728,3.0,15.0,350.0
2022-02-08-11:09:44.600764,1.0,14.0,350.0
2022-02-08-11:09:44.601755,1.0,22.0,350.0
2022-02-08-11:09:44.602720,3.0,18.0,350.0
2022-02-08-11:09:44.603718,3.0,18.0,350.0
2022-02-08-11:09:44.604741,5.0,0.0,350.0
2022-02-08-11:09:44.605738,11.0,3.0,350.0
2022-02-08-11:09:44.606715,11.0,3.0,350.0
2022-02-08-11:09:44.607715,11.0,3.0,350.0
2022-02-08-11:09:44.608728,9.0,6.0,350.0
2022-02-08-11:09:44.609701,8.0,12.0,350.0
2022-02-08-11:09:44.610698,8.0,12.0,350.0
2022-02-08-11:09:44.611695,8.0,12.0,350.0
2022-02-08-11:09:44.612695,4.0,10.0,350.0
2022-02-08-11:09:44.613701,2.0,10.0,350.0
2022-02-08-11:09:44.614695,2.0,10.0,350.0
2022-02-08-11:09:44.615729,2.0,10.0,350.0
2022-02-08-11:09:44.616728,2.0,3.0,350.0
2022-02-08-11:09:44.617724,2.0,1.0,350.0
2022-02-08-11:09:44.619720,3.0,7.0,350.0
2022-02-08-11:09:44.619720,1.0,4.0,350.0
2022-02-08-11:09:44.620674,5.0,10.0,350.0
2022-02-08-11:09:44.621793,7.0,19.0,350.0
2022-02-08-11:09:44.622762,7.0,19.0,350.0
2022-02-08-11:09:44.623722,7.0,19.0,350.0
2022-02-08-11:09:44.624688,12.0,21.0,350.0
2022-02-08-11:09:44.625661,8.0,8.0,350.0
2022-02-08-11:09:44.626690,6.0,2.0,350.0
2022-02-08-11:09:44.627653,6.0,2.0,350.0
2022-02-08-11:09:44.628690,1.0,4.0,350.0
2022-02-08-11:09:44.629680,3.0,3.0,350.0
2022-02-08-11:09:44.630644,3.0,3.0,350.0
2022-02-08-11:09:44.631651,3.0,3.0,350.0
2022-02-08-11:09:44.632640,3.0,4.0,350.0
2022-02-08-11:09:44.633637,5.0,2.0,350.0
2022-02-08-11:09:44.634661,1.0,3.0,350.0
2022-02-08-11:09:44.635658,1.0,3.0,350.0
2022-02-08-11:09:44.636629,1.0,9.0,350.0
2022-02-08-11:09:44.637664,6.0,7.0,350.0
2022-02-08-11:09:44.638623,6.0,7.0,350.0
2022-02-08-11:09:44.639621,6.0,7.0,350.0
2022-02-08-11:09:44.640643,6.0,7.0,350.0
2022-02-08-11:09:44.641671,8.0,17.0,350.0
2022-02-08-11:09:44.642613,7.0,11.0,350.0
2022-02-08-11:09:44.643610,7.0,11.0,350.0
2022-02-08-11:09:44.644607,7.0,11.0,350.0
2022-02-08-11:09:44.645638,7.0,14.0,350.0
2022-02-08-11:09:44.646603,0.0,6.0,350.0
2022-02-08-11:09:44.647627,2.0,9.0,350.0
2022-02-08-11:09:44.648623,2.0,9.0,350.0
2022-02-08-11:09:44.649622,2.0,3.0,350.0
2022-02-08-11:09:44.650620,2.0,8.0,350.0
2022-02-08-11:09:44.651589,3.0,9.0,350.0
2022-02-08-11:09:44.652588,3.0,9.0,350.0
2022-02-08-11:09:44.653584,5.0,7.0,350.0
2022-02-08-11:09:44.654581,4.0,0.0,350.0
2022-02-08-11:09:44.656576,7.0,4.0,350.0
2022-02-08-11:09:44.656576,7.0,4.0,350.0
2022-02-08-11:09:44.657573,11.0,2.0,350.0
2022-02-08-11:09:44.658571,9.0,1.0,350.0
2022-02-08-11:09:44.659602,9.0,5.0,350.0
2022-02-08-11:09:44.660601,9.0,5.0,350.0
2022-02-08-11:09:44.661597,6.0,6.0,350.0
2022-02-08-11:09:44.662594,2.0,4.0,350.0
2022-02-08-11:09:44.663557,2.0,4.0,350.0
2022-02-08-11:09:44.664555,2.0,4.0,350.0
2022-02-08-11:09:44.665585,4.0,4.0,350.0
2022-02-08-11:09:44.666584,4.0,4.0,350.0
2022-02-08-11:09:44.667580,4.0,4.0,350.0
2022-02-08-11:09:44.668544,4.0,4.0,350.0
2022-02-08-11:09:44.669583,2.0,4.0,350.0
2022-02-08-11:09:44.670573,2.0,4.0,350.0
2022-02-08-11:09:44.671536,0.0,2.0,350.0
2022-02-08-11:09:44.672534,6.0,9.0,350.0
2022-02-08-11:09:44.673565,7.0,17.0,350.0
2022-02-08-11:09:44.674563,9.0,13.0,350.0
2022-02-08-11:09:44.675551,11.0,7.0,350.0
2022-02-08-11:09:44.676551,11.0,7.0,350.0
2022-02-08-11:09:44.677544,1.0,7.0,350.0
2022-02-08-11:09:44.678542,3.0,9.0,350.0
2022-02-08-11:09:44.679541,3.0,9.0,350.0
2022-02-08-11:09:44.680547,3.0,9.0,350.0
2022-02-08-11:09:44.681554,3.0,9.0,350.0
2022-02-08-11:09:44.682664,5.0,0.0,350.0
2022-02-08-11:09:44.683575,8.0,13.0,350.0
2022-02-08-11:09:44.684526,8.0,13.0,350.0
2022-02-08-11:09:44.685512,8.0,13.0,350.0
2022-02-08-11:09:44.686562,1.0,3.0,350.0
2022-02-08-11:09:44.687546,3.0,11.0,350.0
2022-02-08-11:09:44.688538,3.0,11.0,350.0
2022-02-08-11:09:44.689490,3.0,11.0,350.0
2022-02-08-11:09:44.691482,4.0,11.0,350.0
2022-02-08-11:09:44.692481,8.0,9.0,350.0
2022-02-08-11:09:44.693513,9.0,1.0,349.0
2022-02-08-11:09:44.694474,10.0,6.0,350.0
2022-02-08-11:09:44.695472,1.0,6.0,350.0
2022-02-08-11:09:44.696469,5.0,5.0,350.0
2022-02-08-11:09:44.697466,5.0,5.0,350.0
2022-02-08-11:09:44.698498,7.0,1.0,350.0
2022-02-08-11:09:44.699513,1.0,4.0,350.0
2022-02-08-11:09:44.700498,1.0,19.0,350.0
2022-02-08-11:09:44.701493,5.0,7.0,350.0
2022-02-08-11:09:44.702488,4.0,10.0,350.0
2022-02-08-11:09:44.703493,4.0,12.0,350.0
2022-02-08-11:09:44.704448,1.0,3.0,350.0
2022-02-08-11:09:44.705446,1.0,4.0,350.0
2022-02-08-11:09:44.706469,9.0,9.0,350.0
2022-02-08-11:09:44.707440,11.0,11.0,350.0
2022-02-08-11:09:44.708438,11.0,11.0,350.0
2022-02-08-11:09:44.709445,11.0,11.0,350.0
2022-02-08-11:09:44.710456,8.0,5.0,350.0
2022-02-08-11:09:44.711429,4.0,4.0,350.0
2022-02-08-11:09:44.712427,4.0,4.0,350.0
2022-02-08-11:09:44.713428,4.0,4.0,350.0
2022-02-08-11:09:44.714459,2.0,15.0,350.0
2022-02-08-11:09:44.715419,2.0,15.0,350.0
2022-02-08-11:09:44.716415,2.0,15.0,350.0
2022-02-08-11:09:44.717413,2.0,15.0,350.0
2022-02-08-11:09:44.718410,2.0,15.0,350.0
2022-02-08-11:09:44.719408,4.0,1.0,350.0
2022-02-08-11:09:44.720431,3.0,4.0,350.0
2022-02-08-11:09:44.722400,0.0,1.0,350.0
2022-02-08-11:09:44.722400,0.0,1.0,350.0
2022-02-08-11:09:44.723397,9.0,10.0,350.0
2022-02-08-11:09:44.724394,9.0,10.0,350.0
2022-02-08-11:09:44.725392,9.0,10.0,350.0
2022-02-08-11:09:44.726389,9.0,10.0,350.0
2022-02-08-11:09:44.727386,12.0,16.0,350.0
2022-02-08-11:09:44.728408,6.0,11.0,350.0
2022-02-08-11:09:44.729381,3.0,9.0,350.0
2022-02-08-11:09:44.730380,3.0,9.0,350.0
2022-02-08-11:09:44.731377,1.0,4.0,350.0
2022-02-08-11:09:44.732377,2.0,12.0,350.0
2022-02-08-11:09:44.733371,2.0,12.0,350.0
2022-02-08-11:09:44.734367,2.0,12.0,350.0
2022-02-08-11:09:44.735399,5.0,4.0,350.0
2022-02-08-11:09:44.736364,3.0,2.0,350.0
2022-02-08-11:09:44.737360,5.0,6.0,350.0
2022-02-08-11:09:44.738357,5.0,6.0,350.0
2022-02-08-11:09:44.739409,5.0,6.0,350.0
2022-02-08-11:09:44.740379,4.0,1.0,350.0
2022-02-08-11:09:44.741381,10.0,1.0,350.0
2022-02-08-11:09:44.742349,11.0,3.0,350.0
2022-02-08-11:09:44.743370,6.0,10.0,350.0
2022-02-08-11:09:44.744367,1.0,10.0,350.0
2022-02-08-11:09:44.745339,1.0,10.0,350.0
2022-02-08-11:09:44.746336,1.0,10.0,350.0
2022-02-08-11:09:44.747358,3.0,4.0,350.0
2022-02-08-11:09:44.748331,3.0,4.0,350.0
2022-02-08-11:09:44.749356,3.0,4.0,350.0
2022-02-08-11:09:44.750357,3.0,4.0,350.0
2022-02-08-11:09:44.751349,6.0,5.0,350.0
2022-02-08-11:09:44.752354,1.0,17.0,350.0
2022-02-08-11:09:44.753345,1.0,17.0,350.0
2022-02-08-11:09:44.754340,1.0,17.0,350.0
2022-02-08-11:09:44.755312,3.0,9.0,350.0
2022-02-08-11:09:44.757306,8.0,11.0,350.0
2022-02-08-11:09:44.757306,6.0,7.0,350.0
2022-02-08-11:09:44.758330,6.0,7.0,350.0
2022-02-08-11:09:44.759301,6.0,7.0,350.0
2022-02-08-11:09:44.760298,3.0,17.0,350.0
2022-02-08-11:09:44.761297,0.0,3.0,350.0
2022-02-08-11:09:44.762293,0.0,3.0,350.0
2022-02-08-11:09:44.763315,0.0,3.0,350.0
2022-02-08-11:09:44.764288,6.0,8.0,350.0
2022-02-08-11:09:44.765285,6.0,8.0,350.0
2022-02-08-11:09:44.766282,6.0,8.0,350.0
2022-02-08-11:09:44.767280,6.0,8.0,350.0
2022-02-08-11:09:44.768277,0.0,14.0,350.0
2022-02-08-11:09:44.769274,2.0,19.0,350.0
2022-02-08-11:09:44.770272,1.0,17.0,350.0
2022-02-08-11:09:44.771281,1.0,17.0,350.0
2022-02-08-11:09:44.772267,10.0,9.0,350.0
2022-02-08-11:09:44.773290,10.0,9.0,350.0
2022-02-08-11:09:44.774295,10.0,9.0,350.0
2022-02-08-11:09:44.775287,10.0,9.0,350.0
2022-02-08-11:09:44.776282,9.0,3.0,350.0
2022-02-08-11:09:44.777279,4.0,3.0,350.0
2022-02-08-11:09:44.778277,4.0,3.0,350.0
2022-02-08-11:09:44.779273,4.0,3.0,350.0
2022-02-08-11:09:44.780246,1.0,8.0,350.0
2022-02-08-11:09:44.781253,3.0,5.0,350.0
2022-02-08-11:09:44.782239,3.0,5.0,350.0
2022-02-08-11:09:44.783237,3.0,5.0,350.0
2022-02-08-11:09:44.784261,5.0,5.0,350.0
2022-02-08-11:09:44.785232,2.0,6.0,350.0
2022-02-08-11:09:44.786230,2.0,6.0,350.0
2022-02-08-11:09:44.787232,2.0,6.0,350.0
2022-02-08-11:09:44.788224,5.0,4.0,350.0
2022-02-08-11:09:44.789222,5.0,3.0,350.0
2022-02-08-11:09:44.790218,10.0,3.0,350.0
2022-02-08-11:09:44.791216,10.0,3.0,350.0
2022-02-08-11:09:44.794209,7.0,14.0,350.0
2022-02-08-11:09:44.794209,3.0,3.0,350.0
2022-02-08-11:09:44.795207,3.0,3.0,350.0
2022-02-08-11:09:44.796203,3.0,3.0,350.0
2022-02-08-11:09:44.797207,0.0,7.0,350.0
2022-02-08-11:09:44.798198,6.0,13.0,350.0
2022-02-08-11:09:44.799195,3.0,27.0,350.0
2022-02-08-11:09:44.800192,3.0,27.0,350.0
2022-02-08-11:09:44.801189,1.0,24.0,350.0
2022-02-08-11:09:44.802186,1.0,6.0,350.0
2022-02-08-11:09:44.803209,1.0,6.0,350.0
2022-02-08-11:09:44.804187,1.0,6.0,350.0
2022-02-08-11:09:44.805207,8.0,10.0,350.0
2022-02-08-11:09:44.806176,9.0,6.0,350.0
2022-02-08-11:09:44.807173,11.0,1.0,350.0
2022-02-08-11:09:44.808211,11.0,1.0,350.0
2022-02-08-11:09:44.809193,9.0,3.0,350.0
2022-02-08-11:09:44.810192,2.0,1.0,350.0
2022-02-08-11:09:44.811192,2.0,1.0,350.0
2022-02-08-11:09:44.812196,2.0,1.0,350.0
2022-02-08-11:09:44.813157,1.0,19.0,350.0
2022-02-08-11:09:44.814154,3.0,7.0,350.0
2022-02-08-11:09:44.815174,3.0,7.0,350.0
2022-02-08-11:09:44.816149,3.0,7.0,350.0
2022-02-08-11:09:44.817147,3.0,6.0,350.0
2022-02-08-11:09:44.818152,4.0,7.0,350.0
2022-02-08-11:09:44.819166,3.0,6.0,350.0
2022-02-08-11:09:44.820139,3.0,6.0,350.0
2022-02-08-11:09:44.821136,3.0,16.0,350.0
2022-02-08-11:09:44.822133,6.0,12.0,350.0
2022-02-08-11:09:44.823157,9.0,7.0,350.0
2022-02-08-11:09:44.826124,8.0,2.0,350.0
2022-02-08-11:09:44.826124,4.0,9.0,350.0
2022-02-08-11:09:44.827120,4.0,9.0,350.0
2022-02-08-11:09:44.828117,4.0,9.0,350.0
2022-02-08-11:09:44.829114,4.0,9.0,350.0
2022-02-08-11:09:44.830112,1.0,6.0,350.0
2022-02-08-11:09:44.831110,7.0,7.0,350.0
2022-02-08-11:09:44.832107,2.0,35.0,350.0
2022-02-08-11:09:44.833104,2.0,35.0,350.0
2022-02-08-11:09:44.834102,0.0,22.0,350.0
2022-02-08-11:09:44.835098,5.0,21.0,350.0
2022-02-08-11:09:44.836096,5.0,21.0,350.0
2022-02-08-11:09:44.837093,5.0,21.0,350.0
2022-02-08-11:09:44.838091,5.0,20.0,350.0
2022-02-08-11:09:44.839088,6.0,5.0,350.0
2022-02-08-11:09:44.840085,9.0,11.0,350.0
2022-02-08-11:09:44.841083,9.0,11.0,350.0
2022-02-08-11:09:44.842080,8.0,30.0,350.0
2022-02-08-11:09:44.843077,8.0,30.0,350.0
2022-02-08-11:09:44.844075,12.0,30.0,350.0
2022-02-08-11:09:44.845072,12.0,23.0,350.0
2022-02-08-11:09:44.846071,6.0,29.0,350.0
2022-02-08-11:09:44.847066,6.0,29.0,350.0
2022-02-08-11:09:44.848077,3.0,15.0,350.0
2022-02-08-11:09:44.849062,8.0,2.0,350.0
2022-02-08-11:09:44.850094,1.0,1.0,350.0
2022-02-08-11:09:44.851089,6.0,5.0,350.0
2022-02-08-11:09:44.852092,6.0,5.0,350.0
2022-02-08-11:09:44.853051,6.0,5.0,350.0
2022-02-08-11:09:44.854048,4.0,15.0,350.0
2022-02-08-11:09:44.855080,6.0,11.0,350.0
2022-02-08-11:09:44.856076,4.0,14.0,350.0
2022-02-08-11:09:44.857040,4.0,14.0,350.0
2022-02-08-11:09:44.859035,8.0,16.0,350.0
2022-02-08-11:09:44.859035,8.0,16.0,350.0
2022-02-08-11:09:44.860032,8.0,16.0,350.0
2022-02-08-11:09:44.861031,8.0,16.0,350.0
2022-02-08-11:09:44.862053,6.0,46.0,350.0
2022-02-08-11:09:44.863051,2.0,30.0,350.0
2022-02-08-11:09:44.864047,0.0,5.0,350.0
2022-02-08-11:09:44.865020,0.0,5.0,350.0
2022-02-08-11:09:44.866018,1.0,11.0,350.0
2022-02-08-11:09:44.867015,1.0,22.0,350.0
2022-02-08-11:09:44.868023,6.0,24.0,350.0
2022-02-08-11:09:44.869008,6.0,24.0,350.0
2022-02-08-11:09:44.870035,5.0,6.0,350.0
2022-02-08-11:09:44.871003,5.0,6.0,350.0
2022-02-08-11:09:44.872012,5.0,6.0,350.0
2022-02-08-11:09:44.872998,5.0,6.0,350.0
2022-02-08-11:09:44.873995,5.0,6.0,350.0
2022-02-08-11:09:44.874992,10.0,21.0,350.0
2022-02-08-11:09:44.875990,12.0,23.0,350.0
2022-02-08-11:09:44.876987,12.0,23.0,350.0
2022-02-08-11:09:44.878009,12.0,23.0,350.0
2022-02-08-11:09:44.879008,7.0,19.0,350.0
2022-02-08-11:09:44.879978,1.0,14.0,350.0
2022-02-08-11:09:44.881071,1.0,0.0,350.0
2022-02-08-11:09:44.882115,1.0,0.0,350.0
2022-02-08-11:09:44.883080,4.0,8.0,350.0
2022-02-08-11:09:44.884051,3.0,2.0,349.0
2022-02-08-11:09:44.884993,3.0,2.0,349.0
2022-02-08-11:09:44.885994,3.0,2.0,349.0
2022-02-08-11:09:44.887007,2.0,0.0,350.0
2022-02-08-11:09:44.887989,4.0,8.0,350.0
2022-02-08-11:09:44.888992,3.0,4.0,350.0
2022-02-08-11:09:44.889999,3.0,4.0,350.0
2022-02-08-11:09:44.892969,10.0,12.0,350.0
2022-02-08-11:09:44.892969,12.0,12.0,350.0
2022-02-08-11:09:44.893942,10.0,12.0,350.0
2022-02-08-11:09:44.894939,2.0,2.0,350.0
2022-02-08-11:09:44.895936,1.0,3.0,350.0
2022-02-08-11:09:44.896934,4.0,3.0,350.0
2022-02-08-11:09:44.897930,4.0,3.0,350.0
2022-02-08-11:09:44.898934,1.0,4.0,350.0
2022-02-08-11:09:44.899926,2.0,1.0,350.0
2022-02-08-11:09:44.900923,5.0,3.0,350.0
2022-02-08-11:09:44.901919,6.0,1.0,350.0
2022-02-08-11:09:44.902924,6.0,5.0,349.0
2022-02-08-11:09:44.903915,2.0,3.0,350.0
2022-02-08-11:09:44.904913,4.0,2.0,350.0
2022-02-08-11:09:44.905910,4.0,2.0,350.0
2022-02-08-11:09:44.906911,4.0,2.0,350.0
2022-02-08-11:09:44.907904,10.0,23.0,350.0
2022-02-08-11:09:44.908901,10.0,23.0,350.0
2022-02-08-11:09:44.909899,10.0,23.0,350.0
2022-02-08-11:09:44.910896,7.0,11.0,350.0
2022-02-08-11:09:44.911893,3.0,15.0,350.0
2022-02-08-11:09:44.912891,3.0,15.0,350.0
2022-02-08-11:09:44.913888,3.0,15.0,350.0
2022-02-08-11:09:44.914893,3.0,15.0,350.0
2022-02-08-11:09:44.915883,3.0,15.0,350.0
2022-02-08-11:09:44.916880,1.0,16.0,350.0
2022-02-08-11:09:44.917877,1.0,12.0,350.0
2022-02-08-11:09:44.918910,1.0,12.0,350.0
2022-02-08-11:09:44.919906,1.0,4.0,350.0
2022-02-08-11:09:44.920903,1.0,4.0,350.0
2022-02-08-11:09:44.921901,0.0,1.0,350.0
2022-02-08-11:09:44.922889,8.0,26.0,350.0
2022-02-08-11:09:44.923888,8.0,22.0,350.0
2022-02-08-11:09:44.924883,11.0,0.0,350.0
2022-02-08-11:09:44.925881,11.0,0.0,350.0
2022-02-08-11:09:44.927901,11.0,0.0,350.0
2022-02-08-11:09:44.927901,12.0,10.0,350.0
2022-02-08-11:09:44.928896,4.0,16.0,350.0
2022-02-08-11:09:44.929894,1.0,34.0,350.0
2022-02-08-11:09:44.930843,1.0,34.0,350.0
2022-02-08-11:09:44.931950,0.0,30.0,350.0
2022-02-08-11:09:44.931950,2.0,22.0,350.0
2022-02-08-11:09:44.932862,6.0,15.0,350.0
2022-02-08-11:09:44.933860,2.0,1.0,350.0
2022-02-08-11:09:44.935318,2.0,1.0,350.0
2022-02-08-11:09:44.936340,0.0,22.0,350.0
2022-02-08-11:09:44.937338,3.0,1.0,350.0
2022-02-08-11:09:44.938339,2.0,8.0,350.0
2022-02-08-11:09:44.939363,2.0,8.0,350.0
2022-02-08-11:09:44.940363,4.0,2.0,350.0
2022-02-08-11:09:44.941358,6.0,7.0,350.0
2022-02-08-11:09:44.942357,11.0,5.0,350.0
2022-02-08-11:09:44.943355,11.0,5.0,350.0
2022-02-08-11:09:44.944351,11.0,5.0,350.0
2022-02-08-11:09:44.945350,6.0,1.0,350.0
2022-02-08-11:09:44.946345,1.0,8.0,350.0
2022-02-08-11:09:44.947318,1.0,8.0,350.0
2022-02-08-11:09:44.948321,4.0,4.0,350.0
2022-02-08-11:09:44.949312,0.0,0.0,350.0
2022-02-08-11:09:44.950335,1.0,5.0,350.0
2022-02-08-11:09:44.951307,1.0,5.0,350.0
2022-02-08-11:09:44.952329,2.0,5.0,350.0
2022-02-08-11:09:44.953328,5.0,4.0,350.0
2022-02-08-11:09:44.954324,2.0,4.0,350.0
2022-02-08-11:09:44.955296,2.0,4.0,350.0
2022-02-08-11:09:44.956320,3.0,5.0,350.0
2022-02-08-11:09:44.957319,6.0,9.0,350.0
2022-02-08-11:09:44.958313,8.0,17.0,350.0
2022-02-08-11:09:44.960308,13.0,24.0,350.0
2022-02-08-11:09:44.960308,13.0,24.0,350.0
2022-02-08-11:09:44.961313,8.0,26.0,350.0
2022-02-08-11:09:44.962278,3.0,1.0,350.0
2022-02-08-11:09:44.963301,1.0,6.0,349.0
2022-02-08-11:09:44.964298,0.0,6.0,350.0
2022-02-08-11:09:44.965269,4.0,11.0,350.0
2022-02-08-11:09:44.966293,4.0,8.0,350.0
2022-02-08-11:09:44.967292,3.0,2.0,350.0
2022-02-08-11:09:44.968288,2.0,4.0,350.0
2022-02-08-11:09:44.969285,5.0,44.0,350.0
2022-02-08-11:09:44.970283,6.0,37.0,350.0
2022-02-08-11:09:44.971289,6.0,37.0,350.0
2022-02-08-11:09:44.972250,6.0,37.0,350.0
2022-02-08-11:09:44.973275,8.0,25.0,350.0
2022-02-08-11:09:44.974272,10.0,7.0,350.0
2022-02-08-11:09:44.975270,8.0,10.0,350.0
2022-02-08-11:09:44.976265,8.0,10.0,350.0
2022-02-08-11:09:44.977271,2.0,23.0,350.0
2022-02-08-11:09:44.978234,2.0,23.0,350.0
2022-02-08-11:09:44.979232,2.0,23.0,350.0
2022-02-08-11:09:44.980230,2.0,23.0,350.0
2022-02-08-11:09:44.981253,3.0,1.0,350.0
2022-02-08-11:09:44.982224,3.0,8.0,350.0
2022-02-08-11:09:44.983248,2.0,10.0,350.0
2022-02-08-11:09:44.984244,2.0,10.0,350.0
2022-02-08-11:09:44.985243,1.0,28.0,350.0
2022-02-08-11:09:44.986238,3.0,1.0,350.0
2022-02-08-11:09:44.987236,3.0,1.0,350.0
2022-02-08-11:09:44.988239,3.0,1.0,350.0
2022-02-08-11:09:44.989237,8.0,22.0,350.0
2022-02-08-11:09:44.990228,10.0,3.0,350.0
2022-02-08-11:09:44.991227,10.0,3.0,350.0
2022-02-08-11:09:44.992197,10.0,3.0,350.0
2022-02-08-11:09:44.994218,5.0,29.0,350.0
2022-02-08-11:09:44.994218,1.0,23.0,350.0
2022-02-08-11:09:44.995189,1.0,23.0,350.0
2022-02-08-11:09:44.996187,1.0,23.0,350.0
2022-02-08-11:09:44.997184,1.0,7.0,350.0
2022-02-08-11:09:44.998182,2.0,16.0,350.0
2022-02-08-11:09:44.999179,2.0,16.0,350.0
2022-02-08-11:09:45.000177,2.0,16.0,350.0
2022-02-08-11:09:45.001173,2.0,16.0,350.0
2022-02-08-11:09:45.002170,1.0,10.0,350.0
2022-02-08-11:09:45.003167,2.0,0.0,350.0
2022-02-08-11:09:45.004164,2.0,0.0,350.0
2022-02-08-11:09:45.005162,2.0,0.0,350.0
2022-02-08-11:09:45.006159,6.0,10.0,350.0
2022-02-08-11:09:45.007159,9.0,12.0,350.0
2022-02-08-11:09:45.008154,9.0,12.0,350.0
2022-02-08-11:09:45.009161,9.0,12.0,350.0
2022-02-08-11:09:45.010187,3.0,1.0,350.0
2022-02-08-11:09:45.011179,3.0,1.0,350.0
2022-02-08-11:09:45.012178,3.0,1.0,350.0
2022-02-08-11:09:45.013142,3.0,1.0,350.0
2022-02-08-11:09:45.014140,1.0,7.0,350.0
2022-02-08-11:09:45.015140,4.0,1.0,350.0
2022-02-08-11:09:45.016167,4.0,1.0,350.0
2022-02-08-11:09:45.017166,4.0,1.0,350.0
2022-02-08-11:09:45.018162,5.0,8.0,350.0
2022-02-08-11:09:45.019160,2.0,9.0,350.0
2022-02-08-11:09:45.020159,2.0,9.0,350.0
2022-02-08-11:09:45.021122,2.0,9.0,350.0
2022-02-08-11:09:45.022151,11.0,11.0,350.0
2022-02-08-11:09:45.023150,10.0,6.0,350.0
2022-02-08-11:09:45.024145,10.0,6.0,350.0
2022-02-08-11:09:45.025144,10.0,6.0,350.0
2022-02-08-11:09:45.026141,1.0,1.0,350.0
2022-02-08-11:09:45.028136,1.0,1.0,350.0
2022-02-08-11:09:45.028136,1.0,1.0,350.0
2022-02-08-11:09:45.029099,1.0,1.0,350.0
2022-02-08-11:09:45.030129,3.0,5.0,350.0
2022-02-08-11:09:45.031132,2.0,4.0,350.0
2022-02-08-11:09:45.032116,2.0,4.0,350.0
2022-02-08-11:09:45.033088,2.0,4.0,350.0
2022-02-08-11:09:45.034112,0.0,5.0,350.0
2022-02-08-11:09:45.035111,4.0,4.0,350.0
2022-02-08-11:09:45.036106,4.0,4.0,350.0
2022-02-08-11:09:45.037107,4.0,4.0,350.0
2022-02-08-11:09:45.038108,6.0,7.0,350.0
2022-02-08-11:09:45.039106,10.0,16.0,350.0
2022-02-08-11:09:45.040102,10.0,16.0,350.0
2022-02-08-11:09:45.041102,10.0,16.0,350.0
2022-02-08-11:09:45.042102,10.0,16.0,350.0
2022-02-08-11:09:45.043094,12.0,26.0,350.0
2022-02-08-11:09:45.044085,1.0,14.0,350.0
2022-02-08-11:09:45.045081,1.0,14.0,350.0
2022-02-08-11:09:45.046078,1.0,14.0,350.0
2022-02-08-11:09:45.047059,5.0,11.0,350.0
2022-02-08-11:09:45.048056,5.0,11.0,350.0
2022-02-08-11:09:45.049074,5.0,11.0,350.0
2022-02-08-11:09:45.050078,5.0,11.0,350.0
2022-02-08-11:09:45.051053,4.0,6.0,350.0
2022-02-08-11:09:45.052064,1.0,4.0,350.0
2022-02-08-11:09:45.053060,1.0,4.0,350.0
2022-02-08-11:09:45.054060,1.0,4.0,350.0
2022-02-08-11:09:45.055056,9.0,3.0,350.0
2022-02-08-11:09:45.056052,8.0,1.0,350.0
2022-02-08-11:09:45.057026,8.0,1.0,350.0
2022-02-08-11:09:45.058031,8.0,1.0,350.0
2022-02-08-11:09:45.059052,13.0,5.0,350.0
2022-02-08-11:09:45.060050,7.0,2.0,350.0
2022-02-08-11:09:45.061050,7.0,2.0,350.0
2022-02-08-11:09:45.063044,7.0,2.0,350.0
2022-02-08-11:09:45.063044,1.0,3.0,350.0
2022-02-08-11:09:45.064005,1.0,3.0,350.0
2022-02-08-11:09:45.065029,3.0,3.0,350.0
2022-02-08-11:09:45.066025,3.0,3.0,350.0
2022-02-08-11:09:45.067023,4.0,11.0,350.0
2022-02-08-11:09:45.068021,2.0,23.0,350.0
2022-02-08-11:09:45.069017,2.0,23.0,350.0
2022-02-08-11:09:45.069990,2.0,23.0,350.0
2022-02-08-11:09:45.071014,6.0,17.0,350.0
2022-02-08-11:09:45.072009,9.0,1.0,350.0
2022-02-08-11:09:45.072981,9.0,1.0,350.0
2022-02-08-11:09:45.073981,9.0,1.0,350.0
2022-02-08-11:09:45.075002,7.0,3.0,350.0
2022-02-08-11:09:45.076000,5.0,1.0,350.0
2022-02-08-11:09:45.076995,5.0,1.0,350.0
2022-02-08-11:09:45.077999,5.0,1.0,350.0
2022-02-08-11:09:45.078997,2.0,3.0,350.0
2022-02-08-11:09:45.079963,1.0,0.0,350.0
2022-02-08-11:09:45.080960,1.0,0.0,350.0
2022-02-08-11:09:45.081957,1.0,0.0,350.0
2022-02-08-11:09:45.082980,1.0,0.0,350.0
2022-02-08-11:09:45.083980,3.0,7.0,350.0
2022-02-08-11:09:45.084978,3.0,7.0,350.0
2022-02-08-11:09:45.085976,3.0,7.0,350.0
2022-02-08-11:09:45.086946,3.0,7.0,350.0
2022-02-08-11:09:45.087968,3.0,1.0,350.0
2022-02-08-11:09:45.088938,10.0,3.0,350.0
2022-02-08-11:09:45.090036,10.0,3.0,350.0
2022-02-08-11:09:45.090982,10.0,3.0,350.0
2022-02-08-11:09:45.091932,7.0,21.0,350.0
2022-02-08-11:09:45.092928,12.0,11.0,350.0
2022-02-08-11:09:45.093952,6.0,5.0,350.0
2022-02-08-11:09:45.094951,6.0,5.0,350.0
2022-02-08-11:09:45.095946,4.0,5.0,350.0
2022-02-08-11:09:45.096945,2.0,2.0,350.0
2022-02-08-11:09:45.098937,2.0,2.0,350.0
2022-02-08-11:09:45.098937,2.0,2.0,350.0
2022-02-08-11:09:45.099910,6.0,6.0,350.0
2022-02-08-11:09:45.100938,6.0,6.0,350.0
2022-02-08-11:09:45.101928,6.0,6.0,350.0
2022-02-08-11:09:45.102928,6.0,6.0,350.0
2022-02-08-11:09:45.103923,4.0,4.0,350.0
2022-02-08-11:09:45.104950,7.0,8.0,350.0
2022-02-08-11:09:45.105926,7.0,8.0,350.0
2022-02-08-11:09:45.106891,7.0,8.0,350.0
2022-02-08-11:09:45.107922,11.0,7.0,350.0
2022-02-08-11:09:45.108918,8.0,10.0,350.0
2022-02-08-11:09:45.109915,8.0,10.0,350.0
2022-02-08-11:09:45.110881,8.0,10.0,350.0
2022-02-08-11:09:45.111917,0.0,6.0,350.0
2022-02-08-11:09:45.112909,0.0,7.0,350.0
2022-02-08-11:09:45.113872,0.0,7.0,350.0
2022-02-08-11:09:45.114869,0.0,7.0,350.0
2022-02-08-11:09:45.115867,2.0,31.0,350.0
2022-02-08-11:09:45.116871,3.0,26.0,350.0
2022-02-08-11:09:45.117899,3.0,26.0,350.0
2022-02-08-11:09:45.118893,3.0,26.0,350.0
2022-02-08-11:09:45.119893,3.0,26.0,350.0
2022-02-08-11:09:45.120894,4.0,13.0,350.0
2022-02-08-11:09:45.121884,4.0,13.0,350.0
2022-02-08-11:09:45.122881,4.0,13.0,350.0
2022-02-08-11:09:45.123880,4.0,13.0,350.0
2022-02-08-11:09:45.124875,8.0,44.0,350.0
2022-02-08-11:09:45.125874,7.0,47.0,350.0
2022-02-08-11:09:45.126872,7.0,47.0,350.0
2022-02-08-11:09:45.127867,7.0,47.0,350.0
2022-02-08-11:09:45.128866,5.0,1.0,350.0
2022-02-08-11:09:45.130840,1.0,18.0,350.0
2022-02-08-11:09:45.130840,1.0,18.0,350.0
2022-02-08-11:09:45.131826,1.0,18.0,350.0
2022-02-08-11:09:45.132882,2.0,31.0,350.0
2022-02-08-11:09:45.133874,2.0,31.0,350.0
2022-02-08-11:09:45.134872,2.0,31.0,350.0
2022-02-08-11:09:45.135868,2.0,31.0,350.0
2022-02-08-11:09:45.136867,5.0,22.0,350.0
2022-02-08-11:09:45.137861,4.0,12.0,350.0
2022-02-08-11:09:45.138860,4.0,12.0,350.0
2022-02-08-11:09:45.139857,4.0,12.0,350.0
2022-02-08-11:09:45.140854,11.0,15.0,350.0
2022-02-08-11:09:45.141797,9.0,28.0,350.0
2022-02-08-11:09:45.142850,9.0,28.0,350.0
2022-02-08-11:09:45.143793,9.0,28.0,350.0
2022-02-08-11:09:45.144853,3.0,24.0,350.0
2022-02-08-11:09:45.145845,2.0,14.0,350.0
2022-02-08-11:09:45.146819,2.0,14.0,350.0
2022-02-08-11:09:45.147782,2.0,14.0,350.0
2022-02-08-11:09:45.148817,3.0,3.0,350.0
2022-02-08-11:09:45.149830,4.0,1.0,350.0
2022-02-08-11:09:45.150829,4.0,1.0,350.0
2022-02-08-11:09:45.151813,4.0,1.0,350.0
2022-02-08-11:09:45.152822,1.0,17.0,350.0
2022-02-08-11:09:45.153824,4.0,13.0,350.0
2022-02-08-11:09:45.154818,4.0,13.0,350.0
2022-02-08-11:09:45.155815,4.0,13.0,350.0
2022-02-08-11:09:45.156811,10.0,4.0,350.0
2022-02-08-11:09:45.157809,10.0,19.0,350.0
2022-02-08-11:09:45.158809,10.0,19.0,350.0
2022-02-08-11:09:45.159805,10.0,19.0,350.0
2022-02-08-11:09:45.160801,10.0,19.0,350.0
2022-02-08-11:09:45.161799,2.0,13.0,350.0
2022-02-08-11:09:45.162796,2.0,13.0,350.0
2022-02-08-11:09:45.163784,2.0,13.0,350.0
2022-02-08-11:09:45.165787,5.0,4.0,350.0
2022-02-08-11:09:45.165787,4.0,4.0,350.0
2022-02-08-11:09:45.166731,4.0,4.0,350.0
2022-02-08-11:09:45.167783,4.0,4.0,350.0
2022-02-08-11:09:45.168783,4.0,4.0,350.0
2022-02-08-11:09:45.169777,3.0,1.0,350.0
2022-02-08-11:09:45.170775,5.0,2.0,350.0
2022-02-08-11:09:45.171718,5.0,2.0,350.0
2022-02-08-11:09:45.172769,5.0,2.0,350.0
2022-02-08-11:09:45.173766,9.0,22.0,350.0
2022-02-08-11:09:45.174766,10.0,33.0,350.0
2022-02-08-11:09:45.175763,10.0,33.0,350.0
2022-02-08-11:09:45.176766,10.0,33.0,350.0
2022-02-08-11:09:45.177756,7.0,10.0,350.0
2022-02-08-11:09:45.178742,0.0,7.0,350.0
2022-02-08-11:09:45.179750,0.0,7.0,350.0
2022-02-08-11:09:45.180694,0.0,7.0,350.0
2022-02-08-11:09:45.181747,2.0,5.0,350.0
2022-02-08-11:09:45.182695,2.0,5.0,350.0
2022-02-08-11:09:45.183687,2.0,5.0,350.0
2022-02-08-11:09:45.184683,2.0,5.0,350.0
2022-02-08-11:09:45.185712,5.0,3.0,350.0
2022-02-08-11:09:45.186712,3.0,1.0,350.0
2022-02-08-11:09:45.187714,3.0,1.0,350.0
2022-02-08-11:09:45.188680,3.0,1.0,350.0
2022-02-08-11:09:45.189701,9.0,16.0,350.0
2022-02-08-11:09:45.190701,9.0,17.0,350.0
2022-02-08-11:09:45.191697,9.0,17.0,350.0
2022-02-08-11:09:45.192662,9.0,17.0,350.0
2022-02-08-11:09:45.193691,9.0,17.0,350.0
2022-02-08-11:09:45.194688,1.0,1.0,350.0
2022-02-08-11:09:45.195688,1.0,1.0,350.0
2022-02-08-11:09:45.196683,1.0,1.0,350.0
2022-02-08-11:09:45.197648,1.0,1.0,350.0
2022-02-08-11:09:45.199681,6.0,6.0,350.0
2022-02-08-11:09:45.199681,6.0,6.0,350.0
2022-02-08-11:09:45.200674,6.0,6.0,350.0
2022-02-08-11:09:45.201669,6.0,6.0,350.0
2022-02-08-11:09:45.202667,4.0,9.0,350.0
2022-02-08-11:09:45.203666,4.0,7.0,350.0
2022-02-08-11:09:45.204661,4.0,7.0,350.0
2022-02-08-11:09:45.205658,4.0,7.0,350.0
2022-02-08-11:09:45.206658,6.0,9.0,350.0
2022-02-08-11:09:45.207653,8.0,13.0,350.0
2022-02-08-11:09:45.208656,14.0,12.0,350.0
2022-02-08-11:09:45.209648,14.0,12.0,350.0
2022-02-08-11:09:45.210646,9.0,15.0,350.0
2022-02-08-11:09:45.211645,2.0,10.0,350.0
2022-02-08-11:09:45.212640,2.0,10.0,350.0
2022-02-08-11:09:45.213644,2.0,10.0,350.0
2022-02-08-11:09:45.214637,1.0,0.0,350.0
2022-02-08-11:09:45.215633,1.0,2.0,350.0
2022-02-08-11:09:45.216632,1.0,2.0,350.0
2022-02-08-11:09:45.217601,1.0,2.0,350.0
2022-02-08-11:09:45.218624,2.0,1.0,350.0
2022-02-08-11:09:45.219624,1.0,5.0,350.0
2022-02-08-11:09:45.220619,1.0,5.0,350.0
2022-02-08-11:09:45.221584,1.0,5.0,350.0
2022-02-08-11:09:45.222615,7.0,6.0,350.0
2022-02-08-11:09:45.223613,10.0,25.0,350.0
2022-02-08-11:09:45.224611,10.0,25.0,350.0
2022-02-08-11:09:45.225574,10.0,25.0,350.0
2022-02-08-11:09:45.226602,10.0,27.0,350.0
2022-02-08-11:09:45.227602,2.0,19.0,349.0
2022-02-08-11:09:45.228599,2.0,19.0,349.0
2022-02-08-11:09:45.229563,2.0,19.0,349.0
2022-02-08-11:09:45.230561,3.0,9.0,350.0
2022-02-08-11:09:45.231560,3.0,9.0,350.0
2022-02-08-11:09:45.232591,3.0,9.0,350.0
2022-02-08-11:09:45.233586,3.0,9.0,350.0
2022-02-08-11:09:45.235604,3.0,9.0,350.0
2022-02-08-11:09:45.235604,4.0,37.0,350.0
2022-02-08-11:09:45.236603,4.0,37.0,350.0
2022-02-08-11:09:45.237598,4.0,37.0,350.0
2022-02-08-11:09:45.238595,4.0,37.0,350.0
2022-02-08-11:09:45.239592,5.0,22.0,350.0
2022-02-08-11:09:45.240590,9.0,4.0,350.0
2022-02-08-11:09:45.241585,10.0,8.0,350.0
2022-02-08-11:09:45.242529,10.0,8.0,350.0
2022-02-08-11:09:45.244533,13.0,17.0,350.0
2022-02-08-11:09:45.244533,1.0,25.0,350.0
2022-02-08-11:09:45.245520,1.0,25.0,350.0
2022-02-08-11:09:45.246518,1.0,25.0,350.0
2022-02-08-11:09:45.247515,0.0,8.0,350.0
2022-02-08-11:09:45.248513,2.0,3.0,350.0
2022-02-08-11:09:45.249543,2.0,3.0,350.0
2022-02-08-11:09:45.250541,2.0,3.0,350.0
2022-02-08-11:09:45.251558,3.0,9.0,350.0
2022-02-08-11:09:45.252553,1.0,25.0,350.0
2022-02-08-11:09:45.253551,1.0,25.0,350.0
2022-02-08-11:09:45.254552,1.0,25.0,350.0
2022-02-08-11:09:45.255539,4.0,5.0,350.0
2022-02-08-11:09:45.256538,6.0,1.0,350.0
2022-02-08-11:09:45.257536,10.0,6.0,350.0
2022-02-08-11:09:45.258486,10.0,6.0,350.0
2022-02-08-11:09:45.259524,9.0,10.0,350.0
2022-02-08-11:09:45.260512,5.0,8.0,350.0
2022-02-08-11:09:45.261510,5.0,8.0,350.0
2022-02-08-11:09:45.262475,5.0,8.0,350.0
2022-02-08-11:09:45.263526,6.0,6.0,350.0
2022-02-08-11:09:45.264475,3.0,4.0,350.0
2022-02-08-11:09:45.265469,4.0,2.0,350.0
2022-02-08-11:09:45.266508,4.0,2.0,350.0
2022-02-08-11:09:45.267488,3.0,7.0,350.0
2022-02-08-11:09:45.269503,5.0,1.0,350.0
2022-02-08-11:09:45.269503,2.0,3.0,350.0
2022-02-08-11:09:45.270503,2.0,3.0,350.0
2022-02-08-11:09:45.271497,2.0,3.0,350.0
2022-02-08-11:09:45.272498,8.0,2.0,350.0
2022-02-08-11:09:45.273493,8.0,11.0,350.0
2022-02-08-11:09:45.274448,8.0,11.0,350.0
2022-02-08-11:09:45.275450,8.0,11.0,350.0
2022-02-08-11:09:45.276438,6.0,18.0,350.0
2022-02-08-11:09:45.277467,2.0,4.0,350.0
2022-02-08-11:09:45.278466,2.0,4.0,350.0
2022-02-08-11:09:45.279461,2.0,4.0,350.0
2022-02-08-11:09:45.280461,2.0,2.0,350.0
2022-02-08-11:09:45.281425,1.0,1.0,350.0
2022-02-08-11:09:45.282429,1.0,1.0,350.0
2022-02-08-11:09:45.283473,1.0,1.0,350.0
2022-02-08-11:09:45.284470,0.0,0.0,350.0
2022-02-08-11:09:45.285464,0.0,0.0,350.0
2022-02-08-11:09:45.286460,5.0,17.0,350.0
2022-02-08-11:09:45.287455,0.0,18.0,350.0
2022-02-08-11:09:45.288458,1.0,8.0,350.0
2022-02-08-11:09:45.289450,7.0,13.0,350.0
2022-02-08-11:09:45.290426,11.0,14.0,350.0
2022-02-08-11:09:45.291424,11.0,14.0,350.0
2022-02-08-11:09:45.292421,7.0,7.0,350.0
2022-02-08-11:09:45.293425,8.0,0.0,350.0
2022-02-08-11:09:45.294418,5.0,21.0,350.0
2022-02-08-11:09:45.295413,5.0,21.0,350.0
2022-02-08-11:09:45.296410,0.0,14.0,350.0
2022-02-08-11:09:45.297382,1.0,12.0,350.0
2022-02-08-11:09:45.298386,3.0,10.0,350.0
2022-02-08-11:09:45.299376,3.0,10.0,350.0
2022-02-08-11:09:45.301397,5.0,18.0,350.0
2022-02-08-11:09:45.301397,5.0,18.0,350.0
2022-02-08-11:09:45.302398,5.0,18.0,350.0
2022-02-08-11:09:45.303366,5.0,18.0,350.0
2022-02-08-11:09:45.304390,1.0,29.0,350.0
2022-02-08-11:09:45.305386,8.0,5.0,350.0
2022-02-08-11:09:45.306385,11.0,6.0,350.0
2022-02-08-11:09:45.307355,11.0,6.0,350.0
2022-02-08-11:09:45.308377,11.0,6.0,350.0
2022-02-08-11:09:45.309396,8.0,32.0,350.0
2022-02-08-11:09:45.310398,5.0,8.0,350.0
2022-02-08-11:09:45.311393,5.0,8.0,350.0
2022-02-08-11:09:45.312390,5.0,8.0,350.0
2022-02-08-11:09:45.313390,1.0,11.0,350.0
2022-02-08-11:09:45.314336,5.0,29.0,350.0
2022-02-08-11:09:45.315381,5.0,29.0,350.0
2022-02-08-11:09:45.316382,5.0,29.0,350.0
2022-02-08-11:09:45.317376,5.0,16.0,350.0
2022-02-08-11:09:45.318352,3.0,2.0,350.0
2022-02-08-11:09:45.319369,3.0,2.0,350.0
2022-02-08-11:09:45.320367,3.0,2.0,350.0
2022-02-08-11:09:45.321365,1.0,3.0,350.0
2022-02-08-11:09:45.322341,6.0,4.0,350.0
2022-02-08-11:09:45.323338,9.0,5.0,350.0
2022-02-08-11:09:45.324336,9.0,5.0,350.0
2022-02-08-11:09:45.325333,9.0,9.0,350.0
2022-02-08-11:09:45.326332,13.0,13.0,350.0
2022-02-08-11:09:45.327328,8.0,4.0,350.0
2022-02-08-11:09:45.328325,8.0,4.0,350.0
2022-02-08-11:09:45.329321,2.0,4.0,350.0
2022-02-08-11:09:45.330319,2.0,4.0,350.0
2022-02-08-11:09:45.331301,1.0,6.0,350.0
2022-02-08-11:09:45.332289,1.0,6.0,350.0
2022-02-08-11:09:45.333311,0.0,0.0,350.0
2022-02-08-11:09:45.335308,0.0,0.0,350.0
2022-02-08-11:09:45.335308,4.0,2.0,350.0
2022-02-08-11:09:45.336278,4.0,2.0,350.0
2022-02-08-11:09:45.337301,4.0,9.0,350.0
2022-02-08-11:09:45.338298,9.0,6.0,350.0
2022-02-08-11:09:45.339298,9.0,6.0,350.0
2022-02-08-11:09:45.340267,9.0,6.0,350.0
2022-02-08-11:09:45.341290,6.0,7.0,350.0
2022-02-08-11:09:45.342290,12.0,13.0,350.0
2022-02-08-11:09:45.343285,8.0,11.0,350.0
2022-02-08-11:09:45.344287,8.0,11.0,350.0
2022-02-08-11:09:45.345280,5.0,13.0,350.0
2022-02-08-11:09:45.346275,4.0,4.0,350.0
2022-02-08-11:09:45.347263,3.0,4.0,350.0
2022-02-08-11:09:45.348246,3.0,4.0,350.0
2022-02-08-11:09:45.349291,3.0,4.0,350.0
2022-02-08-11:09:45.350290,1.0,2.0,350.0
2022-02-08-11:09:45.351285,1.0,2.0,350.0
2022-02-08-11:09:45.352262,4.0,3.0,350.0
2022-02-08-11:09:45.353280,2.0,4.0,350.0
2022-02-08-11:09:45.354276,8.0,2.0,350.0
2022-02-08-11:09:45.355274,7.0,7.0,350.0
2022-02-08-11:09:45.356270,7.0,7.0,350.0
2022-02-08-11:09:45.357223,7.0,7.0,350.0
2022-02-08-11:09:45.358246,10.0,9.0,350.0
2022-02-08-11:09:45.359263,12.0,7.0,350.0
2022-02-08-11:09:45.360260,12.0,10.0,350.0
2022-02-08-11:09:45.361257,12.0,10.0,350.0
2022-02-08-11:09:45.362255,9.0,14.0,350.0
2022-02-08-11:09:45.363252,4.0,39.0,350.0
2022-02-08-11:09:45.364229,2.0,25.0,350.0
2022-02-08-11:09:45.365202,2.0,25.0,350.0
2022-02-08-11:09:45.366249,2.0,7.0,350.0
2022-02-08-11:09:45.367242,4.0,11.0,350.0
2022-02-08-11:09:45.369236,0.0,2.0,350.0
2022-02-08-11:09:45.370197,0.0,2.0,350.0
2022-02-08-11:09:45.370197,2.0,16.0,350.0
2022-02-08-11:09:45.371211,12.0,30.0,350.0
2022-02-08-11:09:45.372207,12.0,30.0,350.0
2022-02-08-11:09:45.373179,12.0,30.0,350.0
2022-02-08-11:09:45.374209,8.0,21.0,350.0
2022-02-08-11:09:45.375200,6.0,6.0,350.0
2022-02-08-11:09:45.376198,9.0,11.0,350.0
2022-02-08-11:09:45.377169,9.0,11.0,350.0
2022-02-08-11:09:45.378191,8.0,7.0,350.0
2022-02-08-11:09:45.379189,0.0,7.0,350.0
2022-02-08-11:09:45.380186,5.0,5.0,350.0
2022-02-08-11:09:45.381158,5.0,5.0,350.0
2022-02-08-11:09:45.382181,6.0,13.0,350.0
2022-02-08-11:09:45.383152,1.0,10.0,350.0
2022-02-08-11:09:45.384176,1.0,10.0,350.0
2022-02-08-11:09:45.385173,1.0,10.0,350.0
2022-02-08-11:09:45.386171,1.0,11.0,350.0
2022-02-08-11:09:45.387168,0.0,1.0,350.0
2022-02-08-11:09:45.388165,5.0,9.0,350.0
2022-02-08-11:09:45.389162,5.0,9.0,350.0
2022-02-08-11:09:45.390162,5.0,9.0,350.0
2022-02-08-11:09:45.391157,7.0,16.0,350.0
2022-02-08-11:09:45.392156,12.0,16.0,350.0
2022-02-08-11:09:45.393152,13.0,18.0,350.0
2022-02-08-11:09:45.394149,13.0,18.0,350.0
2022-02-08-11:09:45.395136,7.0,17.0,350.0
2022-02-08-11:09:45.396143,4.0,13.0,350.0
2022-02-08-11:09:45.397141,5.0,1.0,350.0
2022-02-08-11:09:45.398118,5.0,1.0,350.0
2022-02-08-11:09:45.399110,2.0,2.0,350.0
2022-02-08-11:09:45.400134,6.0,2.0,350.0
2022-02-08-11:09:45.401130,3.0,7.0,350.0
2022-02-08-11:09:45.403125,3.0,7.0,350.0
2022-02-08-11:09:45.403125,8.0,2.0,350.0
2022-02-08-11:09:45.404123,8.0,2.0,350.0
2022-02-08-11:09:45.405120,8.0,2.0,350.0
2022-02-08-11:09:45.406119,8.0,2.0,350.0
2022-02-08-11:09:45.407114,5.0,5.0,350.0
2022-02-08-11:09:45.408085,9.0,3.0,350.0
2022-02-08-11:09:45.409109,10.0,4.0,350.0
2022-02-08-11:09:45.410107,10.0,1.0,350.0
2022-02-08-11:09:45.411104,5.0,6.0,350.0
2022-02-08-11:09:45.412101,0.0,4.0,350.0
2022-02-08-11:09:45.413103,2.0,3.0,350.0
2022-02-08-11:09:45.414070,2.0,3.0,350.0
2022-02-08-11:09:45.415128,3.0,16.0,350.0
2022-02-08-11:09:45.416091,1.0,9.0,350.0
2022-02-08-11:09:45.417088,1.0,9.0,350.0
2022-02-08-11:09:45.418060,1.0,9.0,350.0
2022-02-08-11:09:45.419083,1.0,7.0,350.0
2022-02-08-11:09:45.420086,1.0,7.0,350.0
2022-02-08-11:09:45.421076,3.0,3.0,350.0
2022-02-08-11:09:45.422076,1.0,5.0,350.0
2022-02-08-11:09:45.423071,8.0,3.0,350.0
2022-02-08-11:09:45.424070,12.0,27.0,350.0
2022-02-08-11:09:45.425072,12.0,27.0,350.0
2022-02-08-11:09:45.426063,12.0,27.0,350.0
2022-02-08-11:09:45.427061,12.0,27.0,350.0
2022-02-08-11:09:45.428058,8.0,20.0,350.0
2022-02-08-11:09:45.429055,4.0,9.0,350.0
2022-02-08-11:09:45.430055,3.0,1.0,350.0
2022-02-08-11:09:45.431037,3.0,1.0,350.0
2022-02-08-11:09:45.432023,3.0,13.0,350.0
2022-02-08-11:09:45.433028,3.0,13.0,350.0
2022-02-08-11:09:45.434015,3.0,13.0,350.0
2022-02-08-11:09:45.435040,3.0,13.0,350.0
2022-02-08-11:09:45.436035,2.0,8.0,350.0
2022-02-08-11:09:45.438032,2.0,8.0,350.0
2022-02-08-11:09:45.438032,12.0,8.0,350.0
2022-02-08-11:09:45.439030,11.0,8.0,349.0
2022-02-08-11:09:45.440032,11.0,8.0,349.0
2022-02-08-11:09:45.441021,11.0,8.0,349.0
2022-02-08-11:09:45.442019,11.0,8.0,349.0
2022-02-08-11:09:45.443019,11.0,8.0,349.0
2022-02-08-11:09:45.444018,10.0,8.0,350.0
2022-02-08-11:09:45.445011,2.0,3.0,350.0
2022-02-08-11:09:45.446011,1.0,3.0,350.0
2022-02-08-11:09:45.447006,1.0,3.0,350.0
2022-02-08-11:09:45.447985,3.0,8.0,350.0
2022-02-08-11:09:45.448978,3.0,2.0,350.0
2022-02-08-11:09:45.449980,2.0,1.0,350.0
2022-02-08-11:09:45.450971,2.0,1.0,350.0
2022-02-08-11:09:45.451993,4.0,5.0,350.0
2022-02-08-11:09:45.452990,5.0,2.0,350.0
2022-02-08-11:09:45.453989,5.0,2.0,350.0
2022-02-08-11:09:45.454961,5.0,2.0,350.0
2022-02-08-11:09:45.455992,5.0,2.0,350.0
2022-02-08-11:09:45.456987,5.0,5.0,350.0
2022-02-08-11:09:45.457977,12.0,4.0,350.0
2022-02-08-11:09:45.458976,12.0,4.0,350.0
2022-02-08-11:09:45.459971,9.0,11.0,350.0
2022-02-08-11:09:45.460968,2.0,11.0,350.0
2022-02-08-11:09:45.461968,2.0,11.0,350.0
2022-02-08-11:09:45.462942,2.0,11.0,350.0
2022-02-08-11:09:45.463945,2.0,11.0,350.0
2022-02-08-11:09:45.464935,1.0,3.0,350.0
2022-02-08-11:09:45.465963,1.0,3.0,350.0
2022-02-08-11:09:45.466963,1.0,3.0,350.0
2022-02-08-11:09:45.467958,1.0,3.0,350.0
2022-02-08-11:09:45.468955,2.0,6.0,350.0
2022-02-08-11:09:45.469954,4.0,3.0,350.0
2022-02-08-11:09:45.470950,1.0,2.0,350.0
2022-02-08-11:09:45.472944,6.0,3.0,350.0
2022-02-08-11:09:45.472944,8.0,6.0,350.0
2022-02-08-11:09:45.473942,8.0,6.0,350.0
2022-02-08-11:09:45.474941,10.0,4.0,350.0
2022-02-08-11:09:45.475936,10.0,4.0,350.0
2022-02-08-11:09:45.476933,11.0,9.0,350.0
2022-02-08-11:09:45.477933,3.0,2.0,350.0
2022-02-08-11:09:45.478900,0.0,2.0,350.0
2022-02-08-11:09:45.479895,0.0,2.0,350.0
2022-02-08-11:09:45.480898,2.0,3.0,350.0
2022-02-08-11:09:45.481898,3.0,3.0,350.0
2022-02-08-11:09:45.482892,3.0,3.0,350.0
2022-02-08-11:09:45.483885,1.0,6.0,350.0
2022-02-08-11:09:45.484879,3.0,5.0,350.0
2022-02-08-11:09:45.485879,1.0,2.0,350.0
2022-02-08-11:09:45.486880,1.0,6.0,350.0
2022-02-08-11:09:45.487877,1.0,6.0,350.0
2022-02-08-11:09:45.488869,8.0,10.0,350.0
2022-02-08-11:09:45.489872,8.0,10.0,350.0
2022-02-08-11:09:45.490864,7.0,12.0,350.0
2022-02-08-11:09:45.491868,9.0,23.0,350.0
2022-02-08-11:09:45.492864,12.0,21.0,350.0
2022-02-08-11:09:45.493862,12.0,21.0,350.0
2022-02-08-11:09:45.494853,14.0,8.0,350.0
2022-02-08-11:09:45.495945,1.0,5.0,350.0
2022-02-08-11:09:45.496858,1.0,0.0,350.0
2022-02-08-11:09:45.497877,1.0,0.0,350.0
2022-02-08-11:09:45.498842,1.0,0.0,350.0
2022-02-08-11:09:45.499842,1.0,0.0,350.0
2022-02-08-11:09:45.500869,1.0,0.0,350.0
2022-02-08-11:09:45.501869,5.0,1.0,350.0
2022-02-08-11:09:45.502864,2.0,4.0,350.0
2022-02-08-11:09:45.503864,2.0,4.0,350.0
2022-02-08-11:09:45.504859,2.0,4.0,350.0
2022-02-08-11:09:45.506856,4.0,3.0,350.0
2022-02-08-11:09:45.506856,10.0,3.0,350.0
2022-02-08-11:09:45.507851,10.0,3.0,350.0
2022-02-08-11:09:45.508848,10.0,3.0,350.0
2022-02-08-11:09:45.509848,8.0,8.0,350.0
2022-02-08-11:09:45.510843,11.0,8.0,350.0
2022-02-08-11:09:45.511843,4.0,32.0,350.0
2022-02-08-11:09:45.512838,4.0,32.0,350.0
2022-02-08-11:09:45.513835,5.0,9.0,350.0
2022-02-08-11:09:45.514818,3.0,1.0,350.0
2022-02-08-11:09:45.515808,3.0,1.0,350.0
2022-02-08-11:09:45.516828,3.0,1.0,350.0
2022-02-08-11:09:45.517826,4.0,1.0,350.0
2022-02-08-11:09:45.518821,2.0,2.0,350.0
2022-02-08-11:09:45.519821,2.0,2.0,350.0
2022-02-08-11:09:45.520816,2.0,2.0,350.0
2022-02-08-11:09:45.521814,5.0,3.0,350.0
2022-02-08-11:09:45.522813,5.0,3.0,350.0
2022-02-08-11:09:45.523808,9.0,8.0,350.0
2022-02-08-11:09:45.524774,11.0,12.0,350.0
2022-02-08-11:09:45.525797,7.0,11.0,350.0
2022-02-08-11:09:45.526779,1.0,5.0,350.0
2022-02-08-11:09:45.527772,1.0,5.0,350.0
2022-02-08-11:09:45.528763,1.0,5.0,350.0
2022-02-08-11:09:45.529793,1.0,3.0,350.0
2022-02-08-11:09:45.530776,1.0,5.0,350.0
2022-02-08-11:09:45.531773,1.0,5.0,350.0
2022-02-08-11:09:45.532753,1.0,5.0,350.0
2022-02-08-11:09:45.533783,1.0,1.0,350.0
2022-02-08-11:09:45.534779,6.0,3.0,350.0
2022-02-08-11:09:45.535779,3.0,5.0,350.0
2022-02-08-11:09:45.536773,3.0,5.0,350.0
2022-02-08-11:09:45.537771,3.0,5.0,350.0
2022-02-08-11:09:45.538737,6.0,5.0,350.0
2022-02-08-11:09:45.539778,11.0,9.0,350.0
2022-02-08-11:09:45.540757,11.0,9.0,350.0
2022-02-08-11:09:45.542726,13.0,9.0,350.0
2022-02-08-11:09:45.542726,13.0,9.0,350.0
2022-02-08-11:09:45.543725,6.0,8.0,350.0
2022-02-08-11:09:45.544731,8.0,10.0,350.0
2022-02-08-11:09:45.545723,8.0,10.0,350.0
2022-02-08-11:09:45.546742,4.0,4.0,350.0
2022-02-08-11:09:45.547715,3.0,1.0,350.0
2022-02-08-11:09:45.548743,3.0,1.0,350.0
2022-02-08-11:09:45.549734,3.0,1.0,350.0
2022-02-08-11:09:45.550739,3.0,3.0,350.0
2022-02-08-11:09:45.551730,4.0,2.0,350.0
2022-02-08-11:09:45.552726,2.0,6.0,350.0
2022-02-08-11:09:45.553696,2.0,6.0,350.0
2022-02-08-11:09:45.554721,3.0,1.0,350.0
2022-02-08-11:09:45.555717,9.0,6.0,350.0
2022-02-08-11:09:45.556715,9.0,6.0,350.0
2022-02-08-11:09:45.557714,9.0,6.0,350.0
2022-02-08-11:09:45.558710,12.0,5.0,349.0
2022-02-08-11:09:45.559708,12.0,5.0,349.0
2022-02-08-11:09:45.560703,9.0,12.0,350.0
2022-02-08-11:09:45.561676,9.0,8.0,350.0
2022-02-08-11:09:45.562702,1.0,1.0,350.0
2022-02-08-11:09:45.563695,0.0,3.0,350.0
2022-02-08-11:09:45.564683,4.0,9.0,350.0
2022-02-08-11:09:45.565666,4.0,9.0,350.0
2022-02-08-11:09:45.566688,4.0,4.0,350.0
2022-02-08-11:09:45.567686,6.0,2.0,350.0
2022-02-08-11:09:45.568683,6.0,2.0,350.0
2022-02-08-11:09:45.569655,6.0,2.0,350.0
2022-02-08-11:09:45.569655,6.0,2.0,350.0
2022-02-08-11:09:45.570660,6.0,2.0,350.0
2022-02-08-11:09:45.571678,10.0,2.0,350.0
2022-02-08-11:09:45.572703,10.0,2.0,350.0
2022-02-08-11:09:45.573688,10.0,2.0,350.0
2022-02-08-11:09:45.575718,15.0,3.0,350.0
2022-02-08-11:09:45.575718,9.0,16.0,350.0
2022-02-08-11:09:45.576716,9.0,16.0,350.0
2022-02-08-11:09:45.577715,9.0,16.0,350.0
2022-02-08-11:09:45.578719,9.0,16.0,350.0
2022-02-08-11:09:45.579707,5.0,11.0,350.0
2022-02-08-11:09:45.580704,0.0,4.0,350.0
2022-02-08-11:09:45.581681,0.0,4.0,350.0
2022-02-08-11:09:45.582680,0.0,4.0,350.0
2022-02-08-11:09:45.583679,2.0,3.0,350.0
2022-02-08-11:09:45.584679,1.0,1.0,350.0
2022-02-08-11:09:45.585643,3.0,1.0,350.0
2022-02-08-11:09:45.586642,3.0,1.0,350.0
2022-02-08-11:09:45.587665,0.0,0.0,350.0
2022-02-08-11:09:45.588669,7.0,2.0,350.0
2022-02-08-11:09:45.589659,8.0,4.0,350.0
2022-02-08-11:09:45.590655,8.0,4.0,350.0
2022-02-08-11:09:45.591658,10.0,9.0,350.0
2022-02-08-11:09:45.592651,7.0,6.0,350.0
2022-02-08-11:09:45.593621,7.0,6.0,350.0
2022-02-08-11:09:45.594644,7.0,6.0,350.0
2022-02-08-11:09:45.595643,5.0,2.0,350.0
2022-02-08-11:09:45.596640,1.0,1.0,350.0
2022-02-08-11:09:45.597611,1.0,4.0,349.0
2022-02-08-11:09:45.598609,1.0,4.0,349.0
2022-02-08-11:09:45.599632,0.0,1.0,350.0
2022-02-08-11:09:45.600630,6.0,7.0,350.0
2022-02-08-11:09:45.601627,9.0,14.0,350.0
2022-02-08-11:09:45.602623,9.0,14.0,350.0
2022-02-08-11:09:45.603622,2.0,24.0,350.0
2022-02-08-11:09:45.604617,5.0,3.0,350.0
2022-02-08-11:09:45.605635,5.0,3.0,350.0
2022-02-08-11:09:45.606587,5.0,3.0,350.0
2022-02-08-11:09:45.607630,7.0,5.0,350.0
2022-02-08-11:09:45.609625,9.0,11.0,350.0
2022-02-08-11:09:45.609625,9.0,11.0,350.0
2022-02-08-11:09:45.610577,9.0,11.0,350.0
2022-02-08-11:09:45.611620,7.0,6.0,350.0
2022-02-08-11:09:45.612617,2.0,4.0,350.0
2022-02-08-11:09:45.613615,1.0,5.0,350.0
2022-02-08-11:09:45.614566,1.0,5.0,350.0
2022-02-08-11:09:45.615615,1.0,11.0,350.0
2022-02-08-11:09:45.616609,1.0,6.0,350.0
2022-02-08-11:09:45.617604,1.0,3.0,350.0
2022-02-08-11:09:45.618600,1.0,3.0,350.0
2022-02-08-11:09:45.619598,1.0,3.0,350.0
2022-02-08-11:09:45.620597,1.0,6.0,350.0
2022-02-08-11:09:45.621593,1.0,2.0,350.0
2022-02-08-11:09:45.622589,1.0,2.0,350.0
2022-02-08-11:09:45.623589,1.0,2.0,350.0
2022-02-08-11:09:45.624584,12.0,5.0,351.0
2022-02-08-11:09:45.625582,12.0,5.0,351.0
2022-02-08-11:09:45.626578,12.0,5.0,351.0
2022-02-08-11:09:45.627578,12.0,5.0,351.0
2022-02-08-11:09:45.628574,8.0,5.0,350.0
2022-02-08-11:09:45.629570,4.0,11.0,350.0
2022-02-08-11:09:45.630568,1.0,8.0,350.0
2022-02-08-11:09:45.631627,1.0,8.0,350.0
2022-02-08-11:09:45.632572,1.0,1.0,350.0
2022-02-08-11:09:45.633519,4.0,1.0,350.0
2022-02-08-11:09:45.634519,4.0,1.0,350.0
2022-02-08-11:09:45.635571,4.0,1.0,350.0
2022-02-08-11:09:45.636661,6.0,0.0,350.0
2022-02-08-11:09:45.637509,8.0,3.0,350.0
2022-02-08-11:09:45.638546,8.0,3.0,350.0
2022-02-08-11:09:45.639612,8.0,3.0,350.0
2022-02-08-11:09:45.640537,10.0,8.0,350.0
2022-02-08-11:09:45.641625,11.0,8.0,350.0
2022-02-08-11:09:45.642558,11.0,8.0,350.0
2022-02-08-11:09:45.644519,11.0,8.0,350.0
2022-02-08-11:09:45.644519,1.0,1.0,350.0
2022-02-08-11:09:45.645517,1.0,1.0,350.0
2022-02-08-11:09:45.646512,1.0,1.0,350.0
2022-02-08-11:09:45.647480,1.0,1.0,350.0
2022-02-08-11:09:45.648510,5.0,4.0,350.0
2022-02-08-11:09:45.649505,5.0,4.0,350.0
2022-02-08-11:09:45.650502,5.0,4.0,350.0
2022-02-08-11:09:45.651501,5.0,4.0,350.0
2022-02-08-11:09:45.652496,5.0,4.0,350.0
2022-02-08-11:09:45.653497,8.0,1.0,350.0
2022-02-08-11:09:45.654492,8.0,1.0,350.0
2022-02-08-11:09:45.655488,8.0,1.0,350.0
2022-02-08-11:09:45.656454,8.0,1.0,350.0
2022-02-08-11:09:45.657483,9.0,8.0,350.0
2022-02-08-11:09:45.658481,12.0,9.0,350.0
2022-02-08-11:09:45.659480,12.0,9.0,350.0
2022-02-08-11:09:45.660485,9.0,6.0,350.0
2022-02-08-11:09:45.661475,4.0,3.0,350.0
2022-02-08-11:09:45.662470,4.0,2.0,350.0
2022-02-08-11:09:45.663467,4.0,2.0,350.0
2022-02-08-11:09:45.664472,4.0,2.0,350.0
2022-02-08-11:09:45.665465,0.0,5.0,350.0
2022-02-08-11:09:45.666468,6.0,8.0,350.0
2022-02-08-11:09:45.667459,6.0,8.0,350.0
2022-02-08-11:09:45.668455,6.0,8.0,350.0
2022-02-08-11:09:45.669453,3.0,6.0,350.0
2022-02-08-11:09:45.670453,8.0,1.0,350.0
2022-02-08-11:09:45.671446,8.0,1.0,350.0
2022-02-08-11:09:45.672445,8.0,1.0,350.0
2022-02-08-11:09:45.673441,9.0,7.0,350.0
2022-02-08-11:09:45.674438,10.0,9.0,350.0
2022-02-08-11:09:45.675444,10.0,9.0,350.0
2022-02-08-11:09:45.676433,10.0,9.0,350.0
2022-02-08-11:09:45.678429,6.0,5.0,350.0
2022-02-08-11:09:45.678429,6.0,5.0,350.0
2022-02-08-11:09:45.679425,5.0,1.0,350.0
2022-02-08-11:09:45.680390,5.0,1.0,350.0
2022-02-08-11:09:45.681388,3.0,2.0,350.0
2022-02-08-11:09:45.682385,2.0,8.0,350.0
2022-02-08-11:09:45.683418,3.0,9.0,350.0
2022-02-08-11:09:45.684380,3.0,9.0,350.0
2022-02-08-11:09:45.685431,6.0,4.0,350.0
2022-02-08-11:09:45.686429,1.0,3.0,350.0
2022-02-08-11:09:45.687426,6.0,3.0,350.0
2022-02-08-11:09:45.688428,6.0,3.0,350.0
2022-02-08-11:09:45.689420,6.0,2.0,350.0
2022-02-08-11:09:45.690417,9.0,8.0,350.0
2022-02-08-11:09:45.691417,10.0,8.0,350.0
2022-02-08-11:09:45.692412,10.0,8.0,350.0
2022-02-08-11:09:45.693390,8.0,12.0,350.0
2022-02-08-11:09:45.694407,8.0,21.0,350.0
2022-02-08-11:09:45.695405,0.0,3.0,350.0
2022-02-08-11:09:45.696401,0.0,3.0,350.0
2022-02-08-11:09:45.697398,0.0,3.0,350.0
2022-02-08-11:09:45.698376,5.0,2.0,350.0
2022-02-08-11:09:45.699375,4.0,0.0,350.0
2022-02-08-11:09:45.700391,4.0,0.0,350.0
2022-02-08-11:09:45.701389,4.0,0.0,350.0
2022-02-08-11:09:45.702386,3.0,4.0,350.0
2022-02-08-11:09:45.703383,3.0,2.0,350.0
2022-02-08-11:09:45.704380,6.0,7.0,350.0
2022-02-08-11:09:45.705382,6.0,7.0,350.0
2022-02-08-11:09:45.706330,4.0,6.0,350.0
2022-02-08-11:09:45.707374,5.0,8.0,350.0
2022-02-08-11:09:45.708370,13.0,12.0,350.0
2022-02-08-11:09:45.709367,13.0,12.0,350.0
2022-02-08-11:09:45.711362,12.0,8.0,350.0
2022-02-08-11:09:45.711362,12.0,8.0,350.0
2022-02-08-11:09:45.712359,3.0,3.0,350.0
2022-02-08-11:09:45.713360,3.0,3.0,350.0
2022-02-08-11:09:45.714309,2.0,4.0,350.0
2022-02-08-11:09:45.715353,1.0,3.0,349.0
2022-02-08-11:09:45.716348,1.0,0.0,350.0
2022-02-08-11:09:45.717292,1.0,0.0,350.0
2022-02-08-11:09:45.718343,1.0,1.0,350.0
2022-02-08-11:09:45.719340,2.0,2.0,350.0
2022-02-08-11:09:45.720338,4.0,2.0,350.0
2022-02-08-11:09:45.721281,4.0,2.0,350.0
2022-02-08-11:09:45.722332,6.0,1.0,350.0
2022-02-08-11:09:45.723332,7.0,3.0,350.0
2022-02-08-11:09:45.724327,9.0,6.0,350.0
2022-02-08-11:09:45.725303,9.0,6.0,350.0
2022-02-08-11:09:45.726322,12.0,13.0,350.0
2022-02-08-11:09:45.727321,12.0,13.0,350.0
2022-02-08-11:09:45.728316,1.0,1.0,350.0
2022-02-08-11:09:45.729318,1.0,1.0,350.0
2022-02-08-11:09:45.730311,1.0,1.0,350.0
2022-02-08-11:09:45.731253,3.0,1.0,350.0
2022-02-08-11:09:45.732252,3.0,5.0,350.0
2022-02-08-11:09:45.733303,4.0,11.0,350.0
2022-02-08-11:09:45.734300,4.0,11.0,350.0
2022-02-08-11:09:45.735298,0.0,4.0,350.0
2022-02-08-11:09:45.736295,1.0,7.0,350.0
2022-02-08-11:09:45.737296,1.0,7.0,350.0
2022-02-08-11:09:45.738292,1.0,7.0,350.0
2022-02-08-11:09:45.739289,4.0,1.0,350.0
2022-02-08-11:09:45.740290,11.0,2.0,350.0
2022-02-08-11:09:45.741282,9.0,8.0,350.0
2022-02-08-11:09:45.742279,9.0,8.0,350.0
2022-02-08-11:09:45.743276,10.0,14.0,350.0
2022-02-08-11:09:45.744276,10.0,14.0,350.0
2022-02-08-11:09:45.745250,8.0,8.0,350.0
2022-02-08-11:09:45.747268,1.0,3.0,350.0
2022-02-08-11:09:45.747268,0.0,4.0,350.0
2022-02-08-11:09:45.748209,3.0,7.0,350.0
2022-02-08-11:09:45.749206,3.0,7.0,350.0
2022-02-08-11:09:45.750258,3.0,7.0,350.0
2022-02-08-11:09:45.751255,3.0,4.0,350.0
2022-02-08-11:09:45.752255,2.0,14.0,350.0
2022-02-08-11:09:45.753249,2.0,6.0,350.0
2022-02-08-11:09:45.754247,2.0,6.0,350.0
2022-02-08-11:09:45.755246,6.0,2.0,350.0
2022-02-08-11:09:45.756243,11.0,0.0,350.0
2022-02-08-11:09:45.757247,11.0,0.0,350.0
2022-02-08-11:09:45.758182,11.0,0.0,350.0
2022-02-08-11:09:45.759234,11.0,4.0,350.0
2022-02-08-11:09:45.760231,9.0,7.0,350.0
2022-02-08-11:09:45.761232,1.0,1.0,350.0
2022-02-08-11:09:45.762172,1.0,1.0,350.0
2022-02-08-11:09:45.763225,1.0,1.0,350.0
2022-02-08-11:09:45.764221,0.0,2.0,350.0
2022-02-08-11:09:45.765203,1.0,15.0,350.0
2022-02-08-11:09:45.766194,1.0,15.0,350.0
2022-02-08-11:09:45.767192,2.0,6.0,350.0
2022-02-08-11:09:45.768189,3.0,9.0,350.0
2022-02-08-11:09:45.769156,3.0,19.0,350.0
2022-02-08-11:09:45.770184,3.0,19.0,350.0
2022-02-08-11:09:45.771183,2.0,8.0,350.0
2022-02-08-11:09:45.772179,12.0,1.0,350.0
2022-02-08-11:09:45.773176,12.0,2.0,350.0
2022-02-08-11:09:45.774173,12.0,2.0,350.0
2022-02-08-11:09:45.775171,12.0,2.0,350.0
2022-02-08-11:09:45.776168,9.0,7.0,350.0
2022-02-08-11:09:45.779131,9.0,13.0,350.0
2022-02-08-11:09:45.781121,9.0,9.0,350.0
2022-02-08-11:09:45.781121,1.0,8.0,350.0
2022-02-08-11:09:45.782151,6.0,1.0,350.0
2022-02-08-11:09:45.783147,3.0,3.0,350.0
2022-02-08-11:09:45.784159,6.0,7.0,350.0
2022-02-08-11:09:45.785142,1.0,6.0,350.0
2022-02-08-11:09:45.786140,1.0,6.0,350.0
2022-02-08-11:09:45.787140,1.0,6.0,350.0
2022-02-08-11:09:45.788134,0.0,3.0,350.0
2022-02-08-11:09:45.789135,7.0,9.0,350.0
2022-02-08-11:09:45.790129,7.0,9.0,350.0
2022-02-08-11:09:45.791130,7.0,9.0,350.0
2022-02-08-11:09:45.792125,8.0,9.0,350.0
2022-02-08-11:09:45.793121,8.0,9.0,350.0
2022-02-08-11:09:45.794118,8.0,9.0,350.0
2022-02-08-11:09:45.795084,8.0,9.0,350.0
2022-02-08-11:09:45.796086,4.0,3.0,350.0
2022-02-08-11:09:45.797113,4.0,3.0,350.0
2022-02-08-11:09:45.798082,6.0,6.0,350.0
2022-02-08-11:09:45.799077,6.0,6.0,350.0
2022-02-08-11:09:45.800104,1.0,6.0,350.0
2022-02-08-11:09:45.801099,2.0,1.0,350.0
2022-02-08-11:09:45.802096,1.0,1.0,350.0
2022-02-08-11:09:45.803096,1.0,1.0,350.0
2022-02-08-11:09:45.804092,1.0,4.0,350.0
2022-02-08-11:09:45.805091,5.0,2.0,350.0
2022-02-08-11:09:45.806086,8.0,6.0,350.0
2022-02-08-11:09:45.807083,8.0,6.0,350.0
2022-02-08-11:09:45.808083,8.0,6.0,350.0
2022-02-08-11:09:45.809079,12.0,8.0,350.0
2022-02-08-11:09:45.810076,12.0,8.0,350.0
2022-02-08-11:09:45.811074,12.0,8.0,350.0
2022-02-08-11:09:45.812070,5.0,3.0,350.0
2022-02-08-11:09:45.813070,4.0,1.0,350.0
2022-02-08-11:09:45.815062,1.0,3.0,350.0
2022-02-08-11:09:45.815062,1.0,3.0,350.0
2022-02-08-11:09:45.816054,4.0,3.0,350.0
2022-02-08-11:09:45.817049,7.0,10.0,350.0
2022-02-08-11:09:45.818046,7.0,10.0,350.0
2022-02-08-11:09:45.819045,7.0,10.0,350.0
2022-02-08-11:09:45.820049,7.0,10.0,350.0
2022-02-08-11:09:45.821018,5.0,7.0,350.0
2022-02-08-11:09:45.822043,6.0,3.0,350.0
2022-02-08-11:09:45.823041,6.0,3.0,350.0
2022-02-08-11:09:45.824040,6.0,3.0,350.0
2022-02-08-11:09:45.825035,10.0,3.0,350.0
2022-02-08-11:09:45.826033,6.0,8.0,350.0
2022-02-08-11:09:45.827032,6.0,8.0,350.0
2022-02-08-11:09:45.828027,6.0,8.0,350.0
2022-02-08-11:09:45.829030,8.0,8.0,350.0
2022-02-08-11:09:45.830026,0.0,0.0,350.0
2022-02-08-11:09:45.830988,0.0,0.0,350.0
2022-02-08-11:09:45.832020,0.0,0.0,350.0
2022-02-08-11:09:45.833014,3.0,3.0,350.0
2022-02-08-11:09:45.834011,3.0,3.0,350.0
2022-02-08-11:09:45.835010,3.0,3.0,350.0
2022-02-08-11:09:45.835974,2.0,1.0,350.0
2022-02-08-11:09:45.836999,3.0,4.0,350.0
2022-02-08-11:09:45.837993,10.0,16.0,350.0
2022-02-08-11:09:45.838991,10.0,16.0,350.0
2022-02-08-11:09:45.839965,10.0,16.0,350.0
2022-02-08-11:09:45.840992,9.0,10.0,350.0
2022-02-08-11:09:45.841997,11.0,1.0,350.0
2022-02-08-11:09:45.842993,11.0,1.0,350.0
2022-02-08-11:09:45.843985,11.0,1.0,350.0
2022-02-08-11:09:45.844984,11.0,1.0,350.0
2022-02-08-11:09:45.845948,2.0,0.0,350.0
2022-02-08-11:09:45.846976,2.0,0.0,350.0
2022-02-08-11:09:45.847945,2.0,0.0,350.0
2022-02-08-11:09:45.849974,2.0,0.0,350.0
2022-02-08-11:09:45.849974,6.0,3.0,350.0
2022-02-08-11:09:45.850968,6.0,3.0,350.0
2022-02-08-11:09:45.851963,6.0,3.0,350.0
2022-02-08-11:09:45.852963,6.0,3.0,350.0
2022-02-08-11:09:45.853958,4.0,5.0,350.0
2022-02-08-11:09:45.854955,6.0,1.0,350.0
2022-02-08-11:09:45.855955,11.0,5.0,350.0
2022-02-08-11:09:45.856950,11.0,5.0,350.0
2022-02-08-11:09:45.857947,9.0,12.0,350.0
2022-02-08-11:09:45.858947,7.0,5.0,350.0
2022-02-08-11:09:45.859942,7.0,5.0,350.0
2022-02-08-11:09:45.860941,7.0,5.0,350.0
2022-02-08-11:09:45.861937,1.0,4.0,350.0
2022-02-08-11:09:45.862934,3.0,0.0,350.0
2022-02-08-11:09:45.863934,2.0,1.0,350.0
2022-02-08-11:09:45.864897,2.0,1.0,350.0
2022-02-08-11:09:45.865936,5.0,2.0,350.0
2022-02-08-11:09:45.866925,5.0,6.0,350.0
2022-02-08-11:09:45.867921,5.0,6.0,350.0
2022-02-08-11:09:45.868926,5.0,6.0,350.0
2022-02-08-11:09:45.869915,2.0,1.0,350.0
2022-02-08-11:09:45.870881,8.0,2.0,350.0
2022-02-08-11:09:45.871912,8.0,2.0,350.0
2022-02-08-11:09:45.872876,8.0,2.0,350.0
2022-02-08-11:09:45.873912,4.0,7.0,350.0
2022-02-08-11:09:45.874904,12.0,19.0,350.0
2022-02-08-11:09:45.875900,12.0,19.0,350.0
2022-02-08-11:09:45.876866,12.0,19.0,350.0
2022-02-08-11:09:45.877895,4.0,13.0,350.0
2022-02-08-11:09:45.878892,4.0,1.0,350.0
2022-02-08-11:09:45.879891,4.0,1.0,350.0
2022-02-08-11:09:45.882883,4.0,1.0,350.0
2022-02-08-11:09:45.882883,2.0,1.0,350.0
2022-02-08-11:09:45.883878,2.0,1.0,350.0
2022-02-08-11:09:45.884878,2.0,1.0,350.0
2022-02-08-11:09:45.885874,2.0,1.0,350.0
2022-02-08-11:09:45.886870,5.0,3.0,350.0
2022-02-08-11:09:45.887870,5.0,4.0,350.0
2022-02-08-11:09:45.888870,5.0,4.0,350.0
2022-02-08-11:09:45.889863,5.0,4.0,350.0
2022-02-08-11:09:45.890861,11.0,12.0,350.0
2022-02-08-11:09:45.891866,11.0,6.0,350.0
2022-02-08-11:09:45.892857,10.0,3.0,350.0
2022-02-08-11:09:45.893851,10.0,3.0,350.0
2022-02-08-11:09:45.894849,11.0,2.0,350.0
2022-02-08-11:09:45.895814,1.0,1.0,350.0
2022-02-08-11:09:45.896843,1.0,1.0,350.0
2022-02-08-11:09:45.897809,1.0,1.0,350.0
2022-02-08-11:09:45.898840,1.0,2.0,350.0
2022-02-08-11:09:45.899836,1.0,2.0,350.0
2022-02-08-11:09:45.900835,1.0,2.0,350.0
2022-02-08-11:09:45.901830,1.0,2.0,350.0
2022-02-08-11:09:45.902827,6.0,16.0,350.0
2022-02-08-11:09:45.903827,5.0,6.0,350.0
2022-02-08-11:09:45.904822,5.0,6.0,350.0
2022-02-08-11:09:45.905819,5.0,6.0,350.0
2022-02-08-11:09:45.906819,9.0,0.0,350.0
2022-02-08-11:09:45.907814,9.0,7.0,350.0
2022-02-08-11:09:45.908793,9.0,7.0,350.0
2022-02-08-11:09:45.909777,9.0,7.0,350.0
2022-02-08-11:09:45.910807,9.0,8.0,350.0
2022-02-08-11:09:45.911806,0.0,3.0,350.0
2022-02-08-11:09:45.912801,0.0,3.0,350.0
2022-02-08-11:09:45.913767,0.0,3.0,350.0
2022-02-08-11:09:45.916813,2.0,5.0,350.0
2022-02-08-11:09:45.916813,3.0,0.0,350.0
2022-02-08-11:09:45.917810,3.0,0.0,350.0
2022-02-08-11:09:45.918808,6.0,7.0,350.0
2022-02-08-11:09:45.919812,6.0,7.0,350.0
2022-02-08-11:09:45.920806,6.0,7.0,350.0
2022-02-08-11:09:45.921746,6.0,7.0,350.0
2022-02-08-11:09:45.922798,6.0,7.0,350.0
2022-02-08-11:09:45.923794,10.0,3.0,350.0
2022-02-08-11:09:45.924791,10.0,8.0,350.0
2022-02-08-11:09:45.925789,10.0,8.0,350.0
2022-02-08-11:09:45.926787,10.0,8.0,350.0
2022-02-08-11:09:45.927783,1.0,1.0,350.0
2022-02-08-11:09:45.928780,0.0,5.0,350.0
2022-02-08-11:09:45.929778,0.0,5.0,350.0
2022-02-08-11:09:45.930785,0.0,5.0,350.0
2022-02-08-11:09:45.931773,1.0,3.0,350.0
2022-02-08-11:09:45.932770,3.0,14.0,350.0
2022-02-08-11:09:45.933767,2.0,6.0,350.0
2022-02-08-11:09:45.934765,2.0,6.0,350.0
2022-02-08-11:09:45.935764,5.0,2.0,350.0
2022-02-08-11:09:45.936763,3.0,3.0,350.0
2022-02-08-11:09:45.937757,6.0,8.0,350.0
2022-02-08-11:09:45.938756,6.0,8.0,350.0
2022-02-08-11:09:45.939751,5.0,1.0,350.0
2022-02-08-11:09:45.940748,11.0,4.0,350.0
2022-02-08-11:09:45.941746,9.0,9.0,350.0
2022-02-08-11:09:45.942743,9.0,9.0,350.0
2022-02-08-11:09:45.943740,7.0,7.0,350.0
2022-02-08-11:09:45.944742,5.0,3.0,350.0
2022-02-08-11:09:45.945735,3.0,6.0,350.0
2022-02-08-11:09:45.946681,3.0,6.0,350.0
2022-02-08-11:09:45.947738,2.0,9.0,350.0
2022-02-08-11:09:45.948709,4.0,3.0,350.0
2022-02-08-11:09:45.949703,4.0,3.0,350.0
2022-02-08-11:09:45.951719,4.0,3.0,350.0
2022-02-08-11:09:45.951719,0.0,7.0,350.0
2022-02-08-11:09:45.952721,1.0,9.0,350.0
2022-02-08-11:09:45.953714,1.0,9.0,350.0
2022-02-08-11:09:45.954670,1.0,9.0,350.0
2022-02-08-11:09:45.955708,8.0,6.0,350.0
2022-02-08-11:09:45.956706,10.0,0.0,350.0
2022-02-08-11:09:45.957703,10.0,3.0,350.0
2022-02-08-11:09:45.958700,10.0,3.0,350.0
2022-02-08-11:09:45.959698,4.0,17.0,350.0
2022-02-08-11:09:45.960699,2.0,4.0,350.0
2022-02-08-11:09:45.961693,2.0,4.0,350.0
2022-02-08-11:09:45.962692,2.0,4.0,350.0
2022-02-08-11:09:45.963687,2.0,4.0,350.0
2022-02-08-11:09:45.964630,0.0,2.0,350.0
2022-02-08-11:09:45.965653,1.0,0.0,350.0
2022-02-08-11:09:45.966680,1.0,1.0,350.0
2022-02-08-11:09:45.967677,1.0,1.0,350.0
2022-02-08-11:09:45.968680,0.0,3.0,350.0
2022-02-08-11:09:45.969676,3.0,2.0,350.0
2022-02-08-11:09:45.970670,5.0,1.0,350.0
2022-02-08-11:09:45.971611,5.0,1.0,350.0
2022-02-08-11:09:45.972664,4.0,1.0,350.0
2022-02-08-11:09:45.973661,10.0,4.0,350.0
2022-02-08-11:09:45.974660,10.0,4.0,350.0
2022-02-08-11:09:45.975655,10.0,4.0,350.0
2022-02-08-11:09:45.976652,8.0,12.0,350.0
2022-02-08-11:09:45.977651,11.0,8.0,350.0
2022-02-08-11:09:45.978649,1.0,6.0,350.0
2022-02-08-11:09:45.979645,1.0,6.0,350.0
2022-02-08-11:09:45.980642,1.0,1.0,350.0
2022-02-08-11:09:45.981590,1.0,3.0,350.0
2022-02-08-11:09:45.982637,1.0,1.0,350.0
2022-02-08-11:09:45.983580,1.0,1.0,350.0
2022-02-08-11:09:45.984635,4.0,2.0,350.0
2022-02-08-11:09:45.986628,6.0,10.0,350.0
2022-02-08-11:09:45.986628,1.0,4.0,350.0
2022-02-08-11:09:45.987570,1.0,4.0,350.0
2022-02-08-11:09:45.988622,7.0,1.0,350.0
2022-02-08-11:09:45.989622,14.0,5.0,350.0
2022-02-08-11:09:45.990617,10.0,12.0,350.0
2022-02-08-11:09:45.991561,10.0,12.0,350.0
2022-02-08-11:09:45.992614,13.0,2.0,350.0
2022-02-08-11:09:45.993609,8.0,6.0,350.0
2022-02-08-11:09:45.994607,3.0,2.0,350.0
2022-02-08-11:09:45.995602,3.0,2.0,350.0
2022-02-08-11:09:45.996599,1.0,8.0,350.0
2022-02-08-11:09:45.997597,0.0,5.0,350.0
2022-02-08-11:09:45.998574,2.0,10.0,350.0
2022-02-08-11:09:45.999591,2.0,10.0,350.0
2022-02-08-11:09:46.000568,0.0,12.0,350.0
2022-02-08-11:09:46.001531,6.0,23.0,350.0
2022-02-08-11:09:46.002568,0.0,5.0,350.0
2022-02-08-11:09:46.003558,0.0,5.0,350.0
2022-02-08-11:09:46.004558,0.0,5.0,350.0
2022-02-08-11:09:46.005554,6.0,6.0,350.0
2022-02-08-11:09:46.006551,7.0,3.0,350.0
2022-02-08-11:09:46.007550,7.0,3.0,350.0
2022-02-08-11:09:46.008545,7.0,3.0,350.0
2022-02-08-11:09:46.009544,11.0,1.0,350.0
2022-02-08-11:09:46.010541,3.0,4.0,350.0
2022-02-08-11:09:46.011543,6.0,0.0,350.0
2022-02-08-11:09:46.012537,6.0,0.0,350.0
2022-02-08-11:09:46.013534,4.0,3.0,350.0
2022-02-08-11:09:46.014512,2.0,3.0,350.0
2022-02-08-11:09:46.015532,3.0,3.0,350.0
2022-02-08-11:09:46.016524,3.0,3.0,350.0
2022-02-08-11:09:46.017514,1.0,7.0,350.0
2022-02-08-11:09:46.019508,3.0,14.0,350.0
2022-02-08-11:09:46.019508,5.0,8.0,350.0
2022-02-08-11:09:46.020509,5.0,8.0,350.0
2022-02-08-11:09:46.021502,8.0,16.0,350.0
2022-02-08-11:09:46.022476,8.0,16.0,350.0
2022-02-08-11:09:46.023499,8.0,16.0,350.0
2022-02-08-11:09:46.024470,8.0,16.0,350.0
2022-02-08-11:09:46.025492,9.0,2.0,350.0
2022-02-08-11:09:46.026491,12.0,1.0,350.0
2022-02-08-11:09:46.027487,5.0,8.0,350.0
2022-02-08-11:09:46.028460,5.0,8.0,350.0
2022-02-08-11:09:46.029489,3.0,6.0,350.0
2022-02-08-11:09:46.030491,3.0,7.0,350.0
2022-02-08-11:09:46.031451,5.0,3.0,350.0
2022-02-08-11:09:46.032449,5.0,3.0,350.0
2022-02-08-11:09:46.033479,2.0,3.0,350.0
2022-02-08-11:09:46.034477,3.0,1.0,350.0
2022-02-08-11:09:46.035441,4.0,2.0,350.0
2022-02-08-11:09:46.036464,4.0,2.0,350.0
2022-02-08-11:09:46.037460,4.0,2.0,350.0
2022-02-08-11:09:46.038457,6.0,4.0,350.0
2022-02-08-11:09:46.039457,7.0,4.0,350.0
2022-02-08-11:09:46.040451,7.0,4.0,350.0
2022-02-08-11:09:46.041457,7.0,4.0,350.0
2022-02-08-11:09:46.042456,7.0,6.0,350.0
2022-02-08-11:09:46.043461,5.0,5.0,350.0
2022-02-08-11:09:46.044451,8.0,31.0,350.0
2022-02-08-11:09:46.045446,8.0,31.0,350.0
2022-02-08-11:09:46.046443,0.0,17.0,350.0
2022-02-08-11:09:46.047443,2.0,0.0,350.0
2022-02-08-11:09:46.048407,1.0,3.0,350.0
2022-02-08-11:09:46.049428,1.0,3.0,350.0
2022-02-08-11:09:46.050439,1.0,8.0,350.0
2022-02-08-11:09:46.052423,1.0,8.0,350.0
2022-02-08-11:09:46.052423,1.0,2.0,350.0
2022-02-08-11:09:46.053393,9.0,2.0,350.0
2022-02-08-11:09:46.054418,9.0,2.0,350.0
2022-02-08-11:09:46.055413,9.0,2.0,350.0
2022-02-08-11:09:46.056409,9.0,2.0,350.0
2022-02-08-11:09:46.057414,9.0,2.0,350.0
2022-02-08-11:09:46.058406,13.0,6.0,350.0
2022-02-08-11:09:46.059408,10.0,5.0,350.0
2022-02-08-11:09:46.060375,9.0,12.0,350.0
2022-02-08-11:09:46.061404,9.0,12.0,350.0
2022-02-08-11:09:46.062401,5.0,8.0,350.0
2022-02-08-11:09:46.063400,2.0,3.0,350.0
2022-02-08-11:09:46.064396,3.0,2.0,350.0
2022-02-08-11:09:46.065361,3.0,2.0,350.0
2022-02-08-11:09:46.066384,4.0,8.0,350.0
2022-02-08-11:09:46.067380,6.0,2.0,350.0
2022-02-08-11:09:46.068380,6.0,2.0,350.0
2022-02-08-11:09:46.069352,6.0,2.0,350.0
2022-02-08-11:09:46.070372,7.0,3.0,349.0
2022-02-08-11:09:46.071376,4.0,15.0,350.0
2022-02-08-11:09:46.072367,4.0,15.0,350.0
2022-02-08-11:09:46.073363,4.0,15.0,350.0
2022-02-08-11:09:46.074363,9.0,8.0,350.0
2022-02-08-11:09:46.075358,8.0,11.0,350.0
2022-02-08-11:09:46.076359,8.0,11.0,350.0
2022-02-08-11:09:46.077352,8.0,11.0,350.0
2022-02-08-11:09:46.078351,8.0,11.0,350.0
2022-02-08-11:09:46.079350,4.0,1.0,350.0
2022-02-08-11:09:46.080346,4.0,1.0,350.0
2022-02-08-11:09:46.081321,4.0,1.0,350.0
2022-02-08-11:09:46.082350,4.0,1.0,350.0
2022-02-08-11:09:46.083345,2.0,3.0,350.0
2022-02-08-11:09:46.084345,3.0,10.0,350.0
2022-02-08-11:09:46.085308,4.0,10.0,350.0
2022-02-08-11:09:46.087329,4.0,10.0,350.0
2022-02-08-11:09:46.087329,3.0,3.0,350.0
2022-02-08-11:09:46.088324,4.0,2.0,350.0
2022-02-08-11:09:46.089321,4.0,2.0,350.0
2022-02-08-11:09:46.090295,4.0,2.0,350.0
2022-02-08-11:09:46.091436,11.0,9.0,350.0
2022-02-08-11:09:46.092352,7.0,6.0,350.0
2022-02-08-11:09:46.093318,7.0,6.0,350.0
2022-02-08-11:09:46.094432,7.0,6.0,350.0
2022-02-08-11:09:46.095338,0.0,2.0,350.0
2022-02-08-11:09:46.096278,2.0,1.0,350.0
2022-02-08-11:09:46.097395,2.0,1.0,350.0
2022-02-08-11:09:46.098408,2.0,1.0,350.0
2022-02-08-11:09:46.099332,1.0,8.0,350.0
2022-02-08-11:09:46.100400,6.0,0.0,350.0
2022-02-08-11:09:46.101366,6.0,0.0,350.0
2022-02-08-11:09:46.102330,6.0,0.0,350.0
2022-02-08-11:09:46.103411,10.0,12.0,350.0
2022-02-08-11:09:46.104298,10.0,12.0,350.0
2022-02-08-11:09:46.105286,10.0,12.0,350.0
2022-02-08-11:09:46.106253,10.0,12.0,350.0
2022-02-08-11:09:46.107281,11.0,11.0,350.0
2022-02-08-11:09:46.108281,10.0,14.0,350.0
2022-02-08-11:09:46.109281,10.0,14.0,350.0
2022-02-08-11:09:46.110280,10.0,14.0,350.0
2022-02-08-11:09:46.111277,4.0,14.0,350.0
2022-02-08-11:09:46.112236,3.0,1.0,350.0
2022-02-08-11:09:46.113265,3.0,1.0,350.0
2022-02-08-11:09:46.114264,3.0,1.0,350.0
2022-02-08-11:09:46.115262,3.0,1.0,350.0
2022-02-08-11:09:46.116259,4.0,4.0,350.0
2022-02-08-11:09:46.117255,4.0,4.0,350.0
2022-02-08-11:09:46.118251,4.0,4.0,350.0
2022-02-08-11:09:46.120246,4.0,4.0,350.0
2022-02-08-11:09:46.120246,0.0,2.0,350.0
2022-02-08-11:09:46.121212,7.0,5.0,350.0
2022-02-08-11:09:46.122243,5.0,2.0,350.0
2022-02-08-11:09:46.123238,5.0,2.0,350.0
2022-02-08-11:09:46.124238,11.0,4.0,350.0
2022-02-08-11:09:46.125201,11.0,9.0,350.0
2022-02-08-11:09:46.126230,11.0,9.0,350.0
2022-02-08-11:09:46.127230,11.0,9.0,350.0
2022-02-08-11:09:46.128227,8.0,9.0,350.0
2022-02-08-11:09:46.129223,1.0,2.0,350.0
2022-02-08-11:09:46.130221,1.0,2.0,350.0
2022-02-08-11:09:46.131217,1.0,2.0,350.0
2022-02-08-11:09:46.132190,0.0,3.0,350.0
2022-02-08-11:09:46.133212,1.0,7.0,350.0
2022-02-08-11:09:46.134209,1.0,7.0,350.0
2022-02-08-11:09:46.135208,1.0,7.0,350.0
2022-02-08-11:09:46.136203,2.0,0.0,350.0
2022-02-08-11:09:46.137171,7.0,1.0,349.0
2022-02-08-11:09:46.138201,7.0,1.0,349.0
2022-02-08-11:09:46.139164,7.0,1.0,349.0
2022-02-08-11:09:46.140195,9.0,7.0,350.0
2022-02-08-11:09:46.141190,13.0,9.0,350.0
2022-02-08-11:09:46.142192,13.0,9.0,350.0
2022-02-08-11:09:46.143153,13.0,9.0,350.0
2022-02-08-11:09:46.144182,4.0,7.0,350.0
2022-02-08-11:09:46.145180,2.0,2.0,350.0
2022-02-08-11:09:46.146179,1.0,9.0,350.0
2022-02-08-11:09:46.147169,1.0,9.0,350.0
2022-02-08-11:09:46.148140,2.0,7.0,350.0
2022-02-08-11:09:46.149138,4.0,5.0,350.0
2022-02-08-11:09:46.150166,4.0,5.0,350.0
2022-02-08-11:09:46.151171,4.0,5.0,350.0
2022-02-08-11:09:46.152161,5.0,1.0,350.0
2022-02-08-11:09:46.153148,2.0,2.0,350.0
2022-02-08-11:09:46.155153,2.0,7.0,350.0
2022-02-08-11:09:46.155153,2.0,7.0,350.0
2022-02-08-11:09:46.156150,10.0,11.0,350.0
2022-02-08-11:09:46.157140,12.0,6.0,350.0
2022-02-08-11:09:46.158137,12.0,6.0,350.0
2022-02-08-11:09:46.159136,12.0,6.0,350.0
2022-02-08-11:09:46.160139,12.0,6.0,350.0
2022-02-08-11:09:46.161137,5.0,2.0,350.0
2022-02-08-11:09:46.162140,5.0,6.0,350.0
2022-02-08-11:09:46.163131,5.0,6.0,350.0
2022-02-08-11:09:46.164132,5.0,6.0,350.0
2022-02-08-11:09:46.165095,2.0,24.0,350.0
2022-02-08-11:09:46.166116,3.0,1.0,350.0
2022-02-08-11:09:46.167115,3.0,1.0,350.0
2022-02-08-11:09:46.168111,3.0,1.0,350.0
2022-02-08-11:09:46.169116,2.0,2.0,350.0
2022-02-08-11:09:46.170107,2.0,2.0,350.0
2022-02-08-11:09:46.171103,1.0,6.0,350.0
2022-02-08-11:09:46.172102,3.0,1.0,350.0
2022-02-08-11:09:46.173097,9.0,2.0,350.0
2022-02-08-11:09:46.174071,10.0,2.0,350.0
2022-02-08-11:09:46.175094,10.0,2.0,350.0
2022-02-08-11:09:46.176065,10.0,2.0,350.0
2022-02-08-11:09:46.177092,6.0,5.0,350.0
2022-02-08-11:09:46.178086,1.0,4.0,350.0
2022-02-08-11:09:46.179081,1.0,4.0,350.0
2022-02-08-11:09:46.180055,1.0,4.0,350.0
2022-02-08-11:09:46.181084,3.0,4.0,350.0
2022-02-08-11:09:46.182083,3.0,5.0,350.0
2022-02-08-11:09:46.183081,3.0,5.0,350.0
2022-02-08-11:09:46.184045,3.0,5.0,350.0
2022-02-08-11:09:46.185079,2.0,3.0,350.0
2022-02-08-11:09:46.186040,1.0,4.0,350.0
2022-02-08-11:09:46.188067,2.0,1.0,350.0
2022-02-08-11:09:46.188067,2.0,1.0,350.0
2022-02-08-11:09:46.189062,10.0,7.0,350.0
2022-02-08-11:09:46.190052,7.0,8.0,350.0
2022-02-08-11:09:46.191051,7.0,8.0,350.0
2022-02-08-11:09:46.192046,7.0,8.0,350.0
2022-02-08-11:09:46.193051,7.0,8.0,350.0
2022-02-08-11:09:46.194051,11.0,9.0,350.0
2022-02-08-11:09:46.195039,4.0,3.0,350.0
2022-02-08-11:09:46.196038,3.0,6.0,350.0
2022-02-08-11:09:46.197034,3.0,6.0,350.0
2022-02-08-11:09:46.198007,3.0,1.0,350.0
2022-02-08-11:09:46.199026,4.0,1.0,350.0
2022-02-08-11:09:46.200006,2.0,1.0,350.0
2022-02-08-11:09:46.201004,1.0,8.0,350.0
2022-02-08-11:09:46.201995,5.0,11.0,350.0
2022-02-08-11:09:46.203025,5.0,10.0,350.0
2022-02-08-11:09:46.204030,5.0,10.0,350.0
2022-02-08-11:09:46.205019,4.0,2.0,350.0
2022-02-08-11:09:46.206036,12.0,7.0,350.0
2022-02-08-11:09:46.207017,12.0,7.0,350.0
2022-02-08-11:09:46.208011,12.0,7.0,350.0
2022-02-08-11:09:46.209009,12.0,7.0,350.0
2022-02-08-11:09:46.210008,13.0,4.0,350.0
2022-02-08-11:09:46.211004,2.0,3.0,350.0
2022-02-08-11:09:46.211973,2.0,3.0,350.0
2022-02-08-11:09:46.212999,2.0,3.0,350.0
2022-02-08-11:09:46.213996,1.0,13.0,350.0
2022-02-08-11:09:46.215000,6.0,8.0,350.0
2022-02-08-11:09:46.215989,6.0,8.0,350.0
2022-02-08-11:09:46.216956,6.0,8.0,350.0
2022-02-08-11:09:46.217987,4.0,1.0,350.0
2022-02-08-11:09:46.218982,0.0,2.0,350.0
2022-02-08-11:09:46.219982,1.0,4.0,350.0
2022-02-08-11:09:46.220946,1.0,4.0,350.0
2022-02-08-11:09:46.222974,4.0,1.0,350.0
2022-02-08-11:09:46.222974,4.0,1.0,350.0
2022-02-08-11:09:46.223971,8.0,3.0,350.0
2022-02-08-11:09:46.224966,8.0,3.0,350.0
2022-02-08-11:09:46.225966,14.0,19.0,350.0
2022-02-08-11:09:46.226968,1.0,14.0,350.0
2022-02-08-11:09:46.227960,1.0,14.0,350.0
2022-02-08-11:09:46.228956,1.0,14.0,350.0
2022-02-08-11:09:46.229955,1.0,14.0,350.0
2022-02-08-11:09:46.230953,5.0,2.0,350.0
2022-02-08-11:09:46.231916,5.0,2.0,350.0
2022-02-08-11:09:46.232913,5.0,2.0,350.0
2022-02-08-11:09:46.233974,5.0,2.0,350.0
2022-02-08-11:09:46.234962,3.0,7.0,350.0
2022-02-08-11:09:46.235959,4.0,4.0,350.0
2022-02-08-11:09:46.236902,0.0,16.0,350.0
2022-02-08-11:09:46.237954,0.0,16.0,350.0
2022-02-08-11:09:46.238931,3.0,16.0,350.0
2022-02-08-11:09:46.239953,9.0,6.0,350.0
2022-02-08-11:09:46.240946,9.0,6.0,350.0
2022-02-08-11:09:46.241945,9.0,6.0,350.0
2022-02-08-11:09:46.242941,10.0,7.0,350.0
2022-02-08-11:09:46.243942,8.0,8.0,350.0
2022-02-08-11:09:46.244936,6.0,7.0,350.0
2022-02-08-11:09:46.245933,6.0,7.0,350.0
2022-02-08-11:09:46.246930,4.0,2.0,350.0
2022-02-08-11:09:46.247927,4.0,2.0,350.0
2022-02-08-11:09:46.248909,5.0,1.0,350.0
2022-02-08-11:09:46.249903,5.0,1.0,350.0
2022-02-08-11:09:46.250899,3.0,0.0,350.0
2022-02-08-11:09:46.251896,4.0,4.0,350.0
2022-02-08-11:09:46.252893,5.0,1.0,350.0
2022-02-08-11:09:46.253857,5.0,1.0,350.0
2022-02-08-11:09:46.254889,0.0,4.0,350.0
2022-02-08-11:09:46.256886,0.0,4.0,350.0
2022-02-08-11:09:46.256886,14.0,4.0,350.0
2022-02-08-11:09:46.257847,14.0,4.0,350.0
2022-02-08-11:09:46.258878,12.0,4.0,350.0
2022-02-08-11:09:46.259878,7.0,5.0,350.0
2022-02-08-11:09:46.260872,6.0,5.0,350.0
2022-02-08-11:09:46.261836,6.0,5.0,350.0
2022-02-08-11:09:46.262867,6.0,5.0,350.0
2022-02-08-11:09:46.263864,3.0,2.0,350.0
2022-02-08-11:09:46.264855,0.0,2.0,350.0
2022-02-08-11:09:46.265826,0.0,3.0,350.0
2022-02-08-11:09:46.266856,0.0,3.0,350.0
2022-02-08-11:09:46.267854,4.0,1.0,350.0
2022-02-08-11:09:46.268851,2.0,0.0,350.0
2022-02-08-11:09:46.269849,2.0,0.0,350.0
2022-02-08-11:09:46.270848,2.0,0.0,350.0
2022-02-08-11:09:46.271847,0.0,0.0,350.0
2022-02-08-11:09:46.272843,0.0,0.0,350.0
2022-02-08-11:09:46.273839,10.0,11.0,350.0
2022-02-08-11:09:46.274835,10.0,11.0,350.0
2022-02-08-11:09:46.275833,11.0,15.0,350.0
2022-02-08-11:09:46.276829,10.0,15.0,350.0
2022-02-08-11:09:46.277827,5.0,5.0,350.0
2022-02-08-11:09:46.278790,5.0,5.0,350.0
2022-02-08-11:09:46.279788,3.0,0.0,350.0
2022-02-08-11:09:46.280785,2.0,1.0,350.0
2022-02-08-11:09:46.281782,2.0,1.0,350.0
2022-02-08-11:09:46.282780,2.0,1.0,350.0
2022-02-08-11:09:46.283812,3.0,5.0,350.0
2022-02-08-11:09:46.284807,4.0,2.0,350.0
2022-02-08-11:09:46.285804,4.0,2.0,350.0
2022-02-08-11:09:46.286803,4.0,2.0,350.0
2022-02-08-11:09:46.287798,0.0,2.0,350.0
2022-02-08-11:09:46.288795,7.0,3.0,350.0
2022-02-08-11:09:46.290791,7.0,3.0,350.0
2022-02-08-11:09:46.290791,9.0,6.0,350.0
2022-02-08-11:09:46.291791,7.0,5.0,350.0
2022-02-08-11:09:46.292785,7.0,5.0,350.0
2022-02-08-11:09:46.293782,7.0,5.0,350.0
2022-02-08-11:09:46.294748,7.0,5.0,350.0
2022-02-08-11:09:46.295777,4.0,3.0,350.0
2022-02-08-11:09:46.296775,4.0,12.0,350.0
2022-02-08-11:09:46.297773,5.0,8.0,350.0
2022-02-08-11:09:46.298746,5.0,8.0,350.0
2022-02-08-11:09:46.299768,5.0,7.0,350.0
2022-02-08-11:09:46.300731,2.0,12.0,350.0
2022-02-08-11:09:46.301761,2.0,12.0,350.0
2022-02-08-11:09:46.302761,2.0,12.0,350.0
2022-02-08-11:09:46.303756,2.0,12.0,350.0
2022-02-08-11:09:46.304753,10.0,7.0,350.0
2022-02-08-11:09:46.305752,8.0,6.0,350.0
2022-02-08-11:09:46.306748,8.0,6.0,350.0
2022-02-08-11:09:46.307748,8.0,6.0,350.0
2022-02-08-11:09:46.308742,10.0,6.0,350.0
2022-02-08-11:09:46.309740,6.0,15.0,350.0
2022-02-08-11:09:46.310739,6.0,15.0,350.0
2022-02-08-11:09:46.311741,6.0,15.0,350.0
2022-02-08-11:09:46.312739,2.0,15.0,350.0
2022-02-08-11:09:46.313697,3.0,3.0,350.0
2022-02-08-11:09:46.314706,3.0,3.0,350.0
2022-02-08-11:09:46.315702,3.0,3.0,350.0
2022-02-08-11:09:46.316721,2.0,5.0,350.0
2022-02-08-11:09:46.317719,5.0,1.0,350.0
2022-02-08-11:09:46.318718,2.0,4.0,350.0
2022-02-08-11:09:46.319713,2.0,4.0,350.0
2022-02-08-11:09:46.320711,0.0,0.0,350.0
2022-02-08-11:09:46.321710,7.0,5.0,350.0
2022-02-08-11:09:46.322705,11.0,11.0,350.0
2022-02-08-11:09:46.323705,11.0,11.0,350.0
2022-02-08-11:09:46.325667,9.0,4.0,350.0
2022-02-08-11:09:46.325667,7.0,13.0,350.0
2022-02-08-11:09:46.326740,7.0,13.0,350.0
2022-02-08-11:09:46.327660,7.0,13.0,350.0
2022-02-08-11:09:46.328689,3.0,2.0,350.0
2022-02-08-11:09:46.329688,1.0,4.0,350.0
2022-02-08-11:09:46.330684,2.0,6.0,350.0
2022-02-08-11:09:46.331649,2.0,6.0,350.0
2022-02-08-11:09:46.332678,2.0,14.0,350.0
2022-02-08-11:09:46.333676,3.0,9.0,350.0
2022-02-08-11:09:46.334675,7.0,8.0,350.0
2022-02-08-11:09:46.335639,7.0,8.0,350.0
2022-02-08-11:09:46.336668,3.0,1.0,350.0
2022-02-08-11:09:46.337667,8.0,13.0,350.0
2022-02-08-11:09:46.338662,9.0,9.0,350.0
2022-02-08-11:09:46.339662,9.0,9.0,350.0
2022-02-08-11:09:46.340658,10.0,4.0,350.0
2022-02-08-11:09:46.341654,10.0,4.0,350.0
2022-02-08-11:09:46.342654,7.0,6.0,350.0
2022-02-08-11:09:46.343650,7.0,6.0,350.0
2022-02-08-11:09:46.344646,7.0,6.0,350.0
2022-02-08-11:09:46.345646,0.0,4.0,350.0
2022-02-08-11:09:46.346641,1.0,5.0,350.0
2022-02-08-11:09:46.347641,1.0,5.0,350.0
2022-02-08-11:09:46.348604,1.0,5.0,350.0
2022-02-08-11:09:46.349602,5.0,6.0,349.0
2022-02-08-11:09:46.350599,1.0,2.0,350.0
2022-02-08-11:09:46.351628,1.0,2.0,350.0
2022-02-08-11:09:46.352625,1.0,2.0,350.0
2022-02-08-11:09:46.353624,5.0,4.0,350.0
2022-02-08-11:09:46.354622,8.0,7.0,350.0
2022-02-08-11:09:46.355620,8.0,7.0,350.0
2022-02-08-11:09:46.356616,8.0,7.0,350.0
2022-02-08-11:09:46.358631,5.0,13.0,350.0
2022-02-08-11:09:46.358631,5.0,13.0,350.0
2022-02-08-11:09:46.359716,5.0,13.0,350.0
2022-02-08-11:09:46.360635,5.0,13.0,350.0
2022-02-08-11:09:46.361596,1.0,3.0,350.0
2022-02-08-11:09:46.362668,3.0,3.0,350.0
2022-02-08-11:09:46.363599,3.0,3.0,350.0
2022-02-08-11:09:46.364593,3.0,3.0,350.0
2022-02-08-11:09:46.365591,3.0,1.0,350.0
2022-02-08-11:09:46.366590,3.0,3.0,350.0
2022-02-08-11:09:46.367587,1.0,0.0,350.0
2022-02-08-11:09:46.368552,1.0,0.0,350.0
2022-02-08-11:09:46.369582,6.0,2.0,350.0
2022-02-08-11:09:46.370577,9.0,2.0,350.0
2022-02-08-11:09:46.371579,9.0,2.0,350.0
2022-02-08-11:09:46.372541,9.0,2.0,350.0
2022-02-08-11:09:46.373569,8.0,5.0,349.0
2022-02-08-11:09:46.374569,8.0,5.0,349.0
2022-02-08-11:09:46.375566,10.0,17.0,350.0
2022-02-08-11:09:46.376562,10.0,17.0,350.0
2022-02-08-11:09:46.377562,2.0,1.0,350.0
2022-02-08-11:09:46.378556,2.0,1.0,350.0
2022-02-08-11:09:46.379556,4.0,0.0,350.0
2022-02-08-11:09:46.380551,4.0,0.0,350.0
2022-02-08-11:09:46.381517,4.0,0.0,350.0
2022-02-08-11:09:46.382541,2.0,0.0,350.0
2022-02-08-11:09:46.383549,2.0,0.0,350.0
2022-02-08-11:09:46.384540,2.0,0.0,350.0
2022-02-08-11:09:46.385539,2.0,0.0,350.0
2022-02-08-11:09:46.386535,6.0,0.0,350.0
2022-02-08-11:09:46.387534,8.0,4.0,350.0
2022-02-08-11:09:46.388497,8.0,4.0,350.0
2022-02-08-11:09:46.389528,8.0,4.0,350.0
2022-02-08-11:09:46.390526,6.0,1.0,349.0
2022-02-08-11:09:46.392519,6.0,1.0,349.0
2022-02-08-11:09:46.392519,18.0,7.0,350.0
2022-02-08-11:09:46.393484,1.0,5.0,350.0
2022-02-08-11:09:46.394513,1.0,5.0,350.0
2022-02-08-11:09:46.395513,1.0,5.0,350.0
2022-02-08-11:09:46.396508,1.0,5.0,350.0
2022-02-08-11:09:46.397505,1.0,5.0,350.0
2022-02-08-11:09:46.398471,0.0,0.0,350.0
2022-02-08-11:09:46.399500,3.0,4.0,350.0
2022-02-08-11:09:46.400497,3.0,4.0,350.0
2022-02-08-11:09:46.401496,3.0,4.0,350.0
2022-02-08-11:09:46.402492,4.0,7.0,350.0
2022-02-08-11:09:46.403491,4.0,2.0,350.0
2022-02-08-11:09:46.404486,7.0,4.0,350.0
2022-02-08-11:09:46.405452,7.0,4.0,350.0
2022-02-08-11:09:46.406483,6.0,3.0,349.0
2022-02-08-11:09:46.407478,9.0,8.0,350.0
2022-02-08-11:09:46.408476,9.0,8.0,350.0
2022-02-08-11:09:46.409442,9.0,8.0,350.0
