2021-12-12-21:14:42.542971,16.0,46.0,468.0
2021-12-12-21:14:42.543968,8.0,29.0,468.0
2021-12-12-21:14:42.543968,2.0,9.0,468.0
2021-12-12-21:14:42.544965,6.0,37.0,468.0
2021-12-12-21:14:42.546959,5.0,77.0,468.0
2021-12-12-21:14:42.546959,10.0,21.0,468.0
2021-12-12-21:14:42.547957,11.0,15.0,468.0
2021-12-12-21:14:42.548954,11.0,46.0,468.0
2021-12-12-21:14:42.549952,4.0,23.0,468.0
2021-12-12-21:14:42.551946,2.0,69.0,468.0
2021-12-12-21:14:42.552943,10.0,51.0,468.0
2021-12-12-21:14:42.552943,1.0,15.0,468.0
2021-12-12-21:14:42.553941,8.0,71.0,468.0
2021-12-12-21:14:42.554938,6.0,36.0,468.0
2021-12-12-21:14:42.555935,11.0,4.0,468.0
2021-12-12-21:14:42.556947,14.0,55.0,468.0
2021-12-12-21:14:42.557931,5.0,30.0,468.0
2021-12-12-21:14:42.558928,0.0,2.0,468.0
2021-12-12-21:14:42.559933,5.0,79.0,468.0
2021-12-12-21:14:42.560923,7.0,24.0,468.0
2021-12-12-21:14:42.561920,10.0,1.0,468.0
2021-12-12-21:14:42.562918,11.0,23.0,468.0
2021-12-12-21:14:42.563915,14.0,35.0,468.0
2021-12-12-21:14:42.564912,4.0,23.0,468.0
2021-12-12-21:14:42.565909,7.0,56.0,468.0
2021-12-12-21:14:42.566907,6.0,79.0,468.0
2021-12-12-21:14:42.567904,8.0,32.0,468.0
2021-12-12-21:14:42.568901,10.0,5.0,468.0
2021-12-12-21:14:42.569899,14.0,30.0,468.0
2021-12-12-21:14:42.570896,10.0,50.0,468.0
2021-12-12-21:14:42.571893,4.0,25.0,468.0
2021-12-12-21:14:42.572890,8.0,45.0,468.0
2021-12-12-21:14:42.573888,7.0,36.0,468.0
2021-12-12-21:14:42.574885,8.0,13.0,468.0
2021-12-12-21:14:42.575883,14.0,18.0,468.0
2021-12-12-21:14:42.576880,14.0,42.0,468.0
2021-12-12-21:14:42.577908,13.0,53.0,468.0
2021-12-12-21:14:42.578904,9.0,43.0,468.0
2021-12-12-21:14:42.579872,4.0,19.0,468.0
2021-12-12-21:14:42.580900,1.0,4.0,468.0
2021-12-12-21:14:42.581868,7.0,63.0,468.0
2021-12-12-21:14:42.582887,2.0,45.0,468.0
2021-12-12-21:14:42.584886,8.0,22.0,468.0
2021-12-12-21:14:42.585858,9.0,34.0,468.0
2021-12-12-21:14:42.585858,5.0,18.0,468.0
2021-12-12-21:14:42.586889,1.0,55.0,468.0
2021-12-12-21:14:42.587889,11.0,14.0,468.0
2021-12-12-21:14:42.588883,9.0,39.0,468.0
2021-12-12-21:14:42.589846,3.0,5.0,468.0
2021-12-12-21:14:42.590874,0.0,59.0,468.0
2021-12-12-21:14:42.591840,10.0,16.0,468.0
2021-12-12-21:14:42.592837,11.0,15.0,468.0
2021-12-12-21:14:42.593857,14.0,55.0,468.0
2021-12-12-21:14:42.594833,5.0,20.0,468.0
2021-12-12-21:14:42.595865,5.0,76.0,468.0
2021-12-12-21:14:42.596861,11.0,3.0,467.0
2021-12-12-21:14:42.597865,13.0,54.0,467.0
2021-12-12-21:14:42.598857,2.0,11.0,468.0
2021-12-12-21:14:42.599853,6.0,55.0,468.0
2021-12-12-21:14:42.600851,5.0,32.0,468.0
2021-12-12-21:14:42.601851,13.0,19.0,468.0
2021-12-12-21:14:42.602845,13.0,53.0,467.0
2021-12-12-21:14:42.603843,2.0,5.0,468.0
2021-12-12-21:14:42.604840,5.0,74.0,468.0
2021-12-12-21:14:42.605838,9.0,13.0,468.0
2021-12-12-21:14:42.606835,13.0,53.0,468.0
2021-12-12-21:14:42.607833,2.0,20.0,468.0
2021-12-12-21:14:42.608838,5.0,34.0,468.0
2021-12-12-21:14:42.609835,2.0,50.0,468.0
2021-12-12-21:14:42.610790,11.0,0.0,468.0
2021-12-12-21:14:42.611787,15.0,32.0,468.0
2021-12-12-21:14:42.612820,2.0,21.0,468.0
2021-12-12-21:14:42.613819,6.0,16.0,468.0
2021-12-12-21:14:42.614814,1.0,54.0,468.0
2021-12-12-21:14:42.615457,13.0,19.0,468.0
2021-12-12-21:14:42.615777,12.0,54.0,468.0
2021-12-12-21:14:42.616808,2.0,6.0,468.0
2021-12-12-21:14:42.617829,6.0,66.0,468.0
2021-12-12-21:14:42.617829,10.0,16.0,468.0
2021-12-12-21:14:42.618853,13.0,25.0,468.0
2021-12-12-21:14:42.620940,3.0,20.0,467.0
2021-12-12-21:14:42.620940,6.0,60.0,467.0
2021-12-12-21:14:42.621948,7.0,26.0,468.0
2021-12-12-21:14:42.622941,16.0,31.0,467.0
2021-12-12-21:14:42.624019,4.0,25.0,468.0
2021-12-12-21:14:42.625006,1.0,3.0,468.0
2021-12-12-21:14:42.626038,0.0,70.0,468.0
2021-12-12-21:14:42.627036,10.0,10.0,468.0
2021-12-12-21:14:42.628034,13.0,49.0,468.0
2021-12-12-21:14:42.628996,3.0,15.0,467.0
2021-12-12-21:14:42.630027,4.0,42.0,468.0
2021-12-12-21:14:42.631200,11.0,26.0,468.0
2021-12-12-21:14:42.632230,6.0,33.0,468.0
2021-12-12-21:14:42.633231,1.0,0.0,468.0
2021-12-12-21:14:42.634257,1.0,0.0,468.0
2021-12-12-21:14:42.635302,1.0,0.0,468.0
2021-12-12-21:14:42.636326,4.0,76.0,468.0
2021-12-12-21:14:42.637329,2.0,68.0,468.0
2021-12-12-21:14:42.638327,2.0,68.0,468.0
2021-12-12-21:14:42.639322,2.0,68.0,468.0
2021-12-12-21:14:42.640726,10.0,24.0,468.0
2021-12-12-21:14:42.640726,14.0,13.0,468.0
2021-12-12-21:14:42.641755,14.0,13.0,468.0
2021-12-12-21:14:42.642719,14.0,13.0,468.0
2021-12-12-21:14:42.643716,14.0,13.0,468.0
2021-12-12-21:14:42.644713,15.0,30.0,468.0
2021-12-12-21:14:42.645745,8.0,51.0,468.0
2021-12-12-21:14:42.646708,8.0,51.0,468.0
2021-12-12-21:14:42.647705,8.0,51.0,468.0
2021-12-12-21:14:42.648703,4.0,26.0,467.0
2021-12-12-21:14:42.649700,1.0,1.0,468.0
2021-12-12-21:14:42.650698,1.0,1.0,468.0
2021-12-12-21:14:42.651696,1.0,1.0,468.0
2021-12-12-21:14:42.652692,7.0,14.0,468.0
2021-12-12-21:14:42.653690,8.0,76.0,467.0
2021-12-12-21:14:42.654720,3.0,72.0,467.0
2021-12-12-21:14:42.656682,3.0,72.0,467.0
2021-12-12-21:14:42.656682,3.0,72.0,467.0
2021-12-12-21:14:42.657680,2.0,55.0,467.0
2021-12-12-21:14:42.658678,8.0,35.0,468.0
2021-12-12-21:14:42.659675,10.0,9.0,467.0
2021-12-12-21:14:42.660672,13.0,8.0,468.0
2021-12-12-21:14:42.661670,10.0,17.0,467.0
2021-12-12-21:14:42.662667,12.0,27.0,468.0
2021-12-12-21:14:42.663664,15.0,46.0,467.0
2021-12-12-21:14:42.664662,9.0,55.0,468.0
2021-12-12-21:14:42.665659,8.0,40.0,468.0
2021-12-12-21:14:42.666656,4.0,14.0,467.0
2021-12-12-21:14:42.667654,2.0,9.0,467.0
2021-12-12-21:14:42.668651,1.0,3.0,468.0
2021-12-12-21:14:42.669648,4.0,76.0,468.0
2021-12-12-21:14:42.670646,4.0,76.0,468.0
2021-12-12-21:14:42.671644,4.0,76.0,468.0
2021-12-12-21:14:42.672638,4.0,46.0,467.0
2021-12-12-21:14:42.673637,11.0,5.0,468.0
2021-12-12-21:14:42.674635,11.0,5.0,468.0
2021-12-12-21:14:42.675632,11.0,5.0,468.0
2021-12-12-21:14:42.676629,11.0,26.0,468.0
2021-12-12-21:14:42.677627,10.0,58.0,468.0
2021-12-12-21:14:42.678624,10.0,58.0,468.0
2021-12-12-21:14:42.679621,10.0,58.0,468.0
2021-12-12-21:14:42.680619,10.0,58.0,468.0
2021-12-12-21:14:42.681616,2.0,8.0,468.0
2021-12-12-21:14:42.682614,2.0,8.0,468.0
2021-12-12-21:14:42.683611,2.0,8.0,468.0
2021-12-12-21:14:42.684608,2.0,8.0,468.0
2021-12-12-21:14:42.685606,5.0,25.0,468.0
2021-12-12-21:14:42.686603,7.0,76.0,468.0
2021-12-12-21:14:42.687600,7.0,76.0,468.0
2021-12-12-21:14:42.689595,3.0,68.0,468.0
2021-12-12-21:14:42.689595,2.0,49.0,468.0
2021-12-12-21:14:42.690592,9.0,2.0,468.0
2021-12-12-21:14:42.691590,9.0,2.0,468.0
2021-12-12-21:14:42.692587,9.0,2.0,468.0
2021-12-12-21:14:42.693584,12.0,31.0,468.0
2021-12-12-21:14:42.694582,12.0,53.0,468.0
2021-12-12-21:14:42.695579,12.0,53.0,468.0
2021-12-12-21:14:42.696576,12.0,53.0,468.0
2021-12-12-21:14:42.697574,8.0,40.0,467.0
2021-12-12-21:14:42.698571,4.0,10.0,468.0
2021-12-12-21:14:42.699568,4.0,10.0,468.0
2021-12-12-21:14:42.700566,4.0,10.0,468.0
2021-12-12-21:14:42.701563,4.0,8.0,467.0
2021-12-12-21:14:42.702558,6.0,49.0,467.0
2021-12-12-21:14:42.703589,9.0,75.0,468.0
2021-12-12-21:14:42.704553,9.0,75.0,468.0
2021-12-12-21:14:42.705551,10.0,11.0,468.0
2021-12-12-21:14:42.706548,10.0,11.0,468.0
2021-12-12-21:14:42.707545,10.0,11.0,468.0
2021-12-12-21:14:42.708543,10.0,11.0,468.0
2021-12-12-21:14:42.709540,13.0,16.0,468.0
2021-12-12-21:14:42.710537,15.0,44.0,468.0
2021-12-12-21:14:42.711534,15.0,44.0,468.0
2021-12-12-21:14:42.712532,15.0,44.0,468.0
2021-12-12-21:14:42.713563,4.0,28.0,468.0
2021-12-12-21:14:42.714527,2.0,15.0,468.0
2021-12-12-21:14:42.715524,2.0,15.0,468.0
2021-12-12-21:14:42.716521,2.0,15.0,468.0
2021-12-12-21:14:42.717554,2.0,15.0,468.0
2021-12-12-21:14:42.718516,4.0,41.0,468.0
2021-12-12-21:14:42.719546,7.0,66.0,468.0
2021-12-12-21:14:42.720544,7.0,66.0,468.0
2021-12-12-21:14:42.721508,7.0,66.0,468.0
2021-12-12-21:14:42.722505,3.0,63.0,467.0
2021-12-12-21:14:42.723503,9.0,18.0,467.0
2021-12-12-21:14:42.725497,9.0,18.0,467.0
2021-12-12-21:14:42.725497,9.0,18.0,467.0
2021-12-12-21:14:42.726495,13.0,14.0,467.0
2021-12-12-21:14:42.727492,13.0,37.0,468.0
2021-12-12-21:14:42.728489,13.0,37.0,468.0
2021-12-12-21:14:42.729489,13.0,37.0,468.0
2021-12-12-21:14:42.730495,11.0,46.0,468.0
2021-12-12-21:14:42.731482,5.0,22.0,467.0
2021-12-12-21:14:42.732479,5.0,22.0,467.0
2021-12-12-21:14:42.733511,5.0,22.0,467.0
2021-12-12-21:14:42.734506,2.0,1.0,467.0
2021-12-12-21:14:42.735471,9.0,57.0,467.0
2021-12-12-21:14:42.736468,9.0,57.0,467.0
2021-12-12-21:14:42.737465,9.0,57.0,467.0
2021-12-12-21:14:42.738462,0.0,68.0,468.0
2021-12-12-21:14:42.739460,4.0,51.0,467.0
2021-12-12-21:14:42.740457,7.0,27.0,467.0
2021-12-12-21:14:42.741455,7.0,27.0,467.0
2021-12-12-21:14:42.742452,11.0,10.0,468.0
2021-12-12-21:14:42.743449,14.0,32.0,467.0
2021-12-12-21:14:42.744446,14.0,32.0,467.0
2021-12-12-21:14:42.745444,14.0,32.0,467.0
2021-12-12-21:14:42.746441,7.0,53.0,468.0
2021-12-12-21:14:42.747439,5.0,26.0,468.0
2021-12-12-21:14:42.748437,5.0,26.0,468.0
2021-12-12-21:14:42.749433,5.0,26.0,468.0
2021-12-12-21:14:42.750430,1.0,4.0,468.0
2021-12-12-21:14:42.751428,7.0,52.0,468.0
2021-12-12-21:14:42.752425,7.0,52.0,468.0
2021-12-12-21:14:42.753456,7.0,52.0,468.0
2021-12-12-21:14:42.754420,0.0,59.0,468.0
2021-12-12-21:14:42.755418,7.0,35.0,468.0
2021-12-12-21:14:42.756448,7.0,35.0,468.0
2021-12-12-21:14:42.758409,7.0,35.0,468.0
2021-12-12-21:14:42.758409,12.0,6.0,468.0
2021-12-12-21:14:42.759406,13.0,29.0,468.0
2021-12-12-21:14:42.760404,13.0,29.0,468.0
2021-12-12-21:14:42.761401,13.0,29.0,468.0
2021-12-12-21:14:42.762398,13.0,29.0,468.0
2021-12-12-21:14:42.763396,14.0,43.0,468.0
2021-12-12-21:14:42.764393,11.0,52.0,468.0
2021-12-12-21:14:42.765391,7.0,40.0,468.0
2021-12-12-21:14:42.766389,5.0,30.0,467.0
2021-12-12-21:14:42.767420,1.0,21.0,468.0
2021-12-12-21:14:42.768420,2.0,1.0,468.0
2021-12-12-21:14:42.769380,6.0,40.0,468.0
2021-12-12-21:14:42.770377,6.0,40.0,468.0
2021-12-12-21:14:42.771374,9.0,66.0,468.0
2021-12-12-21:14:42.772372,1.0,62.0,468.0
2021-12-12-21:14:42.773407,4.0,46.0,468.0
2021-12-12-21:14:42.774402,4.0,46.0,468.0
2021-12-12-21:14:42.775398,9.0,21.0,468.0
2021-12-12-21:14:42.776395,10.0,25.0,467.0
2021-12-12-21:14:42.777393,10.0,25.0,467.0
2021-12-12-21:14:42.778356,10.0,25.0,467.0
2021-12-12-21:14:42.779387,9.0,47.0,467.0
2021-12-12-21:14:42.780384,5.0,33.0,468.0
2021-12-12-21:14:42.781383,5.0,33.0,468.0
2021-12-12-21:14:42.782346,5.0,33.0,468.0
2021-12-12-21:14:42.783377,2.0,13.0,468.0
2021-12-12-21:14:42.784340,7.0,23.0,468.0
2021-12-12-21:14:42.785337,7.0,23.0,468.0
2021-12-12-21:14:42.786334,7.0,23.0,468.0
2021-12-12-21:14:42.787332,6.0,59.0,468.0
2021-12-12-21:14:42.788329,5.0,71.0,468.0
2021-12-12-21:14:42.789326,6.0,50.0,468.0
2021-12-12-21:14:42.790323,6.0,50.0,468.0
2021-12-12-21:14:42.791321,12.0,20.0,468.0
2021-12-12-21:14:42.793316,12.0,20.0,468.0
2021-12-12-21:14:42.793316,12.0,20.0,468.0
2021-12-12-21:14:42.794313,12.0,20.0,468.0
2021-12-12-21:14:42.795310,13.0,52.0,468.0
2021-12-12-21:14:42.796308,8.0,35.0,468.0
2021-12-12-21:14:42.797305,8.0,35.0,468.0
2021-12-12-21:14:42.798303,8.0,35.0,468.0
2021-12-12-21:14:42.799300,8.0,35.0,468.0
2021-12-12-21:14:42.800297,4.0,27.0,468.0
2021-12-12-21:14:42.801294,1.0,4.0,468.0
2021-12-12-21:14:42.802292,7.0,11.0,468.0
2021-12-12-21:14:42.803289,7.0,11.0,468.0
2021-12-12-21:14:42.804286,5.0,48.0,468.0
2021-12-12-21:14:42.805284,1.0,72.0,468.0
2021-12-12-21:14:42.806281,4.0,34.0,468.0
2021-12-12-21:14:42.807279,4.0,34.0,468.0
2021-12-12-21:14:42.808276,12.0,11.0,468.0
2021-12-12-21:14:42.809273,9.0,28.0,468.0
2021-12-12-21:14:42.810270,9.0,28.0,468.0
2021-12-12-21:14:42.811268,9.0,28.0,468.0
2021-12-12-21:14:42.812265,16.0,45.0,468.0
2021-12-12-21:14:42.813262,9.0,45.0,468.0
2021-12-12-21:14:42.814260,6.0,28.0,468.0
2021-12-12-21:14:42.815257,6.0,28.0,468.0
2021-12-12-21:14:42.816254,4.0,18.0,468.0
2021-12-12-21:14:42.817252,3.0,4.0,468.0
2021-12-12-21:14:42.818249,5.0,36.0,468.0
2021-12-12-21:14:42.819246,5.0,36.0,468.0
2021-12-12-21:14:42.820244,9.0,66.0,468.0
2021-12-12-21:14:42.821241,1.0,62.0,468.0
2021-12-12-21:14:42.822238,7.0,45.0,468.0
2021-12-12-21:14:42.823236,7.0,45.0,468.0
2021-12-12-21:14:42.824233,8.0,19.0,467.0
2021-12-12-21:14:42.825231,8.0,19.0,467.0
2021-12-12-21:14:42.827225,11.0,4.0,468.0
2021-12-12-21:14:42.827225,11.0,23.0,468.0
2021-12-12-21:14:42.828222,13.0,35.0,468.0
2021-12-12-21:14:42.829256,11.0,56.0,468.0
2021-12-12-21:14:42.830227,9.0,46.0,468.0
2021-12-12-21:14:42.831214,6.0,35.0,468.0
2021-12-12-21:14:42.832212,6.0,35.0,468.0
2021-12-12-21:14:42.833209,0.0,3.0,468.0
2021-12-12-21:14:42.834207,6.0,21.0,468.0
2021-12-12-21:14:42.835238,6.0,21.0,468.0
2021-12-12-21:14:42.836201,6.0,21.0,468.0
2021-12-12-21:14:42.837198,2.0,68.0,468.0
2021-12-12-21:14:42.838196,2.0,53.0,468.0
2021-12-12-21:14:42.839193,2.0,53.0,468.0
2021-12-12-21:14:42.840191,2.0,53.0,468.0
2021-12-12-21:14:42.841188,13.0,6.0,468.0
2021-12-12-21:14:42.842220,14.0,19.0,468.0
2021-12-12-21:14:42.843216,14.0,19.0,468.0
2021-12-12-21:14:42.844184,14.0,19.0,468.0
2021-12-12-21:14:42.845212,7.0,40.0,467.0
2021-12-12-21:14:42.846209,7.0,40.0,467.0
2021-12-12-21:14:42.847206,7.0,40.0,467.0
2021-12-12-21:14:42.848207,7.0,40.0,467.0
2021-12-12-21:14:42.849200,3.0,3.0,468.0
2021-12-12-21:14:42.850199,5.0,8.0,468.0
2021-12-12-21:14:42.851196,5.0,8.0,468.0
2021-12-12-21:14:42.852192,5.0,8.0,468.0
2021-12-12-21:14:42.853156,2.0,72.0,468.0
2021-12-12-21:14:42.854192,2.0,60.0,468.0
2021-12-12-21:14:42.855184,2.0,60.0,468.0
2021-12-12-21:14:42.856148,2.0,60.0,468.0
2021-12-12-21:14:42.857145,9.0,5.0,468.0
2021-12-12-21:14:42.858143,11.0,19.0,468.0
2021-12-12-21:14:42.859140,11.0,19.0,468.0
2021-12-12-21:14:42.860137,11.0,19.0,468.0
2021-12-12-21:14:42.862131,11.0,19.0,468.0
2021-12-12-21:14:42.862131,12.0,42.0,468.0
2021-12-12-21:14:42.863129,8.0,44.0,467.0
2021-12-12-21:14:42.864126,8.0,44.0,467.0
2021-12-12-21:14:42.865125,5.0,27.0,467.0
2021-12-12-21:14:42.866157,6.0,19.0,468.0
2021-12-12-21:14:42.867119,0.0,2.0,467.0
2021-12-12-21:14:42.868116,0.0,2.0,467.0
2021-12-12-21:14:42.869113,6.0,77.0,468.0
2021-12-12-21:14:42.870110,1.0,65.0,468.0
2021-12-12-21:14:42.871108,1.0,65.0,468.0
2021-12-12-21:14:42.872105,1.0,65.0,468.0
2021-12-12-21:14:42.873103,1.0,65.0,468.0
2021-12-12-21:14:42.874100,5.0,46.0,468.0
2021-12-12-21:14:42.875097,12.0,16.0,468.0
2021-12-12-21:14:42.876095,12.0,16.0,468.0
2021-12-12-21:14:42.877092,14.0,36.0,468.0
2021-12-12-21:14:42.878089,7.0,46.0,467.0
2021-12-12-21:14:42.879087,7.0,46.0,467.0
2021-12-12-21:14:42.880084,7.0,46.0,467.0
2021-12-12-21:14:42.881081,7.0,46.0,467.0
2021-12-12-21:14:42.882114,4.0,23.0,468.0
2021-12-12-21:14:42.883110,3.0,4.0,468.0
2021-12-12-21:14:42.884107,3.0,4.0,468.0
2021-12-12-21:14:42.885105,3.0,4.0,468.0
2021-12-12-21:14:42.886102,5.0,54.0,468.0
2021-12-12-21:14:42.887099,2.0,69.0,468.0
2021-12-12-21:14:42.888101,2.0,69.0,468.0
2021-12-12-21:14:42.889094,2.0,69.0,468.0
2021-12-12-21:14:42.890092,7.0,32.0,468.0
2021-12-12-21:14:42.891089,12.0,8.0,468.0
2021-12-12-21:14:42.892085,12.0,8.0,468.0
2021-12-12-21:14:42.893050,12.0,8.0,468.0
2021-12-12-21:14:42.895044,9.0,21.0,468.0
2021-12-12-21:14:42.895044,15.0,52.0,468.0
2021-12-12-21:14:42.896041,15.0,52.0,468.0
2021-12-12-21:14:42.897038,15.0,52.0,468.0
2021-12-12-21:14:42.898058,4.0,26.0,468.0
2021-12-12-21:14:42.899033,2.0,5.0,468.0
2021-12-12-21:14:42.900030,2.0,5.0,468.0
2021-12-12-21:14:42.901027,2.0,5.0,468.0
2021-12-12-21:14:42.902025,4.0,5.0,468.0
2021-12-12-21:14:42.903022,6.0,48.0,468.0
2021-12-12-21:14:42.904021,5.0,70.0,468.0
2021-12-12-21:14:42.905017,4.0,71.0,468.0
2021-12-12-21:14:42.906014,4.0,71.0,468.0
2021-12-12-21:14:42.907012,1.0,57.0,468.0
2021-12-12-21:14:42.908009,9.0,14.0,468.0
2021-12-12-21:14:42.909006,10.0,5.0,468.0
2021-12-12-21:14:42.910038,10.0,5.0,468.0
2021-12-12-21:14:42.911001,11.0,54.0,468.0
2021-12-12-21:14:42.912032,11.0,54.0,468.0
2021-12-12-21:14:42.913030,11.0,54.0,468.0
2021-12-12-21:14:42.914029,11.0,54.0,468.0
2021-12-12-21:14:42.915025,8.0,29.0,468.0
2021-12-12-21:14:42.916022,3.0,10.0,468.0
2021-12-12-21:14:42.917020,3.0,10.0,468.0
2021-12-12-21:14:42.917982,3.0,10.0,468.0
2021-12-12-21:14:42.918980,1.0,2.0,467.0
2021-12-12-21:14:42.919977,6.0,64.0,467.0
2021-12-12-21:14:42.920974,1.0,76.0,468.0
2021-12-12-21:14:42.921972,1.0,76.0,468.0
2021-12-12-21:14:42.922969,1.0,65.0,468.0
2021-12-12-21:14:42.923966,8.0,21.0,468.0
2021-12-12-21:14:42.924964,10.0,2.0,468.0
2021-12-12-21:14:42.925961,10.0,2.0,468.0
2021-12-12-21:14:42.926958,11.0,11.0,468.0
2021-12-12-21:14:42.927956,11.0,11.0,468.0
2021-12-12-21:14:42.928953,10.0,55.0,468.0
2021-12-12-21:14:42.930948,10.0,55.0,468.0
2021-12-12-21:14:42.930948,12.0,49.0,468.0
2021-12-12-21:14:42.931945,9.0,35.0,468.0
2021-12-12-21:14:42.932942,2.0,8.0,468.0
2021-12-12-21:14:42.933939,2.0,8.0,468.0
2021-12-12-21:14:42.934937,1.0,1.0,468.0
2021-12-12-21:14:42.935934,5.0,21.0,468.0
2021-12-12-21:14:42.936932,6.0,75.0,468.0
2021-12-12-21:14:42.937929,6.0,75.0,468.0
2021-12-12-21:14:42.938926,3.0,53.0,468.0
2021-12-12-21:14:42.939924,10.0,6.0,468.0
2021-12-12-21:14:42.940921,10.0,6.0,468.0
2021-12-12-21:14:42.941918,10.0,6.0,468.0
2021-12-12-21:14:42.942916,15.0,49.0,468.0
2021-12-12-21:14:42.943913,15.0,49.0,468.0
2021-12-12-21:14:42.944910,15.0,49.0,468.0
2021-12-12-21:14:42.945907,15.0,49.0,468.0
2021-12-12-21:14:42.946905,1.0,17.0,468.0
2021-12-12-21:14:42.947902,1.0,17.0,468.0
2021-12-12-21:14:42.948900,1.0,17.0,468.0
2021-12-12-21:14:42.949897,1.0,17.0,468.0
2021-12-12-21:14:42.950894,1.0,17.0,468.0
2021-12-12-21:14:42.951891,4.0,4.0,467.0
2021-12-12-21:14:42.952889,6.0,70.0,467.0
2021-12-12-21:14:42.953886,6.0,70.0,467.0
2021-12-12-21:14:42.954884,6.0,70.0,467.0
2021-12-12-21:14:42.955881,1.0,59.0,468.0
2021-12-12-21:14:42.956878,8.0,15.0,468.0
2021-12-12-21:14:42.957875,8.0,15.0,468.0
2021-12-12-21:14:42.958873,8.0,15.0,468.0
2021-12-12-21:14:42.959870,10.0,14.0,467.0
2021-12-12-21:14:42.960868,15.0,43.0,467.0
2021-12-12-21:14:42.961865,15.0,43.0,467.0
2021-12-12-21:14:42.962862,15.0,43.0,467.0
2021-12-12-21:14:42.963859,12.0,54.0,468.0
2021-12-12-21:14:42.964857,12.0,54.0,468.0
2021-12-12-21:14:42.966851,6.0,30.0,467.0
2021-12-12-21:14:42.966851,3.0,19.0,468.0
2021-12-12-21:14:42.967849,0.0,2.0,468.0
2021-12-12-21:14:42.968846,7.0,31.0,468.0
2021-12-12-21:14:42.969845,6.0,63.0,467.0
2021-12-12-21:14:42.970842,6.0,63.0,467.0
2021-12-12-21:14:42.971839,3.0,64.0,468.0
2021-12-12-21:14:42.972836,4.0,48.0,468.0
2021-12-12-21:14:42.973833,10.0,23.0,468.0
2021-12-12-21:14:42.974830,10.0,23.0,468.0
2021-12-12-21:14:42.975828,13.0,1.0,467.0
2021-12-12-21:14:42.976825,11.0,11.0,467.0
2021-12-12-21:14:42.977822,12.0,23.0,468.0
2021-12-12-21:14:42.978819,18.0,34.0,468.0
2021-12-12-21:14:42.979817,9.0,55.0,468.0
2021-12-12-21:14:42.980814,5.0,25.0,467.0
2021-12-12-21:14:42.981812,5.0,25.0,467.0
2021-12-12-21:14:42.982809,5.0,25.0,467.0
2021-12-12-21:14:42.983806,5.0,25.0,467.0
2021-12-12-21:14:42.984803,5.0,17.0,467.0
2021-12-12-21:14:42.985801,7.0,55.0,467.0
2021-12-12-21:14:42.986798,7.0,55.0,467.0
2021-12-12-21:14:42.987796,7.0,55.0,467.0
2021-12-12-21:14:42.988793,4.0,74.0,467.0
2021-12-12-21:14:42.989790,2.0,71.0,468.0
2021-12-12-21:14:42.990788,0.0,55.0,467.0
2021-12-12-21:14:42.991785,6.0,31.0,468.0
2021-12-12-21:14:42.992782,12.0,7.0,468.0
2021-12-12-21:14:42.993779,12.0,6.0,468.0
2021-12-12-21:14:42.994777,10.0,19.0,468.0
2021-12-12-21:14:42.995774,13.0,29.0,468.0
2021-12-12-21:14:42.996771,14.0,49.0,467.0
2021-12-12-21:14:42.997769,9.0,50.0,468.0
2021-12-12-21:14:42.998766,7.0,37.0,467.0
2021-12-12-21:14:43.000761,6.0,24.0,467.0
2021-12-12-21:14:43.000761,4.0,16.0,467.0
2021-12-12-21:14:43.001758,1.0,7.0,467.0
2021-12-12-21:14:43.002755,3.0,6.0,468.0
2021-12-12-21:14:43.003753,8.0,47.0,468.0
2021-12-12-21:14:43.004750,9.0,69.0,468.0
2021-12-12-21:14:43.005747,5.0,74.0,468.0
2021-12-12-21:14:43.006745,1.0,60.0,468.0
2021-12-12-21:14:43.007742,3.0,38.0,468.0
2021-12-12-21:14:43.008739,3.0,38.0,468.0
2021-12-12-21:14:43.009738,8.0,18.0,468.0
2021-12-12-21:14:43.010735,11.0,3.0,467.0
2021-12-12-21:14:43.011733,12.0,11.0,467.0
2021-12-12-21:14:43.012730,13.0,28.0,468.0
2021-12-12-21:14:43.013727,13.0,39.0,467.0
2021-12-12-21:14:43.014725,12.0,53.0,468.0
2021-12-12-21:14:43.015721,11.0,42.0,468.0
2021-12-12-21:14:43.016719,7.0,10.0,468.0
2021-12-12-21:14:43.017717,5.0,33.0,468.0
2021-12-12-21:14:43.018714,5.0,33.0,468.0
2021-12-12-21:14:43.019711,5.0,33.0,468.0
2021-12-12-21:14:43.020708,9.0,67.0,467.0
2021-12-12-21:14:43.021706,7.0,78.0,468.0
2021-12-12-21:14:43.022702,1.0,66.0,467.0
2021-12-12-21:14:43.023714,3.0,51.0,467.0
2021-12-12-21:14:43.024698,3.0,51.0,467.0
2021-12-12-21:14:43.025694,7.0,24.0,468.0
2021-12-12-21:14:43.026692,11.0,3.0,468.0
2021-12-12-21:14:43.027690,14.0,13.0,468.0
2021-12-12-21:14:43.028687,15.0,24.0,468.0
2021-12-12-21:14:43.029684,14.0,34.0,468.0
2021-12-12-21:14:43.030681,12.0,55.0,468.0
2021-12-12-21:14:43.031679,7.0,33.0,468.0
2021-12-12-21:14:43.032675,7.0,33.0,468.0
2021-12-12-21:14:43.034670,7.0,23.0,468.0
2021-12-12-21:14:43.034670,4.0,12.0,468.0
2021-12-12-21:14:43.035667,4.0,17.0,468.0
2021-12-12-21:14:43.036665,6.0,54.0,468.0
2021-12-12-21:14:43.037662,7.0,75.0,468.0
2021-12-12-21:14:43.038659,2.0,73.0,467.0
2021-12-12-21:14:43.039657,1.0,52.0,467.0
2021-12-12-21:14:43.040655,8.0,32.0,468.0
2021-12-12-21:14:43.041652,9.0,6.0,467.0
2021-12-12-21:14:43.042653,12.0,8.0,468.0
2021-12-12-21:14:43.043651,12.0,8.0,468.0
2021-12-12-21:14:43.044644,14.0,16.0,467.0
2021-12-12-21:14:43.045051,12.0,30.0,468.0
2021-12-12-21:14:43.046638,16.0,50.0,467.0
2021-12-12-21:14:43.046638,6.0,30.0,468.0
2021-12-12-21:14:43.047636,6.0,30.0,468.0
2021-12-12-21:14:43.048633,6.0,30.0,468.0
2021-12-12-21:14:43.049630,3.0,17.0,467.0
2021-12-12-21:14:43.050627,3.0,3.0,468.0
2021-12-12-21:14:43.051625,5.0,41.0,467.0
2021-12-12-21:14:43.052622,5.0,41.0,467.0
2021-12-12-21:14:43.053619,2.0,59.0,467.0
2021-12-12-21:14:43.054617,6.0,41.0,468.0
2021-12-12-21:14:43.055614,6.0,41.0,468.0
2021-12-12-21:14:43.056611,6.0,41.0,468.0
2021-12-12-21:14:43.057609,8.0,16.0,468.0
2021-12-12-21:14:43.058607,12.0,1.0,468.0
2021-12-12-21:14:43.059604,11.0,15.0,468.0
2021-12-12-21:14:43.060601,13.0,22.0,467.0
2021-12-12-21:14:43.061599,13.0,22.0,467.0
2021-12-12-21:14:43.062597,14.0,40.0,467.0
2021-12-12-21:14:43.063594,5.0,44.0,468.0
2021-12-12-21:14:43.064591,4.0,32.0,468.0
2021-12-12-21:14:43.066586,4.0,32.0,468.0
2021-12-12-21:14:43.067583,4.0,9.0,468.0
2021-12-12-21:14:43.068580,5.0,31.0,468.0
2021-12-12-21:14:43.069577,5.0,31.0,468.0
2021-12-12-21:14:43.070574,6.0,77.0,468.0
2021-12-12-21:14:43.071572,3.0,47.0,468.0
2021-12-12-21:14:43.072569,3.0,47.0,468.0
2021-12-12-21:14:43.073566,3.0,47.0,468.0
2021-12-12-21:14:43.074564,9.0,2.0,468.0
2021-12-12-21:14:43.075561,9.0,22.0,468.0
2021-12-12-21:14:43.076561,9.0,22.0,468.0
2021-12-12-21:14:43.077555,9.0,22.0,468.0
2021-12-12-21:14:43.078553,18.0,31.0,468.0
2021-12-12-21:14:43.079550,9.0,35.0,468.0
2021-12-12-21:14:43.080547,9.0,35.0,468.0
2021-12-12-21:14:43.081545,9.0,35.0,468.0
2021-12-12-21:14:43.082542,2.0,1.0,468.0
2021-12-12-21:14:43.083539,7.0,15.0,468.0
2021-12-12-21:14:43.084537,7.0,15.0,468.0
2021-12-12-21:14:43.085534,7.0,15.0,468.0
2021-12-12-21:14:43.086531,6.0,73.0,468.0
2021-12-12-21:14:43.087529,1.0,70.0,468.0
2021-12-12-21:14:43.088526,2.0,58.0,468.0
2021-12-12-21:14:43.089523,2.0,58.0,468.0
2021-12-12-21:14:43.090521,12.0,8.0,468.0
2021-12-12-21:14:43.091518,10.0,17.0,468.0
2021-12-12-21:14:43.092516,10.0,17.0,468.0
2021-12-12-21:14:43.093513,10.0,17.0,468.0
2021-12-12-21:14:43.094510,13.0,48.0,468.0
2021-12-12-21:14:43.095511,8.0,40.0,468.0
2021-12-12-21:14:43.096505,8.0,40.0,468.0
2021-12-12-21:14:43.097502,8.0,40.0,468.0
2021-12-12-21:14:43.098499,4.0,18.0,468.0
2021-12-12-21:14:43.099497,2.0,4.0,468.0
2021-12-12-21:14:43.101493,2.0,4.0,468.0
2021-12-12-21:14:43.101493,2.0,4.0,468.0
2021-12-12-21:14:43.102490,1.0,61.0,468.0
2021-12-12-21:14:43.103487,1.0,61.0,468.0
2021-12-12-21:14:43.104485,1.0,61.0,468.0
2021-12-12-21:14:43.105482,1.0,61.0,468.0
2021-12-12-21:14:43.106479,1.0,61.0,468.0
2021-12-12-21:14:43.107477,6.0,40.0,468.0
2021-12-12-21:14:43.108475,8.0,18.0,468.0
2021-12-12-21:14:43.109473,12.0,3.0,468.0
2021-12-12-21:14:43.110469,12.0,3.0,468.0
2021-12-12-21:14:43.111466,15.0,23.0,468.0
2021-12-12-21:14:43.112463,12.0,47.0,468.0
2021-12-12-21:14:43.113461,12.0,47.0,468.0
2021-12-12-21:14:43.114458,12.0,47.0,468.0
2021-12-12-21:14:43.115455,7.0,32.0,468.0
2021-12-12-21:14:43.116452,1.0,3.0,468.0
2021-12-12-21:14:43.117450,1.0,3.0,468.0
2021-12-12-21:14:43.118447,1.0,3.0,468.0
2021-12-12-21:14:43.119444,7.0,59.0,468.0
2021-12-12-21:14:43.120442,3.0,67.0,468.0
2021-12-12-21:14:43.121439,3.0,67.0,468.0
2021-12-12-21:14:43.122436,3.0,67.0,468.0
2021-12-12-21:14:43.123433,3.0,51.0,467.0
2021-12-12-21:14:43.124431,12.0,10.0,468.0
2021-12-12-21:14:43.125428,12.0,10.0,468.0
2021-12-12-21:14:43.126426,12.0,10.0,468.0
2021-12-12-21:14:43.127423,14.0,19.0,468.0
2021-12-12-21:14:43.128420,10.0,49.0,468.0
2021-12-12-21:14:43.129418,10.0,49.0,468.0
2021-12-12-21:14:43.130414,10.0,49.0,468.0
2021-12-12-21:14:43.131413,5.0,23.0,468.0
2021-12-12-21:14:43.132410,0.0,4.0,468.0
2021-12-12-21:14:43.134404,0.0,4.0,468.0
2021-12-12-21:14:43.134404,0.0,4.0,468.0
2021-12-12-21:14:43.135401,5.0,51.0,468.0
2021-12-12-21:14:43.136399,2.0,73.0,468.0
2021-12-12-21:14:43.137396,2.0,73.0,468.0
2021-12-12-21:14:43.138394,2.0,73.0,468.0
2021-12-12-21:14:43.139391,2.0,73.0,468.0
2021-12-12-21:14:43.140388,10.0,7.0,468.0
2021-12-12-21:14:43.141386,12.0,7.0,468.0
2021-12-12-21:14:43.142383,12.0,7.0,468.0
2021-12-12-21:14:43.143380,12.0,7.0,468.0
2021-12-12-21:14:43.144378,14.0,29.0,468.0
2021-12-12-21:14:43.145375,15.0,44.0,468.0
2021-12-12-21:14:43.146372,14.0,53.0,468.0
2021-12-12-21:14:43.147369,14.0,53.0,468.0
2021-12-12-21:14:43.148367,2.0,31.0,468.0
2021-12-12-21:14:43.149365,1.0,7.0,468.0
2021-12-12-21:14:43.150361,1.0,7.0,468.0
2021-12-12-21:14:43.151359,1.0,7.0,468.0
2021-12-12-21:14:43.152357,1.0,4.0,468.0
2021-12-12-21:14:43.153353,8.0,66.0,468.0
2021-12-12-21:14:43.154351,6.0,76.0,468.0
2021-12-12-21:14:43.155348,6.0,76.0,468.0
2021-12-12-21:14:43.156345,0.0,61.0,468.0
2021-12-12-21:14:43.157342,3.0,42.0,468.0
2021-12-12-21:14:43.158340,13.0,3.0,468.0
2021-12-12-21:14:43.159337,13.0,3.0,468.0
2021-12-12-21:14:43.160335,13.0,16.0,468.0
2021-12-12-21:14:43.161333,13.0,24.0,468.0
2021-12-12-21:14:43.162330,13.0,42.0,468.0
2021-12-12-21:14:43.163327,11.0,54.0,468.0
2021-12-12-21:14:43.164325,11.0,44.0,468.0
2021-12-12-21:14:43.165322,3.0,22.0,468.0
2021-12-12-21:14:43.166320,2.0,12.0,468.0
2021-12-12-21:14:43.167316,2.0,12.0,468.0
2021-12-12-21:14:43.168315,7.0,62.0,468.0
2021-12-12-21:14:43.170309,7.0,78.0,468.0
2021-12-12-21:14:43.170309,7.0,78.0,468.0
2021-12-12-21:14:43.171306,7.0,78.0,468.0
2021-12-12-21:14:43.172304,11.0,3.0,468.0
2021-12-12-21:14:43.173301,11.0,3.0,468.0
2021-12-12-21:14:43.174298,11.0,3.0,468.0
2021-12-12-21:14:43.175296,11.0,3.0,468.0
2021-12-12-21:14:43.176293,11.0,3.0,468.0
2021-12-12-21:14:43.177290,16.0,32.0,468.0
2021-12-12-21:14:43.178288,15.0,53.0,468.0
2021-12-12-21:14:43.179285,15.0,53.0,468.0
2021-12-12-21:14:43.180282,15.0,53.0,468.0
2021-12-12-21:14:43.181280,5.0,25.0,468.0
2021-12-12-21:14:43.182275,4.0,11.0,468.0
2021-12-12-21:14:43.183272,4.0,11.0,468.0
2021-12-12-21:14:43.184270,4.0,11.0,468.0
2021-12-12-21:14:43.185267,8.0,75.0,468.0
2021-12-12-21:14:43.186264,8.0,75.0,468.0
2021-12-12-21:14:43.187262,8.0,75.0,468.0
2021-12-12-21:14:43.188259,8.0,75.0,468.0
2021-12-12-21:14:43.189257,1.0,56.0,468.0
2021-12-12-21:14:43.190254,11.0,10.0,468.0
2021-12-12-21:14:43.191251,11.0,10.0,468.0
2021-12-12-21:14:43.192248,11.0,10.0,468.0
2021-12-12-21:14:43.193246,11.0,30.0,468.0
2021-12-12-21:14:43.194243,15.0,47.0,468.0
2021-12-12-21:14:43.195240,15.0,47.0,468.0
2021-12-12-21:14:43.196238,15.0,47.0,468.0
2021-12-12-21:14:43.197235,6.0,30.0,468.0
2021-12-12-21:14:43.198232,2.0,20.0,468.0
2021-12-12-21:14:43.199230,2.0,20.0,468.0
2021-12-12-21:14:43.200227,2.0,20.0,468.0
2021-12-12-21:14:43.201224,2.0,20.0,468.0
2021-12-12-21:14:43.203219,10.0,67.0,468.0
2021-12-12-21:14:43.203219,10.0,67.0,468.0
2021-12-12-21:14:43.204216,10.0,67.0,468.0
2021-12-12-21:14:43.205214,1.0,67.0,468.0
2021-12-12-21:14:43.206211,10.0,19.0,468.0
2021-12-12-21:14:43.207209,10.0,19.0,468.0
2021-12-12-21:14:43.208206,10.0,19.0,468.0
2021-12-12-21:14:43.209203,15.0,25.0,468.0
2021-12-12-21:14:43.210201,14.0,39.0,468.0
2021-12-12-21:14:43.211198,14.0,39.0,468.0
2021-12-12-21:14:43.212195,14.0,39.0,468.0
2021-12-12-21:14:43.213193,9.0,45.0,468.0
2021-12-12-21:14:43.214190,2.0,19.0,468.0
2021-12-12-21:14:43.215187,2.0,19.0,468.0
2021-12-12-21:14:43.216184,2.0,19.0,468.0
2021-12-12-21:14:43.217182,2.0,19.0,468.0
2021-12-12-21:14:43.218179,2.0,1.0,468.0
2021-12-12-21:14:43.219176,9.0,61.0,468.0
2021-12-12-21:14:43.220174,9.0,61.0,468.0
2021-12-12-21:14:43.221171,9.0,61.0,468.0
2021-12-12-21:14:43.222169,2.0,50.0,468.0
2021-12-12-21:14:43.223166,8.0,26.0,468.0
2021-12-12-21:14:43.224163,8.0,26.0,468.0
2021-12-12-21:14:43.225160,8.0,26.0,468.0
2021-12-12-21:14:43.226158,13.0,2.0,468.0
2021-12-12-21:14:43.227155,13.0,35.0,468.0
2021-12-12-21:14:43.228152,13.0,35.0,468.0
2021-12-12-21:14:43.229150,13.0,35.0,468.0
2021-12-12-21:14:43.230147,9.0,39.0,468.0
2021-12-12-21:14:43.231144,6.0,26.0,468.0
2021-12-12-21:14:43.232142,6.0,26.0,468.0
2021-12-12-21:14:43.233139,6.0,26.0,468.0
2021-12-12-21:14:43.234136,6.0,11.0,468.0
2021-12-12-21:14:43.235134,7.0,51.0,468.0
2021-12-12-21:14:43.236131,7.0,51.0,468.0
2021-12-12-21:14:43.237128,7.0,51.0,468.0
2021-12-12-21:14:43.239123,7.0,51.0,468.0
2021-12-12-21:14:43.239123,6.0,33.0,469.0
2021-12-12-21:14:43.240120,6.0,33.0,469.0
2021-12-12-21:14:43.241118,6.0,33.0,469.0
2021-12-12-21:14:43.242115,13.0,15.0,468.0
2021-12-12-21:14:43.243112,12.0,28.0,469.0
2021-12-12-21:14:43.244110,12.0,28.0,469.0
2021-12-12-21:14:43.245107,12.0,28.0,469.0
2021-12-12-21:14:43.246104,11.0,53.0,469.0
2021-12-12-21:14:43.247101,5.0,30.0,469.0
2021-12-12-21:14:43.248099,5.0,30.0,469.0
2021-12-12-21:14:43.249131,5.0,30.0,469.0
2021-12-12-21:14:43.250128,6.0,41.0,469.0
2021-12-12-21:14:43.251124,6.0,41.0,469.0
2021-12-12-21:14:43.252123,6.0,41.0,469.0
2021-12-12-21:14:43.253119,6.0,41.0,469.0
2021-12-12-21:14:43.254117,6.0,41.0,469.0
2021-12-12-21:14:43.255119,9.0,20.0,470.0
2021-12-12-21:14:43.256079,9.0,20.0,470.0
2021-12-12-21:14:43.257076,9.0,20.0,470.0
2021-12-12-21:14:43.258073,9.0,20.0,470.0
2021-12-12-21:14:43.259104,14.0,13.0,469.0
2021-12-12-21:14:43.260102,15.0,35.0,469.0
2021-12-12-21:14:43.261099,15.0,35.0,469.0
2021-12-12-21:14:43.262062,15.0,35.0,469.0
2021-12-12-21:14:43.263059,11.0,52.0,470.0
2021-12-12-21:14:43.264056,3.0,23.0,470.0
2021-12-12-21:14:43.265054,3.0,23.0,470.0
2021-12-12-21:14:43.266051,3.0,23.0,470.0
2021-12-12-21:14:43.267048,5.0,28.0,470.0
2021-12-12-21:14:43.268046,7.0,59.0,470.0
2021-12-12-21:14:43.269043,7.0,59.0,470.0
2021-12-12-21:14:43.270040,7.0,59.0,470.0
2021-12-12-21:14:43.272035,6.0,52.0,470.0
2021-12-12-21:14:43.272035,6.0,29.0,470.0
2021-12-12-21:14:43.273032,6.0,29.0,470.0
2021-12-12-21:14:43.274029,6.0,29.0,470.0
2021-12-12-21:14:43.275027,12.0,9.0,470.0
2021-12-12-21:14:43.276025,12.0,32.0,471.0
2021-12-12-21:14:43.277022,12.0,32.0,471.0
2021-12-12-21:14:43.278019,12.0,32.0,471.0
2021-12-12-21:14:43.279016,4.0,36.0,471.0
2021-12-12-21:14:43.280014,2.0,26.0,471.0
2021-12-12-21:14:43.281011,2.0,26.0,471.0
2021-12-12-21:14:43.282008,2.0,26.0,471.0
2021-12-12-21:14:43.283006,6.0,10.0,471.0
2021-12-12-21:14:43.284003,8.0,52.0,471.0
2021-12-12-21:14:43.285000,8.0,52.0,471.0
2021-12-12-21:14:43.285997,8.0,52.0,471.0
2021-12-12-21:14:43.286995,3.0,73.0,471.0
2021-12-12-21:14:43.287992,7.0,37.0,471.0
2021-12-12-21:14:43.288990,7.0,37.0,471.0
2021-12-12-21:14:43.289987,7.0,37.0,471.0
2021-12-12-21:14:43.290984,7.0,37.0,471.0
2021-12-12-21:14:43.291981,12.0,4.0,471.0
2021-12-12-21:14:43.292979,15.0,28.0,472.0
2021-12-12-21:14:43.293976,15.0,28.0,472.0
2021-12-12-21:14:43.294973,15.0,28.0,472.0
2021-12-12-21:14:43.295971,8.0,40.0,472.0
2021-12-12-21:14:43.296968,6.0,27.0,472.0
2021-12-12-21:14:43.297966,6.0,27.0,472.0
2021-12-12-21:14:43.298963,6.0,27.0,472.0
2021-12-12-21:14:43.299960,2.0,6.0,472.0
2021-12-12-21:14:43.300958,3.0,37.0,473.0
2021-12-12-21:14:43.301955,3.0,37.0,473.0
2021-12-12-21:14:43.302952,3.0,37.0,473.0
2021-12-12-21:14:43.304947,4.0,76.0,472.0
2021-12-12-21:14:43.304947,1.0,64.0,472.0
2021-12-12-21:14:43.305944,4.0,41.0,473.0
2021-12-12-21:14:43.306942,4.0,41.0,473.0
2021-12-12-21:14:43.307939,13.0,14.0,473.0
2021-12-12-21:14:43.308936,14.0,28.0,473.0
2021-12-12-21:14:43.309934,14.0,28.0,473.0
2021-12-12-21:14:43.310931,14.0,28.0,473.0
2021-12-12-21:14:43.311928,14.0,59.0,473.0
2021-12-12-21:14:43.312926,8.0,40.0,473.0
2021-12-12-21:14:43.313923,8.0,40.0,473.0
2021-12-12-21:14:43.314920,8.0,40.0,473.0
2021-12-12-21:14:43.315918,2.0,14.0,473.0
2021-12-12-21:14:43.316915,7.0,22.0,474.0
2021-12-12-21:14:43.317912,7.0,22.0,474.0
2021-12-12-21:14:43.318909,7.0,22.0,474.0
2021-12-12-21:14:43.319907,8.0,59.0,474.0
2021-12-12-21:14:43.320904,1.0,69.0,474.0
2021-12-12-21:14:43.321902,4.0,52.0,474.0
2021-12-12-21:14:43.322898,4.0,52.0,474.0
2021-12-12-21:14:43.323897,4.0,52.0,474.0
2021-12-12-21:14:43.324894,13.0,20.0,475.0
2021-12-12-21:14:43.325891,13.0,20.0,475.0
2021-12-12-21:14:43.326888,13.0,20.0,475.0
2021-12-12-21:14:43.327885,13.0,20.0,475.0
2021-12-12-21:14:43.328883,7.0,35.0,475.0
2021-12-12-21:14:43.329881,7.0,35.0,475.0
2021-12-12-21:14:43.330878,7.0,35.0,475.0
2021-12-12-21:14:43.331875,7.0,35.0,475.0
2021-12-12-21:14:43.332873,2.0,10.0,475.0
2021-12-12-21:14:43.333870,2.0,10.0,475.0
2021-12-12-21:14:43.334867,2.0,10.0,475.0
2021-12-12-21:14:43.335864,2.0,10.0,475.0
2021-12-12-21:14:43.336862,7.0,70.0,475.0
2021-12-12-21:14:43.337859,2.0,56.0,475.0
2021-12-12-21:14:43.339854,2.0,56.0,475.0
2021-12-12-21:14:43.339854,2.0,56.0,475.0
2021-12-12-21:14:43.340851,12.0,18.0,476.0
2021-12-12-21:14:43.341849,12.0,18.0,476.0
2021-12-12-21:14:43.342846,12.0,18.0,476.0
2021-12-12-21:14:43.343847,12.0,18.0,476.0
2021-12-12-21:14:43.344841,10.0,56.0,477.0
2021-12-12-21:14:43.345838,12.0,42.0,477.0
2021-12-12-21:14:43.346835,12.0,42.0,477.0
2021-12-12-21:14:43.347832,12.0,42.0,477.0
2021-12-12-21:14:43.348830,1.0,20.0,477.0
2021-12-12-21:14:43.349827,1.0,1.0,477.0
2021-12-12-21:14:43.350824,1.0,1.0,477.0
2021-12-12-21:14:43.351822,1.0,1.0,477.0
2021-12-12-21:14:43.352819,8.0,65.0,477.0
2021-12-12-21:14:43.353817,2.0,65.0,477.0
2021-12-12-21:14:43.354814,2.0,65.0,477.0
2021-12-12-21:14:43.355811,2.0,65.0,477.0
2021-12-12-21:14:43.356808,11.0,20.0,478.0
2021-12-12-21:14:43.357806,12.0,15.0,478.0
2021-12-12-21:14:43.358805,12.0,15.0,478.0
2021-12-12-21:14:43.359800,12.0,15.0,478.0
2021-12-12-21:14:43.360798,14.0,38.0,478.0
2021-12-12-21:14:43.361795,10.0,49.0,478.0
2021-12-12-21:14:43.362792,10.0,49.0,478.0
2021-12-12-21:14:43.363789,10.0,49.0,478.0
2021-12-12-21:14:43.364787,10.0,49.0,478.0
2021-12-12-21:14:43.365785,1.0,2.0,479.0
2021-12-12-21:14:43.366781,1.0,2.0,479.0
2021-12-12-21:14:43.367779,1.0,2.0,479.0
2021-12-12-21:14:43.368776,1.0,2.0,479.0
2021-12-12-21:14:43.369773,3.0,69.0,479.0
2021-12-12-21:14:43.370803,3.0,69.0,479.0
2021-12-12-21:14:43.372766,3.0,69.0,479.0
2021-12-12-21:14:43.372766,7.0,28.0,480.0
2021-12-12-21:14:43.373763,11.0,8.0,479.0
2021-12-12-21:14:43.374797,11.0,8.0,479.0
2021-12-12-21:14:43.375790,11.0,8.0,479.0
2021-12-12-21:14:43.376787,11.0,8.0,479.0
2021-12-12-21:14:43.377784,15.0,51.0,480.0
2021-12-12-21:14:43.378787,9.0,53.0,480.0
2021-12-12-21:14:43.379782,9.0,53.0,480.0
2021-12-12-21:14:43.380777,9.0,53.0,480.0
2021-12-12-21:14:43.381774,1.0,14.0,480.0
2021-12-12-21:14:43.382772,1.0,7.0,480.0
2021-12-12-21:14:43.383769,1.0,7.0,480.0
2021-12-12-21:14:43.384769,1.0,7.0,480.0
2021-12-12-21:14:43.385764,7.0,47.0,481.0
2021-12-12-21:14:43.386762,6.0,71.0,481.0
2021-12-12-21:14:43.387760,6.0,71.0,481.0
2021-12-12-21:14:43.388756,6.0,71.0,481.0
2021-12-12-21:14:43.389754,13.0,5.0,481.0
2021-12-12-21:14:43.390750,13.0,5.0,481.0
2021-12-12-21:14:43.391749,13.0,5.0,481.0
2021-12-12-21:14:43.392713,13.0,5.0,481.0
2021-12-12-21:14:43.393744,13.0,29.0,482.0
2021-12-12-21:14:43.394740,9.0,55.0,482.0
2021-12-12-21:14:43.395739,9.0,55.0,482.0
2021-12-12-21:14:43.396702,9.0,55.0,482.0
2021-12-12-21:14:43.397732,4.0,20.0,483.0
2021-12-12-21:14:43.398729,3.0,8.0,483.0
2021-12-12-21:14:43.399694,3.0,8.0,483.0
2021-12-12-21:14:43.400726,3.0,8.0,483.0
2021-12-12-21:14:43.401721,11.0,61.0,483.0
2021-12-12-21:14:43.402724,5.0,75.0,483.0
2021-12-12-21:14:43.403721,5.0,75.0,483.0
2021-12-12-21:14:43.404714,5.0,75.0,483.0
2021-12-12-21:14:43.405713,5.0,75.0,483.0
2021-12-12-21:14:43.407673,6.0,22.0,484.0
2021-12-12-21:14:43.407673,11.0,0.0,484.0
2021-12-12-21:14:43.408705,11.0,0.0,484.0
2021-12-12-21:14:43.409699,11.0,0.0,484.0
2021-12-12-21:14:43.410699,12.0,21.0,484.0
2021-12-12-21:14:43.411696,13.0,56.0,484.0
2021-12-12-21:14:43.412659,13.0,56.0,484.0
2021-12-12-21:14:43.413689,13.0,56.0,484.0
2021-12-12-21:14:43.414691,5.0,23.0,485.0
2021-12-12-21:14:43.415686,4.0,13.0,485.0
2021-12-12-21:14:43.416683,4.0,13.0,485.0
2021-12-12-21:14:43.417678,4.0,13.0,485.0
2021-12-12-21:14:43.418679,6.0,22.0,485.0
2021-12-12-21:14:43.419676,9.0,79.0,485.0
2021-12-12-21:14:43.420672,9.0,79.0,485.0
2021-12-12-21:14:43.421671,9.0,79.0,485.0
2021-12-12-21:14:43.422633,2.0,51.0,485.0
2021-12-12-21:14:43.423630,9.0,7.0,486.0
2021-12-12-21:14:43.424647,9.0,7.0,486.0
2021-12-12-21:14:43.425658,9.0,7.0,486.0
2021-12-12-21:14:43.426621,13.0,21.0,486.0
2021-12-12-21:14:43.427618,16.0,51.0,487.0
2021-12-12-21:14:43.428616,16.0,51.0,487.0
2021-12-12-21:14:43.429613,16.0,51.0,487.0
2021-12-12-21:14:43.430610,5.0,24.0,486.0
2021-12-12-21:14:43.431608,2.0,13.0,486.0
2021-12-12-21:14:43.432606,2.0,13.0,486.0
2021-12-12-21:14:43.433604,2.0,13.0,486.0
2021-12-12-21:14:43.434634,3.0,7.0,487.0
2021-12-12-21:14:43.435632,4.0,71.0,487.0
2021-12-12-21:14:43.436628,4.0,71.0,487.0
2021-12-12-21:14:43.437592,4.0,71.0,487.0
2021-12-12-21:14:43.438627,5.0,41.0,487.0
2021-12-12-21:14:43.439622,9.0,14.0,487.0
2021-12-12-21:14:43.440620,9.0,14.0,487.0
2021-12-12-21:14:43.442618,9.0,14.0,487.0
2021-12-12-21:14:43.442618,13.0,18.0,488.0
2021-12-12-21:14:43.443612,13.0,43.0,488.0
2021-12-12-21:14:43.444610,13.0,43.0,488.0
2021-12-12-21:14:43.445605,13.0,43.0,488.0
2021-12-12-21:14:43.446606,13.0,43.0,488.0
2021-12-12-21:14:43.447599,9.0,31.0,488.0
2021-12-12-21:14:43.448600,2.0,21.0,488.0
2021-12-12-21:14:43.449593,2.0,21.0,488.0
2021-12-12-21:14:43.450590,2.0,21.0,488.0
2021-12-12-21:14:43.451590,5.0,33.0,488.0
2021-12-12-21:14:43.452553,9.0,63.0,489.0
2021-12-12-21:14:43.453584,9.0,63.0,489.0
2021-12-12-21:14:43.454580,9.0,63.0,489.0
2021-12-12-21:14:43.455578,1.0,64.0,489.0
2021-12-12-21:14:43.456578,9.0,25.0,489.0
2021-12-12-21:14:43.457539,9.0,25.0,489.0
2021-12-12-21:14:43.458537,9.0,25.0,489.0
2021-12-12-21:14:43.459534,9.0,25.0,489.0
2021-12-12-21:14:43.460531,15.0,36.0,489.0
2021-12-12-21:14:43.461528,15.0,36.0,489.0
2021-12-12-21:14:43.462525,15.0,36.0,489.0
2021-12-12-21:14:43.463523,9.0,47.0,489.0
2021-12-12-21:14:43.464520,6.0,22.0,489.0
2021-12-12-21:14:43.465517,6.0,22.0,489.0
2021-12-12-21:14:43.466515,6.0,22.0,489.0
2021-12-12-21:14:43.467512,0.0,1.0,489.0
2021-12-12-21:14:43.468545,6.0,58.0,490.0
2021-12-12-21:14:43.469542,6.0,58.0,490.0
2021-12-12-21:14:43.470505,6.0,58.0,490.0
2021-12-12-21:14:43.471535,3.0,71.0,489.0
2021-12-12-21:14:43.472534,5.0,33.0,490.0
2021-12-12-21:14:43.473530,5.0,33.0,490.0
2021-12-12-21:14:43.474493,5.0,33.0,490.0
2021-12-12-21:14:43.476488,13.0,9.0,490.0
2021-12-12-21:14:43.476488,11.0,28.0,491.0
2021-12-12-21:14:43.477485,11.0,28.0,491.0
2021-12-12-21:14:43.478483,11.0,28.0,491.0
2021-12-12-21:14:43.479480,9.0,56.0,490.0
2021-12-12-21:14:43.480477,1.0,15.0,491.0
2021-12-12-21:14:43.481474,1.0,15.0,491.0
2021-12-12-21:14:43.482472,1.0,15.0,491.0
2021-12-12-21:14:43.483469,1.0,15.0,491.0
2021-12-12-21:14:43.484466,4.0,48.0,491.0
2021-12-12-21:14:43.485464,7.0,71.0,490.0
2021-12-12-21:14:43.486461,7.0,71.0,490.0
2021-12-12-21:14:43.487459,7.0,71.0,490.0
2021-12-12-21:14:43.488491,8.0,36.0,491.0
2021-12-12-21:14:43.489453,12.0,15.0,490.0
2021-12-12-21:14:43.490485,12.0,15.0,490.0
2021-12-12-21:14:43.491449,12.0,15.0,490.0
2021-12-12-21:14:43.492479,14.0,43.0,490.0
2021-12-12-21:14:43.493477,14.0,43.0,490.0
2021-12-12-21:14:43.494440,14.0,43.0,490.0
2021-12-12-21:14:43.495437,14.0,43.0,490.0
2021-12-12-21:14:43.496435,8.0,45.0,490.0
2021-12-12-21:14:43.497432,3.0,21.0,491.0
2021-12-12-21:14:43.498429,3.0,21.0,491.0
2021-12-12-21:14:43.499427,3.0,21.0,491.0
2021-12-12-21:14:43.500424,0.0,3.0,491.0
2021-12-12-21:14:43.501421,7.0,63.0,491.0
2021-12-12-21:14:43.502420,7.0,63.0,491.0
2021-12-12-21:14:43.503416,7.0,63.0,491.0
2021-12-12-21:14:43.504413,1.0,65.0,491.0
2021-12-12-21:14:43.505411,9.0,23.0,491.0
2021-12-12-21:14:43.506441,9.0,23.0,491.0
2021-12-12-21:14:43.507406,9.0,23.0,491.0
2021-12-12-21:14:43.508436,10.0,11.0,491.0
2021-12-12-21:14:43.509400,17.0,33.0,491.0
2021-12-12-21:14:43.511395,17.0,33.0,491.0
2021-12-12-21:14:43.511395,4.0,26.0,491.0
2021-12-12-21:14:43.512393,4.0,26.0,491.0
2021-12-12-21:14:43.513389,4.0,26.0,491.0
2021-12-12-21:14:43.514386,4.0,26.0,491.0
2021-12-12-21:14:43.515384,4.0,26.0,491.0
2021-12-12-21:14:43.516381,7.0,16.0,491.0
2021-12-12-21:14:43.517378,8.0,52.0,491.0
2021-12-12-21:14:43.518376,8.0,52.0,491.0
2021-12-12-21:14:43.519373,8.0,52.0,491.0
2021-12-12-21:14:43.520371,8.0,52.0,491.0
2021-12-12-21:14:43.521368,7.0,31.0,491.0
2021-12-12-21:14:43.522365,7.0,31.0,491.0
2021-12-12-21:14:43.523363,7.0,31.0,491.0
2021-12-12-21:14:43.524360,7.0,31.0,491.0
2021-12-12-21:14:43.525357,10.0,8.0,491.0
2021-12-12-21:14:43.526354,12.0,16.0,491.0
2021-12-12-21:14:43.527386,12.0,28.0,491.0
2021-12-12-21:14:43.528384,12.0,28.0,491.0
2021-12-12-21:14:43.529381,7.0,40.0,492.0
2021-12-12-21:14:43.530346,6.0,27.0,491.0
2021-12-12-21:14:43.531376,6.0,27.0,491.0
2021-12-12-21:14:43.532371,6.0,27.0,491.0
2021-12-12-21:14:43.533371,3.0,5.0,492.0
2021-12-12-21:14:43.534333,7.0,44.0,492.0
2021-12-12-21:14:43.535364,7.0,44.0,492.0
2021-12-12-21:14:43.536363,7.0,44.0,492.0
2021-12-12-21:14:43.537365,6.0,76.0,492.0
2021-12-12-21:14:43.538356,5.0,40.0,492.0
2021-12-12-21:14:43.539321,5.0,40.0,492.0
2021-12-12-21:14:43.540351,5.0,40.0,492.0
2021-12-12-21:14:43.541316,12.0,4.0,492.0
2021-12-12-21:14:43.542345,13.0,25.0,492.0
2021-12-12-21:14:43.543310,13.0,25.0,492.0
2021-12-12-21:14:43.544307,13.0,25.0,492.0
2021-12-12-21:14:43.545304,9.0,54.0,492.0
2021-12-12-21:14:43.547299,9.0,54.0,492.0
2021-12-12-21:14:43.547299,6.0,32.0,492.0
2021-12-12-21:14:43.548296,6.0,32.0,492.0
2021-12-12-21:14:43.549294,1.0,11.0,492.0
2021-12-12-21:14:43.550291,1.0,2.0,492.0
2021-12-12-21:14:43.551288,5.0,31.0,492.0
2021-12-12-21:14:43.552285,5.0,31.0,492.0
2021-12-12-21:14:43.553282,2.0,66.0,492.0
2021-12-12-21:14:43.554280,5.0,48.0,492.0
2021-12-12-21:14:43.555277,5.0,48.0,492.0
2021-12-12-21:14:43.556274,5.0,48.0,492.0
2021-12-12-21:14:43.557272,5.0,48.0,492.0
2021-12-12-21:14:43.558269,12.0,24.0,492.0
2021-12-12-21:14:43.559267,12.0,24.0,492.0
2021-12-12-21:14:43.560264,12.0,24.0,492.0
2021-12-12-21:14:43.561261,12.0,54.0,492.0
2021-12-12-21:14:43.562292,7.0,38.0,492.0
2021-12-12-21:14:43.563294,7.0,38.0,492.0
2021-12-12-21:14:43.564254,7.0,38.0,492.0
2021-12-12-21:14:43.565251,7.0,38.0,492.0
2021-12-12-21:14:43.566248,3.0,12.0,492.0
2021-12-12-21:14:43.567246,6.0,16.0,492.0
2021-12-12-21:14:43.568243,6.0,16.0,492.0
2021-12-12-21:14:43.569242,6.0,16.0,492.0
2021-12-12-21:14:43.570239,6.0,75.0,492.0
2021-12-12-21:14:43.571237,0.0,56.0,492.0
2021-12-12-21:14:43.572234,0.0,56.0,492.0
2021-12-12-21:14:43.573231,0.0,56.0,492.0
2021-12-12-21:14:43.574229,10.0,7.0,493.0
2021-12-12-21:14:43.575226,11.0,18.0,492.0
2021-12-12-21:14:43.576223,11.0,18.0,492.0
2021-12-12-21:14:43.577220,11.0,18.0,492.0
2021-12-12-21:14:43.579215,14.0,28.0,492.0
2021-12-12-21:14:43.579215,8.0,43.0,492.0
2021-12-12-21:14:43.580212,8.0,43.0,492.0
2021-12-12-21:14:43.581209,8.0,43.0,492.0
2021-12-12-21:14:43.582207,1.0,7.0,492.0
2021-12-12-21:14:43.583204,2.0,2.0,492.0
2021-12-12-21:14:43.584201,2.0,2.0,492.0
2021-12-12-21:14:43.585199,2.0,2.0,492.0
2021-12-12-21:14:43.586196,3.0,77.0,492.0
2021-12-12-21:14:43.587193,0.0,61.0,492.0
2021-12-12-21:14:43.588191,0.0,61.0,492.0
2021-12-12-21:14:43.589188,0.0,61.0,492.0
2021-12-12-21:14:43.590184,12.0,3.0,493.0
2021-12-12-21:14:43.591182,12.0,14.0,492.0
2021-12-12-21:14:43.592180,12.0,14.0,492.0
2021-12-12-21:14:43.593182,12.0,14.0,492.0
2021-12-12-21:14:43.594177,12.0,14.0,492.0
2021-12-12-21:14:43.595174,14.0,26.0,492.0
2021-12-12-21:14:43.596170,11.0,46.0,492.0
2021-12-12-21:14:43.597167,11.0,46.0,492.0
2021-12-12-21:14:43.598164,11.0,46.0,492.0
2021-12-12-21:14:43.599162,1.0,1.0,492.0
2021-12-12-21:14:43.600158,1.0,1.0,492.0
2021-12-12-21:14:43.601156,1.0,1.0,492.0
2021-12-12-21:14:43.602153,1.0,1.0,492.0
2021-12-12-21:14:43.603151,8.0,62.0,492.0
2021-12-12-21:14:43.604148,2.0,68.0,492.0
2021-12-12-21:14:43.605145,2.0,68.0,492.0
2021-12-12-21:14:43.606143,2.0,68.0,492.0
2021-12-12-21:14:43.607140,7.0,27.0,492.0
2021-12-12-21:14:43.608137,10.0,12.0,493.0
2021-12-12-21:14:43.609135,10.0,12.0,493.0
2021-12-12-21:14:43.610132,10.0,12.0,493.0
2021-12-12-21:14:43.611130,14.0,34.0,493.0
2021-12-12-21:14:43.612127,7.0,50.0,493.0
2021-12-12-21:14:43.613124,7.0,50.0,493.0
2021-12-12-21:14:43.615119,7.0,50.0,493.0
2021-12-12-21:14:43.615119,3.0,24.0,493.0
2021-12-12-21:14:43.616116,4.0,3.0,493.0
2021-12-12-21:14:43.617113,4.0,3.0,493.0
2021-12-12-21:14:43.618111,4.0,3.0,493.0
2021-12-12-21:14:43.619108,4.0,54.0,492.0
2021-12-12-21:14:43.620105,3.0,72.0,493.0
2021-12-12-21:14:43.621103,3.0,72.0,493.0
2021-12-12-21:14:43.622100,3.0,72.0,493.0
2021-12-12-21:14:43.623098,9.0,34.0,492.0
2021-12-12-21:14:43.624095,12.0,7.0,492.0
2021-12-12-21:14:43.625093,12.0,7.0,492.0
2021-12-12-21:14:43.626089,12.0,7.0,492.0
2021-12-12-21:14:43.627087,12.0,28.0,492.0
2021-12-12-21:14:43.628085,12.0,53.0,492.0
2021-12-12-21:14:43.629081,12.0,53.0,492.0
2021-12-12-21:14:43.630080,12.0,53.0,492.0
2021-12-12-21:14:43.631074,12.0,53.0,492.0
2021-12-12-21:14:43.632072,6.0,26.0,493.0
2021-12-12-21:14:43.633071,6.0,26.0,493.0
2021-12-12-21:14:43.634066,1.0,5.0,492.0
2021-12-12-21:14:43.635064,5.0,72.0,492.0
2021-12-12-21:14:43.636061,5.0,72.0,492.0
2021-12-12-21:14:43.637058,5.0,72.0,492.0
2021-12-12-21:14:43.638056,5.0,72.0,492.0
2021-12-12-21:14:43.639055,5.0,72.0,492.0
2021-12-12-21:14:43.640050,1.0,61.0,493.0
2021-12-12-21:14:43.641048,9.0,3.0,492.0
2021-12-12-21:14:43.642045,9.0,3.0,492.0
2021-12-12-21:14:43.643042,9.0,3.0,492.0
2021-12-12-21:14:43.644040,12.0,25.0,492.0
2021-12-12-21:14:43.645037,13.0,59.0,492.0
2021-12-12-21:14:43.646035,13.0,59.0,492.0
2021-12-12-21:14:43.648029,13.0,59.0,492.0
2021-12-12-21:14:43.648029,5.0,22.0,493.0
2021-12-12-21:14:43.649026,1.0,13.0,492.0
2021-12-12-21:14:43.650024,1.0,13.0,492.0
2021-12-12-21:14:43.651021,1.0,13.0,492.0
2021-12-12-21:14:43.652019,7.0,25.0,493.0
2021-12-12-21:14:43.653016,4.0,79.0,493.0
2021-12-12-21:14:43.654013,4.0,79.0,493.0
2021-12-12-21:14:43.655010,4.0,79.0,493.0
2021-12-12-21:14:43.656008,2.0,67.0,493.0
2021-12-12-21:14:43.657005,9.0,2.0,493.0
2021-12-12-21:14:43.658002,9.0,2.0,493.0
2021-12-12-21:14:43.659000,9.0,2.0,493.0
2021-12-12-21:14:43.659997,13.0,22.0,493.0
2021-12-12-21:14:43.660995,14.0,54.0,493.0
2021-12-12-21:14:43.661992,14.0,54.0,493.0
2021-12-12-21:14:43.662989,14.0,54.0,493.0
2021-12-12-21:14:43.663987,2.0,13.0,492.0
2021-12-12-21:14:43.664984,2.0,13.0,492.0
2021-12-12-21:14:43.665981,2.0,13.0,492.0
2021-12-12-21:14:43.666978,2.0,13.0,492.0
2021-12-12-21:14:43.667976,3.0,54.0,493.0
2021-12-12-21:14:43.668973,9.0,75.0,493.0
2021-12-12-21:14:43.669971,9.0,75.0,493.0
2021-12-12-21:14:43.670968,9.0,75.0,493.0
2021-12-12-21:14:43.671965,9.0,75.0,493.0
2021-12-12-21:14:43.672963,9.0,12.0,492.0
2021-12-12-21:14:43.673960,9.0,12.0,492.0
2021-12-12-21:14:43.674957,9.0,12.0,492.0
2021-12-12-21:14:43.675956,9.0,12.0,492.0
2021-12-12-21:14:43.676952,13.0,45.0,493.0
2021-12-12-21:14:43.677949,13.0,45.0,493.0
2021-12-12-21:14:43.678946,13.0,45.0,493.0
2021-12-12-21:14:43.679944,13.0,45.0,493.0
2021-12-12-21:14:43.681938,5.0,18.0,493.0
2021-12-12-21:14:43.681938,5.0,18.0,493.0
2021-12-12-21:14:43.682936,5.0,18.0,493.0
2021-12-12-21:14:43.683933,5.0,18.0,493.0
2021-12-12-21:14:43.684930,2.0,1.0,492.0
2021-12-12-21:14:43.685928,7.0,67.0,493.0
2021-12-12-21:14:43.686925,7.0,67.0,493.0
2021-12-12-21:14:43.687922,7.0,67.0,493.0
2021-12-12-21:14:43.688920,1.0,60.0,493.0
2021-12-12-21:14:43.689917,11.0,20.0,493.0
2021-12-12-21:14:43.690915,11.0,20.0,493.0
2021-12-12-21:14:43.691912,11.0,20.0,493.0
2021-12-12-21:14:43.692909,13.0,12.0,493.0
2021-12-12-21:14:43.693907,16.0,38.0,493.0
2021-12-12-21:14:43.694938,16.0,38.0,493.0
2021-12-12-21:14:43.695902,16.0,38.0,493.0
2021-12-12-21:14:43.696932,8.0,44.0,493.0
2021-12-12-21:14:43.697929,2.0,19.0,492.0
2021-12-12-21:14:43.698928,2.0,19.0,492.0
2021-12-12-21:14:43.699891,2.0,19.0,492.0
2021-12-12-21:14:43.700921,0.0,1.0,493.0
2021-12-12-21:14:43.701924,7.0,62.0,493.0
2021-12-12-21:14:43.702916,7.0,62.0,493.0
2021-12-12-21:14:43.703882,7.0,62.0,493.0
2021-12-12-21:14:43.704911,7.0,62.0,493.0
2021-12-12-21:14:43.705904,1.0,68.0,493.0
2021-12-12-21:14:43.706907,9.0,2.0,492.0
2021-12-12-21:14:43.707869,9.0,2.0,492.0
2021-12-12-21:14:43.708901,10.0,12.0,493.0
2021-12-12-21:14:43.709897,17.0,53.0,493.0
2021-12-12-21:14:43.710895,17.0,53.0,493.0
2021-12-12-21:14:43.711894,17.0,53.0,493.0
2021-12-12-21:14:43.712889,17.0,53.0,493.0
2021-12-12-21:14:43.713886,1.0,13.0,492.0
2021-12-12-21:14:43.715882,1.0,13.0,492.0
2021-12-12-21:14:43.715882,1.0,13.0,492.0
2021-12-12-21:14:43.716878,8.0,53.0,493.0
2021-12-12-21:14:43.717876,8.0,75.0,493.0
2021-12-12-21:14:43.718873,8.0,75.0,493.0
2021-12-12-21:14:43.719838,8.0,75.0,493.0
2021-12-12-21:14:43.720867,8.0,75.0,493.0
2021-12-12-21:14:43.721832,2.0,77.0,492.0
2021-12-12-21:14:43.722829,10.0,13.0,492.0
2021-12-12-21:14:43.723827,10.0,13.0,492.0
2021-12-12-21:14:43.724824,10.0,13.0,492.0
2021-12-12-21:14:43.725823,11.0,6.0,492.0
2021-12-12-21:14:43.726818,14.0,15.0,493.0
2021-12-12-21:14:43.727816,14.0,44.0,493.0
2021-12-12-21:14:43.728814,14.0,44.0,493.0
2021-12-12-21:14:43.729810,14.0,44.0,493.0
2021-12-12-21:14:43.730807,4.0,20.0,493.0
2021-12-12-21:14:43.731805,4.0,20.0,493.0
2021-12-12-21:14:43.732802,4.0,20.0,493.0
2021-12-12-21:14:43.733800,9.0,69.0,492.0
2021-12-12-21:14:43.734799,9.0,69.0,492.0
2021-12-12-21:14:43.735796,9.0,69.0,492.0
2021-12-12-21:14:43.736793,9.0,69.0,492.0
2021-12-12-21:14:43.737790,1.0,61.0,492.0
2021-12-12-21:14:43.738787,11.0,21.0,492.0
2021-12-12-21:14:43.739785,11.0,21.0,492.0
2021-12-12-21:14:43.740782,11.0,21.0,492.0
2021-12-12-21:14:43.741779,12.0,12.0,492.0
2021-12-12-21:14:43.742777,14.0,39.0,492.0
2021-12-12-21:14:43.743774,14.0,39.0,492.0
2021-12-12-21:14:43.744772,14.0,39.0,492.0
2021-12-12-21:14:43.745770,7.0,35.0,493.0
2021-12-12-21:14:43.746767,3.0,19.0,493.0
2021-12-12-21:14:43.747764,3.0,19.0,493.0
2021-12-12-21:14:43.748761,3.0,19.0,493.0
2021-12-12-21:14:43.749758,4.0,9.0,493.0
2021-12-12-21:14:43.751754,4.0,9.0,493.0
2021-12-12-21:14:43.751754,6.0,24.0,493.0
2021-12-12-21:14:43.752751,9.0,61.0,492.0
2021-12-12-21:14:43.753746,9.0,61.0,492.0
2021-12-12-21:14:43.754744,4.0,79.0,492.0
2021-12-12-21:14:43.755742,0.0,51.0,493.0
2021-12-12-21:14:43.756740,7.0,26.0,492.0
2021-12-12-21:14:43.757736,7.0,26.0,492.0
2021-12-12-21:14:43.758733,12.0,11.0,492.0
2021-12-12-21:14:43.759732,12.0,32.0,492.0
2021-12-12-21:14:43.760729,12.0,32.0,492.0
2021-12-12-21:14:43.761726,12.0,32.0,492.0
2021-12-12-21:14:43.762724,15.0,53.0,492.0
2021-12-12-21:14:43.763720,5.0,24.0,492.0
2021-12-12-21:14:43.764717,5.0,24.0,492.0
2021-12-12-21:14:43.765714,5.0,24.0,492.0
2021-12-12-21:14:43.766712,2.0,16.0,492.0
2021-12-12-21:14:43.767709,6.0,12.0,493.0
2021-12-12-21:14:43.768706,8.0,55.0,493.0
2021-12-12-21:14:43.769703,8.0,55.0,493.0
2021-12-12-21:14:43.770701,2.0,75.0,493.0
2021-12-12-21:14:43.771698,7.0,36.0,492.0
2021-12-12-21:14:43.772695,7.0,36.0,492.0
2021-12-12-21:14:43.773693,7.0,36.0,492.0
2021-12-12-21:14:43.774691,10.0,2.0,492.0
2021-12-12-21:14:43.775688,11.0,29.0,492.0
2021-12-12-21:14:43.776685,11.0,29.0,492.0
2021-12-12-21:14:43.777682,11.0,29.0,492.0
2021-12-12-21:14:43.778715,10.0,52.0,493.0
2021-12-12-21:14:43.779680,6.0,30.0,493.0
2021-12-12-21:14:43.780688,6.0,30.0,493.0
2021-12-12-21:14:43.781702,6.0,30.0,493.0
2021-12-12-21:14:43.782669,0.0,10.0,493.0
2021-12-12-21:14:43.783667,5.0,38.0,492.0
2021-12-12-21:14:43.785662,5.0,38.0,492.0
2021-12-12-21:14:43.785662,5.0,38.0,492.0
2021-12-12-21:14:43.786659,8.0,63.0,492.0
2021-12-12-21:14:43.787656,2.0,76.0,493.0
2021-12-12-21:14:43.788653,5.0,44.0,493.0
2021-12-12-21:14:43.789650,5.0,44.0,493.0
2021-12-12-21:14:43.790650,5.0,44.0,493.0
2021-12-12-21:14:43.791645,14.0,1.0,492.0
2021-12-12-21:14:43.792642,13.0,23.0,492.0
2021-12-12-21:14:43.793640,13.0,23.0,492.0
2021-12-12-21:14:43.794637,13.0,23.0,492.0
2021-12-12-21:14:43.795635,14.0,36.0,492.0
2021-12-12-21:14:43.796667,14.0,54.0,492.0
2021-12-12-21:14:43.797629,6.0,36.0,492.0
2021-12-12-21:14:43.798659,6.0,36.0,492.0
2021-12-12-21:14:43.799660,4.0,20.0,492.0
2021-12-12-21:14:43.800621,1.0,1.0,492.0
2021-12-12-21:14:43.801651,6.0,24.0,492.0
2021-12-12-21:14:43.802642,7.0,58.0,492.0
2021-12-12-21:14:43.803613,0.0,71.0,493.0
2021-12-12-21:14:43.804610,2.0,53.0,492.0
2021-12-12-21:14:43.805607,2.0,53.0,492.0
2021-12-12-21:14:43.806605,2.0,53.0,492.0
2021-12-12-21:14:43.807608,7.0,30.0,492.0
2021-12-12-21:14:43.808633,10.0,5.0,493.0
2021-12-12-21:14:43.809597,11.0,19.0,492.0
2021-12-12-21:14:43.810594,11.0,19.0,492.0
2021-12-12-21:14:43.811591,15.0,51.0,492.0
2021-12-12-21:14:43.812589,4.0,40.0,493.0
2021-12-12-21:14:43.813586,4.0,40.0,493.0
2021-12-12-21:14:43.814584,4.0,40.0,493.0
2021-12-12-21:14:43.815582,4.0,25.0,492.0
2021-12-12-21:14:43.816579,6.0,7.0,493.0
2021-12-12-21:14:43.817576,6.0,7.0,493.0
2021-12-12-21:14:43.818574,6.0,7.0,493.0
2021-12-12-21:14:43.819571,6.0,7.0,493.0
2021-12-12-21:14:43.820568,8.0,48.0,492.0
2021-12-12-21:14:43.822562,8.0,75.0,493.0
2021-12-12-21:14:43.822562,3.0,73.0,493.0
2021-12-12-21:14:43.823561,13.0,19.0,493.0
2021-12-12-21:14:43.824557,13.0,19.0,493.0
2021-12-12-21:14:43.825555,13.0,19.0,493.0
2021-12-12-21:14:43.826553,13.0,19.0,493.0
2021-12-12-21:14:43.827550,13.0,19.0,493.0
2021-12-12-21:14:43.828548,15.0,45.0,492.0
2021-12-12-21:14:43.829545,8.0,42.0,492.0
2021-12-12-21:14:43.830542,8.0,42.0,492.0
2021-12-12-21:14:43.831540,8.0,42.0,492.0
2021-12-12-21:14:43.832535,5.0,31.0,492.0
2021-12-12-21:14:43.833566,5.0,16.0,492.0
2021-12-12-21:14:43.834566,1.0,6.0,493.0
2021-12-12-21:14:43.835528,1.0,6.0,493.0
2021-12-12-21:14:43.836525,6.0,38.0,493.0
2021-12-12-21:14:43.837523,7.0,67.0,493.0
2021-12-12-21:14:43.838520,1.0,64.0,493.0
2021-12-12-21:14:43.839517,1.0,64.0,493.0
2021-12-12-21:14:43.840515,6.0,48.0,493.0
2021-12-12-21:14:43.841511,10.0,15.0,493.0
2021-12-12-21:14:43.842509,10.0,15.0,493.0
2021-12-12-21:14:43.843540,10.0,15.0,493.0
2021-12-12-21:14:43.844536,11.0,39.0,493.0
2021-12-12-21:14:43.845501,11.0,51.0,492.0
2021-12-12-21:14:43.846498,11.0,51.0,492.0
2021-12-12-21:14:43.847496,11.0,51.0,492.0
2021-12-12-21:14:43.848493,5.0,23.0,492.0
2021-12-12-21:14:43.849491,3.0,3.0,492.0
2021-12-12-21:14:43.850531,3.0,3.0,492.0
2021-12-12-21:14:43.852483,3.0,3.0,492.0
2021-12-12-21:14:43.852483,8.0,77.0,492.0
2021-12-12-21:14:43.853480,5.0,71.0,493.0
2021-12-12-21:14:43.854510,5.0,71.0,493.0
2021-12-12-21:14:43.855475,5.0,71.0,493.0
2021-12-12-21:14:43.856472,9.0,27.0,492.0
2021-12-12-21:14:43.857469,13.0,10.0,492.0
2021-12-12-21:14:43.858467,13.0,10.0,492.0
2021-12-12-21:14:43.859465,13.0,10.0,492.0
2021-12-12-21:14:43.860460,13.0,31.0,492.0
2021-12-12-21:14:43.861458,11.0,55.0,492.0
2021-12-12-21:14:43.862490,11.0,55.0,492.0
2021-12-12-21:14:43.863499,11.0,55.0,492.0
2021-12-12-21:14:43.864451,1.0,14.0,492.0
2021-12-12-21:14:43.865448,1.0,7.0,492.0
2021-12-12-21:14:43.866479,1.0,7.0,492.0
2021-12-12-21:14:43.867442,1.0,7.0,492.0
2021-12-12-21:14:43.868440,1.0,7.0,492.0
2021-12-12-21:14:43.869438,5.0,75.0,493.0
2021-12-12-21:14:43.870434,3.0,77.0,492.0
2021-12-12-21:14:43.871432,3.0,77.0,492.0
2021-12-12-21:14:43.872429,3.0,77.0,492.0
2021-12-12-21:14:43.873461,7.0,38.0,492.0
2021-12-12-21:14:43.874459,11.0,3.0,492.0
2021-12-12-21:14:43.875455,11.0,3.0,492.0
2021-12-12-21:14:43.876452,11.0,3.0,492.0
2021-12-12-21:14:43.877449,12.0,31.0,492.0
2021-12-12-21:14:43.878447,12.0,54.0,491.0
2021-12-12-21:14:43.879446,12.0,54.0,491.0
2021-12-12-21:14:43.880407,12.0,54.0,491.0
2021-12-12-21:14:43.881438,6.0,33.0,492.0
2021-12-12-21:14:43.882437,2.0,5.0,492.0
2021-12-12-21:14:43.883400,2.0,5.0,492.0
2021-12-12-21:14:43.884415,2.0,5.0,492.0
2021-12-12-21:14:43.885395,1.0,3.0,492.0
2021-12-12-21:14:43.886391,7.0,67.0,492.0
2021-12-12-21:14:43.887389,5.0,80.0,492.0
2021-12-12-21:14:43.889384,5.0,80.0,492.0
2021-12-12-21:14:43.889384,1.0,65.0,491.0
2021-12-12-21:14:43.890381,1.0,65.0,491.0
2021-12-12-21:14:43.891378,3.0,48.0,491.0
2021-12-12-21:14:43.892375,11.0,1.0,491.0
2021-12-12-21:14:43.893374,12.0,11.0,491.0
2021-12-12-21:14:43.894371,16.0,38.0,491.0
2021-12-12-21:14:43.895367,12.0,56.0,491.0
2021-12-12-21:14:43.896365,12.0,56.0,491.0
2021-12-12-21:14:43.897362,10.0,34.0,491.0
2021-12-12-21:14:43.898360,4.0,11.0,491.0
2021-12-12-21:14:43.899357,4.0,11.0,491.0
2021-12-12-21:14:43.900354,4.0,11.0,491.0
2021-12-12-21:14:43.901352,4.0,11.0,491.0
2021-12-12-21:14:43.902349,7.0,19.0,491.0
2021-12-12-21:14:43.903347,6.0,58.0,491.0
2021-12-12-21:14:43.904343,6.0,78.0,491.0
2021-12-12-21:14:43.905341,6.0,78.0,491.0
2021-12-12-21:14:43.906338,6.0,30.0,491.0
2021-12-12-21:14:43.907335,10.0,6.0,491.0
2021-12-12-21:14:43.908334,10.0,6.0,491.0
2021-12-12-21:14:43.909332,10.0,6.0,491.0
2021-12-12-21:14:43.910329,13.0,4.0,491.0
2021-12-12-21:14:43.911327,13.0,32.0,491.0
2021-12-12-21:14:43.912323,16.0,52.0,491.0
2021-12-12-21:14:43.913320,16.0,52.0,491.0
2021-12-12-21:14:43.914317,11.0,52.0,491.0
2021-12-12-21:14:43.915314,6.0,30.0,491.0
2021-12-12-21:14:43.916312,3.0,17.0,490.0
2021-12-12-21:14:43.917309,3.0,17.0,490.0
2021-12-12-21:14:43.918306,3.0,17.0,490.0
2021-12-12-21:14:43.919304,8.0,49.0,491.0
2021-12-12-21:14:43.920301,4.0,71.0,490.0
2021-12-12-21:14:43.921298,4.0,71.0,490.0
2021-12-12-21:14:43.922296,5.0,74.0,490.0
2021-12-12-21:14:43.924290,9.0,13.0,490.0
2021-12-12-21:14:43.924290,9.0,13.0,490.0
2021-12-12-21:14:43.925289,9.0,13.0,490.0
2021-12-12-21:14:43.926285,15.0,31.0,490.0
2021-12-12-21:14:43.927283,15.0,40.0,490.0
2021-12-12-21:14:43.928280,15.0,40.0,490.0
2021-12-12-21:14:43.929277,15.0,40.0,490.0
2021-12-12-21:14:43.930275,14.0,52.0,490.0
2021-12-12-21:14:43.931273,0.0,10.0,490.0
2021-12-12-21:14:43.932269,0.0,10.0,490.0
2021-12-12-21:14:43.933266,0.0,10.0,490.0
2021-12-12-21:14:43.934264,7.0,62.0,490.0
2021-12-12-21:14:43.935296,4.0,79.0,490.0
2021-12-12-21:14:43.936284,4.0,79.0,490.0
2021-12-12-21:14:43.937294,4.0,79.0,490.0
2021-12-12-21:14:43.938253,1.0,47.0,490.0
2021-12-12-21:14:43.939250,10.0,0.0,490.0
2021-12-12-21:14:43.940247,10.0,0.0,490.0
2021-12-12-21:14:43.941247,10.0,0.0,490.0
2021-12-12-21:14:43.942243,10.0,0.0,490.0
2021-12-12-21:14:43.943240,10.0,13.0,490.0
2021-12-12-21:14:43.944237,12.0,54.0,490.0
2021-12-12-21:14:43.945234,12.0,54.0,490.0
2021-12-12-21:14:43.946232,12.0,54.0,490.0
2021-12-12-21:14:43.947229,12.0,49.0,489.0
2021-12-12-21:14:43.948226,8.0,36.0,490.0
2021-12-12-21:14:43.949223,2.0,14.0,490.0
2021-12-12-21:14:43.950255,2.0,14.0,490.0
2021-12-12-21:14:43.951250,9.0,19.0,489.0
2021-12-12-21:14:43.952249,7.0,80.0,490.0
2021-12-12-21:14:43.953213,7.0,80.0,490.0
2021-12-12-21:14:43.954245,7.0,80.0,490.0
2021-12-12-21:14:43.956238,3.0,71.0,489.0
2021-12-12-21:14:43.956238,13.0,12.0,489.0
2021-12-12-21:14:43.957203,13.0,12.0,489.0
2021-12-12-21:14:43.958200,13.0,12.0,489.0
2021-12-12-21:14:43.959232,12.0,15.0,489.0
2021-12-12-21:14:43.960231,16.0,48.0,489.0
2021-12-12-21:14:43.961192,16.0,48.0,489.0
2021-12-12-21:14:43.962189,16.0,48.0,489.0
2021-12-12-21:14:43.963187,6.0,44.0,489.0
2021-12-12-21:14:43.964184,0.0,21.0,489.0
2021-12-12-21:14:43.965214,0.0,21.0,489.0
2021-12-12-21:14:43.966179,0.0,21.0,489.0
2021-12-12-21:14:43.967176,3.0,8.0,489.0
2021-12-12-21:14:43.968172,7.0,47.0,489.0
2021-12-12-21:14:43.969171,8.0,70.0,489.0
2021-12-12-21:14:43.970168,8.0,70.0,489.0
2021-12-12-21:14:43.971165,5.0,75.0,489.0
2021-12-12-21:14:43.972162,5.0,75.0,489.0
2021-12-12-21:14:43.973160,11.0,19.0,488.0
2021-12-12-21:14:43.974191,11.0,19.0,488.0
2021-12-12-21:14:43.975155,13.0,4.0,489.0
2021-12-12-21:14:43.976152,10.0,29.0,489.0
2021-12-12-21:14:43.977149,13.0,44.0,489.0
2021-12-12-21:14:43.978147,13.0,44.0,489.0
2021-12-12-21:14:43.979144,13.0,44.0,489.0
2021-12-12-21:14:43.980141,8.0,41.0,488.0
2021-12-12-21:14:43.981139,6.0,18.0,488.0
2021-12-12-21:14:43.982136,6.0,18.0,488.0
2021-12-12-21:14:43.983133,6.0,18.0,488.0
2021-12-12-21:14:43.984130,2.0,3.0,488.0
2021-12-12-21:14:43.985127,6.0,34.0,488.0
2021-12-12-21:14:43.986124,8.0,60.0,487.0
2021-12-12-21:14:43.987122,8.0,60.0,487.0
2021-12-12-21:14:43.988120,0.0,64.0,487.0
2021-12-12-21:14:43.989116,9.0,23.0,487.0
2021-12-12-21:14:43.991112,9.0,23.0,487.0
2021-12-12-21:14:43.992109,9.0,23.0,487.0
2021-12-12-21:14:43.992109,12.0,25.0,486.0
2021-12-12-21:14:43.993106,12.0,36.0,486.0
2021-12-12-21:14:43.994104,12.0,36.0,486.0
2021-12-12-21:14:43.995101,12.0,36.0,486.0
2021-12-12-21:14:43.996098,12.0,55.0,486.0
2021-12-12-21:14:43.997095,2.0,24.0,485.0
2021-12-12-21:14:43.998093,2.0,24.0,485.0
2021-12-12-21:14:43.999090,2.0,24.0,485.0
2021-12-12-21:14:44.000087,2.0,0.0,485.0
2021-12-12-21:14:44.001085,7.0,58.0,486.0
2021-12-12-21:14:44.002082,7.0,58.0,486.0
2021-12-12-21:14:44.003079,7.0,58.0,486.0
2021-12-12-21:14:44.004077,11.0,34.0,485.0
2021-12-12-21:14:44.005074,11.0,34.0,485.0
2021-12-12-21:14:44.006072,11.0,34.0,485.0
2021-12-12-21:14:44.007069,11.0,34.0,485.0
2021-12-12-21:14:44.008066,11.0,34.0,485.0
2021-12-12-21:14:44.009064,12.0,11.0,484.0
2021-12-12-21:14:44.010061,11.0,24.0,484.0
2021-12-12-21:14:44.011058,9.0,38.0,484.0
2021-12-12-21:14:44.012055,15.0,55.0,484.0
2021-12-12-21:14:44.013053,7.0,31.0,483.0
2021-12-12-21:14:44.014050,7.0,31.0,483.0
2021-12-12-21:14:44.015047,7.0,31.0,483.0
2021-12-12-21:14:44.016045,7.0,31.0,483.0
2021-12-12-21:14:44.017042,0.0,4.0,482.0
2021-12-12-21:14:44.018075,6.0,50.0,482.0
2021-12-12-21:14:44.019069,6.0,50.0,482.0
2021-12-12-21:14:44.020066,6.0,50.0,482.0
2021-12-12-21:14:44.021063,0.0,63.0,481.0
2021-12-12-21:14:44.022062,7.0,40.0,481.0
2021-12-12-21:14:44.023061,7.0,40.0,481.0
2021-12-12-21:14:44.024023,7.0,40.0,481.0
2021-12-12-21:14:44.025021,15.0,4.0,481.0
2021-12-12-21:14:44.026053,15.0,21.0,480.0
2021-12-12-21:14:44.028013,15.0,21.0,480.0
2021-12-12-21:14:44.028013,15.0,21.0,480.0
2021-12-12-21:14:44.029011,2.0,40.0,479.0
2021-12-12-21:14:44.030008,2.0,40.0,479.0
2021-12-12-21:14:44.031005,2.0,40.0,479.0
2021-12-12-21:14:44.032014,2.0,40.0,479.0
2021-12-12-21:14:44.033033,1.0,10.0,479.0
2021-12-12-21:14:44.034032,4.0,45.0,478.0
2021-12-12-21:14:44.035027,4.0,45.0,478.0
2021-12-12-21:14:44.036024,4.0,45.0,478.0
2021-12-12-21:14:44.037026,4.0,66.0,477.0
2021-12-12-21:14:44.037986,2.0,43.0,477.0
2021-12-12-21:14:44.038983,2.0,43.0,477.0
2021-12-12-21:14:44.039980,2.0,43.0,477.0
2021-12-12-21:14:44.040978,18.0,15.0,476.0
2021-12-12-21:14:44.041975,18.0,15.0,476.0
2021-12-12-21:14:44.042973,18.0,15.0,476.0
2021-12-12-21:14:44.043970,18.0,15.0,476.0
2021-12-12-21:14:44.044967,13.0,52.0,476.0
2021-12-12-21:14:44.045965,4.0,38.0,475.0
2021-12-12-21:14:44.046962,4.0,38.0,475.0
2021-12-12-21:14:44.047959,4.0,38.0,475.0
2021-12-12-21:14:44.048956,1.0,12.0,475.0
2021-12-12-21:14:44.049954,5.0,17.0,474.0
2021-12-12-21:14:44.050951,5.0,17.0,474.0
2021-12-12-21:14:44.051948,5.0,17.0,474.0
2021-12-12-21:14:44.052946,5.0,17.0,474.0
2021-12-12-21:14:44.053943,1.0,56.0,473.0
2021-12-12-21:14:44.054941,1.0,56.0,473.0
2021-12-12-21:14:44.055938,1.0,56.0,473.0
2021-12-12-21:14:44.056935,1.0,56.0,473.0
2021-12-12-21:14:44.058930,12.0,4.0,472.0
2021-12-12-21:14:44.058930,12.0,14.0,472.0
2021-12-12-21:14:44.059927,12.0,14.0,472.0
2021-12-12-21:14:44.060924,12.0,14.0,472.0
2021-12-12-21:14:44.061922,18.0,43.0,472.0
2021-12-12-21:14:44.062919,14.0,43.0,471.0
2021-12-12-21:14:44.063918,14.0,43.0,471.0
2021-12-12-21:14:44.064914,14.0,43.0,471.0
2021-12-12-21:14:44.065911,4.0,17.0,470.0
2021-12-12-21:14:44.066909,2.0,8.0,469.0
2021-12-12-21:14:44.067906,2.0,8.0,469.0
2021-12-12-21:14:44.068903,2.0,8.0,469.0
2021-12-12-21:14:44.069901,6.0,76.0,469.0
2021-12-12-21:14:44.070898,1.0,61.0,469.0
2021-12-12-21:14:44.071895,1.0,61.0,469.0
2021-12-12-21:14:44.072893,1.0,61.0,469.0
2021-12-12-21:14:44.073890,10.0,16.0,468.0
2021-12-12-21:14:44.074887,14.0,1.0,467.0
2021-12-12-21:14:44.075885,13.0,17.0,467.0
2021-12-12-21:14:44.076882,13.0,17.0,467.0
2021-12-12-21:14:44.077879,11.0,21.0,467.0
2021-12-12-21:14:44.078877,13.0,36.0,467.0
2021-12-12-21:14:44.079874,7.0,45.0,466.0
2021-12-12-21:14:44.080871,7.0,45.0,466.0
2021-12-12-21:14:44.081868,1.0,8.0,465.0
2021-12-12-21:14:44.082866,0.0,2.0,465.0
2021-12-12-21:14:44.083863,0.0,2.0,465.0
2021-12-12-21:14:44.084861,0.0,2.0,465.0
2021-12-12-21:14:44.085858,7.0,35.0,465.0
2021-12-12-21:14:44.086855,7.0,68.0,464.0
2021-12-12-21:14:44.087854,2.0,85.0,464.0
2021-12-12-21:14:44.088852,3.0,72.0,464.0
2021-12-12-21:14:44.089849,11.0,6.0,464.0
2021-12-12-21:14:44.090847,12.0,7.0,463.0
2021-12-12-21:14:44.091844,12.0,7.0,463.0
2021-12-12-21:14:44.092841,12.0,7.0,463.0
2021-12-12-21:14:44.093838,15.0,24.0,463.0
2021-12-12-21:14:44.094836,12.0,41.0,462.0
2021-12-12-21:14:44.096830,12.0,41.0,462.0
2021-12-12-21:14:44.096830,9.0,29.0,461.0
2021-12-12-21:14:44.097828,3.0,2.0,462.0
2021-12-12-21:14:44.098823,4.0,0.0,461.0
2021-12-12-21:14:44.099821,4.0,0.0,461.0
2021-12-12-21:14:44.100818,4.0,0.0,461.0
2021-12-12-21:14:44.101815,4.0,0.0,461.0
2021-12-12-21:14:44.102812,7.0,23.0,461.0
2021-12-12-21:14:44.103810,10.0,55.0,461.0
2021-12-12-21:14:44.104807,1.0,69.0,461.0
2021-12-12-21:14:44.105804,1.0,69.0,461.0
2021-12-12-21:14:44.106802,8.0,35.0,460.0
2021-12-12-21:14:44.107799,11.0,3.0,460.0
2021-12-12-21:14:44.108797,11.0,3.0,460.0
2021-12-12-21:14:44.109794,11.0,3.0,460.0
2021-12-12-21:14:44.110791,12.0,18.0,460.0
2021-12-12-21:14:44.111789,15.0,32.0,460.0
2021-12-12-21:14:44.112788,11.0,55.0,459.0
2021-12-12-21:14:44.113783,11.0,55.0,459.0
2021-12-12-21:14:44.114781,11.0,55.0,459.0
2021-12-12-21:14:44.115778,4.0,14.0,459.0
2021-12-12-21:14:44.116775,0.0,2.0,459.0
2021-12-12-21:14:44.117773,0.0,2.0,459.0
2021-12-12-21:14:44.118770,0.0,5.0,458.0
2021-12-12-21:14:44.119767,6.0,76.0,458.0
2021-12-12-21:14:44.120765,1.0,84.0,458.0
2021-12-12-21:14:44.121762,1.0,84.0,458.0
2021-12-12-21:14:44.122759,2.0,64.0,458.0
2021-12-12-21:14:44.123757,5.0,39.0,458.0
2021-12-12-21:14:44.124753,11.0,3.0,458.0
2021-12-12-21:14:44.125751,11.0,3.0,458.0
2021-12-12-21:14:44.126748,13.0,18.0,457.0
2021-12-12-21:14:44.127747,12.0,43.0,457.0
2021-12-12-21:14:44.129740,13.0,56.0,457.0
2021-12-12-21:14:44.129740,13.0,56.0,457.0
2021-12-12-21:14:44.130737,3.0,11.0,456.0
2021-12-12-21:14:44.131735,3.0,11.0,456.0
2021-12-12-21:14:44.132733,3.0,11.0,456.0
2021-12-12-21:14:44.133730,3.0,11.0,456.0
2021-12-12-21:14:44.134727,3.0,11.0,456.0
2021-12-12-21:14:44.135724,7.0,57.0,456.0
2021-12-12-21:14:44.136722,5.0,74.0,456.0
2021-12-12-21:14:44.137719,5.0,74.0,456.0
2021-12-12-21:14:44.138717,5.0,74.0,456.0
2021-12-12-21:14:44.139714,3.0,49.0,456.0
2021-12-12-21:14:44.140711,13.0,3.0,456.0
2021-12-12-21:14:44.141708,13.0,3.0,456.0
2021-12-12-21:14:44.142706,13.0,3.0,456.0
2021-12-12-21:14:44.143739,13.0,3.0,456.0
2021-12-12-21:14:44.144701,9.0,27.0,455.0
2021-12-12-21:14:44.145732,13.0,56.0,455.0
2021-12-12-21:14:44.146729,13.0,56.0,455.0
2021-12-12-21:14:44.147726,10.0,50.0,455.0
2021-12-12-21:14:44.148727,5.0,16.0,455.0
2021-12-12-21:14:44.149720,2.0,7.0,455.0
2021-12-12-21:14:44.150685,2.0,7.0,455.0
2021-12-12-21:14:44.151716,6.0,53.0,454.0
2021-12-12-21:14:44.152713,7.0,77.0,454.0
2021-12-12-21:14:44.153711,7.0,77.0,454.0
2021-12-12-21:14:44.154674,7.0,77.0,454.0
2021-12-12-21:14:44.155704,4.0,35.0,454.0
2021-12-12-21:14:44.156702,9.0,6.0,454.0
2021-12-12-21:14:44.157699,9.0,6.0,454.0
2021-12-12-21:14:44.158664,9.0,6.0,454.0
2021-12-12-21:14:44.159694,9.0,19.0,454.0
2021-12-12-21:14:44.160697,9.0,33.0,453.0
2021-12-12-21:14:44.161655,9.0,33.0,453.0
2021-12-12-21:14:44.162653,13.0,51.0,453.0
2021-12-12-21:14:44.163684,3.0,31.0,453.0
2021-12-12-21:14:44.164686,2.0,10.0,453.0
2021-12-12-21:14:44.165678,2.0,10.0,453.0
2021-12-12-21:14:44.167672,2.0,10.0,453.0
2021-12-12-21:14:44.167672,8.0,69.0,452.0
2021-12-12-21:14:44.168637,1.0,79.0,452.0
2021-12-12-21:14:44.169675,1.0,79.0,452.0
2021-12-12-21:14:44.170667,1.0,79.0,452.0
2021-12-12-21:14:44.171663,1.0,79.0,452.0
2021-12-12-21:14:44.172626,8.0,14.0,451.0
2021-12-12-21:14:44.173623,11.0,6.0,451.0
2021-12-12-21:14:44.174657,11.0,6.0,451.0
2021-12-12-21:14:44.175655,11.0,6.0,451.0
2021-12-12-21:14:44.176650,9.0,35.0,451.0
2021-12-12-21:14:44.177647,8.0,53.0,450.0
2021-12-12-21:14:44.178643,8.0,53.0,450.0
2021-12-12-21:14:44.179640,8.0,53.0,450.0
2021-12-12-21:14:44.180643,3.0,16.0,451.0
2021-12-12-21:14:44.181637,0.0,15.0,451.0
2021-12-12-21:14:44.182634,0.0,15.0,451.0
2021-12-12-21:14:44.183631,0.0,15.0,451.0
2021-12-12-21:14:44.184629,9.0,49.0,450.0
2021-12-12-21:14:44.185626,5.0,72.0,450.0
2021-12-12-21:14:44.186625,5.0,72.0,450.0
2021-12-12-21:14:44.187622,5.0,72.0,450.0
2021-12-12-21:14:44.188583,6.0,57.0,450.0
2021-12-12-21:14:44.189614,12.0,1.0,449.0
2021-12-12-21:14:44.190577,12.0,1.0,449.0
2021-12-12-21:14:44.191575,12.0,1.0,449.0
2021-12-12-21:14:44.192605,12.0,24.0,449.0
2021-12-12-21:14:44.193606,11.0,55.0,449.0
2021-12-12-21:14:44.194567,11.0,55.0,449.0
2021-12-12-21:14:44.195564,11.0,55.0,449.0
2021-12-12-21:14:44.197559,9.0,54.0,450.0
2021-12-12-21:14:44.197559,9.0,36.0,449.0
2021-12-12-21:14:44.198556,7.0,4.0,449.0
2021-12-12-21:14:44.199553,7.0,4.0,449.0
2021-12-12-21:14:44.200551,8.0,47.0,449.0
2021-12-12-21:14:44.201583,8.0,70.0,449.0
2021-12-12-21:14:44.202580,8.0,70.0,449.0
2021-12-12-21:14:44.203577,8.0,70.0,449.0
2021-12-12-21:14:44.204574,7.0,28.0,449.0
2021-12-12-21:14:44.205571,12.0,4.0,449.0
2021-12-12-21:14:44.206570,12.0,4.0,449.0
2021-12-12-21:14:44.207566,12.0,4.0,449.0
2021-12-12-21:14:44.208576,13.0,4.0,449.0
2021-12-12-21:14:44.209562,14.0,36.0,449.0
2021-12-12-21:14:44.210525,14.0,36.0,449.0
2021-12-12-21:14:44.211522,14.0,36.0,449.0
2021-12-12-21:14:44.212553,12.0,38.0,449.0
2021-12-12-21:14:44.213550,1.0,15.0,449.0
2021-12-12-21:14:44.214549,1.0,15.0,449.0
2021-12-12-21:14:44.215545,1.0,15.0,449.0
2021-12-12-21:14:44.216542,1.0,15.0,449.0
2021-12-12-21:14:44.217541,2.0,4.0,449.0
2021-12-12-21:14:44.218537,7.0,57.0,448.0
2021-12-12-21:14:44.219534,7.0,57.0,448.0
2021-12-12-21:14:44.220531,7.0,57.0,448.0
2021-12-12-21:14:44.221529,2.0,58.0,449.0
2021-12-12-21:14:44.222527,5.0,18.0,448.0
2021-12-12-21:14:44.223524,5.0,18.0,448.0
2021-12-12-21:14:44.224522,5.0,18.0,448.0
2021-12-12-21:14:44.225484,16.0,23.0,449.0
2021-12-12-21:14:44.226518,15.0,32.0,449.0
2021-12-12-21:14:44.227513,15.0,32.0,449.0
2021-12-12-21:14:44.228510,15.0,32.0,449.0
2021-12-12-21:14:44.229507,7.0,34.0,449.0
2021-12-12-21:14:44.231501,7.0,34.0,449.0
2021-12-12-21:14:44.231501,6.0,25.0,449.0
2021-12-12-21:14:44.232466,6.0,25.0,449.0
2021-12-12-21:14:44.233498,0.0,5.0,448.0
2021-12-12-21:14:44.234500,9.0,56.0,449.0
2021-12-12-21:14:44.235492,9.0,56.0,449.0
2021-12-12-21:14:44.236455,9.0,56.0,449.0
2021-12-12-21:14:44.237487,6.0,69.0,449.0
2021-12-12-21:14:44.238485,6.0,27.0,449.0
2021-12-12-21:14:44.239447,6.0,27.0,449.0
2021-12-12-21:14:44.240480,6.0,27.0,449.0
2021-12-12-21:14:44.241476,17.0,9.0,449.0
2021-12-12-21:14:44.242473,19.0,28.0,449.0
2021-12-12-21:14:44.243470,19.0,28.0,449.0
2021-12-12-21:14:44.244472,19.0,28.0,449.0
2021-12-12-21:14:44.245465,16.0,57.0,449.0
2021-12-12-21:14:44.246463,3.0,27.0,449.0
2021-12-12-21:14:44.247459,3.0,27.0,449.0
2021-12-12-21:14:44.248457,3.0,27.0,449.0
2021-12-12-21:14:44.249454,3.0,27.0,449.0
2021-12-12-21:14:44.250452,0.0,2.0,449.0
2021-12-12-21:14:44.251449,6.0,51.0,449.0
2021-12-12-21:14:44.252451,6.0,51.0,449.0
2021-12-12-21:14:44.253443,6.0,51.0,449.0
2021-12-12-21:14:44.254442,0.0,70.0,449.0
2021-12-12-21:14:44.255438,4.0,37.0,449.0
2021-12-12-21:14:44.256435,4.0,37.0,449.0
2021-12-12-21:14:44.257433,4.0,37.0,449.0
2021-12-12-21:14:44.258397,15.0,7.0,449.0
2021-12-12-21:14:44.259427,14.0,29.0,449.0
2021-12-12-21:14:44.260425,14.0,29.0,449.0
2021-12-12-21:14:44.261422,14.0,29.0,449.0
2021-12-12-21:14:44.262421,8.0,41.0,449.0
2021-12-12-21:14:44.264416,7.0,29.0,449.0
2021-12-12-21:14:44.264416,7.0,29.0,449.0
2021-12-12-21:14:44.265412,4.0,19.0,449.0
2021-12-12-21:14:44.266409,8.0,38.0,449.0
2021-12-12-21:14:44.267406,8.0,38.0,449.0
2021-12-12-21:14:44.268370,8.0,38.0,449.0
2021-12-12-21:14:44.269367,8.0,38.0,449.0
2021-12-12-21:14:44.270399,3.0,61.0,449.0
2021-12-12-21:14:44.271395,5.0,40.0,449.0
2021-12-12-21:14:44.272391,5.0,40.0,449.0
2021-12-12-21:14:44.273357,5.0,40.0,449.0
2021-12-12-21:14:44.274387,11.0,1.0,449.0
2021-12-12-21:14:44.275365,19.0,19.0,449.0
2021-12-12-21:14:44.276387,19.0,19.0,449.0
2021-12-12-21:14:44.277349,19.0,19.0,449.0
2021-12-12-21:14:44.278381,14.0,47.0,448.0
2021-12-12-21:14:44.279374,5.0,25.0,449.0
2021-12-12-21:14:44.280371,5.0,25.0,449.0
2021-12-12-21:14:44.281369,5.0,25.0,449.0
2021-12-12-21:14:44.282367,8.0,21.0,449.0
2021-12-12-21:14:44.283363,8.0,21.0,449.0
2021-12-12-21:14:44.284360,8.0,21.0,449.0
2021-12-12-21:14:44.285358,8.0,21.0,449.0
2021-12-12-21:14:44.286357,8.0,21.0,449.0
2021-12-12-21:14:44.287353,0.0,64.0,449.0
2021-12-12-21:14:44.288350,5.0,46.0,449.0
2021-12-12-21:14:44.289314,5.0,46.0,449.0
2021-12-12-21:14:44.290345,5.0,46.0,449.0
2021-12-12-21:14:44.291342,12.0,15.0,449.0
2021-12-12-21:14:44.292339,8.0,24.0,449.0
2021-12-12-21:14:44.293337,8.0,24.0,449.0
2021-12-12-21:14:44.294335,8.0,24.0,449.0
2021-12-12-21:14:44.295333,11.0,49.0,449.0
2021-12-12-21:14:44.296333,6.0,34.0,449.0
2021-12-12-21:14:44.297326,6.0,34.0,449.0
2021-12-12-21:14:44.299321,6.0,34.0,449.0
2021-12-12-21:14:44.299321,6.0,7.0,449.0
2021-12-12-21:14:44.300284,6.0,7.0,449.0
2021-12-12-21:14:44.301316,3.0,13.0,449.0
2021-12-12-21:14:44.302314,3.0,13.0,449.0
2021-12-12-21:14:44.303310,10.0,72.0,449.0
2021-12-12-21:14:44.304307,4.0,54.0,449.0
2021-12-12-21:14:44.305306,4.0,54.0,449.0
2021-12-12-21:14:44.306304,4.0,54.0,449.0
2021-12-12-21:14:44.307300,9.0,9.0,449.0
2021-12-12-21:14:44.308269,12.0,21.0,449.0
2021-12-12-21:14:44.309260,12.0,21.0,449.0
2021-12-12-21:14:44.310258,12.0,21.0,449.0
2021-12-12-21:14:44.311288,8.0,49.0,449.0
2021-12-12-21:14:44.312286,5.0,43.0,449.0
2021-12-12-21:14:44.313284,5.0,43.0,449.0
2021-12-12-21:14:44.314247,5.0,43.0,449.0
2021-12-12-21:14:44.315278,3.0,2.0,449.0
2021-12-12-21:14:44.316275,3.0,2.0,449.0
2021-12-12-21:14:44.317273,3.0,2.0,449.0
2021-12-12-21:14:44.318271,3.0,2.0,449.0
2021-12-12-21:14:44.319267,8.0,67.0,449.0
2021-12-12-21:14:44.320268,3.0,54.0,449.0
2021-12-12-21:14:44.321262,3.0,54.0,449.0
2021-12-12-21:14:44.322259,3.0,54.0,449.0
2021-12-12-21:14:44.323256,3.0,54.0,449.0
2021-12-12-21:14:44.324254,10.0,11.0,449.0
2021-12-12-21:14:44.325217,10.0,11.0,449.0
2021-12-12-21:14:44.326250,10.0,11.0,449.0
2021-12-12-21:14:44.327251,10.0,11.0,449.0
2021-12-12-21:14:44.328243,16.0,26.0,449.0
2021-12-12-21:14:44.329241,6.0,48.0,449.0
2021-12-12-21:14:44.330238,6.0,48.0,449.0
2021-12-12-21:14:44.331235,6.0,48.0,449.0
2021-12-12-21:14:44.332199,5.0,18.0,449.0
2021-12-12-21:14:44.334225,0.0,2.0,449.0
2021-12-12-21:14:44.334225,0.0,2.0,449.0
2021-12-12-21:14:44.335223,0.0,2.0,449.0
2021-12-12-21:14:44.336220,5.0,64.0,449.0
2021-12-12-21:14:44.337220,5.0,64.0,449.0
2021-12-12-21:14:44.338216,5.0,64.0,449.0
2021-12-12-21:14:44.339200,5.0,64.0,449.0
2021-12-12-21:14:44.340178,9.0,5.0,449.0
2021-12-12-21:14:44.341207,12.0,14.0,449.0
2021-12-12-21:14:44.342184,12.0,14.0,449.0
2021-12-12-21:14:44.343203,12.0,14.0,449.0
2021-12-12-21:14:44.344201,12.0,25.0,449.0
2021-12-12-21:14:44.345199,9.0,56.0,449.0
2021-12-12-21:14:44.346196,9.0,56.0,449.0
2021-12-12-21:14:44.347158,9.0,56.0,449.0
2021-12-12-21:14:44.349186,5.0,44.0,449.0
2021-12-12-21:14:44.349186,2.0,4.0,449.0
2021-12-12-21:14:44.350183,2.0,4.0,449.0
2021-12-12-21:14:44.351149,2.0,4.0,449.0
2021-12-12-21:14:44.352177,7.0,72.0,449.0
2021-12-12-21:14:44.353177,1.0,74.0,449.0
2021-12-12-21:14:44.354173,1.0,74.0,449.0
2021-12-12-21:14:44.355170,1.0,74.0,449.0
2021-12-12-21:14:44.356166,9.0,11.0,448.0
2021-12-12-21:14:44.357164,9.0,5.0,448.0
2021-12-12-21:14:44.358161,9.0,5.0,448.0
2021-12-12-21:14:44.359160,9.0,5.0,448.0
2021-12-12-21:14:44.360156,11.0,21.0,449.0
2021-12-12-21:14:44.361155,13.0,45.0,449.0
2021-12-12-21:14:44.362151,13.0,45.0,449.0
2021-12-12-21:14:44.363148,13.0,45.0,449.0
2021-12-12-21:14:44.364113,8.0,39.0,449.0
2021-12-12-21:14:44.365110,0.0,6.0,449.0
2021-12-12-21:14:44.366107,0.0,6.0,449.0
2021-12-12-21:14:44.368102,0.0,6.0,449.0
2021-12-12-21:14:44.368102,12.0,50.0,448.0
2021-12-12-21:14:44.369100,6.0,71.0,449.0
2021-12-12-21:14:44.370097,6.0,71.0,449.0
2021-12-12-21:14:44.371094,6.0,71.0,449.0
2021-12-12-21:14:44.372092,6.0,71.0,449.0
2021-12-12-21:14:44.373089,8.0,21.0,449.0
2021-12-12-21:14:44.374086,14.0,2.0,449.0
2021-12-12-21:14:44.375083,14.0,2.0,449.0
2021-12-12-21:14:44.376081,14.0,2.0,449.0
2021-12-12-21:14:44.377078,16.0,38.0,449.0
2021-12-12-21:14:44.378075,14.0,53.0,449.0
2021-12-12-21:14:44.379072,14.0,53.0,449.0
2021-12-12-21:14:44.380071,14.0,53.0,449.0
2021-12-12-21:14:44.381067,7.0,19.0,449.0
2021-12-12-21:14:44.382064,6.0,1.0,449.0
2021-12-12-21:14:44.383062,6.0,1.0,449.0
2021-12-12-21:14:44.384059,6.0,1.0,449.0
2021-12-12-21:14:44.385057,1.0,70.0,449.0
2021-12-12-21:14:44.386054,1.0,61.0,449.0
2021-12-12-21:14:44.387051,1.0,61.0,449.0
2021-12-12-21:14:44.388049,1.0,61.0,449.0
2021-12-12-21:14:44.389046,11.0,0.0,449.0
2021-12-12-21:14:44.390043,13.0,8.0,449.0
2021-12-12-21:14:44.391040,13.0,8.0,449.0
2021-12-12-21:14:44.392038,13.0,8.0,449.0
2021-12-12-21:14:44.393036,16.0,44.0,449.0
2021-12-12-21:14:44.394033,14.0,48.0,449.0
2021-12-12-21:14:44.395030,14.0,48.0,449.0
2021-12-12-21:14:44.396027,14.0,48.0,449.0
2021-12-12-21:14:44.397025,2.0,5.0,449.0
2021-12-12-21:14:44.398022,2.0,5.0,449.0
2021-12-12-21:14:44.399019,2.0,5.0,449.0
2021-12-12-21:14:44.400017,2.0,5.0,449.0
2021-12-12-21:14:44.401014,2.0,8.0,449.0
2021-12-12-21:14:44.403009,6.0,73.0,449.0
2021-12-12-21:14:44.403009,2.0,72.0,449.0
2021-12-12-21:14:44.404006,2.0,72.0,449.0
2021-12-12-21:14:44.405003,2.0,72.0,449.0
2021-12-12-21:14:44.406001,10.0,6.0,449.0
2021-12-12-21:14:44.406998,10.0,15.0,449.0
2021-12-12-21:14:44.407995,10.0,15.0,449.0
2021-12-12-21:14:44.408993,10.0,15.0,449.0
2021-12-12-21:14:44.409990,7.0,28.0,449.0
2021-12-12-21:14:44.410988,11.0,52.0,449.0
2021-12-12-21:14:44.411985,11.0,52.0,449.0
2021-12-12-21:14:44.412982,11.0,52.0,449.0
2021-12-12-21:14:44.413979,5.0,11.0,449.0
2021-12-12-21:14:44.414976,1.0,1.0,449.0
2021-12-12-21:14:44.415974,1.0,1.0,449.0
2021-12-12-21:14:44.416971,1.0,1.0,449.0
2021-12-12-21:14:44.417968,12.0,50.0,449.0
2021-12-12-21:14:44.418966,8.0,66.0,449.0
2021-12-12-21:14:44.419964,8.0,66.0,449.0
2021-12-12-21:14:44.420961,8.0,66.0,449.0
2021-12-12-21:14:44.421958,2.0,41.0,449.0
2021-12-12-21:14:44.422955,10.0,1.0,449.0
2021-12-12-21:14:44.423952,10.0,1.0,449.0
2021-12-12-21:14:44.424950,10.0,1.0,449.0
2021-12-12-21:14:44.425947,16.0,9.0,449.0
2021-12-12-21:14:44.426945,13.0,52.0,449.0
2021-12-12-21:14:44.427942,13.0,52.0,449.0
2021-12-12-21:14:44.428939,13.0,52.0,449.0
2021-12-12-21:14:44.429937,7.0,10.0,449.0
2021-12-12-21:14:44.430934,8.0,7.0,449.0
2021-12-12-21:14:44.431931,8.0,7.0,449.0
2021-12-12-21:14:44.432928,8.0,7.0,449.0
2021-12-12-21:14:44.433926,9.0,56.0,449.0
2021-12-12-21:14:44.435921,4.0,71.0,449.0
2021-12-12-21:14:44.435921,4.0,71.0,449.0
2021-12-12-21:14:44.436918,4.0,71.0,449.0
2021-12-12-21:14:44.437951,10.0,6.0,449.0
2021-12-12-21:14:44.438946,10.0,6.0,449.0
2021-12-12-21:14:44.439944,10.0,6.0,449.0
2021-12-12-21:14:44.440942,10.0,6.0,449.0
2021-12-12-21:14:44.441938,10.0,6.0,449.0
2021-12-12-21:14:44.442902,13.0,32.0,449.0
2021-12-12-21:14:44.443932,12.0,51.0,449.0
2021-12-12-21:14:44.444930,12.0,51.0,449.0
2021-12-12-21:14:44.445929,12.0,51.0,449.0
2021-12-12-21:14:44.446924,4.0,25.0,449.0
2021-12-12-21:14:44.447922,2.0,18.0,449.0
2021-12-12-21:14:44.448921,2.0,18.0,449.0
2021-12-12-21:14:44.449912,2.0,18.0,449.0
2021-12-12-21:14:44.450881,8.0,47.0,449.0
2021-12-12-21:14:44.451911,10.0,70.0,449.0
2021-12-12-21:14:44.452910,10.0,70.0,449.0
2021-12-12-21:14:44.453902,10.0,70.0,449.0
2021-12-12-21:14:44.454871,3.0,79.0,449.0
2021-12-12-21:14:44.455883,4.0,40.0,449.0
2021-12-12-21:14:44.456866,8.0,12.0,449.0
2021-12-12-21:14:44.457897,8.0,12.0,449.0
2021-12-12-21:14:44.458860,13.0,19.0,449.0
2021-12-12-21:14:44.459857,15.0,45.0,449.0
2021-12-12-21:14:44.460854,15.0,45.0,449.0
2021-12-12-21:14:44.461852,15.0,45.0,449.0
2021-12-12-21:14:44.462848,6.0,29.0,449.0
2021-12-12-21:14:44.463846,2.0,12.0,448.0
2021-12-12-21:14:44.464843,2.0,12.0,448.0
2021-12-12-21:14:44.465840,2.0,12.0,448.0
2021-12-12-21:14:44.466838,7.0,33.0,449.0
2021-12-12-21:14:44.468832,5.0,62.0,449.0
2021-12-12-21:14:44.468832,5.0,62.0,449.0
2021-12-12-21:14:44.469830,5.0,62.0,449.0
2021-12-12-21:14:44.470827,5.0,41.0,449.0
2021-12-12-21:14:44.471824,7.0,19.0,449.0
2021-12-12-21:14:44.472822,7.0,19.0,449.0
2021-12-12-21:14:44.473819,7.0,19.0,449.0
2021-12-12-21:14:44.474817,7.0,19.0,449.0
2021-12-12-21:14:44.475814,8.0,13.0,449.0
2021-12-12-21:14:44.476811,14.0,35.0,449.0
2021-12-12-21:14:44.477808,14.0,35.0,449.0
2021-12-12-21:14:44.478806,14.0,35.0,449.0
2021-12-12-21:14:44.479803,4.0,38.0,449.0
2021-12-12-21:14:44.480800,4.0,25.0,449.0
2021-12-12-21:14:44.481798,4.0,25.0,449.0
2021-12-12-21:14:44.482795,4.0,25.0,449.0
2021-12-12-21:14:44.483792,5.0,13.0,449.0
2021-12-12-21:14:44.484790,8.0,54.0,449.0
2021-12-12-21:14:44.485787,8.0,54.0,449.0
2021-12-12-21:14:44.486784,8.0,54.0,449.0
2021-12-12-21:14:44.487782,2.0,51.0,449.0
2021-12-12-21:14:44.488779,5.0,22.0,449.0
2021-12-12-21:14:44.489776,5.0,22.0,449.0
2021-12-12-21:14:44.490774,5.0,22.0,449.0
2021-12-12-21:14:44.491771,7.0,26.0,449.0
2021-12-12-21:14:44.492768,12.0,32.0,448.0
2021-12-12-21:14:44.493766,12.0,32.0,448.0
2021-12-12-21:14:44.494763,12.0,32.0,448.0
2021-12-12-21:14:44.495761,7.0,38.0,449.0
2021-12-12-21:14:44.496758,6.0,25.0,449.0
2021-12-12-21:14:44.497755,6.0,25.0,449.0
2021-12-12-21:14:44.498752,6.0,25.0,449.0
2021-12-12-21:14:44.499750,1.0,10.0,448.0
2021-12-12-21:14:44.500747,6.0,44.0,449.0
2021-12-12-21:14:44.501745,6.0,44.0,449.0
2021-12-12-21:14:44.503739,6.0,44.0,449.0
2021-12-12-21:14:44.503739,4.0,76.0,449.0
2021-12-12-21:14:44.504736,7.0,39.0,449.0
2021-12-12-21:14:44.505734,7.0,39.0,449.0
2021-12-12-21:14:44.506731,7.0,39.0,449.0
2021-12-12-21:14:44.507736,12.0,6.0,449.0
2021-12-12-21:14:44.508764,11.0,17.0,449.0
2021-12-12-21:14:44.509759,12.0,34.0,449.0
2021-12-12-21:14:44.510755,12.0,34.0,449.0
2021-12-12-21:14:44.511752,12.0,34.0,449.0
2021-12-12-21:14:44.512750,6.0,40.0,449.0
2021-12-12-21:14:44.513747,6.0,40.0,449.0
2021-12-12-21:14:44.514747,6.0,40.0,449.0
2021-12-12-21:14:44.515746,6.0,40.0,449.0
2021-12-12-21:14:44.516739,7.0,35.0,449.0
2021-12-12-21:14:44.517737,7.0,35.0,449.0
2021-12-12-21:14:44.518734,7.0,35.0,449.0
2021-12-12-21:14:44.519731,7.0,35.0,449.0
2021-12-12-21:14:44.520728,4.0,60.0,449.0
2021-12-12-21:14:44.521726,4.0,60.0,449.0
2021-12-12-21:14:44.522689,4.0,60.0,449.0
2021-12-12-21:14:44.523725,4.0,60.0,449.0
2021-12-12-21:14:44.524716,11.0,13.0,449.0
2021-12-12-21:14:44.525716,6.0,38.0,449.0
2021-12-12-21:14:44.526713,6.0,38.0,449.0
2021-12-12-21:14:44.527713,6.0,38.0,449.0
2021-12-12-21:14:44.528707,6.0,63.0,449.0
2021-12-12-21:14:44.529712,2.0,32.0,449.0
2021-12-12-21:14:44.530668,2.0,32.0,449.0
2021-12-12-21:14:44.531665,2.0,32.0,449.0
2021-12-12-21:14:44.532662,1.0,19.0,449.0
2021-12-12-21:14:44.533660,4.0,25.0,449.0
2021-12-12-21:14:44.534657,4.0,25.0,449.0
2021-12-12-21:14:44.535654,4.0,25.0,449.0
2021-12-12-21:14:44.536652,3.0,59.0,449.0
2021-12-12-21:14:44.537649,4.0,80.0,449.0
2021-12-12-21:14:44.539645,1.0,71.0,449.0
2021-12-12-21:14:44.539645,5.0,53.0,449.0
2021-12-12-21:14:44.540641,9.0,29.0,449.0
2021-12-12-21:14:44.541638,12.0,3.0,448.0
2021-12-12-21:14:44.542635,14.0,19.0,449.0
2021-12-12-21:14:44.543632,14.0,19.0,449.0
2021-12-12-21:14:44.544665,19.0,45.0,449.0
2021-12-12-21:14:44.545661,10.0,46.0,449.0
2021-12-12-21:14:44.546659,10.0,46.0,449.0
2021-12-12-21:14:44.547661,10.0,46.0,449.0
2021-12-12-21:14:44.548653,1.0,18.0,449.0
2021-12-12-21:14:44.549652,1.0,9.0,449.0
2021-12-12-21:14:44.550649,1.0,9.0,449.0
2021-12-12-21:14:44.551648,1.0,9.0,449.0
2021-12-12-21:14:44.552646,4.0,57.0,450.0
2021-12-12-21:14:44.553641,4.0,57.0,450.0
2021-12-12-21:14:44.554639,4.0,57.0,450.0
2021-12-12-21:14:44.555638,4.0,57.0,450.0
2021-12-12-21:14:44.556633,4.0,57.0,450.0
2021-12-12-21:14:44.557632,6.0,10.0,449.0
2021-12-12-21:14:44.558593,8.0,20.0,450.0
2021-12-12-21:14:44.559590,8.0,20.0,450.0
2021-12-12-21:14:44.560624,8.0,20.0,450.0
2021-12-12-21:14:44.561619,14.0,44.0,450.0
2021-12-12-21:14:44.562618,11.0,35.0,450.0
2021-12-12-21:14:44.563618,11.0,35.0,450.0
2021-12-12-21:14:44.564612,11.0,35.0,450.0
2021-12-12-21:14:44.565610,6.0,21.0,450.0
2021-12-12-21:14:44.566605,1.0,5.0,450.0
2021-12-12-21:14:44.567605,1.0,5.0,450.0
2021-12-12-21:14:44.568603,1.0,5.0,450.0
2021-12-12-21:14:44.569563,0.0,67.0,450.0
2021-12-12-21:14:44.570595,0.0,67.0,450.0
2021-12-12-21:14:44.571592,0.0,67.0,450.0
2021-12-12-21:14:44.573553,0.0,67.0,450.0
2021-12-12-21:14:44.574550,8.0,15.0,451.0
2021-12-12-21:14:44.574550,8.0,15.0,451.0
2021-12-12-21:14:44.575548,8.0,15.0,451.0
2021-12-12-21:14:44.576546,8.0,15.0,451.0
2021-12-12-21:14:44.577578,13.0,36.0,451.0
2021-12-12-21:14:44.578561,11.0,51.0,451.0
2021-12-12-21:14:44.579569,11.0,51.0,451.0
2021-12-12-21:14:44.580535,11.0,51.0,451.0
2021-12-12-21:14:44.581567,4.0,11.0,451.0
2021-12-12-21:14:44.582563,2.0,1.0,451.0
2021-12-12-21:14:44.583560,2.0,1.0,451.0
2021-12-12-21:14:44.584555,2.0,1.0,451.0
2021-12-12-21:14:44.585521,7.0,78.0,452.0
2021-12-12-21:14:44.586552,0.0,71.0,452.0
2021-12-12-21:14:44.587548,0.0,71.0,452.0
2021-12-12-21:14:44.588552,0.0,71.0,452.0
2021-12-12-21:14:44.589545,0.0,71.0,452.0
2021-12-12-21:14:44.590542,8.0,7.0,452.0
2021-12-12-21:14:44.591506,8.0,7.0,452.0
2021-12-12-21:14:44.592541,8.0,7.0,452.0
2021-12-12-21:14:44.593508,8.0,7.0,452.0
2021-12-12-21:14:44.594529,18.0,33.0,452.0
2021-12-12-21:14:44.595534,10.0,55.0,452.0
2021-12-12-21:14:44.596497,10.0,55.0,452.0
2021-12-12-21:14:44.596497,10.0,55.0,452.0
2021-12-12-21:14:44.597490,10.0,55.0,452.0
2021-12-12-21:14:44.598521,4.0,45.0,453.0
2021-12-12-21:14:44.599518,1.0,11.0,452.0
2021-12-12-21:14:44.600516,1.0,11.0,452.0
2021-12-12-21:14:44.601512,1.0,11.0,452.0
2021-12-12-21:14:44.602510,2.0,81.0,453.0
2021-12-12-21:14:44.603512,2.0,81.0,453.0
2021-12-12-21:14:44.605503,2.0,81.0,453.0
2021-12-12-21:14:44.605503,5.0,41.0,453.0
2021-12-12-21:14:44.606500,5.0,41.0,453.0
2021-12-12-21:14:44.607497,11.0,6.0,453.0
2021-12-12-21:14:44.608460,12.0,19.0,453.0
2021-12-12-21:14:44.609493,12.0,19.0,453.0
2021-12-12-21:14:44.610489,10.0,42.0,453.0
2021-12-12-21:14:44.611484,10.0,42.0,453.0
2021-12-12-21:14:44.612482,10.0,42.0,453.0
2021-12-12-21:14:44.613447,10.0,42.0,453.0
2021-12-12-21:14:44.614477,1.0,28.0,453.0
2021-12-12-21:14:44.615474,2.0,5.0,453.0
2021-12-12-21:14:44.616473,2.0,5.0,453.0
2021-12-12-21:14:44.617435,2.0,5.0,453.0
2021-12-12-21:14:44.618467,2.0,65.0,453.0
2021-12-12-21:14:44.619463,0.0,67.0,454.0
2021-12-12-21:14:44.620462,0.0,67.0,454.0
2021-12-12-21:14:44.621425,0.0,67.0,454.0
2021-12-12-21:14:44.622455,11.0,5.0,454.0
2021-12-12-21:14:44.623453,11.0,5.0,454.0
2021-12-12-21:14:44.624451,11.0,5.0,454.0
2021-12-12-21:14:44.625415,11.0,5.0,454.0
2021-12-12-21:14:44.626448,18.0,31.0,454.0
2021-12-12-21:14:44.627446,11.0,55.0,454.0
2021-12-12-21:14:44.628439,11.0,55.0,454.0
2021-12-12-21:14:44.629439,11.0,55.0,454.0
2021-12-12-21:14:44.630434,11.0,55.0,454.0
2021-12-12-21:14:44.631398,0.0,8.0,453.0
2021-12-12-21:14:44.632431,0.0,8.0,453.0
2021-12-12-21:14:44.633393,0.0,8.0,453.0
2021-12-12-21:14:44.634423,0.0,8.0,453.0
2021-12-12-21:14:44.635388,5.0,54.0,454.0
2021-12-12-21:14:44.636385,1.0,66.0,453.0
2021-12-12-21:14:44.637417,1.0,66.0,453.0
2021-12-12-21:14:44.639377,1.0,66.0,453.0
2021-12-12-21:14:44.639377,12.0,1.0,454.0
2021-12-12-21:14:44.640409,12.0,1.0,454.0
2021-12-12-21:14:44.641404,12.0,1.0,454.0
2021-12-12-21:14:44.642402,12.0,1.0,454.0
2021-12-12-21:14:44.643405,14.0,41.0,454.0
2021-12-12-21:14:44.644396,10.0,52.0,454.0
2021-12-12-21:14:44.645396,10.0,52.0,454.0
2021-12-12-21:14:44.646391,10.0,52.0,454.0
2021-12-12-21:14:44.647390,7.0,33.0,454.0
2021-12-12-21:14:44.648392,2.0,9.0,454.0
2021-12-12-21:14:44.649383,2.0,9.0,454.0
2021-12-12-21:14:44.650348,2.0,9.0,454.0
2021-12-12-21:14:44.651377,9.0,62.0,454.0
2021-12-12-21:14:44.652375,6.0,70.0,454.0
2021-12-12-21:14:44.653375,6.0,70.0,454.0
2021-12-12-21:14:44.654337,6.0,70.0,454.0
2021-12-12-21:14:44.655367,9.0,20.0,454.0
2021-12-12-21:14:44.656367,13.0,4.0,454.0
2021-12-12-21:14:44.657362,13.0,4.0,454.0
2021-12-12-21:14:44.658327,13.0,4.0,454.0
2021-12-12-21:14:44.659357,12.0,39.0,454.0
2021-12-12-21:14:44.660321,8.0,57.0,454.0
2021-12-12-21:14:44.661353,8.0,57.0,454.0
2021-12-12-21:14:44.662349,8.0,57.0,454.0
2021-12-12-21:14:44.663352,6.0,16.0,454.0
2021-12-12-21:14:44.664345,0.0,3.0,454.0
2021-12-12-21:14:44.665341,0.0,3.0,454.0
2021-12-12-21:14:44.666339,0.0,3.0,454.0
2021-12-12-21:14:44.667342,1.0,1.0,454.0
2021-12-12-21:14:44.668333,7.0,77.0,454.0
2021-12-12-21:14:44.669332,7.0,77.0,454.0
2021-12-12-21:14:44.671330,7.0,77.0,454.0
2021-12-12-21:14:44.672327,10.0,1.0,454.0
2021-12-12-21:14:44.672327,10.0,1.0,454.0
2021-12-12-21:14:44.673320,10.0,1.0,454.0
2021-12-12-21:14:44.674317,10.0,1.0,454.0
2021-12-12-21:14:44.675282,10.0,1.0,454.0
2021-12-12-21:14:44.676294,13.0,29.0,454.0
2021-12-12-21:14:44.677310,14.0,55.0,454.0
2021-12-12-21:14:44.678307,14.0,55.0,454.0
2021-12-12-21:14:44.679304,14.0,55.0,454.0
2021-12-12-21:14:44.680306,4.0,23.0,454.0
2021-12-12-21:14:44.681299,0.0,13.0,454.0
2021-12-12-21:14:44.682295,0.0,13.0,454.0
2021-12-12-21:14:44.683293,0.0,13.0,454.0
2021-12-12-21:14:44.684291,5.0,52.0,454.0
2021-12-12-21:14:44.685289,8.0,73.0,453.0
2021-12-12-21:14:44.686287,8.0,73.0,453.0
2021-12-12-21:14:44.687282,8.0,73.0,453.0
2021-12-12-21:14:44.688281,8.0,3.0,454.0
2021-12-12-21:14:44.689244,8.0,3.0,454.0
2021-12-12-21:14:44.690275,8.0,3.0,454.0
2021-12-12-21:14:44.691239,8.0,3.0,454.0
2021-12-12-21:14:44.692272,10.0,24.0,454.0
2021-12-12-21:14:44.693268,13.0,48.0,454.0
2021-12-12-21:14:44.694264,13.0,48.0,454.0
2021-12-12-21:14:44.695228,13.0,48.0,454.0
2021-12-12-21:14:44.696259,7.0,27.0,454.0
2021-12-12-21:14:44.697257,5.0,10.0,454.0
2021-12-12-21:14:44.698255,5.0,10.0,454.0
2021-12-12-21:14:44.699254,5.0,10.0,454.0
2021-12-12-21:14:44.700248,7.0,26.0,454.0
2021-12-12-21:14:44.701247,6.0,59.0,454.0
2021-12-12-21:14:44.702242,6.0,59.0,454.0
2021-12-12-21:14:44.703240,6.0,59.0,454.0
2021-12-12-21:14:44.704239,4.0,88.0,454.0
2021-12-12-21:14:44.706232,15.0,15.0,454.0
2021-12-12-21:14:44.706232,15.0,15.0,454.0
2021-12-12-21:14:44.707228,15.0,15.0,454.0
2021-12-12-21:14:44.708225,15.0,15.0,454.0
2021-12-12-21:14:44.709225,10.0,22.0,454.0
2021-12-12-21:14:44.710220,10.0,38.0,454.0
2021-12-12-21:14:44.711218,10.0,38.0,454.0
2021-12-12-21:14:44.712217,10.0,38.0,454.0
2021-12-12-21:14:44.713180,8.0,33.0,454.0
2021-12-12-21:14:44.714177,6.0,12.0,454.0
2021-12-12-21:14:44.715206,6.0,12.0,454.0
2021-12-12-21:14:44.716203,6.0,12.0,454.0
2021-12-12-21:14:44.717204,3.0,4.0,454.0
2021-12-12-21:14:44.718198,6.0,76.0,454.0
2021-12-12-21:14:44.719196,6.0,76.0,454.0
2021-12-12-21:14:44.720195,6.0,76.0,454.0
2021-12-12-21:14:44.721194,1.0,44.0,454.0
2021-12-12-21:14:44.722189,0.0,10.0,454.0
2021-12-12-21:14:44.723184,0.0,10.0,454.0
2021-12-12-21:14:44.724182,0.0,10.0,454.0
2021-12-12-21:14:44.725182,11.0,18.0,454.0
2021-12-12-21:14:44.726177,12.0,30.0,454.0
2021-12-12-21:14:44.727174,12.0,30.0,454.0
2021-12-12-21:14:44.728140,12.0,30.0,454.0
2021-12-12-21:14:44.729169,9.0,29.0,454.0
2021-12-12-21:14:44.730168,7.0,26.0,454.0
2021-12-12-21:14:44.731163,7.0,26.0,454.0
2021-12-12-21:14:44.732129,7.0,26.0,454.0
2021-12-12-21:14:44.733161,2.0,12.0,454.0
2021-12-12-21:14:44.734155,6.0,53.0,454.0
2021-12-12-21:14:44.735153,6.0,53.0,454.0
2021-12-12-21:14:44.736124,6.0,53.0,454.0
2021-12-12-21:14:44.737148,2.0,62.0,454.0
2021-12-12-21:14:44.738145,6.0,38.0,454.0
2021-12-12-21:14:44.739142,6.0,38.0,454.0
2021-12-12-21:14:44.741144,6.0,38.0,454.0
2021-12-12-21:14:44.741144,10.0,14.0,453.0
2021-12-12-21:14:44.742102,10.0,33.0,454.0
2021-12-12-21:14:44.743132,10.0,33.0,454.0
2021-12-12-21:14:44.744131,10.0,33.0,454.0
2021-12-12-21:14:44.745144,10.0,33.0,454.0
2021-12-12-21:14:44.746124,7.0,29.0,454.0
2021-12-12-21:14:44.747125,7.0,29.0,454.0
2021-12-12-21:14:44.748119,7.0,29.0,454.0
2021-12-12-21:14:44.749119,7.0,29.0,454.0
2021-12-12-21:14:44.750113,3.0,3.0,454.0
2021-12-12-21:14:44.751110,3.0,43.0,454.0
2021-12-12-21:14:44.752110,3.0,43.0,454.0
2021-12-12-21:14:44.753105,3.0,43.0,454.0
2021-12-12-21:14:44.754103,1.0,76.0,454.0
2021-12-12-21:14:44.755099,5.0,44.0,454.0
2021-12-12-21:14:44.756065,5.0,44.0,454.0
2021-12-12-21:14:44.757097,5.0,44.0,454.0
2021-12-12-21:14:44.758091,11.0,2.0,454.0
2021-12-12-21:14:44.759057,11.0,27.0,454.0
2021-12-12-21:14:44.760088,11.0,27.0,454.0
2021-12-12-21:14:44.761083,11.0,27.0,454.0
2021-12-12-21:14:44.762081,10.0,48.0,454.0
2021-12-12-21:14:44.763083,5.0,39.0,454.0
2021-12-12-21:14:44.764075,5.0,39.0,454.0
2021-12-12-21:14:44.765041,5.0,39.0,454.0
2021-12-12-21:14:44.766070,4.0,6.0,454.0
2021-12-12-21:14:44.767067,2.0,22.0,454.0
2021-12-12-21:14:44.768067,2.0,22.0,454.0
2021-12-12-21:14:44.769031,2.0,22.0,454.0
2021-12-12-21:14:44.770059,1.0,80.0,454.0
2021-12-12-21:14:44.771056,4.0,57.0,454.0
2021-12-12-21:14:44.772059,4.0,57.0,454.0
2021-12-12-21:14:44.773020,4.0,57.0,454.0
2021-12-12-21:14:44.775046,8.0,14.0,454.0
2021-12-12-21:14:44.775046,13.0,23.0,454.0
2021-12-12-21:14:44.776014,13.0,23.0,454.0
2021-12-12-21:14:44.777044,13.0,23.0,454.0
2021-12-12-21:14:44.778040,11.0,51.0,454.0
2021-12-12-21:14:44.779037,12.0,36.0,454.0
2021-12-12-21:14:44.780005,12.0,36.0,454.0
2021-12-12-21:14:44.781049,12.0,36.0,454.0
2021-12-12-21:14:44.781996,12.0,36.0,454.0
2021-12-12-21:14:44.782992,2.0,17.0,454.0
2021-12-12-21:14:44.783990,4.0,9.0,454.0
2021-12-12-21:14:44.784988,4.0,9.0,454.0
2021-12-12-21:14:44.786019,4.0,9.0,454.0
2021-12-12-21:14:44.787016,0.0,76.0,454.0
2021-12-12-21:14:44.788005,2.0,53.0,454.0
2021-12-12-21:14:44.788976,2.0,53.0,454.0
2021-12-12-21:14:44.790012,4.0,27.0,454.0
2021-12-12-21:14:44.791010,12.0,23.0,454.0
2021-12-12-21:14:44.791969,12.0,23.0,454.0
2021-12-12-21:14:44.793001,12.0,23.0,454.0
2021-12-12-21:14:44.793997,12.0,23.0,454.0
2021-12-12-21:14:44.794960,9.0,49.0,454.0
2021-12-12-21:14:44.795992,9.0,34.0,454.0
2021-12-12-21:14:44.796990,9.0,34.0,454.0
2021-12-12-21:14:44.797987,9.0,34.0,454.0
2021-12-12-21:14:44.798950,1.0,3.0,454.0
2021-12-12-21:14:44.799982,3.0,2.0,454.0
2021-12-12-21:14:44.800979,3.0,2.0,454.0
2021-12-12-21:14:44.801942,3.0,2.0,454.0
2021-12-12-21:14:44.802940,9.0,57.0,454.0
2021-12-12-21:14:44.803970,3.0,55.0,454.0
2021-12-12-21:14:44.804971,3.0,55.0,454.0
2021-12-12-21:14:44.805932,3.0,55.0,454.0
2021-12-12-21:14:44.807926,11.0,0.0,454.0
2021-12-12-21:14:44.808942,12.0,7.0,454.0
2021-12-12-21:14:44.808942,12.0,7.0,454.0
2021-12-12-21:14:44.809936,12.0,7.0,454.0
2021-12-12-21:14:44.810952,11.0,58.0,454.0
2021-12-12-21:14:44.811949,6.0,48.0,454.0
2021-12-12-21:14:44.812940,6.0,48.0,454.0
2021-12-12-21:14:44.813944,6.0,48.0,454.0
2021-12-12-21:14:44.814941,6.0,18.0,454.0
2021-12-12-21:14:44.815939,5.0,11.0,454.0
2021-12-12-21:14:44.816936,5.0,11.0,454.0
2021-12-12-21:14:44.817933,5.0,11.0,454.0
2021-12-12-21:14:44.818930,3.0,31.0,454.0
2021-12-12-21:14:44.819927,2.0,72.0,453.0
2021-12-12-21:14:44.820919,2.0,72.0,453.0
2021-12-12-21:14:44.821893,2.0,72.0,453.0
2021-12-12-21:14:44.822927,1.0,47.0,454.0
2021-12-12-21:14:44.823897,7.0,17.0,453.0
2021-12-12-21:14:44.824880,7.0,17.0,453.0
2021-12-12-21:14:44.825877,7.0,17.0,453.0
2021-12-12-21:14:44.826909,7.0,17.0,453.0
2021-12-12-21:14:44.827873,11.0,30.0,454.0
2021-12-12-21:14:44.828905,12.0,52.0,454.0
2021-12-12-21:14:44.829901,12.0,52.0,454.0
2021-12-12-21:14:44.830898,12.0,52.0,454.0
2021-12-12-21:14:44.831896,2.0,14.0,454.0
2021-12-12-21:14:44.832893,3.0,5.0,454.0
2021-12-12-21:14:44.833891,3.0,5.0,454.0
2021-12-12-21:14:44.834892,3.0,5.0,454.0
2021-12-12-21:14:44.835852,6.0,69.0,453.0
2021-12-12-21:14:44.836884,1.0,52.0,454.0
2021-12-12-21:14:44.837884,1.0,52.0,454.0
2021-12-12-21:14:44.838877,1.0,52.0,454.0
2021-12-12-21:14:44.839875,12.0,13.0,454.0
2021-12-12-21:14:44.840871,14.0,11.0,454.0
2021-12-12-21:14:44.842833,14.0,11.0,454.0
2021-12-12-21:14:44.842833,17.0,33.0,454.0
2021-12-12-21:14:44.843863,12.0,38.0,454.0
2021-12-12-21:14:44.844862,12.0,38.0,454.0
2021-12-12-21:14:44.845858,12.0,38.0,454.0
2021-12-12-21:14:44.846822,12.0,38.0,454.0
2021-12-12-21:14:44.847854,1.0,25.0,454.0
2021-12-12-21:14:44.848851,2.0,6.0,454.0
2021-12-12-21:14:44.849848,2.0,6.0,454.0
2021-12-12-21:14:44.850811,2.0,6.0,454.0
2021-12-12-21:14:44.851843,5.0,79.0,454.0
2021-12-12-21:14:44.852841,1.0,65.0,454.0
2021-12-12-21:14:44.853837,1.0,65.0,454.0
2021-12-12-21:14:44.854835,1.0,65.0,454.0
2021-12-12-21:14:44.855837,8.0,0.0,454.0
2021-12-12-21:14:44.856830,12.0,10.0,454.0
2021-12-12-21:14:44.857826,12.0,10.0,454.0
2021-12-12-21:14:44.858790,12.0,10.0,454.0
2021-12-12-21:14:44.859817,12.0,10.0,454.0
2021-12-12-21:14:44.860820,16.0,38.0,454.0
2021-12-12-21:14:44.861816,10.0,48.0,454.0
2021-12-12-21:14:44.862813,10.0,48.0,454.0
2021-12-12-21:14:44.863811,10.0,48.0,454.0
2021-12-12-21:14:44.864798,2.0,18.0,454.0
2021-12-12-21:14:44.865805,1.0,2.0,453.0
2021-12-12-21:14:44.866802,1.0,2.0,453.0
2021-12-12-21:14:44.867802,1.0,2.0,453.0
2021-12-12-21:14:44.868798,4.0,83.0,454.0
2021-12-12-21:14:44.869794,0.0,73.0,454.0
2021-12-12-21:14:44.870761,0.0,73.0,454.0
2021-12-12-21:14:44.871794,0.0,73.0,454.0
2021-12-12-21:14:44.872786,6.0,26.0,454.0
2021-12-12-21:14:44.873784,8.0,10.0,454.0
2021-12-12-21:14:44.874781,8.0,10.0,454.0
2021-12-12-21:14:44.876777,8.0,10.0,454.0
2021-12-12-21:14:44.876777,10.0,35.0,454.0
2021-12-12-21:14:44.877774,12.0,56.0,454.0
2021-12-12-21:14:44.878771,12.0,56.0,454.0
2021-12-12-21:14:44.879734,12.0,56.0,454.0
2021-12-12-21:14:44.880765,6.0,24.0,454.0
2021-12-12-21:14:44.881763,2.0,4.0,454.0
2021-12-12-21:14:44.882759,2.0,4.0,454.0
2021-12-12-21:14:44.883724,2.0,4.0,454.0
2021-12-12-21:14:44.884756,6.0,70.0,454.0
2021-12-12-21:14:44.885753,6.0,74.0,454.0
2021-12-12-21:14:44.886749,6.0,74.0,454.0
2021-12-12-21:14:44.887712,6.0,74.0,454.0
2021-12-12-21:14:44.888744,8.0,11.0,454.0
2021-12-12-21:14:44.889741,10.0,8.0,454.0
2021-12-12-21:14:44.890738,10.0,8.0,454.0
2021-12-12-21:14:44.891735,10.0,8.0,454.0
2021-12-12-21:14:44.892734,15.0,48.0,454.0
2021-12-12-21:14:44.893735,15.0,48.0,454.0
2021-12-12-21:14:44.894728,15.0,48.0,454.0
2021-12-12-21:14:44.895725,15.0,48.0,454.0
2021-12-12-21:14:44.896722,15.0,48.0,454.0
2021-12-12-21:14:44.897719,8.0,20.0,454.0
2021-12-12-21:14:44.898722,0.0,8.0,454.0
2021-12-12-21:14:44.899714,0.0,8.0,454.0
2021-12-12-21:14:44.900713,0.0,8.0,454.0
2021-12-12-21:14:44.901707,8.0,58.0,454.0
2021-12-12-21:14:44.902706,1.0,71.0,454.0
2021-12-12-21:14:44.903704,1.0,71.0,454.0
2021-12-12-21:14:44.904701,1.0,71.0,454.0
2021-12-12-21:14:44.905698,9.0,21.0,454.0
2021-12-12-21:14:44.906695,13.0,2.0,454.0
2021-12-12-21:14:44.907693,13.0,2.0,454.0
2021-12-12-21:14:44.908692,13.0,2.0,454.0
2021-12-12-21:14:44.910685,13.0,2.0,454.0
2021-12-12-21:14:44.910685,14.0,53.0,454.0
2021-12-12-21:14:44.911687,14.0,53.0,454.0
2021-12-12-21:14:44.912680,14.0,53.0,454.0
2021-12-12-21:14:44.913677,7.0,36.0,454.0
2021-12-12-21:14:44.914674,5.0,14.0,454.0
2021-12-12-21:14:44.915672,5.0,14.0,454.0
2021-12-12-21:14:44.916670,5.0,14.0,454.0
2021-12-12-21:14:44.917666,5.0,68.0,454.0
2021-12-12-21:14:44.918664,3.0,84.0,454.0
2021-12-12-21:14:44.919662,3.0,84.0,454.0
2021-12-12-21:14:44.920627,3.0,84.0,454.0
2021-12-12-21:14:44.921656,6.0,48.0,454.0
2021-12-12-21:14:44.922620,9.0,12.0,454.0
2021-12-12-21:14:44.923617,9.0,12.0,454.0
2021-12-12-21:14:44.924614,9.0,12.0,454.0
2021-12-12-21:14:44.925611,11.0,54.0,454.0
2021-12-12-21:14:44.926609,11.0,54.0,454.0
2021-12-12-21:14:44.927642,11.0,54.0,454.0
2021-12-12-21:14:44.928626,11.0,54.0,454.0
2021-12-12-21:14:44.929634,8.0,26.0,454.0
2021-12-12-21:14:44.930636,6.0,15.0,454.0
2021-12-12-21:14:44.931629,6.0,15.0,454.0
2021-12-12-21:14:44.932629,6.0,15.0,454.0
2021-12-12-21:14:44.933624,6.0,15.0,454.0
2021-12-12-21:14:44.934621,7.0,67.0,454.0
2021-12-12-21:14:44.935620,7.0,67.0,454.0
2021-12-12-21:14:44.936615,7.0,67.0,454.0
2021-12-12-21:14:44.937615,7.0,67.0,454.0
2021-12-12-21:14:44.938610,4.0,36.0,454.0
2021-12-12-21:14:44.939609,11.0,12.0,454.0
2021-12-12-21:14:44.940606,11.0,12.0,454.0
2021-12-12-21:14:44.941602,11.0,12.0,454.0
2021-12-12-21:14:44.943598,14.0,4.0,454.0
2021-12-12-21:14:44.943598,15.0,38.0,454.0
2021-12-12-21:14:44.944595,15.0,38.0,454.0
2021-12-12-21:14:44.945592,15.0,38.0,454.0
2021-12-12-21:14:44.946595,7.0,44.0,454.0
2021-12-12-21:14:44.947586,3.0,25.0,454.0
2021-12-12-21:14:44.948589,3.0,25.0,454.0
2021-12-12-21:14:44.949582,3.0,25.0,454.0
2021-12-12-21:14:44.950578,6.0,38.0,454.0
2021-12-12-21:14:44.951576,6.0,71.0,454.0
2021-12-12-21:14:44.952573,6.0,71.0,454.0
2021-12-12-21:14:44.953570,6.0,71.0,454.0
2021-12-12-21:14:44.954567,0.0,71.0,454.0
2021-12-12-21:14:44.955565,8.0,23.0,454.0
2021-12-12-21:14:44.956563,8.0,23.0,454.0
2021-12-12-21:14:44.957526,8.0,23.0,454.0
2021-12-12-21:14:44.958559,7.0,16.0,454.0
2021-12-12-21:14:44.959564,14.0,34.0,454.0
2021-12-12-21:14:44.960552,14.0,34.0,454.0
2021-12-12-21:14:44.961515,14.0,34.0,454.0
2021-12-12-21:14:44.962546,8.0,33.0,454.0
2021-12-12-21:14:44.963544,8.0,30.0,454.0
2021-12-12-21:14:44.964542,8.0,30.0,454.0
2021-12-12-21:14:44.965504,8.0,30.0,454.0
2021-12-12-21:14:44.966542,6.0,14.0,454.0
2021-12-12-21:14:44.967533,2.0,58.0,454.0
2021-12-12-21:14:44.968530,2.0,58.0,454.0
2021-12-12-21:14:44.969528,2.0,58.0,454.0
2021-12-12-21:14:44.970525,3.0,72.0,454.0
2021-12-12-21:14:44.971522,3.0,31.0,454.0
2021-12-12-21:14:44.972498,3.0,31.0,454.0
2021-12-12-21:14:44.973517,3.0,31.0,454.0
2021-12-12-21:14:44.974514,3.0,31.0,454.0
2021-12-12-21:14:44.975488,10.0,11.0,454.0
2021-12-12-21:14:44.977506,12.0,28.0,454.0
2021-12-12-21:14:44.977506,12.0,28.0,454.0
2021-12-12-21:14:44.978503,3.0,30.0,454.0
2021-12-12-21:14:44.979501,3.0,30.0,454.0
2021-12-12-21:14:44.980499,3.0,30.0,454.0
2021-12-12-21:14:44.981495,3.0,30.0,454.0
2021-12-12-21:14:44.982493,3.0,30.0,454.0
2021-12-12-21:14:44.983491,0.0,3.0,454.0
2021-12-12-21:14:44.984488,4.0,43.0,454.0
2021-12-12-21:14:44.985485,4.0,43.0,454.0
2021-12-12-21:14:44.986482,4.0,43.0,454.0
2021-12-12-21:14:44.987480,2.0,72.0,454.0
2021-12-12-21:14:44.988478,7.0,38.0,454.0
2021-12-12-21:14:44.989441,7.0,38.0,454.0
2021-12-12-21:14:44.990471,7.0,38.0,454.0
2021-12-12-21:14:44.991469,8.0,4.0,454.0
2021-12-12-21:14:44.992467,11.0,22.0,454.0
2021-12-12-21:14:44.993463,11.0,22.0,454.0
2021-12-12-21:14:44.994427,11.0,22.0,454.0
2021-12-12-21:14:44.995463,9.0,54.0,454.0
2021-12-12-21:14:44.996457,6.0,33.0,454.0
2021-12-12-21:14:44.997453,6.0,33.0,454.0
2021-12-12-21:14:44.998417,6.0,33.0,454.0
2021-12-12-21:14:44.999448,2.0,9.0,454.0
2021-12-12-21:14:45.000444,9.0,35.0,454.0
2021-12-12-21:14:45.001443,9.0,35.0,454.0
2021-12-12-21:14:45.002406,9.0,35.0,454.0
2021-12-12-21:14:45.003439,4.0,79.0,454.0
2021-12-12-21:14:45.004435,3.0,43.0,454.0
2021-12-12-21:14:45.005432,3.0,43.0,454.0
2021-12-12-21:14:45.006431,3.0,43.0,454.0
2021-12-12-21:14:45.007427,11.0,2.0,454.0
2021-12-12-21:14:45.008423,15.0,26.0,453.0
2021-12-12-21:14:45.009421,15.0,26.0,453.0
2021-12-12-21:14:45.011415,15.0,26.0,453.0
2021-12-12-21:14:45.011415,9.0,55.0,454.0
2021-12-12-21:14:45.012414,8.0,37.0,454.0
2021-12-12-21:14:45.013410,8.0,37.0,454.0
2021-12-12-21:14:45.014408,8.0,37.0,454.0
2021-12-12-21:14:45.015405,8.0,37.0,454.0
2021-12-12-21:14:45.016402,3.0,14.0,454.0
2021-12-12-21:14:45.017399,6.0,19.0,454.0
2021-12-12-21:14:45.018401,6.0,19.0,454.0
2021-12-12-21:14:45.019394,6.0,19.0,454.0
2021-12-12-21:14:45.020393,8.0,82.0,454.0
2021-12-12-21:14:45.021388,0.0,51.0,454.0
2021-12-12-21:14:45.022391,0.0,51.0,454.0
2021-12-12-21:14:45.023359,0.0,51.0,454.0
2021-12-12-21:14:45.024381,9.0,4.0,454.0
2021-12-12-21:14:45.025379,11.0,18.0,453.0
2021-12-12-21:14:45.026379,11.0,18.0,453.0
2021-12-12-21:14:45.027372,11.0,18.0,453.0
2021-12-12-21:14:45.028372,7.0,38.0,454.0
2021-12-12-21:14:45.029368,7.0,38.0,454.0
2021-12-12-21:14:45.030365,7.0,38.0,454.0
2021-12-12-21:14:45.031362,7.0,38.0,454.0
2021-12-12-21:14:45.032360,4.0,10.0,454.0
2021-12-12-21:14:45.033356,1.0,9.0,454.0
2021-12-12-21:14:45.034354,1.0,9.0,454.0
2021-12-12-21:14:45.035318,1.0,9.0,454.0
2021-12-12-21:14:45.036350,6.0,75.0,454.0
2021-12-12-21:14:45.037352,2.0,52.0,454.0
2021-12-12-21:14:45.038343,2.0,52.0,454.0
2021-12-12-21:14:45.039307,2.0,52.0,454.0
2021-12-12-21:14:45.040339,12.0,15.0,454.0
2021-12-12-21:14:45.041335,11.0,20.0,453.0
2021-12-12-21:14:45.042299,11.0,20.0,453.0
2021-12-12-21:14:45.043330,11.0,20.0,453.0
2021-12-12-21:14:45.044329,15.0,51.0,454.0
2021-12-12-21:14:45.045325,8.0,41.0,454.0
2021-12-12-21:14:45.047321,8.0,41.0,454.0
2021-12-12-21:14:45.047321,4.0,5.0,454.0
2021-12-12-21:14:45.048317,3.0,1.0,454.0
2021-12-12-21:14:45.049315,3.0,1.0,454.0
2021-12-12-21:14:45.050311,3.0,1.0,454.0
2021-12-12-21:14:45.051309,3.0,1.0,454.0
2021-12-12-21:14:45.052307,3.0,1.0,454.0
2021-12-12-21:14:45.053303,12.0,57.0,454.0
2021-12-12-21:14:45.054300,2.0,66.0,454.0
2021-12-12-21:14:45.055299,2.0,66.0,454.0
2021-12-12-21:14:45.056297,2.0,66.0,454.0
2021-12-12-21:14:45.057292,6.0,25.0,454.0
2021-12-12-21:14:45.058290,14.0,25.0,454.0
2021-12-12-21:14:45.059253,14.0,25.0,454.0
2021-12-12-21:14:45.060289,14.0,25.0,454.0
2021-12-12-21:14:45.061250,12.0,33.0,454.0
2021-12-12-21:14:45.062246,6.0,31.0,454.0
2021-12-12-21:14:45.063244,6.0,31.0,454.0
2021-12-12-21:14:45.064242,6.0,31.0,454.0
2021-12-12-21:14:45.065238,2.0,2.0,454.0
2021-12-12-21:14:45.066236,4.0,16.0,454.0
2021-12-12-21:14:45.067233,4.0,16.0,454.0
2021-12-12-21:14:45.068230,4.0,16.0,454.0
2021-12-12-21:14:45.069228,5.0,76.0,454.0
2021-12-12-21:14:45.070225,1.0,53.0,454.0
2021-12-12-21:14:45.071222,1.0,53.0,454.0
2021-12-12-21:14:45.072220,1.0,53.0,454.0
2021-12-12-21:14:45.073217,8.0,6.0,454.0
2021-12-12-21:14:45.074214,11.0,18.0,454.0
2021-12-12-21:14:45.075212,11.0,18.0,454.0
2021-12-12-21:14:45.076211,11.0,18.0,454.0
2021-12-12-21:14:45.077207,11.0,18.0,454.0
2021-12-12-21:14:45.079201,7.0,41.0,454.0
2021-12-12-21:14:45.079201,7.0,41.0,454.0
2021-12-12-21:14:45.080198,7.0,41.0,454.0
2021-12-12-21:14:45.081196,2.0,4.0,454.0
2021-12-12-21:14:45.082193,3.0,9.0,454.0
2021-12-12-21:14:45.083190,3.0,9.0,454.0
2021-12-12-21:14:45.084188,3.0,9.0,454.0
2021-12-12-21:14:45.085185,3.0,9.0,454.0
2021-12-12-21:14:45.086182,2.0,65.0,454.0
2021-12-12-21:14:45.087180,2.0,65.0,454.0
2021-12-12-21:14:45.088177,2.0,65.0,454.0
2021-12-12-21:14:45.089174,2.0,65.0,454.0
2021-12-12-21:14:45.090172,12.0,13.0,454.0
2021-12-12-21:14:45.091169,12.0,13.0,454.0
2021-12-12-21:14:45.092166,12.0,13.0,454.0
2021-12-12-21:14:45.093164,12.0,13.0,454.0
2021-12-12-21:14:45.094161,16.0,41.0,454.0
2021-12-12-21:14:45.095158,7.0,48.0,454.0
2021-12-12-21:14:45.096155,7.0,48.0,454.0
2021-12-12-21:14:45.097153,7.0,48.0,454.0
2021-12-12-21:14:45.098150,1.0,0.0,454.0
2021-12-12-21:14:45.099148,1.0,0.0,454.0
2021-12-12-21:14:45.100145,1.0,0.0,454.0
2021-12-12-21:14:45.101142,1.0,0.0,454.0
2021-12-12-21:14:45.102140,4.0,81.0,453.0
2021-12-12-21:14:45.103137,2.0,64.0,454.0
2021-12-12-21:14:45.104134,2.0,64.0,454.0
2021-12-12-21:14:45.105131,2.0,64.0,454.0
2021-12-12-21:14:45.106129,10.0,34.0,454.0
2021-12-12-21:14:45.107126,15.0,8.0,454.0
2021-12-12-21:14:45.108124,15.0,8.0,454.0
2021-12-12-21:14:45.109121,15.0,8.0,454.0
2021-12-12-21:14:45.110118,8.0,47.0,454.0
2021-12-12-21:14:45.111116,9.0,48.0,453.0
2021-12-12-21:14:45.113110,9.0,48.0,453.0
2021-12-12-21:14:45.113110,8.0,25.0,454.0
2021-12-12-21:14:45.114108,1.0,3.0,454.0
2021-12-12-21:14:45.115105,1.0,3.0,454.0
2021-12-12-21:14:45.116102,1.0,3.0,454.0
2021-12-12-21:14:45.117098,1.0,3.0,454.0
2021-12-12-21:14:45.118097,6.0,53.0,454.0
2021-12-12-21:14:45.119094,3.0,75.0,454.0
2021-12-12-21:14:45.120092,3.0,75.0,454.0
2021-12-12-21:14:45.121089,3.0,75.0,454.0
2021-12-12-21:14:45.122086,6.0,37.0,454.0
2021-12-12-21:14:45.123084,8.0,7.0,453.0
2021-12-12-21:14:45.124081,8.0,7.0,453.0
2021-12-12-21:14:45.125078,8.0,7.0,453.0
2021-12-12-21:14:45.126076,8.0,7.0,453.0
2021-12-12-21:14:45.127073,15.0,52.0,454.0
2021-12-12-21:14:45.128070,15.0,52.0,454.0
2021-12-12-21:14:45.129067,15.0,52.0,454.0
2021-12-12-21:14:45.130065,15.0,52.0,454.0
2021-12-12-21:14:45.131062,5.0,20.0,454.0
2021-12-12-21:14:45.132060,1.0,12.0,454.0
2021-12-12-21:14:45.133057,1.0,12.0,454.0
2021-12-12-21:14:45.134054,1.0,12.0,454.0
2021-12-12-21:14:45.135052,10.0,40.0,454.0
2021-12-12-21:14:45.136049,2.0,74.0,454.0
2021-12-12-21:14:45.137046,2.0,74.0,454.0
2021-12-12-21:14:45.138044,2.0,74.0,454.0
2021-12-12-21:14:45.139041,8.0,44.0,454.0
2021-12-12-21:14:45.140038,12.0,6.0,454.0
2021-12-12-21:14:45.141036,12.0,6.0,454.0
2021-12-12-21:14:45.142033,12.0,6.0,454.0
2021-12-12-21:14:45.143030,11.0,29.0,453.0
2021-12-12-21:14:45.144028,14.0,55.0,454.0
2021-12-12-21:14:45.145025,14.0,55.0,454.0
2021-12-12-21:14:45.147020,14.0,55.0,454.0
2021-12-12-21:14:45.147020,2.0,8.0,454.0
2021-12-12-21:14:45.148017,2.0,8.0,454.0
2021-12-12-21:14:45.149014,2.0,8.0,454.0
2021-12-12-21:14:45.150012,2.0,8.0,454.0
2021-12-12-21:14:45.151009,7.0,33.0,454.0
2021-12-12-21:14:45.152006,7.0,79.0,454.0
2021-12-12-21:14:45.153004,7.0,79.0,454.0
2021-12-12-21:14:45.154001,7.0,79.0,454.0
2021-12-12-21:14:45.154998,4.0,46.0,454.0
2021-12-12-21:14:45.155996,9.0,1.0,454.0
2021-12-12-21:14:45.156993,9.0,1.0,454.0
2021-12-12-21:14:45.157990,9.0,1.0,454.0
2021-12-12-21:14:45.158988,12.0,27.0,454.0
2021-12-12-21:14:45.159984,20.0,45.0,454.0
2021-12-12-21:14:45.160982,20.0,45.0,454.0
2021-12-12-21:14:45.161980,20.0,45.0,454.0
2021-12-12-21:14:45.162977,8.0,31.0,454.0
2021-12-12-21:14:45.163974,1.0,18.0,454.0
2021-12-12-21:14:45.164971,1.0,18.0,454.0
2021-12-12-21:14:45.165969,1.0,18.0,454.0
2021-12-12-21:14:45.166966,1.0,18.0,454.0
2021-12-12-21:14:45.167963,4.0,47.0,454.0
2021-12-12-21:14:45.168961,8.0,71.0,454.0
2021-12-12-21:14:45.169960,8.0,71.0,454.0
2021-12-12-21:14:45.170956,8.0,71.0,454.0
2021-12-12-21:14:45.171953,4.0,57.0,454.0
2021-12-12-21:14:45.172950,13.0,34.0,454.0
2021-12-12-21:14:45.173948,13.0,34.0,454.0
2021-12-12-21:14:45.174945,13.0,34.0,454.0
2021-12-12-21:14:45.175942,11.0,14.0,454.0
2021-12-12-21:14:45.176940,13.0,57.0,454.0
2021-12-12-21:14:45.177937,13.0,57.0,454.0
2021-12-12-21:14:45.178934,13.0,57.0,454.0
2021-12-12-21:14:45.180929,8.0,37.0,454.0
2021-12-12-21:14:45.180929,0.0,25.0,454.0
2021-12-12-21:14:45.181926,0.0,25.0,454.0
2021-12-12-21:14:45.182923,0.0,25.0,454.0
2021-12-12-21:14:45.183921,4.0,7.0,454.0
2021-12-12-21:14:45.184918,2.0,83.0,454.0
2021-12-12-21:14:45.185916,2.0,83.0,454.0
2021-12-12-21:14:45.186913,2.0,83.0,454.0
2021-12-12-21:14:45.187910,5.0,49.0,454.0
2021-12-12-21:14:45.188908,11.0,10.0,454.0
2021-12-12-21:14:45.189905,11.0,10.0,454.0
2021-12-12-21:14:45.190902,11.0,10.0,454.0
2021-12-12-21:14:45.191900,9.0,29.0,454.0
2021-12-12-21:14:45.192897,12.0,43.0,454.0
2021-12-12-21:14:45.193895,12.0,43.0,454.0
2021-12-12-21:14:45.194892,12.0,43.0,454.0
2021-12-12-21:14:45.195889,10.0,46.0,454.0
2021-12-12-21:14:45.196886,6.0,20.0,454.0
2021-12-12-21:14:45.197883,6.0,20.0,454.0
2021-12-12-21:14:45.198881,6.0,20.0,454.0
2021-12-12-21:14:45.199878,6.0,20.0,454.0
2021-12-12-21:14:45.200875,6.0,56.0,454.0
2021-12-12-21:14:45.201875,6.0,56.0,454.0
2021-12-12-21:14:45.202870,6.0,56.0,454.0
2021-12-12-21:14:45.203868,6.0,56.0,454.0
2021-12-12-21:14:45.204865,1.0,60.0,454.0
2021-12-12-21:14:45.205863,8.0,28.0,454.0
2021-12-12-21:14:45.206859,8.0,28.0,454.0
2021-12-12-21:14:45.207857,8.0,28.0,454.0
2021-12-12-21:14:45.208854,14.0,16.0,454.0
2021-12-12-21:14:45.209852,14.0,27.0,454.0
2021-12-12-21:14:45.210849,14.0,27.0,454.0
2021-12-12-21:14:45.211846,14.0,27.0,454.0
2021-12-12-21:14:45.212843,9.0,53.0,454.0
2021-12-12-21:14:45.214838,8.0,21.0,454.0
2021-12-12-21:14:45.214838,8.0,21.0,454.0
2021-12-12-21:14:45.215836,6.0,45.0,454.0
2021-12-12-21:14:45.216833,6.0,45.0,454.0
2021-12-12-21:14:45.217831,6.0,45.0,454.0
2021-12-12-21:14:45.218827,6.0,45.0,454.0
2021-12-12-21:14:45.219825,6.0,45.0,454.0
2021-12-12-21:14:45.220822,1.0,59.0,454.0
2021-12-12-21:14:45.221819,9.0,41.0,454.0
2021-12-12-21:14:45.222817,9.0,41.0,454.0
2021-12-12-21:14:45.223815,9.0,41.0,454.0
2021-12-12-21:14:45.224811,16.0,21.0,454.0
2021-12-12-21:14:45.225809,9.0,40.0,454.0
2021-12-12-21:14:45.226806,9.0,40.0,454.0
2021-12-12-21:14:45.227804,9.0,40.0,454.0
2021-12-12-21:14:45.228801,13.0,60.0,454.0
2021-12-12-21:14:45.229798,9.0,24.0,454.0
2021-12-12-21:14:45.230795,9.0,24.0,454.0
2021-12-12-21:14:45.231793,9.0,24.0,454.0
2021-12-12-21:14:45.232822,0.0,1.0,454.0
2021-12-12-21:14:45.233825,7.0,41.0,454.0
2021-12-12-21:14:45.234817,7.0,41.0,454.0
2021-12-12-21:14:45.235816,7.0,41.0,454.0
2021-12-12-21:14:45.236812,4.0,74.0,453.0
2021-12-12-21:14:45.237809,2.0,37.0,453.0
2021-12-12-21:14:45.238808,2.0,37.0,453.0
2021-12-12-21:14:45.239805,2.0,37.0,453.0
2021-12-12-21:14:45.240802,2.0,37.0,453.0
2021-12-12-21:14:45.241799,15.0,32.0,453.0
2021-12-12-21:14:45.242796,15.0,32.0,453.0
2021-12-12-21:14:45.243795,15.0,32.0,453.0
2021-12-12-21:14:45.244791,15.0,32.0,453.0
2021-12-12-21:14:45.245788,10.0,49.0,454.0
2021-12-12-21:14:45.246787,9.0,36.0,454.0
2021-12-12-21:14:45.247783,9.0,36.0,454.0
2021-12-12-21:14:45.249777,9.0,36.0,454.0
2021-12-12-21:14:45.249777,0.0,13.0,454.0
2021-12-12-21:14:45.250775,5.0,27.0,454.0
2021-12-12-21:14:45.251779,5.0,27.0,454.0
2021-12-12-21:14:45.252770,5.0,27.0,454.0
2021-12-12-21:14:45.253768,3.0,77.0,453.0
2021-12-12-21:14:45.254765,4.0,43.0,454.0
2021-12-12-21:14:45.255761,4.0,43.0,454.0
2021-12-12-21:14:45.256758,4.0,43.0,454.0
2021-12-12-21:14:45.257756,11.0,1.0,454.0
2021-12-12-21:14:45.258754,11.0,25.0,454.0
2021-12-12-21:14:45.259757,11.0,25.0,454.0
2021-12-12-21:14:45.260715,11.0,25.0,454.0
2021-12-12-21:14:45.261744,13.0,52.0,454.0
2021-12-12-21:14:45.262744,11.0,34.0,454.0
2021-12-12-21:14:45.263744,11.0,34.0,454.0
2021-12-12-21:14:45.264704,11.0,34.0,454.0
2021-12-12-21:14:45.265734,1.0,4.0,454.0
2021-12-12-21:14:45.266731,1.0,4.0,454.0
2021-12-12-21:14:45.267731,6.0,6.0,454.0
2021-12-12-21:14:45.268694,6.0,6.0,454.0
2021-12-12-21:14:45.269724,4.0,71.0,454.0
2021-12-12-21:14:45.270723,1.0,55.0,454.0
2021-12-12-21:14:45.271720,1.0,55.0,454.0
2021-12-12-21:14:45.272716,1.0,55.0,454.0
2021-12-12-21:14:45.273712,11.0,12.0,453.0
2021-12-12-21:14:45.274711,14.0,25.0,454.0
2021-12-12-21:14:45.275710,14.0,25.0,454.0
2021-12-12-21:14:45.276706,14.0,25.0,454.0
2021-12-12-21:14:45.277703,11.0,30.0,454.0
2021-12-12-21:14:45.278701,10.0,40.0,454.0
2021-12-12-21:14:45.279664,10.0,40.0,454.0
2021-12-12-21:14:45.280696,10.0,40.0,454.0
2021-12-12-21:14:45.281691,3.0,3.0,454.0
2021-12-12-21:14:45.283688,5.0,41.0,454.0
2021-12-12-21:14:45.283688,5.0,41.0,454.0
2021-12-12-21:14:45.284684,5.0,41.0,454.0
2021-12-12-21:14:45.285682,5.0,41.0,454.0
2021-12-12-21:14:45.286680,1.0,61.0,454.0
2021-12-12-21:14:45.287676,3.0,41.0,454.0
2021-12-12-21:14:45.288673,3.0,41.0,454.0
2021-12-12-21:14:45.289671,3.0,41.0,454.0
2021-12-12-21:14:45.290667,10.0,8.0,454.0
2021-12-12-21:14:45.291671,15.0,17.0,454.0
2021-12-12-21:14:45.292630,15.0,17.0,454.0
2021-12-12-21:14:45.293661,15.0,17.0,454.0
2021-12-12-21:14:45.294624,7.0,43.0,454.0
2021-12-12-21:14:45.295623,7.0,31.0,454.0
2021-12-12-21:14:45.296652,7.0,31.0,454.0
2021-12-12-21:14:45.297654,7.0,31.0,454.0
2021-12-12-21:14:45.298647,8.0,15.0,454.0
2021-12-12-21:14:45.299646,8.0,15.0,454.0
2021-12-12-21:14:45.300642,8.0,15.0,454.0
2021-12-12-21:14:45.301605,8.0,15.0,454.0
2021-12-12-21:14:45.302638,0.0,67.0,453.0
2021-12-12-21:14:45.303636,1.0,53.0,453.0
2021-12-12-21:14:45.304632,1.0,53.0,453.0
2021-12-12-21:14:45.305595,1.0,53.0,453.0
2021-12-12-21:14:45.306628,11.0,0.0,454.0
2021-12-12-21:14:45.307624,15.0,26.0,453.0
2021-12-12-21:14:45.308620,15.0,26.0,453.0
2021-12-12-21:14:45.309586,15.0,26.0,453.0
2021-12-12-21:14:45.310618,11.0,53.0,454.0
2021-12-12-21:14:45.311612,6.0,38.0,454.0
2021-12-12-21:14:45.312610,6.0,38.0,454.0
2021-12-12-21:14:45.313611,6.0,38.0,454.0
2021-12-12-21:14:45.314605,6.0,38.0,454.0
2021-12-12-21:14:45.315604,1.0,8.0,453.0
2021-12-12-21:14:45.317596,5.0,5.0,454.0
2021-12-12-21:14:45.317596,5.0,5.0,454.0
2021-12-12-21:14:45.318595,5.0,5.0,454.0
2021-12-12-21:14:45.319589,2.0,54.0,453.0
2021-12-12-21:14:45.320590,2.0,54.0,453.0
2021-12-12-21:14:45.321590,2.0,54.0,453.0
2021-12-12-21:14:45.322550,2.0,54.0,453.0
2021-12-12-21:14:45.323581,12.0,0.0,453.0
2021-12-12-21:14:45.324578,15.0,15.0,454.0
2021-12-12-21:14:45.325575,15.0,15.0,454.0
2021-12-12-21:14:45.326573,15.0,15.0,454.0
2021-12-12-21:14:45.327570,22.0,36.0,454.0
2021-12-12-21:14:45.328574,4.0,53.0,454.0
2021-12-12-21:14:45.329564,4.0,53.0,454.0
2021-12-12-21:14:45.330562,4.0,53.0,454.0
2021-12-12-21:14:45.331560,1.0,18.0,454.0
2021-12-12-21:14:45.332556,0.0,11.0,454.0
2021-12-12-21:14:45.333553,0.0,11.0,454.0
2021-12-12-21:14:45.334552,0.0,11.0,454.0
2021-12-12-21:14:45.335547,3.0,78.0,454.0
2021-12-12-21:14:45.336546,3.0,52.0,454.0
2021-12-12-21:14:45.337547,3.0,52.0,454.0
2021-12-12-21:14:45.338507,3.0,52.0,454.0
2021-12-12-21:14:45.339539,8.0,4.0,454.0
2021-12-12-21:14:45.340536,11.0,16.0,454.0
2021-12-12-21:14:45.341532,11.0,16.0,454.0
2021-12-12-21:14:45.342496,11.0,16.0,454.0
2021-12-12-21:14:45.343492,14.0,63.0,454.0
2021-12-12-21:14:45.344491,11.0,46.0,454.0
2021-12-12-21:14:45.345520,11.0,46.0,454.0
2021-12-12-21:14:45.346484,11.0,46.0,454.0
2021-12-12-21:14:45.347514,1.0,17.0,454.0
2021-12-12-21:14:45.348512,1.0,4.0,454.0
2021-12-12-21:14:45.350509,1.0,4.0,454.0
2021-12-12-21:14:45.350509,1.0,4.0,454.0
2021-12-12-21:14:45.351504,3.0,62.0,454.0
2021-12-12-21:14:45.352501,3.0,62.0,454.0
2021-12-12-21:14:45.353498,3.0,62.0,454.0
2021-12-12-21:14:45.354496,3.0,62.0,454.0
2021-12-12-21:14:45.355496,3.0,62.0,454.0
2021-12-12-21:14:45.356491,10.0,11.0,454.0
2021-12-12-21:14:45.357490,10.0,11.0,454.0
2021-12-12-21:14:45.358487,10.0,11.0,454.0
2021-12-12-21:14:45.359450,10.0,11.0,454.0
2021-12-12-21:14:45.360481,13.0,26.0,454.0
2021-12-12-21:14:45.361482,13.0,46.0,454.0
2021-12-12-21:14:45.362474,13.0,46.0,454.0
2021-12-12-21:14:45.363480,13.0,46.0,454.0
2021-12-12-21:14:45.364469,3.0,28.0,454.0
2021-12-12-21:14:45.365466,1.0,4.0,454.0
2021-12-12-21:14:45.366467,1.0,4.0,454.0
2021-12-12-21:14:45.367461,1.0,4.0,454.0
2021-12-12-21:14:45.368459,6.0,48.0,454.0
2021-12-12-21:14:45.369455,4.0,70.0,453.0
2021-12-12-21:14:45.370453,4.0,70.0,453.0
2021-12-12-21:14:45.371453,4.0,70.0,453.0
2021-12-12-21:14:45.372448,7.0,40.0,454.0
2021-12-12-21:14:45.373446,9.0,3.0,453.0
2021-12-12-21:14:45.374410,9.0,3.0,453.0
2021-12-12-21:14:45.375440,9.0,3.0,453.0
2021-12-12-21:14:45.376438,12.0,49.0,454.0
