2023-05-24-10:00:53.903243,3.0,3.0,249.0
2023-05-24-10:00:53.904229,8.0,9.0,248.0
2023-05-24-10:00:53.905214,7.0,7.0,248.0
2023-05-24-10:00:53.906226,2.0,5.0,249.0
2023-05-24-10:00:53.907224,7.0,5.0,249.0
2023-05-24-10:00:53.907224,3.0,5.0,249.0
2023-05-24-10:00:53.908209,8.0,3.0,249.0
2023-05-24-10:00:53.909217,3.0,1.0,248.0
2023-05-24-10:00:53.910237,6.0,2.0,249.0
2023-05-24-10:00:53.912253,7.0,2.0,248.0
2023-05-24-10:00:53.913209,4.0,3.0,248.0
2023-05-24-10:00:53.914236,8.0,6.0,249.0
2023-05-24-10:00:53.915236,6.0,5.0,249.0
2023-05-24-10:00:53.916235,6.0,5.0,249.0
2023-05-24-10:00:53.917235,7.0,5.0,249.0
2023-05-24-10:00:53.918236,3.0,4.0,248.0
2023-05-24-10:00:53.919244,4.0,6.0,248.0
2023-05-24-10:00:53.920236,5.0,5.0,248.0
2023-05-24-10:00:53.921235,5.0,4.0,249.0
2023-05-24-10:00:53.922235,6.0,4.0,249.0
2023-05-24-10:00:53.923234,7.0,7.0,249.0
2023-05-24-10:00:53.924210,4.0,3.0,249.0
2023-05-24-10:00:53.925228,7.0,7.0,249.0
2023-05-24-10:00:53.926229,6.0,3.0,249.0
2023-05-24-10:00:53.927231,5.0,1.0,249.0
2023-05-24-10:00:53.928211,4.0,7.0,248.0
2023-05-24-10:00:53.929235,3.0,2.0,249.0
2023-05-24-10:00:53.930236,4.0,3.0,249.0
2023-05-24-10:00:53.931236,8.0,5.0,249.0
2023-05-24-10:00:53.932234,7.0,5.0,248.0
2023-05-24-10:00:53.933240,4.0,6.0,249.0
2023-05-24-10:00:53.934236,3.0,5.0,249.0
2023-05-24-10:00:53.935236,7.0,4.0,249.0
2023-05-24-10:00:53.936236,3.0,2.0,248.0
2023-05-24-10:00:53.937237,4.0,2.0,248.0
2023-05-24-10:00:53.938236,2.0,3.0,248.0
2023-05-24-10:00:53.939236,6.0,2.0,249.0
2023-05-24-10:00:53.940237,8.0,6.0,249.0
2023-05-24-10:00:53.941209,6.0,5.0,248.0
2023-05-24-10:00:53.942242,2.0,3.0,249.0
2023-05-24-10:00:53.943228,1.0,2.0,249.0
2023-05-24-10:00:53.944235,4.0,5.0,249.0
2023-05-24-10:00:53.946235,5.0,4.0,249.0
2023-05-24-10:00:53.946235,4.0,5.0,248.0
2023-05-24-10:00:53.947236,6.0,3.0,249.0
2023-05-24-10:00:53.948234,8.0,4.0,248.0
2023-05-24-10:00:53.949228,3.0,5.0,248.0
2023-05-24-10:00:53.950236,4.0,0.0,249.0
2023-05-24-10:00:53.951234,9.0,6.0,249.0
2023-05-24-10:00:53.952236,4.0,7.0,249.0
2023-05-24-10:00:53.953227,5.0,9.0,249.0
2023-05-24-10:00:53.954241,5.0,2.0,249.0
2023-05-24-10:00:53.955236,5.0,0.0,249.0
2023-05-24-10:00:53.956237,3.0,3.0,249.0
2023-05-24-10:00:53.957215,6.0,6.0,249.0
2023-05-24-10:00:53.958210,5.0,3.0,249.0
2023-05-24-10:00:53.959212,6.0,2.0,249.0
2023-05-24-10:00:53.961222,6.0,4.0,249.0
2023-05-24-10:00:53.961222,4.0,3.0,249.0
2023-05-24-10:00:53.962209,7.0,5.0,249.0
2023-05-24-10:00:53.963235,6.0,6.0,249.0
2023-05-24-10:00:53.964238,3.0,3.0,249.0
2023-05-24-10:00:53.965240,7.0,5.0,249.0
2023-05-24-10:00:53.966235,7.0,3.0,249.0
2023-05-24-10:00:53.967235,4.0,2.0,249.0
2023-05-24-10:00:53.968236,9.0,4.0,249.0
2023-05-24-10:00:53.969235,6.0,11.0,249.0
2023-05-24-10:00:53.970235,4.0,2.0,249.0
2023-05-24-10:00:53.971236,9.0,5.0,249.0
2023-05-24-10:00:53.972237,5.0,2.0,250.0
2023-05-24-10:00:53.973235,6.0,7.0,250.0
2023-05-24-10:00:53.974245,5.0,8.0,250.0
2023-05-24-10:00:53.975237,5.0,6.0,251.0
2023-05-24-10:00:53.976235,3.0,2.0,252.0
2023-05-24-10:00:53.977235,3.0,4.0,252.0
2023-05-24-10:00:53.978234,6.0,10.0,253.0
2023-05-24-10:00:53.980235,8.0,5.0,253.0
2023-05-24-10:00:53.980235,5.0,7.0,254.0
2023-05-24-10:00:53.981239,5.0,0.0,255.0
2023-05-24-10:00:53.982235,3.0,6.0,256.0
2023-05-24-10:00:53.983235,5.0,6.0,256.0
2023-05-24-10:00:53.984241,2.0,9.0,256.0
2023-05-24-10:00:53.985235,6.0,0.0,257.0
2023-05-24-10:00:53.986237,3.0,2.0,256.0
2023-05-24-10:00:53.987234,3.0,7.0,256.0
2023-05-24-10:00:53.988237,2.0,3.0,256.0
2023-05-24-10:00:53.989235,5.0,1.0,257.0
2023-05-24-10:00:53.990237,2.0,0.0,257.0
2023-05-24-10:00:53.991234,3.0,5.0,257.0
2023-05-24-10:00:53.992236,4.0,3.0,257.0
2023-05-24-10:00:53.993235,6.0,3.0,257.0
2023-05-24-10:00:53.994231,6.0,3.0,257.0
2023-05-24-10:00:53.995236,5.0,6.0,256.0
2023-05-24-10:00:53.996235,4.0,4.0,257.0
2023-05-24-10:00:53.997234,4.0,4.0,257.0
2023-05-24-10:00:53.998235,4.0,4.0,257.0
2023-05-24-10:00:53.999236,3.0,3.0,256.0
2023-05-24-10:00:54.000236,5.0,2.0,257.0
2023-05-24-10:00:54.001234,5.0,2.0,257.0
2023-05-24-10:00:54.002235,5.0,2.0,257.0
2023-05-24-10:00:54.003235,4.0,1.0,257.0
2023-05-24-10:00:54.004237,5.0,3.0,257.0
2023-05-24-10:00:54.005234,5.0,3.0,257.0
2023-05-24-10:00:54.006235,5.0,3.0,257.0
2023-05-24-10:00:54.007211,7.0,4.0,257.0
2023-05-24-10:00:54.008247,4.0,5.0,257.0
2023-05-24-10:00:54.009245,4.0,5.0,257.0
2023-05-24-10:00:54.010243,4.0,5.0,257.0
2023-05-24-10:00:54.011252,4.0,5.0,257.0
2023-05-24-10:00:54.013243,6.0,3.0,257.0
2023-05-24-10:00:54.013243,6.0,3.0,257.0
2023-05-24-10:00:54.014243,6.0,3.0,257.0
2023-05-24-10:00:54.015243,6.0,3.0,257.0
2023-05-24-10:00:54.016244,4.0,5.0,257.0
2023-05-24-10:00:54.017244,4.0,4.0,257.0
2023-05-24-10:00:54.018245,4.0,4.0,257.0
2023-05-24-10:00:54.019244,4.0,4.0,257.0
2023-05-24-10:00:54.020247,7.0,5.0,257.0
2023-05-24-10:00:54.021244,5.0,3.0,257.0
2023-05-24-10:00:54.022245,5.0,3.0,257.0
2023-05-24-10:00:54.023247,5.0,3.0,257.0
2023-05-24-10:00:54.024272,4.0,5.0,257.0
2023-05-24-10:00:54.025269,3.0,9.0,257.0
2023-05-24-10:00:54.026268,3.0,9.0,257.0
2023-05-24-10:00:54.027209,3.0,9.0,257.0
2023-05-24-10:00:54.028272,1.0,4.0,257.0
2023-05-24-10:00:54.029266,0.0,1.0,257.0
2023-05-24-10:00:54.030269,0.0,1.0,257.0
2023-05-24-10:00:54.031209,0.0,1.0,257.0
2023-05-24-10:00:54.032266,6.0,7.0,257.0
2023-05-24-10:00:54.033265,9.0,10.0,256.0
2023-05-24-10:00:54.034265,7.0,2.0,256.0
2023-05-24-10:00:54.035218,7.0,2.0,256.0
2023-05-24-10:00:54.036265,4.0,1.0,257.0
2023-05-24-10:00:54.037264,5.0,3.0,257.0
2023-05-24-10:00:54.038264,0.0,2.0,256.0
2023-05-24-10:00:54.039211,0.0,2.0,256.0
2023-05-24-10:00:54.040209,6.0,7.0,257.0
2023-05-24-10:00:54.041245,6.0,2.0,257.0
2023-05-24-10:00:54.042245,6.0,2.0,257.0
2023-05-24-10:00:54.043244,6.0,2.0,257.0
2023-05-24-10:00:54.044245,6.0,2.0,257.0
2023-05-24-10:00:54.045246,3.0,5.0,257.0
2023-05-24-10:00:54.047243,6.0,7.0,257.0
2023-05-24-10:00:54.047243,3.0,3.0,257.0
2023-05-24-10:00:54.048209,4.0,5.0,257.0
2023-05-24-10:00:54.049265,10.0,8.0,256.0
2023-05-24-10:00:54.050265,10.0,8.0,256.0
2023-05-24-10:00:54.051265,10.0,8.0,256.0
2023-05-24-10:00:54.052270,10.0,8.0,256.0
2023-05-24-10:00:54.053264,7.0,7.0,257.0
2023-05-24-10:00:54.054208,6.0,6.0,257.0
2023-05-24-10:00:54.055207,6.0,6.0,257.0
2023-05-24-10:00:54.056209,6.0,6.0,257.0
2023-05-24-10:00:54.057210,3.0,4.0,257.0
2023-05-24-10:00:54.058243,4.0,3.0,257.0
2023-05-24-10:00:54.059245,5.0,5.0,257.0
2023-05-24-10:00:54.060242,5.0,5.0,257.0
2023-05-24-10:00:54.061249,2.0,0.0,257.0
2023-05-24-10:00:54.062243,2.0,0.0,257.0
2023-05-24-10:00:54.063242,5.0,1.0,257.0
2023-05-24-10:00:54.064243,6.0,6.0,257.0
2023-05-24-10:00:54.065242,3.0,1.0,257.0
2023-05-24-10:00:54.066245,6.0,7.0,257.0
2023-05-24-10:00:54.067242,10.0,7.0,257.0
2023-05-24-10:00:54.068242,10.0,7.0,257.0
2023-05-24-10:00:54.069265,6.0,2.0,256.0
2023-05-24-10:00:54.070265,3.0,4.0,257.0
2023-05-24-10:00:54.071268,5.0,5.0,257.0
2023-05-24-10:00:54.072209,5.0,5.0,257.0
2023-05-24-10:00:54.073265,4.0,5.0,256.0
2023-05-24-10:00:54.074209,5.0,6.0,257.0
2023-05-24-10:00:54.075264,4.0,7.0,257.0
2023-05-24-10:00:54.076209,4.0,7.0,257.0
2023-05-24-10:00:54.077265,5.0,11.0,257.0
2023-05-24-10:00:54.078265,4.0,6.0,257.0
2023-05-24-10:00:54.079265,4.0,8.0,257.0
2023-05-24-10:00:54.080260,4.0,8.0,257.0
2023-05-24-10:00:54.082250,4.0,5.0,257.0
2023-05-24-10:00:54.082250,6.0,1.0,257.0
2023-05-24-10:00:54.083265,6.0,1.0,257.0
2023-05-24-10:00:54.084264,6.0,1.0,257.0
2023-05-24-10:00:54.085264,7.0,4.0,257.0
2023-05-24-10:00:54.086265,6.0,1.0,257.0
2023-05-24-10:00:54.087268,4.0,3.0,257.0
2023-05-24-10:00:54.088264,4.0,3.0,257.0
2023-05-24-10:00:54.089210,4.0,3.0,257.0
2023-05-24-10:00:54.090267,3.0,2.0,257.0
2023-05-24-10:00:54.091266,3.0,12.0,257.0
2023-05-24-10:00:54.092264,3.0,12.0,257.0
2023-05-24-10:00:54.093269,3.0,12.0,257.0
2023-05-24-10:00:54.094265,5.0,10.0,257.0
2023-05-24-10:00:54.095264,4.0,5.0,257.0
2023-05-24-10:00:54.096266,3.0,6.0,257.0
2023-05-24-10:00:54.097265,3.0,6.0,257.0
2023-05-24-10:00:54.098250,7.0,10.0,257.0
2023-05-24-10:00:54.099244,7.0,1.0,257.0
2023-05-24-10:00:54.100247,7.0,1.0,257.0
2023-05-24-10:00:54.101244,7.0,1.0,257.0
2023-05-24-10:00:54.102244,6.0,3.0,257.0
2023-05-24-10:00:54.103247,4.0,3.0,257.0
2023-05-24-10:00:54.104243,3.0,3.0,257.0
2023-05-24-10:00:54.105209,3.0,3.0,257.0
2023-05-24-10:00:54.106209,3.0,8.0,257.0
2023-05-24-10:00:54.107209,6.0,3.0,257.0
2023-05-24-10:00:54.108248,6.0,3.0,257.0
2023-05-24-10:00:54.109244,6.0,3.0,257.0
2023-05-24-10:00:54.110245,5.0,0.0,257.0
2023-05-24-10:00:54.111244,5.0,4.0,256.0
2023-05-24-10:00:54.112245,3.0,3.0,257.0
2023-05-24-10:00:54.113244,3.0,3.0,257.0
2023-05-24-10:00:54.115235,5.0,5.0,257.0
2023-05-24-10:00:54.115235,9.0,7.0,257.0
2023-05-24-10:00:54.116255,9.0,7.0,257.0
2023-05-24-10:00:54.117209,9.0,7.0,257.0
2023-05-24-10:00:54.118265,7.0,3.0,257.0
2023-05-24-10:00:54.119268,3.0,1.0,256.0
2023-05-24-10:00:54.120265,7.0,3.0,257.0
2023-05-24-10:00:54.121214,7.0,3.0,257.0
2023-05-24-10:00:54.122244,8.0,5.0,257.0
2023-05-24-10:00:54.123266,3.0,0.0,256.0
2023-05-24-10:00:54.124268,5.0,0.0,257.0
2023-05-24-10:00:54.125273,5.0,0.0,257.0
2023-05-24-10:00:54.126266,6.0,5.0,257.0
2023-05-24-10:00:54.127270,5.0,4.0,256.0
2023-05-24-10:00:54.128266,3.0,0.0,257.0
2023-05-24-10:00:54.129265,3.0,0.0,257.0
2023-05-24-10:00:54.130265,5.0,5.0,257.0
2023-05-24-10:00:54.131227,5.0,5.0,257.0
2023-05-24-10:00:54.132264,5.0,5.0,257.0
2023-05-24-10:00:54.133266,5.0,5.0,257.0
2023-05-24-10:00:54.134264,5.0,5.0,257.0
2023-05-24-10:00:54.135268,7.0,2.0,257.0
2023-05-24-10:00:54.136265,7.0,6.0,256.0
2023-05-24-10:00:54.137264,6.0,2.0,256.0
2023-05-24-10:00:54.138267,6.0,2.0,256.0
2023-05-24-10:00:54.139265,5.0,5.0,257.0
2023-05-24-10:00:54.140264,4.0,7.0,256.0
2023-05-24-10:00:54.141245,3.0,7.0,256.0
2023-05-24-10:00:54.142265,3.0,7.0,256.0
2023-05-24-10:00:54.143244,5.0,6.0,257.0
2023-05-24-10:00:54.144266,2.0,8.0,257.0
2023-05-24-10:00:54.145265,2.0,6.0,257.0
2023-05-24-10:00:54.146265,2.0,6.0,257.0
2023-05-24-10:00:54.148238,4.0,4.0,257.0
2023-05-24-10:00:54.148238,4.0,4.0,257.0
2023-05-24-10:00:54.149256,6.0,4.0,256.0
2023-05-24-10:00:54.150256,6.0,4.0,256.0
2023-05-24-10:00:54.151259,6.0,1.0,257.0
2023-05-24-10:00:54.152255,8.0,4.0,257.0
2023-05-24-10:00:54.153256,3.0,5.0,256.0
2023-05-24-10:00:54.154258,3.0,5.0,256.0
2023-05-24-10:00:54.155236,2.0,8.0,257.0
2023-05-24-10:00:54.156255,5.0,8.0,257.0
2023-05-24-10:00:54.157224,5.0,7.0,257.0
2023-05-24-10:00:54.158209,5.0,7.0,257.0
2023-05-24-10:00:54.159265,7.0,4.0,257.0
2023-05-24-10:00:54.160266,6.0,2.0,257.0
2023-05-24-10:00:54.161265,4.0,2.0,256.0
2023-05-24-10:00:54.162209,4.0,2.0,256.0
2023-05-24-10:00:54.163266,4.0,2.0,257.0
2023-05-24-10:00:54.164265,4.0,2.0,257.0
2023-05-24-10:00:54.165256,4.0,4.0,257.0
2023-05-24-10:00:54.166264,4.0,4.0,257.0
2023-05-24-10:00:54.167259,0.0,1.0,256.0
2023-05-24-10:00:54.168256,6.0,5.0,257.0
2023-05-24-10:00:54.169256,10.0,8.0,257.0
2023-05-24-10:00:54.170268,10.0,8.0,257.0
2023-05-24-10:00:54.171264,10.0,8.0,257.0
2023-05-24-10:00:54.172265,4.0,3.0,257.0
2023-05-24-10:00:54.173265,6.0,5.0,257.0
2023-05-24-10:00:54.174209,6.0,5.0,257.0
2023-05-24-10:00:54.175264,6.0,5.0,257.0
2023-05-24-10:00:54.176266,5.0,4.0,256.0
2023-05-24-10:00:54.177256,1.0,5.0,257.0
2023-05-24-10:00:54.178245,5.0,6.0,257.0
2023-05-24-10:00:54.179244,5.0,6.0,257.0
2023-05-24-10:00:54.180246,4.0,5.0,256.0
2023-05-24-10:00:54.181244,4.0,5.0,256.0
2023-05-24-10:00:54.182249,5.0,4.0,257.0
2023-05-24-10:00:54.184235,6.0,2.0,257.0
2023-05-24-10:00:54.184235,5.0,1.0,256.0
2023-05-24-10:00:54.185264,6.0,5.0,257.0
2023-05-24-10:00:54.186258,6.0,5.0,257.0
2023-05-24-10:00:54.187256,6.0,5.0,257.0
2023-05-24-10:00:54.188235,7.0,6.0,257.0
2023-05-24-10:00:54.189207,8.0,6.0,257.0
2023-05-24-10:00:54.190256,8.0,6.0,257.0
2023-05-24-10:00:54.191255,8.0,6.0,257.0
2023-05-24-10:00:54.192257,5.0,4.0,257.0
2023-05-24-10:00:54.193258,5.0,7.0,257.0
2023-05-24-10:00:54.194255,4.0,3.0,257.0
2023-05-24-10:00:54.195256,4.0,3.0,257.0
2023-05-24-10:00:54.196256,3.0,1.0,257.0
2023-05-24-10:00:54.197255,6.0,1.0,257.0
2023-05-24-10:00:54.198256,6.0,1.0,257.0
2023-05-24-10:00:54.199209,6.0,1.0,257.0
2023-05-24-10:00:54.200257,3.0,2.0,256.0
2023-05-24-10:00:54.201256,3.0,0.0,257.0
2023-05-24-10:00:54.202257,3.0,0.0,257.0
2023-05-24-10:00:54.203208,3.0,0.0,257.0
2023-05-24-10:00:54.204258,7.0,3.0,257.0
2023-05-24-10:00:54.205257,4.0,6.0,257.0
2023-05-24-10:00:54.206260,4.0,6.0,257.0
2023-05-24-10:00:54.207216,4.0,6.0,257.0
2023-05-24-10:00:54.208267,6.0,7.0,257.0
2023-05-24-10:00:54.209272,4.0,6.0,257.0
2023-05-24-10:00:54.210265,1.0,5.0,257.0
2023-05-24-10:00:54.211265,1.0,5.0,257.0
2023-05-24-10:00:54.212265,1.0,5.0,257.0
2023-05-24-10:00:54.213275,3.0,4.0,256.0
2023-05-24-10:00:54.214267,3.0,2.0,257.0
2023-05-24-10:00:54.215269,3.0,2.0,257.0
2023-05-24-10:00:54.216266,7.0,0.0,257.0
2023-05-24-10:00:54.218243,4.0,0.0,257.0
2023-05-24-10:00:54.218243,7.0,4.0,257.0
2023-05-24-10:00:54.219267,7.0,4.0,257.0
2023-05-24-10:00:54.220268,7.0,4.0,257.0
2023-05-24-10:00:54.221244,7.0,7.0,257.0
2023-05-24-10:00:54.222257,7.0,8.0,257.0
2023-05-24-10:00:54.223257,4.0,7.0,257.0
2023-05-24-10:00:54.224258,4.0,7.0,257.0
2023-05-24-10:00:54.225256,5.0,2.0,257.0
2023-05-24-10:00:54.226256,4.0,0.0,257.0
2023-05-24-10:00:54.227256,3.0,1.0,257.0
2023-05-24-10:00:54.228262,3.0,1.0,257.0
2023-05-24-10:00:54.229257,5.0,6.0,257.0
2023-05-24-10:00:54.230257,6.0,4.0,256.0
2023-05-24-10:00:54.231260,6.0,4.0,256.0
2023-05-24-10:00:54.232256,6.0,4.0,256.0
2023-05-24-10:00:54.233256,6.0,5.0,257.0
2023-05-24-10:00:54.234259,7.0,1.0,256.0
2023-05-24-10:00:54.235256,7.0,1.0,256.0
2023-05-24-10:00:54.236259,7.0,1.0,256.0
2023-05-24-10:00:54.237257,4.0,1.0,257.0
2023-05-24-10:00:54.238235,6.0,4.0,257.0
2023-05-24-10:00:54.239256,6.0,4.0,257.0
2023-05-24-10:00:54.240258,6.0,4.0,257.0
2023-05-24-10:00:54.241257,6.0,3.0,257.0
2023-05-24-10:00:54.242263,3.0,5.0,257.0
2023-05-24-10:00:54.243261,3.0,5.0,257.0
2023-05-24-10:00:54.244208,3.0,5.0,257.0
2023-05-24-10:00:54.245256,3.0,7.0,257.0
2023-05-24-10:00:54.246257,3.0,3.0,256.0
2023-05-24-10:00:54.247260,3.0,3.0,256.0
2023-05-24-10:00:54.248207,3.0,3.0,256.0
2023-05-24-10:00:54.250235,5.0,4.0,257.0
2023-05-24-10:00:54.250235,5.0,4.0,257.0
2023-05-24-10:00:54.251256,5.0,4.0,257.0
2023-05-24-10:00:54.252258,5.0,4.0,257.0
2023-05-24-10:00:54.253257,5.0,4.0,257.0
2023-05-24-10:00:54.254257,6.0,5.0,257.0
2023-05-24-10:00:54.255234,6.0,5.0,257.0
2023-05-24-10:00:54.256257,6.0,5.0,257.0
2023-05-24-10:00:54.257214,6.0,5.0,257.0
2023-05-24-10:00:54.258214,6.0,5.0,257.0
2023-05-24-10:00:54.259256,6.0,5.0,257.0
2023-05-24-10:00:54.260256,6.0,5.0,257.0
2023-05-24-10:00:54.261257,6.0,5.0,257.0
2023-05-24-10:00:54.262257,3.0,6.0,256.0
2023-05-24-10:00:54.263260,7.0,5.0,257.0
2023-05-24-10:00:54.264256,7.0,5.0,257.0
2023-05-24-10:00:54.265265,7.0,5.0,257.0
2023-05-24-10:00:54.266258,5.0,0.0,257.0
2023-05-24-10:00:54.267263,9.0,11.0,257.0
2023-05-24-10:00:54.268268,9.0,11.0,257.0
2023-05-24-10:00:54.269266,9.0,11.0,257.0
2023-05-24-10:00:54.270266,7.0,8.0,257.0
2023-05-24-10:00:54.271266,5.0,0.0,257.0
2023-05-24-10:00:54.272267,5.0,4.0,257.0
2023-05-24-10:00:54.273266,5.0,4.0,257.0
2023-05-24-10:00:54.274244,7.0,8.0,257.0
2023-05-24-10:00:54.275254,2.0,6.0,257.0
2023-05-24-10:00:54.276265,6.0,6.0,257.0
2023-05-24-10:00:54.277265,6.0,6.0,257.0
2023-05-24-10:00:54.278265,8.0,7.0,257.0
2023-05-24-10:00:54.279269,3.0,2.0,257.0
2023-05-24-10:00:54.280272,3.0,2.0,257.0
2023-05-24-10:00:54.281269,3.0,2.0,257.0
2023-05-24-10:00:54.282267,3.0,5.0,257.0
2023-05-24-10:00:54.283266,3.0,5.0,257.0
2023-05-24-10:00:54.285209,4.0,3.0,257.0
2023-05-24-10:00:54.286209,3.0,5.0,257.0
2023-05-24-10:00:54.286209,6.0,4.0,257.0
2023-05-24-10:00:54.287247,6.0,4.0,257.0
2023-05-24-10:00:54.288250,6.0,4.0,257.0
2023-05-24-10:00:54.289209,6.0,4.0,257.0
2023-05-24-10:00:54.290207,6.0,3.0,257.0
2023-05-24-10:00:54.291245,1.0,1.0,257.0
2023-05-24-10:00:54.292246,1.0,1.0,257.0
2023-05-24-10:00:54.293242,1.0,1.0,257.0
2023-05-24-10:00:54.294244,0.0,2.0,257.0
2023-05-24-10:00:54.295247,4.0,5.0,256.0
2023-05-24-10:00:54.296244,3.0,10.0,257.0
2023-05-24-10:00:54.297244,3.0,10.0,257.0
2023-05-24-10:00:54.298244,5.0,4.0,257.0
2023-05-24-10:00:54.299245,6.0,5.0,256.0
2023-05-24-10:00:54.300244,6.0,5.0,256.0
2023-05-24-10:00:54.301244,7.0,5.0,257.0
2023-05-24-10:00:54.302244,7.0,5.0,257.0
2023-05-24-10:00:54.303234,6.0,4.0,257.0
2023-05-24-10:00:54.304235,6.0,3.0,257.0
2023-05-24-10:00:54.305234,6.0,3.0,257.0
2023-05-24-10:00:54.308220,6.0,3.0,257.0
2023-05-24-10:00:54.308220,7.0,4.0,257.0
2023-05-24-10:00:54.309235,2.0,2.0,257.0
2023-05-24-10:00:54.310235,2.0,2.0,257.0
2023-05-24-10:00:54.311238,0.0,4.0,257.0
2023-05-24-10:00:54.312235,7.0,9.0,257.0
2023-05-24-10:00:54.313236,7.0,9.0,257.0
2023-05-24-10:00:54.314235,7.0,9.0,257.0
2023-05-24-10:00:54.315235,4.0,4.0,257.0
2023-05-24-10:00:54.316235,4.0,4.0,256.0
2023-05-24-10:00:54.317240,5.0,4.0,257.0
2023-05-24-10:00:54.318235,5.0,4.0,257.0
2023-05-24-10:00:54.320236,6.0,5.0,257.0
2023-05-24-10:00:54.320236,6.0,3.0,257.0
2023-05-24-10:00:54.321256,6.0,3.0,257.0
2023-05-24-10:00:54.322256,6.0,3.0,257.0
2023-05-24-10:00:54.323256,4.0,2.0,257.0
2023-05-24-10:00:54.324208,3.0,6.0,257.0
2023-05-24-10:00:54.325209,3.0,6.0,257.0
2023-05-24-10:00:54.326233,3.0,6.0,257.0
2023-05-24-10:00:54.327236,4.0,6.0,257.0
2023-05-24-10:00:54.328233,2.0,1.0,257.0
2023-05-24-10:00:54.329235,2.0,1.0,257.0
2023-05-24-10:00:54.330208,2.0,1.0,257.0
2023-05-24-10:00:54.331235,2.0,1.0,257.0
2023-05-24-10:00:54.332233,8.0,6.0,257.0
2023-05-24-10:00:54.333233,2.0,3.0,257.0
2023-05-24-10:00:54.334209,2.0,3.0,257.0
2023-05-24-10:00:54.335239,4.0,5.0,257.0
2023-05-24-10:00:54.336234,6.0,3.0,257.0
2023-05-24-10:00:54.337233,6.0,6.0,257.0
2023-05-24-10:00:54.338242,6.0,6.0,257.0
2023-05-24-10:00:54.339233,6.0,0.0,256.0
2023-05-24-10:00:54.340233,1.0,3.0,257.0
2023-05-24-10:00:54.341244,1.0,3.0,257.0
2023-05-24-10:00:54.342247,1.0,3.0,257.0
2023-05-24-10:00:54.343248,1.0,3.0,257.0
2023-05-24-10:00:54.344242,3.0,2.0,257.0
2023-05-24-10:00:54.345245,3.0,2.0,257.0
2023-05-24-10:00:54.346245,3.0,2.0,257.0
2023-05-24-10:00:54.347244,3.0,2.0,257.0
2023-05-24-10:00:54.348242,0.0,4.0,257.0
2023-05-24-10:00:54.349242,9.0,6.0,256.0
2023-05-24-10:00:54.350243,3.0,4.0,256.0
2023-05-24-10:00:54.351242,3.0,4.0,256.0
2023-05-24-10:00:54.353243,3.0,2.0,256.0
2023-05-24-10:00:54.353243,3.0,2.0,256.0
2023-05-24-10:00:54.354265,3.0,2.0,256.0
2023-05-24-10:00:54.355265,3.0,2.0,256.0
2023-05-24-10:00:54.356265,4.0,6.0,257.0
2023-05-24-10:00:54.357266,6.0,5.0,257.0
2023-05-24-10:00:54.358209,3.0,1.0,256.0
2023-05-24-10:00:54.359268,3.0,1.0,256.0
2023-05-24-10:00:54.360264,4.0,1.0,256.0
2023-05-24-10:00:54.361265,5.0,2.0,257.0
2023-05-24-10:00:54.362267,3.0,4.0,256.0
2023-05-24-10:00:54.363264,3.0,4.0,256.0
2023-05-24-10:00:54.364273,3.0,4.0,256.0
2023-05-24-10:00:54.365265,2.0,6.0,257.0
2023-05-24-10:00:54.366266,4.0,5.0,257.0
2023-05-24-10:00:54.367264,4.0,4.0,257.0
2023-05-24-10:00:54.368266,6.0,2.0,257.0
2023-05-24-10:00:54.369244,6.0,1.0,257.0
2023-05-24-10:00:54.370244,4.0,2.0,257.0
2023-05-24-10:00:54.371209,4.0,2.0,257.0
2023-05-24-10:00:54.372246,5.0,1.0,257.0
2023-05-24-10:00:54.373244,6.0,7.0,257.0
2023-05-24-10:00:54.374243,8.0,8.0,257.0
2023-05-24-10:00:54.375209,8.0,8.0,257.0
2023-05-24-10:00:54.376244,4.0,5.0,257.0
2023-05-24-10:00:54.377244,4.0,3.0,257.0
2023-05-24-10:00:54.378244,6.0,5.0,257.0
2023-05-24-10:00:54.379245,6.0,5.0,257.0
2023-05-24-10:00:54.380244,4.0,0.0,256.0
2023-05-24-10:00:54.381244,4.0,5.0,257.0
2023-05-24-10:00:54.382246,9.0,4.0,257.0
2023-05-24-10:00:54.383244,9.0,4.0,257.0
2023-05-24-10:00:54.384245,9.0,4.0,257.0
2023-05-24-10:00:54.385245,6.0,1.0,257.0
2023-05-24-10:00:54.386244,7.0,4.0,257.0
2023-05-24-10:00:54.388246,7.0,4.0,257.0
2023-05-24-10:00:54.388246,7.0,4.0,257.0
2023-05-24-10:00:54.389266,5.0,2.0,256.0
2023-05-24-10:00:54.390265,2.0,1.0,257.0
2023-05-24-10:00:54.391268,2.0,1.0,257.0
2023-05-24-10:00:54.392265,2.0,1.0,257.0
2023-05-24-10:00:54.393264,2.0,2.0,257.0
2023-05-24-10:00:54.394268,5.0,10.0,257.0
2023-05-24-10:00:54.395265,4.0,11.0,257.0
2023-05-24-10:00:54.396210,4.0,11.0,257.0
2023-05-24-10:00:54.397255,4.0,6.0,257.0
2023-05-24-10:00:54.398256,3.0,2.0,257.0
2023-05-24-10:00:54.399255,8.0,9.0,257.0
2023-05-24-10:00:54.400266,8.0,9.0,257.0
2023-05-24-10:00:54.401265,10.0,10.0,257.0
2023-05-24-10:00:54.402257,10.0,10.0,257.0
2023-05-24-10:00:54.403235,7.0,2.0,257.0
2023-05-24-10:00:54.404237,7.0,2.0,257.0
2023-05-24-10:00:54.405235,7.0,7.0,257.0
2023-05-24-10:00:54.406235,3.0,7.0,257.0
2023-05-24-10:00:54.407238,3.0,7.0,257.0
2023-05-24-10:00:54.408235,3.0,7.0,257.0
2023-05-24-10:00:54.409235,6.0,9.0,257.0
2023-05-24-10:00:54.410235,7.0,4.0,257.0
2023-05-24-10:00:54.411235,7.0,4.0,257.0
2023-05-24-10:00:54.412235,7.0,4.0,257.0
2023-05-24-10:00:54.413235,7.0,2.0,257.0
2023-05-24-10:00:54.414236,5.0,1.0,257.0
2023-05-24-10:00:54.415235,5.0,1.0,257.0
2023-05-24-10:00:54.416209,5.0,1.0,257.0
2023-05-24-10:00:54.417235,6.0,2.0,257.0
2023-05-24-10:00:54.418235,4.0,3.0,257.0
2023-05-24-10:00:54.420229,4.0,3.0,257.0
2023-05-24-10:00:54.420229,4.0,4.0,257.0
2023-05-24-10:00:54.421209,2.0,6.0,256.0
2023-05-24-10:00:54.422235,5.0,3.0,257.0
2023-05-24-10:00:54.423237,5.0,3.0,257.0
2023-05-24-10:00:54.424209,5.0,3.0,257.0
2023-05-24-10:00:54.425255,5.0,3.0,257.0
2023-05-24-10:00:54.426260,6.0,2.0,256.0
2023-05-24-10:00:54.427255,1.0,2.0,257.0
2023-05-24-10:00:54.428258,1.0,2.0,257.0
2023-05-24-10:00:54.429256,1.0,2.0,257.0
2023-05-24-10:00:54.430256,7.0,2.0,257.0
2023-05-24-10:00:54.431256,7.0,2.0,257.0
2023-05-24-10:00:54.432256,7.0,2.0,257.0
2023-05-24-10:00:54.433256,7.0,2.0,257.0
2023-05-24-10:00:54.434256,2.0,2.0,257.0
2023-05-24-10:00:54.435262,5.0,0.0,257.0
2023-05-24-10:00:54.436256,5.0,0.0,257.0
2023-05-24-10:00:54.437235,8.0,8.0,257.0
2023-05-24-10:00:54.438234,2.0,8.0,257.0
2023-05-24-10:00:54.439239,2.0,8.0,257.0
2023-05-24-10:00:54.440236,2.0,8.0,257.0
2023-05-24-10:00:54.441209,2.0,8.0,257.0
2023-05-24-10:00:54.442234,5.0,6.0,257.0
2023-05-24-10:00:54.443235,2.0,8.0,257.0
2023-05-24-10:00:54.444209,2.0,8.0,257.0
2023-05-24-10:00:54.445235,2.0,8.0,257.0
2023-05-24-10:00:54.446236,4.0,5.0,257.0
2023-05-24-10:00:54.447235,6.0,3.0,256.0
2023-05-24-10:00:54.448241,6.0,3.0,256.0
2023-05-24-10:00:54.449235,6.0,3.0,256.0
2023-05-24-10:00:54.450236,6.0,2.0,257.0
2023-05-24-10:00:54.451235,6.0,6.0,256.0
2023-05-24-10:00:54.452237,6.0,6.0,256.0
2023-05-24-10:00:54.454234,6.0,6.0,256.0
2023-05-24-10:00:54.454234,6.0,6.0,256.0
2023-05-24-10:00:54.455259,8.0,8.0,257.0
2023-05-24-10:00:54.456256,3.0,2.0,256.0
2023-05-24-10:00:54.457209,3.0,2.0,256.0
2023-05-24-10:00:54.458208,7.0,4.0,256.0
2023-05-24-10:00:54.459236,7.0,4.0,256.0
2023-05-24-10:00:54.460234,7.0,4.0,256.0
2023-05-24-10:00:54.461209,7.0,4.0,256.0
2023-05-24-10:00:54.462236,4.0,3.0,257.0
2023-05-24-10:00:54.463235,7.0,8.0,257.0
2023-05-24-10:00:54.464236,7.0,8.0,257.0
2023-05-24-10:00:54.465242,7.0,8.0,257.0
2023-05-24-10:00:54.466209,6.0,7.0,256.0
2023-05-24-10:00:54.467235,7.0,2.0,256.0
2023-05-24-10:00:54.468237,7.0,2.0,256.0
2023-05-24-10:00:54.469235,7.0,2.0,256.0
2023-05-24-10:00:54.470235,8.0,2.0,256.0
2023-05-24-10:00:54.471238,5.0,1.0,257.0
2023-05-24-10:00:54.472235,5.0,1.0,257.0
2023-05-24-10:00:54.473234,5.0,1.0,257.0
2023-05-24-10:00:54.474209,5.0,1.0,257.0
2023-05-24-10:00:54.475236,7.0,1.0,257.0
2023-05-24-10:00:54.476255,3.0,5.0,257.0
2023-05-24-10:00:54.477256,3.0,5.0,257.0
2023-05-24-10:00:54.478256,3.0,5.0,257.0
2023-05-24-10:00:54.479255,4.0,8.0,257.0
2023-05-24-10:00:54.480257,4.0,12.0,257.0
2023-05-24-10:00:54.481256,4.0,12.0,257.0
2023-05-24-10:00:54.482264,4.0,12.0,257.0
2023-05-24-10:00:54.483265,7.0,5.0,257.0
2023-05-24-10:00:54.484258,3.0,4.0,257.0
2023-05-24-10:00:54.485256,6.0,4.0,257.0
2023-05-24-10:00:54.486244,6.0,4.0,257.0
2023-05-24-10:00:54.487207,7.0,4.0,257.0
2023-05-24-10:00:54.488255,6.0,4.0,257.0
2023-05-24-10:00:54.490244,6.0,4.0,257.0
2023-05-24-10:00:54.490244,4.0,5.0,257.0
2023-05-24-10:00:54.491236,2.0,6.0,257.0
2023-05-24-10:00:54.492235,2.0,6.0,257.0
2023-05-24-10:00:54.493254,2.0,6.0,257.0
2023-05-24-10:00:54.494256,2.0,6.0,257.0
2023-05-24-10:00:54.495256,2.0,3.0,257.0
2023-05-24-10:00:54.496257,4.0,4.0,257.0
2023-05-24-10:00:54.497256,5.0,5.0,257.0
2023-05-24-10:00:54.498209,5.0,5.0,257.0
2023-05-24-10:00:54.499265,6.0,5.0,257.0
2023-05-24-10:00:54.500266,5.0,3.0,257.0
2023-05-24-10:00:54.501265,6.0,0.0,257.0
2023-05-24-10:00:54.502209,6.0,0.0,257.0
2023-05-24-10:00:54.503268,7.0,3.0,257.0
2023-05-24-10:00:54.504265,7.0,3.0,257.0
2023-05-24-10:00:54.505265,8.0,7.0,257.0
2023-05-24-10:00:54.506207,8.0,7.0,257.0
2023-05-24-10:00:54.507264,4.0,0.0,256.0
2023-05-24-10:00:54.508245,2.0,3.0,257.0
2023-05-24-10:00:54.509244,2.0,3.0,257.0
2023-05-24-10:00:54.510245,2.0,3.0,257.0
2023-05-24-10:00:54.511264,2.0,3.0,257.0
2023-05-24-10:00:54.512271,3.0,5.0,257.0
2023-05-24-10:00:54.513265,3.0,0.0,257.0
2023-05-24-10:00:54.514266,3.0,0.0,257.0
2023-05-24-10:00:54.515265,3.0,0.0,257.0
2023-05-24-10:00:54.516265,5.0,3.0,257.0
2023-05-24-10:00:54.517264,7.0,5.0,257.0
2023-05-24-10:00:54.518265,8.0,9.0,257.0
2023-05-24-10:00:54.519268,8.0,9.0,257.0
2023-05-24-10:00:54.520265,6.0,4.0,256.0
2023-05-24-10:00:54.521265,6.0,3.0,257.0
2023-05-24-10:00:54.522268,6.0,3.0,257.0
2023-05-24-10:00:54.524209,6.0,3.0,257.0
2023-05-24-10:00:54.524209,9.0,3.0,257.0
2023-05-24-10:00:54.525260,6.0,3.0,257.0
2023-05-24-10:00:54.526256,1.0,1.0,257.0
2023-05-24-10:00:54.527255,1.0,1.0,257.0
2023-05-24-10:00:54.528257,0.0,2.0,257.0
2023-05-24-10:00:54.529256,5.0,11.0,257.0
2023-05-24-10:00:54.530256,5.0,11.0,257.0
2023-05-24-10:00:54.531265,5.0,11.0,257.0
2023-05-24-10:00:54.532255,6.0,10.0,257.0
2023-05-24-10:00:54.533256,5.0,3.0,257.0
2023-05-24-10:00:54.534256,4.0,3.0,257.0
2023-05-24-10:00:54.535259,4.0,3.0,257.0
2023-05-24-10:00:54.536256,4.0,2.0,257.0
2023-05-24-10:00:54.537256,6.0,5.0,257.0
2023-05-24-10:00:54.538259,6.0,5.0,257.0
2023-05-24-10:00:54.539255,5.0,6.0,256.0
2023-05-24-10:00:54.540255,4.0,0.0,257.0
2023-05-24-10:00:54.541236,5.0,7.0,257.0
2023-05-24-10:00:54.542256,5.0,6.0,256.0
2023-05-24-10:00:54.543209,5.0,6.0,256.0
2023-05-24-10:00:54.544257,7.0,5.0,257.0
2023-05-24-10:00:54.545256,3.0,1.0,256.0
2023-05-24-10:00:54.546256,3.0,1.0,256.0
2023-05-24-10:00:54.547209,3.0,1.0,256.0
2023-05-24-10:00:54.548256,3.0,1.0,257.0
2023-05-24-10:00:54.549258,8.0,8.0,257.0
2023-05-24-10:00:54.550255,8.0,8.0,257.0
2023-05-24-10:00:54.551272,8.0,8.0,257.0
2023-05-24-10:00:54.552255,6.0,4.0,257.0
2023-05-24-10:00:54.553208,4.0,4.0,257.0
2023-05-24-10:00:54.554234,4.0,4.0,257.0
2023-05-24-10:00:54.555235,4.0,4.0,257.0
2023-05-24-10:00:54.556234,4.0,4.0,257.0
2023-05-24-10:00:54.558211,8.0,8.0,257.0
2023-05-24-10:00:54.558211,8.0,8.0,257.0
2023-05-24-10:00:54.559210,8.0,8.0,257.0
2023-05-24-10:00:54.560245,8.0,8.0,257.0
2023-05-24-10:00:54.561244,5.0,8.0,257.0
2023-05-24-10:00:54.562244,5.0,4.0,257.0
2023-05-24-10:00:54.563243,1.0,2.0,257.0
2023-05-24-10:00:54.564246,1.0,2.0,257.0
2023-05-24-10:00:54.565244,1.0,1.0,256.0
2023-05-24-10:00:54.566244,7.0,4.0,257.0
2023-05-24-10:00:54.567249,8.0,3.0,257.0
2023-05-24-10:00:54.568244,8.0,3.0,257.0
2023-05-24-10:00:54.569244,8.0,3.0,257.0
2023-05-24-10:00:54.570242,7.0,0.0,256.0
2023-05-24-10:00:54.571245,5.0,2.0,257.0
2023-05-24-10:00:54.572244,5.0,3.0,256.0
2023-05-24-10:00:54.573236,5.0,8.0,257.0
2023-05-24-10:00:54.574211,5.0,10.0,257.0
2023-05-24-10:00:54.575208,5.0,10.0,257.0
2023-05-24-10:00:54.576236,5.0,10.0,257.0
2023-05-24-10:00:54.577236,4.0,9.0,257.0
2023-05-24-10:00:54.578236,4.0,2.0,257.0
2023-05-24-10:00:54.579234,1.0,0.0,257.0
2023-05-24-10:00:54.580237,1.0,0.0,257.0
2023-05-24-10:00:54.581244,6.0,8.0,256.0
2023-05-24-10:00:54.582244,9.0,3.0,257.0
2023-05-24-10:00:54.583248,9.0,3.0,257.0
2023-05-24-10:00:54.584209,9.0,3.0,257.0
2023-05-24-10:00:54.585244,2.0,4.0,256.0
2023-05-24-10:00:54.586245,5.0,1.0,257.0
2023-05-24-10:00:54.587244,9.0,4.0,257.0
2023-05-24-10:00:54.588210,9.0,4.0,257.0
2023-05-24-10:00:54.589244,7.0,9.0,256.0
2023-05-24-10:00:54.590245,1.0,9.0,257.0
2023-05-24-10:00:54.591209,2.0,13.0,257.0
2023-05-24-10:00:54.593243,2.0,13.0,257.0
2023-05-24-10:00:54.593243,2.0,13.0,257.0
2023-05-24-10:00:54.594268,2.0,4.0,257.0
2023-05-24-10:00:54.595266,6.0,3.0,257.0
2023-05-24-10:00:54.596265,6.0,3.0,257.0
2023-05-24-10:00:54.597265,6.0,3.0,257.0
2023-05-24-10:00:54.598265,4.0,4.0,257.0
2023-05-24-10:00:54.599268,5.0,0.0,257.0
2023-05-24-10:00:54.600266,5.0,0.0,257.0
2023-05-24-10:00:54.601264,5.0,0.0,257.0
2023-05-24-10:00:54.602268,8.0,3.0,257.0
2023-05-24-10:00:54.603264,8.0,4.0,257.0
2023-05-24-10:00:54.604265,7.0,6.0,257.0
2023-05-24-10:00:54.605265,7.0,6.0,257.0
2023-05-24-10:00:54.606266,6.0,8.0,257.0
2023-05-24-10:00:54.607264,6.0,8.0,257.0
2023-05-24-10:00:54.608266,3.0,7.0,257.0
2023-05-24-10:00:54.609265,3.0,7.0,257.0
2023-05-24-10:00:54.610270,3.0,7.0,257.0
2023-05-24-10:00:54.611235,5.0,13.0,257.0
2023-05-24-10:00:54.612255,5.0,13.0,257.0
2023-05-24-10:00:54.613262,5.0,13.0,257.0
2023-05-24-10:00:54.614236,6.0,8.0,257.0
2023-05-24-10:00:54.615259,7.0,1.0,257.0
2023-05-24-10:00:54.616265,7.0,1.0,257.0
2023-05-24-10:00:54.617266,7.0,1.0,257.0
2023-05-24-10:00:54.618268,7.0,4.0,257.0
2023-05-24-10:00:54.619264,0.0,2.0,257.0
2023-05-24-10:00:54.620265,1.0,0.0,257.0
2023-05-24-10:00:54.621264,1.0,0.0,257.0
2023-05-24-10:00:54.622266,4.0,2.0,257.0
2023-05-24-10:00:54.623265,7.0,3.0,257.0
2023-05-24-10:00:54.624210,5.0,5.0,257.0
2023-05-24-10:00:54.625209,5.0,5.0,257.0
2023-05-24-10:00:54.627234,2.0,4.0,257.0
2023-05-24-10:00:54.627234,2.0,4.0,257.0
2023-05-24-10:00:54.628234,2.0,4.0,257.0
2023-05-24-10:00:54.629209,2.0,4.0,257.0
2023-05-24-10:00:54.630236,5.0,7.0,257.0
2023-05-24-10:00:54.631265,5.0,2.0,257.0
2023-05-24-10:00:54.632265,5.0,2.0,257.0
2023-05-24-10:00:54.633259,5.0,2.0,257.0
2023-05-24-10:00:54.634268,6.0,1.0,257.0
2023-05-24-10:00:54.635264,5.0,5.0,257.0
2023-05-24-10:00:54.636267,5.0,5.0,257.0
2023-05-24-10:00:54.637264,5.0,5.0,257.0
2023-05-24-10:00:54.638266,4.0,3.0,257.0
2023-05-24-10:00:54.639265,3.0,1.0,256.0
2023-05-24-10:00:54.640264,5.0,5.0,257.0
2023-05-24-10:00:54.641267,5.0,5.0,257.0
2023-05-24-10:00:54.642265,5.0,5.0,257.0
2023-05-24-10:00:54.643248,6.0,5.0,256.0
2023-05-24-10:00:54.644267,4.0,2.0,257.0
2023-05-24-10:00:54.645271,4.0,2.0,257.0
2023-05-24-10:00:54.646264,4.0,2.0,257.0
2023-05-24-10:00:54.647247,5.0,4.0,256.0
2023-05-24-10:00:54.648266,6.0,6.0,257.0
2023-05-24-10:00:54.649265,6.0,6.0,257.0
2023-05-24-10:00:54.650268,6.0,6.0,257.0
2023-05-24-10:00:54.651268,6.0,7.0,257.0
2023-05-24-10:00:54.652265,5.0,4.0,256.0
2023-05-24-10:00:54.653264,1.0,0.0,256.0
2023-05-24-10:00:54.654265,1.0,0.0,256.0
2023-05-24-10:00:54.655264,7.0,4.0,257.0
2023-05-24-10:00:54.656209,5.0,2.0,257.0
2023-05-24-10:00:54.657208,2.0,2.0,257.0
2023-05-24-10:00:54.658207,2.0,2.0,257.0
2023-05-24-10:00:54.659243,4.0,4.0,257.0
2023-05-24-10:00:54.661242,2.0,4.0,257.0
2023-05-24-10:00:54.661242,2.0,4.0,257.0
2023-05-24-10:00:54.662209,2.0,4.0,257.0
2023-05-24-10:00:54.663246,3.0,10.0,256.0
2023-05-24-10:00:54.664242,3.0,10.0,256.0
2023-05-24-10:00:54.665245,3.0,10.0,256.0
2023-05-24-10:00:54.666242,3.0,10.0,256.0
2023-05-24-10:00:54.667244,8.0,8.0,257.0
2023-05-24-10:00:54.668242,5.0,2.0,256.0
2023-05-24-10:00:54.669242,5.0,2.0,256.0
2023-05-24-10:00:54.670209,5.0,2.0,256.0
2023-05-24-10:00:54.671242,7.0,3.0,257.0
2023-05-24-10:00:54.672243,2.0,6.0,257.0
2023-05-24-10:00:54.673242,2.0,6.0,257.0
2023-05-24-10:00:54.674215,2.0,6.0,257.0
2023-05-24-10:00:54.675207,6.0,6.0,257.0
2023-05-24-10:00:54.676242,5.0,11.0,256.0
2023-05-24-10:00:54.677246,5.0,11.0,256.0
2023-05-24-10:00:54.678253,5.0,11.0,256.0
2023-05-24-10:00:54.679248,3.0,10.0,257.0
2023-05-24-10:00:54.680244,4.0,8.0,257.0
2023-05-24-10:00:54.681245,5.0,4.0,257.0
2023-05-24-10:00:54.682251,5.0,4.0,257.0
2023-05-24-10:00:54.683245,5.0,4.0,257.0
2023-05-24-10:00:54.684244,7.0,1.0,257.0
2023-05-24-10:00:54.685244,7.0,6.0,257.0
2023-05-24-10:00:54.686245,7.0,6.0,257.0
2023-05-24-10:00:54.687245,7.0,6.0,257.0
2023-05-24-10:00:54.688245,8.0,2.0,256.0
2023-05-24-10:00:54.689248,4.0,4.0,257.0
2023-05-24-10:00:54.690245,5.0,2.0,257.0
2023-05-24-10:00:54.691209,5.0,2.0,257.0
2023-05-24-10:00:54.692209,5.0,6.0,256.0
2023-05-24-10:00:54.694210,6.0,7.0,257.0
2023-05-24-10:00:54.694210,6.0,7.0,257.0
2023-05-24-10:00:54.695248,3.0,3.0,257.0
2023-05-24-10:00:54.696244,5.0,5.0,257.0
2023-05-24-10:00:54.697253,5.0,5.0,257.0
2023-05-24-10:00:54.698244,5.0,5.0,257.0
2023-05-24-10:00:54.699244,5.0,5.0,257.0
2023-05-24-10:00:54.700244,9.0,4.0,257.0
2023-05-24-10:00:54.701244,4.0,6.0,257.0
2023-05-24-10:00:54.702245,7.0,3.0,257.0
2023-05-24-10:00:54.703244,7.0,3.0,257.0
2023-05-24-10:00:54.704245,7.0,2.0,256.0
2023-05-24-10:00:54.705244,3.0,4.0,257.0
2023-05-24-10:00:54.706245,4.0,1.0,257.0
2023-05-24-10:00:54.707245,4.0,1.0,257.0
2023-05-24-10:00:54.708247,1.0,0.0,257.0
2023-05-24-10:00:54.709244,0.0,7.0,256.0
2023-05-24-10:00:54.710244,0.0,7.0,256.0
2023-05-24-10:00:54.711247,9.0,13.0,257.0
2023-05-24-10:00:54.712242,5.0,4.0,257.0
2023-05-24-10:00:54.713264,5.0,4.0,257.0
2023-05-24-10:00:54.714255,5.0,4.0,257.0
2023-05-24-10:00:54.715209,5.0,4.0,257.0
2023-05-24-10:00:54.716268,3.0,7.0,257.0
2023-05-24-10:00:54.717265,6.0,2.0,257.0
2023-05-24-10:00:54.718266,6.0,2.0,257.0
2023-05-24-10:00:54.719273,6.0,2.0,257.0
2023-05-24-10:00:54.720266,7.0,2.0,257.0
2023-05-24-10:00:54.721265,3.0,1.0,257.0
2023-05-24-10:00:54.722265,5.0,8.0,257.0
2023-05-24-10:00:54.723266,5.0,8.0,257.0
2023-05-24-10:00:54.724264,5.0,8.0,257.0
2023-05-24-10:00:54.725266,6.0,12.0,257.0
2023-05-24-10:00:54.726265,7.0,13.0,257.0
2023-05-24-10:00:54.727268,7.0,13.0,257.0
2023-05-24-10:00:54.728264,5.0,4.0,257.0
2023-05-24-10:00:54.729264,3.0,3.0,257.0
2023-05-24-10:00:54.731247,3.0,3.0,257.0
2023-05-24-10:00:54.731247,3.0,3.0,257.0
2023-05-24-10:00:54.732264,3.0,3.0,257.0
2023-05-24-10:00:54.733264,3.0,0.0,257.0
2023-05-24-10:00:54.734266,6.0,1.0,257.0
2023-05-24-10:00:54.735265,6.0,1.0,257.0
2023-05-24-10:00:54.736266,6.0,1.0,257.0
2023-05-24-10:00:54.737265,7.0,3.0,257.0
2023-05-24-10:00:54.738264,6.0,2.0,257.0
2023-05-24-10:00:54.739265,4.0,2.0,257.0
2023-05-24-10:00:54.740210,4.0,2.0,257.0
2023-05-24-10:00:54.741210,7.0,5.0,257.0
2023-05-24-10:00:54.742235,5.0,5.0,256.0
2023-05-24-10:00:54.743238,3.0,3.0,257.0
2023-05-24-10:00:54.744235,3.0,3.0,257.0
2023-05-24-10:00:54.745236,3.0,8.0,257.0
2023-05-24-10:00:54.746234,6.0,7.0,257.0
2023-05-24-10:00:54.747235,6.0,7.0,257.0
2023-05-24-10:00:54.748235,6.0,7.0,257.0
2023-05-24-10:00:54.749236,9.0,8.0,257.0
2023-05-24-10:00:54.750236,3.0,6.0,256.0
2023-05-24-10:00:54.751235,3.0,6.0,256.0
2023-05-24-10:00:54.752241,3.0,6.0,256.0
2023-05-24-10:00:54.753235,0.0,4.0,257.0
2023-05-24-10:00:54.754235,4.0,10.0,257.0
2023-05-24-10:00:54.755235,5.0,6.0,257.0
2023-05-24-10:00:54.756209,5.0,6.0,257.0
2023-05-24-10:00:54.757235,8.0,7.0,257.0
2023-05-24-10:00:54.758237,4.0,6.0,257.0
2023-05-24-10:00:54.759238,1.0,7.0,257.0
2023-05-24-10:00:54.760231,1.0,7.0,257.0
2023-05-24-10:00:54.761235,4.0,7.0,257.0
2023-05-24-10:00:54.762235,4.0,5.0,256.0
2023-05-24-10:00:54.764234,4.0,5.0,256.0
2023-05-24-10:00:54.764234,8.0,3.0,257.0
2023-05-24-10:00:54.765256,5.0,2.0,256.0
2023-05-24-10:00:54.766255,5.0,3.0,256.0
2023-05-24-10:00:54.767254,5.0,3.0,256.0
2023-05-24-10:00:54.768255,5.0,3.0,256.0
2023-05-24-10:00:54.769256,5.0,3.0,256.0
2023-05-24-10:00:54.770255,6.0,0.0,257.0
2023-05-24-10:00:54.771235,3.0,0.0,257.0
2023-05-24-10:00:54.772208,3.0,0.0,257.0
2023-05-24-10:00:54.773207,3.0,0.0,257.0
2023-05-24-10:00:54.774249,7.0,11.0,257.0
2023-05-24-10:00:54.775208,5.0,10.0,257.0
2023-05-24-10:00:54.776232,5.0,10.0,257.0
2023-05-24-10:00:54.777235,5.0,10.0,257.0
2023-05-24-10:00:54.778209,6.0,6.0,257.0
2023-05-24-10:00:54.779235,8.0,3.0,257.0
2023-05-24-10:00:54.780232,8.0,3.0,257.0
2023-05-24-10:00:54.781243,8.0,3.0,257.0
2023-05-24-10:00:54.782243,3.0,4.0,257.0
2023-05-24-10:00:54.783242,3.0,1.0,256.0
2023-05-24-10:00:54.784243,4.0,1.0,256.0
2023-05-24-10:00:54.785242,4.0,1.0,256.0
2023-05-24-10:00:54.786245,9.0,10.0,257.0
2023-05-24-10:00:54.787242,3.0,0.0,256.0
2023-05-24-10:00:54.788249,3.0,0.0,256.0
2023-05-24-10:00:54.789242,3.0,0.0,256.0
2023-05-24-10:00:54.790243,3.0,1.0,257.0
2023-05-24-10:00:54.791211,4.0,7.0,256.0
2023-05-24-10:00:54.792209,4.0,7.0,256.0
2023-05-24-10:00:54.793251,4.0,7.0,256.0
2023-05-24-10:00:54.794242,9.0,8.0,257.0
2023-05-24-10:00:54.796244,4.0,2.0,256.0
2023-05-24-10:00:54.796244,4.0,2.0,256.0
2023-05-24-10:00:54.797209,4.0,2.0,256.0
2023-05-24-10:00:54.798266,1.0,0.0,257.0
2023-05-24-10:00:54.799265,3.0,6.0,257.0
2023-05-24-10:00:54.800266,5.0,7.0,256.0
2023-05-24-10:00:54.801215,5.0,7.0,256.0
2023-05-24-10:00:54.802264,8.0,6.0,257.0
2023-05-24-10:00:54.803231,4.0,1.0,256.0
2023-05-24-10:00:54.804264,4.0,1.0,256.0
2023-05-24-10:00:54.805278,4.0,1.0,256.0
2023-05-24-10:00:54.806265,3.0,3.0,256.0
2023-05-24-10:00:54.807268,5.0,5.0,257.0
2023-05-24-10:00:54.808249,3.0,6.0,257.0
2023-05-24-10:00:54.809265,3.0,6.0,257.0
2023-05-24-10:00:54.810268,3.0,6.0,257.0
2023-05-24-10:00:54.811264,2.0,6.0,257.0
2023-05-24-10:00:54.812265,5.0,7.0,257.0
2023-05-24-10:00:54.813265,6.0,9.0,257.0
2023-05-24-10:00:54.814265,6.0,9.0,257.0
2023-05-24-10:00:54.815265,5.0,7.0,256.0
2023-05-24-10:00:54.816266,4.0,7.0,257.0
2023-05-24-10:00:54.817265,6.0,7.0,257.0
2023-05-24-10:00:54.818265,6.0,7.0,257.0
2023-05-24-10:00:54.819208,4.0,1.0,256.0
2023-05-24-10:00:54.820247,4.0,4.0,257.0
2023-05-24-10:00:54.821265,4.0,4.0,257.0
2023-05-24-10:00:54.822265,4.0,4.0,257.0
2023-05-24-10:00:54.823268,2.0,1.0,257.0
2023-05-24-10:00:54.824264,5.0,3.0,257.0
2023-05-24-10:00:54.825245,5.0,1.0,257.0
2023-05-24-10:00:54.826268,5.0,1.0,257.0
2023-05-24-10:00:54.827245,3.0,1.0,257.0
2023-05-24-10:00:54.828265,3.0,9.0,257.0
2023-05-24-10:00:54.829264,3.0,7.0,257.0
2023-05-24-10:00:54.831243,3.0,7.0,257.0
2023-05-24-10:00:54.831243,5.0,6.0,257.0
2023-05-24-10:00:54.832271,5.0,7.0,257.0
2023-05-24-10:00:54.833265,5.0,7.0,257.0
2023-05-24-10:00:54.834265,5.0,7.0,257.0
2023-05-24-10:00:54.835266,8.0,7.0,256.0
2023-05-24-10:00:54.836265,8.0,1.0,257.0
2023-05-24-10:00:54.837265,7.0,1.0,257.0
2023-05-24-10:00:54.838209,7.0,1.0,257.0
2023-05-24-10:00:54.839268,3.0,1.0,257.0
2023-05-24-10:00:54.840265,0.0,2.0,257.0
2023-05-24-10:00:54.841210,6.0,6.0,257.0
2023-05-24-10:00:54.842209,6.0,6.0,257.0
2023-05-24-10:00:54.843244,7.0,10.0,256.0
2023-05-24-10:00:54.844233,4.0,7.0,257.0
2023-05-24-10:00:54.845235,5.0,6.0,257.0
2023-05-24-10:00:54.846231,5.0,6.0,257.0
2023-05-24-10:00:54.847235,4.0,5.0,257.0
2023-05-24-10:00:54.848236,5.0,2.0,257.0
2023-05-24-10:00:54.849235,8.0,2.0,257.0
2023-05-24-10:00:54.850236,8.0,2.0,257.0
2023-05-24-10:00:54.851256,8.0,2.0,257.0
2023-05-24-10:00:54.852256,8.0,3.0,257.0
2023-05-24-10:00:54.853256,6.0,7.0,257.0
2023-05-24-10:00:54.854254,6.0,7.0,257.0
2023-05-24-10:00:54.855259,6.0,7.0,257.0
2023-05-24-10:00:54.856256,3.0,4.0,257.0
2023-05-24-10:00:54.857257,3.0,6.0,257.0
2023-05-24-10:00:54.858209,3.0,6.0,257.0
2023-05-24-10:00:54.859265,3.0,6.0,257.0
2023-05-24-10:00:54.860265,6.0,7.0,257.0
2023-05-24-10:00:54.861265,2.0,7.0,257.0
2023-05-24-10:00:54.862268,4.0,6.0,257.0
2023-05-24-10:00:54.863264,4.0,6.0,257.0
2023-05-24-10:00:54.864266,7.0,6.0,257.0
2023-05-24-10:00:54.865265,6.0,1.0,257.0
2023-05-24-10:00:54.867243,6.0,1.0,257.0
2023-05-24-10:00:54.867243,6.0,1.0,257.0
2023-05-24-10:00:54.868265,6.0,1.0,257.0
2023-05-24-10:00:54.869256,3.0,3.0,256.0
2023-05-24-10:00:54.870256,4.0,8.0,257.0
2023-05-24-10:00:54.871268,4.0,8.0,257.0
2023-05-24-10:00:54.872263,7.0,8.0,257.0
2023-05-24-10:00:54.873256,3.0,5.0,257.0
2023-05-24-10:00:54.874259,2.0,5.0,257.0
2023-05-24-10:00:54.875257,2.0,5.0,257.0
2023-05-24-10:00:54.876256,5.0,8.0,257.0
2023-05-24-10:00:54.877234,6.0,2.0,256.0
2023-05-24-10:00:54.878207,2.0,0.0,257.0
2023-05-24-10:00:54.879209,2.0,0.0,257.0
2023-05-24-10:00:54.880257,6.0,6.0,256.0
2023-05-24-10:00:54.881256,6.0,6.0,256.0
2023-05-24-10:00:54.882255,6.0,6.0,256.0
2023-05-24-10:00:54.883209,6.0,6.0,256.0
2023-05-24-10:00:54.884256,6.0,7.0,257.0
2023-05-24-10:00:54.885257,8.0,10.0,256.0
2023-05-24-10:00:54.886255,4.0,3.0,256.0
2023-05-24-10:00:54.887207,4.0,3.0,256.0
2023-05-24-10:00:54.888255,4.0,3.0,257.0
2023-05-24-10:00:54.889255,3.0,4.0,256.0
2023-05-24-10:00:54.890259,3.0,4.0,256.0
2023-05-24-10:00:54.891208,3.0,4.0,256.0
2023-05-24-10:00:54.892245,3.0,4.0,256.0
2023-05-24-10:00:54.893265,5.0,3.0,257.0
2023-05-24-10:00:54.894265,5.0,3.0,257.0
2023-05-24-10:00:54.895264,5.0,3.0,257.0
2023-05-24-10:00:54.896266,5.0,3.0,257.0
2023-05-24-10:00:54.897233,4.0,8.0,257.0
2023-05-24-10:00:54.898244,7.0,4.0,257.0
2023-05-24-10:00:54.899227,7.0,4.0,257.0
2023-05-24-10:00:54.900242,5.0,0.0,257.0
2023-05-24-10:00:54.901235,2.0,2.0,257.0
2023-05-24-10:00:54.902239,2.0,2.0,257.0
2023-05-24-10:00:54.904228,3.0,2.0,257.0
2023-05-24-10:00:54.904228,5.0,0.0,257.0
2023-05-24-10:00:54.905209,4.0,2.0,257.0
2023-05-24-10:00:54.906208,4.0,5.0,257.0
2023-05-24-10:00:54.907208,4.0,5.0,257.0
2023-05-24-10:00:54.908210,4.0,5.0,257.0
2023-05-24-10:00:54.909214,2.0,6.0,257.0
2023-05-24-10:00:54.910209,5.0,8.0,257.0
2023-05-24-10:00:54.911208,8.0,6.0,257.0
2023-05-24-10:00:54.912209,8.0,6.0,257.0
2023-05-24-10:00:54.913216,2.0,2.0,256.0
2023-05-24-10:00:54.914212,5.0,2.0,257.0
2023-05-24-10:00:54.915244,7.0,5.0,257.0
2023-05-24-10:00:54.916209,7.0,5.0,257.0
2023-05-24-10:00:54.917209,4.0,1.0,257.0
2023-05-24-10:00:54.918208,3.0,4.0,257.0
2023-05-24-10:00:54.919209,3.0,4.0,257.0
2023-05-24-10:00:54.920243,3.0,4.0,257.0
2023-05-24-10:00:54.921244,9.0,4.0,256.0
2023-05-24-10:00:54.922242,4.0,6.0,257.0
2023-05-24-10:00:54.923289,4.0,6.0,257.0
2023-05-24-10:00:54.924209,4.0,6.0,257.0
2023-05-24-10:00:54.925261,7.0,3.0,256.0
2023-05-24-10:00:54.926246,4.0,4.0,257.0
2023-05-24-10:00:54.927212,6.0,7.0,257.0
2023-05-24-10:00:54.928209,6.0,7.0,257.0
2023-05-24-10:00:54.929242,5.0,5.0,256.0
2023-05-24-10:00:54.930245,7.0,2.0,257.0
2023-05-24-10:00:54.931242,6.0,3.0,257.0
2023-05-24-10:00:54.933235,8.0,1.0,257.0
2023-05-24-10:00:54.933235,3.0,3.0,257.0
2023-05-24-10:00:54.934255,5.0,1.0,257.0
2023-05-24-10:00:54.935258,7.0,6.0,257.0
2023-05-24-10:00:54.936254,7.0,6.0,257.0
2023-05-24-10:00:54.937255,7.0,6.0,257.0
2023-05-24-10:00:54.938254,6.0,5.0,257.0
2023-05-24-10:00:54.939255,4.0,7.0,257.0
2023-05-24-10:00:54.940254,4.0,7.0,257.0
2023-05-24-10:00:54.941224,4.0,7.0,257.0
2023-05-24-10:00:54.942210,5.0,7.0,257.0
2023-05-24-10:00:54.943212,3.0,7.0,257.0
2023-05-24-10:00:54.944210,5.0,8.0,257.0
2023-05-24-10:00:54.945234,5.0,8.0,257.0
2023-05-24-10:00:54.946235,5.0,6.0,257.0
2023-05-24-10:00:54.947251,5.0,2.0,257.0
2023-05-24-10:00:54.948230,5.0,2.0,257.0
2023-05-24-10:00:54.949230,4.0,0.0,257.0
2023-05-24-10:00:54.950211,4.0,0.0,256.0
2023-05-24-10:00:54.951207,8.0,2.0,257.0
2023-05-24-10:00:54.952230,8.0,2.0,257.0
2023-05-24-10:00:54.953228,8.0,2.0,257.0
2023-05-24-10:00:54.954229,8.0,6.0,256.0
2023-05-24-10:00:54.955228,5.0,3.0,256.0
2023-05-24-10:00:54.956234,6.0,4.0,257.0
2023-05-24-10:00:54.957237,6.0,4.0,257.0
2023-05-24-10:00:54.958208,6.0,7.0,257.0
2023-05-24-10:00:54.959235,5.0,3.0,257.0
2023-05-24-10:00:54.960209,5.0,3.0,257.0
2023-05-24-10:00:54.961235,5.0,3.0,257.0
2023-05-24-10:00:54.962248,6.0,1.0,257.0
2023-05-24-10:00:54.963210,5.0,5.0,257.0
2023-05-24-10:00:54.964238,5.0,5.0,257.0
2023-05-24-10:00:54.965208,5.0,5.0,257.0
2023-05-24-10:00:54.966235,3.0,2.0,256.0
2023-05-24-10:00:54.967239,9.0,3.0,257.0
2023-05-24-10:00:54.969208,9.0,3.0,257.0
2023-05-24-10:00:54.969208,9.0,3.0,257.0
2023-05-24-10:00:54.970259,5.0,4.0,256.0
2023-05-24-10:00:54.971254,5.0,1.0,257.0
2023-05-24-10:00:54.972254,5.0,1.0,257.0
2023-05-24-10:00:54.973235,5.0,1.0,257.0
2023-05-24-10:00:54.974256,5.0,2.0,257.0
2023-05-24-10:00:54.975236,5.0,0.0,256.0
2023-05-24-10:00:54.976237,5.0,5.0,257.0
2023-05-24-10:00:54.977235,5.0,5.0,257.0
2023-05-24-10:00:54.978236,2.0,5.0,257.0
2023-05-24-10:00:54.979235,5.0,6.0,257.0
2023-05-24-10:00:54.980238,5.0,6.0,257.0
2023-05-24-10:00:54.981241,5.0,6.0,257.0
2023-05-24-10:00:54.982235,4.0,1.0,257.0
2023-05-24-10:00:54.983238,7.0,2.0,257.0
2023-05-24-10:00:54.984235,7.0,2.0,257.0
2023-05-24-10:00:54.985243,7.0,2.0,257.0
2023-05-24-10:00:54.986235,7.0,2.0,257.0
2023-05-24-10:00:54.987209,7.0,2.0,256.0
2023-05-24-10:00:54.988234,6.0,4.0,257.0
2023-05-24-10:00:54.989208,6.0,4.0,257.0
2023-05-24-10:00:54.990234,6.0,4.0,257.0
2023-05-24-10:00:54.991210,6.0,4.0,257.0
2023-05-24-10:00:54.992235,4.0,6.0,257.0
2023-05-24-10:00:54.993232,4.0,6.0,257.0
2023-05-24-10:00:54.994235,4.0,6.0,257.0
2023-05-24-10:00:54.995234,4.0,6.0,257.0
2023-05-24-10:00:54.996234,5.0,8.0,256.0
2023-05-24-10:00:54.997233,4.0,7.0,257.0
2023-05-24-10:00:54.998234,4.0,7.0,257.0
2023-05-24-10:00:54.999237,4.0,4.0,257.0
2023-05-24-10:00:55.000233,6.0,5.0,257.0
2023-05-24-10:00:55.002233,9.0,4.0,257.0
2023-05-24-10:00:55.002233,9.0,4.0,257.0
2023-05-24-10:00:55.003235,4.0,3.0,257.0
2023-05-24-10:00:55.004209,7.0,6.0,257.0
2023-05-24-10:00:55.005233,7.0,6.0,257.0
2023-05-24-10:00:55.006234,7.0,6.0,257.0
2023-05-24-10:00:55.007235,1.0,1.0,257.0
2023-05-24-10:00:55.008209,3.0,11.0,257.0
2023-05-24-10:00:55.009232,3.0,11.0,257.0
2023-05-24-10:00:55.010209,3.0,11.0,257.0
2023-05-24-10:00:55.011239,6.0,14.0,257.0
2023-05-24-10:00:55.012234,6.0,2.0,257.0
2023-05-24-10:00:55.013233,6.0,2.0,257.0
2023-05-24-10:00:55.014209,6.0,2.0,257.0
2023-05-24-10:00:55.015237,5.0,4.0,257.0
2023-05-24-10:00:55.016233,5.0,1.0,257.0
2023-05-24-10:00:55.017236,5.0,1.0,257.0
2023-05-24-10:00:55.018263,5.0,1.0,257.0
2023-05-24-10:00:55.019253,9.0,7.0,257.0
2023-05-24-10:00:55.020253,5.0,5.0,257.0
2023-05-24-10:00:55.021253,5.0,5.0,257.0
2023-05-24-10:00:55.022257,5.0,5.0,257.0
2023-05-24-10:00:55.023253,8.0,10.0,257.0
2023-05-24-10:00:55.024255,1.0,0.0,257.0
2023-05-24-10:00:55.025234,1.0,0.0,257.0
2023-05-24-10:00:55.026253,1.0,0.0,257.0
2023-05-24-10:00:55.027253,1.0,0.0,257.0
2023-05-24-10:00:55.028258,4.0,2.0,257.0
2023-05-24-10:00:55.029254,4.0,4.0,256.0
2023-05-24-10:00:55.030254,4.0,4.0,256.0
2023-05-24-10:00:55.031257,4.0,4.0,256.0
2023-05-24-10:00:55.032254,5.0,2.0,257.0
2023-05-24-10:00:55.033254,3.0,4.0,257.0
2023-05-24-10:00:55.035235,3.0,4.0,257.0
2023-05-24-10:00:55.036209,2.0,1.0,257.0
2023-05-24-10:00:55.036209,2.0,1.0,257.0
2023-05-24-10:00:55.037253,2.0,1.0,257.0
2023-05-24-10:00:55.038207,2.0,1.0,257.0
2023-05-24-10:00:55.039253,2.0,1.0,257.0
2023-05-24-10:00:55.040252,4.0,5.0,257.0
2023-05-24-10:00:55.041210,5.0,1.0,257.0
2023-05-24-10:00:55.042208,5.0,1.0,257.0
2023-05-24-10:00:55.043257,5.0,1.0,257.0
2023-05-24-10:00:55.044254,4.0,4.0,257.0
2023-05-24-10:00:55.045253,1.0,7.0,256.0
2023-05-24-10:00:55.046253,1.0,7.0,256.0
2023-05-24-10:00:55.047257,1.0,7.0,256.0
2023-05-24-10:00:55.048255,5.0,9.0,257.0
2023-05-24-10:00:55.049235,3.0,10.0,257.0
2023-05-24-10:00:55.050254,3.0,10.0,257.0
2023-05-24-10:00:55.051209,3.0,10.0,257.0
2023-05-24-10:00:55.052262,5.0,8.0,257.0
2023-05-24-10:00:55.053235,5.0,7.0,257.0
2023-05-24-10:00:55.054235,6.0,6.0,257.0
2023-05-24-10:00:55.055210,6.0,6.0,257.0
2023-05-24-10:00:55.056236,3.0,4.0,257.0
2023-05-24-10:00:55.057234,2.0,0.0,257.0
2023-05-24-10:00:55.058236,3.0,2.0,257.0
2023-05-24-10:00:55.059212,3.0,2.0,257.0
2023-05-24-10:00:55.060208,6.0,8.0,257.0
2023-05-24-10:00:55.061208,6.0,10.0,257.0
2023-05-24-10:00:55.062211,6.0,10.0,257.0
2023-05-24-10:00:55.063211,6.0,10.0,257.0
2023-05-24-10:00:55.064212,6.0,10.0,257.0
2023-05-24-10:00:55.065209,4.0,10.0,257.0
2023-05-24-10:00:55.066211,7.0,10.0,257.0
2023-05-24-10:00:55.067211,7.0,10.0,257.0
2023-05-24-10:00:55.068234,7.0,10.0,257.0
2023-05-24-10:00:55.069213,2.0,5.0,257.0
2023-05-24-10:00:55.071209,5.0,4.0,257.0
2023-05-24-10:00:55.072208,5.0,4.0,257.0
2023-05-24-10:00:55.072208,4.0,10.0,257.0
2023-05-24-10:00:55.073209,7.0,8.0,256.0
2023-05-24-10:00:55.074236,7.0,8.0,256.0
2023-05-24-10:00:55.075210,7.0,8.0,256.0
2023-05-24-10:00:55.076234,7.0,8.0,256.0
2023-05-24-10:00:55.077233,3.0,5.0,256.0
2023-05-24-10:00:55.078209,1.0,8.0,256.0
2023-05-24-10:00:55.079210,4.0,9.0,256.0
2023-05-24-10:00:55.080212,4.0,9.0,256.0
2023-05-24-10:00:55.081214,2.0,1.0,256.0
2023-05-24-10:00:55.082211,2.0,3.0,256.0
2023-05-24-10:00:55.083212,4.0,1.0,256.0
2023-05-24-10:00:55.084211,4.0,1.0,256.0
2023-05-24-10:00:55.085210,5.0,5.0,257.0
2023-05-24-10:00:55.086211,5.0,5.0,257.0
2023-05-24-10:00:55.087211,5.0,5.0,257.0
2023-05-24-10:00:55.088210,5.0,5.0,257.0
2023-05-24-10:00:55.089211,5.0,2.0,256.0
2023-05-24-10:00:55.090210,5.0,2.0,257.0
2023-05-24-10:00:55.091211,7.0,6.0,256.0
2023-05-24-10:00:55.092212,7.0,6.0,256.0
2023-05-24-10:00:55.093212,1.0,4.0,256.0
2023-05-24-10:00:55.094208,5.0,9.0,257.0
2023-05-24-10:00:55.095212,3.0,7.0,256.0
2023-05-24-10:00:55.096213,3.0,7.0,256.0
2023-05-24-10:00:55.097212,6.0,5.0,256.0
2023-05-24-10:00:55.098212,4.0,4.0,256.0
2023-05-24-10:00:55.099245,7.0,3.0,256.0
2023-05-24-10:00:55.100213,7.0,3.0,256.0
2023-05-24-10:00:55.101211,5.0,1.0,257.0
2023-05-24-10:00:55.102212,5.0,3.0,256.0
2023-05-24-10:00:55.103212,5.0,4.0,256.0
2023-05-24-10:00:55.104210,5.0,4.0,256.0
2023-05-24-10:00:55.106211,5.0,4.0,256.0
2023-05-24-10:00:55.106211,6.0,4.0,256.0
2023-05-24-10:00:55.107209,5.0,4.0,256.0
2023-05-24-10:00:55.108210,5.0,4.0,256.0
2023-05-24-10:00:55.109210,5.0,4.0,256.0
2023-05-24-10:00:55.110234,7.0,8.0,256.0
2023-05-24-10:00:55.111239,5.0,4.0,256.0
2023-05-24-10:00:55.112209,5.0,4.0,256.0
2023-05-24-10:00:55.113236,5.0,4.0,256.0
2023-05-24-10:00:55.114209,4.0,3.0,256.0
2023-05-24-10:00:55.115211,6.0,3.0,256.0
2023-05-24-10:00:55.116212,4.0,1.0,256.0
2023-05-24-10:00:55.117207,4.0,1.0,256.0
2023-05-24-10:00:55.118209,3.0,6.0,257.0
2023-05-24-10:00:55.119211,7.0,5.0,257.0
2023-05-24-10:00:55.120210,9.0,4.0,256.0
2023-05-24-10:00:55.121209,9.0,4.0,256.0
2023-05-24-10:00:55.122236,2.0,6.0,257.0
2023-05-24-10:00:55.123211,2.0,6.0,257.0
2023-05-24-10:00:55.124211,2.0,6.0,257.0
2023-05-24-10:00:55.125210,2.0,6.0,257.0
2023-05-24-10:00:55.126211,2.0,7.0,257.0
2023-05-24-10:00:55.127211,7.0,10.0,256.0
2023-05-24-10:00:55.128238,7.0,10.0,256.0
2023-05-24-10:00:55.129208,7.0,10.0,256.0
2023-05-24-10:00:55.130233,8.0,15.0,257.0
2023-05-24-10:00:55.131235,5.0,9.0,256.0
2023-05-24-10:00:55.132208,5.0,6.0,256.0
2023-05-24-10:00:55.133260,5.0,6.0,256.0
2023-05-24-10:00:55.134238,4.0,1.0,257.0
2023-05-24-10:00:55.135235,7.0,2.0,256.0
2023-05-24-10:00:55.136236,6.0,1.0,257.0
2023-05-24-10:00:55.137209,6.0,1.0,257.0
2023-05-24-10:00:55.138236,4.0,8.0,256.0
2023-05-24-10:00:55.140207,2.0,1.0,257.0
2023-05-24-10:00:55.140207,2.0,1.0,257.0
2023-05-24-10:00:55.141209,2.0,1.0,257.0
2023-05-24-10:00:55.142207,6.0,0.0,257.0
2023-05-24-10:00:55.143238,2.0,8.0,257.0
2023-05-24-10:00:55.144208,2.0,8.0,257.0
2023-05-24-10:00:55.145209,2.0,8.0,257.0
2023-05-24-10:00:55.146211,1.0,11.0,257.0
2023-05-24-10:00:55.147210,4.0,0.0,257.0
2023-05-24-10:00:55.148209,4.0,0.0,257.0
2023-05-24-10:00:55.149209,4.0,0.0,257.0
2023-05-24-10:00:55.150209,4.0,0.0,257.0
2023-05-24-10:00:55.151211,5.0,2.0,257.0
2023-05-24-10:00:55.152208,7.0,0.0,257.0
2023-05-24-10:00:55.153210,6.0,2.0,256.0
2023-05-24-10:00:55.154210,6.0,2.0,256.0
2023-05-24-10:00:55.155208,5.0,1.0,257.0
2023-05-24-10:00:55.156241,4.0,3.0,256.0
2023-05-24-10:00:55.157236,4.0,3.0,256.0
2023-05-24-10:00:55.158208,4.0,3.0,256.0
2023-05-24-10:00:55.159208,1.0,6.0,257.0
2023-05-24-10:00:55.160208,3.0,8.0,256.0
2023-05-24-10:00:55.161207,3.0,8.0,256.0
2023-05-24-10:00:55.162208,3.0,8.0,256.0
2023-05-24-10:00:55.163208,4.0,11.0,257.0
2023-05-24-10:00:55.164209,6.0,10.0,256.0
2023-05-24-10:00:55.165209,3.0,2.0,256.0
2023-05-24-10:00:55.166208,3.0,2.0,256.0
2023-05-24-10:00:55.167208,7.0,1.0,257.0
2023-05-24-10:00:55.168245,5.0,2.0,256.0
2023-05-24-10:00:55.169243,5.0,2.0,256.0
2023-05-24-10:00:55.170244,5.0,2.0,256.0
2023-05-24-10:00:55.171243,5.0,0.0,257.0
2023-05-24-10:00:55.173244,7.0,5.0,257.0
2023-05-24-10:00:55.173244,5.0,3.0,256.0
2023-05-24-10:00:55.174244,5.0,3.0,256.0
2023-05-24-10:00:55.175247,4.0,6.0,256.0
2023-05-24-10:00:55.176235,2.0,4.0,256.0
2023-05-24-10:00:55.177235,2.0,4.0,256.0
2023-05-24-10:00:55.178234,2.0,4.0,256.0
2023-05-24-10:00:55.179235,6.0,6.0,256.0
2023-05-24-10:00:55.180207,4.0,8.0,257.0
2023-05-24-10:00:55.181210,4.0,6.0,257.0
2023-05-24-10:00:55.182209,4.0,6.0,257.0
2023-05-24-10:00:55.183235,4.0,8.0,257.0
2023-05-24-10:00:55.184236,5.0,5.0,257.0
2023-05-24-10:00:55.185209,6.0,0.0,257.0
2023-05-24-10:00:55.186233,6.0,0.0,257.0
2023-05-24-10:00:55.187209,4.0,3.0,257.0
2023-05-24-10:00:55.188210,4.0,3.0,257.0
2023-05-24-10:00:55.189211,4.0,3.0,257.0
2023-05-24-10:00:55.190211,4.0,3.0,257.0
2023-05-24-10:00:55.191211,4.0,3.0,257.0
2023-05-24-10:00:55.192212,5.0,4.0,257.0
2023-05-24-10:00:55.193212,5.0,1.0,257.0
2023-05-24-10:00:55.194214,4.0,0.0,257.0
2023-05-24-10:00:55.195252,3.0,7.0,257.0
2023-05-24-10:00:55.196243,1.0,0.0,257.0
2023-05-24-10:00:55.197244,3.0,7.0,257.0
2023-05-24-10:00:55.198246,9.0,11.0,257.0
2023-05-24-10:00:55.199246,7.0,13.0,256.0
2023-05-24-10:00:55.200244,5.0,2.0,256.0
2023-05-24-10:00:55.201243,1.0,1.0,257.0
2023-05-24-10:00:55.202245,6.0,8.0,257.0
2023-05-24-10:00:55.203243,9.0,10.0,256.0
2023-05-24-10:00:55.204243,8.0,6.0,256.0
2023-05-24-10:00:55.205243,7.0,4.0,256.0
2023-05-24-10:00:55.206243,6.0,4.0,257.0
2023-05-24-10:00:55.207238,5.0,3.0,256.0
2023-05-24-10:00:55.208211,4.0,1.0,257.0
2023-05-24-10:00:55.210234,3.0,7.0,257.0
2023-05-24-10:00:55.210234,1.0,4.0,256.0
2023-05-24-10:00:55.211254,4.0,8.0,257.0
2023-05-24-10:00:55.212254,6.0,7.0,257.0
2023-05-24-10:00:55.213253,8.0,4.0,257.0
2023-05-24-10:00:55.214255,8.0,4.0,257.0
2023-05-24-10:00:55.215256,8.0,4.0,257.0
2023-05-24-10:00:55.216261,3.0,4.0,257.0
2023-05-24-10:00:55.217256,4.0,1.0,257.0
2023-05-24-10:00:55.218254,4.0,1.0,257.0
2023-05-24-10:00:55.219208,4.0,1.0,257.0
2023-05-24-10:00:55.220207,2.0,0.0,257.0
2023-05-24-10:00:55.221254,6.0,7.0,257.0
2023-05-24-10:00:55.222252,6.0,7.0,257.0
2023-05-24-10:00:55.223209,6.0,7.0,257.0
2023-05-24-10:00:55.224255,4.0,2.0,257.0
2023-05-24-10:00:55.225255,5.0,9.0,257.0
2023-05-24-10:00:55.226253,5.0,9.0,257.0
2023-05-24-10:00:55.227206,5.0,9.0,257.0
2023-05-24-10:00:55.228254,6.0,7.0,257.0
2023-05-24-10:00:55.229259,2.0,3.0,256.0
2023-05-24-10:00:55.230255,2.0,3.0,256.0
2023-05-24-10:00:55.231253,2.0,3.0,256.0
2023-05-24-10:00:55.232255,3.0,5.0,256.0
2023-05-24-10:00:55.233256,5.0,3.0,257.0
2023-05-24-10:00:55.234253,5.0,3.0,257.0
2023-05-24-10:00:55.235252,5.0,3.0,257.0
2023-05-24-10:00:55.236254,5.0,3.0,257.0
2023-05-24-10:00:55.237253,7.0,6.0,257.0
2023-05-24-10:00:55.238244,7.0,6.0,257.0
2023-05-24-10:00:55.239266,7.0,6.0,257.0
2023-05-24-10:00:55.241244,7.0,6.0,257.0
2023-05-24-10:00:55.241244,5.0,6.0,257.0
2023-05-24-10:00:55.242235,5.0,6.0,257.0
2023-05-24-10:00:55.243235,5.0,6.0,257.0
2023-05-24-10:00:55.244243,5.0,6.0,257.0
2023-05-24-10:00:55.245262,5.0,6.0,257.0
2023-05-24-10:00:55.246264,2.0,2.0,257.0
2023-05-24-10:00:55.247262,3.0,2.0,257.0
2023-05-24-10:00:55.248269,3.0,2.0,257.0
2023-05-24-10:00:55.249265,3.0,2.0,256.0
2023-05-24-10:00:55.250262,7.0,3.0,257.0
2023-05-24-10:00:55.251262,7.0,5.0,257.0
2023-05-24-10:00:55.252263,7.0,5.0,257.0
2023-05-24-10:00:55.253263,9.0,2.0,257.0
2023-05-24-10:00:55.254263,6.0,2.0,257.0
2023-05-24-10:00:55.255266,6.0,4.0,257.0
2023-05-24-10:00:55.256262,6.0,4.0,257.0
2023-05-24-10:00:55.257263,6.0,6.0,257.0
2023-05-24-10:00:55.258210,2.0,12.0,257.0
2023-05-24-10:00:55.259245,2.0,12.0,257.0
2023-05-24-10:00:55.260244,2.0,12.0,257.0
2023-05-24-10:00:55.261245,3.0,13.0,257.0
2023-05-24-10:00:55.262245,6.0,1.0,257.0
2023-05-24-10:00:55.263244,5.0,2.0,257.0
2023-05-24-10:00:55.264209,5.0,2.0,257.0
2023-05-24-10:00:55.265244,4.0,1.0,257.0
2023-05-24-10:00:55.266245,3.0,3.0,257.0
2023-05-24-10:00:55.267244,6.0,0.0,257.0
2023-05-24-10:00:55.268209,6.0,0.0,257.0
2023-05-24-10:00:55.269244,7.0,1.0,257.0
2023-05-24-10:00:55.270244,4.0,2.0,257.0
2023-05-24-10:00:55.271266,4.0,2.0,257.0
2023-05-24-10:00:55.272245,4.0,2.0,257.0
2023-05-24-10:00:55.273263,6.0,4.0,257.0
2023-05-24-10:00:55.274263,3.0,3.0,257.0
2023-05-24-10:00:55.276265,3.0,3.0,257.0
2023-05-24-10:00:55.276265,5.0,7.0,257.0
2023-05-24-10:00:55.277268,2.0,6.0,257.0
2023-05-24-10:00:55.278255,2.0,6.0,257.0
2023-05-24-10:00:55.279262,2.0,6.0,257.0
2023-05-24-10:00:55.280264,2.0,6.0,257.0
2023-05-24-10:00:55.281265,2.0,6.0,257.0
2023-05-24-10:00:55.282262,5.0,3.0,257.0
2023-05-24-10:00:55.283265,6.0,4.0,257.0
2023-05-24-10:00:55.284263,6.0,6.0,257.0
2023-05-24-10:00:55.285263,6.0,6.0,257.0
2023-05-24-10:00:55.286263,7.0,5.0,257.0
2023-05-24-10:00:55.287266,4.0,7.0,257.0
2023-05-24-10:00:55.288263,3.0,5.0,257.0
2023-05-24-10:00:55.289262,3.0,5.0,257.0
2023-05-24-10:00:55.290212,3.0,1.0,257.0
2023-05-24-10:00:55.291211,3.0,1.0,257.0
2023-05-24-10:00:55.292212,3.0,1.0,257.0
2023-05-24-10:00:55.293210,3.0,1.0,257.0
2023-05-24-10:00:55.294212,2.0,4.0,257.0
2023-05-24-10:00:55.295212,6.0,10.0,256.0
2023-05-24-10:00:55.296210,6.0,10.0,256.0
2023-05-24-10:00:55.297212,6.0,10.0,256.0
2023-05-24-10:00:55.298246,5.0,8.0,257.0
2023-05-24-10:00:55.299243,5.0,3.0,257.0
2023-05-24-10:00:55.300247,3.0,5.0,256.0
2023-05-24-10:00:55.301244,3.0,5.0,256.0
2023-05-24-10:00:55.302244,3.0,7.0,257.0
2023-05-24-10:00:55.303248,6.0,0.0,257.0
2023-05-24-10:00:55.304245,3.0,3.0,256.0
2023-05-24-10:00:55.305245,3.0,3.0,256.0
2023-05-24-10:00:55.306244,4.0,3.0,256.0
2023-05-24-10:00:55.307245,4.0,3.0,256.0
2023-05-24-10:00:55.309244,5.0,8.0,257.0
2023-05-24-10:00:55.309244,5.0,7.0,256.0
2023-05-24-10:00:55.310257,3.0,8.0,256.0
2023-05-24-10:00:55.311255,4.0,8.0,257.0
2023-05-24-10:00:55.312236,4.0,8.0,257.0
2023-05-24-10:00:55.313213,4.0,8.0,257.0
2023-05-24-10:00:55.314256,2.0,3.0,257.0
2023-05-24-10:00:55.315256,8.0,11.0,257.0
2023-05-24-10:00:55.316257,8.0,11.0,257.0
2023-05-24-10:00:55.317266,8.0,11.0,257.0
2023-05-24-10:00:55.318256,6.0,3.0,256.0
2023-05-24-10:00:55.319259,5.0,2.0,257.0
2023-05-24-10:00:55.320255,5.0,2.0,257.0
2023-05-24-10:00:55.321244,5.0,2.0,257.0
2023-05-24-10:00:55.322268,5.0,2.0,257.0
2023-05-24-10:00:55.323256,10.0,9.0,257.0
2023-05-24-10:00:55.324259,6.0,6.0,257.0
2023-05-24-10:00:55.325210,6.0,6.0,257.0
2023-05-24-10:00:55.326235,4.0,5.0,257.0
2023-05-24-10:00:55.327235,6.0,4.0,257.0
2023-05-24-10:00:55.328236,6.0,4.0,257.0
2023-05-24-10:00:55.329232,6.0,4.0,257.0
2023-05-24-10:00:55.330236,6.0,4.0,257.0
2023-05-24-10:00:55.331235,5.0,3.0,257.0
2023-05-24-10:00:55.332237,6.0,0.0,257.0
2023-05-24-10:00:55.333235,6.0,0.0,257.0
2023-05-24-10:00:55.334236,6.0,0.0,257.0
2023-05-24-10:00:55.335238,3.0,0.0,256.0
2023-05-24-10:00:55.336233,6.0,3.0,257.0
2023-05-24-10:00:55.337255,8.0,5.0,257.0
2023-05-24-10:00:55.338259,8.0,5.0,257.0
2023-05-24-10:00:55.339255,7.0,6.0,256.0
2023-05-24-10:00:55.340255,7.0,10.0,257.0
2023-05-24-10:00:55.341256,7.0,10.0,257.0
2023-05-24-10:00:55.343235,7.0,10.0,257.0
2023-05-24-10:00:55.343235,7.0,10.0,257.0
2023-05-24-10:00:55.344228,3.0,9.0,257.0
2023-05-24-10:00:55.345235,4.0,7.0,257.0
2023-05-24-10:00:55.346235,4.0,7.0,257.0
2023-05-24-10:00:55.347236,5.0,11.0,257.0
2023-05-24-10:00:55.348238,5.0,0.0,257.0
2023-05-24-10:00:55.349235,5.0,0.0,257.0
2023-05-24-10:00:55.350209,5.0,0.0,257.0
2023-05-24-10:00:55.351239,5.0,0.0,257.0
2023-05-24-10:00:55.352235,4.0,1.0,257.0
2023-05-24-10:00:55.353238,4.0,1.0,257.0
2023-05-24-10:00:55.354209,4.0,1.0,257.0
2023-05-24-10:00:55.355235,6.0,1.0,257.0
2023-05-24-10:00:55.356235,3.0,2.0,257.0
2023-05-24-10:00:55.357234,3.0,2.0,257.0
2023-05-24-10:00:55.358210,3.0,2.0,257.0
2023-05-24-10:00:55.359210,7.0,12.0,257.0
2023-05-24-10:00:55.360236,8.0,10.0,257.0
2023-05-24-10:00:55.361235,8.0,10.0,257.0
2023-05-24-10:00:55.362211,8.0,10.0,257.0
2023-05-24-10:00:55.363246,8.0,10.0,257.0
2023-05-24-10:00:55.364209,3.0,3.0,257.0
2023-05-24-10:00:55.365239,1.0,2.0,257.0
2023-05-24-10:00:55.366235,1.0,2.0,257.0
2023-05-24-10:00:55.367239,1.0,2.0,257.0
2023-05-24-10:00:55.368235,1.0,2.0,257.0
2023-05-24-10:00:55.369236,5.0,8.0,257.0
2023-05-24-10:00:55.370235,8.0,6.0,257.0
2023-05-24-10:00:55.371236,8.0,6.0,257.0
2023-05-24-10:00:55.372236,8.0,6.0,257.0
2023-05-24-10:00:55.373235,3.0,3.0,257.0
2023-05-24-10:00:55.374236,3.0,3.0,257.0
2023-05-24-10:00:55.375234,3.0,3.0,257.0
2023-05-24-10:00:55.376253,4.0,5.0,257.0
2023-05-24-10:00:55.377235,2.0,4.0,257.0
2023-05-24-10:00:55.379235,2.0,4.0,257.0
2023-05-24-10:00:55.379235,3.0,3.0,257.0
2023-05-24-10:00:55.380256,4.0,5.0,257.0
2023-05-24-10:00:55.381255,4.0,5.0,257.0
2023-05-24-10:00:55.382255,4.0,5.0,257.0
2023-05-24-10:00:55.383258,4.0,5.0,257.0
2023-05-24-10:00:55.384256,7.0,2.0,257.0
2023-05-24-10:00:55.385255,7.0,3.0,256.0
2023-05-24-10:00:55.386259,6.0,3.0,256.0
2023-05-24-10:00:55.387254,6.0,3.0,256.0
2023-05-24-10:00:55.388263,3.0,4.0,257.0
2023-05-24-10:00:55.389262,5.0,2.0,256.0
2023-05-24-10:00:55.390264,6.0,2.0,257.0
2023-05-24-10:00:55.391209,6.0,2.0,257.0
2023-05-24-10:00:55.392237,2.0,4.0,257.0
2023-05-24-10:00:55.393256,1.0,13.0,257.0
2023-05-24-10:00:55.394256,1.0,13.0,257.0
2023-05-24-10:00:55.395209,1.0,13.0,257.0
2023-05-24-10:00:55.396209,4.0,14.0,257.0
2023-05-24-10:00:55.397255,3.0,2.0,256.0
2023-05-24-10:00:55.398255,3.0,2.0,256.0
2023-05-24-10:00:55.399232,3.0,2.0,256.0
2023-05-24-10:00:55.400236,6.0,2.0,257.0
2023-05-24-10:00:55.401236,7.0,1.0,257.0
2023-05-24-10:00:55.402236,7.0,1.0,257.0
2023-05-24-10:00:55.403234,7.0,1.0,257.0
2023-05-24-10:00:55.404235,7.0,1.0,257.0
2023-05-24-10:00:55.405235,6.0,3.0,257.0
2023-05-24-10:00:55.406236,6.0,3.0,257.0
2023-05-24-10:00:55.407234,6.0,3.0,257.0
2023-05-24-10:00:55.408209,6.0,3.0,257.0
2023-05-24-10:00:55.409236,5.0,9.0,257.0
2023-05-24-10:00:55.410236,6.0,9.0,257.0
2023-05-24-10:00:55.412234,6.0,9.0,257.0
2023-05-24-10:00:55.412234,6.0,9.0,257.0
2023-05-24-10:00:55.413256,8.0,10.0,257.0
2023-05-24-10:00:55.414255,7.0,2.0,257.0
2023-05-24-10:00:55.415259,7.0,2.0,257.0
2023-05-24-10:00:55.416254,7.0,2.0,257.0
2023-05-24-10:00:55.417256,4.0,2.0,257.0
2023-05-24-10:00:55.418259,6.0,2.0,257.0
2023-05-24-10:00:55.419256,6.0,2.0,257.0
2023-05-24-10:00:55.420258,6.0,2.0,257.0
2023-05-24-10:00:55.421256,0.0,3.0,256.0
2023-05-24-10:00:55.422265,8.0,3.0,257.0
2023-05-24-10:00:55.423257,8.0,3.0,257.0
2023-05-24-10:00:55.424257,8.0,3.0,257.0
2023-05-24-10:00:55.425256,4.0,3.0,257.0
2023-05-24-10:00:55.426256,9.0,13.0,257.0
2023-05-24-10:00:55.427256,9.0,13.0,257.0
2023-05-24-10:00:55.428255,9.0,13.0,257.0
2023-05-24-10:00:55.429235,7.0,9.0,256.0
2023-05-24-10:00:55.430235,4.0,7.0,257.0
2023-05-24-10:00:55.431209,4.0,7.0,257.0
2023-05-24-10:00:55.432209,4.0,7.0,257.0
2023-05-24-10:00:55.433209,6.0,6.0,257.0
2023-05-24-10:00:55.434259,6.0,0.0,257.0
2023-05-24-10:00:55.435224,6.0,0.0,257.0
2023-05-24-10:00:55.436209,6.0,0.0,257.0
2023-05-24-10:00:55.437254,5.0,1.0,257.0
2023-05-24-10:00:55.438258,8.0,4.0,257.0
2023-05-24-10:00:55.439254,8.0,4.0,257.0
2023-05-24-10:00:55.440209,8.0,4.0,257.0
2023-05-24-10:00:55.441209,7.0,9.0,257.0
2023-05-24-10:00:55.442209,5.0,10.0,257.0
2023-05-24-10:00:55.443210,5.0,10.0,257.0
2023-05-24-10:00:55.444207,5.0,10.0,257.0
2023-05-24-10:00:55.445234,5.0,10.0,257.0
2023-05-24-10:00:55.446208,1.0,9.0,256.0
2023-05-24-10:00:55.447242,3.0,7.0,256.0
2023-05-24-10:00:55.448237,2.0,1.0,257.0
2023-05-24-10:00:55.450233,5.0,0.0,257.0
2023-05-24-10:00:55.450233,4.0,2.0,257.0
2023-05-24-10:00:55.451254,4.0,2.0,257.0
2023-05-24-10:00:55.452254,4.0,2.0,257.0
2023-05-24-10:00:55.453254,4.0,2.0,257.0
2023-05-24-10:00:55.454256,8.0,2.0,256.0
2023-05-24-10:00:55.455255,5.0,2.0,257.0
2023-05-24-10:00:55.456256,6.0,5.0,257.0
2023-05-24-10:00:55.457256,6.0,5.0,257.0
2023-05-24-10:00:55.458215,6.0,9.0,257.0
2023-05-24-10:00:55.459208,2.0,10.0,257.0
2023-05-24-10:00:55.460256,5.0,11.0,257.0
2023-05-24-10:00:55.461256,5.0,11.0,257.0
2023-05-24-10:00:55.462255,5.0,8.0,257.0
2023-05-24-10:00:55.463238,5.0,3.0,257.0
2023-05-24-10:00:55.464208,5.0,3.0,257.0
2023-05-24-10:00:55.465235,5.0,3.0,257.0
2023-05-24-10:00:55.466236,6.0,6.0,257.0
2023-05-24-10:00:55.467236,6.0,4.0,257.0
2023-05-24-10:00:55.468235,6.0,4.0,257.0
2023-05-24-10:00:55.469235,6.0,4.0,257.0
2023-05-24-10:00:55.470236,6.0,6.0,257.0
2023-05-24-10:00:55.471235,10.0,1.0,257.0
2023-05-24-10:00:55.472235,10.0,1.0,257.0
2023-05-24-10:00:55.473235,10.0,1.0,257.0
2023-05-24-10:00:55.474235,7.0,1.0,257.0
2023-05-24-10:00:55.475246,1.0,6.0,257.0
2023-05-24-10:00:55.476238,1.0,6.0,257.0
2023-05-24-10:00:55.477209,1.0,6.0,257.0
2023-05-24-10:00:55.478235,7.0,10.0,257.0
2023-05-24-10:00:55.479237,4.0,4.0,257.0
2023-05-24-10:00:55.480235,3.0,1.0,257.0
2023-05-24-10:00:55.482234,3.0,1.0,257.0
2023-05-24-10:00:55.482234,6.0,6.0,256.0
2023-05-24-10:00:55.483255,6.0,4.0,257.0
2023-05-24-10:00:55.484255,6.0,4.0,257.0
2023-05-24-10:00:55.485262,6.0,4.0,257.0
2023-05-24-10:00:55.486257,7.0,5.0,257.0
2023-05-24-10:00:55.487255,1.0,5.0,257.0
2023-05-24-10:00:55.488257,1.0,5.0,257.0
2023-05-24-10:00:55.489255,1.0,5.0,257.0
2023-05-24-10:00:55.490255,1.0,5.0,257.0
2023-05-24-10:00:55.491257,5.0,5.0,256.0
2023-05-24-10:00:55.492255,3.0,2.0,257.0
2023-05-24-10:00:55.493256,3.0,2.0,257.0
2023-05-24-10:00:55.494255,3.0,2.0,257.0
2023-05-24-10:00:55.495259,1.0,1.0,257.0
2023-05-24-10:00:55.496256,9.0,9.0,257.0
2023-05-24-10:00:55.497256,9.0,9.0,257.0
2023-05-24-10:00:55.498236,5.0,1.0,257.0
2023-05-24-10:00:55.499235,5.0,1.0,257.0
2023-05-24-10:00:55.500234,5.0,1.0,257.0
2023-05-24-10:00:55.501234,5.0,1.0,257.0
2023-05-24-10:00:55.502236,5.0,1.0,257.0
2023-05-24-10:00:55.503234,6.0,3.0,257.0
2023-05-24-10:00:55.504257,6.0,15.0,257.0
2023-05-24-10:00:55.505256,6.0,15.0,257.0
2023-05-24-10:00:55.506255,6.0,15.0,257.0
2023-05-24-10:00:55.507256,8.0,9.0,257.0
2023-05-24-10:00:55.508245,3.0,5.0,257.0
2023-05-24-10:00:55.509210,3.0,5.0,257.0
2023-05-24-10:00:55.510234,3.0,5.0,257.0
2023-05-24-10:00:55.511239,2.0,7.0,257.0
2023-05-24-10:00:55.512240,3.0,0.0,257.0
2023-05-24-10:00:55.513235,3.0,0.0,257.0
2023-05-24-10:00:55.514233,3.0,0.0,257.0
2023-05-24-10:00:55.515236,2.0,5.0,257.0
2023-05-24-10:00:55.517233,3.0,6.0,257.0
2023-05-24-10:00:55.517233,3.0,6.0,257.0
2023-05-24-10:00:55.518257,3.0,6.0,257.0
2023-05-24-10:00:55.519255,3.0,3.0,257.0
2023-05-24-10:00:55.520257,5.0,1.0,257.0
2023-05-24-10:00:55.521257,5.0,1.0,257.0
2023-05-24-10:00:55.522209,5.0,1.0,257.0
2023-05-24-10:00:55.523257,1.0,0.0,257.0
2023-05-24-10:00:55.524256,5.0,6.0,257.0
2023-05-24-10:00:55.525258,5.0,6.0,257.0
2023-05-24-10:00:55.526215,5.0,6.0,257.0
2023-05-24-10:00:55.527259,2.0,6.0,257.0
2023-05-24-10:00:55.528257,6.0,6.0,257.0
2023-05-24-10:00:55.529260,6.0,6.0,257.0
2023-05-24-10:00:55.530259,6.0,6.0,257.0
2023-05-24-10:00:55.531256,6.0,6.0,257.0
2023-05-24-10:00:55.532260,5.0,5.0,257.0
2023-05-24-10:00:55.533257,4.0,1.0,257.0
2023-05-24-10:00:55.534257,4.0,1.0,257.0
2023-05-24-10:00:55.535256,4.0,1.0,257.0
2023-05-24-10:00:55.536257,6.0,1.0,257.0
2023-05-24-10:00:55.537256,9.0,3.0,257.0
2023-05-24-10:00:55.538255,9.0,3.0,257.0
2023-05-24-10:00:55.539257,9.0,3.0,257.0
2023-05-24-10:00:55.540256,7.0,5.0,257.0
2023-05-24-10:00:55.541235,8.0,5.0,257.0
2023-05-24-10:00:55.542243,4.0,3.0,257.0
2023-05-24-10:00:55.543238,4.0,3.0,257.0
2023-05-24-10:00:55.544235,4.0,6.0,257.0
2023-05-24-10:00:55.545235,2.0,8.0,257.0
2023-05-24-10:00:55.546235,2.0,8.0,257.0
2023-05-24-10:00:55.548233,2.0,8.0,257.0
2023-05-24-10:00:55.548233,3.0,2.0,257.0
2023-05-24-10:00:55.549260,3.0,2.0,257.0
2023-05-24-10:00:55.550258,3.0,2.0,257.0
2023-05-24-10:00:55.551256,3.0,2.0,257.0
2023-05-24-10:00:55.552255,5.0,2.0,257.0
2023-05-24-10:00:55.553256,6.0,2.0,257.0
2023-05-24-10:00:55.554257,6.0,2.0,257.0
2023-05-24-10:00:55.555261,6.0,2.0,257.0
2023-05-24-10:00:55.556256,5.0,6.0,257.0
2023-05-24-10:00:55.557234,6.0,8.0,257.0
2023-05-24-10:00:55.558257,3.0,5.0,257.0
2023-05-24-10:00:55.559208,3.0,5.0,257.0
2023-05-24-10:00:55.560256,3.0,3.0,257.0
2023-05-24-10:00:55.561256,3.0,3.0,257.0
2023-05-24-10:00:55.562259,2.0,3.0,257.0
2023-05-24-10:00:55.563209,2.0,3.0,257.0
2023-05-24-10:00:55.564265,5.0,5.0,257.0
2023-05-24-10:00:55.565264,5.0,5.0,257.0
2023-05-24-10:00:55.566236,3.0,3.0,257.0
2023-05-24-10:00:55.567209,3.0,3.0,257.0
2023-05-24-10:00:55.568244,7.0,4.0,257.0
2023-05-24-10:00:55.569244,8.0,6.0,257.0
2023-05-24-10:00:55.570244,7.0,1.0,257.0
2023-05-24-10:00:55.571244,7.0,1.0,257.0
2023-05-24-10:00:55.572246,4.0,1.0,257.0
2023-05-24-10:00:55.573244,4.0,2.0,257.0
2023-05-24-10:00:55.574244,3.0,6.0,257.0
2023-05-24-10:00:55.575210,3.0,6.0,257.0
2023-05-24-10:00:55.576244,6.0,7.0,257.0
2023-05-24-10:00:55.577245,6.0,7.0,257.0
2023-05-24-10:00:55.578243,6.0,7.0,257.0
2023-05-24-10:00:55.579244,6.0,7.0,257.0
2023-05-24-10:00:55.580244,6.0,7.0,257.0
2023-05-24-10:00:55.581244,2.0,1.0,257.0
2023-05-24-10:00:55.582245,2.0,1.0,257.0
2023-05-24-10:00:55.583244,5.0,4.0,257.0
2023-05-24-10:00:55.585250,1.0,5.0,257.0
2023-05-24-10:00:55.585250,11.0,2.0,257.0
2023-05-24-10:00:55.586256,1.0,3.0,257.0
2023-05-24-10:00:55.587257,1.0,3.0,257.0
2023-05-24-10:00:55.588256,1.0,3.0,257.0
2023-05-24-10:00:55.589207,3.0,11.0,257.0
2023-05-24-10:00:55.590210,7.0,10.0,257.0
2023-05-24-10:00:55.591228,7.0,10.0,257.0
2023-05-24-10:00:55.592212,7.0,10.0,257.0
2023-05-24-10:00:55.593210,2.0,4.0,257.0
2023-05-24-10:00:55.594236,7.0,8.0,257.0
2023-05-24-10:00:55.595255,7.0,8.0,257.0
2023-05-24-10:00:55.596255,7.0,8.0,257.0
2023-05-24-10:00:55.597255,2.0,5.0,257.0
2023-05-24-10:00:55.598256,7.0,0.0,257.0
2023-05-24-10:00:55.599256,7.0,0.0,257.0
2023-05-24-10:00:55.600257,7.0,0.0,257.0
2023-05-24-10:00:55.601235,6.0,3.0,257.0
2023-05-24-10:00:55.602237,8.0,2.0,257.0
2023-05-24-10:00:55.603235,7.0,5.0,257.0
2023-05-24-10:00:55.604209,7.0,5.0,257.0
2023-05-24-10:00:55.605237,6.0,5.0,257.0
2023-05-24-10:00:55.606235,6.0,3.0,257.0
2023-05-24-10:00:55.607248,6.0,3.0,257.0
2023-05-24-10:00:55.608209,6.0,3.0,257.0
2023-05-24-10:00:55.609245,4.0,4.0,257.0
2023-05-24-10:00:55.610244,1.0,0.0,257.0
2023-05-24-10:00:55.611235,2.0,5.0,257.0
2023-05-24-10:00:55.612207,2.0,5.0,257.0
2023-05-24-10:00:55.613245,5.0,2.0,257.0
2023-05-24-10:00:55.614245,4.0,4.0,257.0
2023-05-24-10:00:55.615244,5.0,5.0,257.0
2023-05-24-10:00:55.616245,5.0,5.0,257.0
2023-05-24-10:00:55.617244,6.0,8.0,257.0
2023-05-24-10:00:55.619235,7.0,5.0,257.0
2023-05-24-10:00:55.619235,7.0,5.0,257.0
2023-05-24-10:00:55.620262,7.0,5.0,257.0
2023-05-24-10:00:55.621243,6.0,6.0,257.0
2023-05-24-10:00:55.622265,3.0,8.0,257.0
2023-05-24-10:00:55.623260,7.0,6.0,257.0
2023-05-24-10:00:55.624256,7.0,6.0,257.0
2023-05-24-10:00:55.625210,7.0,6.0,257.0
2023-05-24-10:00:55.626268,5.0,5.0,257.0
2023-05-24-10:00:55.627256,3.0,2.0,257.0
2023-05-24-10:00:55.628256,3.0,1.0,257.0
2023-05-24-10:00:55.629265,3.0,1.0,257.0
2023-05-24-10:00:55.630266,4.0,2.0,257.0
2023-05-24-10:00:55.631265,4.0,5.0,257.0
2023-05-24-10:00:55.632266,3.0,4.0,257.0
2023-05-24-10:00:55.633265,3.0,4.0,257.0
2023-05-24-10:00:55.634265,3.0,2.0,257.0
2023-05-24-10:00:55.635256,6.0,3.0,257.0
2023-05-24-10:00:55.636256,6.0,4.0,257.0
2023-05-24-10:00:55.637264,6.0,4.0,257.0
2023-05-24-10:00:55.638256,7.0,2.0,257.0
2023-05-24-10:00:55.639260,4.0,7.0,257.0
2023-05-24-10:00:55.640256,7.0,1.0,257.0
2023-05-24-10:00:55.641224,7.0,1.0,257.0
2023-05-24-10:00:55.642209,4.0,8.0,257.0
2023-05-24-10:00:55.643256,3.0,7.0,257.0
2023-05-24-10:00:55.644254,3.0,7.0,257.0
2023-05-24-10:00:55.645256,3.0,7.0,257.0
2023-05-24-10:00:55.646257,4.0,6.0,257.0
2023-05-24-10:00:55.647209,5.0,1.0,257.0
2023-05-24-10:00:55.648266,3.0,2.0,257.0
2023-05-24-10:00:55.649209,3.0,2.0,257.0
2023-05-24-10:00:55.650265,9.0,3.0,257.0
2023-05-24-10:00:55.652235,7.0,1.0,257.0
2023-05-24-10:00:55.653257,7.0,1.0,257.0
2023-05-24-10:00:55.653257,7.0,1.0,257.0
2023-05-24-10:00:55.654258,7.0,1.0,257.0
2023-05-24-10:00:55.655259,6.0,6.0,257.0
2023-05-24-10:00:55.656255,7.0,5.0,257.0
2023-05-24-10:00:55.657261,7.0,5.0,257.0
2023-05-24-10:00:55.658259,5.0,4.0,257.0
2023-05-24-10:00:55.659263,7.0,8.0,257.0
2023-05-24-10:00:55.660255,7.0,8.0,257.0
2023-05-24-10:00:55.661254,7.0,8.0,257.0
2023-05-24-10:00:55.662257,7.0,8.0,257.0
2023-05-24-10:00:55.663256,1.0,2.0,257.0
2023-05-24-10:00:55.664255,1.0,2.0,257.0
2023-05-24-10:00:55.665256,1.0,2.0,257.0
2023-05-24-10:00:55.666255,1.0,2.0,257.0
2023-05-24-10:00:55.667262,8.0,2.0,257.0
2023-05-24-10:00:55.668255,8.0,5.0,257.0
2023-05-24-10:00:55.669208,8.0,5.0,257.0
2023-05-24-10:00:55.670243,8.0,5.0,257.0
2023-05-24-10:00:55.671210,6.0,4.0,257.0
2023-05-24-10:00:55.672243,4.0,0.0,257.0
2023-05-24-10:00:55.673254,4.0,0.0,257.0
2023-05-24-10:00:55.674244,4.0,0.0,257.0
2023-05-24-10:00:55.675210,2.0,5.0,257.0
2023-05-24-10:00:55.676245,4.0,8.0,257.0
2023-05-24-10:00:55.677235,5.0,5.0,257.0
2023-05-24-10:00:55.678236,5.0,5.0,257.0
2023-05-24-10:00:55.679235,4.0,7.0,257.0
2023-05-24-10:00:55.680237,4.0,5.0,257.0
2023-05-24-10:00:55.681235,2.0,2.0,257.0
2023-05-24-10:00:55.682235,2.0,2.0,257.0
2023-05-24-10:00:55.683235,4.0,3.0,257.0
2023-05-24-10:00:55.684235,4.0,3.0,257.0
2023-05-24-10:00:55.686234,8.0,1.0,257.0
2023-05-24-10:00:55.686234,4.0,2.0,257.0
2023-05-24-10:00:55.687209,7.0,9.0,257.0
2023-05-24-10:00:55.688256,6.0,9.0,257.0
2023-05-24-10:00:55.689255,6.0,9.0,257.0
2023-05-24-10:00:55.690209,6.0,9.0,257.0
2023-05-24-10:00:55.691265,6.0,8.0,257.0
2023-05-24-10:00:55.692220,4.0,7.0,257.0
2023-05-24-10:00:55.693235,2.0,0.0,257.0
2023-05-24-10:00:55.694208,2.0,0.0,257.0
2023-05-24-10:00:55.695255,1.0,5.0,257.0
2023-05-24-10:00:55.696257,9.0,6.0,257.0
2023-05-24-10:00:55.697256,9.0,6.0,257.0
2023-05-24-10:00:55.698236,9.0,6.0,257.0
2023-05-24-10:00:55.699257,5.0,6.0,257.0
2023-05-24-10:00:55.700256,6.0,5.0,257.0
2023-05-24-10:00:55.701234,6.0,5.0,257.0
2023-05-24-10:00:55.702234,6.0,5.0,257.0
2023-05-24-10:00:55.703207,6.0,5.0,257.0
2023-05-24-10:00:55.704233,4.0,1.0,257.0
2023-05-24-10:00:55.705256,4.0,1.0,257.0
2023-05-24-10:00:55.706258,4.0,1.0,257.0
2023-05-24-10:00:55.707260,4.0,1.0,257.0
2023-05-24-10:00:55.708255,6.0,7.0,257.0
2023-05-24-10:00:55.709259,5.0,3.0,257.0
2023-05-24-10:00:55.710257,5.0,3.0,257.0
2023-05-24-10:00:55.711256,5.0,3.0,257.0
2023-05-24-10:00:55.712255,5.0,1.0,257.0
2023-05-24-10:00:55.713256,4.0,7.0,257.0
2023-05-24-10:00:55.714255,4.0,5.0,257.0
2023-05-24-10:00:55.715256,4.0,5.0,257.0
2023-05-24-10:00:55.716262,4.0,5.0,257.0
2023-05-24-10:00:55.717265,4.0,5.0,257.0
2023-05-24-10:00:55.719239,9.0,4.0,257.0
2023-05-24-10:00:55.720208,9.0,4.0,257.0
2023-05-24-10:00:55.720208,6.0,6.0,257.0
2023-05-24-10:00:55.721236,6.0,6.0,257.0
2023-05-24-10:00:55.722234,6.0,6.0,257.0
2023-05-24-10:00:55.723236,6.0,6.0,257.0
2023-05-24-10:00:55.724237,3.0,0.0,257.0
2023-05-24-10:00:55.725209,7.0,11.0,257.0
2023-05-24-10:00:55.726270,7.0,11.0,257.0
2023-05-24-10:00:55.727264,7.0,11.0,257.0
2023-05-24-10:00:55.728266,8.0,9.0,257.0
2023-05-24-10:00:55.729267,3.0,1.0,257.0
2023-05-24-10:00:55.730265,8.0,3.0,257.0
2023-05-24-10:00:55.731209,8.0,3.0,257.0
2023-05-24-10:00:55.732265,5.0,6.0,257.0
2023-05-24-10:00:55.733210,2.0,6.0,257.0
2023-05-24-10:00:55.734243,5.0,1.0,257.0
2023-05-24-10:00:55.735209,5.0,1.0,257.0
2023-05-24-10:00:55.736265,3.0,3.0,257.0
2023-05-24-10:00:55.737264,7.0,8.0,257.0
2023-05-24-10:00:55.738268,7.0,8.0,257.0
2023-05-24-10:00:55.739223,7.0,8.0,257.0
2023-05-24-10:00:55.740265,7.0,6.0,257.0
2023-05-24-10:00:55.741265,2.0,3.0,257.0
2023-05-24-10:00:55.742209,3.0,2.0,257.0
2023-05-24-10:00:55.743266,3.0,2.0,257.0
2023-05-24-10:00:55.744264,4.0,3.0,257.0
2023-05-24-10:00:55.745244,4.0,7.0,257.0
2023-05-24-10:00:55.746264,4.0,7.0,257.0
2023-05-24-10:00:55.747266,4.0,7.0,257.0
2023-05-24-10:00:55.748265,4.0,7.0,257.0
2023-05-24-10:00:55.749264,3.0,10.0,257.0
2023-05-24-10:00:55.750265,5.0,6.0,257.0
2023-05-24-10:00:55.751268,4.0,2.0,257.0
2023-05-24-10:00:55.752264,4.0,1.0,257.0
2023-05-24-10:00:55.753264,7.0,2.0,257.0
2023-05-24-10:00:55.755244,5.0,4.0,257.0
2023-05-24-10:00:55.755244,5.0,4.0,257.0
2023-05-24-10:00:55.756264,5.0,10.0,257.0
2023-05-24-10:00:55.757256,5.0,10.0,257.0
2023-05-24-10:00:55.758266,5.0,10.0,257.0
2023-05-24-10:00:55.759265,5.0,10.0,257.0
2023-05-24-10:00:55.760245,5.0,10.0,257.0
2023-05-24-10:00:55.761265,3.0,6.0,257.0
2023-05-24-10:00:55.762264,0.0,6.0,257.0
2023-05-24-10:00:55.763257,0.0,6.0,257.0
2023-05-24-10:00:55.764265,0.0,6.0,257.0
2023-05-24-10:00:55.765264,3.0,3.0,257.0
2023-05-24-10:00:55.766267,8.0,12.0,257.0
2023-05-24-10:00:55.767268,8.0,13.0,257.0
2023-05-24-10:00:55.768265,8.0,13.0,257.0
2023-05-24-10:00:55.769269,11.0,5.0,257.0
2023-05-24-10:00:55.770268,8.0,4.0,257.0
2023-05-24-10:00:55.771265,8.0,4.0,257.0
2023-05-24-10:00:55.772209,8.0,4.0,257.0
2023-05-24-10:00:55.773271,4.0,2.0,257.0
2023-05-24-10:00:55.774266,4.0,0.0,257.0
2023-05-24-10:00:55.775209,5.0,7.0,257.0
2023-05-24-10:00:55.776209,5.0,7.0,257.0
2023-05-24-10:00:55.777270,4.0,5.0,257.0
2023-05-24-10:00:55.778265,5.0,5.0,257.0
2023-05-24-10:00:55.779271,6.0,8.0,257.0
2023-05-24-10:00:55.780227,6.0,8.0,257.0
2023-05-24-10:00:55.781264,3.0,4.0,257.0
2023-05-24-10:00:55.782265,8.0,6.0,257.0
2023-05-24-10:00:55.783268,8.0,6.0,257.0
2023-05-24-10:00:55.784273,8.0,6.0,257.0
2023-05-24-10:00:55.785264,5.0,5.0,257.0
2023-05-24-10:00:55.786268,5.0,5.0,257.0
2023-05-24-10:00:55.788243,6.0,1.0,257.0
2023-05-24-10:00:55.788243,6.0,1.0,257.0
2023-05-24-10:00:55.789209,5.0,3.0,257.0
2023-05-24-10:00:55.790266,6.0,7.0,257.0
2023-05-24-10:00:55.791264,6.0,7.0,257.0
2023-05-24-10:00:55.792266,6.0,7.0,257.0
2023-05-24-10:00:55.793207,6.0,7.0,257.0
2023-05-24-10:00:55.794244,4.0,3.0,257.0
2023-05-24-10:00:55.795266,4.0,6.0,257.0
2023-05-24-10:00:55.796265,4.0,6.0,257.0
2023-05-24-10:00:55.797267,4.0,6.0,257.0
2023-05-24-10:00:55.798264,7.0,8.0,257.0
2023-05-24-10:00:55.799268,3.0,5.0,257.0
2023-05-24-10:00:55.800265,3.0,5.0,257.0
2023-05-24-10:00:55.801264,3.0,5.0,257.0
2023-05-24-10:00:55.802268,2.0,6.0,257.0
2023-05-24-10:00:55.803265,2.0,6.0,257.0
2023-05-24-10:00:55.804265,4.0,3.0,257.0
2023-05-24-10:00:55.805264,4.0,6.0,257.0
2023-05-24-10:00:55.806266,6.0,6.0,257.0
2023-05-24-10:00:55.807264,5.0,7.0,257.0
2023-05-24-10:00:55.808266,5.0,7.0,257.0
2023-05-24-10:00:55.809265,5.0,7.0,257.0
2023-05-24-10:00:55.810265,5.0,7.0,257.0
2023-05-24-10:00:55.811274,2.0,3.0,257.0
2023-05-24-10:00:55.812265,2.0,3.0,257.0
2023-05-24-10:00:55.813243,2.0,3.0,257.0
2023-05-24-10:00:55.814264,3.0,4.0,257.0
2023-05-24-10:00:55.815268,4.0,7.0,257.0
2023-05-24-10:00:55.816264,6.0,7.0,257.0
2023-05-24-10:00:55.817209,6.0,7.0,257.0
2023-05-24-10:00:55.818268,6.0,6.0,257.0
2023-05-24-10:00:55.819265,5.0,1.0,257.0
2023-05-24-10:00:55.820264,8.0,1.0,257.0
2023-05-24-10:00:55.822246,8.0,1.0,257.0
2023-05-24-10:00:55.822246,4.0,0.0,257.0
2023-05-24-10:00:55.823258,4.0,0.0,257.0
2023-05-24-10:00:55.824255,3.0,1.0,257.0
2023-05-24-10:00:55.825210,3.0,1.0,257.0
2023-05-24-10:00:55.826208,6.0,9.0,257.0
2023-05-24-10:00:55.827257,5.0,6.0,257.0
2023-05-24-10:00:55.828238,5.0,6.0,257.0
2023-05-24-10:00:55.829254,5.0,6.0,257.0
2023-05-24-10:00:55.830256,1.0,2.0,257.0
2023-05-24-10:00:55.831259,4.0,0.0,257.0
2023-05-24-10:00:55.832255,3.0,1.0,257.0
2023-05-24-10:00:55.833255,3.0,1.0,257.0
2023-05-24-10:00:55.834259,3.0,1.0,257.0
2023-05-24-10:00:55.835256,4.0,3.0,257.0
2023-05-24-10:00:55.836256,10.0,6.0,257.0
2023-05-24-10:00:55.837256,6.0,7.0,257.0
2023-05-24-10:00:55.838257,6.0,7.0,257.0
2023-05-24-10:00:55.839256,2.0,1.0,257.0
2023-05-24-10:00:55.840257,2.0,1.0,257.0
2023-05-24-10:00:55.841255,2.0,1.0,257.0
2023-05-24-10:00:55.842231,2.0,1.0,257.0
2023-05-24-10:00:55.843209,4.0,3.0,257.0
2023-05-24-10:00:55.844256,5.0,8.0,257.0
2023-05-24-10:00:55.845255,5.0,8.0,257.0
2023-05-24-10:00:55.846256,5.0,8.0,257.0
2023-05-24-10:00:55.847259,5.0,5.0,257.0
2023-05-24-10:00:55.848256,6.0,7.0,257.0
2023-05-24-10:00:55.849235,5.0,6.0,257.0
2023-05-24-10:00:55.850259,5.0,6.0,257.0
2023-05-24-10:00:55.851256,2.0,5.0,257.0
2023-05-24-10:00:55.852256,5.0,3.0,257.0
2023-05-24-10:00:55.853255,5.0,3.0,257.0
2023-05-24-10:00:55.854257,5.0,3.0,257.0
2023-05-24-10:00:55.855256,6.0,4.0,257.0
2023-05-24-10:00:55.857238,6.0,6.0,257.0
2023-05-24-10:00:55.857238,6.0,6.0,257.0
2023-05-24-10:00:55.858256,6.0,6.0,257.0
2023-05-24-10:00:55.859235,3.0,7.0,257.0
2023-05-24-10:00:55.860234,1.0,1.0,257.0
2023-05-24-10:00:55.861256,1.0,1.0,257.0
2023-05-24-10:00:55.862209,1.0,1.0,257.0
2023-05-24-10:00:55.863259,4.0,5.0,257.0
2023-05-24-10:00:55.864256,8.0,4.0,257.0
2023-05-24-10:00:55.865256,8.0,4.0,257.0
2023-05-24-10:00:55.866206,8.0,4.0,257.0
2023-05-24-10:00:55.867256,4.0,1.0,257.0
2023-05-24-10:00:55.868256,4.0,8.0,257.0
2023-05-24-10:00:55.869255,4.0,8.0,257.0
2023-05-24-10:00:55.870271,4.0,8.0,257.0
2023-05-24-10:00:55.871256,7.0,12.0,257.0
2023-05-24-10:00:55.872256,7.0,12.0,257.0
2023-05-24-10:00:55.873258,7.0,12.0,257.0
2023-05-24-10:00:55.874244,7.0,12.0,257.0
2023-05-24-10:00:55.875232,7.0,12.0,257.0
2023-05-24-10:00:55.876235,4.0,2.0,257.0
2023-05-24-10:00:55.877235,5.0,8.0,257.0
2023-05-24-10:00:55.878235,5.0,8.0,257.0
2023-05-24-10:00:55.879239,5.0,8.0,257.0
2023-05-24-10:00:55.880244,5.0,7.0,257.0
2023-05-24-10:00:55.881244,4.0,2.0,257.0
2023-05-24-10:00:55.882245,4.0,1.0,257.0
2023-05-24-10:00:55.883244,4.0,1.0,257.0
2023-05-24-10:00:55.884244,3.0,5.0,257.0
2023-05-24-10:00:55.885244,6.0,6.0,257.0
2023-05-24-10:00:55.886245,6.0,3.0,257.0
2023-05-24-10:00:55.887244,6.0,3.0,257.0
2023-05-24-10:00:55.888245,4.0,0.0,257.0
2023-05-24-10:00:55.890244,5.0,2.0,257.0
2023-05-24-10:00:55.890244,5.0,2.0,257.0
2023-05-24-10:00:55.891257,5.0,2.0,257.0
2023-05-24-10:00:55.892222,4.0,3.0,257.0
2023-05-24-10:00:55.893238,6.0,5.0,257.0
2023-05-24-10:00:55.894258,6.0,5.0,257.0
2023-05-24-10:00:55.895259,6.0,5.0,257.0
2023-05-24-10:00:55.896256,6.0,9.0,257.0
2023-05-24-10:00:55.897260,3.0,4.0,257.0
2023-05-24-10:00:55.898259,6.0,4.0,257.0
2023-05-24-10:00:55.899235,6.0,4.0,257.0
2023-05-24-10:00:55.900260,5.0,5.0,257.0
2023-05-24-10:00:55.901255,5.0,0.0,257.0
2023-05-24-10:00:55.902257,5.0,0.0,257.0
2023-05-24-10:00:55.903209,5.0,0.0,257.0
2023-05-24-10:00:55.904264,6.0,1.0,257.0
2023-05-24-10:00:55.905265,6.0,1.0,257.0
2023-05-24-10:00:55.906264,6.0,0.0,257.0
2023-05-24-10:00:55.907241,6.0,0.0,257.0
2023-05-24-10:00:55.908256,2.0,4.0,258.0
2023-05-24-10:00:55.909256,3.0,4.0,259.0
2023-05-24-10:00:55.910255,3.0,4.0,259.0
2023-05-24-10:00:55.911266,3.0,4.0,259.0
2023-05-24-10:00:55.912256,4.0,2.0,258.0
2023-05-24-10:00:55.913255,8.0,7.0,259.0
2023-05-24-10:00:55.914235,8.0,7.0,259.0
2023-05-24-10:00:55.915207,8.0,7.0,259.0
2023-05-24-10:00:55.916234,8.0,7.0,259.0
2023-05-24-10:00:55.917233,7.0,1.0,259.0
2023-05-24-10:00:55.918234,7.0,1.0,259.0
2023-05-24-10:00:55.919232,7.0,1.0,259.0
2023-05-24-10:00:55.920235,7.0,1.0,259.0
2023-05-24-10:00:55.921233,7.0,3.0,259.0
2023-05-24-10:00:55.922241,5.0,5.0,258.0
2023-05-24-10:00:55.923215,3.0,7.0,259.0
2023-05-24-10:00:55.924209,3.0,5.0,258.0
2023-05-24-10:00:55.926211,3.0,7.0,259.0
2023-05-24-10:00:55.926211,3.0,7.0,259.0
2023-05-24-10:00:55.927211,3.0,7.0,259.0
2023-05-24-10:00:55.928211,3.0,7.0,259.0
2023-05-24-10:00:55.929210,6.0,7.0,259.0
2023-05-24-10:00:55.930236,5.0,0.0,258.0
2023-05-24-10:00:55.931235,2.0,2.0,258.0
2023-05-24-10:00:55.932235,2.0,2.0,258.0
2023-05-24-10:00:55.933236,4.0,5.0,259.0
2023-05-24-10:00:55.934242,8.0,5.0,258.0
2023-05-24-10:00:55.935209,8.0,5.0,258.0
2023-05-24-10:00:55.936236,8.0,5.0,258.0
2023-05-24-10:00:55.937239,6.0,1.0,258.0
2023-05-24-10:00:55.938236,3.0,5.0,259.0
2023-05-24-10:00:55.939212,3.0,5.0,259.0
2023-05-24-10:00:55.940237,3.0,5.0,259.0
2023-05-24-10:00:55.941241,3.0,5.0,259.0
2023-05-24-10:00:55.942210,3.0,12.0,259.0
2023-05-24-10:00:55.943213,7.0,7.0,259.0
2023-05-24-10:00:55.944327,7.0,7.0,259.0
2023-05-24-10:00:55.944327,5.0,7.0,259.0
2023-05-24-10:00:55.945211,4.0,4.0,259.0
2023-05-24-10:00:55.946210,4.0,4.0,259.0
2023-05-24-10:00:55.947223,4.0,4.0,259.0
2023-05-24-10:00:55.948210,4.0,4.0,259.0
2023-05-24-10:00:55.949210,6.0,7.0,259.0
2023-05-24-10:00:55.950210,8.0,5.0,259.0
2023-05-24-10:00:55.951208,4.0,0.0,259.0
2023-05-24-10:00:55.952207,4.0,0.0,259.0
2023-05-24-10:00:55.953207,5.0,2.0,259.0
2023-05-24-10:00:55.954245,7.0,3.0,258.0
2023-05-24-10:00:55.955242,5.0,2.0,258.0
2023-05-24-10:00:55.956242,5.0,2.0,258.0
2023-05-24-10:00:55.957242,8.0,3.0,259.0
2023-05-24-10:00:55.959211,3.0,5.0,259.0
2023-05-24-10:00:55.960213,2.0,1.0,258.0
2023-05-24-10:00:55.960767,2.0,1.0,258.0
2023-05-24-10:00:55.960767,6.0,2.0,259.0
2023-05-24-10:00:55.961209,6.0,8.0,259.0
2023-05-24-10:00:55.962236,6.0,7.0,259.0
2023-05-24-10:00:55.963234,6.0,7.0,259.0
2023-05-24-10:00:55.964242,6.0,7.0,259.0
2023-05-24-10:00:55.965274,6.0,7.0,259.0
2023-05-24-10:00:55.966279,5.0,2.0,259.0
2023-05-24-10:00:55.967275,5.0,2.0,259.0
2023-05-24-10:00:55.968276,5.0,2.0,259.0
2023-05-24-10:00:55.969275,5.0,2.0,259.0
2023-05-24-10:00:55.970249,5.0,0.0,259.0
2023-05-24-10:00:55.971276,3.0,0.0,258.0
2023-05-24-10:00:55.972275,7.0,6.0,258.0
2023-05-24-10:00:55.973276,7.0,6.0,258.0
2023-05-24-10:00:55.974275,5.0,7.0,259.0
2023-05-24-10:00:55.975275,6.0,12.0,259.0
2023-05-24-10:00:55.976256,5.0,8.0,258.0
2023-05-24-10:00:55.977248,5.0,8.0,258.0
2023-05-24-10:00:55.977248,3.0,9.0,258.0
2023-05-24-10:00:55.978275,6.0,1.0,259.0
2023-05-24-10:00:55.979274,6.0,1.0,259.0
2023-05-24-10:00:55.980274,6.0,1.0,259.0
2023-05-24-10:00:55.981274,6.0,1.0,259.0
2023-05-24-10:00:55.982279,6.0,0.0,258.0
2023-05-24-10:00:55.983274,4.0,4.0,258.0
2023-05-24-10:00:55.984275,4.0,4.0,258.0
2023-05-24-10:00:55.985274,4.0,4.0,258.0
2023-05-24-10:00:55.986276,8.0,6.0,259.0
2023-05-24-10:00:55.987274,6.0,9.0,259.0
2023-05-24-10:00:55.988301,6.0,9.0,259.0
2023-05-24-10:00:55.989248,6.0,9.0,259.0
2023-05-24-10:00:55.990294,10.0,2.0,259.0
2023-05-24-10:00:55.992260,6.0,8.0,259.0
2023-05-24-10:00:55.992260,6.0,8.0,259.0
2023-05-24-10:00:55.993248,6.0,8.0,259.0
2023-05-24-10:00:55.994274,2.0,7.0,258.0
2023-05-24-10:00:55.995275,5.0,7.0,259.0
2023-05-24-10:00:55.996274,3.0,6.0,259.0
2023-05-24-10:00:55.997275,3.0,6.0,259.0
2023-05-24-10:00:55.998274,1.0,6.0,258.0
2023-05-24-10:00:55.999275,6.0,10.0,259.0
2023-05-24-10:00:56.000275,9.0,7.0,259.0
2023-05-24-10:00:56.001247,9.0,7.0,259.0
2023-05-24-10:00:56.002294,9.0,7.0,259.0
2023-05-24-10:00:56.003294,1.0,3.0,259.0
2023-05-24-10:00:56.004295,1.0,1.0,259.0
2023-05-24-10:00:56.005296,1.0,1.0,259.0
2023-05-24-10:00:56.006294,6.0,6.0,258.0
2023-05-24-10:00:56.007296,3.0,9.0,259.0
2023-05-24-10:00:56.008273,3.0,9.0,259.0
2023-05-24-10:00:56.009276,3.0,9.0,259.0
2023-05-24-10:00:56.010273,3.0,9.0,259.0
2023-05-24-10:00:56.011274,6.0,9.0,259.0
2023-05-24-10:00:56.012274,3.0,5.0,259.0
2023-05-24-10:00:56.013273,3.0,7.0,259.0
2023-05-24-10:00:56.014278,3.0,7.0,259.0
2023-05-24-10:00:56.015275,6.0,8.0,259.0
2023-05-24-10:00:56.016275,7.0,3.0,259.0
2023-05-24-10:00:56.017274,7.0,3.0,259.0
2023-05-24-10:00:56.018275,7.0,3.0,259.0
2023-05-24-10:00:56.019274,8.0,1.0,259.0
2023-05-24-10:00:56.020248,4.0,2.0,259.0
2023-05-24-10:00:56.021248,4.0,2.0,259.0
2023-05-24-10:00:56.022277,4.0,2.0,259.0
2023-05-24-10:00:56.023275,6.0,5.0,259.0
2023-05-24-10:00:56.024274,4.0,6.0,259.0
2023-05-24-10:00:56.026251,4.0,6.0,259.0
2023-05-24-10:00:56.026251,4.0,6.0,259.0
2023-05-24-10:00:56.027250,5.0,10.0,258.0
2023-05-24-10:00:56.028294,5.0,8.0,259.0
2023-05-24-10:00:56.029294,5.0,8.0,259.0
2023-05-24-10:00:56.030293,5.0,8.0,259.0
2023-05-24-10:00:56.031294,5.0,7.0,259.0
2023-05-24-10:00:56.032294,3.0,2.0,258.0
2023-05-24-10:00:56.033294,5.0,8.0,258.0
2023-05-24-10:00:56.034248,5.0,8.0,258.0
2023-05-24-10:00:56.035294,5.0,2.0,259.0
2023-05-24-10:00:56.036295,6.0,5.0,259.0
2023-05-24-10:00:56.037296,6.0,5.0,259.0
2023-05-24-10:00:56.038251,6.0,5.0,259.0
2023-05-24-10:00:56.039284,4.0,5.0,259.0
2023-05-24-10:00:56.040297,4.0,5.0,259.0
2023-05-24-10:00:56.041299,4.0,1.0,258.0
2023-05-24-10:00:56.042249,4.0,1.0,258.0
2023-05-24-10:00:56.043295,4.0,1.0,258.0
2023-05-24-10:00:56.044294,6.0,5.0,259.0
2023-05-24-10:00:56.045294,4.0,1.0,258.0
2023-05-24-10:00:56.046298,4.0,1.0,258.0
2023-05-24-10:00:56.047294,4.0,1.0,258.0
2023-05-24-10:00:56.048294,6.0,3.0,259.0
2023-05-24-10:00:56.049299,3.0,2.0,258.0
2023-05-24-10:00:56.050294,3.0,2.0,258.0
2023-05-24-10:00:56.051294,3.0,2.0,258.0
2023-05-24-10:00:56.052294,4.0,2.0,259.0
2023-05-24-10:00:56.053296,3.0,5.0,259.0
2023-05-24-10:00:56.054294,3.0,2.0,259.0
2023-05-24-10:00:56.055247,3.0,2.0,259.0
2023-05-24-10:00:56.056280,6.0,16.0,259.0
2023-05-24-10:00:56.057293,6.0,16.0,259.0
2023-05-24-10:00:56.059283,4.0,1.0,259.0
2023-05-24-10:00:56.059283,3.0,4.0,259.0
2023-05-24-10:00:56.060248,5.0,5.0,259.0
2023-05-24-10:00:56.061273,5.0,5.0,259.0
2023-05-24-10:00:56.062277,5.0,5.0,259.0
2023-05-24-10:00:56.063274,5.0,5.0,259.0
2023-05-24-10:00:56.064275,3.0,2.0,259.0
2023-05-24-10:00:56.065273,3.0,4.0,259.0
2023-05-24-10:00:56.066275,7.0,6.0,259.0
2023-05-24-10:00:56.067294,7.0,6.0,259.0
2023-05-24-10:00:56.068294,1.0,4.0,259.0
2023-05-24-10:00:56.069296,5.0,7.0,259.0
2023-05-24-10:00:56.070294,6.0,5.0,259.0
2023-05-24-10:00:56.071294,6.0,5.0,259.0
2023-05-24-10:00:56.072296,4.0,3.0,259.0
2023-05-24-10:00:56.073294,6.0,5.0,259.0
2023-05-24-10:00:56.074297,7.0,4.0,259.0
2023-05-24-10:00:56.075248,7.0,4.0,259.0
2023-05-24-10:00:56.076287,7.0,4.0,259.0
2023-05-24-10:00:56.077293,5.0,4.0,259.0
2023-05-24-10:00:56.078292,5.0,5.0,259.0
2023-05-24-10:00:56.079248,5.0,5.0,259.0
2023-05-24-10:00:56.080293,4.0,5.0,259.0
2023-05-24-10:00:56.081294,5.0,6.0,259.0
2023-05-24-10:00:56.082293,8.0,6.0,259.0
2023-05-24-10:00:56.083309,8.0,6.0,259.0
2023-05-24-10:00:56.084298,5.0,3.0,258.0
2023-05-24-10:00:56.085295,3.0,4.0,259.0
2023-05-24-10:00:56.086293,3.0,4.0,259.0
2023-05-24-10:00:56.087294,3.0,4.0,259.0
2023-05-24-10:00:56.088297,3.0,4.0,259.0
2023-05-24-10:00:56.089274,3.0,5.0,259.0
2023-05-24-10:00:56.090247,3.0,6.0,259.0
2023-05-24-10:00:56.091246,3.0,6.0,259.0
2023-05-24-10:00:56.092272,3.0,6.0,259.0
2023-05-24-10:00:56.094277,5.0,7.0,259.0
2023-05-24-10:00:56.094277,5.0,7.0,259.0
2023-05-24-10:00:56.095293,5.0,7.0,259.0
2023-05-24-10:00:56.096298,5.0,7.0,259.0
2023-05-24-10:00:56.097294,5.0,9.0,259.0
2023-05-24-10:00:56.098299,4.0,5.0,259.0
2023-05-24-10:00:56.099293,7.0,3.0,259.0
2023-05-24-10:00:56.100296,7.0,3.0,259.0
2023-05-24-10:00:56.101298,7.0,2.0,259.0
2023-05-24-10:00:56.102297,5.0,8.0,259.0
2023-05-24-10:00:56.103296,10.0,12.0,259.0
2023-05-24-10:00:56.104296,10.0,12.0,259.0
2023-05-24-10:00:56.105248,9.0,6.0,259.0
2023-05-24-10:00:56.106297,9.0,7.0,259.0
2023-05-24-10:00:56.107296,9.0,7.0,259.0
2023-05-24-10:00:56.108296,9.0,7.0,259.0
2023-05-24-10:00:56.109298,9.0,6.0,259.0
2023-05-24-10:00:56.110300,6.0,4.0,259.0
2023-05-24-10:00:56.111295,6.0,4.0,259.0
2023-05-24-10:00:56.112296,6.0,4.0,259.0
2023-05-24-10:00:56.113274,0.0,1.0,259.0
2023-05-24-10:00:56.114296,4.0,6.0,259.0
2023-05-24-10:00:56.115295,4.0,6.0,259.0
2023-05-24-10:00:56.116248,4.0,6.0,259.0
2023-05-24-10:00:56.117307,4.0,6.0,259.0
2023-05-24-10:00:56.118311,5.0,1.0,259.0
2023-05-24-10:00:56.119305,5.0,1.0,259.0
2023-05-24-10:00:56.120249,5.0,1.0,259.0
2023-05-24-10:00:56.121249,4.0,2.0,259.0
2023-05-24-10:00:56.122249,7.0,6.0,259.0
2023-05-24-10:00:56.123305,4.0,2.0,259.0
2023-05-24-10:00:56.124268,4.0,2.0,259.0
2023-05-24-10:00:56.125305,4.0,2.0,259.0
2023-05-24-10:00:56.126288,3.0,6.0,259.0
2023-05-24-10:00:56.128277,3.0,6.0,259.0
2023-05-24-10:00:56.128277,3.0,6.0,259.0
2023-05-24-10:00:56.129249,4.0,4.0,259.0
2023-05-24-10:00:56.130297,6.0,7.0,258.0
2023-05-24-10:00:56.131305,6.0,7.0,258.0
2023-05-24-10:00:56.132305,6.0,7.0,258.0
2023-05-24-10:00:56.133307,6.0,7.0,258.0
2023-05-24-10:00:56.134306,5.0,0.0,259.0
2023-05-24-10:00:56.135305,6.0,1.0,259.0
2023-05-24-10:00:56.136305,6.0,1.0,259.0
2023-05-24-10:00:56.137305,6.0,1.0,259.0
2023-05-24-10:00:56.138247,3.0,0.0,259.0
2023-05-24-10:00:56.139248,5.0,5.0,259.0
2023-05-24-10:00:56.140282,5.0,5.0,259.0
2023-05-24-10:00:56.141281,5.0,5.0,259.0
2023-05-24-10:00:56.142249,4.0,9.0,259.0
2023-05-24-10:00:56.143282,4.0,9.0,259.0
2023-05-24-10:00:56.144286,5.0,5.0,259.0
2023-05-24-10:00:56.145282,5.0,5.0,259.0
2023-05-24-10:00:56.146285,6.0,5.0,259.0
2023-05-24-10:00:56.147282,6.0,3.0,258.0
2023-05-24-10:00:56.148282,3.0,0.0,259.0
2023-05-24-10:00:56.149284,3.0,0.0,259.0
2023-05-24-10:00:56.150282,2.0,2.0,259.0
2023-05-24-10:00:56.151284,6.0,5.0,258.0
2023-05-24-10:00:56.152282,6.0,1.0,258.0
2023-05-24-10:00:56.153284,6.0,1.0,258.0
2023-05-24-10:00:56.154250,8.0,3.0,259.0
2023-05-24-10:00:56.155282,9.0,5.0,259.0
2023-05-24-10:00:56.156288,5.0,3.0,258.0
2023-05-24-10:00:56.157282,5.0,3.0,258.0
2023-05-24-10:00:56.158287,5.0,4.0,259.0
2023-05-24-10:00:56.159249,1.0,1.0,259.0
2023-05-24-10:00:56.160284,2.0,7.0,258.0
2023-05-24-10:00:56.161249,2.0,7.0,258.0
2023-05-24-10:00:56.163283,6.0,6.0,259.0
2023-05-24-10:00:56.163283,6.0,6.0,259.0
2023-05-24-10:00:56.164297,6.0,4.0,259.0
2023-05-24-10:00:56.165258,6.0,4.0,259.0
2023-05-24-10:00:56.166296,6.0,3.0,259.0
2023-05-24-10:00:56.167296,5.0,1.0,259.0
2023-05-24-10:00:56.168297,6.0,6.0,259.0
2023-05-24-10:00:56.169321,6.0,6.0,259.0
2023-05-24-10:00:56.170306,6.0,7.0,259.0
2023-05-24-10:00:56.171261,7.0,3.0,259.0
2023-05-24-10:00:56.172305,9.0,10.0,259.0
2023-05-24-10:00:56.173310,9.0,10.0,259.0
2023-05-24-10:00:56.174309,9.0,10.0,259.0
2023-05-24-10:00:56.175310,3.0,1.0,259.0
2023-05-24-10:00:56.176307,1.0,11.0,259.0
2023-05-24-10:00:56.177308,1.0,11.0,259.0
2023-05-24-10:00:56.178310,0.0,12.0,259.0
2023-05-24-10:00:56.179289,3.0,2.0,259.0
2023-05-24-10:00:56.180283,6.0,5.0,259.0
2023-05-24-10:00:56.181286,6.0,5.0,259.0
2023-05-24-10:00:56.182283,6.0,5.0,259.0
2023-05-24-10:00:56.183284,5.0,1.0,259.0
2023-05-24-10:00:56.184284,4.0,4.0,259.0
2023-05-24-10:00:56.185284,7.0,8.0,259.0
2023-05-24-10:00:56.186283,7.0,8.0,259.0
2023-05-24-10:00:56.187283,6.0,1.0,258.0
2023-05-24-10:00:56.188284,6.0,2.0,259.0
2023-05-24-10:00:56.189283,6.0,0.0,259.0
2023-05-24-10:00:56.190288,6.0,0.0,259.0
2023-05-24-10:00:56.191287,7.0,1.0,258.0
2023-05-24-10:00:56.192249,2.0,3.0,259.0
2023-05-24-10:00:56.193284,3.0,12.0,259.0
2023-05-24-10:00:56.194284,3.0,12.0,259.0
2023-05-24-10:00:56.195283,4.0,9.0,258.0
2023-05-24-10:00:56.197276,4.0,6.0,259.0
2023-05-24-10:00:56.197276,4.0,7.0,259.0
2023-05-24-10:00:56.198298,4.0,7.0,259.0
2023-05-24-10:00:56.199303,5.0,7.0,259.0
2023-05-24-10:00:56.200296,7.0,4.0,259.0
2023-05-24-10:00:56.201296,7.0,4.0,259.0
2023-05-24-10:00:56.202248,7.0,4.0,259.0
2023-05-24-10:00:56.203294,5.0,0.0,258.0
2023-05-24-10:00:56.204284,5.0,8.0,259.0
2023-05-24-10:00:56.205283,5.0,8.0,259.0
2023-05-24-10:00:56.206249,5.0,8.0,259.0
2023-05-24-10:00:56.207305,6.0,11.0,259.0
2023-05-24-10:00:56.208305,4.0,7.0,259.0
2023-05-24-10:00:56.209310,3.0,3.0,259.0
2023-05-24-10:00:56.210285,3.0,3.0,259.0
2023-05-24-10:00:56.211305,2.0,6.0,259.0
2023-05-24-10:00:56.212275,2.0,6.0,259.0
2023-05-24-10:00:56.213298,5.0,1.0,259.0
2023-05-24-10:00:56.214305,5.0,1.0,259.0
2023-05-24-10:00:56.215305,5.0,1.0,259.0
2023-05-24-10:00:56.216305,2.0,3.0,259.0
2023-05-24-10:00:56.217306,2.0,3.0,259.0
2023-05-24-10:00:56.218306,2.0,3.0,259.0
2023-05-24-10:00:56.219305,2.0,3.0,259.0
2023-05-24-10:00:56.220305,7.0,3.0,259.0
2023-05-24-10:00:56.221306,6.0,2.0,259.0
2023-05-24-10:00:56.222304,6.0,2.0,259.0
2023-05-24-10:00:56.223305,6.0,2.0,259.0
2023-05-24-10:00:56.224305,3.0,7.0,259.0
2023-05-24-10:00:56.225308,4.0,13.0,259.0
2023-05-24-10:00:56.226305,4.0,13.0,259.0
2023-05-24-10:00:56.227305,4.0,13.0,259.0
2023-05-24-10:00:56.228290,8.0,6.0,259.0
2023-05-24-10:00:56.229307,6.0,8.0,259.0
2023-05-24-10:00:56.230306,1.0,2.0,259.0
2023-05-24-10:00:56.232283,1.0,2.0,259.0
2023-05-24-10:00:56.232283,5.0,0.0,259.0
2023-05-24-10:00:56.233305,7.0,2.0,259.0
2023-05-24-10:00:56.234306,7.0,2.0,259.0
2023-05-24-10:00:56.235306,7.0,2.0,259.0
2023-05-24-10:00:56.236305,8.0,6.0,259.0
2023-05-24-10:00:56.237305,6.0,6.0,259.0
2023-05-24-10:00:56.238249,3.0,8.0,259.0
2023-05-24-10:00:56.239284,3.0,8.0,259.0
2023-05-24-10:00:56.240305,5.0,6.0,259.0
2023-05-24-10:00:56.241308,3.0,1.0,259.0
2023-05-24-10:00:56.242250,4.0,3.0,258.0
2023-05-24-10:00:56.243249,4.0,3.0,258.0
2023-05-24-10:00:56.244310,5.0,8.0,259.0
2023-05-24-10:00:56.245307,5.0,12.0,259.0
2023-05-24-10:00:56.246305,5.0,8.0,258.0
2023-05-24-10:00:56.247249,5.0,8.0,258.0
2023-05-24-10:00:56.248283,5.0,2.0,259.0
2023-05-24-10:00:56.249284,2.0,12.0,258.0
2023-05-24-10:00:56.250283,2.0,12.0,258.0
2023-05-24-10:00:56.251247,2.0,12.0,258.0
2023-05-24-10:00:56.252283,2.0,11.0,259.0
2023-05-24-10:00:56.253283,10.0,9.0,259.0
2023-05-24-10:00:56.254283,9.0,9.0,258.0
2023-05-24-10:00:56.255284,9.0,9.0,258.0
2023-05-24-10:00:56.256305,9.0,9.0,258.0
2023-05-24-10:00:56.257308,8.0,9.0,259.0
2023-05-24-10:00:56.258306,7.0,6.0,259.0
2023-05-24-10:00:56.259271,7.0,6.0,259.0
2023-05-24-10:00:56.260305,2.0,3.0,258.0
2023-05-24-10:00:56.261308,4.0,3.0,259.0
2023-05-24-10:00:56.262305,8.0,3.0,259.0
2023-05-24-10:00:56.263305,8.0,3.0,259.0
2023-05-24-10:00:56.265284,5.0,9.0,259.0
2023-05-24-10:00:56.265284,6.0,1.0,259.0
2023-05-24-10:00:56.266306,5.0,1.0,259.0
2023-05-24-10:00:56.267305,5.0,1.0,259.0
2023-05-24-10:00:56.268305,5.0,1.0,259.0
2023-05-24-10:00:56.269306,1.0,4.0,259.0
2023-05-24-10:00:56.270305,9.0,6.0,259.0
2023-05-24-10:00:56.271305,12.0,9.0,259.0
2023-05-24-10:00:56.272305,12.0,9.0,259.0
2023-05-24-10:00:56.273308,8.0,4.0,259.0
2023-05-24-10:00:56.274305,2.0,4.0,259.0
2023-05-24-10:00:56.275308,0.0,2.0,259.0
2023-05-24-10:00:56.276305,0.0,2.0,259.0
2023-05-24-10:00:56.277247,7.0,7.0,259.0
2023-05-24-10:00:56.278305,7.0,7.0,259.0
2023-05-24-10:00:56.279307,7.0,7.0,259.0
2023-05-24-10:00:56.280305,7.0,7.0,259.0
2023-05-24-10:00:56.281305,1.0,4.0,259.0
2023-05-24-10:00:56.282306,4.0,3.0,259.0
2023-05-24-10:00:56.283305,4.0,3.0,259.0
2023-05-24-10:00:56.284305,4.0,3.0,259.0
2023-05-24-10:00:56.285305,3.0,5.0,259.0
2023-05-24-10:00:56.286310,2.0,1.0,259.0
2023-05-24-10:00:56.287306,10.0,6.0,259.0
2023-05-24-10:00:56.288249,10.0,6.0,259.0
2023-05-24-10:00:56.289308,13.0,14.0,258.0
2023-05-24-10:00:56.290305,5.0,9.0,259.0
2023-05-24-10:00:56.291305,2.0,9.0,259.0
2023-05-24-10:00:56.292251,2.0,9.0,259.0
2023-05-24-10:00:56.293307,3.0,13.0,259.0
2023-05-24-10:00:56.294305,4.0,10.0,259.0
2023-05-24-10:00:56.295305,7.0,1.0,259.0
2023-05-24-10:00:56.296283,7.0,1.0,259.0
2023-05-24-10:00:56.297284,4.0,6.0,259.0
2023-05-24-10:00:56.299283,4.0,16.0,259.0
2023-05-24-10:00:56.299283,2.0,9.0,259.0
2023-05-24-10:00:56.300305,2.0,9.0,259.0
2023-05-24-10:00:56.301305,10.0,13.0,259.0
2023-05-24-10:00:56.302304,7.0,12.0,258.0
2023-05-24-10:00:56.303305,7.0,7.0,259.0
2023-05-24-10:00:56.304305,7.0,7.0,259.0
2023-05-24-10:00:56.305308,7.0,7.0,259.0
2023-05-24-10:00:56.306305,7.0,2.0,258.0
2023-05-24-10:00:56.307308,4.0,2.0,259.0
2023-05-24-10:00:56.308305,4.0,2.0,259.0
2023-05-24-10:00:56.309307,4.0,2.0,259.0
2023-05-24-10:00:56.310305,7.0,7.0,259.0
2023-05-24-10:00:56.311305,4.0,6.0,258.0
2023-05-24-10:00:56.312305,6.0,3.0,259.0
2023-05-24-10:00:56.313306,6.0,3.0,259.0
2023-05-24-10:00:56.314306,4.0,5.0,259.0
2023-05-24-10:00:56.315305,4.0,1.0,259.0
2023-05-24-10:00:56.316283,4.0,1.0,259.0
2023-05-24-10:00:56.317287,4.0,1.0,259.0
2023-05-24-10:00:56.318288,5.0,2.0,259.0
2023-05-24-10:00:56.319283,4.0,2.0,259.0
2023-05-24-10:00:56.320293,4.0,2.0,259.0
2023-05-24-10:00:56.321247,4.0,2.0,259.0
2023-05-24-10:00:56.322284,6.0,5.0,259.0
2023-05-24-10:00:56.323305,4.0,1.0,259.0
2023-05-24-10:00:56.324305,4.0,1.0,259.0
2023-05-24-10:00:56.325307,4.0,1.0,259.0
2023-05-24-10:00:56.326310,4.0,2.0,259.0
2023-05-24-10:00:56.327305,5.0,10.0,259.0
2023-05-24-10:00:56.328306,4.0,3.0,258.0
2023-05-24-10:00:56.329249,4.0,3.0,258.0
2023-05-24-10:00:56.330306,8.0,10.0,259.0
2023-05-24-10:00:56.332296,6.0,7.0,258.0
2023-05-24-10:00:56.332296,6.0,7.0,258.0
2023-05-24-10:00:56.333248,6.0,7.0,258.0
2023-05-24-10:00:56.334305,4.0,5.0,259.0
2023-05-24-10:00:56.335305,7.0,4.0,259.0
2023-05-24-10:00:56.336305,5.0,1.0,258.0
2023-05-24-10:00:56.337303,5.0,1.0,258.0
2023-05-24-10:00:56.338311,0.0,6.0,259.0
2023-05-24-10:00:56.339305,6.0,1.0,259.0
2023-05-24-10:00:56.340305,6.0,9.0,258.0
2023-05-24-10:00:56.341307,6.0,9.0,258.0
2023-05-24-10:00:56.342288,5.0,5.0,259.0
2023-05-24-10:00:56.343257,5.0,6.0,259.0
2023-05-24-10:00:56.344305,3.0,7.0,259.0
2023-05-24-10:00:56.345305,3.0,7.0,259.0
2023-05-24-10:00:56.346305,3.0,7.0,259.0
2023-05-24-10:00:56.347305,2.0,2.0,259.0
2023-05-24-10:00:56.348305,9.0,4.0,258.0
2023-05-24-10:00:56.349283,9.0,4.0,258.0
2023-05-24-10:00:56.350288,9.0,4.0,258.0
2023-05-24-10:00:56.351284,6.0,2.0,259.0
2023-05-24-10:00:56.352270,1.0,0.0,259.0
2023-05-24-10:00:56.353285,3.0,4.0,258.0
2023-05-24-10:00:56.354284,3.0,4.0,258.0
2023-05-24-10:00:56.355283,6.0,1.0,259.0
2023-05-24-10:00:56.356283,2.0,2.0,259.0
2023-05-24-10:00:56.357285,1.0,7.0,258.0
2023-05-24-10:00:56.358283,1.0,7.0,258.0
2023-05-24-10:00:56.359284,4.0,14.0,259.0
2023-05-24-10:00:56.360284,3.0,12.0,259.0
2023-05-24-10:00:56.361284,6.0,6.0,259.0
2023-05-24-10:00:56.362284,6.0,6.0,259.0
2023-05-24-10:00:56.363283,6.0,1.0,259.0
2023-05-24-10:00:56.364283,6.0,1.0,259.0
2023-05-24-10:00:56.366283,4.0,5.0,259.0
2023-05-24-10:00:56.366283,10.0,3.0,259.0
2023-05-24-10:00:56.367248,1.0,7.0,259.0
2023-05-24-10:00:56.368306,1.0,7.0,259.0
2023-05-24-10:00:56.369247,1.0,7.0,259.0
2023-05-24-10:00:56.370249,1.0,7.0,259.0
2023-05-24-10:00:56.371305,6.0,12.0,259.0
2023-05-24-10:00:56.372305,6.0,2.0,259.0
2023-05-24-10:00:56.373309,4.0,3.0,259.0
2023-05-24-10:00:56.374248,4.0,3.0,259.0
2023-05-24-10:00:56.375305,2.0,1.0,259.0
2023-05-24-10:00:56.376306,4.0,7.0,258.0
2023-05-24-10:00:56.377305,4.0,7.0,258.0
2023-05-24-10:00:56.378266,4.0,7.0,258.0
2023-05-24-10:00:56.379305,4.0,11.0,258.0
2023-05-24-10:00:56.380306,7.0,9.0,259.0
2023-05-24-10:00:56.381306,4.0,5.0,259.0
2023-05-24-10:00:56.382309,4.0,5.0,259.0
2023-05-24-10:00:56.383306,0.0,0.0,258.0
2023-05-24-10:00:56.384306,2.0,8.0,259.0
2023-05-24-10:00:56.385308,2.0,1.0,259.0
2023-05-24-10:00:56.386305,2.0,1.0,259.0
2023-05-24-10:00:56.387305,2.0,1.0,259.0
2023-05-24-10:00:56.388306,8.0,10.0,259.0
2023-05-24-10:00:56.389307,6.0,4.0,259.0
2023-05-24-10:00:56.390305,6.0,4.0,259.0
2023-05-24-10:00:56.391305,6.0,4.0,259.0
2023-05-24-10:00:56.392290,4.0,6.0,259.0
2023-05-24-10:00:56.393284,2.0,6.0,259.0
2023-05-24-10:00:56.394306,6.0,2.0,259.0
2023-05-24-10:00:56.395306,6.0,2.0,259.0
2023-05-24-10:00:56.396305,7.0,0.0,259.0
2023-05-24-10:00:56.397306,7.0,2.0,259.0
2023-05-24-10:00:56.398309,7.0,2.0,259.0
2023-05-24-10:00:56.400284,7.0,2.0,259.0
2023-05-24-10:00:56.400284,1.0,5.0,259.0
2023-05-24-10:00:56.401312,2.0,2.0,259.0
2023-05-24-10:00:56.402305,2.0,2.0,259.0
2023-05-24-10:00:56.403305,2.0,2.0,259.0
2023-05-24-10:00:56.404305,7.0,9.0,259.0
2023-05-24-10:00:56.405307,5.0,4.0,259.0
2023-05-24-10:00:56.406306,5.0,5.0,259.0
2023-05-24-10:00:56.407305,5.0,5.0,259.0
2023-05-24-10:00:56.408310,8.0,15.0,259.0
2023-05-24-10:00:56.409249,6.0,11.0,259.0
2023-05-24-10:00:56.410311,9.0,6.0,259.0
2023-05-24-10:00:56.411304,9.0,6.0,259.0
2023-05-24-10:00:56.412305,7.0,4.0,259.0
2023-05-24-10:00:56.413305,2.0,6.0,258.0
2023-05-24-10:00:56.414305,6.0,5.0,259.0
2023-05-24-10:00:56.415249,6.0,5.0,259.0
2023-05-24-10:00:56.416284,0.0,2.0,259.0
2023-05-24-10:00:56.417284,10.0,7.0,259.0
2023-05-24-10:00:56.418288,10.0,7.0,259.0
2023-05-24-10:00:56.419249,10.0,7.0,259.0
2023-05-24-10:00:56.420305,8.0,4.0,259.0
2023-05-24-10:00:56.421307,6.0,0.0,258.0
2023-05-24-10:00:56.422305,7.0,4.0,259.0
2023-05-24-10:00:56.423284,7.0,4.0,259.0
2023-05-24-10:00:56.424305,5.0,6.0,259.0
2023-05-24-10:00:56.425306,3.0,3.0,258.0
2023-05-24-10:00:56.426249,3.0,5.0,259.0
2023-05-24-10:00:56.427305,3.0,5.0,259.0
2023-05-24-10:00:56.428305,3.0,5.0,259.0
2023-05-24-10:00:56.429305,5.0,10.0,259.0
2023-05-24-10:00:56.430305,4.0,0.0,259.0
2023-05-24-10:00:56.431305,4.0,0.0,259.0
2023-05-24-10:00:56.432305,4.0,5.0,259.0
2023-05-24-10:00:56.434284,4.0,5.0,259.0
2023-05-24-10:00:56.434284,8.0,6.0,259.0
2023-05-24-10:00:56.435305,8.0,6.0,259.0
2023-05-24-10:00:56.436305,8.0,6.0,259.0
2023-05-24-10:00:56.437307,8.0,10.0,259.0
2023-05-24-10:00:56.438305,10.0,4.0,259.0
2023-05-24-10:00:56.439305,4.0,0.0,259.0
2023-05-24-10:00:56.440305,4.0,0.0,259.0
2023-05-24-10:00:56.441305,0.0,2.0,259.0
2023-05-24-10:00:56.442306,4.0,8.0,259.0
2023-05-24-10:00:56.443252,2.0,2.0,259.0
2023-05-24-10:00:56.444248,2.0,2.0,259.0
2023-05-24-10:00:56.445283,3.0,3.0,259.0
2023-05-24-10:00:56.446283,7.0,0.0,258.0
2023-05-24-10:00:56.447305,7.0,0.0,258.0
2023-05-24-10:00:56.448305,7.0,0.0,258.0
2023-05-24-10:00:56.449308,4.0,5.0,259.0
2023-05-24-10:00:56.450310,4.0,3.0,258.0
2023-05-24-10:00:56.451283,4.0,3.0,258.0
2023-05-24-10:00:56.452283,4.0,3.0,258.0
2023-05-24-10:00:56.453287,4.0,3.0,259.0
2023-05-24-10:00:56.454283,6.0,3.0,259.0
2023-05-24-10:00:56.455284,3.0,3.0,259.0
2023-05-24-10:00:56.456283,3.0,3.0,259.0
2023-05-24-10:00:56.457283,2.0,7.0,258.0
2023-05-24-10:00:56.458289,4.0,6.0,259.0
2023-05-24-10:00:56.459284,5.0,2.0,259.0
2023-05-24-10:00:56.460249,5.0,2.0,259.0
2023-05-24-10:00:56.461284,4.0,1.0,259.0
2023-05-24-10:00:56.462304,6.0,13.0,259.0
2023-05-24-10:00:56.463306,9.0,10.0,259.0
2023-05-24-10:00:56.464269,9.0,10.0,259.0
2023-05-24-10:00:56.465308,4.0,6.0,259.0
2023-05-24-10:00:56.466305,4.0,6.0,259.0
2023-05-24-10:00:56.468274,4.0,3.0,259.0
2023-05-24-10:00:56.468274,7.0,5.0,259.0
2023-05-24-10:00:56.469298,7.0,5.0,259.0
2023-05-24-10:00:56.470301,7.0,1.0,259.0
2023-05-24-10:00:56.471296,7.0,1.0,259.0
2023-05-24-10:00:56.472296,7.0,1.0,259.0
2023-05-24-10:00:56.473296,7.0,1.0,259.0
2023-05-24-10:00:56.474301,8.0,2.0,259.0
2023-05-24-10:00:56.475296,8.0,2.0,259.0
2023-05-24-10:00:56.476248,8.0,2.0,259.0
2023-05-24-10:00:56.477296,8.0,2.0,259.0
2023-05-24-10:00:56.478296,3.0,1.0,259.0
2023-05-24-10:00:56.479298,8.0,7.0,259.0
2023-05-24-10:00:56.480296,8.0,7.0,259.0
2023-05-24-10:00:56.481301,8.0,7.0,259.0
2023-05-24-10:00:56.482296,6.0,7.0,259.0
2023-05-24-10:00:56.483296,5.0,5.0,259.0
2023-05-24-10:00:56.484274,5.0,6.0,259.0
2023-05-24-10:00:56.485276,5.0,6.0,259.0
2023-05-24-10:00:56.486274,7.0,9.0,259.0
2023-05-24-10:00:56.487275,6.0,4.0,259.0
2023-05-24-10:00:56.488274,3.0,3.0,259.0
2023-05-24-10:00:56.489275,3.0,3.0,259.0
2023-05-24-10:00:56.490275,1.0,0.0,259.0
2023-05-24-10:00:56.491274,1.0,7.0,259.0
2023-05-24-10:00:56.492279,7.0,8.0,259.0
2023-05-24-10:00:56.493273,7.0,8.0,259.0
2023-05-24-10:00:56.494274,7.0,8.0,259.0
2023-05-24-10:00:56.495274,2.0,8.0,259.0
2023-05-24-10:00:56.496275,2.0,8.0,259.0
2023-05-24-10:00:56.497275,2.0,8.0,259.0
2023-05-24-10:00:56.498275,6.0,7.0,259.0
2023-05-24-10:00:56.499274,10.0,7.0,259.0
2023-05-24-10:00:56.501248,10.0,7.0,259.0
2023-05-24-10:00:56.501248,11.0,10.0,259.0
2023-05-24-10:00:56.502248,1.0,4.0,259.0
2023-05-24-10:00:56.503277,2.0,8.0,259.0
2023-05-24-10:00:56.504273,2.0,8.0,259.0
2023-05-24-10:00:56.505248,2.0,8.0,259.0
2023-05-24-10:00:56.506274,6.0,4.0,259.0
2023-05-24-10:00:56.507274,4.0,5.0,259.0
2023-05-24-10:00:56.508274,7.0,10.0,259.0
2023-05-24-10:00:56.509249,7.0,10.0,259.0
2023-05-24-10:00:56.510273,6.0,7.0,259.0
2023-05-24-10:00:56.511275,5.0,7.0,259.0
2023-05-24-10:00:56.512275,0.0,2.0,259.0
2023-05-24-10:00:56.513278,0.0,2.0,259.0
2023-05-24-10:00:56.514276,0.0,2.0,259.0
2023-05-24-10:00:56.515274,5.0,6.0,260.0
2023-05-24-10:00:56.516275,3.0,3.0,259.0
2023-05-24-10:00:56.517275,3.0,3.0,259.0
2023-05-24-10:00:56.518280,4.0,1.0,259.0
2023-05-24-10:00:56.519276,2.0,0.0,259.0
2023-05-24-10:00:56.520273,2.0,0.0,259.0
2023-05-24-10:00:56.521274,2.0,0.0,259.0
2023-05-24-10:00:56.522274,2.0,0.0,259.0
2023-05-24-10:00:56.523274,4.0,7.0,259.0
2023-05-24-10:00:56.524274,4.0,14.0,260.0
2023-05-24-10:00:56.525275,4.0,14.0,260.0
2023-05-24-10:00:56.526248,4.0,14.0,260.0
2023-05-24-10:00:56.527275,4.0,9.0,259.0
2023-05-24-10:00:56.528276,5.0,5.0,260.0
2023-05-24-10:00:56.529275,5.0,4.0,260.0
2023-05-24-10:00:56.530285,5.0,4.0,260.0
2023-05-24-10:00:56.531283,3.0,16.0,260.0
2023-05-24-10:00:56.532272,1.0,4.0,260.0
2023-05-24-10:00:56.533276,3.0,6.0,260.0
2023-05-24-10:00:56.534274,3.0,6.0,260.0
2023-05-24-10:00:56.535275,4.0,10.0,260.0
2023-05-24-10:00:56.537274,16.0,18.0,260.0
2023-05-24-10:00:56.537274,16.0,18.0,260.0
2023-05-24-10:00:56.538297,16.0,18.0,260.0
2023-05-24-10:00:56.539296,12.0,13.0,260.0
2023-05-24-10:00:56.540295,0.0,2.0,260.0
2023-05-24-10:00:56.541294,0.0,2.0,260.0
2023-05-24-10:00:56.542248,0.0,2.0,260.0
2023-05-24-10:00:56.543308,6.0,7.0,260.0
2023-05-24-10:00:56.544304,6.0,7.0,260.0
2023-05-24-10:00:56.545308,6.0,7.0,260.0
2023-05-24-10:00:56.546249,6.0,7.0,260.0
2023-05-24-10:00:56.547305,6.0,10.0,260.0
2023-05-24-10:00:56.548304,8.0,8.0,260.0
2023-05-24-10:00:56.549306,7.0,3.0,260.0
2023-05-24-10:00:56.550303,7.0,3.0,260.0
2023-05-24-10:00:56.551304,9.0,2.0,260.0
2023-05-24-10:00:56.552305,3.0,1.0,260.0
2023-05-24-10:00:56.553283,3.0,1.0,260.0
2023-05-24-10:00:56.554284,3.0,1.0,260.0
2023-05-24-10:00:56.555283,3.0,1.0,260.0
2023-05-24-10:00:56.556250,5.0,4.0,260.0
2023-05-24-10:00:56.557250,5.0,4.0,260.0
2023-05-24-10:00:56.558250,5.0,4.0,260.0
2023-05-24-10:00:56.559250,5.0,4.0,260.0
2023-05-24-10:00:56.560250,2.0,1.0,260.0
2023-05-24-10:00:56.561250,11.0,3.0,260.0
2023-05-24-10:00:56.562250,11.0,3.0,260.0
2023-05-24-10:00:56.563250,11.0,3.0,260.0
2023-05-24-10:00:56.564263,0.0,3.0,260.0
2023-05-24-10:00:56.565288,0.0,3.0,260.0
2023-05-24-10:00:56.566251,0.0,3.0,260.0
2023-05-24-10:00:56.567251,0.0,3.0,260.0
2023-05-24-10:00:56.568273,5.0,1.0,260.0
2023-05-24-10:00:56.569274,5.0,1.0,260.0
2023-05-24-10:00:56.570251,7.0,1.0,260.0
2023-05-24-10:00:56.572247,7.0,1.0,260.0
2023-05-24-10:00:56.572247,5.0,5.0,260.0
2023-05-24-10:00:56.573248,5.0,5.0,260.0
2023-05-24-10:00:56.574248,8.0,16.0,260.0
2023-05-24-10:00:56.575282,8.0,16.0,260.0
2023-05-24-10:00:56.576284,8.0,18.0,260.0
2023-05-24-10:00:56.577281,6.0,17.0,260.0
2023-05-24-10:00:56.578286,6.0,17.0,260.0
2023-05-24-10:00:56.579281,6.0,17.0,260.0
2023-05-24-10:00:56.580281,5.0,20.0,260.0
2023-05-24-10:00:56.581283,1.0,7.0,260.0
2023-05-24-10:00:56.582281,1.0,7.0,260.0
2023-05-24-10:00:56.583249,1.0,7.0,260.0
2023-05-24-10:00:56.584283,4.0,8.0,260.0
2023-05-24-10:00:56.585251,5.0,1.0,260.0
2023-05-24-10:00:56.586281,5.0,1.0,260.0
2023-05-24-10:00:56.587249,5.0,1.0,260.0
2023-05-24-10:00:56.588286,3.0,12.0,260.0
2023-05-24-10:00:56.589284,0.0,33.0,260.0
2023-05-24-10:00:56.590288,2.0,25.0,260.0
2023-05-24-10:00:56.591247,2.0,25.0,260.0
2023-05-24-10:00:56.592284,6.0,6.0,260.0
2023-05-24-10:00:56.593287,9.0,2.0,260.0
2023-05-24-10:00:56.594285,6.0,5.0,260.0
2023-05-24-10:00:56.595299,6.0,5.0,260.0
2023-05-24-10:00:56.596284,9.0,9.0,260.0
2023-05-24-10:00:56.597285,8.0,9.0,260.0
2023-05-24-10:00:56.598283,8.0,9.0,260.0
2023-05-24-10:00:56.599286,8.0,9.0,260.0
2023-05-24-10:00:56.600283,8.0,9.0,260.0
2023-05-24-10:00:56.601284,0.0,9.0,260.0
2023-05-24-10:00:56.602284,4.0,11.0,260.0
2023-05-24-10:00:56.603283,4.0,11.0,260.0
2023-05-24-10:00:56.604282,8.0,6.0,260.0
2023-05-24-10:00:56.606283,8.0,6.0,260.0
2023-05-24-10:00:56.606283,7.0,0.0,260.0
2023-05-24-10:00:56.607309,7.0,0.0,260.0
2023-05-24-10:00:56.608304,7.0,0.0,260.0
2023-05-24-10:00:56.609269,1.0,15.0,260.0
2023-05-24-10:00:56.610248,7.0,12.0,260.0
2023-05-24-10:00:56.611304,2.0,3.0,260.0
2023-05-24-10:00:56.612304,2.0,3.0,260.0
2023-05-24-10:00:56.613306,6.0,17.0,260.0
2023-05-24-10:00:56.614304,7.0,8.0,260.0
2023-05-24-10:00:56.615304,4.0,8.0,260.0
2023-05-24-10:00:56.616305,4.0,8.0,260.0
2023-05-24-10:00:56.617304,4.0,5.0,260.0
2023-05-24-10:00:56.618306,3.0,4.0,260.0
2023-05-24-10:00:56.619256,1.0,1.0,260.0
2023-05-24-10:00:56.620249,1.0,11.0,260.0
2023-05-24-10:00:56.621282,9.0,4.0,260.0
2023-05-24-10:00:56.622282,9.0,4.0,260.0
2023-05-24-10:00:56.623283,9.0,4.0,260.0
2023-05-24-10:00:56.624284,9.0,4.0,260.0
2023-05-24-10:00:56.625283,8.0,6.0,260.0
2023-05-24-10:00:56.626249,7.0,7.0,260.0
2023-05-24-10:00:56.627248,5.0,8.0,260.0
2023-05-24-10:00:56.628249,5.0,8.0,260.0
2023-05-24-10:00:56.629285,2.0,8.0,260.0
2023-05-24-10:00:56.630283,5.0,6.0,261.0
2023-05-24-10:00:56.631284,8.0,6.0,260.0
2023-05-24-10:00:56.632249,8.0,6.0,260.0
2023-05-24-10:00:56.633284,3.0,1.0,260.0
2023-05-24-10:00:56.634284,4.0,1.0,261.0
2023-05-24-10:00:56.635283,2.0,5.0,260.0
2023-05-24-10:00:56.636284,2.0,5.0,260.0
2023-05-24-10:00:56.637285,2.0,7.0,260.0
2023-05-24-10:00:56.638283,2.0,7.0,260.0
2023-05-24-10:00:56.640304,6.0,6.0,260.0
2023-05-24-10:00:56.640304,0.0,5.0,260.0
2023-05-24-10:00:56.641249,8.0,9.0,260.0
2023-05-24-10:00:56.642305,13.0,7.0,260.0
2023-05-24-10:00:56.643305,13.0,7.0,260.0
2023-05-24-10:00:56.644305,13.0,7.0,260.0
2023-05-24-10:00:56.645308,13.0,7.0,260.0
2023-05-24-10:00:56.646305,8.0,7.0,260.0
2023-05-24-10:00:56.647304,5.0,1.0,260.0
2023-05-24-10:00:56.648306,5.0,1.0,260.0
2023-05-24-10:00:56.649304,5.0,1.0,260.0
2023-05-24-10:00:56.650306,5.0,1.0,260.0
2023-05-24-10:00:56.651305,1.0,3.0,260.0
2023-05-24-10:00:56.652304,1.0,9.0,260.0
2023-05-24-10:00:56.653283,1.0,9.0,260.0
2023-05-24-10:00:56.654303,1.0,15.0,260.0
2023-05-24-10:00:56.655304,1.0,15.0,260.0
2023-05-24-10:00:56.656304,5.0,14.0,260.0
2023-05-24-10:00:56.657308,5.0,14.0,260.0
2023-05-24-10:00:56.658295,1.0,11.0,260.0
2023-05-24-10:00:56.659249,0.0,5.0,260.0
2023-05-24-10:00:56.660302,5.0,11.0,260.0
2023-05-24-10:00:56.661297,5.0,11.0,260.0
2023-05-24-10:00:56.662295,9.0,10.0,260.0
2023-05-24-10:00:56.663295,11.0,11.0,260.0
2023-05-24-10:00:56.664296,7.0,11.0,260.0
2023-05-24-10:00:56.665295,7.0,11.0,260.0
2023-05-24-10:00:56.666248,5.0,7.0,260.0
2023-05-24-10:00:56.667249,6.0,6.0,260.0
2023-05-24-10:00:56.668248,6.0,6.0,260.0
2023-05-24-10:00:56.669249,6.0,6.0,260.0
2023-05-24-10:00:56.670304,4.0,6.0,260.0
2023-05-24-10:00:56.671304,3.0,0.0,260.0
2023-05-24-10:00:56.672304,1.0,2.0,260.0
2023-05-24-10:00:56.673249,1.0,2.0,260.0
2023-05-24-10:00:56.675283,4.0,9.0,260.0
2023-05-24-10:00:56.675283,5.0,10.0,260.0
2023-05-24-10:00:56.676305,5.0,10.0,260.0
2023-05-24-10:00:56.677271,5.0,10.0,260.0
2023-05-24-10:00:56.678305,5.0,11.0,260.0
2023-05-24-10:00:56.679304,4.0,7.0,260.0
2023-05-24-10:00:56.680306,2.0,6.0,260.0
2023-05-24-10:00:56.681305,2.0,6.0,260.0
2023-05-24-10:00:56.682258,7.0,12.0,260.0
2023-05-24-10:00:56.683281,9.0,14.0,260.0
2023-05-24-10:00:56.684282,9.0,14.0,260.0
2023-05-24-10:00:56.685282,9.0,14.0,260.0
2023-05-24-10:00:56.686281,9.0,14.0,260.0
2023-05-24-10:00:56.687282,8.0,22.0,260.0
2023-05-24-10:00:56.688284,16.0,6.0,260.0
2023-05-24-10:00:56.689284,22.0,2.0,260.0
2023-05-24-10:00:56.690284,1.0,12.0,260.0
2023-05-24-10:00:56.691281,6.0,8.0,260.0
2023-05-24-10:00:56.692282,6.0,8.0,260.0
2023-05-24-10:00:56.693283,6.0,8.0,260.0
2023-05-24-10:00:56.694281,6.0,8.0,260.0
2023-05-24-10:00:56.695284,1.0,17.0,260.0
2023-05-24-10:00:56.696281,8.0,4.0,260.0
2023-05-24-10:00:56.697289,8.0,4.0,260.0
2023-05-24-10:00:56.698306,8.0,4.0,260.0
2023-05-24-10:00:56.699304,10.0,6.0,260.0
2023-05-24-10:00:56.700304,1.0,9.0,260.0
2023-05-24-10:00:56.701304,1.0,3.0,260.0
2023-05-24-10:00:56.702304,1.0,3.0,260.0
2023-05-24-10:00:56.703304,16.0,10.0,260.0
2023-05-24-10:00:56.704309,19.0,17.0,260.0
2023-05-24-10:00:56.705308,17.0,20.0,260.0
2023-05-24-10:00:56.706311,17.0,20.0,260.0
2023-05-24-10:00:56.707304,7.0,13.0,260.0
2023-05-24-10:00:56.709249,2.0,4.0,260.0
2023-05-24-10:00:56.709249,2.0,4.0,260.0
2023-05-24-10:00:56.710304,2.0,4.0,260.0
2023-05-24-10:00:56.711304,13.0,27.0,260.0
2023-05-24-10:00:56.712297,3.0,11.0,260.0
2023-05-24-10:00:56.713296,7.0,2.0,260.0
2023-05-24-10:00:56.714275,7.0,2.0,260.0
2023-05-24-10:00:56.715248,8.0,5.0,260.0
2023-05-24-10:00:56.716304,6.0,7.0,260.0
2023-05-24-10:00:56.717304,1.0,0.0,260.0
2023-05-24-10:00:56.718249,1.0,0.0,260.0
2023-05-24-10:00:56.719304,4.0,1.0,260.0
2023-05-24-10:00:56.720304,2.0,3.0,260.0
2023-05-24-10:00:56.721308,12.0,17.0,260.0
2023-05-24-10:00:56.722315,12.0,17.0,260.0
2023-05-24-10:00:56.723304,18.0,16.0,260.0
2023-05-24-10:00:56.724304,7.0,1.0,260.0
2023-05-24-10:00:56.725306,7.0,1.0,260.0
2023-05-24-10:00:56.726307,7.0,1.0,260.0
2023-05-24-10:00:56.727304,7.0,1.0,260.0
2023-05-24-10:00:56.728305,2.0,10.0,260.0
2023-05-24-10:00:56.729249,8.0,10.0,260.0
2023-05-24-10:00:56.730274,8.0,10.0,260.0
2023-05-24-10:00:56.731275,8.0,10.0,260.0
2023-05-24-10:00:56.732275,6.0,8.0,260.0
2023-05-24-10:00:56.733274,0.0,7.0,260.0
2023-05-24-10:00:56.734279,3.0,4.0,260.0
2023-05-24-10:00:56.735274,3.0,4.0,260.0
2023-05-24-10:00:56.736275,3.0,5.0,260.0
2023-05-24-10:00:56.737274,1.0,10.0,260.0
2023-05-24-10:00:56.738276,1.0,10.0,260.0
2023-05-24-10:00:56.740273,1.0,10.0,260.0
2023-05-24-10:00:56.740273,1.0,2.0,260.0
2023-05-24-10:00:56.741297,1.0,2.0,260.0
2023-05-24-10:00:56.742248,1.0,2.0,260.0
2023-05-24-10:00:56.743275,1.0,2.0,260.0
2023-05-24-10:00:56.744296,7.0,6.0,260.0
2023-05-24-10:00:56.745295,3.0,29.0,260.0
2023-05-24-10:00:56.746297,10.0,22.0,260.0
2023-05-24-10:00:56.747295,10.0,22.0,260.0
2023-05-24-10:00:56.748295,10.0,4.0,260.0
2023-05-24-10:00:56.749295,1.0,12.0,260.0
2023-05-24-10:00:56.750295,1.0,12.0,260.0
2023-05-24-10:00:56.751295,1.0,12.0,260.0
2023-05-24-10:00:56.752295,6.0,9.0,260.0
2023-05-24-10:00:56.753299,22.0,5.0,260.0
2023-05-24-10:00:56.754295,22.0,5.0,260.0
2023-05-24-10:00:56.755248,22.0,5.0,260.0
2023-05-24-10:00:56.756295,15.0,3.0,260.0
2023-05-24-10:00:56.757249,9.0,2.0,260.0
2023-05-24-10:00:56.758248,7.0,3.0,260.0
2023-05-24-10:00:56.759249,7.0,3.0,260.0
2023-05-24-10:00:56.760284,4.0,8.0,260.0
2023-05-24-10:00:56.761276,1.0,6.0,260.0
2023-05-24-10:00:56.762272,1.0,6.0,260.0
2023-05-24-10:00:56.763273,1.0,6.0,260.0
2023-05-24-10:00:56.764272,0.0,8.0,260.0
2023-05-24-10:00:56.765273,11.0,4.0,260.0
2023-05-24-10:00:56.766272,4.0,11.0,260.0
2023-05-24-10:00:56.767272,4.0,11.0,260.0
2023-05-24-10:00:56.768282,4.0,11.0,260.0
2023-05-24-10:00:56.769272,16.0,20.0,260.0
2023-05-24-10:00:56.770272,11.0,6.0,260.0
2023-05-24-10:00:56.771272,11.0,6.0,260.0
2023-05-24-10:00:56.772273,11.0,6.0,260.0
2023-05-24-10:00:56.773275,6.0,16.0,260.0
2023-05-24-10:00:56.775274,1.0,1.0,260.0
2023-05-24-10:00:56.776247,12.0,13.0,260.0
2023-05-24-10:00:56.776247,6.0,9.0,260.0
2023-05-24-10:00:56.777280,6.0,9.0,260.0
2023-05-24-10:00:56.778275,6.0,9.0,260.0
2023-05-24-10:00:56.779277,6.0,9.0,260.0
2023-05-24-10:00:56.780274,6.0,9.0,260.0
2023-05-24-10:00:56.781283,6.0,8.0,260.0
2023-05-24-10:00:56.782283,3.0,4.0,260.0
2023-05-24-10:00:56.783283,1.0,2.0,260.0
2023-05-24-10:00:56.784284,1.0,2.0,260.0
2023-05-24-10:00:56.785284,8.0,3.0,260.0
2023-05-24-10:00:56.786285,3.0,5.0,260.0
2023-05-24-10:00:56.787283,5.0,5.0,260.0
2023-05-24-10:00:56.788284,5.0,5.0,260.0
2023-05-24-10:00:56.789285,5.0,4.0,260.0
2023-05-24-10:00:56.790283,12.0,14.0,260.0
2023-05-24-10:00:56.791285,3.0,8.0,260.0
2023-05-24-10:00:56.792283,3.0,9.0,260.0
2023-05-24-10:00:56.793285,10.0,15.0,260.0
2023-05-24-10:00:56.794275,9.0,1.0,260.0
2023-05-24-10:00:56.795279,9.0,1.0,260.0
2023-05-24-10:00:56.796248,9.0,1.0,260.0
2023-05-24-10:00:56.797285,11.0,7.0,260.0
2023-05-24-10:00:56.798295,8.0,2.0,260.0
2023-05-24-10:00:56.799295,8.0,2.0,260.0
2023-05-24-10:00:56.800249,8.0,2.0,260.0
2023-05-24-10:00:56.801303,4.0,5.0,260.0
2023-05-24-10:00:56.802304,4.0,9.0,260.0
2023-05-24-10:00:56.803304,5.0,4.0,260.0
2023-05-24-10:00:56.804268,5.0,4.0,260.0
2023-05-24-10:00:56.805306,11.0,2.0,260.0
2023-05-24-10:00:56.806304,9.0,3.0,260.0
2023-05-24-10:00:56.807311,1.0,9.0,260.0
2023-05-24-10:00:56.808323,1.0,9.0,260.0
2023-05-24-10:00:56.809304,5.0,5.0,260.0
2023-05-24-10:00:56.811282,5.0,7.0,260.0
2023-05-24-10:00:56.811282,5.0,7.0,260.0
2023-05-24-10:00:56.812247,5.0,7.0,260.0
2023-05-24-10:00:56.813281,5.0,1.0,260.0
2023-05-24-10:00:56.814286,3.0,6.0,260.0
2023-05-24-10:00:56.815282,3.0,6.0,260.0
2023-05-24-10:00:56.816284,3.0,6.0,260.0
2023-05-24-10:00:56.817281,3.0,6.0,260.0
2023-05-24-10:00:56.818289,4.0,2.0,260.0
