2022-01-28-10:41:14.168042,0.0,21.0,344.0
2022-01-28-10:41:14.169074,2.0,15.0,344.0
2022-01-28-10:41:14.170062,5.0,16.0,344.0
2022-01-28-10:41:14.170062,6.0,28.0,344.0
2022-01-28-10:41:14.171040,14.0,0.0,344.0
2022-01-28-10:41:14.172062,5.0,6.0,344.0
2022-01-28-10:41:14.173057,1.0,20.0,344.0
2022-01-28-10:41:14.174057,0.0,18.0,344.0
2022-01-28-10:41:14.176031,2.0,10.0,344.0
2022-01-28-10:41:14.177013,6.0,2.0,344.0
2022-01-28-10:41:14.177013,5.0,4.0,344.0
2022-01-28-10:41:14.178010,9.0,10.0,344.0
2022-01-28-10:41:14.179055,10.0,11.0,343.0
2022-01-28-10:41:14.180039,13.0,11.0,344.0
2022-01-28-10:41:14.181035,10.0,2.0,344.0
2022-01-28-10:41:14.182040,2.0,9.0,344.0
2022-01-28-10:41:14.183033,1.0,8.0,344.0
2022-01-28-10:41:14.184024,1.0,11.0,343.0
2022-01-28-10:41:14.185025,5.0,7.0,345.0
2022-01-28-10:41:14.186022,7.0,3.0,344.0
2022-01-28-10:41:14.187019,9.0,1.0,343.0
2022-01-28-10:41:14.188016,7.0,6.0,344.0
2022-01-28-10:41:14.189013,12.0,0.0,343.0
2022-01-28-10:41:14.190011,11.0,3.0,344.0
2022-01-28-10:41:14.191020,11.0,6.0,343.0
2022-01-28-10:41:14.192001,3.0,7.0,344.0
2022-01-28-10:41:14.192991,2.0,3.0,344.0
2022-01-28-10:41:14.193969,0.0,13.0,344.0
2022-01-28-10:41:14.195011,0.0,15.0,343.0
2022-01-28-10:41:14.195996,7.0,14.0,344.0
2022-01-28-10:41:14.196993,7.0,6.0,343.0
2022-01-28-10:41:14.197555,6.0,11.0,344.0
2022-01-28-10:41:14.197956,10.0,3.0,343.0
2022-01-28-10:41:14.198990,9.0,2.0,344.0
2022-01-28-10:41:14.199987,8.0,3.0,343.0
2022-01-28-10:41:14.200985,6.0,5.0,343.0
2022-01-28-10:41:14.201980,2.0,13.0,343.0
2022-01-28-10:41:14.202980,3.0,8.0,344.0
2022-01-28-10:41:14.203967,0.0,4.0,344.0
2022-01-28-10:41:14.204967,3.0,5.0,343.0
2022-01-28-10:41:14.205965,1.0,9.0,344.0
2022-01-28-10:41:14.206960,4.0,5.0,344.0
2022-01-28-10:41:14.207958,6.0,10.0,343.0
2022-01-28-10:41:14.208955,6.0,26.0,343.0
2022-01-28-10:41:14.210921,12.0,27.0,344.0
2022-01-28-10:41:14.211918,8.0,4.0,343.0
2022-01-28-10:41:14.211918,2.0,11.0,343.0
2022-01-28-10:41:14.212944,3.0,9.0,344.0
2022-01-28-10:41:14.213943,8.0,5.0,344.0
2022-01-28-10:41:14.214939,2.0,4.0,344.0
2022-01-28-10:41:14.215933,12.0,1.0,343.0
2022-01-28-10:41:14.216933,10.0,3.0,343.0
2022-01-28-10:41:14.217929,9.0,3.0,344.0
2022-01-28-10:41:14.218926,8.0,6.0,343.0
2022-01-28-10:41:14.219924,5.0,15.0,344.0
2022-01-28-10:41:14.220922,3.0,15.0,343.0
2022-01-28-10:41:14.221922,4.0,10.0,344.0
2022-01-28-10:41:14.222919,0.0,8.0,343.0
2022-01-28-10:41:14.223919,1.0,8.0,344.0
2022-01-28-10:41:14.224911,6.0,3.0,344.0
2022-01-28-10:41:14.225909,5.0,2.0,344.0
2022-01-28-10:41:14.226905,10.0,7.0,343.0
2022-01-28-10:41:14.227896,12.0,16.0,344.0
2022-01-28-10:41:14.228900,2.0,10.0,344.0
2022-01-28-10:41:14.229897,2.0,31.0,343.0
2022-01-28-10:41:14.230878,2.0,5.0,343.0
2022-01-28-10:41:14.231892,2.0,8.0,344.0
2022-01-28-10:41:14.232910,10.0,7.0,343.0
2022-01-28-10:41:14.233917,7.0,4.0,344.0
2022-01-28-10:41:14.233917,6.0,8.0,344.0
2022-01-28-10:41:14.234953,2.0,8.0,344.0
2022-01-28-10:41:14.235944,3.0,8.0,344.0
2022-01-28-10:41:14.236941,3.0,5.0,343.0
2022-01-28-10:41:14.237938,2.0,4.0,344.0
2022-01-28-10:41:14.238933,2.0,2.0,344.0
2022-01-28-10:41:14.239932,4.0,4.0,344.0
2022-01-28-10:41:14.240928,8.0,6.0,344.0
2022-01-28-10:41:14.242896,12.0,0.0,344.0
2022-01-28-10:41:14.242896,2.0,4.0,344.0
2022-01-28-10:41:14.243909,1.0,10.0,344.0
2022-01-28-10:41:14.244919,1.0,28.0,343.0
2022-01-28-10:41:14.245938,3.0,10.0,344.0
2022-01-28-10:41:14.246885,10.0,17.0,343.0
2022-01-28-10:41:14.247903,10.0,26.0,343.0
2022-01-28-10:41:14.248910,11.0,28.0,344.0
2022-01-28-10:41:14.249877,14.0,5.0,343.0
2022-01-28-10:41:14.250922,1.0,15.0,343.0
2022-01-28-10:41:14.251922,1.0,31.0,344.0
2022-01-28-10:41:14.252916,2.0,29.0,343.0
2022-01-28-10:41:14.253914,2.0,10.0,344.0
2022-01-28-10:41:14.254911,6.0,1.0,343.0
2022-01-28-10:41:14.255909,10.0,10.0,343.0
2022-01-28-10:41:14.256908,9.0,1.0,343.0
2022-01-28-10:41:14.257903,1.0,13.0,344.0
2022-01-28-10:41:14.258901,2.0,8.0,343.0
2022-01-28-10:41:14.259901,1.0,4.0,344.0
2022-01-28-10:41:14.260848,4.0,4.0,343.0
2022-01-28-10:41:14.261893,3.0,5.0,344.0
2022-01-28-10:41:14.262891,6.0,2.0,343.0
2022-01-28-10:41:14.263886,9.0,9.0,344.0
2022-01-28-10:41:14.264941,12.0,4.0,343.0
2022-01-28-10:41:14.264941,1.0,15.0,344.0
2022-01-28-10:41:14.265966,1.0,6.0,343.0
2022-01-28-10:41:14.267189,1.0,10.0,343.0
2022-01-28-10:41:14.267189,4.0,2.0,343.0
2022-01-28-10:41:14.268235,4.0,5.0,343.0
2022-01-28-10:41:14.269285,6.0,1.0,343.0
2022-01-28-10:41:14.269285,12.0,11.0,344.0
2022-01-28-10:41:14.270312,12.0,11.0,344.0
2022-01-28-10:41:14.271281,11.0,0.0,344.0
2022-01-28-10:41:14.272279,2.0,11.0,344.0
2022-01-28-10:41:14.273276,3.0,11.0,344.0
2022-01-28-10:41:14.275666,6.0,19.0,344.0
2022-01-28-10:41:14.275666,4.0,2.0,343.0
2022-01-28-10:41:14.276688,4.0,2.0,343.0
2022-01-28-10:41:14.277688,4.0,7.0,344.0
2022-01-28-10:41:14.278684,1.0,2.0,343.0
2022-01-28-10:41:14.279681,1.0,1.0,343.0
2022-01-28-10:41:14.280682,8.0,12.0,344.0
2022-01-28-10:41:14.281675,8.0,1.0,344.0
2022-01-28-10:41:14.282717,8.0,3.0,343.0
2022-01-28-10:41:14.283162,8.0,2.0,343.0
2022-01-28-10:41:14.283162,7.0,5.0,344.0
2022-01-28-10:41:14.284189,4.0,9.0,344.0
2022-01-28-10:41:14.285183,3.0,11.0,343.0
2022-01-28-10:41:14.286182,4.0,18.0,344.0
2022-01-28-10:41:14.287178,1.0,15.0,344.0
2022-01-28-10:41:14.288177,12.0,25.0,344.0
2022-01-28-10:41:14.289177,14.0,30.0,344.0
2022-01-28-10:41:14.290170,5.0,17.0,344.0
2022-01-28-10:41:14.291172,2.0,27.0,344.0
2022-01-28-10:41:14.292164,3.0,16.0,344.0
2022-01-28-10:41:14.293162,1.0,2.0,344.0
2022-01-28-10:41:14.294135,3.0,1.0,344.0
2022-01-28-10:41:14.295180,5.0,2.0,344.0
2022-01-28-10:41:14.296363,12.0,2.0,344.0
2022-01-28-10:41:14.296363,9.0,6.0,344.0
2022-01-28-10:41:14.297415,3.0,10.0,344.0
2022-01-28-10:41:14.298406,1.0,12.0,344.0
2022-01-28-10:41:14.299409,3.0,3.0,343.0
2022-01-28-10:41:14.300401,4.0,4.0,343.0
2022-01-28-10:41:14.301402,6.0,11.0,343.0
2022-01-28-10:41:14.302399,11.0,11.0,344.0
2022-01-28-10:41:14.303396,10.0,6.0,344.0
2022-01-28-10:41:14.304396,12.0,8.0,344.0
2022-01-28-10:41:14.305387,5.0,16.0,344.0
2022-01-28-10:41:14.306385,2.0,16.0,344.0
2022-01-28-10:41:14.308369,1.0,16.0,344.0
2022-01-28-10:41:14.308369,3.0,12.0,344.0
2022-01-28-10:41:14.309382,4.0,11.0,343.0
2022-01-28-10:41:14.310375,11.0,8.0,343.0
2022-01-28-10:41:14.311371,7.0,2.0,343.0
2022-01-28-10:41:14.312369,1.0,16.0,343.0
2022-01-28-10:41:14.313332,1.0,6.0,343.0
2022-01-28-10:41:14.314317,5.0,3.0,344.0
2022-01-28-10:41:14.315362,6.0,6.0,344.0
2022-01-28-10:41:14.316365,4.0,7.0,343.0
2022-01-28-10:41:14.317359,6.0,16.0,344.0
2022-01-28-10:41:14.318354,9.0,13.0,343.0
2022-01-28-10:41:14.319350,6.0,11.0,343.0
2022-01-28-10:41:14.320354,2.0,12.0,344.0
2022-01-28-10:41:14.321345,1.0,12.0,343.0
2022-01-28-10:41:14.322343,2.0,15.0,344.0
2022-01-28-10:41:14.323345,5.0,5.0,343.0
2022-01-28-10:41:14.324317,9.0,6.0,344.0
2022-01-28-10:41:14.325338,11.0,13.0,343.0
2022-01-28-10:41:14.326332,3.0,3.0,344.0
2022-01-28-10:41:14.327283,1.0,2.0,344.0
2022-01-28-10:41:14.328328,3.0,8.0,344.0
2022-01-28-10:41:14.329324,8.0,9.0,343.0
2022-01-28-10:41:14.330372,5.0,4.0,344.0
2022-01-28-10:41:14.330831,9.0,4.0,344.0
2022-01-28-10:41:14.330831,8.0,2.0,343.0
2022-01-28-10:41:14.331878,4.0,13.0,344.0
2022-01-28-10:41:14.332874,1.0,10.0,344.0
2022-01-28-10:41:14.333873,3.0,7.0,343.0
2022-01-28-10:41:14.334869,6.0,13.0,344.0
2022-01-28-10:41:14.335867,5.0,2.0,344.0
2022-01-28-10:41:14.336866,11.0,12.0,344.0
2022-01-28-10:41:14.337861,13.0,1.0,343.0
2022-01-28-10:41:14.338858,7.0,6.0,343.0
2022-01-28-10:41:14.339857,2.0,9.0,344.0
2022-01-28-10:41:14.340855,2.0,9.0,343.0
2022-01-28-10:41:14.342847,2.0,7.0,343.0
2022-01-28-10:41:14.342847,0.0,6.0,344.0
2022-01-28-10:41:14.343800,4.0,4.0,344.0
2022-01-28-10:41:14.344844,10.0,1.0,344.0
2022-01-28-10:41:14.345844,10.0,1.0,344.0
2022-01-28-10:41:14.346791,5.0,9.0,343.0
2022-01-28-10:41:14.347788,1.0,10.0,344.0
2022-01-28-10:41:14.348833,2.0,9.0,344.0
2022-01-28-10:41:14.349878,4.0,11.0,344.0
2022-01-28-10:41:14.350362,1.0,4.0,344.0
2022-01-28-10:41:14.350362,8.0,3.0,344.0
2022-01-28-10:41:14.351408,10.0,3.0,344.0
2022-01-28-10:41:14.352407,7.0,0.0,344.0
2022-01-28-10:41:14.353403,7.0,10.0,343.0
2022-01-28-10:41:14.354402,2.0,9.0,344.0
2022-01-28-10:41:14.355400,0.0,8.0,344.0
2022-01-28-10:41:14.356399,0.0,6.0,343.0
2022-01-28-10:41:14.357393,3.0,4.0,344.0
2022-01-28-10:41:14.358389,4.0,3.0,344.0
2022-01-28-10:41:14.359386,10.0,5.0,344.0
2022-01-28-10:41:14.360385,8.0,7.0,343.0
2022-01-28-10:41:14.361362,3.0,8.0,343.0
2022-01-28-10:41:14.362380,1.0,7.0,344.0
2022-01-28-10:41:14.363331,5.0,9.0,343.0
2022-01-28-10:41:14.364378,3.0,26.0,344.0
2022-01-28-10:41:14.365372,8.0,0.0,344.0
2022-01-28-10:41:14.366369,3.0,10.0,344.0
2022-01-28-10:41:14.367366,1.0,21.0,344.0
2022-01-28-10:41:14.368362,0.0,20.0,344.0
2022-01-28-10:41:14.369360,8.0,14.0,344.0
2022-01-28-10:41:14.370359,6.0,1.0,343.0
2022-01-28-10:41:14.371355,6.0,2.0,344.0
2022-01-28-10:41:14.372356,4.0,9.0,343.0
2022-01-28-10:41:14.373351,14.0,13.0,344.0
2022-01-28-10:41:14.374347,5.0,8.0,343.0
2022-01-28-10:41:14.375346,2.0,1.0,344.0
2022-01-28-10:41:14.376315,3.0,4.0,344.0
2022-01-28-10:41:14.378337,1.0,9.0,344.0
2022-01-28-10:41:14.378337,5.0,13.0,344.0
2022-01-28-10:41:14.379375,8.0,2.0,344.0
2022-01-28-10:41:14.379375,11.0,5.0,343.0
2022-01-28-10:41:14.380407,4.0,4.0,344.0
2022-01-28-10:41:14.381405,1.0,9.0,344.0
2022-01-28-10:41:14.382396,1.0,7.0,343.0
2022-01-28-10:41:14.383391,3.0,10.0,343.0
2022-01-28-10:41:14.384388,5.0,9.0,344.0
2022-01-28-10:41:14.385389,6.0,1.0,344.0
2022-01-28-10:41:14.386383,8.0,7.0,344.0
2022-01-28-10:41:14.387382,13.0,13.0,343.0
2022-01-28-10:41:14.388382,13.0,13.0,343.0
2022-01-28-10:41:14.389376,6.0,0.0,343.0
2022-01-28-10:41:14.390376,5.0,10.0,344.0
2022-01-28-10:41:14.391370,5.0,10.0,344.0
2022-01-28-10:41:14.392367,5.0,10.0,344.0
2022-01-28-10:41:14.393368,1.0,18.0,343.0
2022-01-28-10:41:14.394365,0.0,18.0,344.0
2022-01-28-10:41:14.395361,0.0,18.0,344.0
2022-01-28-10:41:14.396357,0.0,18.0,344.0
2022-01-28-10:41:14.397354,1.0,12.0,343.0
2022-01-28-10:41:14.398353,2.0,4.0,344.0
2022-01-28-10:41:14.399350,3.0,5.0,344.0
2022-01-28-10:41:14.400346,3.0,5.0,344.0
2022-01-28-10:41:14.401347,4.0,3.0,344.0
2022-01-28-10:41:14.402341,5.0,3.0,343.0
2022-01-28-10:41:14.403448,11.0,5.0,344.0
2022-01-28-10:41:14.403448,11.0,5.0,344.0
2022-01-28-10:41:14.404481,11.0,5.0,344.0
2022-01-28-10:41:14.405481,11.0,2.0,343.0
2022-01-28-10:41:14.406477,6.0,5.0,344.0
2022-01-28-10:41:14.407474,4.0,13.0,344.0
2022-01-28-10:41:14.408471,4.0,13.0,344.0
2022-01-28-10:41:14.409469,2.0,15.0,343.0
2022-01-28-10:41:14.410466,2.0,15.0,343.0
2022-01-28-10:41:14.412483,2.0,2.0,344.0
2022-01-28-10:41:14.412483,4.0,7.0,344.0
2022-01-28-10:41:14.413456,2.0,5.0,344.0
2022-01-28-10:41:14.414567,3.0,1.0,344.0
2022-01-28-10:41:14.414567,3.0,1.0,344.0
2022-01-28-10:41:14.415598,3.0,1.0,344.0
2022-01-28-10:41:14.416588,3.0,1.0,344.0
2022-01-28-10:41:14.417867,4.0,2.0,344.0
2022-01-28-10:41:14.417867,4.0,1.0,344.0
2022-01-28-10:41:14.418921,12.0,2.0,344.0
2022-01-28-10:41:14.419919,12.0,2.0,344.0
2022-01-28-10:41:14.421096,12.0,2.0,344.0
2022-01-28-10:41:14.421096,10.0,7.0,344.0
2022-01-28-10:41:14.422152,4.0,28.0,344.0
2022-01-28-10:41:14.423150,6.0,26.0,344.0
2022-01-28-10:41:14.424145,6.0,26.0,344.0
2022-01-28-10:41:14.425143,6.0,26.0,344.0
2022-01-28-10:41:14.426862,3.0,18.0,344.0
2022-01-28-10:41:14.426862,1.0,8.0,344.0
2022-01-28-10:41:14.427886,1.0,8.0,344.0
2022-01-28-10:41:14.428882,1.0,8.0,344.0
2022-01-28-10:41:14.429882,2.0,7.0,344.0
2022-01-28-10:41:14.430878,0.0,1.0,344.0
2022-01-28-10:41:14.431874,7.0,3.0,343.0
2022-01-28-10:41:14.432872,7.0,3.0,343.0
2022-01-28-10:41:14.433869,6.0,3.0,343.0
2022-01-28-10:41:14.434867,9.0,9.0,344.0
2022-01-28-10:41:14.435865,9.0,4.0,344.0
2022-01-28-10:41:14.437089,9.0,4.0,344.0
2022-01-28-10:41:14.437089,12.0,7.0,343.0
2022-01-28-10:41:14.438143,10.0,1.0,344.0
2022-01-28-10:41:14.439185,3.0,2.0,344.0
2022-01-28-10:41:14.439185,3.0,2.0,344.0
2022-01-28-10:41:14.440211,3.0,2.0,344.0
2022-01-28-10:41:14.441388,3.0,2.0,344.0
2022-01-28-10:41:14.441388,2.0,7.0,343.0
2022-01-28-10:41:14.442442,2.0,4.0,344.0
2022-01-28-10:41:14.443438,2.0,3.0,344.0
2022-01-28-10:41:14.444440,2.0,3.0,344.0
2022-01-28-10:41:14.446376,2.0,3.0,344.0
2022-01-28-10:41:14.446376,0.0,3.0,344.0
2022-01-28-10:41:14.447406,0.0,3.0,344.0
2022-01-28-10:41:14.448372,0.0,3.0,344.0
2022-01-28-10:41:14.449368,0.0,3.0,344.0
2022-01-28-10:41:14.450366,1.0,15.0,343.0
2022-01-28-10:41:14.451363,12.0,5.0,343.0
2022-01-28-10:41:14.452360,12.0,5.0,343.0
2022-01-28-10:41:14.453357,12.0,5.0,343.0
2022-01-28-10:41:14.454364,16.0,7.0,344.0
2022-01-28-10:41:14.455354,9.0,0.0,343.0
2022-01-28-10:41:14.456351,9.0,0.0,343.0
2022-01-28-10:41:14.457347,9.0,0.0,343.0
2022-01-28-10:41:14.458379,5.0,7.0,344.0
2022-01-28-10:41:14.459376,4.0,27.0,343.0
2022-01-28-10:41:14.460373,2.0,10.0,344.0
2022-01-28-10:41:14.461336,2.0,10.0,344.0
2022-01-28-10:41:14.462333,3.0,14.0,344.0
2022-01-28-10:41:14.463348,3.0,11.0,344.0
2022-01-28-10:41:14.464329,3.0,11.0,344.0
2022-01-28-10:41:14.465326,3.0,11.0,344.0
2022-01-28-10:41:14.466323,1.0,13.0,344.0
2022-01-28-10:41:14.467320,10.0,10.0,343.0
2022-01-28-10:41:14.468318,10.0,10.0,343.0
2022-01-28-10:41:14.469315,10.0,10.0,343.0
2022-01-28-10:41:14.470312,10.0,10.0,343.0
2022-01-28-10:41:14.471310,15.0,9.0,343.0
2022-01-28-10:41:14.472307,10.0,0.0,344.0
2022-01-28-10:41:14.473304,10.0,0.0,344.0
2022-01-28-10:41:14.474301,10.0,0.0,344.0
2022-01-28-10:41:14.475308,3.0,12.0,344.0
2022-01-28-10:41:14.476297,4.0,9.0,344.0
2022-01-28-10:41:14.477308,4.0,9.0,344.0
2022-01-28-10:41:14.479289,4.0,9.0,344.0
2022-01-28-10:41:14.480286,3.0,4.0,344.0
2022-01-28-10:41:14.480286,3.0,4.0,344.0
2022-01-28-10:41:14.481317,3.0,4.0,344.0
2022-01-28-10:41:14.482314,3.0,4.0,344.0
2022-01-28-10:41:14.483312,5.0,4.0,344.0
2022-01-28-10:41:14.484308,3.0,1.0,344.0
2022-01-28-10:41:14.485305,11.0,6.0,343.0
2022-01-28-10:41:14.486305,11.0,6.0,343.0
2022-01-28-10:41:14.487300,10.0,10.0,344.0
2022-01-28-10:41:14.488298,10.0,6.0,344.0
2022-01-28-10:41:14.489296,11.0,1.0,343.0
2022-01-28-10:41:14.490292,11.0,1.0,343.0
2022-01-28-10:41:14.491298,5.0,8.0,344.0
2022-01-28-10:41:14.492287,1.0,14.0,344.0
2022-01-28-10:41:14.493284,4.0,7.0,343.0
2022-01-28-10:41:14.494250,4.0,7.0,343.0
2022-01-28-10:41:14.495280,1.0,8.0,343.0
2022-01-28-10:41:14.496386,4.0,8.0,344.0
2022-01-28-10:41:14.496386,4.0,8.0,344.0
2022-01-28-10:41:14.496788,4.0,8.0,344.0
2022-01-28-10:41:14.497389,4.0,8.0,344.0
2022-01-28-10:41:14.498415,4.0,8.0,344.0
2022-01-28-10:41:14.499409,3.0,10.0,344.0
2022-01-28-10:41:14.500407,6.0,4.0,344.0
2022-01-28-10:41:14.501403,9.0,0.0,344.0
2022-01-28-10:41:14.502404,9.0,0.0,344.0
2022-01-28-10:41:14.503399,9.0,7.0,344.0
2022-01-28-10:41:14.504401,12.0,5.0,344.0
2022-01-28-10:41:14.505392,10.0,2.0,343.0
2022-01-28-10:41:14.506584,10.0,2.0,343.0
2022-01-28-10:41:14.506584,9.0,11.0,344.0
2022-01-28-10:41:14.507617,1.0,8.0,343.0
2022-01-28-10:41:14.508615,1.0,12.0,343.0
2022-01-28-10:41:14.509611,1.0,12.0,343.0
2022-01-28-10:41:14.510585,1.0,12.0,343.0
2022-01-28-10:41:14.511575,0.0,7.0,343.0
2022-01-28-10:41:14.512598,3.0,7.0,343.0
2022-01-28-10:41:14.513581,6.0,7.0,344.0
2022-01-28-10:41:14.514565,6.0,7.0,344.0
2022-01-28-10:41:14.516941,3.0,4.0,344.0
2022-01-28-10:41:14.517557,3.0,4.0,344.0
2022-01-28-10:41:14.517557,1.0,0.0,343.0
2022-01-28-10:41:14.518581,5.0,5.0,344.0
2022-01-28-10:41:14.519579,4.0,0.0,343.0
2022-01-28-10:41:14.520575,6.0,1.0,344.0
2022-01-28-10:41:14.521574,13.0,6.0,344.0
2022-01-28-10:41:14.522577,9.0,3.0,344.0
2022-01-28-10:41:14.523575,10.0,7.0,343.0
2022-01-28-10:41:14.524573,9.0,7.0,343.0
2022-01-28-10:41:14.525569,8.0,17.0,344.0
2022-01-28-10:41:14.526568,4.0,13.0,343.0
2022-01-28-10:41:14.527532,4.0,13.0,343.0
2022-01-28-10:41:14.528537,1.0,9.0,343.0
2022-01-28-10:41:14.529538,1.0,0.0,344.0
2022-01-28-10:41:14.530534,1.0,0.0,344.0
2022-01-28-10:41:14.531567,6.0,7.0,343.0
2022-01-28-10:41:14.532585,7.0,6.0,344.0
2022-01-28-10:41:14.533580,7.0,2.0,343.0
2022-01-28-10:41:14.534577,7.0,2.0,343.0
2022-01-28-10:41:14.535577,7.0,2.0,343.0
2022-01-28-10:41:14.536572,5.0,1.0,344.0
2022-01-28-10:41:14.537569,11.0,14.0,343.0
2022-01-28-10:41:14.538566,8.0,2.0,344.0
2022-01-28-10:41:14.539564,8.0,2.0,344.0
2022-01-28-10:41:14.540556,9.0,9.0,343.0
2022-01-28-10:41:14.541536,1.0,11.0,344.0
2022-01-28-10:41:14.542549,0.0,10.0,343.0
2022-01-28-10:41:14.543547,0.0,10.0,343.0
2022-01-28-10:41:14.544498,2.0,6.0,344.0
2022-01-28-10:41:14.545496,3.0,11.0,343.0
2022-01-28-10:41:14.546492,3.0,11.0,343.0
2022-01-28-10:41:14.547500,3.0,11.0,343.0
2022-01-28-10:41:14.548486,4.0,5.0,343.0
2022-01-28-10:41:14.550534,5.0,5.0,344.0
2022-01-28-10:41:14.550534,6.0,9.0,343.0
2022-01-28-10:41:14.551478,6.0,9.0,343.0
2022-01-28-10:41:14.552521,10.0,3.0,343.0
2022-01-28-10:41:14.553517,10.0,9.0,343.0
2022-01-28-10:41:14.554515,8.0,5.0,344.0
2022-01-28-10:41:14.555526,8.0,5.0,344.0
2022-01-28-10:41:14.556510,3.0,9.0,343.0
2022-01-28-10:41:14.557506,2.0,7.0,343.0
2022-01-28-10:41:14.558504,2.0,4.0,344.0
2022-01-28-10:41:14.559505,2.0,4.0,344.0
2022-01-28-10:41:14.560499,2.0,4.0,344.0
2022-01-28-10:41:14.561477,1.0,10.0,344.0
2022-01-28-10:41:14.562458,1.0,10.0,344.0
2022-01-28-10:41:14.563446,1.0,10.0,344.0
2022-01-28-10:41:14.564482,2.0,9.0,344.0
2022-01-28-10:41:14.565466,7.0,3.0,343.0
2022-01-28-10:41:14.566482,7.0,0.0,344.0
2022-01-28-10:41:14.567483,7.0,0.0,344.0
2022-01-28-10:41:14.568478,7.0,0.0,344.0
2022-01-28-10:41:14.569474,7.0,3.0,344.0
2022-01-28-10:41:14.570472,15.0,3.0,344.0
2022-01-28-10:41:14.571469,9.0,1.0,344.0
2022-01-28-10:41:14.572505,9.0,1.0,344.0
2022-01-28-10:41:14.572505,9.0,1.0,344.0
2022-01-28-10:41:14.573754,10.0,0.0,344.0
2022-01-28-10:41:14.573754,8.0,6.0,343.0
2022-01-28-10:41:14.574896,1.0,15.0,344.0
2022-01-28-10:41:14.574896,1.0,15.0,344.0
2022-01-28-10:41:14.575947,1.0,15.0,344.0
2022-01-28-10:41:14.576948,1.0,14.0,344.0
2022-01-28-10:41:14.577896,2.0,12.0,343.0
2022-01-28-10:41:14.578887,5.0,11.0,344.0
2022-01-28-10:41:14.579886,5.0,11.0,344.0
2022-01-28-10:41:14.581906,5.0,11.0,344.0
2022-01-28-10:41:14.581906,4.0,0.0,344.0
2022-01-28-10:41:14.582877,4.0,0.0,344.0
2022-01-28-10:41:14.583899,4.0,0.0,344.0
2022-01-28-10:41:14.584900,4.0,0.0,344.0
2022-01-28-10:41:14.585900,5.0,0.0,344.0
2022-01-28-10:41:14.586893,12.0,9.0,344.0
2022-01-28-10:41:14.587888,13.0,4.0,343.0
2022-01-28-10:41:14.588889,13.0,4.0,343.0
2022-01-28-10:41:14.589907,12.0,3.0,344.0
2022-01-28-10:41:14.589907,2.0,8.0,344.0
2022-01-28-10:41:14.591042,2.0,8.0,344.0
2022-01-28-10:41:14.591042,2.0,8.0,344.0
2022-01-28-10:41:14.592097,2.0,8.0,344.0
2022-01-28-10:41:14.593093,2.0,8.0,344.0
2022-01-28-10:41:14.594038,1.0,8.0,344.0
2022-01-28-10:41:14.595070,2.0,15.0,343.0
2022-01-28-10:41:14.596067,2.0,15.0,343.0
2022-01-28-10:41:14.597063,2.0,15.0,343.0
2022-01-28-10:41:14.598061,5.0,5.0,344.0
2022-01-28-10:41:14.599060,1.0,1.0,344.0
2022-01-28-10:41:14.600056,1.0,1.0,344.0
2022-01-28-10:41:14.601054,1.0,1.0,344.0
2022-01-28-10:41:14.602051,4.0,1.0,343.0
2022-01-28-10:41:14.603047,12.0,11.0,344.0
2022-01-28-10:41:14.604045,11.0,5.0,344.0
2022-01-28-10:41:14.605042,11.0,5.0,344.0
2022-01-28-10:41:14.606040,9.0,7.0,344.0
2022-01-28-10:41:14.607038,6.0,9.0,344.0
2022-01-28-10:41:14.608034,2.0,9.0,343.0
2022-01-28-10:41:14.609032,2.0,9.0,343.0
2022-01-28-10:41:14.610029,0.0,8.0,343.0
2022-01-28-10:41:14.610993,1.0,9.0,344.0
2022-01-28-10:41:14.612026,0.0,16.0,344.0
2022-01-28-10:41:14.613025,0.0,16.0,344.0
2022-01-28-10:41:14.615025,0.0,16.0,344.0
2022-01-28-10:41:14.615025,6.0,2.0,344.0
2022-01-28-10:41:14.615979,6.0,2.0,344.0
2022-01-28-10:41:14.617001,6.0,2.0,344.0
2022-01-28-10:41:14.618018,4.0,1.0,343.0
2022-01-28-10:41:14.619015,8.0,4.0,343.0
2022-01-28-10:41:14.619996,14.0,4.0,343.0
2022-01-28-10:41:14.621010,14.0,4.0,343.0
2022-01-28-10:41:14.622007,14.0,4.0,343.0
2022-01-28-10:41:14.623006,7.0,7.0,343.0
2022-01-28-10:41:14.624181,3.0,19.0,343.0
2022-01-28-10:41:14.624181,3.0,19.0,343.0
2022-01-28-10:41:14.625210,3.0,19.0,343.0
2022-01-28-10:41:14.626231,1.0,18.0,344.0
2022-01-28-10:41:14.627228,1.0,10.0,343.0
2022-01-28-10:41:14.628207,7.0,17.0,344.0
2022-01-28-10:41:14.629225,7.0,17.0,344.0
2022-01-28-10:41:14.630167,7.0,17.0,344.0
2022-01-28-10:41:14.631202,1.0,3.0,343.0
2022-01-28-10:41:14.632209,1.0,3.0,343.0
2022-01-28-10:41:14.633205,1.0,3.0,343.0
2022-01-28-10:41:14.634201,1.0,3.0,343.0
2022-01-28-10:41:14.635198,3.0,3.0,344.0
2022-01-28-10:41:14.636196,7.0,2.0,344.0
2022-01-28-10:41:14.637195,11.0,12.0,343.0
2022-01-28-10:41:14.638192,11.0,12.0,343.0
2022-01-28-10:41:14.639239,11.0,22.0,343.0
2022-01-28-10:41:14.639652,7.0,33.0,344.0
2022-01-28-10:41:14.639801,2.0,24.0,343.0
2022-01-28-10:41:14.639801,2.0,24.0,343.0
2022-01-28-10:41:14.640846,2.0,24.0,343.0
2022-01-28-10:41:14.642004,2.0,24.0,343.0
2022-01-28-10:41:14.642004,1.0,24.0,344.0
2022-01-28-10:41:14.643048,3.0,4.0,344.0
2022-01-28-10:41:14.644030,2.0,4.0,343.0
2022-01-28-10:41:14.645043,2.0,4.0,343.0
2022-01-28-10:41:14.646046,2.0,4.0,343.0
2022-01-28-10:41:14.647037,5.0,1.0,343.0
2022-01-28-10:41:14.648016,2.0,0.0,344.0
2022-01-28-10:41:14.649034,9.0,0.0,344.0
2022-01-28-10:41:14.650982,9.0,0.0,344.0
2022-01-28-10:41:14.651437,9.0,6.0,343.0
2022-01-28-10:41:14.651437,9.0,6.0,343.0
2022-01-28-10:41:14.652491,9.0,6.0,343.0
2022-01-28-10:41:14.653490,9.0,6.0,343.0
2022-01-28-10:41:14.654488,9.0,6.0,343.0
2022-01-28-10:41:14.655483,11.0,2.0,344.0
2022-01-28-10:41:14.656481,6.0,5.0,344.0
2022-01-28-10:41:14.657478,4.0,7.0,343.0
2022-01-28-10:41:14.658477,4.0,7.0,343.0
2022-01-28-10:41:14.659475,1.0,10.0,344.0
2022-01-28-10:41:14.660470,1.0,9.0,343.0
2022-01-28-10:41:14.661447,1.0,9.0,344.0
2022-01-28-10:41:14.662467,1.0,9.0,344.0
2022-01-28-10:41:14.663440,0.0,7.0,343.0
2022-01-28-10:41:14.664438,0.0,7.0,343.0
2022-01-28-10:41:14.665439,0.0,7.0,343.0
2022-01-28-10:41:14.666457,4.0,5.0,344.0
2022-01-28-10:41:14.667658,7.0,3.0,344.0
2022-01-28-10:41:14.667658,5.0,1.0,343.0
2022-01-28-10:41:14.668692,5.0,1.0,343.0
2022-01-28-10:41:14.669687,10.0,8.0,343.0
2022-01-28-10:41:14.670685,10.0,8.0,343.0
2022-01-28-10:41:14.671750,9.0,4.0,344.0
2022-01-28-10:41:14.671750,8.0,4.0,344.0
2022-01-28-10:41:14.673003,8.0,4.0,344.0
2022-01-28-10:41:14.673003,7.0,11.0,344.0
2022-01-28-10:41:14.674149,7.0,11.0,344.0
2022-01-28-10:41:14.674149,7.0,11.0,344.0
2022-01-28-10:41:14.675195,7.0,11.0,344.0
2022-01-28-10:41:14.676193,1.0,13.0,343.0
2022-01-28-10:41:14.677190,4.0,6.0,344.0
2022-01-28-10:41:14.678192,4.0,6.0,344.0
2022-01-28-10:41:14.679185,4.0,6.0,344.0
2022-01-28-10:41:14.680547,1.0,4.0,344.0
2022-01-28-10:41:14.680547,1.0,4.0,344.0
2022-01-28-10:41:14.682544,2.0,5.0,344.0
2022-01-28-10:41:14.682544,2.0,3.0,344.0
2022-01-28-10:41:14.683577,8.0,0.0,343.0
2022-01-28-10:41:14.684636,8.0,0.0,343.0
2022-01-28-10:41:14.684636,8.0,0.0,343.0
2022-01-28-10:41:14.685683,8.0,0.0,343.0
2022-01-28-10:41:14.686819,8.0,0.0,343.0
2022-01-28-10:41:14.686819,9.0,0.0,343.0
2022-01-28-10:41:14.687854,9.0,0.0,343.0
2022-01-28-10:41:14.688962,9.0,21.0,344.0
2022-01-28-10:41:14.688962,9.0,21.0,344.0
2022-01-28-10:41:14.690024,9.0,21.0,344.0
2022-01-28-10:41:14.691015,9.0,21.0,344.0
2022-01-28-10:41:14.692012,5.0,20.0,344.0
2022-01-28-10:41:14.693012,2.0,9.0,344.0
2022-01-28-10:41:14.694005,2.0,10.0,344.0
2022-01-28-10:41:14.695005,2.0,10.0,344.0
2022-01-28-10:41:14.696003,3.0,8.0,344.0
2022-01-28-10:41:14.696997,1.0,8.0,343.0
2022-01-28-10:41:14.698430,2.0,8.0,343.0
2022-01-28-10:41:14.698430,2.0,8.0,343.0
2022-01-28-10:41:14.699467,2.0,8.0,343.0
2022-01-28-10:41:14.700459,8.0,3.0,343.0
2022-01-28-10:41:14.701459,8.0,6.0,344.0
2022-01-28-10:41:14.702522,8.0,6.0,344.0
2022-01-28-10:41:14.702522,8.0,6.0,344.0
2022-01-28-10:41:14.703750,8.0,6.0,344.0
2022-01-28-10:41:14.703750,11.0,5.0,343.0
2022-01-28-10:41:14.704782,11.0,5.0,343.0
2022-01-28-10:41:14.705782,8.0,21.0,343.0
2022-01-28-10:41:14.706834,8.0,21.0,343.0
2022-01-28-10:41:14.706834,8.0,21.0,343.0
2022-01-28-10:41:14.707889,8.0,21.0,343.0
2022-01-28-10:41:14.708892,2.0,26.0,344.0
2022-01-28-10:41:14.709883,1.0,7.0,343.0
2022-01-28-10:41:14.710881,1.0,7.0,343.0
2022-01-28-10:41:14.711824,1.0,7.0,343.0
2022-01-28-10:41:14.712855,1.0,3.0,343.0
2022-01-28-10:41:14.713872,2.0,25.0,344.0
2022-01-28-10:41:14.714869,2.0,25.0,344.0
2022-01-28-10:41:14.715868,4.0,16.0,343.0
2022-01-28-10:41:14.716867,4.0,16.0,343.0
2022-01-28-10:41:14.717861,3.0,14.0,343.0
2022-01-28-10:41:14.719857,7.0,30.0,344.0
2022-01-28-10:41:14.719857,12.0,9.0,344.0
2022-01-28-10:41:14.720855,10.0,25.0,344.0
2022-01-28-10:41:14.721851,10.0,25.0,344.0
2022-01-28-10:41:14.722848,10.0,25.0,344.0
2022-01-28-10:41:14.723847,10.0,25.0,344.0
2022-01-28-10:41:14.724846,4.0,32.0,344.0
2022-01-28-10:41:14.725841,1.0,28.0,344.0
2022-01-28-10:41:14.726902,0.0,16.0,344.0
2022-01-28-10:41:14.726902,0.0,16.0,344.0
2022-01-28-10:41:14.728136,0.0,16.0,344.0
2022-01-28-10:41:14.728136,2.0,11.0,344.0
2022-01-28-10:41:14.729192,3.0,6.0,344.0
2022-01-28-10:41:14.730134,0.0,0.0,343.0
2022-01-28-10:41:14.731185,0.0,0.0,343.0
2022-01-28-10:41:14.732184,0.0,0.0,343.0
2022-01-28-10:41:14.733179,3.0,2.0,344.0
2022-01-28-10:41:14.734215,5.0,7.0,344.0
2022-01-28-10:41:14.734215,5.0,7.0,344.0
2022-01-28-10:41:14.735240,5.0,7.0,344.0
2022-01-28-10:41:14.736450,5.0,7.0,344.0
2022-01-28-10:41:14.736450,9.0,10.0,343.0
2022-01-28-10:41:14.737504,10.0,1.0,344.0
2022-01-28-10:41:14.738550,9.0,1.0,344.0
2022-01-28-10:41:14.738550,9.0,1.0,344.0
2022-01-28-10:41:14.739574,9.0,1.0,344.0
2022-01-28-10:41:14.740754,9.0,1.0,344.0
2022-01-28-10:41:14.740754,6.0,3.0,343.0
2022-01-28-10:41:14.741809,1.0,12.0,344.0
2022-01-28-10:41:14.742808,1.0,10.0,344.0
2022-01-28-10:41:14.743803,1.0,10.0,344.0
2022-01-28-10:41:14.744802,1.0,10.0,344.0
2022-01-28-10:41:14.745803,1.0,8.0,344.0
2022-01-28-10:41:14.746741,2.0,2.0,343.0
2022-01-28-10:41:14.747792,2.0,2.0,343.0
2022-01-28-10:41:14.748790,2.0,2.0,343.0
2022-01-28-10:41:14.750730,5.0,3.0,343.0
2022-01-28-10:41:14.750730,6.0,5.0,344.0
2022-01-28-10:41:14.751759,6.0,5.0,344.0
2022-01-28-10:41:14.752910,6.0,5.0,344.0
2022-01-28-10:41:14.752910,6.0,7.0,343.0
2022-01-28-10:41:14.754036,12.0,2.0,344.0
2022-01-28-10:41:14.754036,12.0,2.0,344.0
2022-01-28-10:41:14.755060,12.0,2.0,344.0
2022-01-28-10:41:14.756059,12.0,2.0,344.0
2022-01-28-10:41:14.757058,12.0,2.0,344.0
2022-01-28-10:41:14.758113,9.0,4.0,344.0
2022-01-28-10:41:14.758113,6.0,13.0,343.0
2022-01-28-10:41:14.759278,0.0,12.0,344.0
2022-01-28-10:41:14.759278,0.0,12.0,344.0
2022-01-28-10:41:14.760304,0.0,12.0,344.0
2022-01-28-10:41:14.761299,0.0,12.0,344.0
2022-01-28-10:41:14.762517,4.0,9.0,344.0
2022-01-28-10:41:14.762517,3.0,7.0,344.0
2022-01-28-10:41:14.763517,3.0,7.0,344.0
2022-01-28-10:41:14.764515,3.0,7.0,344.0
2022-01-28-10:41:14.765552,1.0,3.0,343.0
2022-01-28-10:41:14.766542,5.0,8.0,343.0
2022-01-28-10:41:14.767539,8.0,4.0,344.0
2022-01-28-10:41:14.768562,8.0,4.0,344.0
2022-01-28-10:41:14.769534,11.0,11.0,343.0
2022-01-28-10:41:14.770663,9.0,7.0,343.0
2022-01-28-10:41:14.770663,11.0,5.0,344.0
2022-01-28-10:41:14.771718,11.0,5.0,344.0
2022-01-28-10:41:14.772694,11.0,5.0,344.0
2022-01-28-10:41:14.773713,5.0,10.0,343.0
2022-01-28-10:41:14.774929,5.0,10.0,343.0
2022-01-28-10:41:14.774929,3.0,8.0,344.0
2022-01-28-10:41:14.775963,0.0,1.0,344.0
2022-01-28-10:41:14.776926,0.0,1.0,344.0
2022-01-28-10:41:14.777925,0.0,10.0,343.0
2022-01-28-10:41:14.779075,1.0,16.0,344.0
2022-01-28-10:41:14.779075,1.0,8.0,344.0
2022-01-28-10:41:14.780129,1.0,8.0,344.0
2022-01-28-10:41:14.781126,1.0,8.0,344.0
2022-01-28-10:41:14.782124,4.0,9.0,344.0
2022-01-28-10:41:14.784119,4.0,9.0,344.0
2022-01-28-10:41:14.784119,8.0,4.0,343.0
2022-01-28-10:41:14.785116,8.0,4.0,343.0
2022-01-28-10:41:14.786115,14.0,17.0,344.0
2022-01-28-10:41:14.787113,9.0,7.0,344.0
2022-01-28-10:41:14.788100,9.0,7.0,344.0
2022-01-28-10:41:14.789095,9.0,7.0,344.0
2022-01-28-10:41:14.790104,9.0,8.0,344.0
2022-01-28-10:41:14.791102,2.0,3.0,344.0
2022-01-28-10:41:14.792097,0.0,2.0,344.0
2022-01-28-10:41:14.793100,0.0,2.0,344.0
2022-01-28-10:41:14.794093,0.0,3.0,344.0
2022-01-28-10:41:14.795089,0.0,10.0,343.0
2022-01-28-10:41:14.796087,5.0,9.0,344.0
2022-01-28-10:41:14.797086,5.0,9.0,344.0
2022-01-28-10:41:14.798082,5.0,9.0,344.0
2022-01-28-10:41:14.799081,6.0,9.0,343.0
2022-01-28-10:41:14.800076,7.0,16.0,343.0
2022-01-28-10:41:14.801065,6.0,11.0,343.0
2022-01-28-10:41:14.802065,10.0,9.0,344.0
2022-01-28-10:41:14.803060,14.0,10.0,344.0
2022-01-28-10:41:14.804059,10.0,13.0,344.0
2022-01-28-10:41:14.805054,10.0,4.0,344.0
2022-01-28-10:41:14.806053,10.0,4.0,344.0
2022-01-28-10:41:14.807051,9.0,6.0,344.0
2022-01-28-10:41:14.808248,7.0,11.0,344.0
2022-01-28-10:41:14.808248,2.0,7.0,344.0
2022-01-28-10:41:14.809303,1.0,7.0,343.0
2022-01-28-10:41:14.810302,1.0,7.0,343.0
2022-01-28-10:41:14.811243,1.0,5.0,344.0
2022-01-28-10:41:14.812343,3.0,21.0,344.0
2022-01-28-10:41:14.812343,3.0,21.0,344.0
2022-01-28-10:41:14.813374,3.0,21.0,344.0
2022-01-28-10:41:14.814365,3.0,21.0,344.0
2022-01-28-10:41:14.815362,3.0,0.0,343.0
2022-01-28-10:41:14.817360,3.0,0.0,343.0
2022-01-28-10:41:14.817360,9.0,3.0,344.0
2022-01-28-10:41:14.818412,9.0,4.0,344.0
2022-01-28-10:41:14.818412,9.0,4.0,344.0
2022-01-28-10:41:14.819470,9.0,4.0,344.0
2022-01-28-10:41:14.820464,9.0,4.0,344.0
2022-01-28-10:41:14.821407,9.0,4.0,344.0
2022-01-28-10:41:14.822577,9.0,4.0,344.0
2022-01-28-10:41:14.822577,9.0,10.0,343.0
2022-01-28-10:41:14.823631,2.0,17.0,344.0
2022-01-28-10:41:14.824672,1.0,18.0,344.0
2022-01-28-10:41:14.824672,1.0,18.0,344.0
2022-01-28-10:41:14.825699,1.0,18.0,344.0
2022-01-28-10:41:14.826903,1.0,18.0,344.0
2022-01-28-10:41:14.826903,2.0,8.0,344.0
2022-01-28-10:41:14.827958,3.0,4.0,343.0
2022-01-28-10:41:14.828999,2.0,1.0,344.0
2022-01-28-10:41:14.828999,2.0,1.0,344.0
2022-01-28-10:41:14.829997,2.0,1.0,344.0
2022-01-28-10:41:14.830996,2.0,3.0,344.0
2022-01-28-10:41:14.832019,4.0,8.0,344.0
2022-01-28-10:41:14.833237,7.0,5.0,343.0
2022-01-28-10:41:14.833237,7.0,5.0,343.0
2022-01-28-10:41:14.834237,7.0,5.0,343.0
2022-01-28-10:41:14.835288,12.0,4.0,343.0
2022-01-28-10:41:14.836286,10.0,4.0,344.0
2022-01-28-10:41:14.837284,10.0,4.0,344.0
2022-01-28-10:41:14.838226,10.0,4.0,344.0
2022-01-28-10:41:14.839257,7.0,11.0,344.0
2022-01-28-10:41:14.840255,2.0,15.0,343.0
2022-01-28-10:41:14.841257,2.0,15.0,343.0
2022-01-28-10:41:14.842289,2.0,15.0,343.0
2022-01-28-10:41:14.843267,2.0,10.0,344.0
2022-01-28-10:41:14.844213,2.0,4.0,344.0
2022-01-28-10:41:14.845284,1.0,5.0,344.0
2022-01-28-10:41:14.846263,1.0,5.0,344.0
2022-01-28-10:41:14.847300,3.0,1.0,343.0
2022-01-28-10:41:14.847300,5.0,7.0,344.0
2022-01-28-10:41:14.848324,6.0,2.0,344.0
2022-01-28-10:41:14.849322,6.0,2.0,344.0
2022-01-28-10:41:14.850321,6.0,2.0,344.0
2022-01-28-10:41:14.851291,4.0,14.0,344.0
2022-01-28-10:41:14.853315,8.0,5.0,344.0
2022-01-28-10:41:14.853315,9.0,1.0,343.0
2022-01-28-10:41:14.854308,9.0,1.0,343.0
2022-01-28-10:41:14.855307,9.0,1.0,343.0
2022-01-28-10:41:14.856568,9.0,2.0,344.0
2022-01-28-10:41:14.856568,9.0,13.0,344.0
2022-01-28-10:41:14.857624,6.0,14.0,344.0
2022-01-28-10:41:14.858618,6.0,14.0,344.0
2022-01-28-10:41:14.859661,6.0,14.0,344.0
2022-01-28-10:41:14.859661,1.0,2.0,344.0
2022-01-28-10:41:14.860687,5.0,0.0,343.0
2022-01-28-10:41:14.861682,5.0,0.0,343.0
2022-01-28-10:41:14.862680,5.0,0.0,343.0
2022-01-28-10:41:14.863678,5.0,0.0,343.0
2022-01-28-10:41:14.864675,1.0,0.0,344.0
2022-01-28-10:41:14.865672,6.0,4.0,344.0
2022-01-28-10:41:14.866669,6.0,4.0,344.0
2022-01-28-10:41:14.867968,5.0,10.0,343.0
2022-01-28-10:41:14.867968,11.0,0.0,344.0
2022-01-28-10:41:14.869023,15.0,8.0,343.0
2022-01-28-10:41:14.870018,15.0,8.0,343.0
2022-01-28-10:41:14.870988,15.0,8.0,343.0
2022-01-28-10:41:14.872057,15.0,6.0,343.0
2022-01-28-10:41:14.872057,8.0,5.0,343.0
2022-01-28-10:41:14.873081,2.0,7.0,343.0
2022-01-28-10:41:14.874081,2.0,7.0,343.0
2022-01-28-10:41:14.875073,2.0,7.0,343.0
2022-01-28-10:41:14.876073,5.0,9.0,344.0
2022-01-28-10:41:14.877073,0.0,9.0,344.0
2022-01-28-10:41:14.878044,0.0,9.0,344.0
2022-01-28-10:41:14.879065,0.0,9.0,344.0
2022-01-28-10:41:14.880064,0.0,9.0,344.0
2022-01-28-10:41:14.881060,2.0,19.0,344.0
2022-01-28-10:41:14.882059,4.0,5.0,344.0
2022-01-28-10:41:14.883055,4.0,5.0,344.0
2022-01-28-10:41:14.884052,4.0,5.0,344.0
2022-01-28-10:41:14.885025,5.0,4.0,344.0
2022-01-28-10:41:14.887045,9.0,9.0,344.0
2022-01-28-10:41:14.887045,12.0,10.0,344.0
2022-01-28-10:41:14.888099,9.0,7.0,344.0
2022-01-28-10:41:14.888099,6.0,1.0,344.0
2022-01-28-10:41:14.889154,6.0,1.0,344.0
2022-01-28-10:41:14.890193,6.0,1.0,344.0
2022-01-28-10:41:14.890193,6.0,1.0,344.0
2022-01-28-10:41:14.891217,6.0,1.0,344.0
2022-01-28-10:41:14.892396,6.0,1.0,344.0
2022-01-28-10:41:14.892396,1.0,0.0,343.0
2022-01-28-10:41:14.893451,2.0,12.0,343.0
2022-01-28-10:41:14.894394,0.0,11.0,343.0
2022-01-28-10:41:14.895446,0.0,11.0,343.0
2022-01-28-10:41:14.896445,0.0,11.0,343.0
2022-01-28-10:41:14.897457,2.0,11.0,344.0
2022-01-28-10:41:14.898438,5.0,5.0,343.0
2022-01-28-10:41:14.899437,5.0,5.0,343.0
2022-01-28-10:41:14.900431,5.0,5.0,343.0
2022-01-28-10:41:14.901430,3.0,8.0,343.0
2022-01-28-10:41:14.902427,7.0,2.0,344.0
2022-01-28-10:41:14.903522,12.0,0.0,344.0
2022-01-28-10:41:14.903522,11.0,1.0,343.0
2022-01-28-10:41:14.904843,11.0,1.0,343.0
2022-01-28-10:41:14.904843,10.0,4.0,343.0
2022-01-28-10:41:14.905896,8.0,8.0,344.0
2022-01-28-10:41:14.906894,5.0,10.0,344.0
2022-01-28-10:41:14.907837,5.0,10.0,344.0
2022-01-28-10:41:14.908881,2.0,12.0,344.0
2022-01-28-10:41:14.909878,0.0,7.0,344.0
2022-01-28-10:41:14.910890,1.0,1.0,344.0
2022-01-28-10:41:14.911866,1.0,1.0,344.0
2022-01-28-10:41:14.912879,5.0,6.0,344.0
2022-01-28-10:41:14.913877,2.0,3.0,343.0
2022-01-28-10:41:14.914874,7.0,2.0,344.0
2022-01-28-10:41:14.915871,7.0,2.0,344.0
2022-01-28-10:41:14.916869,3.0,2.0,343.0
2022-01-28-10:41:14.917845,8.0,8.0,343.0
2022-01-28-10:41:14.919805,8.0,8.0,343.0
2022-01-28-10:41:14.919805,8.0,8.0,343.0
2022-01-28-10:41:14.920835,5.0,8.0,344.0
2022-01-28-10:41:14.921799,5.0,8.0,344.0
2022-01-28-10:41:14.922798,5.0,8.0,344.0
2022-01-28-10:41:14.923818,5.0,8.0,344.0
2022-01-28-10:41:14.924818,5.0,8.0,344.0
2022-01-28-10:41:14.925789,1.0,13.0,344.0
2022-01-28-10:41:14.926786,2.0,11.0,344.0
2022-01-28-10:41:14.927785,2.0,11.0,344.0
2022-01-28-10:41:14.928781,2.0,11.0,344.0
2022-01-28-10:41:14.929779,1.0,9.0,344.0
2022-01-28-10:41:14.930783,3.0,3.0,343.0
2022-01-28-10:41:14.931773,3.0,3.0,343.0
2022-01-28-10:41:14.932770,3.0,3.0,343.0
2022-01-28-10:41:14.933770,7.0,6.0,344.0
2022-01-28-10:41:14.934766,7.0,2.0,344.0
2022-01-28-10:41:14.935763,8.0,8.0,344.0
2022-01-28-10:41:14.936760,8.0,8.0,344.0
2022-01-28-10:41:14.937797,10.0,7.0,343.0
2022-01-28-10:41:14.937797,10.0,6.0,343.0
2022-01-28-10:41:14.938821,10.0,6.0,343.0
2022-01-28-10:41:14.939819,10.0,6.0,343.0
2022-01-28-10:41:14.940818,10.0,6.0,343.0
2022-01-28-10:41:14.941813,7.0,10.0,344.0
2022-01-28-10:41:14.942811,3.0,11.0,344.0
2022-01-28-10:41:14.943811,3.0,11.0,344.0
2022-01-28-10:41:14.944781,3.0,11.0,344.0
2022-01-28-10:41:14.945805,3.0,10.0,344.0
2022-01-28-10:41:14.946803,3.0,9.0,344.0
2022-01-28-10:41:14.947797,4.0,5.0,343.0
2022-01-28-10:41:14.948797,4.0,5.0,343.0
2022-01-28-10:41:14.949791,3.0,2.0,344.0
2022-01-28-10:41:14.950845,8.0,2.0,344.0
2022-01-28-10:41:14.950845,7.0,10.0,343.0
2022-01-28-10:41:14.952842,7.0,10.0,343.0
2022-01-28-10:41:14.952842,7.0,10.0,343.0
2022-01-28-10:41:14.953893,10.0,3.0,344.0
2022-01-28-10:41:14.954938,10.0,3.0,344.0
2022-01-28-10:41:14.954938,10.0,3.0,344.0
2022-01-28-10:41:14.955966,10.0,3.0,344.0
2022-01-28-10:41:14.957179,10.0,3.0,344.0
2022-01-28-10:41:14.957179,1.0,9.0,343.0
2022-01-28-10:41:14.958232,0.0,19.0,344.0
2022-01-28-10:41:14.959230,0.0,19.0,344.0
2022-01-28-10:41:14.960227,0.0,19.0,344.0
2022-01-28-10:41:14.961171,0.0,19.0,344.0
2022-01-28-10:41:14.962168,7.0,10.0,343.0
2022-01-28-10:41:14.963165,3.0,3.0,344.0
2022-01-28-10:41:14.964210,3.0,3.0,344.0
2022-01-28-10:41:14.965187,3.0,3.0,344.0
2022-01-28-10:41:14.966189,3.0,4.0,344.0
2022-01-28-10:41:14.967188,4.0,8.0,343.0
2022-01-28-10:41:14.968187,9.0,13.0,343.0
2022-01-28-10:41:14.969474,9.0,13.0,343.0
2022-01-28-10:41:14.969474,8.0,1.0,344.0
2022-01-28-10:41:14.970505,13.0,6.0,344.0
2022-01-28-10:41:14.971504,8.0,11.0,344.0
2022-01-28-10:41:14.972500,8.0,11.0,344.0
2022-01-28-10:41:14.973465,8.0,11.0,344.0
2022-01-28-10:41:14.974495,7.0,14.0,343.0
2022-01-28-10:41:14.975492,1.0,20.0,343.0
2022-01-28-10:41:14.976491,2.0,16.0,343.0
2022-01-28-10:41:14.977487,2.0,16.0,343.0
2022-01-28-10:41:14.978452,1.0,9.0,344.0
2022-01-28-10:41:14.979510,2.0,5.0,343.0
2022-01-28-10:41:14.980504,7.0,2.0,344.0
2022-01-28-10:41:14.981498,7.0,2.0,344.0
2022-01-28-10:41:14.982500,7.0,2.0,344.0
2022-01-28-10:41:14.983493,7.0,1.0,344.0
2022-01-28-10:41:14.985433,12.0,10.0,343.0
2022-01-28-10:41:14.985433,11.0,6.0,343.0
2022-01-28-10:41:14.986462,8.0,9.0,343.0
2022-01-28-10:41:14.987504,8.0,9.0,343.0
2022-01-28-10:41:14.987504,8.0,9.0,343.0
2022-01-28-10:41:14.988529,8.0,9.0,343.0
2022-01-28-10:41:14.989525,8.0,9.0,343.0
2022-01-28-10:41:14.990525,8.0,9.0,343.0
2022-01-28-10:41:14.991521,3.0,15.0,343.0
2022-01-28-10:41:14.992517,3.0,9.0,343.0
2022-01-28-10:41:14.993490,0.0,9.0,344.0
2022-01-28-10:41:14.994488,0.0,9.0,344.0
2022-01-28-10:41:14.995511,1.0,7.0,343.0
2022-01-28-10:41:14.996507,2.0,5.0,343.0
2022-01-28-10:41:14.997480,2.0,5.0,343.0
2022-01-28-10:41:14.998667,2.0,5.0,343.0
2022-01-28-10:41:14.998667,2.0,0.0,344.0
2022-01-28-10:41:14.999701,2.0,8.0,343.0
2022-01-28-10:41:15.000696,9.0,4.0,343.0
2022-01-28-10:41:15.001694,9.0,4.0,343.0
2022-01-28-10:41:15.003193,10.0,8.0,343.0
2022-01-28-10:41:15.003193,8.0,3.0,344.0
2022-01-28-10:41:15.004218,8.0,3.0,344.0
2022-01-28-10:41:15.005217,8.0,3.0,344.0
2022-01-28-10:41:15.006386,8.0,3.0,344.0
2022-01-28-10:41:15.006386,3.0,8.0,344.0
2022-01-28-10:41:15.007426,0.0,16.0,343.0
2022-01-28-10:41:15.008416,1.0,12.0,344.0
2022-01-28-10:41:15.009455,1.0,12.0,344.0
2022-01-28-10:41:15.009455,1.0,12.0,344.0
2022-01-28-10:41:15.010628,1.0,12.0,344.0
2022-01-28-10:41:15.010628,0.0,15.0,344.0
2022-01-28-10:41:15.011684,3.0,15.0,344.0
2022-01-28-10:41:15.012679,4.0,13.0,343.0
2022-01-28-10:41:15.013728,4.0,13.0,343.0
2022-01-28-10:41:15.013728,4.0,13.0,343.0
2022-01-28-10:41:15.014935,4.0,13.0,343.0
2022-01-28-10:41:15.014935,2.0,12.0,343.0
2022-01-28-10:41:15.015990,4.0,3.0,344.0
2022-01-28-10:41:15.016988,5.0,1.0,343.0
2022-01-28-10:41:15.017984,5.0,1.0,343.0
2022-01-28-10:41:15.018984,5.0,1.0,343.0
2022-01-28-10:41:15.019980,8.0,8.0,343.0
2022-01-28-10:41:15.020982,9.0,4.0,344.0
2022-01-28-10:41:15.021976,12.0,1.0,343.0
2022-01-28-10:41:15.023969,12.0,1.0,343.0
2022-01-28-10:41:15.024911,2.0,9.0,343.0
2022-01-28-10:41:15.024911,1.0,10.0,344.0
2022-01-28-10:41:15.025942,1.0,10.0,344.0
2022-01-28-10:41:15.026939,1.0,10.0,344.0
2022-01-28-10:41:15.027903,1.0,11.0,344.0
2022-01-28-10:41:15.028935,1.0,2.0,343.0
2022-01-28-10:41:15.029932,1.0,2.0,343.0
2022-01-28-10:41:15.030896,1.0,2.0,343.0
2022-01-28-10:41:15.031929,7.0,11.0,344.0
2022-01-28-10:41:15.032924,5.0,2.0,344.0
2022-01-28-10:41:15.033924,5.0,2.0,344.0
2022-01-28-10:41:15.034885,5.0,2.0,344.0
2022-01-28-10:41:15.035915,11.0,2.0,344.0
2022-01-28-10:41:15.036918,12.0,1.0,343.0
2022-01-28-10:41:15.037912,12.0,1.0,343.0
2022-01-28-10:41:15.038889,12.0,1.0,343.0
2022-01-28-10:41:15.039907,0.0,10.0,343.0
2022-01-28-10:41:15.040902,0.0,10.0,343.0
2022-01-28-10:41:15.041900,0.0,10.0,343.0
2022-01-28-10:41:15.042898,0.0,10.0,343.0
2022-01-28-10:41:15.043894,1.0,9.0,343.0
2022-01-28-10:41:15.044859,3.0,6.0,344.0
2022-01-28-10:41:15.045855,3.0,6.0,344.0
2022-01-28-10:41:15.046852,3.0,6.0,344.0
2022-01-28-10:41:15.047849,3.0,6.0,344.0
2022-01-28-10:41:15.048847,5.0,10.0,343.0
2022-01-28-10:41:15.049845,7.0,1.0,343.0
2022-01-28-10:41:15.050841,7.0,1.0,343.0
2022-01-28-10:41:15.051839,7.0,1.0,343.0
2022-01-28-10:41:15.052836,9.0,4.0,344.0
2022-01-28-10:41:15.053833,11.0,0.0,344.0
2022-01-28-10:41:15.054831,11.0,0.0,344.0
2022-01-28-10:41:15.056826,11.0,0.0,344.0
2022-01-28-10:41:15.056826,1.0,19.0,344.0
2022-01-28-10:41:15.057823,3.0,17.0,344.0
2022-01-28-10:41:15.058820,3.0,17.0,344.0
2022-01-28-10:41:15.059817,3.0,17.0,344.0
2022-01-28-10:41:15.060814,2.0,3.0,344.0
2022-01-28-10:41:15.061812,4.0,2.0,343.0
2022-01-28-10:41:15.062809,4.0,2.0,343.0
2022-01-28-10:41:15.063806,4.0,2.0,343.0
2022-01-28-10:41:15.064804,2.0,8.0,344.0
2022-01-28-10:41:15.065802,6.0,6.0,343.0
2022-01-28-10:41:15.066833,6.0,6.0,343.0
2022-01-28-10:41:15.067796,6.0,6.0,343.0
2022-01-28-10:41:15.068793,12.0,12.0,344.0
2022-01-28-10:41:15.069791,12.0,8.0,344.0
2022-01-28-10:41:15.070788,12.0,8.0,344.0
2022-01-28-10:41:15.071786,12.0,8.0,344.0
2022-01-28-10:41:15.072817,3.0,10.0,344.0
2022-01-28-10:41:15.073814,4.0,9.0,343.0
2022-01-28-10:41:15.074811,4.0,9.0,343.0
2022-01-28-10:41:15.075774,4.0,9.0,343.0
2022-01-28-10:41:15.076805,2.0,3.0,344.0
2022-01-28-10:41:15.077771,1.0,15.0,344.0
2022-01-28-10:41:15.078803,2.0,15.0,344.0
2022-01-28-10:41:15.079797,2.0,15.0,344.0
2022-01-28-10:41:15.080794,2.0,15.0,344.0
2022-01-28-10:41:15.081850,6.0,5.0,344.0
2022-01-28-10:41:15.081850,9.0,1.0,344.0
2022-01-28-10:41:15.082875,9.0,1.0,344.0
2022-01-28-10:41:15.083877,9.0,1.0,344.0
2022-01-28-10:41:15.084870,9.0,1.0,344.0
2022-01-28-10:41:15.085866,7.0,5.0,344.0
2022-01-28-10:41:15.086867,8.0,4.0,344.0
2022-01-28-10:41:15.087861,8.0,4.0,344.0
2022-01-28-10:41:15.088858,8.0,4.0,344.0
2022-01-28-10:41:15.089858,11.0,4.0,344.0
2022-01-28-10:41:15.091852,11.0,4.0,344.0
2022-01-28-10:41:15.092577,1.0,16.0,343.0
2022-01-28-10:41:15.092577,1.0,9.0,344.0
2022-01-28-10:41:15.093611,1.0,7.0,344.0
2022-01-28-10:41:15.094574,1.0,7.0,344.0
2022-01-28-10:41:15.095606,1.0,7.0,344.0
2022-01-28-10:41:15.096604,1.0,7.0,344.0
2022-01-28-10:41:15.097567,3.0,6.0,344.0
2022-01-28-10:41:15.098619,3.0,2.0,344.0
2022-01-28-10:41:15.099619,7.0,1.0,344.0
2022-01-28-10:41:15.100613,7.0,1.0,344.0
2022-01-28-10:41:15.101607,7.0,5.0,343.0
2022-01-28-10:41:15.102599,7.0,0.0,344.0
2022-01-28-10:41:15.103600,10.0,1.0,344.0
2022-01-28-10:41:15.104592,10.0,1.0,344.0
2022-01-28-10:41:15.104592,9.0,2.0,344.0
2022-01-28-10:41:15.105638,12.0,5.0,343.0
2022-01-28-10:41:15.106889,12.0,5.0,343.0
2022-01-28-10:41:15.107224,1.0,7.0,344.0
2022-01-28-10:41:15.107224,1.0,7.0,344.0
2022-01-28-10:41:15.108270,1.0,7.0,344.0
2022-01-28-10:41:15.109445,1.0,7.0,344.0
2022-01-28-10:41:15.109445,0.0,2.0,343.0
2022-01-28-10:41:15.110491,1.0,9.0,343.0
2022-01-28-10:41:15.111445,2.0,13.0,344.0
2022-01-28-10:41:15.112486,2.0,13.0,344.0
2022-01-28-10:41:15.113491,2.0,13.0,344.0
2022-01-28-10:41:15.113491,4.0,6.0,344.0
2022-01-28-10:41:15.114537,1.0,5.0,344.0
2022-01-28-10:41:15.115536,1.0,5.0,344.0
2022-01-28-10:41:15.116533,1.0,5.0,344.0
2022-01-28-10:41:15.117529,1.0,5.0,344.0
2022-01-28-10:41:15.118766,6.0,1.0,343.0
2022-01-28-10:41:15.118766,12.0,6.0,343.0
2022-01-28-10:41:15.119820,12.0,4.0,344.0
2022-01-28-10:41:15.120821,12.0,4.0,344.0
2022-01-28-10:41:15.121816,12.0,4.0,344.0
2022-01-28-10:41:15.122812,9.0,11.0,343.0
2022-01-28-10:41:15.123809,6.0,8.0,344.0
2022-01-28-10:41:15.125749,6.0,8.0,344.0
2022-01-28-10:41:15.125749,1.0,5.0,344.0
2022-01-28-10:41:15.126844,4.0,6.0,343.0
2022-01-28-10:41:15.126844,1.0,6.0,344.0
2022-01-28-10:41:15.127904,1.0,6.0,344.0
2022-01-28-10:41:15.128899,1.0,6.0,344.0
2022-01-28-10:41:15.129893,1.0,6.0,344.0
2022-01-28-10:41:15.130892,2.0,3.0,344.0
2022-01-28-10:41:15.131888,7.0,4.0,344.0
2022-01-28-10:41:15.132885,7.0,4.0,344.0
2022-01-28-10:41:15.133882,7.0,4.0,344.0
2022-01-28-10:41:15.134880,5.0,0.0,343.0
2022-01-28-10:41:15.135878,7.0,1.0,344.0
2022-01-28-10:41:15.136980,11.0,8.0,344.0
2022-01-28-10:41:15.136980,11.0,8.0,344.0
2022-01-28-10:41:15.138030,11.0,8.0,344.0
2022-01-28-10:41:15.139025,9.0,4.0,344.0
2022-01-28-10:41:15.140022,7.0,9.0,344.0
2022-01-28-10:41:15.141193,3.0,9.0,344.0
2022-01-28-10:41:15.141193,3.0,9.0,344.0
2022-01-28-10:41:15.142225,3.0,9.0,344.0
2022-01-28-10:41:15.143223,1.0,14.0,344.0
2022-01-28-10:41:15.144292,0.0,1.0,343.0
2022-01-28-10:41:15.144292,0.0,1.0,343.0
2022-01-28-10:41:15.145340,0.0,1.0,343.0
2022-01-28-10:41:15.146560,0.0,1.0,343.0
2022-01-28-10:41:15.146560,6.0,1.0,344.0
2022-01-28-10:41:15.147616,6.0,2.0,344.0
2022-01-28-10:41:15.148611,6.0,2.0,344.0
2022-01-28-10:41:15.149555,6.0,2.0,344.0
2022-01-28-10:41:15.150606,4.0,1.0,344.0
2022-01-28-10:41:15.151605,11.0,4.0,344.0
2022-01-28-10:41:15.152601,11.0,4.0,344.0
2022-01-28-10:41:15.153570,11.0,4.0,344.0
2022-01-28-10:41:15.154595,4.0,21.0,344.0
2022-01-28-10:41:15.155595,8.0,17.0,344.0
2022-01-28-10:41:15.156591,8.0,17.0,344.0
2022-01-28-10:41:15.157763,8.0,17.0,344.0
2022-01-28-10:41:15.157763,8.0,17.0,344.0
2022-01-28-10:41:15.158763,2.0,7.0,344.0
2022-01-28-10:41:15.160783,2.0,13.0,344.0
2022-01-28-10:41:15.160783,2.0,13.0,344.0
2022-01-28-10:41:15.161755,2.0,13.0,344.0
2022-01-28-10:41:15.162753,1.0,3.0,343.0
2022-01-28-10:41:15.163805,4.0,2.0,343.0
2022-01-28-10:41:15.164775,4.0,2.0,343.0
2022-01-28-10:41:15.165792,4.0,2.0,343.0
2022-01-28-10:41:15.166780,1.0,2.0,343.0
2022-01-28-10:41:15.167143,10.0,5.0,344.0
2022-01-28-10:41:15.167143,10.0,5.0,344.0
2022-01-28-10:41:15.168190,10.0,5.0,344.0
2022-01-28-10:41:15.169186,10.0,5.0,344.0
2022-01-28-10:41:15.170364,10.0,5.0,344.0
2022-01-28-10:41:15.170364,12.0,3.0,344.0
2022-01-28-10:41:15.171420,8.0,7.0,344.0
2022-01-28-10:41:15.172418,10.0,12.0,343.0
2022-01-28-10:41:15.173418,10.0,12.0,343.0
2022-01-28-10:41:15.174411,10.0,12.0,343.0
2022-01-28-10:41:15.175407,1.0,18.0,343.0
2022-01-28-10:41:15.176406,0.0,16.0,344.0
2022-01-28-10:41:15.177405,0.0,16.0,344.0
2022-01-28-10:41:15.178345,0.0,16.0,344.0
2022-01-28-10:41:15.179398,2.0,9.0,343.0
2022-01-28-10:41:15.180340,3.0,6.0,344.0
2022-01-28-10:41:15.181337,6.0,7.0,344.0
2022-01-28-10:41:15.182335,5.0,3.0,344.0
2022-01-28-10:41:15.183366,5.0,7.0,344.0
2022-01-28-10:41:15.184364,8.0,6.0,344.0
2022-01-28-10:41:15.185360,8.0,6.0,344.0
2022-01-28-10:41:15.186357,8.0,6.0,344.0
2022-01-28-10:41:15.187354,7.0,7.0,344.0
2022-01-28-10:41:15.188376,9.0,0.0,344.0
2022-01-28-10:41:15.189370,9.0,0.0,344.0
2022-01-28-10:41:15.190368,9.0,0.0,344.0
2022-01-28-10:41:15.191365,9.0,0.0,344.0
2022-01-28-10:41:15.193362,4.0,0.0,343.0
2022-01-28-10:41:15.193362,4.0,0.0,343.0
2022-01-28-10:41:15.194356,4.0,0.0,343.0
2022-01-28-10:41:15.195335,4.0,0.0,343.0
2022-01-28-10:41:15.196332,1.0,4.0,344.0
2022-01-28-10:41:15.197334,5.0,2.0,344.0
2022-01-28-10:41:15.198318,5.0,2.0,344.0
2022-01-28-10:41:15.199315,5.0,2.0,344.0
2022-01-28-10:41:15.200286,4.0,2.0,343.0
2022-01-28-10:41:15.201407,9.0,0.0,344.0
2022-01-28-10:41:15.201407,9.0,0.0,344.0
2022-01-28-10:41:15.202454,9.0,0.0,344.0
2022-01-28-10:41:15.203452,9.0,0.0,344.0
2022-01-28-10:41:15.204442,10.0,0.0,343.0
2022-01-28-10:41:15.205447,10.0,8.0,344.0
2022-01-28-10:41:15.206446,10.0,8.0,344.0
2022-01-28-10:41:15.207449,10.0,8.0,344.0
2022-01-28-10:41:15.208438,6.0,21.0,343.0
2022-01-28-10:41:15.209388,5.0,27.0,344.0
2022-01-28-10:41:15.210434,3.0,6.0,343.0
2022-01-28-10:41:15.211383,3.0,6.0,343.0
2022-01-28-10:41:15.212380,2.0,1.0,343.0
2022-01-28-10:41:15.213534,4.0,4.0,344.0
2022-01-28-10:41:15.213534,4.0,4.0,344.0
2022-01-28-10:41:15.214589,4.0,4.0,344.0
2022-01-28-10:41:15.215587,4.0,4.0,344.0
2022-01-28-10:41:15.216586,6.0,5.0,343.0
2022-01-28-10:41:15.217790,6.0,5.0,344.0
2022-01-28-10:41:15.217946,10.0,5.0,343.0
2022-01-28-10:41:15.217946,10.0,5.0,343.0
2022-01-28-10:41:15.218994,10.0,5.0,343.0
2022-01-28-10:41:15.220208,10.0,5.0,343.0
2022-01-28-10:41:15.220208,9.0,4.0,343.0
2022-01-28-10:41:15.221262,3.0,3.0,343.0
2022-01-28-10:41:15.222303,3.0,3.0,343.0
2022-01-28-10:41:15.222303,3.0,3.0,343.0
2022-01-28-10:41:15.223508,3.0,3.0,343.0
2022-01-28-10:41:15.223508,5.0,7.0,344.0
2022-01-28-10:41:15.224562,1.0,15.0,344.0
2022-01-28-10:41:15.225559,1.0,15.0,344.0
2022-01-28-10:41:15.226557,1.0,15.0,344.0
2022-01-28-10:41:15.227500,1.0,15.0,344.0
2022-01-28-10:41:15.229551,1.0,12.0,344.0
2022-01-28-10:41:15.229551,5.0,11.0,344.0
2022-01-28-10:41:15.230493,3.0,6.0,344.0
2022-01-28-10:41:15.231490,3.0,6.0,344.0
2022-01-28-10:41:15.232541,6.0,0.0,343.0
2022-01-28-10:41:15.233539,3.0,7.0,343.0
2022-01-28-10:41:15.234541,5.0,14.0,343.0
2022-01-28-10:41:15.235519,5.0,14.0,343.0
2022-01-28-10:41:15.236533,9.0,11.0,343.0
2022-01-28-10:41:15.237527,8.0,6.0,344.0
2022-01-28-10:41:15.238530,8.0,0.0,344.0
2022-01-28-10:41:15.239523,8.0,0.0,344.0
2022-01-28-10:41:15.240520,8.0,0.0,344.0
2022-01-28-10:41:15.241517,3.0,19.0,343.0
2022-01-28-10:41:15.242514,1.0,9.0,344.0
2022-01-28-10:41:15.243491,1.0,9.0,344.0
2022-01-28-10:41:15.244493,1.0,9.0,344.0
2022-01-28-10:41:15.245498,7.0,3.0,343.0
2022-01-28-10:41:15.246450,7.0,3.0,343.0
2022-01-28-10:41:15.247454,7.0,3.0,343.0
2022-01-28-10:41:15.248444,5.0,1.0,344.0
2022-01-28-10:41:15.249443,5.0,8.0,343.0
2022-01-28-10:41:15.250449,5.0,8.0,343.0
2022-01-28-10:41:15.251437,5.0,8.0,343.0
2022-01-28-10:41:15.252435,5.0,8.0,343.0
2022-01-28-10:41:15.253431,6.0,8.0,344.0
2022-01-28-10:41:15.254428,6.0,8.0,344.0
2022-01-28-10:41:15.255425,6.0,8.0,344.0
2022-01-28-10:41:15.256423,6.0,8.0,344.0
2022-01-28-10:41:15.257455,3.0,17.0,344.0
2022-01-28-10:41:15.258456,3.0,22.0,344.0
2022-01-28-10:41:15.260413,3.0,16.0,344.0
2022-01-28-10:41:15.260413,1.0,11.0,343.0
2022-01-28-10:41:15.262442,6.0,6.0,344.0
2022-01-28-10:41:15.262442,6.0,6.0,344.0
2022-01-28-10:41:15.263405,6.0,6.0,344.0
2022-01-28-10:41:15.264435,6.0,6.0,344.0
2022-01-28-10:41:15.265433,2.0,6.0,344.0
2022-01-28-10:41:15.266430,3.0,7.0,344.0
2022-01-28-10:41:15.267427,2.0,6.0,343.0
2022-01-28-10:41:15.268390,2.0,6.0,343.0
2022-01-28-10:41:15.269388,5.0,18.0,343.0
2022-01-28-10:41:15.270385,10.0,4.0,344.0
2022-01-28-10:41:15.271382,10.0,4.0,344.0
2022-01-28-10:41:15.272379,10.0,4.0,344.0
2022-01-28-10:41:15.273377,3.0,14.0,344.0
2022-01-28-10:41:15.274374,1.0,1.0,344.0
2022-01-28-10:41:15.275406,1.0,1.0,344.0
2022-01-28-10:41:15.276370,1.0,1.0,344.0
2022-01-28-10:41:15.277368,0.0,5.0,344.0
2022-01-28-10:41:15.278364,1.0,9.0,344.0
2022-01-28-10:41:15.279361,1.0,9.0,344.0
2022-01-28-10:41:15.280358,1.0,9.0,344.0
2022-01-28-10:41:15.281358,1.0,9.0,344.0
2022-01-28-10:41:15.282355,10.0,7.0,344.0
2022-01-28-10:41:15.283353,4.0,3.0,344.0
2022-01-28-10:41:15.284383,4.0,3.0,344.0
2022-01-28-10:41:15.285382,4.0,3.0,344.0
2022-01-28-10:41:15.286379,11.0,7.0,344.0
2022-01-28-10:41:15.287372,13.0,11.0,344.0
2022-01-28-10:41:15.288370,13.0,11.0,344.0
2022-01-28-10:41:15.289381,13.0,11.0,344.0
2022-01-28-10:41:15.290332,6.0,8.0,344.0
2022-01-28-10:41:15.291329,0.0,7.0,343.0
2022-01-28-10:41:15.292327,0.0,7.0,343.0
2022-01-28-10:41:15.293323,0.0,7.0,343.0
2022-01-28-10:41:15.294321,1.0,10.0,344.0
2022-01-28-10:41:15.295320,2.0,6.0,343.0
2022-01-28-10:41:15.297313,2.0,6.0,343.0
2022-01-28-10:41:15.297313,4.0,2.0,343.0
2022-01-28-10:41:15.298343,4.0,5.0,344.0
2022-01-28-10:41:15.299308,4.0,5.0,344.0
2022-01-28-10:41:15.300340,4.0,5.0,344.0
2022-01-28-10:41:15.301302,4.0,5.0,344.0
2022-01-28-10:41:15.302299,10.0,7.0,344.0
2022-01-28-10:41:15.303297,11.0,3.0,344.0
2022-01-28-10:41:15.304294,11.0,3.0,344.0
2022-01-28-10:41:15.305291,11.0,3.0,344.0
2022-01-28-10:41:15.306289,10.0,4.0,344.0
2022-01-28-10:41:15.307286,2.0,14.0,344.0
2022-01-28-10:41:15.308284,2.0,10.0,344.0
2022-01-28-10:41:15.309284,2.0,10.0,344.0
2022-01-28-10:41:15.310278,1.0,8.0,344.0
2022-01-28-10:41:15.311277,0.0,14.0,344.0
2022-01-28-10:41:15.312305,0.0,14.0,344.0
2022-01-28-10:41:15.313277,0.0,14.0,344.0
2022-01-28-10:41:15.314270,7.0,8.0,344.0
2022-01-28-10:41:15.315265,7.0,7.0,343.0
2022-01-28-10:41:15.316262,7.0,7.0,343.0
2022-01-28-10:41:15.317262,7.0,7.0,343.0
2022-01-28-10:41:15.318258,8.0,14.0,343.0
2022-01-28-10:41:15.319255,13.0,6.0,343.0
2022-01-28-10:41:15.320252,11.0,4.0,344.0
2022-01-28-10:41:15.321249,11.0,4.0,344.0
2022-01-28-10:41:15.322246,11.0,4.0,344.0
2022-01-28-10:41:15.323244,7.0,8.0,344.0
2022-01-28-10:41:15.324241,6.0,22.0,344.0
2022-01-28-10:41:15.325239,1.0,21.0,344.0
2022-01-28-10:41:15.326235,1.0,21.0,344.0
2022-01-28-10:41:15.327260,1.0,23.0,344.0
2022-01-28-10:41:15.328232,4.0,16.0,343.0
2022-01-28-10:41:15.329254,4.0,12.0,344.0
2022-01-28-10:41:15.330254,4.0,12.0,344.0
2022-01-28-10:41:15.332249,5.0,5.0,344.0
2022-01-28-10:41:15.332249,0.0,14.0,344.0
2022-01-28-10:41:15.333216,0.0,14.0,344.0
2022-01-28-10:41:15.334214,0.0,14.0,344.0
2022-01-28-10:41:15.335211,11.0,19.0,344.0
2022-01-28-10:41:15.336209,15.0,8.0,343.0
2022-01-28-10:41:15.337206,15.0,8.0,343.0
2022-01-28-10:41:15.338204,15.0,8.0,343.0
2022-01-28-10:41:15.339202,7.0,1.0,344.0
2022-01-28-10:41:15.340217,2.0,16.0,344.0
2022-01-28-10:41:15.341197,2.0,16.0,344.0
2022-01-28-10:41:15.342193,2.0,16.0,344.0
2022-01-28-10:41:15.343190,1.0,13.0,344.0
2022-01-28-10:41:15.344187,2.0,12.0,344.0
2022-01-28-10:41:15.345194,2.0,12.0,344.0
2022-01-28-10:41:15.346183,2.0,12.0,344.0
2022-01-28-10:41:15.347181,3.0,9.0,344.0
2022-01-28-10:41:15.348179,4.0,4.0,344.0
2022-01-28-10:41:15.349215,4.0,4.0,344.0
2022-01-28-10:41:15.350183,4.0,4.0,344.0
2022-01-28-10:41:15.351195,7.0,1.0,343.0
2022-01-28-10:41:15.352192,9.0,2.0,343.0
2022-01-28-10:41:15.353191,10.0,3.0,343.0
2022-01-28-10:41:15.354186,10.0,3.0,343.0
2022-01-28-10:41:15.355158,13.0,1.0,344.0
2022-01-28-10:41:15.356156,13.0,1.0,344.0
2022-01-28-10:41:15.357153,7.0,14.0,344.0
2022-01-28-10:41:15.358152,7.0,14.0,344.0
2022-01-28-10:41:15.359147,7.0,14.0,344.0
2022-01-28-10:41:15.360144,2.0,14.0,343.0
2022-01-28-10:41:15.361143,2.0,8.0,344.0
2022-01-28-10:41:15.362141,2.0,8.0,344.0
2022-01-28-10:41:15.363140,2.0,8.0,344.0
2022-01-28-10:41:15.364137,4.0,6.0,344.0
2022-01-28-10:41:15.365134,4.0,6.0,344.0
2022-01-28-10:41:15.367127,6.0,4.0,344.0
2022-01-28-10:41:15.367127,10.0,2.0,343.0
2022-01-28-10:41:15.368157,8.0,5.0,344.0
2022-01-28-10:41:15.369121,8.0,5.0,344.0
2022-01-28-10:41:15.370119,8.0,5.0,344.0
2022-01-28-10:41:15.371150,8.0,5.0,344.0
2022-01-28-10:41:15.372150,13.0,1.0,344.0
2022-01-28-10:41:15.373150,7.0,7.0,343.0
2022-01-28-10:41:15.374142,4.0,15.0,343.0
2022-01-28-10:41:15.375139,4.0,15.0,343.0
2022-01-28-10:41:15.376137,3.0,14.0,343.0
2022-01-28-10:41:15.377099,3.0,2.0,344.0
2022-01-28-10:41:15.378098,1.0,4.0,343.0
2022-01-28-10:41:15.379094,1.0,4.0,343.0
2022-01-28-10:41:15.380091,2.0,4.0,343.0
2022-01-28-10:41:15.381089,5.0,2.0,343.0
2022-01-28-10:41:15.382086,5.0,2.0,343.0
2022-01-28-10:41:15.383083,5.0,2.0,343.0
2022-01-28-10:41:15.384081,6.0,2.0,343.0
2022-01-28-10:41:15.385079,8.0,5.0,344.0
2022-01-28-10:41:15.386075,8.0,5.0,344.0
2022-01-28-10:41:15.387074,8.0,5.0,344.0
2022-01-28-10:41:15.388072,11.0,20.0,343.0
2022-01-28-10:41:15.389067,5.0,21.0,343.0
2022-01-28-10:41:15.390065,5.0,21.0,343.0
2022-01-28-10:41:15.391062,5.0,21.0,343.0
2022-01-28-10:41:15.392059,5.0,21.0,343.0
2022-01-28-10:41:15.393056,1.0,6.0,344.0
2022-01-28-10:41:15.394054,1.0,6.0,344.0
2022-01-28-10:41:15.395051,1.0,6.0,344.0
2022-01-28-10:41:15.396048,1.0,6.0,344.0
2022-01-28-10:41:15.397046,2.0,3.0,343.0
2022-01-28-10:41:15.398044,5.0,4.0,344.0
2022-01-28-10:41:15.399041,5.0,4.0,344.0
2022-01-28-10:41:15.400071,5.0,4.0,344.0
2022-01-28-10:41:15.402035,7.0,6.0,344.0
2022-01-28-10:41:15.402035,11.0,17.0,344.0
2022-01-28-10:41:15.403062,11.0,17.0,344.0
2022-01-28-10:41:15.404028,11.0,17.0,344.0
2022-01-28-10:41:15.405025,10.0,6.0,344.0
2022-01-28-10:41:15.406024,9.0,11.0,344.0
2022-01-28-10:41:15.407020,9.0,11.0,344.0
2022-01-28-10:41:15.408017,9.0,11.0,344.0
2022-01-28-10:41:15.409014,2.0,7.0,344.0
2022-01-28-10:41:15.410013,1.0,6.0,343.0
2022-01-28-10:41:15.411043,1.0,6.0,343.0
2022-01-28-10:41:15.412007,1.0,6.0,343.0
2022-01-28-10:41:15.413003,3.0,6.0,344.0
2022-01-28-10:41:15.414003,4.0,16.0,344.0
2022-01-28-10:41:15.414999,5.0,20.0,344.0
2022-01-28-10:41:15.415995,5.0,20.0,344.0
2022-01-28-10:41:15.416993,5.0,14.0,344.0
2022-01-28-10:41:15.417990,5.0,14.0,344.0
2022-01-28-10:41:15.419019,5.0,7.0,343.0
2022-01-28-10:41:15.420015,7.0,2.0,343.0
2022-01-28-10:41:15.421010,14.0,1.0,343.0
2022-01-28-10:41:15.422009,9.0,2.0,344.0
2022-01-28-10:41:15.422977,9.0,2.0,344.0
2022-01-28-10:41:15.423974,9.0,2.0,344.0
2022-01-28-10:41:15.424973,1.0,6.0,343.0
2022-01-28-10:41:15.425970,2.0,9.0,344.0
2022-01-28-10:41:15.426966,2.0,9.0,344.0
2022-01-28-10:41:15.427963,2.0,9.0,344.0
2022-01-28-10:41:15.428961,4.0,8.0,343.0
2022-01-28-10:41:15.429959,5.0,9.0,344.0
2022-01-28-10:41:15.430955,5.0,9.0,344.0
2022-01-28-10:41:15.431953,5.0,9.0,344.0
2022-01-28-10:41:15.433949,5.0,9.0,344.0
2022-01-28-10:41:15.434945,3.0,3.0,343.0
2022-01-28-10:41:15.434945,2.0,10.0,344.0
2022-01-28-10:41:15.435944,7.0,11.0,344.0
2022-01-28-10:41:15.436939,7.0,4.0,344.0
2022-01-28-10:41:15.437937,12.0,5.0,344.0
2022-01-28-10:41:15.438934,13.0,1.0,343.0
2022-01-28-10:41:15.439931,7.0,12.0,344.0
2022-01-28-10:41:15.440928,7.0,12.0,344.0
2022-01-28-10:41:15.441926,2.0,6.0,343.0
2022-01-28-10:41:15.442923,2.0,14.0,343.0
2022-01-28-10:41:15.443920,2.0,14.0,343.0
2022-01-28-10:41:15.444919,2.0,14.0,343.0
2022-01-28-10:41:15.445917,2.0,9.0,344.0
2022-01-28-10:41:15.446966,8.0,12.0,343.0
2022-01-28-10:41:15.447912,8.0,12.0,343.0
2022-01-28-10:41:15.448908,8.0,12.0,343.0
2022-01-28-10:41:15.449905,3.0,11.0,344.0
2022-01-28-10:41:15.450902,7.0,7.0,343.0
2022-01-28-10:41:15.451899,7.0,7.0,343.0
2022-01-28-10:41:15.452896,7.0,7.0,343.0
2022-01-28-10:41:15.453894,12.0,2.0,343.0
2022-01-28-10:41:15.454891,7.0,2.0,344.0
2022-01-28-10:41:15.455888,7.0,2.0,344.0
2022-01-28-10:41:15.456886,7.0,2.0,344.0
2022-01-28-10:41:15.457918,0.0,16.0,343.0
2022-01-28-10:41:15.458913,0.0,3.0,344.0
2022-01-28-10:41:15.459878,0.0,3.0,344.0
2022-01-28-10:41:15.460876,0.0,3.0,344.0
2022-01-28-10:41:15.461873,2.0,5.0,344.0
2022-01-28-10:41:15.462870,1.0,0.0,344.0
2022-01-28-10:41:15.463868,1.0,0.0,344.0
2022-01-28-10:41:15.464867,1.0,0.0,344.0
2022-01-28-10:41:15.466859,8.0,9.0,344.0
2022-01-28-10:41:15.466859,8.0,9.0,344.0
2022-01-28-10:41:15.467858,8.0,9.0,344.0
2022-01-28-10:41:15.468854,8.0,9.0,344.0
2022-01-28-10:41:15.469852,8.0,14.0,344.0
2022-01-28-10:41:15.470849,6.0,8.0,344.0
2022-01-28-10:41:15.471846,5.0,3.0,344.0
2022-01-28-10:41:15.472844,5.0,3.0,344.0
2022-01-28-10:41:15.473842,6.0,6.0,344.0
2022-01-28-10:41:15.474839,0.0,3.0,344.0
2022-01-28-10:41:15.475874,0.0,3.0,344.0
2022-01-28-10:41:15.476870,0.0,3.0,344.0
2022-01-28-10:41:15.477866,0.0,3.0,344.0
2022-01-28-10:41:15.478862,3.0,12.0,344.0
2022-01-28-10:41:15.479865,3.0,5.0,343.0
2022-01-28-10:41:15.480823,0.0,12.0,343.0
2022-01-28-10:41:15.481820,0.0,12.0,343.0
2022-01-28-10:41:15.482817,7.0,1.0,344.0
2022-01-28-10:41:15.483815,7.0,1.0,344.0
2022-01-28-10:41:15.484812,7.0,1.0,344.0
2022-01-28-10:41:15.485808,7.0,1.0,344.0
2022-01-28-10:41:15.486806,7.0,6.0,343.0
2022-01-28-10:41:15.487804,10.0,0.0,344.0
2022-01-28-10:41:15.488800,10.0,0.0,344.0
2022-01-28-10:41:15.489798,10.0,0.0,344.0
2022-01-28-10:41:15.490796,6.0,9.0,343.0
2022-01-28-10:41:15.491792,5.0,16.0,344.0
2022-01-28-10:41:15.492790,1.0,18.0,344.0
2022-01-28-10:41:15.493787,0.0,16.0,344.0
2022-01-28-10:41:15.494787,0.0,12.0,343.0
2022-01-28-10:41:15.495783,2.0,12.0,344.0
2022-01-28-10:41:15.496779,2.0,5.0,343.0
2022-01-28-10:41:15.497776,2.0,5.0,343.0
2022-01-28-10:41:15.498774,5.0,9.0,344.0
2022-01-28-10:41:15.499771,8.0,10.0,344.0
2022-01-28-10:41:15.501766,8.0,10.0,344.0
2022-01-28-10:41:15.501766,8.0,10.0,344.0
2022-01-28-10:41:15.502764,8.0,13.0,344.0
2022-01-28-10:41:15.503761,12.0,8.0,344.0
2022-01-28-10:41:15.504758,9.0,4.0,343.0
2022-01-28-10:41:15.505755,9.0,4.0,343.0
2022-01-28-10:41:15.506812,9.0,4.0,343.0
2022-01-28-10:41:15.506812,7.0,8.0,344.0
2022-01-28-10:41:15.507836,3.0,18.0,344.0
2022-01-28-10:41:15.508837,3.0,18.0,344.0
2022-01-28-10:41:15.509831,3.0,18.0,344.0
2022-01-28-10:41:15.510829,3.0,18.0,344.0
2022-01-28-10:41:15.511802,2.0,6.0,344.0
2022-01-28-10:41:15.512823,5.0,6.0,343.0
2022-01-28-10:41:15.513823,5.0,6.0,343.0
2022-01-28-10:41:15.514817,5.0,6.0,343.0
2022-01-28-10:41:15.515815,3.0,3.0,343.0
2022-01-28-10:41:15.516788,4.0,11.0,343.0
2022-01-28-10:41:15.517810,4.0,11.0,343.0
2022-01-28-10:41:15.518807,4.0,11.0,343.0
2022-01-28-10:41:15.519804,8.0,16.0,344.0
2022-01-28-10:41:15.520802,11.0,6.0,343.0
2022-01-28-10:41:15.521803,12.0,6.0,343.0
2022-01-28-10:41:15.522797,12.0,6.0,343.0
2022-01-28-10:41:15.523794,9.0,3.0,344.0
2022-01-28-10:41:15.524793,4.0,18.0,344.0
2022-01-28-10:41:15.525790,4.0,18.0,344.0
2022-01-28-10:41:15.526786,4.0,18.0,344.0
2022-01-28-10:41:15.527783,4.0,14.0,344.0
2022-01-28-10:41:15.528782,5.0,8.0,344.0
2022-01-28-10:41:15.529778,4.0,9.0,343.0
2022-01-28-10:41:15.530775,4.0,9.0,343.0
2022-01-28-10:41:15.531772,3.0,7.0,344.0
2022-01-28-10:41:15.532775,5.0,4.0,343.0
2022-01-28-10:41:15.533768,6.0,10.0,344.0
2022-01-28-10:41:15.535762,6.0,10.0,344.0
2022-01-28-10:41:15.535762,11.0,10.0,344.0
2022-01-28-10:41:15.536735,11.0,10.0,344.0
2022-01-28-10:41:15.537760,11.0,10.0,344.0
2022-01-28-10:41:15.538756,11.0,10.0,344.0
2022-01-28-10:41:15.539968,7.0,10.0,344.0
2022-01-28-10:41:15.539968,10.0,12.0,344.0
2022-01-28-10:41:15.541093,0.0,7.0,344.0
2022-01-28-10:41:15.541093,0.0,7.0,344.0
2022-01-28-10:41:15.542119,0.0,7.0,344.0
2022-01-28-10:41:15.543114,0.0,7.0,344.0
2022-01-28-10:41:15.544111,1.0,11.0,344.0
2022-01-28-10:41:15.545085,0.0,13.0,344.0
2022-01-28-10:41:15.546106,0.0,13.0,344.0
2022-01-28-10:41:15.547107,0.0,13.0,344.0
2022-01-28-10:41:15.548101,6.0,5.0,344.0
2022-01-28-10:41:15.549404,2.0,17.0,344.0
2022-01-28-10:41:15.549404,2.0,17.0,344.0
2022-01-28-10:41:15.550435,9.0,21.0,344.0
2022-01-28-10:41:15.551689,9.0,21.0,344.0
2022-01-28-10:41:15.551689,7.0,11.0,344.0
2022-01-28-10:41:15.552720,4.0,4.0,343.0
2022-01-28-10:41:15.553833,7.0,1.0,344.0
2022-01-28-10:41:15.553833,7.0,1.0,344.0
2022-01-28-10:41:15.554886,7.0,1.0,344.0
2022-01-28-10:41:15.555830,7.0,1.0,344.0
2022-01-28-10:41:15.556828,4.0,12.0,344.0
2022-01-28-10:41:15.557825,4.0,12.0,344.0
2022-01-28-10:41:15.558822,4.0,12.0,344.0
2022-01-28-10:41:15.559853,4.0,12.0,344.0
2022-01-28-10:41:15.560852,2.0,0.0,344.0
2022-01-28-10:41:15.561815,3.0,2.0,344.0
2022-01-28-10:41:15.562847,3.0,2.0,344.0
2022-01-28-10:41:15.563844,3.0,2.0,344.0
2022-01-28-10:41:15.564840,3.0,5.0,343.0
2022-01-28-10:41:15.565837,6.0,4.0,344.0
2022-01-28-10:41:15.566840,6.0,4.0,344.0
2022-01-28-10:41:15.568796,6.0,4.0,344.0
2022-01-28-10:41:15.568796,10.0,25.0,344.0
2022-01-28-10:41:15.569825,10.0,25.0,344.0
2022-01-28-10:41:15.570822,10.0,25.0,344.0
2022-01-28-10:41:15.571822,10.0,25.0,344.0
2022-01-28-10:41:15.572817,8.0,4.0,344.0
2022-01-28-10:41:15.573815,0.0,6.0,343.0
2022-01-28-10:41:15.574818,0.0,6.0,343.0
2022-01-28-10:41:15.575809,0.0,6.0,343.0
2022-01-28-10:41:15.576809,0.0,25.0,344.0
2022-01-28-10:41:15.577804,6.0,29.0,343.0
2022-01-28-10:41:15.578801,6.0,29.0,343.0
2022-01-28-10:41:15.579801,6.0,29.0,343.0
2022-01-28-10:41:15.580784,7.0,27.0,343.0
2022-01-28-10:41:15.581793,4.0,24.0,344.0
2022-01-28-10:41:15.582794,4.0,24.0,344.0
2022-01-28-10:41:15.583778,4.0,24.0,344.0
2022-01-28-10:41:15.584787,9.0,1.0,343.0
2022-01-28-10:41:15.585750,12.0,8.0,344.0
2022-01-28-10:41:15.586780,12.0,8.0,344.0
2022-01-28-10:41:15.587789,12.0,8.0,344.0
2022-01-28-10:41:15.588774,10.0,6.0,343.0
2022-01-28-10:41:15.589739,3.0,0.0,344.0
2022-01-28-10:41:15.590772,3.0,0.0,344.0
2022-01-28-10:41:15.591766,3.0,0.0,344.0
2022-01-28-10:41:15.592766,3.0,0.0,344.0
2022-01-28-10:41:15.593762,2.0,1.0,343.0
2022-01-28-10:41:15.594767,2.0,1.0,343.0
2022-01-28-10:41:15.595724,2.0,1.0,343.0
2022-01-28-10:41:15.596720,2.0,1.0,343.0
2022-01-28-10:41:15.597718,2.0,10.0,343.0
2022-01-28-10:41:15.598715,7.0,7.0,344.0
2022-01-28-10:41:15.599713,7.0,7.0,344.0
2022-01-28-10:41:15.600748,7.0,7.0,344.0
2022-01-28-10:41:15.602739,12.0,2.0,343.0
2022-01-28-10:41:15.602739,12.0,2.0,343.0
2022-01-28-10:41:15.603737,12.0,2.0,343.0
2022-01-28-10:41:15.604734,12.0,2.0,343.0
2022-01-28-10:41:15.605731,11.0,1.0,344.0
2022-01-28-10:41:15.606731,8.0,9.0,343.0
2022-01-28-10:41:15.607725,6.0,13.0,344.0
2022-01-28-10:41:15.608716,6.0,13.0,344.0
2022-01-28-10:41:15.609720,0.0,14.0,344.0
2022-01-28-10:41:15.610717,1.0,9.0,344.0
2022-01-28-10:41:15.611682,4.0,6.0,343.0
2022-01-28-10:41:15.612711,4.0,6.0,343.0
2022-01-28-10:41:15.613709,7.0,16.0,344.0
2022-01-28-10:41:15.614710,6.0,15.0,343.0
2022-01-28-10:41:15.615704,6.0,15.0,343.0
2022-01-28-10:41:15.616702,6.0,15.0,343.0
2022-01-28-10:41:15.617700,6.0,3.0,344.0
2022-01-28-10:41:15.618695,13.0,8.0,343.0
2022-01-28-10:41:15.619694,13.0,8.0,343.0
2022-01-28-10:41:15.620690,13.0,8.0,343.0
2022-01-28-10:41:15.621687,9.0,15.0,344.0
2022-01-28-10:41:15.622689,10.0,8.0,343.0
2022-01-28-10:41:15.623682,6.0,15.0,344.0
2022-01-28-10:41:15.624671,6.0,15.0,344.0
2022-01-28-10:41:15.625681,4.0,21.0,344.0
2022-01-28-10:41:15.626679,1.0,16.0,344.0
2022-01-28-10:41:15.627639,1.0,16.0,344.0
2022-01-28-10:41:15.628636,1.0,16.0,344.0
2022-01-28-10:41:15.629666,2.0,12.0,344.0
2022-01-28-10:41:15.630666,5.0,1.0,343.0
2022-01-28-10:41:15.631661,5.0,1.0,343.0
2022-01-28-10:41:15.632660,5.0,1.0,343.0
2022-01-28-10:41:15.633655,5.0,1.0,343.0
2022-01-28-10:41:15.635652,9.0,5.0,343.0
2022-01-28-10:41:15.635652,8.0,3.0,344.0
2022-01-28-10:41:15.636647,8.0,3.0,344.0
2022-01-28-10:41:15.637644,8.0,3.0,344.0
2022-01-28-10:41:15.638645,12.0,0.0,343.0
2022-01-28-10:41:15.639639,7.0,7.0,344.0
2022-01-28-10:41:15.640638,8.0,9.0,344.0
2022-01-28-10:41:15.641634,8.0,9.0,344.0
2022-01-28-10:41:15.642631,4.0,12.0,344.0
2022-01-28-10:41:15.643630,1.0,3.0,344.0
2022-01-28-10:41:15.644625,1.0,7.0,344.0
2022-01-28-10:41:15.645624,1.0,7.0,344.0
2022-01-28-10:41:15.646627,2.0,8.0,344.0
2022-01-28-10:41:15.647618,4.0,7.0,344.0
2022-01-28-10:41:15.648617,4.0,6.0,343.0
2022-01-28-10:41:15.649617,4.0,6.0,343.0
2022-01-28-10:41:15.650611,2.0,6.0,344.0
2022-01-28-10:41:15.651608,2.0,6.0,344.0
2022-01-28-10:41:15.652605,7.0,6.0,344.0
2022-01-28-10:41:15.653602,7.0,6.0,344.0
2022-01-28-10:41:15.654603,10.0,21.0,344.0
2022-01-28-10:41:15.655598,12.0,1.0,343.0
2022-01-28-10:41:15.656596,4.0,14.0,344.0
2022-01-28-10:41:15.657592,4.0,14.0,344.0
2022-01-28-10:41:15.658590,2.0,14.0,343.0
2022-01-28-10:41:15.659587,2.0,8.0,344.0
2022-01-28-10:41:15.660584,1.0,4.0,344.0
2022-01-28-10:41:15.661547,1.0,4.0,344.0
2022-01-28-10:41:15.662582,1.0,1.0,344.0
2022-01-28-10:41:15.663576,2.0,4.0,344.0
2022-01-28-10:41:15.664542,5.0,5.0,344.0
2022-01-28-10:41:15.665571,5.0,5.0,344.0
2022-01-28-10:41:15.666568,3.0,3.0,343.0
2022-01-28-10:41:15.667566,12.0,7.0,343.0
2022-01-28-10:41:15.668562,12.0,7.0,343.0
2022-01-28-10:41:15.670560,12.0,7.0,343.0
2022-01-28-10:41:15.670560,12.0,5.0,344.0
2022-01-28-10:41:15.671555,7.0,14.0,343.0
2022-01-28-10:41:15.672552,7.0,14.0,343.0
2022-01-28-10:41:15.673549,7.0,14.0,343.0
2022-01-28-10:41:15.674546,7.0,14.0,343.0
2022-01-28-10:41:15.675544,2.0,12.0,344.0
2022-01-28-10:41:15.676542,0.0,8.0,344.0
2022-01-28-10:41:15.677538,0.0,6.0,344.0
2022-01-28-10:41:15.678539,0.0,6.0,344.0
2022-01-28-10:41:15.679533,1.0,11.0,343.0
2022-01-28-10:41:15.680532,2.0,15.0,343.0
2022-01-28-10:41:15.681501,2.0,3.0,343.0
2022-01-28-10:41:15.682523,2.0,3.0,343.0
2022-01-28-10:41:15.683523,7.0,6.0,343.0
2022-01-28-10:41:15.684518,5.0,12.0,344.0
2022-01-28-10:41:15.685485,5.0,8.0,344.0
2022-01-28-10:41:15.686482,5.0,8.0,344.0
2022-01-28-10:41:15.687479,12.0,11.0,343.0
2022-01-28-10:41:15.688477,7.0,0.0,343.0
2022-01-28-10:41:15.689474,7.0,1.0,344.0
2022-01-28-10:41:15.690471,7.0,1.0,344.0
2022-01-28-10:41:15.691502,7.0,13.0,343.0
2022-01-28-10:41:15.692499,0.0,12.0,343.0
2022-01-28-10:41:15.693497,2.0,11.0,344.0
2022-01-28-10:41:15.694496,2.0,11.0,344.0
2022-01-28-10:41:15.695491,2.0,9.0,344.0
2022-01-28-10:41:15.696489,4.0,5.0,344.0
2022-01-28-10:41:15.697488,6.0,2.0,343.0
2022-01-28-10:41:15.698482,6.0,2.0,343.0
2022-01-28-10:41:15.699480,1.0,3.0,344.0
2022-01-28-10:41:15.700444,11.0,5.0,343.0
2022-01-28-10:41:15.701474,11.0,5.0,343.0
2022-01-28-10:41:15.702438,11.0,5.0,343.0
2022-01-28-10:41:15.704467,7.0,7.0,343.0
2022-01-28-10:41:15.704467,7.0,7.0,343.0
2022-01-28-10:41:15.705464,7.0,7.0,343.0
2022-01-28-10:41:15.706427,7.0,7.0,343.0
2022-01-28-10:41:15.707424,7.0,3.0,343.0
2022-01-28-10:41:15.708457,1.0,4.0,343.0
2022-01-28-10:41:15.709453,1.0,4.0,343.0
2022-01-28-10:41:15.710453,1.0,4.0,343.0
2022-01-28-10:41:15.711441,1.0,4.0,343.0
2022-01-28-10:41:15.712446,3.0,26.0,344.0
2022-01-28-10:41:15.713409,2.0,9.0,344.0
2022-01-28-10:41:15.714431,2.0,17.0,343.0
2022-01-28-10:41:15.715430,2.0,17.0,343.0
2022-01-28-10:41:15.716425,5.0,13.0,343.0
2022-01-28-10:41:15.717424,6.0,2.0,344.0
2022-01-28-10:41:15.718424,7.0,2.0,344.0
2022-01-28-10:41:15.719417,7.0,2.0,344.0
2022-01-28-10:41:15.720417,10.0,8.0,343.0
2022-01-28-10:41:15.721852,13.0,6.0,344.0
2022-01-28-10:41:15.722003,11.0,9.0,344.0
2022-01-28-10:41:15.722003,11.0,9.0,344.0
2022-01-28-10:41:15.723045,11.0,9.0,344.0
2022-01-28-10:41:15.724033,8.0,19.0,343.0
2022-01-28-10:41:15.725032,0.0,14.0,344.0
2022-01-28-10:41:15.726028,5.0,8.0,344.0
2022-01-28-10:41:15.727041,5.0,8.0,344.0
2022-01-28-10:41:15.727989,0.0,6.0,343.0
2022-01-28-10:41:15.728986,1.0,1.0,344.0
2022-01-28-10:41:15.729984,1.0,1.0,344.0
2022-01-28-10:41:15.730982,1.0,1.0,344.0
2022-01-28-10:41:15.732003,1.0,1.0,344.0
2022-01-28-10:41:15.732976,2.0,0.0,344.0
2022-01-28-10:41:15.733973,7.0,2.0,344.0
2022-01-28-10:41:15.734998,7.0,2.0,344.0
2022-01-28-10:41:15.735967,7.0,2.0,344.0
2022-01-28-10:41:15.736991,11.0,5.0,344.0
2022-01-28-10:41:15.737987,9.0,5.0,344.0
2022-01-28-10:41:15.739957,9.0,5.0,344.0
2022-01-28-10:41:15.740433,7.0,5.0,344.0
2022-01-28-10:41:15.740433,3.0,19.0,344.0
2022-01-28-10:41:15.741488,0.0,3.0,343.0
2022-01-28-10:41:15.742487,0.0,3.0,343.0
2022-01-28-10:41:15.743463,0.0,3.0,343.0
2022-01-28-10:41:15.744479,1.0,3.0,343.0
2022-01-28-10:41:15.745476,1.0,2.0,343.0
2022-01-28-10:41:15.746474,3.0,8.0,343.0
2022-01-28-10:41:15.747467,3.0,8.0,343.0
2022-01-28-10:41:15.748468,6.0,7.0,343.0
2022-01-28-10:41:15.749466,9.0,4.0,344.0
2022-01-28-10:41:15.750466,8.0,2.0,343.0
2022-01-28-10:41:15.751462,8.0,2.0,343.0
2022-01-28-10:41:15.752458,7.0,0.0,344.0
2022-01-28-10:41:15.753455,11.0,1.0,344.0
2022-01-28-10:41:15.754591,11.0,1.0,344.0
2022-01-28-10:41:15.754591,11.0,1.0,344.0
2022-01-28-10:41:15.755618,11.0,1.0,344.0
2022-01-28-10:41:15.756613,11.0,1.0,344.0
2022-01-28-10:41:15.757871,3.0,11.0,344.0
2022-01-28-10:41:15.758028,1.0,9.0,344.0
2022-01-28-10:41:15.758028,1.0,9.0,344.0
2022-01-28-10:41:15.759053,1.0,9.0,344.0
2022-01-28-10:41:15.760053,1.0,9.0,344.0
2022-01-28-10:41:15.761047,3.0,4.0,344.0
2022-01-28-10:41:15.762043,1.0,8.0,344.0
2022-01-28-10:41:15.763045,5.0,9.0,344.0
2022-01-28-10:41:15.764041,5.0,9.0,344.0
2022-01-28-10:41:15.765036,2.0,4.0,344.0
2022-01-28-10:41:15.766034,7.0,15.0,343.0
2022-01-28-10:41:15.767037,8.0,19.0,343.0
2022-01-28-10:41:15.768215,8.0,19.0,343.0
2022-01-28-10:41:15.768215,11.0,7.0,344.0
2022-01-28-10:41:15.770212,11.0,3.0,344.0
2022-01-28-10:41:15.770212,11.0,3.0,344.0
2022-01-28-10:41:15.771353,11.0,3.0,344.0
2022-01-28-10:41:15.771353,11.0,3.0,344.0
2022-01-28-10:41:15.772400,11.0,3.0,344.0
2022-01-28-10:41:15.773400,7.0,1.0,344.0
2022-01-28-10:41:15.774394,8.0,2.0,344.0
2022-01-28-10:41:15.775390,1.0,5.0,344.0
2022-01-28-10:41:15.776561,0.0,6.0,344.0
2022-01-28-10:41:15.776561,3.0,10.0,343.0
2022-01-28-10:41:15.777594,3.0,10.0,343.0
2022-01-28-10:41:15.778558,1.0,11.0,344.0
2022-01-28-10:41:15.779655,1.0,11.0,344.0
2022-01-28-10:41:15.779655,1.0,11.0,344.0
2022-01-28-10:41:15.780704,1.0,11.0,344.0
2022-01-28-10:41:15.781712,6.0,2.0,344.0
2022-01-28-10:41:15.781712,7.0,15.0,344.0
2022-01-28-10:41:15.782744,7.0,15.0,344.0
2022-01-28-10:41:15.783743,7.0,15.0,344.0
2022-01-28-10:41:15.784739,7.0,15.0,344.0
2022-01-28-10:41:15.785737,8.0,3.0,344.0
2022-01-28-10:41:15.786736,12.0,0.0,343.0
2022-01-28-10:41:15.787732,12.0,0.0,343.0
2022-01-28-10:41:15.788696,12.0,0.0,343.0
2022-01-28-10:41:15.789727,8.0,1.0,344.0
2022-01-28-10:41:15.790839,1.0,16.0,344.0
2022-01-28-10:41:15.790839,1.0,16.0,344.0
2022-01-28-10:41:15.791887,1.0,16.0,344.0
2022-01-28-10:41:15.793066,1.0,16.0,344.0
2022-01-28-10:41:15.793066,2.0,10.0,343.0
2022-01-28-10:41:15.794098,2.0,10.0,343.0
2022-01-28-10:41:15.795064,0.0,9.0,344.0
2022-01-28-10:41:15.796110,0.0,9.0,344.0
2022-01-28-10:41:15.797279,0.0,9.0,344.0
2022-01-28-10:41:15.797279,5.0,8.0,343.0
2022-01-28-10:41:15.798333,8.0,2.0,344.0
2022-01-28-10:41:15.799329,6.0,1.0,344.0
2022-01-28-10:41:15.800330,6.0,1.0,344.0
2022-01-28-10:41:15.801328,6.0,1.0,344.0
2022-01-28-10:41:15.802321,8.0,2.0,344.0
2022-01-28-10:41:15.804308,13.0,5.0,344.0
2022-01-28-10:41:15.804308,13.0,0.0,343.0
2022-01-28-10:41:15.805306,10.0,2.0,344.0
2022-01-28-10:41:15.806340,4.0,8.0,344.0
2022-01-28-10:41:15.806340,1.0,12.0,344.0
2022-01-28-10:41:15.807394,1.0,12.0,344.0
2022-01-28-10:41:15.808394,1.0,12.0,344.0
2022-01-28-10:41:15.809388,1.0,12.0,344.0
2022-01-28-10:41:15.810592,0.0,8.0,344.0
2022-01-28-10:41:15.810592,3.0,12.0,344.0
2022-01-28-10:41:15.811645,1.0,6.0,343.0
2022-01-28-10:41:15.812643,1.0,6.0,343.0
2022-01-28-10:41:15.813642,1.0,6.0,343.0
2022-01-28-10:41:15.814683,2.0,1.0,344.0
2022-01-28-10:41:15.814683,3.0,2.0,344.0
2022-01-28-10:41:15.815733,7.0,2.0,344.0
2022-01-28-10:41:15.816728,7.0,2.0,344.0
2022-01-28-10:41:15.817725,7.0,2.0,344.0
2022-01-28-10:41:15.818725,4.0,0.0,343.0
2022-01-28-10:41:15.819701,6.0,1.0,343.0
2022-01-28-10:41:15.820719,6.0,1.0,343.0
2022-01-28-10:41:15.821714,6.0,1.0,343.0
2022-01-28-10:41:15.822664,12.0,17.0,344.0
2022-01-28-10:41:15.823708,2.0,10.0,344.0
2022-01-28-10:41:15.824705,2.0,10.0,344.0
2022-01-28-10:41:15.825704,2.0,10.0,344.0
2022-01-28-10:41:15.826703,0.0,0.0,344.0
2022-01-28-10:41:15.827698,3.0,4.0,343.0
2022-01-28-10:41:15.828676,3.0,4.0,343.0
2022-01-28-10:41:15.829854,3.0,4.0,343.0
2022-01-28-10:41:15.829854,2.0,3.0,343.0
2022-01-28-10:41:15.830909,5.0,0.0,343.0
2022-01-28-10:41:15.831905,2.0,7.0,344.0
2022-01-28-10:41:15.832903,2.0,7.0,344.0
2022-01-28-10:41:15.833900,2.0,7.0,344.0
2022-01-28-10:41:15.834903,3.0,2.0,344.0
2022-01-28-10:41:15.835842,7.0,5.0,344.0
2022-01-28-10:41:15.836895,11.0,19.0,344.0
2022-01-28-10:41:15.838866,11.0,19.0,344.0
2022-01-28-10:41:15.838866,1.0,22.0,344.0
2022-01-28-10:41:15.839979,2.0,35.0,344.0
2022-01-28-10:41:15.839979,2.0,35.0,344.0
2022-01-28-10:41:15.841004,2.0,35.0,344.0
2022-01-28-10:41:15.842222,2.0,35.0,344.0
2022-01-28-10:41:15.842222,2.0,31.0,344.0
2022-01-28-10:41:15.843277,0.0,1.0,344.0
2022-01-28-10:41:15.844276,1.0,10.0,344.0
2022-01-28-10:41:15.845217,1.0,10.0,344.0
2022-01-28-10:41:15.846304,1.0,10.0,344.0
2022-01-28-10:41:15.846783,2.0,24.0,343.0
2022-01-28-10:41:15.846783,5.0,3.0,344.0
2022-01-28-10:41:15.847837,5.0,3.0,344.0
2022-01-28-10:41:15.848834,5.0,3.0,344.0
2022-01-28-10:41:15.849836,5.0,3.0,344.0
2022-01-28-10:41:15.850832,5.0,3.0,344.0
2022-01-28-10:41:15.851807,8.0,1.0,343.0
2022-01-28-10:41:15.852802,10.0,2.0,343.0
2022-01-28-10:41:15.853808,14.0,4.0,343.0
2022-01-28-10:41:15.854797,14.0,4.0,343.0
2022-01-28-10:41:15.855790,3.0,10.0,343.0
2022-01-28-10:41:15.856784,3.0,10.0,343.0
2022-01-28-10:41:15.857781,3.0,10.0,343.0
2022-01-28-10:41:15.858779,3.0,10.0,343.0
2022-01-28-10:41:15.859779,2.0,16.0,344.0
2022-01-28-10:41:15.860819,5.0,2.0,343.0
2022-01-28-10:41:15.860819,4.0,4.0,343.0
2022-01-28-10:41:15.861843,4.0,4.0,343.0
2022-01-28-10:41:15.863008,4.0,4.0,343.0
2022-01-28-10:41:15.863008,2.0,2.0,344.0
2022-01-28-10:41:15.864057,8.0,6.0,344.0
2022-01-28-10:41:15.865056,7.0,3.0,344.0
2022-01-28-10:41:15.866051,7.0,3.0,344.0
2022-01-28-10:41:15.867027,7.0,3.0,344.0
2022-01-28-10:41:15.868024,10.0,2.0,344.0
2022-01-28-10:41:15.868994,8.0,0.0,343.0
2022-01-28-10:41:15.870000,8.0,0.0,343.0
2022-01-28-10:41:15.871021,8.0,0.0,343.0
2022-01-28-10:41:15.872013,13.0,1.0,344.0
2022-01-28-10:41:15.873010,6.0,6.0,343.0
2022-01-28-10:41:15.874007,4.0,3.0,343.0
2022-01-28-10:41:15.875976,4.0,3.0,343.0
2022-01-28-10:41:15.875976,1.0,11.0,343.0
2022-01-28-10:41:15.876997,1.0,5.0,344.0
2022-01-28-10:41:15.877996,1.0,5.0,344.0
2022-01-28-10:41:15.878969,1.0,5.0,344.0
2022-01-28-10:41:15.879966,0.0,1.0,343.0
2022-01-28-10:41:15.881013,5.0,3.0,343.0
2022-01-28-10:41:15.882008,5.0,2.0,343.0
2022-01-28-10:41:15.882957,5.0,2.0,343.0
2022-01-28-10:41:15.883955,3.0,5.0,344.0
2022-01-28-10:41:15.884952,13.0,2.0,343.0
2022-01-28-10:41:15.885949,13.0,2.0,343.0
2022-01-28-10:41:15.886946,13.0,2.0,343.0
2022-01-28-10:41:15.887970,13.0,4.0,344.0
2022-01-28-10:41:15.888965,4.0,13.0,343.0
2022-01-28-10:41:15.890036,4.0,13.0,343.0
2022-01-28-10:41:15.890036,4.0,13.0,343.0
2022-01-28-10:41:15.891254,4.0,13.0,343.0
2022-01-28-10:41:15.891254,2.0,15.0,344.0
2022-01-28-10:41:15.892283,2.0,15.0,344.0
2022-01-28-10:41:15.893275,3.0,7.0,344.0
2022-01-28-10:41:15.894273,3.0,7.0,344.0
2022-01-28-10:41:15.895250,3.0,7.0,344.0
2022-01-28-10:41:15.896269,7.0,6.0,343.0
2022-01-28-10:41:15.897268,7.0,6.0,343.0
2022-01-28-10:41:15.898264,7.0,6.0,343.0
2022-01-28-10:41:15.899389,7.0,6.0,343.0
2022-01-28-10:41:15.899389,7.0,3.0,344.0
2022-01-28-10:41:15.900415,11.0,11.0,344.0
2022-01-28-10:41:15.901416,9.0,8.0,343.0
2022-01-28-10:41:15.902409,9.0,8.0,343.0
2022-01-28-10:41:15.903538,9.0,8.0,343.0
2022-01-28-10:41:15.903538,10.0,0.0,343.0
2022-01-28-10:41:15.904565,9.0,13.0,343.0
2022-01-28-10:41:15.905562,3.0,15.0,343.0
2022-01-28-10:41:15.906558,3.0,15.0,343.0
2022-01-28-10:41:15.908602,3.0,15.0,343.0
2022-01-28-10:41:15.908602,1.0,11.0,344.0
2022-01-28-10:41:15.909624,0.0,11.0,343.0
2022-01-28-10:41:15.910623,0.0,11.0,343.0
2022-01-28-10:41:15.911618,0.0,11.0,343.0
2022-01-28-10:41:15.912591,2.0,9.0,344.0
2022-01-28-10:41:15.913659,4.0,3.0,343.0
2022-01-28-10:41:15.913659,4.0,3.0,343.0
2022-01-28-10:41:15.914714,4.0,3.0,343.0
2022-01-28-10:41:15.915713,4.0,3.0,343.0
2022-01-28-10:41:15.916709,4.0,8.0,344.0
2022-01-28-10:41:15.917707,8.0,17.0,344.0
2022-01-28-10:41:15.918704,6.0,25.0,344.0
2022-01-28-10:41:15.919694,6.0,25.0,344.0
2022-01-28-10:41:15.920899,7.0,17.0,343.0
2022-01-28-10:41:15.920899,8.0,14.0,344.0
2022-01-28-10:41:15.921954,6.0,12.0,344.0
2022-01-28-10:41:15.922955,6.0,12.0,344.0
2022-01-28-10:41:15.923949,6.0,12.0,344.0
2022-01-28-10:41:15.924927,3.0,17.0,343.0
2022-01-28-10:41:15.925943,2.0,14.0,343.0
2022-01-28-10:41:15.926942,2.0,14.0,343.0
2022-01-28-10:41:15.927883,2.0,14.0,343.0
2022-01-28-10:41:15.928888,1.0,24.0,343.0
2022-01-28-10:41:15.929879,2.0,23.0,344.0
2022-01-28-10:41:15.930905,0.0,8.0,344.0
2022-01-28-10:41:15.931873,0.0,8.0,344.0
2022-01-28-10:41:15.932903,1.0,7.0,343.0
2022-01-28-10:41:15.933893,8.0,2.0,343.0
2022-01-28-10:41:15.934890,6.0,5.0,344.0
2022-01-28-10:41:15.935888,6.0,5.0,344.0
2022-01-28-10:41:15.936885,6.0,5.0,344.0
2022-01-28-10:41:15.937883,8.0,4.0,343.0
2022-01-28-10:41:15.938883,8.0,3.0,344.0
2022-01-28-10:41:15.939877,8.0,3.0,344.0
2022-01-28-10:41:15.941171,8.0,3.0,344.0
2022-01-28-10:41:15.941171,1.0,5.0,344.0
2022-01-28-10:41:15.943168,1.0,5.0,344.0
2022-01-28-10:41:15.943168,1.0,5.0,344.0
2022-01-28-10:41:15.944176,1.0,5.0,344.0
2022-01-28-10:41:15.945164,1.0,8.0,344.0
2022-01-28-10:41:15.946208,1.0,8.0,344.0
2022-01-28-10:41:15.947273,7.0,2.0,344.0
2022-01-28-10:41:15.947273,7.0,2.0,344.0
2022-01-28-10:41:15.948460,7.0,2.0,344.0
2022-01-28-10:41:15.948460,6.0,12.0,344.0
2022-01-28-10:41:15.949488,5.0,1.0,343.0
2022-01-28-10:41:15.950529,5.0,1.0,343.0
2022-01-28-10:41:15.950529,5.0,1.0,343.0
2022-01-28-10:41:15.951555,5.0,1.0,343.0
2022-01-28-10:41:15.952712,5.0,1.0,343.0
2022-01-28-10:41:15.952712,6.0,5.0,344.0
2022-01-28-10:41:15.953738,5.0,13.0,344.0
2022-01-28-10:41:15.954782,8.0,13.0,344.0
2022-01-28-10:41:15.954782,8.0,13.0,344.0
2022-01-28-10:41:15.955809,8.0,13.0,344.0
2022-01-28-10:41:15.957144,8.0,13.0,344.0
2022-01-28-10:41:15.957144,1.0,7.0,344.0
2022-01-28-10:41:15.958170,1.0,16.0,343.0
2022-01-28-10:41:15.959192,1.0,16.0,343.0
2022-01-28-10:41:15.960165,1.0,16.0,343.0
2022-01-28-10:41:15.961183,1.0,16.0,343.0
2022-01-28-10:41:15.962135,5.0,14.0,343.0
2022-01-28-10:41:15.963176,2.0,8.0,343.0
2022-01-28-10:41:15.964227,2.0,8.0,343.0
2022-01-28-10:41:15.964227,2.0,8.0,343.0
2022-01-28-10:41:15.965274,2.0,8.0,343.0
2022-01-28-10:41:15.966452,5.0,5.0,344.0
2022-01-28-10:41:15.966452,6.0,5.0,343.0
2022-01-28-10:41:15.967498,7.0,5.0,344.0
2022-01-28-10:41:15.968542,7.0,5.0,344.0
2022-01-28-10:41:15.968542,7.0,5.0,344.0
2022-01-28-10:41:15.969784,7.0,5.0,344.0
2022-01-28-10:41:15.969784,10.0,4.0,343.0
2022-01-28-10:41:15.970831,8.0,1.0,343.0
2022-01-28-10:41:15.971828,11.0,6.0,344.0
2022-01-28-10:41:15.972831,11.0,6.0,344.0
2022-01-28-10:41:15.973822,9.0,14.0,344.0
2022-01-28-10:41:15.975818,0.0,15.0,344.0
2022-01-28-10:41:15.975818,0.0,15.0,344.0
2022-01-28-10:41:15.976814,0.0,15.0,344.0
2022-01-28-10:41:15.977865,0.0,15.0,344.0
2022-01-28-10:41:15.977865,2.0,7.0,344.0
2022-01-28-10:41:15.978911,2.0,7.0,344.0
2022-01-28-10:41:15.979888,2.0,7.0,344.0
2022-01-28-10:41:15.980859,2.0,7.0,344.0
2022-01-28-10:41:15.981903,2.0,7.0,344.0
2022-01-28-10:41:15.983066,7.0,9.0,344.0
2022-01-28-10:41:15.983204,8.0,11.0,343.0
2022-01-28-10:41:15.983204,8.0,11.0,343.0
2022-01-28-10:41:15.984250,8.0,11.0,343.0
2022-01-28-10:41:15.985230,8.0,11.0,343.0
2022-01-28-10:41:15.986245,12.0,6.0,343.0
2022-01-28-10:41:15.987248,11.0,11.0,344.0
2022-01-28-10:41:15.988239,11.0,4.0,343.0
2022-01-28-10:41:15.989226,11.0,4.0,343.0
2022-01-28-10:41:15.990234,6.0,15.0,344.0
2022-01-28-10:41:15.991190,1.0,14.0,343.0
2022-01-28-10:41:15.992229,1.0,14.0,343.0
2022-01-28-10:41:15.993231,1.0,14.0,343.0
2022-01-28-10:41:15.994177,4.0,5.0,344.0
2022-01-28-10:41:15.995200,4.0,9.0,343.0
2022-01-28-10:41:15.996212,4.0,9.0,343.0
2022-01-28-10:41:15.997215,4.0,9.0,343.0
2022-01-28-10:41:15.998212,4.0,9.0,343.0
2022-01-28-10:41:15.999211,0.0,14.0,344.0
2022-01-28-10:41:16.000416,3.0,8.0,343.0
2022-01-28-10:41:16.000570,4.0,10.0,344.0
2022-01-28-10:41:16.000570,4.0,10.0,344.0
2022-01-28-10:41:16.001743,4.0,10.0,344.0
2022-01-28-10:41:16.001743,5.0,4.0,343.0
2022-01-28-10:41:16.002798,7.0,23.0,343.0
2022-01-28-10:41:16.003841,9.0,31.0,344.0
2022-01-28-10:41:16.003841,9.0,31.0,344.0
2022-01-28-10:41:16.004887,9.0,31.0,344.0
2022-01-28-10:41:16.005885,9.0,31.0,344.0
2022-01-28-10:41:16.006835,10.0,28.0,344.0
2022-01-28-10:41:16.007879,2.0,13.0,343.0
2022-01-28-10:41:16.009856,2.0,13.0,343.0
2022-01-28-10:41:16.009856,2.0,13.0,343.0
2022-01-28-10:41:16.010919,4.0,3.0,344.0
2022-01-28-10:41:16.010919,4.0,3.0,344.0
2022-01-28-10:41:16.011946,4.0,3.0,344.0
2022-01-28-10:41:16.012947,4.0,3.0,344.0
2022-01-28-10:41:16.014094,4.0,3.0,344.0
2022-01-28-10:41:16.014094,0.0,6.0,343.0
2022-01-28-10:41:16.015149,5.0,2.0,344.0
2022-01-28-10:41:16.016146,9.0,2.0,343.0
2022-01-28-10:41:16.017143,9.0,2.0,343.0
2022-01-28-10:41:16.018143,9.0,2.0,343.0
2022-01-28-10:41:16.019138,5.0,3.0,343.0
2022-01-28-10:41:16.020135,9.0,2.0,344.0
2022-01-28-10:41:16.021132,12.0,4.0,343.0
2022-01-28-10:41:16.022098,12.0,4.0,343.0
2022-01-28-10:41:16.023127,11.0,0.0,344.0
2022-01-28-10:41:16.024124,5.0,8.0,344.0
2022-01-28-10:41:16.025123,1.0,9.0,344.0
2022-01-28-10:41:16.026130,1.0,9.0,344.0
2022-01-28-10:41:16.027095,2.0,8.0,344.0
2022-01-28-10:41:16.028114,3.0,1.0,344.0
2022-01-28-10:41:16.029057,3.0,1.0,344.0
2022-01-28-10:41:16.030108,3.0,1.0,344.0
2022-01-28-10:41:16.031106,3.0,1.0,344.0
2022-01-28-10:41:16.032103,5.0,10.0,344.0
2022-01-28-10:41:16.033100,8.0,9.0,343.0
2022-01-28-10:41:16.034100,5.0,10.0,344.0
2022-01-28-10:41:16.035096,5.0,10.0,344.0
2022-01-28-10:41:16.036092,8.0,6.0,344.0
2022-01-28-10:41:16.037089,14.0,13.0,343.0
2022-01-28-10:41:16.038087,14.0,13.0,343.0
2022-01-28-10:41:16.039084,14.0,13.0,343.0
2022-01-28-10:41:16.040082,9.0,3.0,343.0
2022-01-28-10:41:16.041079,6.0,27.0,344.0
2022-01-28-10:41:16.042079,0.0,23.0,344.0
2022-01-28-10:41:16.043074,0.0,23.0,344.0
2022-01-28-10:41:16.044071,2.0,19.0,344.0
2022-01-28-10:41:16.046065,4.0,3.0,343.0
2022-01-28-10:41:16.046065,3.0,7.0,343.0
2022-01-28-10:41:16.047043,4.0,3.0,344.0
2022-01-28-10:41:16.048052,3.0,1.0,343.0
2022-01-28-10:41:16.049049,2.0,2.0,343.0
2022-01-28-10:41:16.050049,2.0,2.0,343.0
2022-01-28-10:41:16.051045,2.0,2.0,343.0
2022-01-28-10:41:16.052042,5.0,12.0,343.0
2022-01-28-10:41:16.053309,12.0,0.0,343.0
2022-01-28-10:41:16.053309,11.0,1.0,344.0
2022-01-28-10:41:16.054344,11.0,1.0,344.0
2022-01-28-10:41:16.055337,11.0,1.0,344.0
2022-01-28-10:41:16.056337,9.0,4.0,344.0
2022-01-28-10:41:16.057443,2.0,14.0,343.0
2022-01-28-10:41:16.057443,2.0,14.0,343.0
2022-01-28-10:41:16.058489,2.0,14.0,343.0
2022-01-28-10:41:16.059607,2.0,14.0,343.0
2022-01-28-10:41:16.059607,1.0,14.0,344.0
2022-01-28-10:41:16.061181,1.0,14.0,344.0
2022-01-28-10:41:16.061181,1.0,9.0,344.0
2022-01-28-10:41:16.062181,1.0,9.0,344.0
2022-01-28-10:41:16.063225,1.0,9.0,344.0
2022-01-28-10:41:16.064223,3.0,7.0,343.0
2022-01-28-10:41:16.065219,4.0,2.0,344.0
2022-01-28-10:41:16.066220,4.0,1.0,343.0
2022-01-28-10:41:16.067217,4.0,1.0,343.0
2022-01-28-10:41:16.068459,5.0,6.0,343.0
2022-01-28-10:41:16.068459,7.0,4.0,343.0
2022-01-28-10:41:16.069517,11.0,4.0,343.0
2022-01-28-10:41:16.070512,11.0,4.0,343.0
2022-01-28-10:41:16.071509,11.0,4.0,343.0
2022-01-28-10:41:16.072549,10.0,2.0,344.0
2022-01-28-10:41:16.073007,5.0,10.0,343.0
2022-01-28-10:41:16.073007,1.0,12.0,344.0
2022-01-28-10:41:16.074061,1.0,12.0,344.0
2022-01-28-10:41:16.075061,1.0,12.0,344.0
2022-01-28-10:41:16.076057,1.0,12.0,344.0
2022-01-28-10:41:16.077055,1.0,12.0,344.0
2022-01-28-10:41:16.078054,1.0,7.0,344.0
2022-01-28-10:41:16.079990,3.0,11.0,344.0
2022-01-28-10:41:16.079990,5.0,4.0,344.0
2022-01-28-10:41:16.081019,5.0,4.0,344.0
2022-01-28-10:41:16.082073,5.0,4.0,344.0
2022-01-28-10:41:16.082073,5.0,4.0,344.0
2022-01-28-10:41:16.083119,5.0,4.0,344.0
2022-01-28-10:41:16.084368,5.0,4.0,344.0
2022-01-28-10:41:16.084368,5.0,2.0,344.0
2022-01-28-10:41:16.085400,5.0,2.0,344.0
2022-01-28-10:41:16.086509,11.0,5.0,344.0
2022-01-28-10:41:16.086509,11.0,5.0,344.0
2022-01-28-10:41:16.087562,11.0,5.0,344.0
2022-01-28-10:41:16.088538,11.0,9.0,344.0
2022-01-28-10:41:16.089538,6.0,2.0,343.0
2022-01-28-10:41:16.090532,6.0,2.0,343.0
2022-01-28-10:41:16.091529,6.0,2.0,343.0
2022-01-28-10:41:16.092531,1.0,6.0,344.0
2022-01-28-10:41:16.093525,2.0,13.0,344.0
2022-01-28-10:41:16.094524,2.0,13.0,344.0
2022-01-28-10:41:16.095519,2.0,13.0,344.0
2022-01-28-10:41:16.096545,3.0,19.0,344.0
2022-01-28-10:41:16.096545,3.0,17.0,343.0
2022-01-28-10:41:16.097545,3.0,17.0,343.0
2022-01-28-10:41:16.098578,6.0,6.0,343.0
2022-01-28-10:41:16.099571,6.0,6.0,343.0
2022-01-28-10:41:16.100570,6.0,6.0,343.0
2022-01-28-10:41:16.101576,3.0,8.0,344.0
2022-01-28-10:41:16.102563,7.0,1.0,344.0
2022-01-28-10:41:16.103561,7.0,8.0,343.0
2022-01-28-10:41:16.104753,7.0,8.0,343.0
2022-01-28-10:41:16.104753,9.0,3.0,343.0
2022-01-28-10:41:16.105787,9.0,3.0,343.0
2022-01-28-10:41:16.106782,2.0,3.0,343.0
2022-01-28-10:41:16.107779,2.0,3.0,343.0
2022-01-28-10:41:16.108946,2.0,3.0,343.0
2022-01-28-10:41:16.108946,0.0,8.0,343.0
2022-01-28-10:41:16.109976,0.0,8.0,343.0
2022-01-28-10:41:16.110975,2.0,0.0,343.0
2022-01-28-10:41:16.112973,2.0,0.0,343.0
2022-01-28-10:41:16.112973,3.0,7.0,343.0
2022-01-28-10:41:16.113993,6.0,8.0,343.0
2022-01-28-10:41:16.114988,6.0,8.0,343.0
2022-01-28-10:41:16.115985,6.0,8.0,343.0
2022-01-28-10:41:16.116984,6.0,8.0,343.0
2022-01-28-10:41:16.118031,4.0,0.0,343.0
2022-01-28-10:41:16.118474,10.0,4.0,344.0
2022-01-28-10:41:16.118611,14.0,2.0,344.0
2022-01-28-10:41:16.118611,14.0,2.0,344.0
2022-01-28-10:41:16.119659,14.0,2.0,344.0
2022-01-28-10:41:16.120820,14.0,2.0,344.0
2022-01-28-10:41:16.120820,11.0,1.0,343.0
2022-01-28-10:41:16.121878,4.0,2.0,344.0
2022-01-28-10:41:16.122920,4.0,4.0,344.0
2022-01-28-10:41:16.122920,4.0,4.0,344.0
2022-01-28-10:41:16.123968,4.0,4.0,344.0
2022-01-28-10:41:16.124967,4.0,4.0,344.0
2022-01-28-10:41:16.125961,3.0,12.0,344.0
2022-01-28-10:41:16.126959,1.0,3.0,344.0
2022-01-28-10:41:16.127959,1.0,2.0,343.0
2022-01-28-10:41:16.128907,1.0,2.0,343.0
2022-01-28-10:41:16.129930,2.0,8.0,343.0
2022-01-28-10:41:16.130901,4.0,12.0,344.0
2022-01-28-10:41:16.131898,4.0,12.0,344.0
2022-01-28-10:41:16.133103,4.0,12.0,344.0
2022-01-28-10:41:16.133103,5.0,11.0,343.0
2022-01-28-10:41:16.134136,8.0,5.0,343.0
2022-01-28-10:41:16.135133,11.0,5.0,344.0
2022-01-28-10:41:16.136131,11.0,5.0,344.0
2022-01-28-10:41:16.137276,11.0,5.0,344.0
2022-01-28-10:41:16.137276,9.0,8.0,343.0
2022-01-28-10:41:16.138301,9.0,2.0,343.0
2022-01-28-10:41:16.139304,4.0,2.0,343.0
2022-01-28-10:41:16.140297,4.0,2.0,343.0
2022-01-28-10:41:16.141440,4.0,2.0,343.0
2022-01-28-10:41:16.141440,4.0,7.0,343.0
2022-01-28-10:41:16.142465,4.0,5.0,344.0
2022-01-28-10:41:16.143469,2.0,9.0,343.0
2022-01-28-10:41:16.144459,2.0,9.0,343.0
2022-01-28-10:41:16.145433,2.0,9.0,343.0
2022-01-28-10:41:16.147452,3.0,6.0,343.0
2022-01-28-10:41:16.148177,4.0,7.0,344.0
2022-01-28-10:41:16.148177,7.0,5.0,344.0
2022-01-28-10:41:16.149203,7.0,5.0,344.0
2022-01-28-10:41:16.150202,4.0,3.0,344.0
2022-01-28-10:41:16.151369,8.0,0.0,344.0
2022-01-28-10:41:16.151507,9.0,10.0,343.0
2022-01-28-10:41:16.151507,9.0,10.0,343.0
2022-01-28-10:41:16.152533,9.0,10.0,343.0
2022-01-28-10:41:16.153530,9.0,10.0,343.0
2022-01-28-10:41:16.154527,10.0,6.0,343.0
2022-01-28-10:41:16.155524,8.0,13.0,343.0
2022-01-28-10:41:16.156525,5.0,13.0,344.0
2022-01-28-10:41:16.157520,5.0,13.0,344.0
2022-01-28-10:41:16.158518,5.0,20.0,344.0
2022-01-28-10:41:16.159514,1.0,15.0,344.0
2022-01-28-10:41:16.160512,1.0,10.0,344.0
2022-01-28-10:41:16.161510,1.0,10.0,344.0
2022-01-28-10:41:16.162480,1.0,6.0,344.0
2022-01-28-10:41:16.163508,2.0,0.0,344.0
2022-01-28-10:41:16.164503,2.0,0.0,344.0
2022-01-28-10:41:16.165498,2.0,0.0,344.0
2022-01-28-10:41:16.166678,4.0,2.0,344.0
2022-01-28-10:41:16.166678,4.0,1.0,344.0
2022-01-28-10:41:16.167803,12.0,4.0,344.0
2022-01-28-10:41:16.167803,12.0,4.0,344.0
2022-01-28-10:41:16.168829,12.0,4.0,344.0
2022-01-28-10:41:16.170002,12.0,4.0,344.0
2022-01-28-10:41:16.170002,12.0,0.0,343.0
2022-01-28-10:41:16.171039,12.0,7.0,344.0
2022-01-28-10:41:16.172033,9.0,0.0,343.0
2022-01-28-10:41:16.173030,9.0,0.0,343.0
2022-01-28-10:41:16.174174,9.0,0.0,343.0
2022-01-28-10:41:16.174174,2.0,11.0,344.0
2022-01-28-10:41:16.175207,1.0,11.0,344.0
2022-01-28-10:41:16.176204,1.0,16.0,344.0
2022-01-28-10:41:16.177201,1.0,16.0,344.0
2022-01-28-10:41:16.178199,1.0,16.0,344.0
2022-01-28-10:41:16.179162,0.0,9.0,344.0
2022-01-28-10:41:16.180160,3.0,4.0,343.0
2022-01-28-10:41:16.181186,3.0,4.0,343.0
2022-01-28-10:41:16.182181,3.0,4.0,343.0
2022-01-28-10:41:16.184175,9.0,17.0,344.0
2022-01-28-10:41:16.185147,7.0,2.0,343.0
2022-01-28-10:41:16.185147,7.0,2.0,343.0
2022-01-28-10:41:16.186170,7.0,2.0,343.0
2022-01-28-10:41:16.187172,7.0,8.0,343.0
2022-01-28-10:41:16.188165,11.0,12.0,343.0
2022-01-28-10:41:16.189165,10.0,5.0,344.0
2022-01-28-10:41:16.190162,10.0,5.0,344.0
2022-01-28-10:41:16.191177,6.0,8.0,344.0
2022-01-28-10:41:16.192175,1.0,18.0,344.0
2022-01-28-10:41:16.193172,2.0,15.0,344.0
2022-01-28-10:41:16.194122,2.0,15.0,344.0
2022-01-28-10:41:16.195120,2.0,11.0,343.0
2022-01-28-10:41:16.196117,3.0,10.0,344.0
2022-01-28-10:41:16.197144,4.0,8.0,343.0
2022-01-28-10:41:16.198125,4.0,8.0,343.0
2022-01-28-10:41:16.199135,7.0,6.0,344.0
2022-01-28-10:41:16.200132,10.0,10.0,344.0
2022-01-28-10:41:16.201104,10.0,10.0,344.0
2022-01-28-10:41:16.202101,10.0,10.0,344.0
2022-01-28-10:41:16.203125,11.0,10.0,344.0
2022-01-28-10:41:16.204226,8.0,22.0,344.0
2022-01-28-10:41:16.204226,8.0,22.0,344.0
2022-01-28-10:41:16.205289,8.0,22.0,344.0
2022-01-28-10:41:16.206272,8.0,22.0,344.0
2022-01-28-10:41:16.207269,8.0,22.0,344.0
2022-01-28-10:41:16.208270,4.0,13.0,344.0
2022-01-28-10:41:16.209264,3.0,15.0,344.0
2022-01-28-10:41:16.210265,2.0,16.0,343.0
2022-01-28-10:41:16.211259,2.0,19.0,344.0
2022-01-28-10:41:16.212207,1.0,27.0,344.0
2022-01-28-10:41:16.213263,2.0,8.0,344.0
2022-01-28-10:41:16.213263,2.0,8.0,344.0
2022-01-28-10:41:16.215288,2.0,8.0,344.0
2022-01-28-10:41:16.215288,3.0,13.0,343.0
2022-01-28-10:41:16.216286,1.0,4.0,344.0
2022-01-28-10:41:16.217282,1.0,4.0,344.0
2022-01-28-10:41:16.218279,1.0,4.0,344.0
2022-01-28-10:41:16.219277,1.0,4.0,344.0
2022-01-28-10:41:16.220274,9.0,8.0,343.0
2022-01-28-10:41:16.221270,7.0,10.0,344.0
2022-01-28-10:41:16.222269,9.0,0.0,343.0
2022-01-28-10:41:16.223265,9.0,0.0,343.0
2022-01-28-10:41:16.224265,9.0,6.0,344.0
2022-01-28-10:41:16.225261,3.0,14.0,344.0
2022-01-28-10:41:16.226356,4.0,12.0,344.0
2022-01-28-10:41:16.226356,4.0,12.0,344.0
2022-01-28-10:41:16.227529,4.0,12.0,344.0
2022-01-28-10:41:16.227529,1.0,9.0,344.0
2022-01-28-10:41:16.228555,2.0,6.0,343.0
2022-01-28-10:41:16.229526,2.0,6.0,344.0
2022-01-28-10:41:16.230553,2.0,6.0,344.0
2022-01-28-10:41:16.231521,3.0,4.0,344.0
2022-01-28-10:41:16.231521,6.0,0.0,344.0
2022-01-28-10:41:16.232552,6.0,0.0,344.0
2022-01-28-10:41:16.233541,6.0,0.0,344.0
2022-01-28-10:41:16.234538,6.0,0.0,344.0
2022-01-28-10:41:16.235536,6.0,0.0,344.0
2022-01-28-10:41:16.236533,11.0,7.0,344.0
2022-01-28-10:41:16.237531,10.0,2.0,343.0
2022-01-28-10:41:16.238577,11.0,8.0,343.0
2022-01-28-10:41:16.238577,11.0,8.0,343.0
2022-01-28-10:41:16.239604,11.0,8.0,343.0
2022-01-28-10:41:16.240600,9.0,13.0,344.0
2022-01-28-10:41:16.241597,4.0,21.0,344.0
2022-01-28-10:41:16.242594,1.0,3.0,344.0
2022-01-28-10:41:16.243747,1.0,3.0,344.0
2022-01-28-10:41:16.243747,2.0,7.0,344.0
2022-01-28-10:41:16.244774,2.0,7.0,344.0
2022-01-28-10:41:16.245746,5.0,19.0,344.0
2022-01-28-10:41:16.246768,5.0,19.0,344.0
2022-01-28-10:41:16.248737,5.0,19.0,344.0
2022-01-28-10:41:16.248737,7.0,8.0,344.0
2022-01-28-10:41:16.249735,7.0,8.0,344.0
2022-01-28-10:41:16.250779,7.0,8.0,344.0
2022-01-28-10:41:16.251926,7.0,8.0,344.0
2022-01-28-10:41:16.251926,8.0,6.0,343.0
2022-01-28-10:41:16.252973,13.0,16.0,344.0
2022-01-28-10:41:16.253970,13.0,18.0,343.0
2022-01-28-10:41:16.254967,13.0,18.0,343.0
2022-01-28-10:41:16.255967,13.0,18.0,343.0
2022-01-28-10:41:16.256963,13.0,18.0,343.0
2022-01-28-10:41:16.257959,6.0,14.0,344.0
2022-01-28-10:41:16.258958,1.0,8.0,344.0
2022-01-28-10:41:16.259954,1.0,8.0,344.0
2022-01-28-10:41:16.261001,0.0,1.0,344.0
2022-01-28-10:41:16.261001,2.0,9.0,344.0
2022-01-28-10:41:16.262027,2.0,9.0,344.0
2022-01-28-10:41:16.263024,2.0,9.0,344.0
2022-01-28-10:41:16.264022,2.0,9.0,344.0
2022-01-28-10:41:16.265039,7.0,8.0,343.0
2022-01-28-10:41:16.266036,7.0,1.0,344.0
2022-01-28-10:41:16.267033,7.0,1.0,344.0
2022-01-28-10:41:16.268033,7.0,1.0,344.0
2022-01-28-10:41:16.269028,3.0,5.0,344.0
2022-01-28-10:41:16.270025,10.0,1.0,343.0
2022-01-28-10:41:16.271028,9.0,10.0,344.0
2022-01-28-10:41:16.272022,9.0,10.0,344.0
2022-01-28-10:41:16.272970,9.0,1.0,343.0
2022-01-28-10:41:16.273967,4.0,3.0,344.0
2022-01-28-10:41:16.274991,1.0,2.0,344.0
2022-01-28-10:41:16.276172,1.0,2.0,344.0
2022-01-28-10:41:16.276172,3.0,2.0,344.0
2022-01-28-10:41:16.277227,2.0,5.0,344.0
2022-01-28-10:41:16.278226,1.0,7.0,343.0
2022-01-28-10:41:16.279167,1.0,7.0,343.0
2022-01-28-10:41:16.280164,1.0,7.0,343.0
2022-01-28-10:41:16.281215,5.0,7.0,344.0
2022-01-28-10:41:16.282214,3.0,7.0,344.0
2022-01-28-10:41:16.283252,8.0,18.0,344.0
2022-01-28-10:41:16.284276,8.0,18.0,344.0
2022-01-28-10:41:16.284276,11.0,6.0,344.0
2022-01-28-10:41:16.285249,7.0,9.0,343.0
2022-01-28-10:41:16.286272,7.0,9.0,343.0
2022-01-28-10:41:16.287268,7.0,9.0,343.0
2022-01-28-10:41:16.288282,7.0,9.0,343.0
2022-01-28-10:41:16.288282,8.0,1.0,344.0
2022-01-28-10:41:16.289437,3.0,18.0,343.0
2022-01-28-10:41:16.289437,3.0,18.0,343.0
2022-01-28-10:41:16.290461,3.0,18.0,343.0
2022-01-28-10:41:16.291458,3.0,18.0,343.0
2022-01-28-10:41:16.292629,3.0,18.0,343.0
2022-01-28-10:41:16.292629,2.0,8.0,343.0
2022-01-28-10:41:16.293684,0.0,2.0,344.0
2022-01-28-10:41:16.294680,0.0,9.0,344.0
2022-01-28-10:41:16.295624,0.0,9.0,344.0
2022-01-28-10:41:16.296622,0.0,9.0,344.0
2022-01-28-10:41:16.297618,5.0,9.0,344.0
2022-01-28-10:41:16.298671,5.0,5.0,344.0
2022-01-28-10:41:16.299716,3.0,3.0,344.0
2022-01-28-10:41:16.299716,3.0,3.0,344.0
2022-01-28-10:41:16.300921,3.0,3.0,344.0
2022-01-28-10:41:16.300921,6.0,11.0,344.0
2022-01-28-10:41:16.301977,8.0,4.0,344.0
2022-01-28-10:41:16.302973,11.0,7.0,343.0
2022-01-28-10:41:16.303971,11.0,7.0,343.0
2022-01-28-10:41:16.304968,11.0,7.0,343.0
2022-01-28-10:41:16.305967,10.0,6.0,343.0
2022-01-28-10:41:16.306961,7.0,9.0,344.0
2022-01-28-10:41:16.307959,2.0,13.0,344.0
2022-01-28-10:41:16.308902,2.0,13.0,344.0
2022-01-28-10:41:16.309996,0.0,10.0,344.0
2022-01-28-10:41:16.309996,2.0,3.0,344.0
2022-01-28-10:41:16.311019,5.0,3.0,344.0
2022-01-28-10:41:16.312026,5.0,3.0,344.0
2022-01-28-10:41:16.313019,5.0,3.0,344.0
2022-01-28-10:41:16.314011,3.0,2.0,343.0
2022-01-28-10:41:16.315010,4.0,15.0,343.0
2022-01-28-10:41:16.316011,5.0,12.0,344.0
2022-01-28-10:41:16.317007,5.0,12.0,344.0
2022-01-28-10:41:16.318973,9.0,13.0,343.0
2022-01-28-10:41:16.318973,9.0,12.0,344.0
2022-01-28-10:41:16.319971,9.0,12.0,344.0
2022-01-28-10:41:16.320968,9.0,12.0,344.0
2022-01-28-10:41:16.321965,8.0,14.0,344.0
2022-01-28-10:41:16.322996,7.0,7.0,344.0
2022-01-28-10:41:16.323997,9.0,11.0,344.0
2022-01-28-10:41:16.324991,9.0,11.0,344.0
2022-01-28-10:41:16.325987,9.0,11.0,344.0
2022-01-28-10:41:16.326984,1.0,10.0,343.0
2022-01-28-10:41:16.327984,4.0,8.0,344.0
2022-01-28-10:41:16.328948,4.0,8.0,344.0
2022-01-28-10:41:16.329945,4.0,8.0,344.0
2022-01-28-10:41:16.330983,0.0,3.0,343.0
2022-01-28-10:41:16.331968,7.0,1.0,343.0
2022-01-28-10:41:16.332962,6.0,2.0,344.0
2022-01-28-10:41:16.333962,6.0,2.0,344.0
2022-01-28-10:41:16.334931,7.0,6.0,343.0
2022-01-28-10:41:16.335928,7.0,1.0,344.0
2022-01-28-10:41:16.336953,11.0,2.0,344.0
2022-01-28-10:41:16.338162,11.0,2.0,344.0
2022-01-28-10:41:16.338162,14.0,5.0,344.0
2022-01-28-10:41:16.339217,2.0,14.0,343.0
2022-01-28-10:41:16.340213,2.0,16.0,344.0
2022-01-28-10:41:16.341214,2.0,16.0,344.0
2022-01-28-10:41:16.342383,2.0,16.0,344.0
2022-01-28-10:41:16.342383,1.0,12.0,344.0
2022-01-28-10:41:16.343437,3.0,2.0,344.0
2022-01-28-10:41:16.344435,4.0,5.0,344.0
2022-01-28-10:41:16.345434,4.0,5.0,344.0
2022-01-28-10:41:16.346433,4.0,5.0,344.0
2022-01-28-10:41:16.347426,4.0,5.0,344.0
2022-01-28-10:41:16.348425,4.0,5.0,344.0
2022-01-28-10:41:16.349420,4.0,5.0,344.0
2022-01-28-10:41:16.350418,4.0,5.0,344.0
2022-01-28-10:41:16.352359,6.0,12.0,344.0
2022-01-28-10:41:16.352359,10.0,17.0,343.0
2022-01-28-10:41:16.353410,9.0,2.0,344.0
2022-01-28-10:41:16.354412,9.0,2.0,344.0
2022-01-28-10:41:16.355404,8.0,8.0,343.0
2022-01-28-10:41:16.356404,4.0,20.0,343.0
2022-01-28-10:41:16.357399,4.0,20.0,343.0
2022-01-28-10:41:16.358397,4.0,20.0,343.0
2022-01-28-10:41:16.359394,0.0,19.0,343.0
2022-01-28-10:41:16.360483,1.0,8.0,343.0
2022-01-28-10:41:16.360483,1.0,8.0,343.0
2022-01-28-10:41:16.361543,1.0,8.0,343.0
2022-01-28-10:41:16.362540,1.0,8.0,343.0
2022-01-28-10:41:16.363532,0.0,0.0,344.0
2022-01-28-10:41:16.364531,5.0,5.0,343.0
2022-01-28-10:41:16.365527,6.0,1.0,344.0
2022-01-28-10:41:16.366529,6.0,1.0,344.0
2022-01-28-10:41:16.367522,8.0,11.0,344.0
2022-01-28-10:41:16.368521,6.0,3.0,344.0
2022-01-28-10:41:16.369673,6.0,3.0,344.0
2022-01-28-10:41:16.369673,10.0,4.0,343.0
2022-01-28-10:41:16.370728,10.0,4.0,343.0
2022-01-28-10:41:16.371724,14.0,2.0,343.0
2022-01-28-10:41:16.372721,11.0,14.0,343.0
2022-01-28-10:41:16.373764,9.0,7.0,344.0
2022-01-28-10:41:16.373764,9.0,7.0,344.0
2022-01-28-10:41:16.374970,9.0,7.0,344.0
2022-01-28-10:41:16.374970,1.0,3.0,343.0
2022-01-28-10:41:16.376025,1.0,2.0,344.0
2022-01-28-10:41:16.377024,2.0,13.0,344.0
2022-01-28-10:41:16.378063,2.0,13.0,344.0
2022-01-28-10:41:16.378063,2.0,13.0,344.0
2022-01-28-10:41:16.379350,2.0,13.0,344.0
2022-01-28-10:41:16.379350,3.0,7.0,344.0
2022-01-28-10:41:16.380404,4.0,21.0,344.0
2022-01-28-10:41:16.381401,3.0,10.0,343.0
2022-01-28-10:41:16.382400,3.0,10.0,343.0
2022-01-28-10:41:16.383398,3.0,10.0,343.0
2022-01-28-10:41:16.385337,6.0,8.0,343.0
2022-01-28-10:41:16.385337,13.0,4.0,343.0
2022-01-28-10:41:16.386388,13.0,4.0,343.0
2022-01-28-10:41:16.387387,13.0,4.0,343.0
2022-01-28-10:41:16.388427,7.0,10.0,343.0
2022-01-28-10:41:16.388427,9.0,13.0,343.0
2022-01-28-10:41:16.389451,9.0,13.0,343.0
2022-01-28-10:41:16.390448,9.0,13.0,343.0
2022-01-28-10:41:16.391448,9.0,13.0,343.0
2022-01-28-10:41:16.392443,4.0,7.0,344.0
2022-01-28-10:41:16.393443,2.0,6.0,343.0
2022-01-28-10:41:16.394438,0.0,6.0,344.0
2022-01-28-10:41:16.395436,0.0,6.0,344.0
2022-01-28-10:41:16.396432,2.0,4.0,343.0
2022-01-28-10:41:16.397406,5.0,4.0,344.0
2022-01-28-10:41:16.398427,5.0,4.0,344.0
2022-01-28-10:41:16.399424,5.0,4.0,344.0
2022-01-28-10:41:16.400421,5.0,4.0,343.0
2022-01-28-10:41:16.401422,5.0,4.0,343.0
2022-01-28-10:41:16.402416,6.0,5.0,344.0
2022-01-28-10:41:16.403625,6.0,8.0,344.0
2022-01-28-10:41:16.403625,10.0,2.0,344.0
2022-01-28-10:41:16.404680,8.0,5.0,344.0
2022-01-28-10:41:16.405676,9.0,7.0,344.0
2022-01-28-10:41:16.406678,9.0,7.0,344.0
2022-01-28-10:41:16.407855,9.0,7.0,344.0
2022-01-28-10:41:16.407855,7.0,5.0,344.0
2022-01-28-10:41:16.408908,0.0,13.0,344.0
2022-01-28-10:41:16.409908,0.0,13.0,344.0
2022-01-28-10:41:16.410904,0.0,13.0,344.0
2022-01-28-10:41:16.411902,0.0,13.0,344.0
2022-01-28-10:41:16.412903,1.0,9.0,343.0
2022-01-28-10:41:16.413897,2.0,7.0,343.0
2022-01-28-10:41:16.414886,4.0,10.0,343.0
2022-01-28-10:41:16.415886,4.0,10.0,343.0
2022-01-28-10:41:16.416880,5.0,3.0,344.0
2022-01-28-10:41:16.417857,13.0,16.0,343.0
2022-01-28-10:41:16.419825,9.0,19.0,343.0
2022-01-28-10:41:16.419825,6.0,1.0,344.0
2022-01-28-10:41:16.420847,6.0,1.0,344.0
2022-01-28-10:41:16.421912,6.0,1.0,344.0
2022-01-28-10:41:16.421912,6.0,1.0,344.0
2022-01-28-10:41:16.422959,6.0,1.0,344.0
2022-01-28-10:41:16.424128,6.0,1.0,344.0
2022-01-28-10:41:16.424128,7.0,5.0,344.0
2022-01-28-10:41:16.425152,7.0,5.0,344.0
2022-01-28-10:41:16.426209,0.0,3.0,344.0
2022-01-28-10:41:16.426209,0.0,3.0,344.0
2022-01-28-10:41:16.427264,0.0,3.0,344.0
2022-01-28-10:41:16.428263,0.0,3.0,344.0
2022-01-28-10:41:16.429257,1.0,3.0,344.0
2022-01-28-10:41:16.430261,3.0,10.0,344.0
2022-01-28-10:41:16.431254,3.0,15.0,344.0
2022-01-28-10:41:16.432251,3.0,15.0,344.0
2022-01-28-10:41:16.433248,7.0,12.0,344.0
2022-01-28-10:41:16.434224,7.0,12.0,344.0
2022-01-28-10:41:16.435242,8.0,4.0,343.0
2022-01-28-10:41:16.436241,8.0,4.0,343.0
2022-01-28-10:41:16.437237,10.0,5.0,344.0
2022-01-28-10:41:16.438233,9.0,4.0,344.0
2022-01-28-10:41:16.439233,9.0,7.0,344.0
2022-01-28-10:41:16.440230,9.0,7.0,344.0
2022-01-28-10:41:16.441425,4.0,5.0,343.0
2022-01-28-10:41:16.441425,0.0,8.0,344.0
2022-01-28-10:41:16.442458,0.0,8.0,344.0
2022-01-28-10:41:16.443508,3.0,13.0,344.0
2022-01-28-10:41:16.443508,3.0,13.0,344.0
2022-01-28-10:41:16.444566,3.0,13.0,344.0
2022-01-28-10:41:16.445557,1.0,4.0,343.0
2022-01-28-10:41:16.446550,6.0,24.0,344.0
2022-01-28-10:41:16.447555,6.0,24.0,344.0
2022-01-28-10:41:16.448552,6.0,24.0,344.0
2022-01-28-10:41:16.449549,5.0,14.0,344.0
2022-01-28-10:41:16.451523,5.0,14.0,344.0
2022-01-28-10:41:16.451523,10.0,5.0,343.0
2022-01-28-10:41:16.452520,9.0,2.0,344.0
2022-01-28-10:41:16.453538,9.0,2.0,344.0
2022-01-28-10:41:16.454537,9.0,2.0,344.0
2022-01-28-10:41:16.455533,9.0,2.0,344.0
2022-01-28-10:41:16.456529,9.0,2.0,344.0
2022-01-28-10:41:16.457527,6.0,6.0,344.0
2022-01-28-10:41:16.458525,1.0,9.0,343.0
2022-01-28-10:41:16.459522,0.0,12.0,344.0
2022-01-28-10:41:16.460524,0.0,12.0,344.0
2022-01-28-10:41:16.461517,1.0,10.0,343.0
2022-01-28-10:41:16.462460,2.0,4.0,343.0
2022-01-28-10:41:16.463457,3.0,6.0,344.0
2022-01-28-10:41:16.464494,3.0,6.0,344.0
2022-01-28-10:41:16.465506,2.0,5.0,344.0
2022-01-28-10:41:16.466503,7.0,3.0,344.0
2022-01-28-10:41:16.467503,4.0,2.0,344.0
2022-01-28-10:41:16.468502,4.0,2.0,344.0
2022-01-28-10:41:16.469496,12.0,5.0,344.0
2022-01-28-10:41:16.470494,9.0,1.0,344.0
2022-01-28-10:41:16.471490,9.0,1.0,344.0
2022-01-28-10:41:16.472487,9.0,1.0,344.0
2022-01-28-10:41:16.473484,9.0,1.0,344.0
2022-01-28-10:41:16.474483,5.0,5.0,343.0
2022-01-28-10:41:16.475479,1.0,13.0,344.0
2022-01-28-10:41:16.476481,0.0,13.0,343.0
2022-01-28-10:41:16.477474,0.0,13.0,343.0
2022-01-28-10:41:16.478473,3.0,4.0,344.0
2022-01-28-10:41:16.479415,5.0,10.0,344.0
2022-01-28-10:41:16.480467,5.0,10.0,344.0
2022-01-28-10:41:16.481463,5.0,10.0,344.0
2022-01-28-10:41:16.482467,5.0,14.0,344.0
2022-01-28-10:41:16.483458,4.0,3.0,343.0
2022-01-28-10:41:16.484452,4.0,3.0,343.0
2022-01-28-10:41:16.486445,3.0,4.0,344.0
2022-01-28-10:41:16.486445,9.0,7.0,343.0
2022-01-28-10:41:16.487439,9.0,7.0,343.0
2022-01-28-10:41:16.488437,9.0,7.0,343.0
2022-01-28-10:41:16.489434,9.0,7.0,343.0
2022-01-28-10:41:16.490432,7.0,11.0,343.0
2022-01-28-10:41:16.491428,4.0,19.0,344.0
2022-01-28-10:41:16.492406,3.0,25.0,344.0
2022-01-28-10:41:16.493402,3.0,25.0,344.0
2022-01-28-10:41:16.494410,2.0,18.0,344.0
2022-01-28-10:41:16.495405,1.0,15.0,344.0
2022-01-28-10:41:16.496424,1.0,15.0,344.0
2022-01-28-10:41:16.497664,1.0,15.0,344.0
2022-01-28-10:41:16.497664,6.0,7.0,344.0
2022-01-28-10:41:16.498697,6.0,7.0,344.0
2022-01-28-10:41:16.499813,6.0,3.0,343.0
2022-01-28-10:41:16.499813,6.0,3.0,343.0
2022-01-28-10:41:16.500868,6.0,3.0,343.0
2022-01-28-10:41:16.502074,6.0,3.0,343.0
2022-01-28-10:41:16.502074,5.0,3.0,344.0
2022-01-28-10:41:16.503107,5.0,3.0,344.0
2022-01-28-10:41:16.504104,13.0,5.0,344.0
2022-01-28-10:41:16.505104,13.0,5.0,344.0
2022-01-28-10:41:16.506099,13.0,5.0,344.0
2022-01-28-10:41:16.507095,6.0,8.0,344.0
2022-01-28-10:41:16.508223,4.0,12.0,344.0
2022-01-28-10:41:16.508223,1.0,12.0,344.0
2022-01-28-10:41:16.509278,1.0,12.0,344.0
2022-01-28-10:41:16.510274,1.0,12.0,344.0
2022-01-28-10:41:16.511496,0.0,7.0,343.0
2022-01-28-10:41:16.511496,3.0,1.0,344.0
2022-01-28-10:41:16.512497,3.0,1.0,344.0
2022-01-28-10:41:16.513553,3.0,1.0,344.0
2022-01-28-10:41:16.514604,5.0,1.0,343.0
2022-01-28-10:41:16.514604,5.0,1.0,344.0
2022-01-28-10:41:16.515657,5.0,3.0,344.0
2022-01-28-10:41:16.516652,5.0,3.0,344.0
2022-01-28-10:41:16.517650,5.0,3.0,344.0
2022-01-28-10:41:16.518642,8.0,5.0,344.0
2022-01-28-10:41:16.519941,11.0,1.0,344.0
2022-01-28-10:41:16.519941,8.0,6.0,343.0
2022-01-28-10:41:16.520994,8.0,6.0,343.0
2022-01-28-10:41:16.522935,8.0,6.0,343.0
2022-01-28-10:41:16.522935,3.0,3.0,343.0
2022-01-28-10:41:16.524077,0.0,7.0,343.0
2022-01-28-10:41:16.524077,0.0,7.0,343.0
2022-01-28-10:41:16.525125,0.0,7.0,343.0
2022-01-28-10:41:16.526124,0.0,7.0,343.0
2022-01-28-10:41:16.527118,1.0,6.0,344.0
2022-01-28-10:41:16.528314,5.0,11.0,344.0
2022-01-28-10:41:16.528314,7.0,19.0,344.0
2022-01-28-10:41:16.529459,7.0,19.0,344.0
2022-01-28-10:41:16.529459,7.0,19.0,344.0
2022-01-28-10:41:16.530505,7.0,19.0,344.0
2022-01-28-10:41:16.531502,6.0,25.0,343.0
2022-01-28-10:41:16.532735,0.0,12.0,344.0
2022-01-28-10:41:16.532735,3.0,16.0,344.0
2022-01-28-10:41:16.533767,3.0,16.0,344.0
2022-01-28-10:41:16.534766,3.0,16.0,344.0
2022-01-28-10:41:16.535761,7.0,8.0,343.0
2022-01-28-10:41:16.536758,9.0,8.0,344.0
2022-01-28-10:41:16.537757,8.0,3.0,344.0
2022-01-28-10:41:16.538755,8.0,3.0,344.0
2022-01-28-10:41:16.539752,8.0,3.0,343.0
2022-01-28-10:41:16.540864,7.0,7.0,344.0
2022-01-28-10:41:16.540864,7.0,7.0,344.0
2022-01-28-10:41:16.541921,7.0,7.0,344.0
2022-01-28-10:41:16.542917,7.0,7.0,344.0
2022-01-28-10:41:16.543920,1.0,4.0,344.0
2022-01-28-10:41:16.544913,1.0,8.0,343.0
2022-01-28-10:41:16.545887,1.0,8.0,343.0
2022-01-28-10:41:16.546906,1.0,8.0,343.0
2022-01-28-10:41:16.547905,1.0,6.0,343.0
2022-01-28-10:41:16.548901,5.0,5.0,344.0
2022-01-28-10:41:16.549898,8.0,1.0,344.0
2022-01-28-10:41:16.550896,8.0,1.0,344.0
2022-01-28-10:41:16.551893,8.0,9.0,344.0
2022-01-28-10:41:16.552891,10.0,1.0,343.0
2022-01-28-10:41:16.553889,8.0,6.0,344.0
2022-01-28-10:41:16.555883,8.0,6.0,344.0
2022-01-28-10:41:16.555883,1.0,12.0,343.0
2022-01-28-10:41:16.556880,1.0,12.0,343.0
2022-01-28-10:41:16.557876,1.0,12.0,343.0
2022-01-28-10:41:16.558874,1.0,12.0,343.0
2022-01-28-10:41:16.559872,1.0,5.0,344.0
2022-01-28-10:41:16.560870,0.0,3.0,344.0
2022-01-28-10:41:16.561866,0.0,5.0,344.0
2022-01-28-10:41:16.562839,0.0,5.0,344.0
2022-01-28-10:41:16.563862,2.0,3.0,344.0
2022-01-28-10:41:16.564858,4.0,4.0,344.0
2022-01-28-10:41:16.565856,5.0,1.0,343.0
2022-01-28-10:41:16.566860,5.0,1.0,343.0
2022-01-28-10:41:16.567850,3.0,5.0,343.0
2022-01-28-10:41:16.568849,10.0,1.0,343.0
2022-01-28-10:41:16.569845,11.0,1.0,344.0
2022-01-28-10:41:16.570792,11.0,1.0,344.0
2022-01-28-10:41:16.571784,11.0,2.0,343.0
2022-01-28-10:41:16.572830,6.0,12.0,344.0
2022-01-28-10:41:16.573827,6.0,12.0,344.0
2022-01-28-10:41:16.574829,6.0,12.0,344.0
2022-01-28-10:41:16.575820,6.0,12.0,344.0
2022-01-28-10:41:16.576819,1.0,36.0,344.0
2022-01-28-10:41:16.577814,1.0,19.0,344.0
2022-01-28-10:41:16.578812,1.0,19.0,344.0
2022-01-28-10:41:16.579812,1.0,19.0,344.0
2022-01-28-10:41:16.580806,5.0,1.0,344.0
2022-01-28-10:41:16.581804,9.0,4.0,344.0
2022-01-28-10:41:16.582801,9.0,4.0,344.0
2022-01-28-10:41:16.583799,9.0,4.0,344.0
2022-01-28-10:41:16.584798,6.0,6.0,343.0
2022-01-28-10:41:16.585793,8.0,12.0,344.0
2022-01-28-10:41:16.586745,10.0,7.0,344.0
2022-01-28-10:41:16.587790,10.0,7.0,344.0
2022-01-28-10:41:16.589785,9.0,2.0,344.0
2022-01-28-10:41:16.590512,5.0,22.0,343.0
2022-01-28-10:41:16.590512,5.0,22.0,343.0
2022-01-28-10:41:16.591748,5.0,22.0,343.0
2022-01-28-10:41:16.591748,3.0,17.0,344.0
2022-01-28-10:41:16.592806,5.0,15.0,344.0
2022-01-28-10:41:16.593801,1.0,15.0,344.0
2022-01-28-10:41:16.594850,1.0,15.0,344.0
2022-01-28-10:41:16.594850,1.0,15.0,344.0
2022-01-28-10:41:16.595850,1.0,15.0,344.0
2022-01-28-10:41:16.597128,0.0,1.0,343.0
2022-01-28-10:41:16.597128,4.0,6.0,344.0
2022-01-28-10:41:16.598182,4.0,9.0,344.0
2022-01-28-10:41:16.599179,4.0,9.0,344.0
2022-01-28-10:41:16.600177,4.0,9.0,344.0
2022-01-28-10:41:16.601173,8.0,3.0,343.0
2022-01-28-10:41:16.602171,9.0,1.0,344.0
2022-01-28-10:41:16.603168,9.0,1.0,344.0
2022-01-28-10:41:16.604168,9.0,1.0,344.0
2022-01-28-10:41:16.605163,9.0,9.0,344.0
2022-01-28-10:41:16.606140,7.0,11.0,343.0
2022-01-28-10:41:16.607137,1.0,11.0,344.0
2022-01-28-10:41:16.608155,1.0,11.0,344.0
2022-01-28-10:41:16.609204,2.0,26.0,343.0
2022-01-28-10:41:16.609204,2.0,13.0,344.0
2022-01-28-10:41:16.610258,3.0,21.0,344.0
2022-01-28-10:41:16.611255,3.0,21.0,344.0
2022-01-28-10:41:16.612245,3.0,21.0,344.0
2022-01-28-10:41:16.613264,2.0,5.0,344.0
2022-01-28-10:41:16.613264,8.0,1.0,344.0
2022-01-28-10:41:16.614324,8.0,1.0,344.0
2022-01-28-10:41:16.615318,8.0,1.0,344.0
2022-01-28-10:41:16.616313,8.0,1.0,344.0
2022-01-28-10:41:16.617310,8.0,15.0,343.0
2022-01-28-10:41:16.618361,8.0,10.0,344.0
2022-01-28-10:41:16.618361,9.0,1.0,343.0
2022-01-28-10:41:16.619414,9.0,1.0,343.0
2022-01-28-10:41:16.620404,9.0,1.0,343.0
2022-01-28-10:41:16.621402,11.0,3.0,343.0
2022-01-28-10:41:16.623399,11.0,3.0,343.0
2022-01-28-10:41:16.624094,6.0,13.0,343.0
2022-01-28-10:41:16.624094,3.0,13.0,343.0
2022-01-28-10:41:16.625148,1.0,18.0,343.0
2022-01-28-10:41:16.626146,1.0,18.0,343.0
2022-01-28-10:41:16.627144,1.0,18.0,343.0
2022-01-28-10:41:16.628141,1.0,18.0,343.0
2022-01-28-10:41:16.629084,1.0,18.0,343.0
2022-01-28-10:41:16.630080,0.0,13.0,343.0
2022-01-28-10:41:16.631135,3.0,10.0,343.0
2022-01-28-10:41:16.632158,3.0,10.0,343.0
2022-01-28-10:41:16.632158,3.0,10.0,343.0
2022-01-28-10:41:16.633213,3.0,10.0,343.0
2022-01-28-10:41:16.634219,9.0,1.0,344.0
2022-01-28-10:41:16.635208,9.0,6.0,343.0
2022-01-28-10:41:16.636205,9.0,6.0,343.0
2022-01-28-10:41:16.637205,9.0,6.0,343.0
2022-01-28-10:41:16.638200,9.0,10.0,344.0
2022-01-28-10:41:16.639178,11.0,6.0,343.0
2022-01-28-10:41:16.640173,5.0,0.0,344.0
2022-01-28-10:41:16.641352,5.0,0.0,344.0
2022-01-28-10:41:16.641352,1.0,12.0,343.0
2022-01-28-10:41:16.642406,0.0,0.0,344.0
2022-01-28-10:41:16.643403,2.0,1.0,344.0
2022-01-28-10:41:16.644403,2.0,1.0,344.0
2022-01-28-10:41:16.645344,2.0,1.0,344.0
2022-01-28-10:41:16.646400,2.0,5.0,344.0
2022-01-28-10:41:16.647387,1.0,7.0,344.0
2022-01-28-10:41:16.648387,6.0,2.0,343.0
2022-01-28-10:41:16.649535,6.0,2.0,343.0
2022-01-28-10:41:16.649535,7.0,13.0,343.0
2022-01-28-10:41:16.650582,7.0,7.0,344.0
2022-01-28-10:41:16.651580,7.0,8.0,343.0
2022-01-28-10:41:16.652577,7.0,8.0,343.0
2022-01-28-10:41:16.653576,7.0,8.0,343.0
2022-01-28-10:41:16.654571,6.0,5.0,343.0
2022-01-28-10:41:16.656568,8.0,1.0,344.0
2022-01-28-10:41:16.656568,5.0,16.0,344.0
2022-01-28-10:41:16.657565,2.0,19.0,344.0
2022-01-28-10:41:16.658652,2.0,8.0,344.0
2022-01-28-10:41:16.658652,2.0,8.0,344.0
2022-01-28-10:41:16.659709,2.0,8.0,344.0
2022-01-28-10:41:16.660705,2.0,8.0,344.0
2022-01-28-10:41:16.661702,2.0,8.0,344.0
2022-01-28-10:41:16.662700,1.0,9.0,344.0
2022-01-28-10:41:16.663650,4.0,6.0,344.0
2022-01-28-10:41:16.664672,8.0,7.0,343.0
2022-01-28-10:41:16.665674,8.0,7.0,343.0
2022-01-28-10:41:16.666667,6.0,8.0,344.0
2022-01-28-10:41:16.667848,5.0,2.0,343.0
2022-01-28-10:41:16.667848,8.0,10.0,344.0
2022-01-28-10:41:16.668873,10.0,15.0,343.0
2022-01-28-10:41:16.669872,10.0,15.0,343.0
2022-01-28-10:41:16.670871,9.0,12.0,344.0
2022-01-28-10:41:16.671870,10.0,1.0,343.0
2022-01-28-10:41:16.672990,6.0,1.0,344.0
2022-01-28-10:41:16.672990,6.0,1.0,344.0
2022-01-28-10:41:16.674171,6.0,1.0,344.0
2022-01-28-10:41:16.674171,6.0,7.0,344.0
2022-01-28-10:41:16.675196,2.0,9.0,343.0
2022-01-28-10:41:16.676199,1.0,4.0,343.0
2022-01-28-10:41:16.677191,1.0,4.0,343.0
2022-01-28-10:41:16.678188,1.0,4.0,343.0
2022-01-28-10:41:16.679161,8.0,27.0,343.0
2022-01-28-10:41:16.680185,1.0,27.0,344.0
2022-01-28-10:41:16.681247,1.0,25.0,344.0
2022-01-28-10:41:16.681247,1.0,25.0,344.0
2022-01-28-10:41:16.682474,1.0,25.0,344.0
2022-01-28-10:41:16.682474,3.0,25.0,343.0
2022-01-28-10:41:16.683523,8.0,9.0,344.0
2022-01-28-10:41:16.684517,10.0,0.0,343.0
2022-01-28-10:41:16.685515,10.0,0.0,343.0
2022-01-28-10:41:16.686516,10.0,9.0,344.0
2022-01-28-10:41:16.687511,8.0,6.0,344.0
2022-01-28-10:41:16.688509,10.0,0.0,344.0
2022-01-28-10:41:16.689507,10.0,0.0,344.0
2022-01-28-10:41:16.690480,1.0,6.0,343.0
2022-01-28-10:41:16.692496,2.0,5.0,344.0
2022-01-28-10:41:16.692496,2.0,5.0,344.0
2022-01-28-10:41:16.693496,2.0,5.0,344.0
2022-01-28-10:41:16.694471,2.0,5.0,344.0
2022-01-28-10:41:16.695490,2.0,0.0,344.0
2022-01-28-10:41:16.696466,3.0,13.0,343.0
2022-01-28-10:41:16.697579,3.0,13.0,343.0
2022-01-28-10:41:16.697579,3.0,13.0,343.0
2022-01-28-10:41:16.698625,3.0,13.0,343.0
2022-01-28-10:41:16.699622,2.0,7.0,343.0
2022-01-28-10:41:16.700802,5.0,2.0,343.0
2022-01-28-10:41:16.700959,8.0,3.0,344.0
2022-01-28-10:41:16.700959,8.0,3.0,344.0
2022-01-28-10:41:16.702143,8.0,3.0,344.0
2022-01-28-10:41:16.702143,8.0,2.0,343.0
2022-01-28-10:41:16.703190,12.0,2.0,344.0
2022-01-28-10:41:16.704188,11.0,0.0,343.0
2022-01-28-10:41:16.705185,11.0,0.0,343.0
2022-01-28-10:41:16.706135,11.0,0.0,343.0
2022-01-28-10:41:16.707180,0.0,5.0,343.0
2022-01-28-10:41:16.708178,0.0,5.0,343.0
2022-01-28-10:41:16.709176,0.0,5.0,343.0
2022-01-28-10:41:16.710152,0.0,5.0,343.0
2022-01-28-10:41:16.711169,1.0,0.0,343.0
2022-01-28-10:41:16.712166,1.0,2.0,344.0
2022-01-28-10:41:16.713169,1.0,4.0,343.0
2022-01-28-10:41:16.714212,1.0,4.0,343.0
2022-01-28-10:41:16.714505,1.0,4.0,343.0
2022-01-28-10:41:16.714505,5.0,5.0,344.0
2022-01-28-10:41:16.715551,1.0,3.0,344.0
2022-01-28-10:41:16.716552,6.0,2.0,343.0
2022-01-28-10:41:16.717549,6.0,2.0,343.0
2022-01-28-10:41:16.718528,6.0,2.0,343.0
2022-01-28-10:41:16.718899,6.0,12.0,344.0
2022-01-28-10:41:16.718899,11.0,6.0,343.0
2022-01-28-10:41:16.720042,11.0,5.0,343.0
2022-01-28-10:41:16.720042,11.0,5.0,343.0
2022-01-28-10:41:16.721090,11.0,5.0,343.0
2022-01-28-10:41:16.722087,11.0,5.0,343.0
2022-01-28-10:41:16.723086,11.0,5.0,343.0
2022-01-28-10:41:16.724083,10.0,18.0,343.0
2022-01-28-10:41:16.726075,10.0,18.0,343.0
2022-01-28-10:41:16.726075,3.0,3.0,343.0
2022-01-28-10:41:16.727026,3.0,1.0,344.0
2022-01-28-10:41:16.728073,3.0,1.0,344.0
2022-01-28-10:41:16.729065,3.0,1.0,344.0
2022-01-28-10:41:16.730045,3.0,1.0,344.0
2022-01-28-10:41:16.731065,3.0,1.0,344.0
2022-01-28-10:41:16.732058,3.0,3.0,344.0
2022-01-28-10:41:16.733057,2.0,4.0,343.0
2022-01-28-10:41:16.734054,7.0,10.0,344.0
2022-01-28-10:41:16.735052,7.0,10.0,344.0
2022-01-28-10:41:16.736047,5.0,17.0,344.0
2022-01-28-10:41:16.737045,6.0,12.0,344.0
2022-01-28-10:41:16.738044,11.0,8.0,343.0
2022-01-28-10:41:16.739043,11.0,8.0,343.0
2022-01-28-10:41:16.740038,8.0,13.0,344.0
2022-01-28-10:41:16.741036,2.0,16.0,343.0
2022-01-28-10:41:16.742032,2.0,16.0,343.0
2022-01-28-10:41:16.743183,2.0,16.0,343.0
2022-01-28-10:41:16.743183,1.0,8.0,343.0
2022-01-28-10:41:16.744329,4.0,2.0,344.0
2022-01-28-10:41:16.744329,4.0,2.0,344.0
2022-01-28-10:41:16.745375,4.0,2.0,344.0
2022-01-28-10:41:16.746326,4.0,2.0,344.0
2022-01-28-10:41:16.747544,4.0,2.0,344.0
2022-01-28-10:41:16.747544,2.0,2.0,344.0
2022-01-28-10:41:16.748599,6.0,9.0,344.0
2022-01-28-10:41:16.749597,9.0,16.0,343.0
2022-01-28-10:41:16.750594,9.0,16.0,343.0
2022-01-28-10:41:16.751749,9.0,16.0,343.0
2022-01-28-10:41:16.751749,9.0,14.0,344.0
2022-01-28-10:41:16.752805,8.0,4.0,344.0
2022-01-28-10:41:16.753805,8.0,4.0,344.0
2022-01-28-10:41:16.754799,8.0,4.0,344.0
2022-01-28-10:41:16.755797,8.0,4.0,344.0
2022-01-28-10:41:16.757790,7.0,22.0,344.0
2022-01-28-10:41:16.757790,5.0,30.0,343.0
2022-01-28-10:41:16.758789,5.0,30.0,343.0
2022-01-28-10:41:16.759787,0.0,20.0,344.0
2022-01-28-10:41:16.760821,1.0,7.0,344.0
2022-01-28-10:41:16.761231,2.0,23.0,343.0
2022-01-28-10:41:16.761369,2.0,13.0,344.0
2022-01-28-10:41:16.761369,2.0,13.0,344.0
2022-01-28-10:41:16.762430,2.0,13.0,344.0
2022-01-28-10:41:16.763595,2.0,13.0,344.0
2022-01-28-10:41:16.763595,4.0,6.0,344.0
2022-01-28-10:41:16.764643,7.0,11.0,343.0
2022-01-28-10:41:16.765638,5.0,7.0,343.0
2022-01-28-10:41:16.766643,5.0,7.0,343.0
2022-01-28-10:41:16.767587,5.0,7.0,343.0
2022-01-28-10:41:16.768632,2.0,2.0,343.0
2022-01-28-10:41:16.769630,8.0,10.0,344.0
2022-01-28-10:41:16.770626,11.0,9.0,344.0
2022-01-28-10:41:16.771605,11.0,9.0,344.0
2022-01-28-10:41:16.772622,11.0,7.0,344.0
2022-01-28-10:41:16.773621,9.0,8.0,343.0
2022-01-28-10:41:16.774622,1.0,17.0,344.0
2022-01-28-10:41:16.775613,1.0,17.0,344.0
2022-01-28-10:41:16.776610,1.0,17.0,344.0
2022-01-28-10:41:16.777609,3.0,8.0,343.0
2022-01-28-10:41:16.778605,1.0,9.0,344.0
2022-01-28-10:41:16.779555,1.0,9.0,344.0
2022-01-28-10:41:16.780600,1.0,9.0,344.0
2022-01-28-10:41:16.781597,5.0,5.0,343.0
2022-01-28-10:41:16.782594,3.0,32.0,344.0
2022-01-28-10:41:16.783592,4.0,16.0,344.0
2022-01-28-10:41:16.784590,4.0,16.0,344.0
2022-01-28-10:41:16.785587,1.0,8.0,344.0
2022-01-28-10:41:16.786584,9.0,23.0,344.0
2022-01-28-10:41:16.787581,12.0,3.0,344.0
2022-01-28-10:41:16.788556,12.0,3.0,344.0
2022-01-28-10:41:16.789574,10.0,19.0,343.0
2022-01-28-10:41:16.791571,6.0,26.0,344.0
2022-01-28-10:41:16.791571,0.0,17.0,343.0
2022-01-28-10:41:16.792547,3.0,9.0,343.0
2022-01-28-10:41:16.793566,1.0,1.0,344.0
2022-01-28-10:41:16.794562,1.0,1.0,344.0
2022-01-28-10:41:16.795558,1.0,1.0,344.0
2022-01-28-10:41:16.796526,1.0,1.0,344.0
2022-01-28-10:41:16.797512,6.0,1.0,343.0
2022-01-28-10:41:16.798552,3.0,6.0,344.0
2022-01-28-10:41:16.799549,5.0,5.0,343.0
2022-01-28-10:41:16.800703,5.0,5.0,343.0
2022-01-28-10:41:16.800703,6.0,1.0,344.0
2022-01-28-10:41:16.801758,10.0,6.0,343.0
2022-01-28-10:41:16.802748,12.0,0.0,344.0
2022-01-28-10:41:16.803729,12.0,0.0,344.0
2022-01-28-10:41:16.804744,12.0,0.0,344.0
2022-01-28-10:41:16.805739,9.0,1.0,344.0
2022-01-28-10:41:16.806738,5.0,15.0,343.0
2022-01-28-10:41:16.807736,1.0,16.0,344.0
2022-01-28-10:41:16.808731,1.0,16.0,344.0
2022-01-28-10:41:16.809730,0.0,14.0,344.0
2022-01-28-10:41:16.810825,1.0,11.0,344.0
2022-01-28-10:41:16.810825,2.0,6.0,344.0
2022-01-28-10:41:16.811885,2.0,6.0,344.0
2022-01-28-10:41:16.813036,2.0,6.0,344.0
2022-01-28-10:41:16.813036,1.0,4.0,343.0
2022-01-28-10:41:16.814083,4.0,11.0,344.0
2022-01-28-10:41:16.815080,2.0,6.0,343.0
2022-01-28-10:41:16.816077,2.0,6.0,343.0
2022-01-28-10:41:16.817075,2.0,6.0,343.0
2022-01-28-10:41:16.818072,8.0,1.0,344.0
2022-01-28-10:41:16.819069,11.0,4.0,344.0
2022-01-28-10:41:16.820117,8.0,10.0,344.0
2022-01-28-10:41:16.820117,8.0,10.0,344.0
2022-01-28-10:41:16.821319,8.0,10.0,344.0
2022-01-28-10:41:16.821319,14.0,4.0,343.0
2022-01-28-10:41:16.822371,5.0,3.0,344.0
2022-01-28-10:41:16.823365,1.0,4.0,344.0
2022-01-28-10:41:16.824511,1.0,4.0,344.0
