2022-02-02-16:28:01.810395,2.0,13.0,385.0
2022-02-02-16:28:01.811358,4.0,19.0,385.0
2022-02-02-16:28:01.812368,3.0,6.0,385.0
2022-02-02-16:28:01.812368,7.0,2.0,385.0
2022-02-02-16:28:01.813353,4.0,11.0,385.0
2022-02-02-16:28:01.814384,1.0,5.0,385.0
2022-02-02-16:28:01.816345,11.0,9.0,385.0
2022-02-02-16:28:01.816345,8.0,4.0,386.0
2022-02-02-16:28:01.817343,9.0,7.0,385.0
2022-02-02-16:28:01.818377,7.0,6.0,386.0
2022-02-02-16:28:01.819379,5.0,3.0,386.0
2022-02-02-16:28:01.820370,2.0,15.0,385.0
2022-02-02-16:28:01.821333,1.0,15.0,385.0
2022-02-02-16:28:01.822340,3.0,8.0,385.0
2022-02-02-16:28:01.823361,8.0,10.0,385.0
2022-02-02-16:28:01.824324,3.0,2.0,385.0
2022-02-02-16:28:01.825356,7.0,0.0,386.0
2022-02-02-16:28:01.826318,7.0,14.0,386.0
2022-02-02-16:28:01.827315,8.0,10.0,386.0
2022-02-02-16:28:01.828313,9.0,3.0,385.0
2022-02-02-16:28:01.829310,2.0,9.0,386.0
2022-02-02-16:28:01.830308,2.0,9.0,385.0
2022-02-02-16:28:01.831305,5.0,16.0,385.0
2022-02-02-16:28:01.832340,3.0,22.0,385.0
2022-02-02-16:28:01.833334,8.0,8.0,385.0
2022-02-02-16:28:01.834337,9.0,0.0,385.0
2022-02-02-16:28:01.835332,4.0,1.0,385.0
2022-02-02-16:28:01.836326,5.0,12.0,386.0
2022-02-02-16:28:01.837317,2.0,7.0,385.0
2022-02-02-16:28:01.838314,4.0,5.0,386.0
2022-02-02-16:28:01.839319,4.0,5.0,386.0
2022-02-02-16:28:01.840311,2.0,4.0,385.0
2022-02-02-16:28:01.841305,6.0,2.0,385.0
2022-02-02-16:28:01.842303,8.0,7.0,385.0
2022-02-02-16:28:01.843299,7.0,2.0,385.0
2022-02-02-16:28:01.844297,4.0,14.0,385.0
2022-02-02-16:28:01.845295,5.0,8.0,386.0
2022-02-02-16:28:01.846292,5.0,6.0,385.0
2022-02-02-16:28:01.847303,8.0,15.0,385.0
2022-02-02-16:28:01.848290,10.0,7.0,385.0
2022-02-02-16:28:01.850254,5.0,25.0,386.0
2022-02-02-16:28:01.851251,10.0,13.0,386.0
2022-02-02-16:28:01.851251,10.0,7.0,385.0
2022-02-02-16:28:01.852297,3.0,4.0,386.0
2022-02-02-16:28:01.853293,3.0,14.0,385.0
2022-02-02-16:28:01.854292,2.0,9.0,385.0
2022-02-02-16:28:01.855242,3.0,11.0,385.0
2022-02-02-16:28:01.856239,3.0,1.0,385.0
2022-02-02-16:28:01.857284,7.0,2.0,385.0
2022-02-02-16:28:01.858323,9.0,7.0,385.0
2022-02-02-16:28:01.858795,6.0,1.0,385.0
2022-02-02-16:28:01.858795,6.0,10.0,385.0
2022-02-02-16:28:01.859843,1.0,12.0,386.0
2022-02-02-16:28:01.860819,5.0,4.0,385.0
2022-02-02-16:28:01.861836,9.0,4.0,385.0
2022-02-02-16:28:01.862838,10.0,9.0,386.0
2022-02-02-16:28:01.863830,2.0,15.0,386.0
2022-02-02-16:28:01.864830,2.0,9.0,385.0
2022-02-02-16:28:01.865825,2.0,5.0,385.0
2022-02-02-16:28:01.866802,4.0,5.0,385.0
2022-02-02-16:28:01.867817,11.0,4.0,385.0
2022-02-02-16:28:01.868817,5.0,9.0,385.0
2022-02-02-16:28:01.869815,1.0,12.0,385.0
2022-02-02-16:28:01.870765,2.0,5.0,385.0
2022-02-02-16:28:01.871809,9.0,1.0,385.0
2022-02-02-16:28:01.872760,10.0,6.0,386.0
2022-02-02-16:28:01.873783,6.0,4.0,385.0
2022-02-02-16:28:01.874780,4.0,17.0,386.0
2022-02-02-16:28:01.875777,0.0,9.0,386.0
2022-02-02-16:28:01.876759,0.0,5.0,385.0
2022-02-02-16:28:01.877814,2.0,2.0,386.0
2022-02-02-16:28:01.878255,4.0,4.0,385.0
2022-02-02-16:28:01.878255,8.0,3.0,385.0
2022-02-02-16:28:01.879279,10.0,8.0,386.0
2022-02-02-16:28:01.880278,13.0,0.0,385.0
2022-02-02-16:28:01.881275,4.0,16.0,385.0
2022-02-02-16:28:01.882272,1.0,13.0,385.0
2022-02-02-16:28:01.883270,5.0,4.0,385.0
2022-02-02-16:28:01.885267,10.0,8.0,385.0
2022-02-02-16:28:01.886236,4.0,14.0,385.0
2022-02-02-16:28:01.886236,4.0,3.0,385.0
2022-02-02-16:28:01.887259,9.0,2.0,385.0
2022-02-02-16:28:01.888292,6.0,7.0,386.0
2022-02-02-16:28:01.889254,4.0,16.0,386.0
2022-02-02-16:28:01.890272,1.0,7.0,385.0
2022-02-02-16:28:01.891320,4.0,7.0,385.0
2022-02-02-16:28:01.891320,6.0,6.0,385.0
2022-02-02-16:28:01.892369,3.0,3.0,385.0
2022-02-02-16:28:01.893589,6.0,5.0,385.0
2022-02-02-16:28:01.893589,8.0,7.0,386.0
2022-02-02-16:28:01.894636,12.0,0.0,385.0
2022-02-02-16:28:01.895635,7.0,3.0,385.0
2022-02-02-16:28:01.896630,0.0,15.0,385.0
2022-02-02-16:28:01.897628,3.0,7.0,385.0
2022-02-02-16:28:01.898627,3.0,9.0,385.0
2022-02-02-16:28:01.899622,6.0,7.0,385.0
2022-02-02-16:28:01.900622,5.0,3.0,385.0
2022-02-02-16:28:01.901597,4.0,4.0,385.0
2022-02-02-16:28:01.902595,4.0,4.0,385.0
2022-02-02-16:28:01.903590,8.0,9.0,385.0
2022-02-02-16:28:01.904588,10.0,3.0,385.0
2022-02-02-16:28:01.905559,7.0,10.0,385.0
2022-02-02-16:28:01.906583,0.0,18.0,385.0
2022-02-02-16:28:01.907601,3.0,15.0,385.0
2022-02-02-16:28:01.908599,3.0,11.0,385.0
2022-02-02-16:28:01.909596,5.0,5.0,385.0
2022-02-02-16:28:01.910593,0.0,8.0,385.0
2022-02-02-16:28:01.911592,3.0,4.0,385.0
2022-02-02-16:28:01.912588,5.0,5.0,385.0
2022-02-02-16:28:01.913586,5.0,2.0,385.0
2022-02-02-16:28:01.914585,11.0,2.0,384.0
2022-02-02-16:28:01.915581,8.0,7.0,385.0
2022-02-02-16:28:01.916577,8.0,10.0,385.0
2022-02-02-16:28:01.918572,1.0,17.0,385.0
2022-02-02-16:28:01.919522,5.0,5.0,384.0
2022-02-02-16:28:01.919522,6.0,2.0,385.0
2022-02-02-16:28:01.920566,6.0,2.0,385.0
2022-02-02-16:28:01.921564,12.0,6.0,385.0
2022-02-02-16:28:01.922564,7.0,0.0,385.0
2022-02-02-16:28:01.923816,3.0,16.0,385.0
2022-02-02-16:28:01.923816,3.0,12.0,385.0
2022-02-02-16:28:01.924867,6.0,7.0,385.0
2022-02-02-16:28:01.925860,0.0,3.0,385.0
2022-02-02-16:28:01.926809,1.0,2.0,385.0
2022-02-02-16:28:01.927849,9.0,6.0,385.0
2022-02-02-16:28:01.928379,10.0,5.0,385.0
2022-02-02-16:28:01.928379,5.0,4.0,385.0
2022-02-02-16:28:01.929428,2.0,15.0,385.0
2022-02-02-16:28:01.930423,2.0,13.0,385.0
2022-02-02-16:28:01.931420,5.0,2.0,385.0
2022-02-02-16:28:01.932419,6.0,7.0,385.0
2022-02-02-16:28:01.933420,6.0,6.0,385.0
2022-02-02-16:28:01.934412,4.0,2.0,385.0
2022-02-02-16:28:01.935362,5.0,6.0,385.0
2022-02-02-16:28:01.936406,1.0,15.0,385.0
2022-02-02-16:28:01.937450,3.0,6.0,385.0
2022-02-02-16:28:01.937450,0.0,6.0,385.0
2022-02-02-16:28:01.938550,4.0,6.0,385.0
2022-02-02-16:28:01.938550,8.0,5.0,385.0
2022-02-02-16:28:01.939611,10.0,1.0,385.0
2022-02-02-16:28:01.940594,6.0,10.0,385.0
2022-02-02-16:28:01.941630,4.0,14.0,385.0
2022-02-02-16:28:01.941630,1.0,12.0,385.0
2022-02-02-16:28:01.942676,3.0,8.0,385.0
2022-02-02-16:28:01.943858,0.0,1.0,385.0
2022-02-02-16:28:01.943858,2.0,3.0,385.0
2022-02-02-16:28:01.944903,1.0,6.0,385.0
2022-02-02-16:28:01.945902,7.0,7.0,385.0
2022-02-02-16:28:01.946898,8.0,15.0,385.0
2022-02-02-16:28:01.947895,7.0,7.0,386.0
2022-02-02-16:28:01.948893,6.0,1.0,385.0
2022-02-02-16:28:01.949893,0.0,7.0,385.0
2022-02-02-16:28:01.950889,0.0,12.0,386.0
2022-02-02-16:28:01.951885,3.0,12.0,385.0
2022-02-02-16:28:01.953881,7.0,1.0,385.0
2022-02-02-16:28:01.953881,11.0,3.0,385.0
2022-02-02-16:28:01.954877,11.0,3.0,385.0
2022-02-02-16:28:01.955924,9.0,17.0,385.0
2022-02-02-16:28:01.956402,2.0,14.0,385.0
2022-02-02-16:28:01.956402,5.0,2.0,385.0
2022-02-02-16:28:01.957452,3.0,3.0,385.0
2022-02-02-16:28:01.958446,7.0,2.0,385.0
2022-02-02-16:28:01.959444,6.0,0.0,385.0
2022-02-02-16:28:01.960441,7.0,8.0,385.0
2022-02-02-16:28:01.961438,4.0,9.0,386.0
2022-02-02-16:28:01.962435,9.0,1.0,385.0
2022-02-02-16:28:01.963433,3.0,12.0,386.0
2022-02-02-16:28:01.964430,1.0,2.0,385.0
2022-02-02-16:28:01.965464,4.0,14.0,385.0
2022-02-02-16:28:01.965921,3.0,3.0,385.0
2022-02-02-16:28:01.965921,2.0,0.0,385.0
2022-02-02-16:28:01.966967,7.0,9.0,385.0
2022-02-02-16:28:01.967968,12.0,7.0,385.0
2022-02-02-16:28:01.968962,9.0,2.0,385.0
2022-02-02-16:28:01.969962,1.0,12.0,385.0
2022-02-02-16:28:01.970936,3.0,7.0,385.0
2022-02-02-16:28:01.971953,6.0,3.0,385.0
2022-02-02-16:28:01.972953,7.0,6.0,386.0
2022-02-02-16:28:01.973948,12.0,7.0,385.0
2022-02-02-16:28:01.974983,11.0,5.0,386.0
2022-02-02-16:28:01.975430,5.0,2.0,385.0
2022-02-02-16:28:01.975430,8.0,4.0,385.0
2022-02-02-16:28:01.976476,5.0,15.0,385.0
2022-02-02-16:28:01.977475,8.0,3.0,385.0
2022-02-02-16:28:01.978473,4.0,12.0,385.0
2022-02-02-16:28:01.979468,10.0,23.0,385.0
2022-02-02-16:28:01.980445,7.0,2.0,385.0
2022-02-02-16:28:01.981463,10.0,10.0,385.0
2022-02-02-16:28:01.982463,9.0,3.0,385.0
2022-02-02-16:28:01.983457,3.0,2.0,385.0
2022-02-02-16:28:01.984455,6.0,17.0,385.0
2022-02-02-16:28:01.986403,3.0,21.0,386.0
2022-02-02-16:28:01.986403,2.0,3.0,385.0
2022-02-02-16:28:01.987400,7.0,11.0,386.0
2022-02-02-16:28:01.988444,11.0,2.0,385.0
2022-02-02-16:28:01.989476,4.0,2.0,385.0
2022-02-02-16:28:01.989950,1.0,21.0,385.0
2022-02-02-16:28:01.989950,2.0,35.0,385.0
2022-02-02-16:28:01.990996,0.0,5.0,385.0
2022-02-02-16:28:01.991993,3.0,8.0,385.0
2022-02-02-16:28:01.992993,4.0,3.0,385.0
2022-02-02-16:28:01.993988,8.0,23.0,385.0
2022-02-02-16:28:01.994965,0.0,9.0,385.0
2022-02-02-16:28:01.995982,4.0,10.0,385.0
2022-02-02-16:28:01.996979,4.0,8.0,385.0
2022-02-02-16:28:01.997977,6.0,16.0,385.0
2022-02-02-16:28:01.999025,3.0,7.0,386.0
2022-02-02-16:28:01.999473,6.0,6.0,385.0
2022-02-02-16:28:01.999473,9.0,12.0,385.0
2022-02-02-16:28:02.000518,7.0,8.0,385.0
2022-02-02-16:28:02.001516,8.0,0.0,385.0
2022-02-02-16:28:02.002521,1.0,13.0,386.0
2022-02-02-16:28:02.003489,1.0,2.0,385.0
2022-02-02-16:28:02.004508,4.0,0.0,385.0
2022-02-02-16:28:02.005459,8.0,3.0,385.0
2022-02-02-16:28:02.006480,9.0,1.0,385.0
2022-02-02-16:28:02.007500,3.0,12.0,385.0
2022-02-02-16:28:02.008476,3.0,6.0,385.0
2022-02-02-16:28:02.009495,3.0,8.0,385.0
2022-02-02-16:28:02.010494,3.0,1.0,385.0
2022-02-02-16:28:02.011490,7.0,6.0,385.0
2022-02-02-16:28:02.012487,13.0,4.0,385.0
2022-02-02-16:28:02.013486,8.0,8.0,385.0
2022-02-02-16:28:02.014482,7.0,3.0,385.0
2022-02-02-16:28:02.015480,1.0,8.0,385.0
2022-02-02-16:28:02.016476,1.0,13.0,385.0
2022-02-02-16:28:02.017521,8.0,23.0,385.0
2022-02-02-16:28:02.017975,3.0,9.0,385.0
2022-02-02-16:28:02.017975,4.0,1.0,385.0
2022-02-02-16:28:02.019020,3.0,0.0,385.0
2022-02-02-16:28:02.020021,3.0,0.0,385.0
2022-02-02-16:28:02.021015,4.0,3.0,385.0
2022-02-02-16:28:02.022964,8.0,8.0,385.0
2022-02-02-16:28:02.023935,5.0,1.0,385.0
2022-02-02-16:28:02.024020,8.0,14.0,386.0
2022-02-02-16:28:02.024020,5.0,19.0,385.0
2022-02-02-16:28:02.025066,5.0,19.0,385.0
2022-02-02-16:28:02.026063,5.0,19.0,385.0
2022-02-02-16:28:02.027014,5.0,19.0,385.0
2022-02-02-16:28:02.028065,5.0,19.0,385.0
2022-02-02-16:28:02.029055,2.0,18.0,385.0
2022-02-02-16:28:02.030053,3.0,10.0,385.0
2022-02-02-16:28:02.031104,2.0,11.0,385.0
2022-02-02-16:28:02.031104,2.0,11.0,385.0
2022-02-02-16:28:02.032152,2.0,11.0,385.0
2022-02-02-16:28:02.033330,1.0,3.0,385.0
2022-02-02-16:28:02.033330,2.0,1.0,386.0
2022-02-02-16:28:02.034380,6.0,2.0,385.0
2022-02-02-16:28:02.035418,6.0,2.0,385.0
2022-02-02-16:28:02.035418,6.0,2.0,385.0
2022-02-02-16:28:02.036648,6.0,2.0,385.0
2022-02-02-16:28:02.036648,5.0,1.0,385.0
2022-02-02-16:28:02.037695,10.0,11.0,385.0
2022-02-02-16:28:02.038675,9.0,9.0,385.0
2022-02-02-16:28:02.039691,9.0,9.0,385.0
2022-02-02-16:28:02.040667,11.0,7.0,385.0
2022-02-02-16:28:02.041684,9.0,4.0,385.0
2022-02-02-16:28:02.042682,7.0,2.0,386.0
2022-02-02-16:28:02.043681,5.0,6.0,385.0
2022-02-02-16:28:02.044841,5.0,6.0,385.0
2022-02-02-16:28:02.044841,2.0,13.0,385.0
2022-02-02-16:28:02.045887,1.0,19.0,385.0
2022-02-02-16:28:02.046884,1.0,13.0,385.0
2022-02-02-16:28:02.047881,1.0,13.0,385.0
2022-02-02-16:28:02.048879,1.0,13.0,385.0
2022-02-02-16:28:02.049876,2.0,6.0,385.0
2022-02-02-16:28:02.050873,5.0,10.0,385.0
2022-02-02-16:28:02.051873,5.0,10.0,385.0
2022-02-02-16:28:02.052868,5.0,10.0,385.0
2022-02-02-16:28:02.053865,5.0,7.0,385.0
2022-02-02-16:28:02.054863,7.0,3.0,385.0
2022-02-02-16:28:02.055814,9.0,4.0,386.0
2022-02-02-16:28:02.056857,9.0,4.0,386.0
2022-02-02-16:28:02.057854,7.0,2.0,385.0
2022-02-02-16:28:02.058901,7.0,1.0,385.0
2022-02-02-16:28:02.059410,7.0,5.0,385.0
2022-02-02-16:28:02.060409,7.0,5.0,385.0
2022-02-02-16:28:02.060409,2.0,12.0,385.0
2022-02-02-16:28:02.061539,5.0,6.0,386.0
2022-02-02-16:28:02.061539,4.0,5.0,385.0
2022-02-02-16:28:02.062585,4.0,5.0,385.0
2022-02-02-16:28:02.063583,4.0,5.0,385.0
2022-02-02-16:28:02.064739,4.0,5.0,385.0
2022-02-02-16:28:02.064739,1.0,9.0,385.0
2022-02-02-16:28:02.065763,1.0,9.0,385.0
2022-02-02-16:28:02.066763,1.0,3.0,385.0
2022-02-02-16:28:02.067830,1.0,3.0,385.0
2022-02-02-16:28:02.067830,1.0,3.0,385.0
2022-02-02-16:28:02.069053,1.0,3.0,385.0
2022-02-02-16:28:02.069053,5.0,4.0,385.0
2022-02-02-16:28:02.070076,5.0,4.0,385.0
2022-02-02-16:28:02.071073,10.0,4.0,385.0
2022-02-02-16:28:02.072047,10.0,4.0,385.0
2022-02-02-16:28:02.073068,10.0,4.0,385.0
2022-02-02-16:28:02.074071,11.0,3.0,385.0
2022-02-02-16:28:02.075063,1.0,6.0,385.0
2022-02-02-16:28:02.076060,1.0,6.0,385.0
2022-02-02-16:28:02.077062,1.0,6.0,385.0
2022-02-02-16:28:02.078056,2.0,12.0,385.0
2022-02-02-16:28:02.079052,0.0,13.0,385.0
2022-02-02-16:28:02.080049,1.0,8.0,385.0
2022-02-02-16:28:02.081047,1.0,8.0,385.0
2022-02-02-16:28:02.082046,4.0,9.0,385.0
2022-02-02-16:28:02.083042,5.0,7.0,385.0
2022-02-02-16:28:02.084039,6.0,7.0,385.0
2022-02-02-16:28:02.085012,6.0,7.0,385.0
2022-02-02-16:28:02.086034,7.0,8.0,385.0
2022-02-02-16:28:02.087032,5.0,4.0,386.0
2022-02-02-16:28:02.088034,10.0,7.0,386.0
2022-02-02-16:28:02.089007,10.0,7.0,386.0
2022-02-02-16:28:02.090026,9.0,10.0,385.0
2022-02-02-16:28:02.091021,9.0,0.0,385.0
2022-02-02-16:28:02.092017,7.0,4.0,385.0
2022-02-02-16:28:02.094012,7.0,4.0,385.0
2022-02-02-16:28:02.094012,3.0,18.0,385.0
2022-02-02-16:28:02.095010,1.0,9.0,385.0
2022-02-02-16:28:02.096011,1.0,9.0,385.0
2022-02-02-16:28:02.097005,1.0,9.0,385.0
2022-02-02-16:28:02.098004,1.0,9.0,385.0
2022-02-02-16:28:02.098999,2.0,9.0,385.0
2022-02-02-16:28:02.099998,4.0,7.0,385.0
2022-02-02-16:28:02.100996,4.0,7.0,385.0
2022-02-02-16:28:02.101995,4.0,7.0,385.0
2022-02-02-16:28:02.102989,6.0,3.0,386.0
2022-02-02-16:28:02.103985,5.0,2.0,385.0
2022-02-02-16:28:02.104983,5.0,2.0,385.0
2022-02-02-16:28:02.105984,5.0,2.0,385.0
2022-02-02-16:28:02.106978,6.0,6.0,385.0
2022-02-02-16:28:02.107976,9.0,1.0,385.0
2022-02-02-16:28:02.108976,6.0,3.0,385.0
2022-02-02-16:28:02.109970,6.0,3.0,385.0
2022-02-02-16:28:02.110967,1.0,16.0,385.0
2022-02-02-16:28:02.111963,6.0,6.0,385.0
2022-02-02-16:28:02.112961,6.0,6.0,385.0
2022-02-02-16:28:02.113962,6.0,6.0,385.0
2022-02-02-16:28:02.114956,1.0,5.0,385.0
2022-02-02-16:28:02.115957,2.0,4.0,385.0
2022-02-02-16:28:02.116953,5.0,2.0,385.0
2022-02-02-16:28:02.117948,5.0,2.0,385.0
2022-02-02-16:28:02.118948,6.0,4.0,385.0
2022-02-02-16:28:02.119918,4.0,6.0,385.0
2022-02-02-16:28:02.120916,8.0,3.0,385.0
2022-02-02-16:28:02.121914,8.0,3.0,385.0
2022-02-02-16:28:02.122935,9.0,4.0,385.0
2022-02-02-16:28:02.123933,4.0,1.0,385.0
2022-02-02-16:28:02.124931,4.0,1.0,385.0
2022-02-02-16:28:02.125904,4.0,1.0,385.0
2022-02-02-16:28:02.127898,3.0,11.0,385.0
2022-02-02-16:28:02.127898,0.0,14.0,385.0
2022-02-02-16:28:02.128920,0.0,14.0,385.0
2022-02-02-16:28:02.129911,0.0,14.0,385.0
2022-02-02-16:28:02.130913,0.0,8.0,385.0
2022-02-02-16:28:02.131911,5.0,7.0,385.0
2022-02-02-16:28:02.132911,5.0,8.0,385.0
2022-02-02-16:28:02.133905,5.0,8.0,385.0
2022-02-02-16:28:02.134903,5.0,8.0,385.0
2022-02-02-16:28:02.135877,6.0,3.0,385.0
2022-02-02-16:28:02.136905,0.0,3.0,385.0
2022-02-02-16:28:02.137871,8.0,7.0,385.0
2022-02-02-16:28:02.138873,8.0,7.0,385.0
2022-02-02-16:28:02.139865,4.0,8.0,385.0
2022-02-02-16:28:02.140863,8.0,2.0,385.0
2022-02-02-16:28:02.141894,8.0,2.0,385.0
2022-02-02-16:28:02.142891,8.0,2.0,385.0
2022-02-02-16:28:02.143898,6.0,14.0,385.0
2022-02-02-16:28:02.144886,2.0,12.0,385.0
2022-02-02-16:28:02.145887,2.0,12.0,385.0
2022-02-02-16:28:02.146880,2.0,12.0,385.0
2022-02-02-16:28:02.147878,0.0,9.0,385.0
2022-02-02-16:28:02.148876,1.0,0.0,385.0
2022-02-02-16:28:02.149872,1.0,0.0,385.0
2022-02-02-16:28:02.150870,1.0,0.0,385.0
2022-02-02-16:28:02.151834,8.0,7.0,385.0
2022-02-02-16:28:02.152865,7.0,2.0,385.0
2022-02-02-16:28:02.153862,9.0,5.0,385.0
2022-02-02-16:28:02.154860,9.0,5.0,385.0
2022-02-02-16:28:02.155823,7.0,7.0,385.0
2022-02-02-16:28:02.156858,6.0,1.0,385.0
2022-02-02-16:28:02.157852,6.0,1.0,385.0
2022-02-02-16:28:02.158849,6.0,1.0,385.0
2022-02-02-16:28:02.159850,6.0,5.0,385.0
2022-02-02-16:28:02.160844,4.0,12.0,385.0
2022-02-02-16:28:02.161842,1.0,16.0,385.0
2022-02-02-16:28:02.163802,1.0,16.0,385.0
2022-02-02-16:28:02.163802,4.0,4.0,385.0
2022-02-02-16:28:02.164833,5.0,4.0,385.0
2022-02-02-16:28:02.165828,5.0,4.0,385.0
2022-02-02-16:28:02.166796,5.0,4.0,385.0
2022-02-02-16:28:02.167827,4.0,2.0,385.0
2022-02-02-16:28:02.168820,5.0,3.0,385.0
2022-02-02-16:28:02.169820,5.0,1.0,385.0
2022-02-02-16:28:02.170815,5.0,1.0,385.0
2022-02-02-16:28:02.171812,5.0,1.0,385.0
2022-02-02-16:28:02.172778,7.0,5.0,385.0
2022-02-02-16:28:02.173808,11.0,5.0,385.0
2022-02-02-16:28:02.174807,11.0,5.0,385.0
2022-02-02-16:28:02.175805,11.0,5.0,385.0
2022-02-02-16:28:02.176766,7.0,5.0,385.0
2022-02-02-16:28:02.177765,4.0,14.0,385.0
2022-02-02-16:28:02.178793,0.0,13.0,385.0
2022-02-02-16:28:02.179791,0.0,13.0,385.0
2022-02-02-16:28:02.180792,3.0,8.0,385.0
2022-02-02-16:28:02.181786,4.0,7.0,385.0
2022-02-02-16:28:02.182783,4.0,7.0,385.0
2022-02-02-16:28:02.183785,4.0,7.0,385.0
2022-02-02-16:28:02.184782,3.0,1.0,385.0
2022-02-02-16:28:02.185777,3.0,3.0,385.0
2022-02-02-16:28:02.186772,3.0,3.0,385.0
2022-02-02-16:28:02.187770,3.0,3.0,385.0
2022-02-02-16:28:02.188769,9.0,7.0,385.0
2022-02-02-16:28:02.189765,7.0,3.0,385.0
2022-02-02-16:28:02.190761,7.0,3.0,385.0
2022-02-02-16:28:02.191763,7.0,3.0,385.0
2022-02-02-16:28:02.192760,7.0,11.0,385.0
2022-02-02-16:28:02.193756,0.0,19.0,385.0
2022-02-02-16:28:02.194751,0.0,19.0,385.0
2022-02-02-16:28:02.196714,0.0,19.0,385.0
2022-02-02-16:28:02.196714,0.0,17.0,385.0
2022-02-02-16:28:02.197711,0.0,17.0,385.0
2022-02-02-16:28:02.198740,1.0,4.0,385.0
2022-02-02-16:28:02.199706,1.0,4.0,385.0
2022-02-02-16:28:02.200735,5.0,4.0,385.0
2022-02-02-16:28:02.201734,3.0,7.0,385.0
2022-02-02-16:28:02.202729,3.0,7.0,385.0
2022-02-02-16:28:02.203695,3.0,7.0,385.0
2022-02-02-16:28:02.204727,9.0,2.0,385.0
2022-02-02-16:28:02.205703,10.0,4.0,385.0
2022-02-02-16:28:02.206718,10.0,4.0,385.0
2022-02-02-16:28:02.207720,10.0,4.0,385.0
2022-02-02-16:28:02.208714,6.0,3.0,385.0
2022-02-02-16:28:02.209717,0.0,15.0,386.0
2022-02-02-16:28:02.210709,0.0,15.0,386.0
2022-02-02-16:28:02.211705,0.0,15.0,386.0
2022-02-02-16:28:02.212705,0.0,15.0,386.0
2022-02-02-16:28:02.213702,1.0,3.0,385.0
2022-02-02-16:28:02.214721,1.0,3.0,385.0
2022-02-02-16:28:02.215721,1.0,3.0,385.0
2022-02-02-16:28:02.216914,1.0,3.0,385.0
2022-02-02-16:28:02.216914,6.0,4.0,385.0
2022-02-02-16:28:02.217967,3.0,1.0,385.0
2022-02-02-16:28:02.219063,9.0,3.0,386.0
2022-02-02-16:28:02.219063,9.0,3.0,386.0
2022-02-02-16:28:02.220096,9.0,3.0,386.0
2022-02-02-16:28:02.221114,7.0,5.0,385.0
2022-02-02-16:28:02.222103,9.0,2.0,385.0
2022-02-02-16:28:02.223088,9.0,2.0,385.0
2022-02-02-16:28:02.224106,9.0,2.0,385.0
2022-02-02-16:28:02.225095,9.0,2.0,385.0
2022-02-02-16:28:02.226095,6.0,2.0,385.0
2022-02-02-16:28:02.227044,0.0,16.0,385.0
2022-02-02-16:28:02.228090,0.0,16.0,385.0
2022-02-02-16:28:02.230083,0.0,16.0,385.0
2022-02-02-16:28:02.231033,3.0,8.0,385.0
2022-02-02-16:28:02.231161,4.0,3.0,385.0
2022-02-02-16:28:02.231161,4.0,3.0,385.0
2022-02-02-16:28:02.232215,4.0,3.0,385.0
2022-02-02-16:28:02.233215,4.0,3.0,385.0
2022-02-02-16:28:02.234211,3.0,3.0,386.0
2022-02-02-16:28:02.235428,0.0,2.0,385.0
2022-02-02-16:28:02.235575,3.0,4.0,385.0
2022-02-02-16:28:02.235575,3.0,4.0,385.0
2022-02-02-16:28:02.236811,3.0,4.0,385.0
2022-02-02-16:28:02.236811,7.0,1.0,385.0
2022-02-02-16:28:02.237866,8.0,10.0,385.0
2022-02-02-16:28:02.238855,9.0,2.0,385.0
2022-02-02-16:28:02.239839,9.0,2.0,385.0
2022-02-02-16:28:02.240860,9.0,2.0,385.0
2022-02-02-16:28:02.241858,8.0,1.0,385.0
2022-02-02-16:28:02.242852,6.0,8.0,386.0
2022-02-02-16:28:02.243852,0.0,14.0,385.0
2022-02-02-16:28:02.244792,0.0,14.0,385.0
2022-02-02-16:28:02.245836,5.0,15.0,386.0
2022-02-02-16:28:02.246833,7.0,12.0,385.0
2022-02-02-16:28:02.247830,5.0,4.0,385.0
2022-02-02-16:28:02.249046,5.0,4.0,385.0
2022-02-02-16:28:02.249046,3.0,1.0,385.0
2022-02-02-16:28:02.250092,2.0,3.0,385.0
2022-02-02-16:28:02.251092,1.0,1.0,385.0
2022-02-02-16:28:02.252087,1.0,1.0,385.0
2022-02-02-16:28:02.253129,1.0,1.0,385.0
2022-02-02-16:28:02.253129,7.0,2.0,385.0
2022-02-02-16:28:02.254185,9.0,2.0,385.0
2022-02-02-16:28:02.255180,9.0,1.0,385.0
2022-02-02-16:28:02.256183,9.0,1.0,385.0
2022-02-02-16:28:02.257177,9.0,1.0,385.0
2022-02-02-16:28:02.258154,5.0,11.0,385.0
2022-02-02-16:28:02.259163,8.0,10.0,385.0
2022-02-02-16:28:02.260153,6.0,19.0,385.0
2022-02-02-16:28:02.261175,6.0,19.0,385.0
2022-02-02-16:28:02.262155,1.0,16.0,385.0
2022-02-02-16:28:02.263154,1.0,16.0,385.0
2022-02-02-16:28:02.265132,0.0,7.0,386.0
2022-02-02-16:28:02.265132,0.0,4.0,385.0
2022-02-02-16:28:02.266146,5.0,3.0,386.0
2022-02-02-16:28:02.267140,4.0,3.0,385.0
2022-02-02-16:28:02.268139,4.0,3.0,385.0
2022-02-02-16:28:02.269136,4.0,3.0,385.0
2022-02-02-16:28:02.270132,4.0,3.0,385.0
2022-02-02-16:28:02.271130,10.0,6.0,385.0
2022-02-02-16:28:02.272127,6.0,6.0,385.0
2022-02-02-16:28:02.273127,6.0,6.0,385.0
2022-02-02-16:28:02.274125,6.0,6.0,385.0
2022-02-02-16:28:02.275118,6.0,5.0,385.0
2022-02-02-16:28:02.276096,7.0,12.0,386.0
2022-02-02-16:28:02.277130,7.0,12.0,386.0
2022-02-02-16:28:02.278118,7.0,12.0,386.0
2022-02-02-16:28:02.279088,1.0,13.0,385.0
2022-02-02-16:28:02.280106,0.0,9.0,385.0
2022-02-02-16:28:02.281103,0.0,9.0,385.0
2022-02-02-16:28:02.282083,6.0,5.0,385.0
2022-02-02-16:28:02.283098,6.0,5.0,385.0
2022-02-02-16:28:02.284095,6.0,5.0,385.0
2022-02-02-16:28:02.285092,6.0,5.0,385.0
2022-02-02-16:28:02.286089,6.0,5.0,385.0
2022-02-02-16:28:02.287087,4.0,4.0,385.0
2022-02-02-16:28:02.288289,9.0,16.0,385.0
2022-02-02-16:28:02.288289,12.0,19.0,385.0
2022-02-02-16:28:02.289289,12.0,19.0,385.0
2022-02-02-16:28:02.290324,12.0,19.0,385.0
2022-02-02-16:28:02.291316,7.0,14.0,385.0
2022-02-02-16:28:02.292315,2.0,1.0,385.0
2022-02-02-16:28:02.293310,2.0,1.0,385.0
2022-02-02-16:28:02.294308,2.0,1.0,385.0
2022-02-02-16:28:02.295307,1.0,16.0,386.0
2022-02-02-16:28:02.296303,1.0,32.0,385.0
2022-02-02-16:28:02.297358,1.0,32.0,385.0
2022-02-02-16:28:02.298406,1.0,32.0,385.0
2022-02-02-16:28:02.298406,6.0,11.0,386.0
2022-02-02-16:28:02.299355,1.0,3.0,385.0
2022-02-02-16:28:02.300399,1.0,3.0,385.0
2022-02-02-16:28:02.301396,1.0,3.0,385.0
2022-02-02-16:28:02.302394,1.0,3.0,385.0
2022-02-02-16:28:02.303621,2.0,1.0,385.0
2022-02-02-16:28:02.303621,9.0,9.0,385.0
2022-02-02-16:28:02.304654,9.0,9.0,385.0
2022-02-02-16:28:02.305619,6.0,7.0,385.0
2022-02-02-16:28:02.306616,6.0,7.0,385.0
2022-02-02-16:28:02.307646,10.0,6.0,385.0
2022-02-02-16:28:02.308643,9.0,2.0,385.0
2022-02-02-16:28:02.309720,5.0,4.0,385.0
2022-02-02-16:28:02.309720,5.0,4.0,385.0
2022-02-02-16:28:02.310956,5.0,4.0,385.0
2022-02-02-16:28:02.310956,0.0,11.0,385.0
2022-02-02-16:28:02.311989,3.0,11.0,385.0
2022-02-02-16:28:02.312985,3.0,11.0,385.0
2022-02-02-16:28:02.314036,3.0,11.0,385.0
2022-02-02-16:28:02.314588,3.0,11.0,385.0
2022-02-02-16:28:02.314588,6.0,3.0,385.0
2022-02-02-16:28:02.315619,8.0,5.0,385.0
2022-02-02-16:28:02.316617,8.0,5.0,385.0
2022-02-02-16:28:02.317618,8.0,5.0,385.0
2022-02-02-16:28:02.318814,8.0,5.0,385.0
2022-02-02-16:28:02.318814,7.0,0.0,385.0
2022-02-02-16:28:02.319848,7.0,0.0,385.0
2022-02-02-16:28:02.320842,8.0,9.0,385.0
2022-02-02-16:28:02.321842,8.0,9.0,385.0
2022-02-02-16:28:02.322806,8.0,9.0,385.0
2022-02-02-16:28:02.323834,8.0,12.0,385.0
2022-02-02-16:28:02.324834,7.0,1.0,385.0
2022-02-02-16:28:02.325829,7.0,6.0,385.0
2022-02-02-16:28:02.326795,7.0,6.0,385.0
2022-02-02-16:28:02.327819,3.0,10.0,385.0
2022-02-02-16:28:02.328814,0.0,11.0,385.0
2022-02-02-16:28:02.329821,3.0,10.0,385.0
2022-02-02-16:28:02.330784,3.0,10.0,385.0
2022-02-02-16:28:02.331813,7.0,8.0,385.0
2022-02-02-16:28:02.332805,3.0,4.0,385.0
2022-02-02-16:28:02.334773,3.0,4.0,385.0
2022-02-02-16:28:02.334773,3.0,2.0,386.0
2022-02-02-16:28:02.335798,10.0,4.0,385.0
2022-02-02-16:28:02.336792,10.0,4.0,385.0
2022-02-02-16:28:02.337799,10.0,4.0,385.0
2022-02-02-16:28:02.338794,10.0,4.0,385.0
2022-02-02-16:28:02.339865,12.0,4.0,385.0
2022-02-02-16:28:02.340230,10.0,1.0,385.0
2022-02-02-16:28:02.340230,5.0,6.0,385.0
2022-02-02-16:28:02.341277,5.0,6.0,385.0
2022-02-02-16:28:02.342276,5.0,6.0,385.0
2022-02-02-16:28:02.343270,5.0,6.0,385.0
2022-02-02-16:28:02.344221,3.0,9.0,386.0
2022-02-02-16:28:02.345272,3.0,9.0,386.0
2022-02-02-16:28:02.346262,3.0,9.0,386.0
2022-02-02-16:28:02.347262,3.0,9.0,386.0
2022-02-02-16:28:02.348674,3.0,5.0,385.0
2022-02-02-16:28:02.348674,5.0,0.0,385.0
2022-02-02-16:28:02.349709,5.0,0.0,385.0
2022-02-02-16:28:02.350703,5.0,0.0,385.0
2022-02-02-16:28:02.351708,5.0,0.0,385.0
2022-02-02-16:28:02.352702,6.0,0.0,385.0
2022-02-02-16:28:02.353695,6.0,1.0,386.0
2022-02-02-16:28:02.354825,10.0,6.0,385.0
2022-02-02-16:28:02.354825,10.0,6.0,385.0
2022-02-02-16:28:02.355824,10.0,6.0,385.0
2022-02-02-16:28:02.357017,9.0,2.0,385.0
2022-02-02-16:28:02.357017,8.0,18.0,386.0
2022-02-02-16:28:02.358166,8.0,18.0,386.0
2022-02-02-16:28:02.358166,8.0,18.0,386.0
2022-02-02-16:28:02.359215,8.0,18.0,386.0
2022-02-02-16:28:02.360212,8.0,18.0,386.0
2022-02-02-16:28:02.361207,4.0,17.0,385.0
2022-02-02-16:28:02.362204,3.0,15.0,385.0
2022-02-02-16:28:02.363201,6.0,13.0,385.0
2022-02-02-16:28:02.364201,6.0,13.0,385.0
2022-02-02-16:28:02.365203,1.0,9.0,385.0
2022-02-02-16:28:02.366194,1.0,9.0,385.0
2022-02-02-16:28:02.368190,6.0,0.0,385.0
2022-02-02-16:28:02.368190,3.0,0.0,385.0
2022-02-02-16:28:02.369203,5.0,2.0,385.0
2022-02-02-16:28:02.369203,5.0,2.0,385.0
2022-02-02-16:28:02.370226,5.0,2.0,385.0
2022-02-02-16:28:02.371250,5.0,2.0,385.0
2022-02-02-16:28:02.372249,5.0,2.0,385.0
2022-02-02-16:28:02.373248,7.0,2.0,385.0
2022-02-02-16:28:02.374263,6.0,9.0,385.0
2022-02-02-16:28:02.375261,6.0,9.0,385.0
2022-02-02-16:28:02.376429,6.0,9.0,385.0
2022-02-02-16:28:02.376429,3.0,3.0,385.0
2022-02-02-16:28:02.377462,3.0,3.0,385.0
2022-02-02-16:28:02.378578,1.0,11.0,385.0
2022-02-02-16:28:02.378578,0.0,11.0,385.0
2022-02-02-16:28:02.379635,0.0,11.0,385.0
2022-02-02-16:28:02.380630,0.0,11.0,385.0
2022-02-02-16:28:02.381626,5.0,23.0,385.0
2022-02-02-16:28:02.382624,5.0,23.0,385.0
2022-02-02-16:28:02.383623,5.0,10.0,385.0
2022-02-02-16:28:02.384807,5.0,10.0,385.0
2022-02-02-16:28:02.384807,1.0,7.0,385.0
2022-02-02-16:28:02.385838,1.0,7.0,385.0
2022-02-02-16:28:02.386941,7.0,2.0,386.0
2022-02-02-16:28:02.386941,7.0,2.0,386.0
2022-02-02-16:28:02.387985,7.0,2.0,386.0
2022-02-02-16:28:02.388987,8.0,5.0,386.0
2022-02-02-16:28:02.389991,8.0,5.0,385.0
2022-02-02-16:28:02.390988,12.0,1.0,386.0
2022-02-02-16:28:02.391986,12.0,1.0,386.0
2022-02-02-16:28:02.393029,12.0,1.0,386.0
2022-02-02-16:28:02.393029,2.0,13.0,385.0
2022-02-02-16:28:02.394062,2.0,13.0,385.0
2022-02-02-16:28:02.395129,1.0,16.0,385.0
2022-02-02-16:28:02.395129,1.0,16.0,385.0
2022-02-02-16:28:02.396336,1.0,16.0,385.0
2022-02-02-16:28:02.396336,0.0,10.0,385.0
2022-02-02-16:28:02.397369,0.0,10.0,385.0
2022-02-02-16:28:02.398365,3.0,5.0,385.0
2022-02-02-16:28:02.399362,3.0,5.0,385.0
2022-02-02-16:28:02.400534,3.0,5.0,385.0
2022-02-02-16:28:02.401583,3.0,5.0,385.0
2022-02-02-16:28:02.401583,5.0,2.0,385.0
2022-02-02-16:28:02.402577,5.0,2.0,385.0
2022-02-02-16:28:02.403614,5.0,2.0,385.0
2022-02-02-16:28:02.403614,5.0,2.0,385.0
2022-02-02-16:28:02.404668,5.0,2.0,385.0
2022-02-02-16:28:02.405646,7.0,6.0,385.0
2022-02-02-16:28:02.406668,10.0,6.0,385.0
2022-02-02-16:28:02.407665,10.0,6.0,385.0
2022-02-02-16:28:02.408662,10.0,6.0,385.0
2022-02-02-16:28:02.409655,5.0,3.0,385.0
2022-02-02-16:28:02.410652,7.0,4.0,385.0
2022-02-02-16:28:02.411650,1.0,18.0,385.0
2022-02-02-16:28:02.412637,1.0,18.0,385.0
2022-02-02-16:28:02.413644,2.0,16.0,386.0
2022-02-02-16:28:02.414642,1.0,5.0,385.0
2022-02-02-16:28:02.415639,3.0,7.0,385.0
2022-02-02-16:28:02.416618,3.0,7.0,385.0
2022-02-02-16:28:02.417611,4.0,1.0,385.0
2022-02-02-16:28:02.418630,4.0,1.0,385.0
2022-02-02-16:28:02.419630,4.0,1.0,385.0
2022-02-02-16:28:02.420626,4.0,1.0,385.0
2022-02-02-16:28:02.421623,4.0,1.0,385.0
2022-02-02-16:28:02.422565,5.0,0.0,385.0
2022-02-02-16:28:02.423563,11.0,1.0,385.0
2022-02-02-16:28:02.424618,11.0,1.0,385.0
2022-02-02-16:28:02.425612,11.0,1.0,385.0
2022-02-02-16:28:02.426609,10.0,2.0,385.0
2022-02-02-16:28:02.427586,9.0,5.0,385.0
2022-02-02-16:28:02.428584,1.0,12.0,385.0
2022-02-02-16:28:02.429581,1.0,12.0,385.0
2022-02-02-16:28:02.430577,4.0,11.0,385.0
2022-02-02-16:28:02.431596,3.0,5.0,385.0
2022-02-02-16:28:02.432596,3.0,5.0,385.0
2022-02-02-16:28:02.433591,3.0,5.0,385.0
2022-02-02-16:28:02.435585,4.0,1.0,385.0
2022-02-02-16:28:02.435585,3.0,5.0,385.0
2022-02-02-16:28:02.436583,3.0,5.0,385.0
2022-02-02-16:28:02.437580,3.0,5.0,385.0
2022-02-02-16:28:02.438578,5.0,0.0,385.0
2022-02-02-16:28:02.439575,11.0,8.0,385.0
2022-02-02-16:28:02.440575,10.0,0.0,385.0
2022-02-02-16:28:02.441569,10.0,0.0,385.0
2022-02-02-16:28:02.442566,5.0,1.0,385.0
2022-02-02-16:28:02.443539,2.0,10.0,385.0
2022-02-02-16:28:02.444561,2.0,8.0,385.0
2022-02-02-16:28:02.445558,2.0,8.0,385.0
2022-02-02-16:28:02.446556,1.0,9.0,385.0
2022-02-02-16:28:02.447553,4.0,6.0,385.0
2022-02-02-16:28:02.448554,2.0,8.0,385.0
2022-02-02-16:28:02.449527,2.0,8.0,385.0
2022-02-02-16:28:02.450526,3.0,4.0,385.0
2022-02-02-16:28:02.451553,6.0,0.0,386.0
2022-02-02-16:28:02.452540,6.0,0.0,386.0
2022-02-02-16:28:02.453536,6.0,0.0,386.0
2022-02-02-16:28:02.454527,10.0,7.0,386.0
2022-02-02-16:28:02.455532,6.0,8.0,386.0
2022-02-02-16:28:02.456518,13.0,4.0,385.0
2022-02-02-16:28:02.456518,13.0,4.0,385.0
2022-02-02-16:28:02.457543,13.0,4.0,385.0
2022-02-02-16:28:02.458543,13.0,4.0,385.0
2022-02-02-16:28:02.459538,5.0,10.0,385.0
2022-02-02-16:28:02.460534,1.0,18.0,385.0
2022-02-02-16:28:02.461556,1.0,18.0,385.0
2022-02-02-16:28:02.461556,1.0,18.0,385.0
2022-02-02-16:28:02.462610,0.0,7.0,385.0
2022-02-02-16:28:02.463608,1.0,4.0,385.0
2022-02-02-16:28:02.464610,1.0,4.0,385.0
2022-02-02-16:28:02.465607,1.0,4.0,385.0
2022-02-02-16:28:02.466602,1.0,4.0,385.0
2022-02-02-16:28:02.467576,7.0,3.0,385.0
2022-02-02-16:28:02.468595,5.0,4.0,385.0
2022-02-02-16:28:02.469593,5.0,4.0,385.0
2022-02-02-16:28:02.471594,5.0,4.0,385.0
2022-02-02-16:28:02.471594,7.0,4.0,385.0
2022-02-02-16:28:02.472531,12.0,8.0,385.0
2022-02-02-16:28:02.473581,10.0,4.0,385.0
2022-02-02-16:28:02.474580,10.0,4.0,385.0
2022-02-02-16:28:02.475576,8.0,3.0,385.0
2022-02-02-16:28:02.476577,3.0,11.0,385.0
2022-02-02-16:28:02.477571,2.0,13.0,385.0
2022-02-02-16:28:02.478568,2.0,13.0,385.0
2022-02-02-16:28:02.479565,0.0,15.0,385.0
2022-02-02-16:28:02.480567,1.0,4.0,385.0
2022-02-02-16:28:02.481560,2.0,4.0,385.0
2022-02-02-16:28:02.482559,2.0,4.0,385.0
2022-02-02-16:28:02.483555,3.0,3.0,385.0
2022-02-02-16:28:02.484556,3.0,3.0,385.0
2022-02-02-16:28:02.485657,3.0,1.0,385.0
2022-02-02-16:28:02.485657,3.0,1.0,385.0
2022-02-02-16:28:02.486704,3.0,1.0,385.0
2022-02-02-16:28:02.487703,7.0,2.0,385.0
2022-02-02-16:28:02.488916,6.0,7.0,385.0
2022-02-02-16:28:02.488916,11.0,2.0,385.0
2022-02-02-16:28:02.490061,11.0,2.0,385.0
2022-02-02-16:28:02.490061,11.0,2.0,385.0
2022-02-02-16:28:02.491107,11.0,2.0,385.0
2022-02-02-16:28:02.492108,9.0,1.0,385.0
2022-02-02-16:28:02.493103,5.0,10.0,386.0
2022-02-02-16:28:02.494099,3.0,14.0,386.0
2022-02-02-16:28:02.495096,3.0,14.0,386.0
2022-02-02-16:28:02.496094,2.0,14.0,385.0
2022-02-02-16:28:02.497092,1.0,12.0,386.0
2022-02-02-16:28:02.498090,2.0,8.0,385.0
2022-02-02-16:28:02.499086,2.0,8.0,385.0
2022-02-02-16:28:02.500087,2.0,4.0,386.0
2022-02-02-16:28:02.501081,2.0,4.0,386.0
2022-02-02-16:28:02.503075,4.0,0.0,385.0
2022-02-02-16:28:02.503725,9.0,6.0,385.0
2022-02-02-16:28:02.503725,14.0,8.0,385.0
2022-02-02-16:28:02.504878,14.0,8.0,385.0
2022-02-02-16:28:02.504878,14.0,8.0,385.0
2022-02-02-16:28:02.505885,14.0,8.0,385.0
2022-02-02-16:28:02.506912,14.0,8.0,385.0
2022-02-02-16:28:02.508236,11.0,5.0,386.0
2022-02-02-16:28:02.508236,3.0,13.0,385.0
2022-02-02-16:28:02.509396,3.0,13.0,385.0
2022-02-02-16:28:02.509396,3.0,13.0,385.0
2022-02-02-16:28:02.510449,3.0,13.0,385.0
2022-02-02-16:28:02.511627,3.0,13.0,385.0
2022-02-02-16:28:02.511627,1.0,18.0,385.0
2022-02-02-16:28:02.512659,1.0,18.0,385.0
2022-02-02-16:28:02.513806,1.0,7.0,385.0
2022-02-02-16:28:02.513806,1.0,7.0,385.0
2022-02-02-16:28:02.514852,1.0,7.0,385.0
2022-02-02-16:28:02.515850,1.0,7.0,385.0
2022-02-02-16:28:02.517195,6.0,2.0,385.0
2022-02-02-16:28:02.517195,5.0,1.0,386.0
2022-02-02-16:28:02.518228,5.0,1.0,386.0
2022-02-02-16:28:02.519192,7.0,3.0,385.0
2022-02-02-16:28:02.520222,10.0,6.0,385.0
2022-02-02-16:28:02.521218,10.0,6.0,385.0
2022-02-02-16:28:02.522216,10.0,6.0,385.0
2022-02-02-16:28:02.523182,10.0,6.0,385.0
2022-02-02-16:28:02.524209,8.0,2.0,385.0
2022-02-02-16:28:02.525200,9.0,0.0,385.0
2022-02-02-16:28:02.526236,4.0,12.0,386.0
2022-02-02-16:28:02.526236,4.0,12.0,386.0
2022-02-02-16:28:02.527447,4.0,12.0,386.0
2022-02-02-16:28:02.527447,2.0,14.0,385.0
2022-02-02-16:28:02.528476,6.0,9.0,385.0
2022-02-02-16:28:02.529468,1.0,10.0,385.0
2022-02-02-16:28:02.530507,1.0,10.0,385.0
2022-02-02-16:28:02.530507,1.0,10.0,385.0
2022-02-02-16:28:02.531531,1.0,10.0,385.0
2022-02-02-16:28:02.532530,4.0,9.0,386.0
2022-02-02-16:28:02.533526,3.0,5.0,385.0
2022-02-02-16:28:02.534523,3.0,5.0,385.0
2022-02-02-16:28:02.536779,3.0,5.0,385.0
2022-02-02-16:28:02.536779,9.0,5.0,385.0
2022-02-02-16:28:02.537809,9.0,5.0,385.0
2022-02-02-16:28:02.538807,9.0,5.0,385.0
2022-02-02-16:28:02.539802,9.0,5.0,385.0
2022-02-02-16:28:02.540799,5.0,3.0,385.0
2022-02-02-16:28:02.541801,5.0,5.0,385.0
2022-02-02-16:28:02.542795,5.0,5.0,385.0
2022-02-02-16:28:02.543959,5.0,5.0,385.0
2022-02-02-16:28:02.543959,3.0,15.0,385.0
2022-02-02-16:28:02.544994,3.0,15.0,385.0
2022-02-02-16:28:02.546094,7.0,11.0,385.0
2022-02-02-16:28:02.546094,7.0,11.0,385.0
2022-02-02-16:28:02.547144,7.0,11.0,385.0
2022-02-02-16:28:02.548341,7.0,11.0,385.0
2022-02-02-16:28:02.548341,6.0,6.0,385.0
2022-02-02-16:28:02.549373,6.0,6.0,385.0
2022-02-02-16:28:02.550372,11.0,1.0,385.0
2022-02-02-16:28:02.551368,11.0,1.0,385.0
2022-02-02-16:28:02.552365,11.0,1.0,385.0
2022-02-02-16:28:02.553363,2.0,8.0,385.0
2022-02-02-16:28:02.554359,6.0,12.0,385.0
2022-02-02-16:28:02.555379,6.0,12.0,385.0
2022-02-02-16:28:02.556323,6.0,12.0,385.0
2022-02-02-16:28:02.557405,9.0,11.0,385.0
2022-02-02-16:28:02.557851,9.0,0.0,385.0
2022-02-02-16:28:02.557985,8.0,1.0,385.0
2022-02-02-16:28:02.557985,8.0,1.0,385.0
2022-02-02-16:28:02.559031,8.0,1.0,385.0
2022-02-02-16:28:02.560233,8.0,1.0,385.0
2022-02-02-16:28:02.560233,7.0,8.0,385.0
2022-02-02-16:28:02.561279,5.0,11.0,385.0
2022-02-02-16:28:02.562277,2.0,8.0,385.0
2022-02-02-16:28:02.563284,2.0,8.0,385.0
2022-02-02-16:28:02.564225,2.0,8.0,385.0
2022-02-02-16:28:02.565277,9.0,6.0,385.0
2022-02-02-16:28:02.566266,8.0,1.0,385.0
2022-02-02-16:28:02.567263,7.0,5.0,385.0
2022-02-02-16:28:02.568238,7.0,5.0,385.0
2022-02-02-16:28:02.569237,6.0,6.0,385.0
2022-02-02-16:28:02.571255,4.0,2.0,385.0
2022-02-02-16:28:02.571255,6.0,6.0,385.0
2022-02-02-16:28:02.572250,6.0,6.0,385.0
2022-02-02-16:28:02.573284,4.0,4.0,385.0
2022-02-02-16:28:02.573284,4.0,4.0,385.0
2022-02-02-16:28:02.574339,4.0,4.0,385.0
2022-02-02-16:28:02.575336,4.0,4.0,385.0
2022-02-02-16:28:02.576333,4.0,4.0,385.0
2022-02-02-16:28:02.577335,4.0,4.0,385.0
2022-02-02-16:28:02.578328,2.0,18.0,385.0
2022-02-02-16:28:02.579327,0.0,21.0,386.0
2022-02-02-16:28:02.580322,0.0,21.0,386.0
2022-02-02-16:28:02.581321,0.0,21.0,386.0
2022-02-02-16:28:02.582317,1.0,7.0,385.0
2022-02-02-16:28:02.583315,1.0,9.0,385.0
2022-02-02-16:28:02.584312,0.0,7.0,385.0
2022-02-02-16:28:02.585314,0.0,7.0,385.0
2022-02-02-16:28:02.586306,3.0,3.0,385.0
2022-02-02-16:28:02.587262,1.0,12.0,385.0
2022-02-02-16:28:02.588279,1.0,12.0,385.0
2022-02-02-16:28:02.589244,1.0,12.0,385.0
2022-02-02-16:28:02.590242,8.0,8.0,386.0
2022-02-02-16:28:02.591272,8.0,8.0,386.0
2022-02-02-16:28:02.592270,8.0,8.0,386.0
2022-02-02-16:28:02.593266,8.0,8.0,386.0
2022-02-02-16:28:02.594263,2.0,13.0,385.0
2022-02-02-16:28:02.595263,1.0,25.0,386.0
2022-02-02-16:28:02.596261,1.0,20.0,385.0
2022-02-02-16:28:02.597258,1.0,20.0,385.0
2022-02-02-16:28:02.598253,2.0,16.0,385.0
2022-02-02-16:28:02.599250,7.0,5.0,385.0
2022-02-02-16:28:02.600249,7.0,6.0,385.0
2022-02-02-16:28:02.601244,7.0,6.0,385.0
2022-02-02-16:28:02.602242,6.0,8.0,385.0
2022-02-02-16:28:02.603241,1.0,3.0,385.0
2022-02-02-16:28:02.605236,4.0,3.0,385.0
2022-02-02-16:28:02.605236,12.0,3.0,385.0
2022-02-02-16:28:02.606239,12.0,3.0,385.0
2022-02-02-16:28:02.607221,5.0,8.0,385.0
2022-02-02-16:28:02.608220,5.0,8.0,385.0
2022-02-02-16:28:02.609245,5.0,8.0,385.0
2022-02-02-16:28:02.610222,5.0,19.0,386.0
2022-02-02-16:28:02.611212,3.0,18.0,385.0
2022-02-02-16:28:02.612208,3.0,18.0,385.0
2022-02-02-16:28:02.613206,3.0,18.0,385.0
2022-02-02-16:28:02.614202,3.0,18.0,385.0
2022-02-02-16:28:02.615199,3.0,7.0,385.0
2022-02-02-16:28:02.616198,1.0,3.0,385.0
2022-02-02-16:28:02.617194,1.0,3.0,385.0
2022-02-02-16:28:02.618192,1.0,2.0,385.0
2022-02-02-16:28:02.619190,8.0,3.0,385.0
2022-02-02-16:28:02.620186,8.0,3.0,385.0
2022-02-02-16:28:02.621185,8.0,3.0,385.0
2022-02-02-16:28:02.622180,8.0,3.0,385.0
2022-02-02-16:28:02.623200,11.0,13.0,386.0
2022-02-02-16:28:02.624204,10.0,15.0,385.0
2022-02-02-16:28:02.625194,11.0,10.0,385.0
2022-02-02-16:28:02.626191,11.0,10.0,385.0
2022-02-02-16:28:02.627191,7.0,11.0,385.0
2022-02-02-16:28:02.628187,6.0,8.0,385.0
2022-02-02-16:28:02.629186,0.0,9.0,385.0
2022-02-02-16:28:02.630181,0.0,9.0,385.0
2022-02-02-16:28:02.631180,5.0,21.0,385.0
2022-02-02-16:28:02.632178,1.0,17.0,385.0
2022-02-02-16:28:02.633172,3.0,16.0,385.0
2022-02-02-16:28:02.634124,3.0,16.0,385.0
2022-02-02-16:28:02.635170,3.0,8.0,385.0
2022-02-02-16:28:02.636165,0.0,1.0,385.0
2022-02-02-16:28:02.637165,4.0,1.0,386.0
2022-02-02-16:28:02.639158,6.0,2.0,385.0
2022-02-02-16:28:02.639158,8.0,0.0,385.0
2022-02-02-16:28:02.640157,8.0,0.0,385.0
2022-02-02-16:28:02.641158,8.0,0.0,385.0
2022-02-02-16:28:02.642149,8.0,0.0,385.0
2022-02-02-16:28:02.643149,7.0,1.0,385.0
2022-02-02-16:28:02.644097,4.0,15.0,385.0
2022-02-02-16:28:02.645141,3.0,18.0,385.0
2022-02-02-16:28:02.646148,3.0,18.0,385.0
2022-02-02-16:28:02.647137,1.0,15.0,386.0
2022-02-02-16:28:02.648136,2.0,8.0,385.0
2022-02-02-16:28:02.649109,2.0,8.0,385.0
2022-02-02-16:28:02.650128,2.0,8.0,385.0
2022-02-02-16:28:02.651127,2.0,2.0,385.0
2022-02-02-16:28:02.652122,2.0,2.0,385.0
2022-02-02-16:28:02.653119,2.0,2.0,385.0
2022-02-02-16:28:02.654117,2.0,2.0,385.0
2022-02-02-16:28:02.655114,10.0,2.0,385.0
2022-02-02-16:28:02.656065,10.0,2.0,385.0
2022-02-02-16:28:02.657063,10.0,2.0,385.0
2022-02-02-16:28:02.658107,10.0,2.0,385.0
2022-02-02-16:28:02.659106,10.0,2.0,385.0
2022-02-02-16:28:02.660346,7.0,0.0,385.0
2022-02-02-16:28:02.660346,5.0,12.0,385.0
2022-02-02-16:28:02.661506,5.0,12.0,385.0
2022-02-02-16:28:02.661506,2.0,15.0,386.0
2022-02-02-16:28:02.662560,2.0,15.0,386.0
2022-02-02-16:28:02.663559,2.0,15.0,385.0
2022-02-02-16:28:02.664501,2.0,6.0,385.0
2022-02-02-16:28:02.665664,0.0,2.0,385.0
2022-02-02-16:28:02.665664,0.0,2.0,385.0
2022-02-02-16:28:02.666714,0.0,2.0,385.0
2022-02-02-16:28:02.667707,0.0,4.0,385.0
2022-02-02-16:28:02.668706,5.0,4.0,386.0
2022-02-02-16:28:02.669702,7.0,3.0,386.0
2022-02-02-16:28:02.670703,7.0,3.0,386.0
2022-02-02-16:28:02.672651,10.0,5.0,385.0
2022-02-02-16:28:02.672651,6.0,0.0,385.0
2022-02-02-16:28:02.673673,6.0,0.0,385.0
2022-02-02-16:28:02.674894,6.0,0.0,385.0
2022-02-02-16:28:02.674894,1.0,12.0,385.0
2022-02-02-16:28:02.675925,1.0,12.0,385.0
2022-02-02-16:28:02.676891,2.0,16.0,385.0
2022-02-02-16:28:02.677920,2.0,16.0,385.0
2022-02-02-16:28:02.678886,2.0,16.0,385.0
2022-02-02-16:28:02.679916,0.0,12.0,385.0
2022-02-02-16:28:02.680918,3.0,6.0,385.0
2022-02-02-16:28:02.681915,3.0,6.0,385.0
2022-02-02-16:28:02.682906,3.0,6.0,385.0
2022-02-02-16:28:02.683904,3.0,3.0,385.0
2022-02-02-16:28:02.685015,5.0,3.0,385.0
2022-02-02-16:28:02.685015,5.0,3.0,385.0
2022-02-02-16:28:02.686070,5.0,3.0,385.0
2022-02-02-16:28:02.687302,5.0,3.0,385.0
2022-02-02-16:28:02.687302,7.0,5.0,385.0
2022-02-02-16:28:02.688333,7.0,5.0,385.0
2022-02-02-16:28:02.689299,10.0,3.0,385.0
2022-02-02-16:28:02.690329,10.0,3.0,385.0
2022-02-02-16:28:02.691508,10.0,3.0,385.0
2022-02-02-16:28:02.691508,5.0,2.0,385.0
2022-02-02-16:28:02.692542,5.0,2.0,385.0
2022-02-02-16:28:02.693505,1.0,15.0,386.0
2022-02-02-16:28:02.694537,1.0,15.0,386.0
2022-02-02-16:28:02.695532,1.0,15.0,386.0
2022-02-02-16:28:02.696598,1.0,11.0,385.0
2022-02-02-16:28:02.696598,5.0,7.0,385.0
2022-02-02-16:28:02.697655,4.0,6.0,385.0
2022-02-02-16:28:02.698650,4.0,6.0,385.0
2022-02-02-16:28:02.699647,4.0,6.0,385.0
2022-02-02-16:28:02.700646,3.0,7.0,386.0
2022-02-02-16:28:02.701641,3.0,3.0,385.0
2022-02-02-16:28:02.702642,7.0,1.0,386.0
2022-02-02-16:28:02.703636,7.0,1.0,386.0
2022-02-02-16:28:02.704631,5.0,2.0,385.0
2022-02-02-16:28:02.705577,5.0,2.0,385.0
2022-02-02-16:28:02.707603,9.0,6.0,385.0
2022-02-02-16:28:02.707603,8.0,3.0,385.0
2022-02-02-16:28:02.708615,4.0,16.0,386.0
2022-02-02-16:28:02.709613,4.0,16.0,386.0
2022-02-02-16:28:02.710613,4.0,16.0,386.0
2022-02-02-16:28:02.711561,4.0,16.0,386.0
2022-02-02-16:28:02.712605,1.0,15.0,386.0
2022-02-02-16:28:02.713555,1.0,6.0,386.0
2022-02-02-16:28:02.714599,2.0,6.0,385.0
2022-02-02-16:28:02.715597,2.0,6.0,385.0
2022-02-02-16:28:02.716810,2.0,6.0,385.0
2022-02-02-16:28:02.716810,4.0,3.0,385.0
2022-02-02-16:28:02.717843,4.0,3.0,385.0
2022-02-02-16:28:02.718962,6.0,0.0,385.0
2022-02-02-16:28:02.718962,6.0,0.0,385.0
2022-02-02-16:28:02.719993,6.0,0.0,385.0
2022-02-02-16:28:02.720992,8.0,0.0,385.0
2022-02-02-16:28:02.721988,8.0,8.0,385.0
2022-02-02-16:28:02.722956,8.0,8.0,385.0
2022-02-02-16:28:02.723983,8.0,8.0,385.0
2022-02-02-16:28:02.724983,11.0,0.0,385.0
2022-02-02-16:28:02.725969,4.0,7.0,386.0
2022-02-02-16:28:02.726975,4.0,13.0,385.0
2022-02-02-16:28:02.727972,4.0,13.0,385.0
2022-02-02-16:28:02.728972,1.0,14.0,386.0
2022-02-02-16:28:02.729967,5.0,8.0,386.0
2022-02-02-16:28:02.730956,5.0,8.0,386.0
2022-02-02-16:28:02.731953,5.0,8.0,386.0
2022-02-02-16:28:02.732950,5.0,8.0,386.0
2022-02-02-16:28:02.733947,1.0,5.0,386.0
2022-02-02-16:28:02.734945,5.0,4.0,385.0
2022-02-02-16:28:02.735943,5.0,4.0,385.0
2022-02-02-16:28:02.736942,5.0,4.0,385.0
2022-02-02-16:28:02.737937,3.0,2.0,385.0
2022-02-02-16:28:02.738935,11.0,3.0,385.0
2022-02-02-16:28:02.739932,8.0,4.0,385.0
2022-02-02-16:28:02.740929,8.0,4.0,385.0
2022-02-02-16:28:02.742925,10.0,3.0,385.0
2022-02-02-16:28:02.742925,3.0,13.0,385.0
2022-02-02-16:28:02.743923,3.0,13.0,385.0
2022-02-02-16:28:02.744921,3.0,13.0,385.0
2022-02-02-16:28:02.745920,2.0,14.0,385.0
2022-02-02-16:28:02.746913,6.0,4.0,385.0
2022-02-02-16:28:02.747911,6.0,4.0,385.0
2022-02-02-16:28:02.748908,6.0,4.0,385.0
2022-02-02-16:28:02.749908,4.0,2.0,385.0
2022-02-02-16:28:02.750902,3.0,5.0,385.0
2022-02-02-16:28:02.751900,3.0,5.0,385.0
2022-02-02-16:28:02.753085,3.0,5.0,385.0
2022-02-02-16:28:02.753085,3.0,5.0,385.0
2022-02-02-16:28:02.754116,3.0,5.0,385.0
2022-02-02-16:28:02.755113,11.0,2.0,385.0
2022-02-02-16:28:02.756079,11.0,2.0,385.0
2022-02-02-16:28:02.757110,11.0,2.0,385.0
2022-02-02-16:28:02.758108,7.0,2.0,385.0
2022-02-02-16:28:02.759109,4.0,13.0,385.0
2022-02-02-16:28:02.760068,4.0,13.0,385.0
2022-02-02-16:28:02.761256,4.0,13.0,385.0
2022-02-02-16:28:02.761256,3.0,16.0,385.0
2022-02-02-16:28:02.762290,3.0,16.0,385.0
2022-02-02-16:28:02.763427,3.0,10.0,385.0
2022-02-02-16:28:02.763427,3.0,10.0,385.0
2022-02-02-16:28:02.764474,3.0,10.0,385.0
2022-02-02-16:28:02.765661,3.0,10.0,385.0
2022-02-02-16:28:02.765661,2.0,8.0,385.0
2022-02-02-16:28:02.766697,2.0,8.0,385.0
2022-02-02-16:28:02.767810,5.0,3.0,385.0
2022-02-02-16:28:02.767810,5.0,3.0,385.0
2022-02-02-16:28:02.768858,5.0,3.0,385.0
2022-02-02-16:28:02.769853,5.0,3.0,385.0
2022-02-02-16:28:02.770851,7.0,6.0,385.0
2022-02-02-16:28:02.771848,7.0,6.0,385.0
2022-02-02-16:28:02.772799,7.0,6.0,385.0
2022-02-02-16:28:02.773802,7.0,6.0,385.0
2022-02-02-16:28:02.775837,10.0,4.0,386.0
2022-02-02-16:28:02.775837,4.0,5.0,385.0
2022-02-02-16:28:02.776812,4.0,5.0,385.0
2022-02-02-16:28:02.778036,4.0,5.0,385.0
2022-02-02-16:28:02.778036,1.0,12.0,386.0
2022-02-02-16:28:02.779070,1.0,12.0,386.0
2022-02-02-16:28:02.780170,1.0,9.0,386.0
2022-02-02-16:28:02.780170,1.0,9.0,386.0
2022-02-02-16:28:02.781424,1.0,9.0,386.0
2022-02-02-16:28:02.781424,6.0,1.0,385.0
2022-02-02-16:28:02.782456,6.0,1.0,385.0
2022-02-02-16:28:02.783455,2.0,3.0,386.0
2022-02-02-16:28:02.784523,2.0,3.0,386.0
2022-02-02-16:28:02.784523,2.0,3.0,386.0
2022-02-02-16:28:02.785740,2.0,3.0,386.0
2022-02-02-16:28:02.785740,4.0,1.0,386.0
2022-02-02-16:28:02.786772,4.0,1.0,386.0
2022-02-02-16:28:02.787769,7.0,7.0,385.0
2022-02-02-16:28:02.788766,7.0,7.0,385.0
2022-02-02-16:28:02.789747,7.0,7.0,385.0
2022-02-02-16:28:02.790767,7.0,5.0,385.0
2022-02-02-16:28:02.791758,8.0,2.0,385.0
2022-02-02-16:28:02.792758,8.0,2.0,385.0
2022-02-02-16:28:02.793948,8.0,2.0,385.0
2022-02-02-16:28:02.793948,2.0,10.0,385.0
2022-02-02-16:28:02.794980,2.0,10.0,385.0
2022-02-02-16:28:02.796089,0.0,9.0,385.0
2022-02-02-16:28:02.796089,0.0,9.0,385.0
2022-02-02-16:28:02.797135,0.0,9.0,385.0
2022-02-02-16:28:02.798327,0.0,9.0,385.0
2022-02-02-16:28:02.798327,0.0,5.0,385.0
2022-02-02-16:28:02.799358,0.0,5.0,385.0
2022-02-02-16:28:02.800474,3.0,5.0,385.0
2022-02-02-16:28:02.800474,3.0,5.0,385.0
2022-02-02-16:28:02.801520,3.0,5.0,385.0
2022-02-02-16:28:02.802517,3.0,5.0,385.0
2022-02-02-16:28:02.803515,5.0,2.0,385.0
2022-02-02-16:28:02.804514,4.0,3.0,385.0
2022-02-02-16:28:02.805506,11.0,2.0,386.0
2022-02-02-16:28:02.805506,11.0,2.0,386.0
2022-02-02-16:28:02.806540,8.0,7.0,385.0
2022-02-02-16:28:02.807535,8.0,7.0,385.0
2022-02-02-16:28:02.808532,8.0,7.0,385.0
2022-02-02-16:28:02.809497,8.0,7.0,385.0
2022-02-02-16:28:02.810496,8.0,7.0,385.0
2022-02-02-16:28:02.811520,1.0,11.0,385.0
2022-02-02-16:28:02.813488,1.0,13.0,386.0
2022-02-02-16:28:02.813488,1.0,13.0,386.0
2022-02-02-16:28:02.814485,1.0,13.0,386.0
2022-02-02-16:28:02.815531,2.0,8.0,385.0
2022-02-02-16:28:02.816499,3.0,2.0,385.0
2022-02-02-16:28:02.817526,0.0,2.0,385.0
2022-02-02-16:28:02.818522,0.0,2.0,385.0
2022-02-02-16:28:02.819519,4.0,3.0,385.0
2022-02-02-16:28:02.820515,8.0,2.0,385.0
2022-02-02-16:28:02.821468,5.0,1.0,385.0
2022-02-02-16:28:02.822490,5.0,1.0,385.0
2022-02-02-16:28:02.823461,9.0,7.0,386.0
2022-02-02-16:28:02.824481,10.0,0.0,386.0
2022-02-02-16:28:02.825485,8.0,3.0,385.0
2022-02-02-16:28:02.826453,8.0,3.0,385.0
2022-02-02-16:28:02.827484,4.0,13.0,385.0
2022-02-02-16:28:02.828473,1.0,13.0,385.0
2022-02-02-16:28:02.829444,1.0,13.0,385.0
2022-02-02-16:28:02.830442,1.0,13.0,385.0
2022-02-02-16:28:02.831467,1.0,8.0,385.0
2022-02-02-16:28:02.832464,1.0,6.0,385.0
2022-02-02-16:28:02.833485,1.0,6.0,385.0
2022-02-02-16:28:02.834457,1.0,6.0,385.0
2022-02-02-16:28:02.835475,5.0,2.0,386.0
2022-02-02-16:28:02.836474,2.0,3.0,385.0
2022-02-02-16:28:02.837562,7.0,2.0,385.0
2022-02-02-16:28:02.837801,7.0,2.0,385.0
2022-02-02-16:28:02.837801,7.0,2.0,385.0
2022-02-02-16:28:02.838859,7.0,2.0,385.0
2022-02-02-16:28:02.839808,11.0,3.0,385.0
2022-02-02-16:28:02.840850,12.0,8.0,385.0
2022-02-02-16:28:02.841847,12.0,3.0,385.0
2022-02-02-16:28:02.843172,12.0,3.0,385.0
2022-02-02-16:28:02.843172,4.0,8.0,386.0
2022-02-02-16:28:02.845169,0.0,13.0,385.0
2022-02-02-16:28:02.845169,0.0,13.0,385.0
2022-02-02-16:28:02.846306,0.0,13.0,385.0
2022-02-02-16:28:02.846306,0.0,13.0,385.0
2022-02-02-16:28:02.847361,0.0,13.0,385.0
2022-02-02-16:28:02.848359,1.0,8.0,385.0
2022-02-02-16:28:02.849301,2.0,7.0,385.0
2022-02-02-16:28:02.850354,5.0,7.0,385.0
2022-02-02-16:28:02.851295,5.0,7.0,385.0
2022-02-02-16:28:02.852292,4.0,6.0,385.0
2022-02-02-16:28:02.853346,5.0,1.0,385.0
2022-02-02-16:28:02.854344,9.0,6.0,386.0
2022-02-02-16:28:02.855340,9.0,6.0,386.0
2022-02-02-16:28:02.856282,7.0,9.0,385.0
2022-02-02-16:28:02.857315,11.0,8.0,385.0
2022-02-02-16:28:02.858311,9.0,2.0,385.0
2022-02-02-16:28:02.859307,9.0,2.0,385.0
2022-02-02-16:28:02.860330,6.0,3.0,386.0
2022-02-02-16:28:02.861316,2.0,7.0,385.0
2022-02-02-16:28:02.862312,0.0,15.0,385.0
2022-02-02-16:28:02.863316,0.0,15.0,385.0
2022-02-02-16:28:02.864307,0.0,11.0,385.0
2022-02-02-16:28:02.865304,4.0,4.0,385.0
2022-02-02-16:28:02.866304,6.0,3.0,385.0
2022-02-02-16:28:02.867273,6.0,3.0,385.0
2022-02-02-16:28:02.868281,1.0,7.0,385.0
2022-02-02-16:28:02.869295,3.0,1.0,385.0
2022-02-02-16:28:02.870291,5.0,1.0,386.0
2022-02-02-16:28:02.871288,5.0,1.0,386.0
2022-02-02-16:28:02.872285,7.0,3.0,385.0
2022-02-02-16:28:02.873238,6.0,7.0,385.0
2022-02-02-16:28:02.874282,12.0,1.0,385.0
2022-02-02-16:28:02.875277,12.0,1.0,385.0
2022-02-02-16:28:02.876469,6.0,3.0,385.0
2022-02-02-16:28:02.877529,0.0,16.0,385.0
2022-02-02-16:28:02.877529,0.0,16.0,385.0
2022-02-02-16:28:02.878521,0.0,16.0,385.0
2022-02-02-16:28:02.879517,0.0,16.0,385.0
2022-02-02-16:28:02.880570,0.0,16.0,385.0
2022-02-02-16:28:02.881053,1.0,7.0,385.0
2022-02-02-16:28:02.881053,4.0,3.0,385.0
2022-02-02-16:28:02.882106,4.0,3.0,385.0
2022-02-02-16:28:02.883051,4.0,3.0,385.0
2022-02-02-16:28:02.884048,4.0,3.0,385.0
2022-02-02-16:28:02.885044,2.0,3.0,385.0
2022-02-02-16:28:02.886046,5.0,4.0,385.0
2022-02-02-16:28:02.887041,5.0,4.0,385.0
2022-02-02-16:28:02.888037,5.0,4.0,385.0
2022-02-02-16:28:02.889033,6.0,4.0,385.0
2022-02-02-16:28:02.890033,10.0,5.0,385.0
2022-02-02-16:28:02.891030,9.0,5.0,385.0
2022-02-02-16:28:02.892025,9.0,5.0,385.0
2022-02-02-16:28:02.893029,7.0,4.0,385.0
2022-02-02-16:28:02.894057,4.0,11.0,386.0
2022-02-02-16:28:02.895051,3.0,18.0,385.0
2022-02-02-16:28:02.896015,0.0,13.0,385.0
2022-02-02-16:28:02.897046,2.0,11.0,385.0
2022-02-02-16:28:02.898035,3.0,5.0,385.0
2022-02-02-16:28:02.899034,4.0,3.0,385.0
2022-02-02-16:28:02.900005,4.0,3.0,385.0
2022-02-02-16:28:02.901027,5.0,3.0,385.0
2022-02-02-16:28:02.902023,5.0,2.0,385.0
2022-02-02-16:28:02.903022,7.0,2.0,385.0
2022-02-02-16:28:02.904021,7.0,2.0,385.0
2022-02-02-16:28:02.905016,7.0,2.0,385.0
2022-02-02-16:28:02.906017,14.0,8.0,385.0
2022-02-02-16:28:02.906986,9.0,2.0,385.0
2022-02-02-16:28:02.907984,9.0,2.0,385.0
2022-02-02-16:28:02.908980,9.0,2.0,385.0
2022-02-02-16:28:02.909978,3.0,11.0,385.0
2022-02-02-16:28:02.910975,1.0,16.0,385.0
2022-02-02-16:28:02.912969,1.0,16.0,385.0
2022-02-02-16:28:02.912969,1.0,16.0,385.0
2022-02-02-16:28:02.913967,6.0,6.0,385.0
2022-02-02-16:28:02.914966,5.0,3.0,385.0
2022-02-02-16:28:02.915962,5.0,3.0,385.0
2022-02-02-16:28:02.916991,5.0,3.0,385.0
2022-02-02-16:28:02.917962,6.0,1.0,385.0
2022-02-02-16:28:02.918961,5.0,2.0,385.0
2022-02-02-16:28:02.919951,5.0,1.0,385.0
2022-02-02-16:28:02.920948,5.0,1.0,385.0
2022-02-02-16:28:02.921945,11.0,8.0,385.0
2022-02-02-16:28:02.922959,9.0,2.0,385.0
2022-02-02-16:28:02.923940,9.0,2.0,385.0
2022-02-02-16:28:02.924937,9.0,2.0,385.0
2022-02-02-16:28:02.925935,5.0,3.0,385.0
2022-02-02-16:28:02.926932,1.0,16.0,386.0
2022-02-02-16:28:02.927930,1.0,16.0,386.0
2022-02-02-16:28:02.928927,1.0,16.0,386.0
2022-02-02-16:28:02.929924,3.0,7.0,385.0
2022-02-02-16:28:02.930922,3.0,7.0,385.0
2022-02-02-16:28:02.931930,3.0,7.0,385.0
2022-02-02-16:28:02.932916,3.0,7.0,385.0
2022-02-02-16:28:02.933946,4.0,3.0,385.0
2022-02-02-16:28:02.934911,4.0,3.0,385.0
2022-02-02-16:28:02.935908,4.0,3.0,385.0
2022-02-02-16:28:02.936906,4.0,3.0,385.0
2022-02-02-16:28:02.937903,8.0,6.0,385.0
2022-02-02-16:28:02.938901,7.0,0.0,385.0
2022-02-02-16:28:02.939898,7.0,0.0,385.0
2022-02-02-16:28:02.940929,7.0,0.0,385.0
2022-02-02-16:28:02.941926,8.0,0.0,385.0
2022-02-02-16:28:02.942916,1.0,9.0,386.0
2022-02-02-16:28:02.943914,1.0,17.0,385.0
2022-02-02-16:28:02.944884,1.0,17.0,385.0
2022-02-02-16:28:02.945881,0.0,17.0,385.0
2022-02-02-16:28:02.946879,0.0,12.0,385.0
2022-02-02-16:28:02.947876,3.0,10.0,385.0
2022-02-02-16:28:02.949871,3.0,5.0,385.0
2022-02-02-16:28:02.950868,4.0,1.0,385.0
2022-02-02-16:28:02.950868,5.0,1.0,385.0
2022-02-02-16:28:02.951865,5.0,1.0,385.0
2022-02-02-16:28:02.952863,5.0,1.0,385.0
2022-02-02-16:28:02.953909,5.0,1.0,385.0
2022-02-02-16:28:02.954871,4.0,1.0,385.0
2022-02-02-16:28:02.955867,6.0,4.0,385.0
2022-02-02-16:28:02.956858,6.0,4.0,385.0
2022-02-02-16:28:02.957849,6.0,4.0,385.0
2022-02-02-16:28:02.958847,7.0,4.0,385.0
2022-02-02-16:28:02.959846,5.0,13.0,385.0
2022-02-02-16:28:02.960851,5.0,13.0,385.0
2022-02-02-16:28:02.961839,5.0,13.0,385.0
2022-02-02-16:28:02.962873,2.0,16.0,385.0
2022-02-02-16:28:02.963858,2.0,16.0,385.0
2022-02-02-16:28:02.964857,2.0,8.0,385.0
2022-02-02-16:28:02.965853,2.0,7.0,385.0
2022-02-02-16:28:02.966850,4.0,6.0,385.0
2022-02-02-16:28:02.967850,3.0,3.0,385.0
2022-02-02-16:28:02.968846,4.0,6.0,385.0
2022-02-02-16:28:02.969843,4.0,6.0,385.0
2022-02-02-16:28:02.970816,8.0,3.0,386.0
2022-02-02-16:28:02.971813,10.0,7.0,385.0
2022-02-02-16:28:02.972812,10.0,7.0,385.0
2022-02-02-16:28:02.973808,10.0,7.0,385.0
2022-02-02-16:28:02.974804,9.0,2.0,385.0
2022-02-02-16:28:02.975801,5.0,9.0,385.0
2022-02-02-16:28:02.976799,5.0,9.0,385.0
2022-02-02-16:28:02.977797,5.0,9.0,385.0
2022-02-02-16:28:02.978820,2.0,12.0,386.0
2022-02-02-16:28:02.979790,1.0,8.0,385.0
2022-02-02-16:28:02.981785,1.0,9.0,385.0
2022-02-02-16:28:02.981785,5.0,4.0,385.0
2022-02-02-16:28:02.982783,3.0,5.0,385.0
2022-02-02-16:28:02.983780,3.0,5.0,385.0
2022-02-02-16:28:02.984777,3.0,5.0,385.0
2022-02-02-16:28:02.985775,3.0,5.0,385.0
2022-02-02-16:28:02.986772,3.0,5.0,385.0
2022-02-02-16:28:02.987769,8.0,5.0,385.0
2022-02-02-16:28:02.988767,12.0,9.0,385.0
2022-02-02-16:28:02.989765,12.0,9.0,385.0
2022-02-02-16:28:02.990763,12.0,9.0,385.0
2022-02-02-16:28:02.991760,8.0,4.0,385.0
2022-02-02-16:28:02.992759,5.0,6.0,386.0
2022-02-02-16:28:02.993753,4.0,13.0,386.0
2022-02-02-16:28:02.994752,4.0,13.0,386.0
2022-02-02-16:28:02.995749,4.0,12.0,385.0
2022-02-02-16:28:02.996745,3.0,6.0,385.0
2022-02-02-16:28:02.997743,3.0,6.0,385.0
2022-02-02-16:28:02.998742,3.0,6.0,385.0
2022-02-02-16:28:02.999737,4.0,6.0,385.0
2022-02-02-16:28:03.000735,4.0,1.0,385.0
2022-02-02-16:28:03.001733,4.0,1.0,385.0
2022-02-02-16:28:03.002730,4.0,1.0,385.0
2022-02-02-16:28:03.003776,5.0,0.0,386.0
2022-02-02-16:28:03.004725,5.0,5.0,385.0
2022-02-02-16:28:03.005751,5.0,5.0,385.0
2022-02-02-16:28:03.006720,5.0,5.0,385.0
2022-02-02-16:28:03.007744,9.0,3.0,385.0
2022-02-02-16:28:03.008740,7.0,4.0,385.0
2022-02-02-16:28:03.009736,8.0,7.0,385.0
2022-02-02-16:28:03.010709,8.0,7.0,385.0
2022-02-02-16:28:03.011706,2.0,13.0,386.0
2022-02-02-16:28:03.012704,1.0,11.0,385.0
2022-02-02-16:28:03.013700,1.0,11.0,385.0
2022-02-02-16:28:03.015695,1.0,11.0,385.0
2022-02-02-16:28:03.015695,2.0,2.0,385.0
2022-02-02-16:28:03.016692,2.0,2.0,385.0
2022-02-02-16:28:03.017689,2.0,2.0,385.0
2022-02-02-16:28:03.018687,2.0,2.0,385.0
2022-02-02-16:28:03.019685,2.0,2.0,385.0
2022-02-02-16:28:03.020682,5.0,0.0,385.0
2022-02-02-16:28:03.021679,9.0,4.0,386.0
2022-02-02-16:28:03.022678,9.0,4.0,386.0
2022-02-02-16:28:03.023675,9.0,4.0,386.0
2022-02-02-16:28:03.024671,9.0,2.0,385.0
2022-02-02-16:28:03.025669,9.0,6.0,385.0
2022-02-02-16:28:03.026688,9.0,6.0,385.0
2022-02-02-16:28:03.027663,9.0,6.0,385.0
2022-02-02-16:28:03.028687,3.0,11.0,385.0
2022-02-02-16:28:03.029683,1.0,14.0,385.0
2022-02-02-16:28:03.030681,1.0,14.0,385.0
2022-02-02-16:28:03.031680,1.0,11.0,385.0
2022-02-02-16:28:03.032676,2.0,5.0,385.0
2022-02-02-16:28:03.033673,3.0,5.0,385.0
2022-02-02-16:28:03.034644,3.0,7.0,386.0
2022-02-02-16:28:03.035641,3.0,7.0,386.0
2022-02-02-16:28:03.036671,4.0,4.0,385.0
2022-02-02-16:28:03.037636,5.0,6.0,385.0
2022-02-02-16:28:03.038634,5.0,6.0,385.0
2022-02-02-16:28:03.039631,5.0,6.0,385.0
2022-02-02-16:28:03.040628,7.0,3.0,385.0
2022-02-02-16:28:03.041627,9.0,1.0,385.0
2022-02-02-16:28:03.042623,6.0,2.0,385.0
2022-02-02-16:28:03.043623,6.0,2.0,385.0
2022-02-02-16:28:03.044618,4.0,11.0,385.0
2022-02-02-16:28:03.045615,1.0,16.0,385.0
2022-02-02-16:28:03.046612,1.0,10.0,386.0
2022-02-02-16:28:03.047610,1.0,10.0,386.0
2022-02-02-16:28:03.049605,2.0,11.0,385.0
2022-02-02-16:28:03.050602,2.0,6.0,386.0
2022-02-02-16:28:03.050602,2.0,6.0,386.0
2022-02-02-16:28:03.051599,2.0,6.0,386.0
2022-02-02-16:28:03.052597,4.0,2.0,385.0
2022-02-02-16:28:03.053594,11.0,4.0,385.0
2022-02-02-16:28:03.054591,11.0,4.0,385.0
2022-02-02-16:28:03.055623,11.0,4.0,385.0
2022-02-02-16:28:03.056586,12.0,8.0,385.0
2022-02-02-16:28:03.057620,9.0,2.0,385.0
2022-02-02-16:28:03.058580,6.0,0.0,385.0
2022-02-02-16:28:03.059577,6.0,0.0,385.0
2022-02-02-16:28:03.060575,6.0,0.0,385.0
2022-02-02-16:28:03.061572,0.0,14.0,386.0
2022-02-02-16:28:03.062569,3.0,9.0,385.0
2022-02-02-16:28:03.063567,3.0,9.0,385.0
2022-02-02-16:28:03.064564,3.0,9.0,385.0
2022-02-02-16:28:03.065561,0.0,5.0,385.0
2022-02-02-16:28:03.066595,2.0,2.0,385.0
2022-02-02-16:28:03.067558,3.0,6.0,385.0
2022-02-02-16:28:03.068553,3.0,6.0,385.0
2022-02-02-16:28:03.069551,4.0,2.0,385.0
2022-02-02-16:28:03.070548,6.0,5.0,385.0
2022-02-02-16:28:03.071548,6.0,5.0,385.0
2022-02-02-16:28:03.072545,6.0,5.0,385.0
2022-02-02-16:28:03.073542,10.0,4.0,385.0
2022-02-02-16:28:03.074538,8.0,2.0,385.0
2022-02-02-16:28:03.075535,8.0,2.0,385.0
2022-02-02-16:28:03.076532,8.0,2.0,385.0
2022-02-02-16:28:03.077529,3.0,8.0,386.0
2022-02-02-16:28:03.078527,1.0,15.0,386.0
2022-02-02-16:28:03.079524,1.0,15.0,386.0
2022-02-02-16:28:03.080521,1.0,15.0,386.0
2022-02-02-16:28:03.081519,1.0,10.0,385.0
2022-02-02-16:28:03.082519,5.0,7.0,385.0
2022-02-02-16:28:03.083515,5.0,7.0,385.0
2022-02-02-16:28:03.085509,3.0,4.0,385.0
2022-02-02-16:28:03.085509,6.0,2.0,385.0
2022-02-02-16:28:03.086506,6.0,1.0,385.0
2022-02-02-16:28:03.087503,6.0,1.0,385.0
2022-02-02-16:28:03.088501,6.0,1.0,385.0
2022-02-02-16:28:03.089498,9.0,8.0,385.0
2022-02-02-16:28:03.090495,8.0,7.0,385.0
2022-02-02-16:28:03.091495,7.0,0.0,385.0
2022-02-02-16:28:03.092491,7.0,0.0,385.0
2022-02-02-16:28:03.093489,7.0,3.0,385.0
2022-02-02-16:28:03.094484,6.0,8.0,385.0
2022-02-02-16:28:03.095482,0.0,15.0,386.0
2022-02-02-16:28:03.096480,0.0,15.0,385.0
2022-02-02-16:28:03.097478,0.0,15.0,385.0
2022-02-02-16:28:03.098474,2.0,8.0,386.0
2022-02-02-16:28:03.099472,5.0,3.0,385.0
2022-02-02-16:28:03.100469,5.0,3.0,385.0
2022-02-02-16:28:03.101505,5.0,3.0,385.0
2022-02-02-16:28:03.102498,4.0,6.0,385.0
2022-02-02-16:28:03.103496,5.0,2.0,385.0
2022-02-02-16:28:03.104492,6.0,3.0,385.0
2022-02-02-16:28:03.105489,6.0,3.0,385.0
2022-02-02-16:28:03.106453,8.0,6.0,385.0
2022-02-02-16:28:03.107450,10.0,7.0,386.0
2022-02-02-16:28:03.108447,8.0,4.0,385.0
2022-02-02-16:28:03.109445,8.0,4.0,385.0
2022-02-02-16:28:03.110442,5.0,6.0,386.0
2022-02-02-16:28:03.111439,0.0,16.0,385.0
2022-02-02-16:28:03.112436,0.0,16.0,385.0
2022-02-02-16:28:03.113434,0.0,16.0,385.0
2022-02-02-16:28:03.114431,2.0,7.0,385.0
2022-02-02-16:28:03.115429,2.0,6.0,385.0
2022-02-02-16:28:03.116428,2.0,6.0,385.0
2022-02-02-16:28:03.117423,2.0,6.0,385.0
2022-02-02-16:28:03.119418,4.0,1.0,386.0
2022-02-02-16:28:03.119418,7.0,2.0,385.0
2022-02-02-16:28:03.120417,7.0,2.0,385.0
2022-02-02-16:28:03.121415,7.0,2.0,385.0
2022-02-02-16:28:03.122409,12.0,8.0,385.0
2022-02-02-16:28:03.123407,12.0,5.0,385.0
2022-02-02-16:28:03.124404,8.0,1.0,385.0
2022-02-02-16:28:03.125401,8.0,1.0,385.0
2022-02-02-16:28:03.126399,1.0,11.0,385.0
2022-02-02-16:28:03.127397,1.0,15.0,385.0
2022-02-02-16:28:03.128394,1.0,15.0,385.0
2022-02-02-16:28:03.129391,1.0,15.0,385.0
2022-02-02-16:28:03.130424,4.0,13.0,385.0
2022-02-02-16:28:03.131442,1.0,9.0,385.0
2022-02-02-16:28:03.132438,4.0,3.0,385.0
2022-02-02-16:28:03.133381,4.0,3.0,385.0
2022-02-02-16:28:03.134404,5.0,1.0,385.0
2022-02-02-16:28:03.135421,7.0,1.0,385.0
2022-02-02-16:28:03.136417,7.0,1.0,385.0
2022-02-02-16:28:03.137462,7.0,1.0,385.0
2022-02-02-16:28:03.137462,7.0,1.0,385.0
2022-02-02-16:28:03.138700,7.0,1.0,385.0
2022-02-02-16:28:03.138700,11.0,4.0,386.0
2022-02-02-16:28:03.139700,8.0,3.0,385.0
2022-02-02-16:28:03.140718,8.0,3.0,385.0
2022-02-02-16:28:03.141701,8.0,3.0,385.0
2022-02-02-16:28:03.142736,9.0,1.0,385.0
2022-02-02-16:28:03.143733,4.0,13.0,385.0
2022-02-02-16:28:03.144731,1.0,15.0,385.0
2022-02-02-16:28:03.145684,1.0,15.0,385.0
2022-02-02-16:28:03.146726,1.0,15.0,385.0
2022-02-02-16:28:03.147723,5.0,7.0,386.0
2022-02-02-16:28:03.148676,3.0,4.0,386.0
2022-02-02-16:28:03.150671,3.0,6.0,386.0
2022-02-02-16:28:03.150671,4.0,4.0,385.0
2022-02-02-16:28:03.151713,4.0,4.0,385.0
2022-02-02-16:28:03.152710,4.0,4.0,385.0
2022-02-02-16:28:03.153712,4.0,4.0,385.0
2022-02-02-16:28:03.154704,4.0,4.0,385.0
2022-02-02-16:28:03.155702,6.0,3.0,385.0
2022-02-02-16:28:03.156700,11.0,4.0,385.0
2022-02-02-16:28:03.156700,8.0,6.0,385.0
2022-02-02-16:28:03.157745,8.0,6.0,385.0
2022-02-02-16:28:03.158914,8.0,6.0,385.0
2022-02-02-16:28:03.158914,7.0,1.0,386.0
2022-02-02-16:28:03.159958,0.0,12.0,385.0
2022-02-02-16:28:03.160964,0.0,16.0,385.0
2022-02-02-16:28:03.160964,0.0,16.0,385.0
2022-02-02-16:28:03.162008,0.0,16.0,385.0
2022-02-02-16:28:03.163007,0.0,16.0,385.0
2022-02-02-16:28:03.163958,1.0,16.0,385.0
2022-02-02-16:28:03.165003,3.0,2.0,385.0
2022-02-02-16:28:03.166105,3.0,2.0,385.0
2022-02-02-16:28:03.166105,3.0,2.0,385.0
2022-02-02-16:28:03.167151,7.0,2.0,385.0
2022-02-02-16:28:03.168219,6.0,5.0,386.0
2022-02-02-16:28:03.168219,6.0,5.0,386.0
2022-02-02-16:28:03.169262,6.0,5.0,386.0
2022-02-02-16:28:03.170261,6.0,5.0,386.0
2022-02-02-16:28:03.171468,6.0,5.0,386.0
2022-02-02-16:28:03.171468,10.0,2.0,385.0
2022-02-02-16:28:03.172512,12.0,7.0,385.0
2022-02-02-16:28:03.173465,10.0,4.0,385.0
2022-02-02-16:28:03.174477,10.0,4.0,385.0
2022-02-02-16:28:03.175504,12.0,1.0,385.0
2022-02-02-16:28:03.176501,8.0,10.0,385.0
2022-02-02-16:28:03.177499,6.0,16.0,385.0
2022-02-02-16:28:03.178500,6.0,16.0,385.0
2022-02-02-16:28:03.179494,3.0,8.0,386.0
2022-02-02-16:28:03.180447,6.0,5.0,385.0
2022-02-02-16:28:03.181471,6.0,5.0,385.0
2022-02-02-16:28:03.182468,6.0,5.0,385.0
2022-02-02-16:28:03.184436,6.0,5.0,385.0
2022-02-02-16:28:03.184436,7.0,3.0,385.0
2022-02-02-16:28:03.185553,7.0,3.0,385.0
2022-02-02-16:28:03.185553,7.0,3.0,385.0
2022-02-02-16:28:03.186602,7.0,3.0,385.0
2022-02-02-16:28:03.187594,7.0,3.0,385.0
2022-02-02-16:28:03.188799,13.0,10.0,385.0
2022-02-02-16:28:03.188799,12.0,6.0,385.0
2022-02-02-16:28:03.189800,12.0,6.0,385.0
2022-02-02-16:28:03.190832,12.0,6.0,385.0
2022-02-02-16:28:03.191820,9.0,3.0,385.0
2022-02-02-16:28:03.192816,5.0,8.0,385.0
2022-02-02-16:28:03.193816,4.0,9.0,385.0
2022-02-02-16:28:03.194813,4.0,9.0,385.0
2022-02-02-16:28:03.195809,4.0,9.0,385.0
2022-02-02-16:28:03.196807,2.0,9.0,385.0
2022-02-02-16:28:03.197778,2.0,9.0,385.0
2022-02-02-16:28:03.198791,2.0,9.0,385.0
2022-02-02-16:28:03.199799,2.0,9.0,385.0
2022-02-02-16:28:03.200795,4.0,1.0,385.0
2022-02-02-16:28:03.201794,3.0,4.0,385.0
2022-02-02-16:28:03.202790,3.0,4.0,385.0
2022-02-02-16:28:03.203792,3.0,4.0,385.0
2022-02-02-16:28:03.204759,6.0,0.0,386.0
2022-02-02-16:28:03.205756,7.0,2.0,385.0
2022-02-02-16:28:03.206754,7.0,2.0,385.0
2022-02-02-16:28:03.207751,7.0,2.0,385.0
2022-02-02-16:28:03.208749,5.0,4.0,385.0
2022-02-02-16:28:03.209798,2.0,15.0,386.0
2022-02-02-16:28:03.210743,2.0,15.0,386.0
2022-02-02-16:28:03.211741,2.0,15.0,386.0
2022-02-02-16:28:03.212772,3.0,19.0,386.0
2022-02-02-16:28:03.213775,0.0,14.0,385.0
2022-02-02-16:28:03.214766,1.0,8.0,385.0
2022-02-02-16:28:03.215819,1.0,8.0,385.0
2022-02-02-16:28:03.217259,2.0,9.0,385.0
2022-02-02-16:28:03.217259,2.0,3.0,385.0
2022-02-02-16:28:03.218397,2.0,3.0,385.0
2022-02-02-16:28:03.218397,2.0,3.0,385.0
2022-02-02-16:28:03.219441,2.0,3.0,385.0
2022-02-02-16:28:03.220442,2.0,3.0,385.0
2022-02-02-16:28:03.221651,10.0,5.0,385.0
2022-02-02-16:28:03.221651,13.0,8.0,385.0
2022-02-02-16:28:03.222683,13.0,8.0,385.0
2022-02-02-16:28:03.223648,13.0,8.0,385.0
2022-02-02-16:28:03.224683,8.0,2.0,385.0
2022-02-02-16:28:03.225807,5.0,8.0,385.0
2022-02-02-16:28:03.225807,5.0,8.0,385.0
2022-02-02-16:28:03.226807,5.0,8.0,385.0
2022-02-02-16:28:03.227842,5.0,8.0,385.0
2022-02-02-16:28:03.228847,1.0,16.0,385.0
2022-02-02-16:28:03.229844,0.0,16.0,386.0
2022-02-02-16:28:03.230841,1.0,11.0,385.0
2022-02-02-16:28:03.231819,1.0,11.0,385.0
2022-02-02-16:28:03.232835,6.0,5.0,385.0
2022-02-02-16:28:03.233834,6.0,5.0,385.0
2022-02-02-16:28:03.234830,6.0,5.0,385.0
2022-02-02-16:28:03.235829,6.0,5.0,385.0
2022-02-02-16:28:03.236826,6.0,5.0,385.0
2022-02-02-16:28:03.237821,5.0,0.0,385.0
2022-02-02-16:28:03.238820,8.0,3.0,386.0
2022-02-02-16:28:03.239772,12.0,4.0,385.0
2022-02-02-16:28:03.240794,12.0,4.0,385.0
2022-02-02-16:28:03.241794,10.0,3.0,385.0
2022-02-02-16:28:03.242808,10.0,0.0,385.0
2022-02-02-16:28:03.243808,4.0,8.0,385.0
2022-02-02-16:28:03.245005,4.0,8.0,385.0
2022-02-02-16:28:03.245005,5.0,14.0,385.0
2022-02-02-16:28:03.246057,4.0,12.0,386.0
2022-02-02-16:28:03.247054,2.0,11.0,385.0
2022-02-02-16:28:03.248055,2.0,11.0,385.0
2022-02-02-16:28:03.250039,2.0,11.0,385.0
2022-02-02-16:28:03.250039,6.0,2.0,385.0
2022-02-02-16:28:03.250992,6.0,2.0,385.0
2022-02-02-16:28:03.252033,6.0,2.0,385.0
2022-02-02-16:28:03.253035,6.0,2.0,385.0
2022-02-02-16:28:03.254075,4.0,1.0,385.0
2022-02-02-16:28:03.254512,4.0,2.0,385.0
2022-02-02-16:28:03.254655,9.0,8.0,385.0
2022-02-02-16:28:03.254655,9.0,8.0,385.0
2022-02-02-16:28:03.255699,9.0,8.0,385.0
2022-02-02-16:28:03.256652,9.0,8.0,385.0
2022-02-02-16:28:03.257694,11.0,6.0,385.0
2022-02-02-16:28:03.258667,5.0,5.0,385.0
2022-02-02-16:28:03.259690,5.0,5.0,385.0
2022-02-02-16:28:03.260875,5.0,5.0,385.0
2022-02-02-16:28:03.260875,1.0,13.0,385.0
2022-02-02-16:28:03.261899,1.0,11.0,385.0
2022-02-02-16:28:03.262905,1.0,11.0,385.0
2022-02-02-16:28:03.263894,1.0,11.0,385.0
2022-02-02-16:28:03.264892,1.0,11.0,385.0
2022-02-02-16:28:03.265889,2.0,3.0,385.0
2022-02-02-16:28:03.266892,2.0,3.0,385.0
2022-02-02-16:28:03.267887,4.0,5.0,385.0
2022-02-02-16:28:03.268856,4.0,5.0,385.0
2022-02-02-16:28:03.269878,3.0,4.0,385.0
2022-02-02-16:28:03.270876,6.0,1.0,385.0
2022-02-02-16:28:03.271872,11.0,7.0,385.0
2022-02-02-16:28:03.272846,11.0,7.0,385.0
2022-02-02-16:28:03.273869,9.0,4.0,385.0
2022-02-02-16:28:03.274864,7.0,5.0,385.0
2022-02-02-16:28:03.275864,7.0,5.0,385.0
2022-02-02-16:28:03.276835,7.0,5.0,385.0
2022-02-02-16:28:03.277856,7.0,12.0,385.0
2022-02-02-16:28:03.278855,0.0,17.0,385.0
2022-02-02-16:28:03.279850,1.0,13.0,385.0
2022-02-02-16:28:03.280848,1.0,13.0,385.0
2022-02-02-16:28:03.281846,1.0,13.0,385.0
2022-02-02-16:28:03.282843,1.0,9.0,385.0
2022-02-02-16:28:03.283819,4.0,3.0,385.0
2022-02-02-16:28:03.285835,4.0,3.0,385.0
2022-02-02-16:28:03.285835,4.0,3.0,385.0
2022-02-02-16:28:03.286833,3.0,2.0,385.0
2022-02-02-16:28:03.287830,9.0,4.0,386.0
2022-02-02-16:28:03.288836,9.0,4.0,386.0
2022-02-02-16:28:03.289801,9.0,4.0,386.0
2022-02-02-16:28:03.290822,9.0,4.0,386.0
2022-02-02-16:28:03.291825,8.0,4.0,385.0
2022-02-02-16:28:03.292816,9.0,0.0,385.0
2022-02-02-16:28:03.293814,6.0,3.0,386.0
2022-02-02-16:28:03.294812,7.0,8.0,385.0
2022-02-02-16:28:03.295808,0.0,18.0,385.0
2022-02-02-16:28:03.296805,0.0,13.0,385.0
2022-02-02-16:28:03.297804,0.0,13.0,385.0
2022-02-02-16:28:03.298800,0.0,11.0,385.0
2022-02-02-16:28:03.299800,5.0,8.0,386.0
2022-02-02-16:28:03.300796,5.0,8.0,386.0
2022-02-02-16:28:03.301793,4.0,3.0,385.0
2022-02-02-16:28:03.302795,8.0,1.0,385.0
2022-02-02-16:28:03.303787,6.0,4.0,385.0
2022-02-02-16:28:03.304760,6.0,4.0,385.0
2022-02-02-16:28:03.305782,6.0,4.0,385.0
2022-02-02-16:28:03.306756,10.0,8.0,385.0
2022-02-02-16:28:03.307779,11.0,8.0,385.0
2022-02-02-16:28:03.308774,10.0,0.0,385.0
2022-02-02-16:28:03.309747,10.0,0.0,385.0
2022-02-02-16:28:03.310769,5.0,2.0,385.0
2022-02-02-16:28:03.311772,2.0,15.0,385.0
2022-02-02-16:28:03.312763,2.0,14.0,385.0
2022-02-02-16:28:03.313737,2.0,14.0,385.0
2022-02-02-16:28:03.314758,3.0,9.0,385.0
2022-02-02-16:28:03.315758,2.0,3.0,385.0
2022-02-02-16:28:03.316752,7.0,7.0,385.0
2022-02-02-16:28:03.317750,7.0,7.0,385.0
2022-02-02-16:28:03.318748,3.0,3.0,385.0
2022-02-02-16:28:03.319744,1.0,6.0,385.0
2022-02-02-16:28:03.321740,1.0,6.0,385.0
2022-02-02-16:28:03.321740,8.0,1.0,385.0
2022-02-02-16:28:03.322736,10.0,2.0,385.0
2022-02-02-16:28:03.323736,8.0,2.0,385.0
2022-02-02-16:28:03.324731,8.0,2.0,385.0
2022-02-02-16:28:03.325728,8.0,2.0,385.0
2022-02-02-16:28:03.326702,8.0,2.0,385.0
2022-02-02-16:28:03.327723,6.0,2.0,385.0
2022-02-02-16:28:03.328720,0.0,16.0,385.0
2022-02-02-16:28:03.329718,2.0,18.0,385.0
2022-02-02-16:28:03.330715,2.0,18.0,385.0
2022-02-02-16:28:03.331714,2.0,16.0,385.0
2022-02-02-16:28:03.332709,1.0,4.0,385.0
2022-02-02-16:28:03.333707,4.0,5.0,385.0
2022-02-02-16:28:03.334705,4.0,5.0,385.0
2022-02-02-16:28:03.335702,5.0,4.0,386.0
2022-02-02-16:28:03.336679,4.0,2.0,385.0
2022-02-02-16:28:03.337673,8.0,1.0,386.0
2022-02-02-16:28:03.338693,8.0,1.0,386.0
2022-02-02-16:28:03.339676,14.0,4.0,385.0
2022-02-02-16:28:03.340689,8.0,6.0,385.0
2022-02-02-16:28:03.341686,10.0,2.0,385.0
2022-02-02-16:28:03.342689,10.0,2.0,385.0
2022-02-02-16:28:03.343686,4.0,4.0,385.0
2022-02-02-16:28:03.344678,2.0,17.0,386.0
2022-02-02-16:28:03.345676,3.0,14.0,385.0
2022-02-02-16:28:03.346649,3.0,14.0,385.0
2022-02-02-16:28:03.347673,1.0,11.0,385.0
2022-02-02-16:28:03.348667,1.0,8.0,386.0
2022-02-02-16:28:03.349664,4.0,4.0,385.0
2022-02-02-16:28:03.350638,4.0,4.0,385.0
2022-02-02-16:28:03.351660,5.0,3.0,385.0
2022-02-02-16:28:03.352656,4.0,4.0,385.0
2022-02-02-16:28:03.354639,5.0,0.0,385.0
2022-02-02-16:28:03.354639,5.0,0.0,385.0
2022-02-02-16:28:03.355650,9.0,6.0,385.0
2022-02-02-16:28:03.356622,8.0,1.0,385.0
2022-02-02-16:28:03.357643,8.0,1.0,385.0
2022-02-02-16:28:03.358646,8.0,1.0,385.0
2022-02-02-16:28:03.359642,8.0,1.0,385.0
2022-02-02-16:28:03.360636,3.0,14.0,385.0
2022-02-02-16:28:03.361633,1.0,19.0,385.0
2022-02-02-16:28:03.362630,1.0,19.0,385.0
2022-02-02-16:28:03.363629,1.0,19.0,385.0
2022-02-02-16:28:03.364624,3.0,10.0,385.0
2022-02-02-16:28:03.365621,2.0,7.0,385.0
2022-02-02-16:28:03.366620,4.0,3.0,386.0
2022-02-02-16:28:03.367616,4.0,3.0,386.0
2022-02-02-16:28:03.368614,4.0,3.0,386.0
2022-02-02-16:28:03.369614,4.0,3.0,386.0
2022-02-02-16:28:03.370615,5.0,1.0,385.0
2022-02-02-16:28:03.371608,5.0,1.0,385.0
2022-02-02-16:28:03.372604,8.0,9.0,385.0
2022-02-02-16:28:03.373577,8.0,1.0,385.0
2022-02-02-16:28:03.374599,8.0,1.0,385.0
2022-02-02-16:28:03.375595,8.0,1.0,385.0
2022-02-02-16:28:03.376592,4.0,1.0,385.0
2022-02-02-16:28:03.377590,1.0,13.0,385.0
2022-02-02-16:28:03.378588,4.0,14.0,385.0
2022-02-02-16:28:03.379588,4.0,14.0,385.0
2022-02-02-16:28:03.380581,1.0,14.0,385.0
2022-02-02-16:28:03.381579,2.0,10.0,385.0
2022-02-02-16:28:03.382578,1.0,4.0,385.0
2022-02-02-16:28:03.383550,1.0,4.0,385.0
2022-02-02-16:28:03.384571,5.0,5.0,385.0
2022-02-02-16:28:03.385569,4.0,3.0,386.0
2022-02-02-16:28:03.386565,2.0,5.0,386.0
2022-02-02-16:28:03.388560,2.0,5.0,386.0
2022-02-02-16:28:03.388560,10.0,4.0,385.0
2022-02-02-16:28:03.389557,11.0,1.0,386.0
2022-02-02-16:28:03.390561,11.0,1.0,386.0
2022-02-02-16:28:03.391529,11.0,1.0,386.0
2022-02-02-16:28:03.392549,7.0,4.0,385.0
2022-02-02-16:28:03.393523,0.0,15.0,385.0
2022-02-02-16:28:03.394544,0.0,15.0,385.0
2022-02-02-16:28:03.395544,0.0,15.0,385.0
2022-02-02-16:28:03.396541,0.0,15.0,385.0
2022-02-02-16:28:03.397536,3.0,3.0,385.0
2022-02-02-16:28:03.398536,3.0,3.0,385.0
2022-02-02-16:28:03.399531,3.0,3.0,385.0
2022-02-02-16:28:03.400528,3.0,3.0,385.0
2022-02-02-16:28:03.401526,4.0,4.0,386.0
2022-02-02-16:28:03.402523,3.0,0.0,386.0
2022-02-02-16:28:03.403523,3.0,0.0,386.0
2022-02-02-16:28:03.404520,8.0,4.0,385.0
2022-02-02-16:28:03.405515,14.0,6.0,385.0
2022-02-02-16:28:03.406489,7.0,6.0,385.0
2022-02-02-16:28:03.407485,7.0,6.0,385.0
2022-02-02-16:28:03.408507,7.0,6.0,385.0
2022-02-02-16:28:03.409505,9.0,2.0,385.0
2022-02-02-16:28:03.410502,3.0,9.0,385.0
2022-02-02-16:28:03.411502,1.0,14.0,385.0
2022-02-02-16:28:03.412496,1.0,14.0,385.0
2022-02-02-16:28:03.413496,0.0,12.0,385.0
2022-02-02-16:28:03.414494,1.0,9.0,385.0
2022-02-02-16:28:03.415491,3.0,10.0,385.0
2022-02-02-16:28:03.416508,3.0,10.0,385.0
2022-02-02-16:28:03.417506,1.0,7.0,385.0
2022-02-02-16:28:03.418503,3.0,4.0,385.0
2022-02-02-16:28:03.419500,5.0,1.0,385.0
2022-02-02-16:28:03.420451,5.0,1.0,385.0
2022-02-02-16:28:03.422473,6.0,3.0,385.0
2022-02-02-16:28:03.422473,14.0,5.0,385.0
2022-02-02-16:28:03.423443,14.0,5.0,385.0
2022-02-02-16:28:03.424441,14.0,5.0,385.0
2022-02-02-16:28:03.425485,9.0,0.0,385.0
2022-02-02-16:28:03.426482,4.0,4.0,385.0
2022-02-02-16:28:03.427460,0.0,14.0,385.0
2022-02-02-16:28:03.428430,0.0,14.0,385.0
2022-02-02-16:28:03.429453,2.0,6.0,385.0
2022-02-02-16:28:03.430460,3.0,3.0,385.0
2022-02-02-16:28:03.431447,3.0,3.0,385.0
2022-02-02-16:28:03.432448,3.0,3.0,385.0
2022-02-02-16:28:03.433417,3.0,8.0,385.0
2022-02-02-16:28:03.434439,6.0,1.0,385.0
2022-02-02-16:28:03.435438,6.0,1.0,385.0
2022-02-02-16:28:03.436435,6.0,1.0,385.0
2022-02-02-16:28:03.437431,3.0,5.0,386.0
2022-02-02-16:28:03.438429,8.0,4.0,385.0
2022-02-02-16:28:03.439426,9.0,5.0,386.0
2022-02-02-16:28:03.440398,9.0,5.0,386.0
2022-02-02-16:28:03.441395,9.0,5.0,386.0
2022-02-02-16:28:03.442418,10.0,2.0,385.0
2022-02-02-16:28:03.443390,6.0,7.0,385.0
2022-02-02-16:28:03.444414,5.0,9.0,385.0
2022-02-02-16:28:03.445411,5.0,9.0,385.0
2022-02-02-16:28:03.446409,2.0,16.0,385.0
2022-02-02-16:28:03.447405,2.0,7.0,385.0
2022-02-02-16:28:03.448404,1.0,10.0,386.0
2022-02-02-16:28:03.449400,1.0,10.0,386.0
2022-02-02-16:28:03.450397,5.0,5.0,385.0
2022-02-02-16:28:03.451395,3.0,4.0,385.0
2022-02-02-16:28:03.452391,2.0,4.0,385.0
2022-02-02-16:28:03.453389,2.0,4.0,385.0
2022-02-02-16:28:03.455382,8.0,2.0,385.0
2022-02-02-16:28:03.455382,8.0,5.0,386.0
2022-02-02-16:28:03.456402,8.0,5.0,386.0
2022-02-02-16:28:03.457378,8.0,5.0,386.0
2022-02-02-16:28:03.458374,9.0,5.0,386.0
2022-02-02-16:28:03.459373,7.0,8.0,385.0
2022-02-02-16:28:03.460370,5.0,10.0,386.0
2022-02-02-16:28:03.461342,5.0,10.0,386.0
2022-02-02-16:28:03.462370,1.0,14.0,385.0
2022-02-02-16:28:03.463361,4.0,8.0,385.0
2022-02-02-16:28:03.464359,6.0,7.0,385.0
2022-02-02-16:28:03.465331,6.0,7.0,385.0
2022-02-02-16:28:03.466354,5.0,4.0,385.0
2022-02-02-16:28:03.467352,2.0,4.0,385.0
2022-02-02-16:28:03.468349,4.0,1.0,385.0
2022-02-02-16:28:03.469339,4.0,1.0,385.0
2022-02-02-16:28:03.470344,10.0,2.0,386.0
2022-02-02-16:28:03.471340,10.0,4.0,385.0
2022-02-02-16:28:03.472337,10.0,4.0,385.0
2022-02-02-16:28:03.473310,10.0,4.0,385.0
2022-02-02-16:28:03.474307,8.0,4.0,386.0
2022-02-02-16:28:03.475331,10.0,4.0,385.0
2022-02-02-16:28:03.476327,4.0,0.0,385.0
2022-02-02-16:28:03.477325,4.0,7.0,386.0
2022-02-02-16:28:03.478323,4.0,7.0,386.0
2022-02-02-16:28:03.479319,1.0,15.0,385.0
2022-02-02-16:28:03.480337,2.0,11.0,386.0
2022-02-02-16:28:03.481336,2.0,11.0,386.0
2022-02-02-16:28:03.482332,2.0,11.0,386.0
2022-02-02-16:28:03.483566,1.0,8.0,385.0
2022-02-02-16:28:03.483566,3.0,5.0,385.0
2022-02-02-16:28:03.484621,2.0,4.0,385.0
2022-02-02-16:28:03.485618,2.0,4.0,385.0
2022-02-02-16:28:03.486615,2.0,4.0,385.0
2022-02-02-16:28:03.488555,7.0,6.0,385.0
2022-02-02-16:28:03.488555,7.0,6.0,385.0
2022-02-02-16:28:03.489607,7.0,6.0,385.0
2022-02-02-16:28:03.490604,7.0,6.0,385.0
2022-02-02-16:28:03.491602,11.0,7.0,385.0
2022-02-02-16:28:03.492599,10.0,1.0,385.0
2022-02-02-16:28:03.493542,6.0,3.0,385.0
2022-02-02-16:28:03.494593,6.0,3.0,385.0
2022-02-02-16:28:03.495595,7.0,7.0,385.0
2022-02-02-16:28:03.496567,3.0,14.0,386.0
2022-02-02-16:28:03.497565,1.0,10.0,385.0
2022-02-02-16:28:03.498529,1.0,10.0,385.0
2022-02-02-16:28:03.499526,4.0,5.0,385.0
2022-02-02-16:28:03.500549,4.0,5.0,385.0
2022-02-02-16:28:03.501613,4.0,5.0,385.0
2022-02-02-16:28:03.501613,4.0,5.0,385.0
2022-02-02-16:28:03.502639,4.0,5.0,385.0
2022-02-02-16:28:03.503636,2.0,3.0,386.0
2022-02-02-16:28:03.504632,2.0,3.0,386.0
2022-02-02-16:28:03.505604,8.0,2.0,385.0
2022-02-02-16:28:03.506629,8.0,2.0,385.0
2022-02-02-16:28:03.507825,7.0,7.0,385.0
2022-02-02-16:28:03.507825,8.0,4.0,385.0
2022-02-02-16:28:03.508859,6.0,3.0,385.0
2022-02-02-16:28:03.509856,6.0,3.0,385.0
2022-02-02-16:28:03.510857,6.0,3.0,385.0
2022-02-02-16:28:03.511842,4.0,9.0,385.0
2022-02-02-16:28:03.512840,3.0,16.0,385.0
2022-02-02-16:28:03.513837,2.0,10.0,385.0
2022-02-02-16:28:03.514836,2.0,10.0,385.0
2022-02-02-16:28:03.515832,4.0,11.0,385.0
2022-02-02-16:28:03.516829,5.0,5.0,385.0
2022-02-02-16:28:03.517827,3.0,4.0,385.0
2022-02-02-16:28:03.518824,3.0,4.0,385.0
2022-02-02-16:28:03.519821,6.0,2.0,385.0
2022-02-02-16:28:03.520819,6.0,2.0,385.0
2022-02-02-16:28:03.522788,10.0,4.0,385.0
2022-02-02-16:28:03.522788,10.0,4.0,385.0
2022-02-02-16:28:03.523785,9.0,6.0,385.0
2022-02-02-16:28:03.524807,6.0,0.0,386.0
2022-02-02-16:28:03.525809,6.0,0.0,386.0
2022-02-02-16:28:03.526777,6.0,0.0,386.0
2022-02-02-16:28:03.527799,6.0,7.0,385.0
2022-02-02-16:28:03.528798,0.0,14.0,385.0
2022-02-02-16:28:03.529794,1.0,15.0,386.0
2022-02-02-16:28:03.530790,1.0,15.0,386.0
2022-02-02-16:28:03.531791,2.0,5.0,385.0
2022-02-02-16:28:03.532786,3.0,4.0,385.0
2022-02-02-16:28:03.533784,3.0,4.0,385.0
2022-02-02-16:28:03.534781,3.0,4.0,385.0
2022-02-02-16:28:03.535779,3.0,4.0,385.0
2022-02-02-16:28:03.536777,5.0,3.0,385.0
2022-02-02-16:28:03.537774,5.0,0.0,385.0
2022-02-02-16:28:03.538769,5.0,0.0,385.0
2022-02-02-16:28:03.539745,5.0,0.0,385.0
2022-02-02-16:28:03.540740,12.0,5.0,385.0
2022-02-02-16:28:03.541737,7.0,1.0,385.0
2022-02-02-16:28:03.542759,7.0,1.0,385.0
2022-02-02-16:28:03.543756,7.0,1.0,385.0
2022-02-02-16:28:03.544754,4.0,5.0,385.0
2022-02-02-16:28:03.545751,5.0,12.0,385.0
2022-02-02-16:28:03.546751,0.0,12.0,385.0
2022-02-02-16:28:03.547747,0.0,12.0,385.0
2022-02-02-16:28:03.548745,1.0,11.0,385.0
2022-02-02-16:28:03.549741,3.0,4.0,385.0
2022-02-02-16:28:03.550738,3.0,6.0,385.0
2022-02-02-16:28:03.551736,3.0,6.0,385.0
2022-02-02-16:28:03.552708,1.0,7.0,386.0
2022-02-02-16:28:03.553754,3.0,6.0,385.0
2022-02-02-16:28:03.554749,9.0,3.0,385.0
2022-02-02-16:28:03.556697,9.0,3.0,385.0
2022-02-02-16:28:03.556697,8.0,3.0,385.0
2022-02-02-16:28:03.557694,12.0,1.0,385.0
2022-02-02-16:28:03.558737,7.0,2.0,385.0
2022-02-02-16:28:03.559689,7.0,2.0,385.0
2022-02-02-16:28:03.560734,4.0,7.0,385.0
2022-02-02-16:28:03.561732,3.0,12.0,385.0
2022-02-02-16:28:03.562733,2.0,13.0,386.0
2022-02-02-16:28:03.563678,2.0,13.0,386.0
2022-02-02-16:28:03.564721,2.0,6.0,385.0
2022-02-02-16:28:03.565719,2.0,5.0,386.0
2022-02-02-16:28:03.566716,5.0,3.0,385.0
2022-02-02-16:28:03.567667,5.0,3.0,385.0
2022-02-02-16:28:03.568690,6.0,4.0,385.0
2022-02-02-16:28:03.569691,6.0,2.0,385.0
2022-02-02-16:28:03.570684,7.0,2.0,386.0
2022-02-02-16:28:03.571682,7.0,2.0,386.0
2022-02-02-16:28:03.572678,10.0,6.0,385.0
2022-02-02-16:28:03.573651,10.0,3.0,385.0
2022-02-02-16:28:03.574674,9.0,2.0,385.0
2022-02-02-16:28:03.575671,9.0,2.0,385.0
2022-02-02-16:28:03.576644,9.0,2.0,385.0
2022-02-02-16:28:03.577665,9.0,4.0,385.0
2022-02-02-16:28:03.578662,2.0,12.0,385.0
2022-02-02-16:28:03.579661,3.0,13.0,385.0
2022-02-02-16:28:03.580661,3.0,13.0,385.0
2022-02-02-16:28:03.581656,1.0,8.0,385.0
2022-02-02-16:28:03.582652,2.0,8.0,385.0
2022-02-02-16:28:03.583650,4.0,3.0,385.0
2022-02-02-16:28:03.584654,4.0,3.0,385.0
2022-02-02-16:28:03.585668,2.0,4.0,385.0
2022-02-02-16:28:03.586663,3.0,7.0,385.0
2022-02-02-16:28:03.587662,6.0,0.0,385.0
2022-02-02-16:28:03.588657,6.0,0.0,385.0
2022-02-02-16:28:03.589655,4.0,6.0,385.0
2022-02-02-16:28:03.590653,8.0,1.0,386.0
2022-02-02-16:28:03.592648,8.0,1.0,386.0
2022-02-02-16:28:03.592648,6.0,1.0,385.0
2022-02-02-16:28:03.593645,3.0,10.0,385.0
2022-02-02-16:28:03.594642,2.0,12.0,385.0
2022-02-02-16:28:03.595644,2.0,12.0,385.0
2022-02-02-16:28:03.596637,2.0,12.0,385.0
2022-02-02-16:28:03.597633,2.0,12.0,385.0
2022-02-02-16:28:03.598631,5.0,5.0,385.0
2022-02-02-16:28:03.599628,3.0,3.0,385.0
2022-02-02-16:28:03.600579,3.0,3.0,385.0
2022-02-02-16:28:03.601577,3.0,3.0,385.0
2022-02-02-16:28:03.602603,4.0,0.0,386.0
2022-02-02-16:28:03.603597,5.0,5.0,385.0
2022-02-02-16:28:03.604569,5.0,5.0,385.0
2022-02-02-16:28:03.605592,8.0,8.0,385.0
2022-02-02-16:28:03.606565,8.0,2.0,385.0
2022-02-02-16:28:03.607594,8.0,2.0,385.0
2022-02-02-16:28:03.608583,8.0,2.0,385.0
2022-02-02-16:28:03.609579,8.0,2.0,385.0
2022-02-02-16:28:03.610577,1.0,7.0,386.0
2022-02-02-16:28:03.611574,0.0,13.0,385.0
2022-02-02-16:28:03.612571,0.0,13.0,385.0
2022-02-02-16:28:03.613571,0.0,13.0,385.0
2022-02-02-16:28:03.614566,1.0,5.0,385.0
2022-02-02-16:28:03.615564,3.0,4.0,385.0
2022-02-02-16:28:03.616537,3.0,4.0,385.0
2022-02-02-16:28:03.617533,3.0,4.0,385.0
2022-02-02-16:28:03.618531,5.0,5.0,385.0
2022-02-02-16:28:03.619528,4.0,6.0,385.0
2022-02-02-16:28:03.620526,5.0,1.0,385.0
2022-02-02-16:28:03.621523,5.0,1.0,385.0
2022-02-02-16:28:03.622520,8.0,1.0,385.0
2022-02-02-16:28:03.624516,10.0,4.0,385.0
2022-02-02-16:28:03.624516,10.0,4.0,385.0
2022-02-02-16:28:03.625551,10.0,4.0,385.0
2022-02-02-16:28:03.626511,2.0,12.0,385.0
2022-02-02-16:28:03.627508,2.0,12.0,385.0
2022-02-02-16:28:03.628505,2.0,12.0,385.0
2022-02-02-16:28:03.629502,2.0,12.0,385.0
2022-02-02-16:28:03.630499,0.0,6.0,385.0
2022-02-02-16:28:03.631497,6.0,3.0,385.0
2022-02-02-16:28:03.632495,6.0,3.0,385.0
2022-02-02-16:28:03.633491,6.0,3.0,385.0
2022-02-02-16:28:03.634489,4.0,3.0,385.0
2022-02-02-16:28:03.635486,5.0,2.0,385.0
2022-02-02-16:28:03.636483,5.0,2.0,385.0
2022-02-02-16:28:03.637481,5.0,2.0,385.0
2022-02-02-16:28:03.638510,5.0,2.0,385.0
2022-02-02-16:28:03.639508,5.0,2.0,385.0
2022-02-02-16:28:03.640473,10.0,3.0,386.0
2022-02-02-16:28:03.641471,10.0,3.0,386.0
2022-02-02-16:28:03.642491,8.0,2.0,385.0
2022-02-02-16:28:03.643465,3.0,11.0,385.0
2022-02-02-16:28:03.644486,3.0,11.0,385.0
2022-02-02-16:28:03.645486,3.0,11.0,385.0
2022-02-02-16:28:03.646481,3.0,11.0,385.0
2022-02-02-16:28:03.647478,1.0,7.0,385.0
2022-02-02-16:28:03.648476,1.0,7.0,385.0
2022-02-02-16:28:03.649479,1.0,7.0,385.0
2022-02-02-16:28:03.650470,1.0,7.0,385.0
2022-02-02-16:28:03.651468,3.0,3.0,385.0
2022-02-02-16:28:03.652465,3.0,3.0,385.0
2022-02-02-16:28:03.653464,3.0,3.0,385.0
2022-02-02-16:28:03.654460,3.0,3.0,385.0
2022-02-02-16:28:03.655456,3.0,1.0,385.0
2022-02-02-16:28:03.656523,3.0,1.0,385.0
2022-02-02-16:28:03.656523,9.0,4.0,385.0
2022-02-02-16:28:03.658555,9.0,4.0,385.0
2022-02-02-16:28:03.658555,7.0,10.0,385.0
2022-02-02-16:28:03.659550,7.0,10.0,385.0
2022-02-02-16:28:03.660547,7.0,10.0,385.0
2022-02-02-16:28:03.661545,7.0,10.0,385.0
2022-02-02-16:28:03.662542,7.0,10.0,385.0
2022-02-02-16:28:03.663541,1.0,15.0,385.0
2022-02-02-16:28:03.664654,0.0,7.0,385.0
2022-02-02-16:28:03.664654,1.0,5.0,385.0
2022-02-02-16:28:03.665708,1.0,5.0,385.0
2022-02-02-16:28:03.666706,1.0,5.0,385.0
2022-02-02-16:28:03.667703,4.0,7.0,385.0
2022-02-02-16:28:03.668701,4.0,5.0,385.0
2022-02-02-16:28:03.669697,3.0,7.0,385.0
2022-02-02-16:28:03.670699,3.0,7.0,385.0
2022-02-02-16:28:03.671693,6.0,4.0,385.0
2022-02-02-16:28:03.672689,7.0,1.0,385.0
2022-02-02-16:28:03.673632,9.0,6.0,385.0
2022-02-02-16:28:03.674808,9.0,5.0,385.0
2022-02-02-16:28:03.674808,10.0,2.0,386.0
2022-02-02-16:28:03.675839,10.0,2.0,386.0
2022-02-02-16:28:03.676805,4.0,8.0,385.0
2022-02-02-16:28:03.677837,4.0,8.0,385.0
2022-02-02-16:28:03.678832,4.0,8.0,385.0
2022-02-02-16:28:03.679829,0.0,14.0,385.0
2022-02-02-16:28:03.680826,4.0,6.0,385.0
2022-02-02-16:28:03.681824,4.0,6.0,385.0
2022-02-02-16:28:03.682821,4.0,6.0,385.0
2022-02-02-16:28:03.683821,2.0,6.0,386.0
2022-02-02-16:28:03.684816,6.0,0.0,385.0
2022-02-02-16:28:03.685875,6.0,0.0,385.0
2022-02-02-16:28:03.685875,6.0,0.0,385.0
2022-02-02-16:28:03.687093,6.0,0.0,385.0
2022-02-02-16:28:03.687093,4.0,2.0,385.0
2022-02-02-16:28:03.688127,4.0,2.0,385.0
2022-02-02-16:28:03.689122,7.0,9.0,385.0
2022-02-02-16:28:03.690088,7.0,9.0,385.0
2022-02-02-16:28:03.692082,7.0,9.0,385.0
2022-02-02-16:28:03.692082,3.0,10.0,385.0
2022-02-02-16:28:03.693079,3.0,10.0,385.0
2022-02-02-16:28:03.694108,3.0,10.0,385.0
2022-02-02-16:28:03.695105,3.0,10.0,385.0
2022-02-02-16:28:03.696105,4.0,12.0,386.0
2022-02-02-16:28:03.697100,5.0,8.0,385.0
2022-02-02-16:28:03.698103,5.0,8.0,385.0
2022-02-02-16:28:03.699313,5.0,8.0,385.0
2022-02-02-16:28:03.699313,0.0,7.0,386.0
2022-02-02-16:28:03.700345,0.0,7.0,386.0
2022-02-02-16:28:03.701462,4.0,4.0,385.0
2022-02-02-16:28:03.701462,4.0,4.0,385.0
2022-02-02-16:28:03.702516,4.0,4.0,385.0
2022-02-02-16:28:03.703723,4.0,4.0,385.0
2022-02-02-16:28:03.703723,2.0,4.0,385.0
2022-02-02-16:28:03.704758,2.0,4.0,385.0
2022-02-02-16:28:03.705752,7.0,3.0,385.0
2022-02-02-16:28:03.706719,7.0,3.0,385.0
2022-02-02-16:28:03.707749,7.0,3.0,385.0
2022-02-02-16:28:03.708744,10.0,3.0,385.0
2022-02-02-16:28:03.709880,4.0,8.0,385.0
2022-02-02-16:28:03.709880,4.0,8.0,385.0
2022-02-02-16:28:03.710937,4.0,8.0,385.0
2022-02-02-16:28:03.711931,4.0,8.0,385.0
2022-02-02-16:28:03.713153,2.0,11.0,385.0
2022-02-02-16:28:03.713153,1.0,11.0,385.0
2022-02-02-16:28:03.714317,1.0,11.0,385.0
2022-02-02-16:28:03.714317,4.0,10.0,386.0
2022-02-02-16:28:03.715371,4.0,10.0,386.0
2022-02-02-16:28:03.716369,3.0,7.0,385.0
2022-02-02-16:28:03.717610,5.0,10.0,386.0
2022-02-02-16:28:03.717610,6.0,4.0,385.0
2022-02-02-16:28:03.718641,6.0,4.0,385.0
2022-02-02-16:28:03.719638,6.0,4.0,385.0
2022-02-02-16:28:03.720704,8.0,6.0,385.0
2022-02-02-16:28:03.721192,8.0,0.0,386.0
2022-02-02-16:28:03.721192,11.0,3.0,386.0
2022-02-02-16:28:03.722224,11.0,3.0,386.0
2022-02-02-16:28:03.723222,11.0,3.0,386.0
2022-02-02-16:28:03.724218,11.0,3.0,386.0
2022-02-02-16:28:03.725217,8.0,2.0,385.0
2022-02-02-16:28:03.727179,8.0,2.0,385.0
2022-02-02-16:28:03.727179,8.0,2.0,385.0
2022-02-02-16:28:03.728208,1.0,12.0,385.0
2022-02-02-16:28:03.729207,3.0,6.0,385.0
2022-02-02-16:28:03.730273,3.0,6.0,385.0
2022-02-02-16:28:03.730273,3.0,6.0,385.0
2022-02-02-16:28:03.731320,3.0,6.0,385.0
2022-02-02-16:28:03.732316,3.0,6.0,385.0
2022-02-02-16:28:03.733314,1.0,8.0,386.0
2022-02-02-16:28:03.734418,5.0,4.0,385.0
2022-02-02-16:28:03.734418,5.0,4.0,385.0
2022-02-02-16:28:03.735475,5.0,4.0,385.0
2022-02-02-16:28:03.736470,5.0,4.0,385.0
2022-02-02-16:28:03.737467,6.0,6.0,385.0
2022-02-02-16:28:03.738634,9.0,3.0,385.0
2022-02-02-16:28:03.738634,9.0,3.0,385.0
2022-02-02-16:28:03.739669,9.0,3.0,385.0
2022-02-02-16:28:03.740656,8.0,7.0,385.0
2022-02-02-16:28:03.741655,9.0,1.0,385.0
2022-02-02-16:28:03.742657,9.0,1.0,385.0
2022-02-02-16:28:03.743686,9.0,1.0,385.0
2022-02-02-16:28:03.745031,3.0,13.0,385.0
2022-02-02-16:28:03.745031,4.0,11.0,385.0
2022-02-02-16:28:03.746086,3.0,10.0,385.0
2022-02-02-16:28:03.747141,3.0,10.0,385.0
2022-02-02-16:28:03.747141,3.0,10.0,385.0
2022-02-02-16:28:03.748373,3.0,10.0,385.0
2022-02-02-16:28:03.748373,2.0,7.0,385.0
2022-02-02-16:28:03.749432,2.0,5.0,385.0
2022-02-02-16:28:03.750424,5.0,5.0,385.0
2022-02-02-16:28:03.751471,5.0,5.0,385.0
2022-02-02-16:28:03.751471,5.0,5.0,385.0
2022-02-02-16:28:03.752517,5.0,5.0,385.0
2022-02-02-16:28:03.753515,5.0,3.0,385.0
2022-02-02-16:28:03.754512,5.0,2.0,385.0
2022-02-02-16:28:03.755514,5.0,2.0,385.0
2022-02-02-16:28:03.756507,5.0,2.0,385.0
2022-02-02-16:28:03.757737,10.0,4.0,385.0
2022-02-02-16:28:03.757737,9.0,1.0,385.0
2022-02-02-16:28:03.758771,9.0,1.0,385.0
2022-02-02-16:28:03.759766,5.0,1.0,385.0
2022-02-02-16:28:03.760731,5.0,1.0,385.0
2022-02-02-16:28:03.762786,6.0,14.0,385.0
2022-02-02-16:28:03.762786,3.0,16.0,386.0
2022-02-02-16:28:03.763724,2.0,13.0,385.0
2022-02-02-16:28:03.764779,2.0,13.0,385.0
2022-02-02-16:28:03.765765,4.0,11.0,385.0
2022-02-02-16:28:03.766762,3.0,6.0,385.0
2022-02-02-16:28:03.767760,4.0,4.0,385.0
2022-02-02-16:28:03.768757,4.0,4.0,385.0
2022-02-02-16:28:03.769754,2.0,1.0,385.0
2022-02-02-16:28:03.770752,5.0,1.0,386.0
2022-02-02-16:28:03.771749,8.0,1.0,385.0
2022-02-02-16:28:03.772700,8.0,1.0,385.0
2022-02-02-16:28:03.773697,5.0,2.0,385.0
2022-02-02-16:28:03.774741,5.0,3.0,385.0
2022-02-02-16:28:03.775738,7.0,1.0,385.0
2022-02-02-16:28:03.776689,7.0,1.0,385.0
2022-02-02-16:28:03.777686,7.0,1.0,385.0
2022-02-02-16:28:03.778731,3.0,8.0,385.0
2022-02-02-16:28:03.779780,4.0,9.0,385.0
2022-02-02-16:28:03.780237,4.0,9.0,385.0
2022-02-02-16:28:03.780237,4.0,9.0,385.0
2022-02-02-16:28:03.781448,4.0,9.0,385.0
2022-02-02-16:28:03.781448,5.0,9.0,386.0
2022-02-02-16:28:03.782495,7.0,5.0,385.0
2022-02-02-16:28:03.783492,7.0,2.0,385.0
2022-02-02-16:28:03.784490,7.0,2.0,385.0
2022-02-02-16:28:03.785673,7.0,2.0,385.0
2022-02-02-16:28:03.785673,7.0,5.0,385.0
2022-02-02-16:28:03.786718,4.0,1.0,386.0
2022-02-02-16:28:03.787721,10.0,6.0,385.0
2022-02-02-16:28:03.788715,10.0,6.0,385.0
2022-02-02-16:28:03.789710,10.0,6.0,385.0
2022-02-02-16:28:03.790662,11.0,6.0,385.0
2022-02-02-16:28:03.791706,10.0,3.0,385.0
2022-02-02-16:28:03.792702,10.0,3.0,385.0
2022-02-02-16:28:03.793699,10.0,3.0,385.0
2022-02-02-16:28:03.794697,10.0,6.0,385.0
2022-02-02-16:28:03.795704,6.0,10.0,385.0
2022-02-02-16:28:03.796693,4.0,8.0,385.0
2022-02-02-16:28:03.798640,4.0,8.0,385.0
2022-02-02-16:28:03.798640,4.0,2.0,385.0
2022-02-02-16:28:03.799662,8.0,0.0,385.0
2022-02-02-16:28:03.800665,8.0,0.0,385.0
2022-02-02-16:28:03.801656,8.0,0.0,385.0
2022-02-02-16:28:03.802653,8.0,4.0,385.0
2022-02-02-16:28:03.803653,3.0,2.0,385.0
2022-02-02-16:28:03.804648,7.0,0.0,385.0
2022-02-02-16:28:03.805645,7.0,0.0,385.0
2022-02-02-16:28:03.806642,6.0,4.0,385.0
2022-02-02-16:28:03.807640,5.0,2.0,385.0
2022-02-02-16:28:03.808640,5.0,2.0,385.0
2022-02-02-16:28:03.809635,5.0,2.0,385.0
2022-02-02-16:28:03.810633,5.0,5.0,385.0
2022-02-02-16:28:03.811631,1.0,14.0,385.0
2022-02-02-16:28:03.812634,1.0,14.0,385.0
2022-02-02-16:28:03.813600,1.0,14.0,385.0
2022-02-02-16:28:03.814621,0.0,11.0,385.0
2022-02-02-16:28:03.815625,1.0,4.0,385.0
2022-02-02-16:28:03.816618,1.0,4.0,385.0
2022-02-02-16:28:03.817591,1.0,4.0,385.0
2022-02-02-16:28:03.818611,2.0,4.0,386.0
2022-02-02-16:28:03.819708,3.0,4.0,385.0
2022-02-02-16:28:03.819708,3.0,4.0,385.0
2022-02-02-16:28:03.820754,3.0,4.0,385.0
2022-02-02-16:28:03.821733,3.0,4.0,385.0
2022-02-02-16:28:03.822945,7.0,4.0,385.0
2022-02-02-16:28:03.822945,8.0,7.0,385.0
2022-02-02-16:28:03.824072,8.0,7.0,385.0
2022-02-02-16:28:03.824072,5.0,0.0,385.0
2022-02-02-16:28:03.825118,5.0,0.0,385.0
2022-02-02-16:28:03.826300,5.0,0.0,385.0
2022-02-02-16:28:03.826300,5.0,1.0,385.0
2022-02-02-16:28:03.827324,5.0,1.0,385.0
2022-02-02-16:28:03.828322,1.0,18.0,385.0
2022-02-02-16:28:03.829295,1.0,18.0,385.0
2022-02-02-16:28:03.830339,1.0,18.0,385.0
2022-02-02-16:28:03.831315,3.0,10.0,385.0
2022-02-02-16:28:03.833289,1.0,7.0,386.0
2022-02-02-16:28:03.834282,1.0,7.0,386.0
2022-02-02-16:28:03.834282,4.0,0.0,386.0
2022-02-02-16:28:03.835304,4.0,0.0,386.0
2022-02-02-16:28:03.836304,4.0,0.0,386.0
2022-02-02-16:28:03.837298,4.0,0.0,386.0
2022-02-02-16:28:03.838271,4.0,0.0,386.0
2022-02-02-16:28:03.839292,7.0,3.0,385.0
2022-02-02-16:28:03.840265,7.0,5.0,386.0
2022-02-02-16:28:03.841380,11.0,2.0,385.0
2022-02-02-16:28:03.841380,11.0,2.0,385.0
2022-02-02-16:28:03.842405,11.0,2.0,385.0
2022-02-02-16:28:03.843378,9.0,3.0,385.0
2022-02-02-16:28:03.844401,4.0,6.0,385.0
2022-02-02-16:28:03.845735,1.0,13.0,386.0
2022-02-02-16:28:03.845735,1.0,13.0,386.0
2022-02-02-16:28:03.846761,1.0,13.0,386.0
2022-02-02-16:28:03.847765,4.0,12.0,385.0
2022-02-02-16:28:03.848730,4.0,12.0,385.0
2022-02-02-16:28:03.849752,5.0,9.0,385.0
2022-02-02-16:28:03.850724,1.0,7.0,385.0
2022-02-02-16:28:03.851721,5.0,6.0,385.0
2022-02-02-16:28:03.852719,6.0,1.0,385.0
2022-02-02-16:28:03.853716,6.0,1.0,385.0
2022-02-02-16:28:03.854714,6.0,1.0,385.0
2022-02-02-16:28:03.855712,6.0,2.0,385.0
2022-02-02-16:28:03.856748,11.0,6.0,386.0
2022-02-02-16:28:03.857706,10.0,3.0,385.0
2022-02-02-16:28:03.858704,10.0,3.0,385.0
2022-02-02-16:28:03.859738,7.0,3.0,385.0
2022-02-02-16:28:03.860836,4.0,14.0,385.0
2022-02-02-16:28:03.860836,4.0,14.0,385.0
2022-02-02-16:28:03.861884,4.0,14.0,385.0
2022-02-02-16:28:03.862881,4.0,14.0,385.0
2022-02-02-16:28:03.864830,1.0,12.0,386.0
2022-02-02-16:28:03.864830,0.0,7.0,385.0
2022-02-02-16:28:03.865826,0.0,7.0,385.0
2022-02-02-16:28:03.866849,0.0,7.0,385.0
2022-02-02-16:28:03.867868,3.0,5.0,385.0
2022-02-02-16:28:03.868913,4.0,0.0,385.0
2022-02-02-16:28:03.868913,4.0,0.0,385.0
2022-02-02-16:28:03.869959,4.0,0.0,385.0
2022-02-02-16:28:03.870936,4.0,0.0,385.0
2022-02-02-16:28:03.871954,3.0,1.0,385.0
2022-02-02-16:28:03.872952,9.0,10.0,386.0
2022-02-02-16:28:03.873901,9.0,6.0,385.0
2022-02-02-16:28:03.874926,9.0,6.0,385.0
2022-02-02-16:28:03.875943,12.0,0.0,385.0
2022-02-02-16:28:03.876893,10.0,5.0,385.0
2022-02-02-16:28:03.877937,1.0,12.0,385.0
2022-02-02-16:28:03.878934,1.0,12.0,385.0
2022-02-02-16:28:03.879932,1.0,12.0,385.0
2022-02-02-16:28:03.880882,3.0,14.0,385.0
2022-02-02-16:28:03.881926,2.0,10.0,385.0
2022-02-02-16:28:03.882928,3.0,9.0,385.0
2022-02-02-16:28:03.884167,3.0,9.0,385.0
2022-02-02-16:28:03.884167,3.0,4.0,385.0
2022-02-02-16:28:03.885222,3.0,4.0,386.0
2022-02-02-16:28:03.886264,3.0,4.0,386.0
2022-02-02-16:28:03.886264,3.0,4.0,386.0
2022-02-02-16:28:03.887483,3.0,4.0,386.0
2022-02-02-16:28:03.887483,4.0,0.0,385.0
2022-02-02-16:28:03.888537,9.0,6.0,385.0
2022-02-02-16:28:03.889536,7.0,7.0,386.0
2022-02-02-16:28:03.890485,7.0,7.0,386.0
2022-02-02-16:28:03.891475,7.0,7.0,386.0
2022-02-02-16:28:03.892529,5.0,2.0,385.0
2022-02-02-16:28:03.893469,7.0,0.0,385.0
2022-02-02-16:28:03.894528,2.0,9.0,385.0
2022-02-02-16:28:03.896516,2.0,9.0,385.0
2022-02-02-16:28:03.896516,2.0,13.0,386.0
2022-02-02-16:28:03.897515,0.0,8.0,385.0
2022-02-02-16:28:03.898502,1.0,5.0,386.0
2022-02-02-16:28:03.899502,1.0,5.0,386.0
2022-02-02-16:28:03.900497,5.0,9.0,385.0
2022-02-02-16:28:03.901494,7.0,5.0,385.0
2022-02-02-16:28:03.902492,5.0,1.0,385.0
2022-02-02-16:28:03.903488,5.0,1.0,385.0
2022-02-02-16:28:03.904538,5.0,1.0,385.0
2022-02-02-16:28:03.905018,7.0,2.0,385.0
2022-02-02-16:28:03.905154,8.0,5.0,385.0
2022-02-02-16:28:03.905154,8.0,5.0,385.0
2022-02-02-16:28:03.906200,8.0,5.0,385.0
2022-02-02-16:28:03.907151,8.0,5.0,385.0
2022-02-02-16:28:03.908194,8.0,5.0,385.0
2022-02-02-16:28:03.909193,9.0,2.0,385.0
2022-02-02-16:28:03.910143,10.0,3.0,385.0
2022-02-02-16:28:03.911573,6.0,7.0,385.0
2022-02-02-16:28:03.911573,6.0,7.0,385.0
2022-02-02-16:28:03.912599,3.0,12.0,385.0
2022-02-02-16:28:03.913617,3.0,10.0,385.0
2022-02-02-16:28:03.914616,3.0,10.0,385.0
2022-02-02-16:28:03.915616,3.0,10.0,385.0
2022-02-02-16:28:03.916609,3.0,10.0,385.0
2022-02-02-16:28:03.917607,0.0,7.0,386.0
2022-02-02-16:28:03.918608,5.0,7.0,385.0
2022-02-02-16:28:03.919601,5.0,5.0,385.0
2022-02-02-16:28:03.920598,5.0,5.0,385.0
2022-02-02-16:28:03.921596,4.0,5.0,385.0
2022-02-02-16:28:03.922595,6.0,3.0,385.0
2022-02-02-16:28:03.923574,7.0,4.0,385.0
2022-02-02-16:28:03.924590,7.0,4.0,385.0
2022-02-02-16:28:03.925585,11.0,3.0,385.0
2022-02-02-16:28:03.926582,11.0,4.0,385.0
2022-02-02-16:28:03.927580,4.0,8.0,385.0
2022-02-02-16:28:03.928581,4.0,8.0,385.0
2022-02-02-16:28:03.929574,0.0,12.0,386.0
2022-02-02-16:28:03.931522,3.0,11.0,386.0
2022-02-02-16:28:03.931522,3.0,11.0,386.0
2022-02-02-16:28:03.932546,3.0,11.0,386.0
2022-02-02-16:28:03.933818,4.0,3.0,385.0
2022-02-02-16:28:03.933818,5.0,2.0,385.0
2022-02-02-16:28:03.934938,5.0,2.0,385.0
2022-02-02-16:28:03.934938,5.0,2.0,385.0
2022-02-02-16:28:03.935984,5.0,2.0,385.0
2022-02-02-16:28:03.936982,5.0,2.0,385.0
2022-02-02-16:28:03.937978,8.0,3.0,385.0
2022-02-02-16:28:03.938979,6.0,2.0,385.0
2022-02-02-16:28:03.939973,7.0,3.0,385.0
2022-02-02-16:28:03.940970,7.0,3.0,385.0
2022-02-02-16:28:03.941970,11.0,5.0,385.0
2022-02-02-16:28:03.942966,7.0,2.0,385.0
2022-02-02-16:28:03.943963,4.0,9.0,385.0
2022-02-02-16:28:03.944913,4.0,9.0,385.0
2022-02-02-16:28:03.945936,6.0,12.0,386.0
2022-02-02-16:28:03.946908,2.0,13.0,385.0
2022-02-02-16:28:03.947905,2.0,13.0,385.0
2022-02-02-16:28:03.948930,2.0,13.0,385.0
2022-02-02-16:28:03.949947,4.0,5.0,385.0
2022-02-02-16:28:03.950944,4.0,3.0,385.0
2022-02-02-16:28:03.951941,4.0,3.0,385.0
2022-02-02-16:28:03.953131,4.0,3.0,385.0
2022-02-02-16:28:03.953131,6.0,1.0,385.0
2022-02-02-16:28:03.954162,6.0,1.0,385.0
2022-02-02-16:28:03.955165,7.0,4.0,385.0
2022-02-02-16:28:03.956159,7.0,4.0,385.0
2022-02-02-16:28:03.957123,7.0,4.0,385.0
2022-02-02-16:28:03.958156,8.0,3.0,385.0
2022-02-02-16:28:03.959150,8.0,4.0,385.0
2022-02-02-16:28:03.960115,8.0,4.0,385.0
2022-02-02-16:28:03.961112,8.0,4.0,385.0
2022-02-02-16:28:03.962144,3.0,13.0,385.0
2022-02-02-16:28:03.963144,1.0,8.0,385.0
2022-02-02-16:28:03.965101,1.0,8.0,385.0
2022-02-02-16:28:03.965101,4.0,5.0,385.0
2022-02-02-16:28:03.966201,2.0,5.0,385.0
2022-02-02-16:28:03.966201,2.0,5.0,385.0
2022-02-02-16:28:03.967247,2.0,5.0,385.0
2022-02-02-16:28:03.968248,2.0,5.0,385.0
2022-02-02-16:28:03.969244,2.0,5.0,385.0
2022-02-02-16:28:03.970239,5.0,3.0,386.0
2022-02-02-16:28:03.971237,7.0,2.0,385.0
2022-02-02-16:28:03.972235,6.0,0.0,385.0
2022-02-02-16:28:03.973231,6.0,0.0,385.0
2022-02-02-16:28:03.974183,11.0,7.0,385.0
2022-02-02-16:28:03.975226,7.0,5.0,385.0
2022-02-02-16:28:03.976223,7.0,1.0,385.0
2022-02-02-16:28:03.976223,7.0,1.0,385.0
2022-02-02-16:28:03.977278,7.0,1.0,385.0
2022-02-02-16:28:03.978274,7.0,1.0,385.0
2022-02-02-16:28:03.979617,4.0,12.0,385.0
2022-02-02-16:28:03.979617,4.0,12.0,385.0
2022-02-02-16:28:03.980650,4.0,12.0,385.0
2022-02-02-16:28:03.981614,1.0,11.0,385.0
2022-02-02-16:28:03.982646,0.0,5.0,385.0
2022-02-02-16:28:03.983701,4.0,4.0,385.0
2022-02-02-16:28:03.983701,4.0,4.0,385.0
2022-02-02-16:28:03.984755,4.0,4.0,385.0
2022-02-02-16:28:03.985753,4.0,4.0,385.0
2022-02-02-16:28:03.986749,3.0,4.0,385.0
2022-02-02-16:28:03.987747,2.0,4.0,385.0
2022-02-02-16:28:03.988744,9.0,6.0,385.0
2022-02-02-16:28:03.989746,9.0,6.0,385.0
2022-02-02-16:28:03.990685,8.0,9.0,385.0
2022-02-02-16:28:03.991736,11.0,3.0,385.0
2022-02-02-16:28:03.992734,10.0,0.0,385.0
2022-02-02-16:28:03.993731,10.0,0.0,385.0
2022-02-02-16:28:03.994728,6.0,6.0,386.0
2022-02-02-16:28:03.995725,3.0,12.0,385.0
2022-02-02-16:28:03.996723,4.0,11.0,385.0
2022-02-02-16:28:03.998006,4.0,11.0,385.0
2022-02-02-16:28:03.998006,4.0,8.0,385.0
2022-02-02-16:28:03.999039,4.0,8.0,385.0
2022-02-02-16:28:04.000037,4.0,10.0,385.0
2022-02-02-16:28:04.001998,4.0,10.0,385.0
2022-02-02-16:28:04.001998,7.0,3.0,385.0
2022-02-02-16:28:04.003027,6.0,0.0,385.0
2022-02-02-16:28:04.004076,8.0,4.0,385.0
2022-02-02-16:28:04.004076,8.0,4.0,385.0
2022-02-02-16:28:04.005126,8.0,4.0,385.0
2022-02-02-16:28:04.006315,8.0,4.0,385.0
2022-02-02-16:28:04.006315,7.0,7.0,386.0
2022-02-02-16:28:04.007352,7.0,7.0,386.0
2022-02-02-16:28:04.008467,8.0,1.0,385.0
2022-02-02-16:28:04.008467,8.0,1.0,385.0
2022-02-02-16:28:04.009515,8.0,1.0,385.0
2022-02-02-16:28:04.010709,8.0,1.0,385.0
2022-02-02-16:28:04.010709,3.0,7.0,385.0
2022-02-02-16:28:04.011743,3.0,7.0,385.0
2022-02-02-16:28:04.012738,0.0,10.0,385.0
2022-02-02-16:28:04.013736,0.0,10.0,385.0
2022-02-02-16:28:04.014923,0.0,10.0,385.0
2022-02-02-16:28:04.014923,2.0,3.0,385.0
2022-02-02-16:28:04.016069,2.0,3.0,385.0
2022-02-02-16:28:04.016069,3.0,2.0,385.0
2022-02-02-16:28:04.017120,3.0,2.0,385.0
2022-02-02-16:28:04.018113,3.0,2.0,385.0
2022-02-02-16:28:04.019109,3.0,2.0,385.0
2022-02-02-16:28:04.020390,7.0,1.0,385.0
2022-02-02-16:28:04.020390,10.0,4.0,385.0
2022-02-02-16:28:04.021546,10.0,4.0,385.0
2022-02-02-16:28:04.021546,10.0,4.0,385.0
2022-02-02-16:28:04.022592,10.0,4.0,385.0
2022-02-02-16:28:04.023590,10.0,6.0,386.0
2022-02-02-16:28:04.024587,7.0,5.0,385.0
2022-02-02-16:28:04.024948,8.0,2.0,385.0
2022-02-02-16:28:04.024948,8.0,2.0,385.0
2022-02-02-16:28:04.026002,8.0,2.0,385.0
2022-02-02-16:28:04.026999,8.0,2.0,385.0
2022-02-02-16:28:04.027998,5.0,4.0,385.0
2022-02-02-16:28:04.028994,5.0,15.0,385.0
2022-02-02-16:28:04.029995,1.0,16.0,386.0
2022-02-02-16:28:04.031986,4.0,12.0,385.0
2022-02-02-16:28:04.031986,5.0,4.0,385.0
2022-02-02-16:28:04.032983,5.0,4.0,385.0
2022-02-02-16:28:04.033980,5.0,4.0,385.0
2022-02-02-16:28:04.034977,5.0,4.0,385.0
2022-02-02-16:28:04.035981,5.0,4.0,385.0
2022-02-02-16:28:04.036974,4.0,3.0,385.0
2022-02-02-16:28:04.037974,4.0,3.0,385.0
2022-02-02-16:28:04.038968,4.0,3.0,385.0
2022-02-02-16:28:04.039971,10.0,4.0,385.0
2022-02-02-16:28:04.040964,9.0,3.0,385.0
2022-02-02-16:28:04.041961,7.0,0.0,385.0
2022-02-02-16:28:04.042994,7.0,0.0,385.0
2022-02-02-16:28:04.042994,6.0,3.0,385.0
2022-02-02-16:28:04.044026,6.0,3.0,385.0
2022-02-02-16:28:04.045025,5.0,12.0,386.0
2022-02-02-16:28:04.046020,5.0,12.0,386.0
2022-02-02-16:28:04.046986,5.0,12.0,386.0
2022-02-02-16:28:04.048016,3.0,7.0,385.0
2022-02-02-16:28:04.049194,5.0,0.0,385.0
2022-02-02-16:28:04.049194,5.0,0.0,385.0
2022-02-02-16:28:04.050242,5.0,0.0,385.0
2022-02-02-16:28:04.051238,5.0,0.0,385.0
2022-02-02-16:28:04.052236,6.0,7.0,385.0
2022-02-02-16:28:04.053438,3.0,4.0,386.0
2022-02-02-16:28:04.053438,5.0,1.0,385.0
2022-02-02-16:28:04.054585,5.0,1.0,385.0
2022-02-02-16:28:04.054585,5.0,1.0,385.0
2022-02-02-16:28:04.055631,5.0,1.0,385.0
2022-02-02-16:28:04.056629,4.0,1.0,385.0
2022-02-02-16:28:04.057579,8.0,3.0,385.0
2022-02-02-16:28:04.058624,12.0,0.0,385.0
2022-02-02-16:28:04.059620,12.0,0.0,385.0
2022-02-02-16:28:04.060622,7.0,0.0,385.0
2022-02-02-16:28:04.061620,2.0,5.0,385.0
2022-02-02-16:28:04.062613,2.0,13.0,385.0
2022-02-02-16:28:04.064654,2.0,13.0,385.0
2022-02-02-16:28:04.064654,1.0,6.0,386.0
2022-02-02-16:28:04.065651,2.0,5.0,386.0
2022-02-02-16:28:04.066647,2.0,5.0,386.0
2022-02-02-16:28:04.067822,2.0,5.0,386.0
2022-02-02-16:28:04.067822,3.0,5.0,385.0
2022-02-02-16:28:04.068854,3.0,5.0,385.0
2022-02-02-16:28:04.069925,2.0,2.0,385.0
2022-02-02-16:28:04.069925,2.0,2.0,385.0
2022-02-02-16:28:04.070972,2.0,2.0,385.0
2022-02-02-16:28:04.071971,2.0,2.0,385.0
2022-02-02-16:28:04.072966,9.0,2.0,385.0
2022-02-02-16:28:04.073916,9.0,4.0,385.0
2022-02-02-16:28:04.074960,9.0,0.0,385.0
2022-02-02-16:28:04.076146,9.0,0.0,385.0
2022-02-02-16:28:04.076146,6.0,3.0,385.0
2022-02-02-16:28:04.077177,6.0,3.0,385.0
2022-02-02-16:28:04.078177,4.0,15.0,385.0
2022-02-02-16:28:04.079173,4.0,15.0,385.0
2022-02-02-16:28:04.080172,4.0,15.0,385.0
2022-02-02-16:28:04.081168,8.0,5.0,385.0
2022-02-02-16:28:04.082166,5.0,7.0,385.0
2022-02-02-16:28:04.083219,5.0,7.0,385.0
2022-02-02-16:28:04.083219,5.0,7.0,385.0
2022-02-02-16:28:04.084275,5.0,7.0,385.0
2022-02-02-16:28:04.085270,2.0,4.0,385.0
2022-02-02-16:28:04.086268,5.0,2.0,385.0
2022-02-02-16:28:04.087267,5.0,2.0,385.0
2022-02-02-16:28:04.088385,5.0,2.0,385.0
2022-02-02-16:28:04.088385,5.0,3.0,385.0
2022-02-02-16:28:04.089417,5.0,3.0,385.0
2022-02-02-16:28:04.090383,10.0,4.0,385.0
2022-02-02-16:28:04.091473,10.0,4.0,385.0
2022-02-02-16:28:04.091473,10.0,4.0,385.0
2022-02-02-16:28:04.092519,10.0,4.0,385.0
2022-02-02-16:28:04.093782,8.0,2.0,385.0
2022-02-02-16:28:04.093782,3.0,11.0,385.0
2022-02-02-16:28:04.094815,3.0,11.0,385.0
2022-02-02-16:28:04.095864,3.0,11.0,385.0
2022-02-02-16:28:04.095864,3.0,11.0,385.0
2022-02-02-16:28:04.096910,1.0,12.0,385.0
2022-02-02-16:28:04.098907,4.0,8.0,386.0
2022-02-02-16:28:04.098907,4.0,8.0,386.0
2022-02-02-16:28:04.100011,4.0,8.0,386.0
2022-02-02-16:28:04.100011,4.0,8.0,386.0
2022-02-02-16:28:04.101067,4.0,8.0,386.0
2022-02-02-16:28:04.102062,7.0,5.0,385.0
2022-02-02-16:28:04.103059,4.0,4.0,385.0
2022-02-02-16:28:04.104065,3.0,1.0,385.0
2022-02-02-16:28:04.105054,3.0,1.0,385.0
2022-02-02-16:28:04.106052,7.0,5.0,385.0
2022-02-02-16:28:04.107051,12.0,6.0,385.0
2022-02-02-16:28:04.108026,8.0,2.0,385.0
2022-02-02-16:28:04.109044,8.0,2.0,385.0
2022-02-02-16:28:04.110046,5.0,1.0,385.0
2022-02-02-16:28:04.110984,5.0,4.0,385.0
2022-02-02-16:28:04.112035,5.0,11.0,385.0
2022-02-02-16:28:04.113037,5.0,11.0,385.0
2022-02-02-16:28:04.114009,2.0,14.0,385.0
2022-02-02-16:28:04.115138,3.0,6.0,385.0
2022-02-02-16:28:04.115138,3.0,6.0,385.0
2022-02-02-16:28:04.116187,3.0,6.0,385.0
2022-02-02-16:28:04.117183,3.0,6.0,385.0
2022-02-02-16:28:04.118179,2.0,5.0,385.0
2022-02-02-16:28:04.119392,5.0,5.0,385.0
2022-02-02-16:28:04.119392,5.0,4.0,385.0
2022-02-02-16:28:04.120538,5.0,4.0,385.0
2022-02-02-16:28:04.120851,5.0,4.0,385.0
2022-02-02-16:28:04.120851,4.0,2.0,386.0
2022-02-02-16:28:04.121883,4.0,2.0,386.0
2022-02-02-16:28:04.122936,9.0,4.0,385.0
2022-02-02-16:28:04.122936,9.0,4.0,385.0
2022-02-02-16:28:04.123936,9.0,4.0,385.0
2022-02-02-16:28:04.124934,9.0,4.0,385.0
2022-02-02-16:28:04.125986,9.0,1.0,385.0
2022-02-02-16:28:04.126984,8.0,7.0,385.0
2022-02-02-16:28:04.127979,6.0,12.0,385.0
2022-02-02-16:28:04.128972,6.0,12.0,385.0
2022-02-02-16:28:04.130972,0.0,5.0,385.0
2022-02-02-16:28:04.130972,0.0,5.0,385.0
2022-02-02-16:28:04.131970,0.0,5.0,385.0
2022-02-02-16:28:04.132966,0.0,5.0,385.0
2022-02-02-16:28:04.133963,0.0,5.0,385.0
2022-02-02-16:28:04.134963,3.0,0.0,385.0
2022-02-02-16:28:04.135958,5.0,4.0,385.0
2022-02-02-16:28:04.136956,5.0,4.0,385.0
2022-02-02-16:28:04.137955,5.0,4.0,385.0
2022-02-02-16:28:04.138950,5.0,1.0,385.0
2022-02-02-16:28:04.139948,8.0,4.0,385.0
2022-02-02-16:28:04.140891,8.0,4.0,385.0
2022-02-02-16:28:04.141942,8.0,4.0,385.0
2022-02-02-16:28:04.142942,11.0,2.0,385.0
2022-02-02-16:28:04.143937,4.0,1.0,385.0
2022-02-02-16:28:04.144906,2.0,6.0,385.0
2022-02-02-16:28:04.145877,2.0,6.0,385.0
2022-02-02-16:28:04.146921,0.0,12.0,385.0
2022-02-02-16:28:04.147898,3.0,7.0,386.0
2022-02-02-16:28:04.148916,3.0,7.0,386.0
2022-02-02-16:28:04.149912,3.0,7.0,386.0
2022-02-02-16:28:04.150912,2.0,9.0,386.0
2022-02-02-16:28:04.151908,3.0,1.0,385.0
2022-02-02-16:28:04.153005,4.0,2.0,385.0
2022-02-02-16:28:04.153005,4.0,2.0,385.0
2022-02-02-16:28:04.154241,4.0,2.0,385.0
2022-02-02-16:28:04.154241,2.0,2.0,385.0
2022-02-02-16:28:04.155275,2.0,2.0,385.0
2022-02-02-16:28:04.156386,9.0,6.0,385.0
2022-02-02-16:28:04.156386,9.0,6.0,385.0
2022-02-02-16:28:04.157386,9.0,6.0,385.0
2022-02-02-16:28:04.158383,9.0,6.0,385.0
2022-02-02-16:28:04.159435,7.0,1.0,385.0
2022-02-02-16:28:04.160435,6.0,3.0,385.0
2022-02-02-16:28:04.161375,6.0,3.0,385.0
2022-02-02-16:28:04.162372,6.0,3.0,385.0
2022-02-02-16:28:04.163427,2.0,11.0,386.0
2022-02-02-16:28:04.164426,2.0,11.0,386.0
2022-02-02-16:28:04.165419,2.0,7.0,385.0
2022-02-02-16:28:04.167414,3.0,7.0,385.0
2022-02-02-16:28:04.167414,5.0,5.0,385.0
2022-02-02-16:28:04.168413,5.0,5.0,385.0
2022-02-02-16:28:04.169409,5.0,5.0,385.0
2022-02-02-16:28:04.170406,5.0,5.0,385.0
2022-02-02-16:28:04.171405,6.0,4.0,385.0
2022-02-02-16:28:04.172401,6.0,1.0,385.0
2022-02-02-16:28:04.173398,11.0,7.0,385.0
2022-02-02-16:28:04.174341,11.0,7.0,385.0
2022-02-02-16:28:04.175390,11.0,8.0,385.0
2022-02-02-16:28:04.176384,7.0,5.0,386.0
2022-02-02-16:28:04.177360,7.0,1.0,385.0
2022-02-02-16:28:04.178377,7.0,1.0,385.0
2022-02-02-16:28:04.179376,5.0,10.0,385.0
2022-02-02-16:28:04.180720,3.0,15.0,386.0
2022-02-02-16:28:04.180720,3.0,15.0,386.0
2022-02-02-16:28:04.181752,3.0,15.0,386.0
2022-02-02-16:28:04.182751,1.0,8.0,385.0
2022-02-02-16:28:04.183746,4.0,3.0,386.0
2022-02-02-16:28:04.184826,4.0,3.0,386.0
2022-02-02-16:28:04.184826,4.0,3.0,386.0
2022-02-02-16:28:04.185872,4.0,3.0,386.0
2022-02-02-16:28:04.187042,4.0,3.0,386.0
2022-02-02-16:28:04.187042,6.0,4.0,385.0
2022-02-02-16:28:04.188074,6.0,4.0,385.0
2022-02-02-16:28:04.189184,7.0,3.0,385.0
2022-02-02-16:28:04.189184,7.0,3.0,385.0
2022-02-02-16:28:04.190239,7.0,3.0,385.0
2022-02-02-16:28:04.191181,7.0,3.0,385.0
2022-02-02-16:28:04.192211,10.0,4.0,386.0
2022-02-02-16:28:04.193210,5.0,1.0,385.0
2022-02-02-16:28:04.194207,5.0,1.0,385.0
2022-02-02-16:28:04.195205,5.0,1.0,385.0
2022-02-02-16:28:04.196203,1.0,6.0,385.0
2022-02-02-16:28:04.197198,4.0,12.0,385.0
2022-02-02-16:28:04.198197,4.0,12.0,385.0
2022-02-02-16:28:04.200213,4.0,12.0,385.0
2022-02-02-16:28:04.200213,3.0,5.0,385.0
2022-02-02-16:28:04.201209,3.0,5.0,385.0
2022-02-02-16:28:04.202211,3.0,5.0,385.0
2022-02-02-16:28:04.203204,3.0,5.0,385.0
2022-02-02-16:28:04.204206,7.0,2.0,385.0
2022-02-02-16:28:04.205199,8.0,1.0,385.0
2022-02-02-16:28:04.206196,5.0,1.0,385.0
2022-02-02-16:28:04.207173,5.0,1.0,385.0
2022-02-02-16:28:04.208172,7.0,2.0,386.0
2022-02-02-16:28:04.209188,8.0,5.0,385.0
2022-02-02-16:28:04.210179,8.0,5.0,385.0
2022-02-02-16:28:04.211182,8.0,5.0,385.0
2022-02-02-16:28:04.212182,3.0,8.0,385.0
2022-02-02-16:28:04.213177,1.0,12.0,385.0
2022-02-02-16:28:04.214175,0.0,13.0,385.0
2022-02-02-16:28:04.215173,0.0,13.0,385.0
2022-02-02-16:28:04.216149,3.0,9.0,385.0
2022-02-02-16:28:04.217147,4.0,3.0,386.0
2022-02-02-16:28:04.218168,4.0,3.0,386.0
2022-02-02-16:28:04.219149,4.0,3.0,386.0
2022-02-02-16:28:04.220152,3.0,4.0,386.0
2022-02-02-16:28:04.221148,6.0,3.0,385.0
2022-02-02-16:28:04.222148,3.0,1.0,385.0
2022-02-02-16:28:04.223124,3.0,1.0,385.0
2022-02-02-16:28:04.224093,7.0,7.0,385.0
2022-02-02-16:28:04.225126,10.0,7.0,385.0
2022-02-02-16:28:04.226121,9.0,3.0,385.0
2022-02-02-16:28:04.227110,9.0,3.0,385.0
2022-02-02-16:28:04.228326,9.0,3.0,385.0
2022-02-02-16:28:04.228326,9.0,1.0,385.0
2022-02-02-16:28:04.229358,4.0,11.0,385.0
2022-02-02-16:28:04.230355,3.0,14.0,385.0
2022-02-02-16:28:04.231321,3.0,14.0,385.0
2022-02-02-16:28:04.232350,2.0,8.0,385.0
2022-02-02-16:28:04.233347,4.0,3.0,385.0
2022-02-02-16:28:04.235310,3.0,5.0,385.0
2022-02-02-16:28:04.235310,7.0,1.0,385.0
2022-02-02-16:28:04.236342,8.0,2.0,385.0
2022-02-02-16:28:04.237340,8.0,2.0,385.0
2022-02-02-16:28:04.238334,8.0,2.0,385.0
2022-02-02-16:28:04.239333,8.0,2.0,385.0
2022-02-02-16:28:04.240328,8.0,2.0,385.0
2022-02-02-16:28:04.241328,7.0,2.0,386.0
2022-02-02-16:28:04.242317,7.0,2.0,386.0
2022-02-02-16:28:04.243302,7.0,2.0,386.0
2022-02-02-16:28:04.244287,7.0,2.0,386.0
2022-02-02-16:28:04.245315,5.0,9.0,385.0
2022-02-02-16:28:04.246312,0.0,18.0,385.0
2022-02-02-16:28:04.247368,1.0,9.0,385.0
2022-02-02-16:28:04.247368,1.0,9.0,385.0
2022-02-02-16:28:04.248400,1.0,9.0,385.0
2022-02-02-16:28:04.249743,3.0,10.0,385.0
2022-02-02-16:28:04.249743,3.0,10.0,385.0
2022-02-02-16:28:04.250775,3.0,5.0,385.0
2022-02-02-16:28:04.251762,3.0,5.0,385.0
2022-02-02-16:28:04.252772,2.0,5.0,385.0
2022-02-02-16:28:04.253766,3.0,1.0,385.0
2022-02-02-16:28:04.254735,9.0,1.0,385.0
2022-02-02-16:28:04.255765,9.0,1.0,385.0
2022-02-02-16:28:04.256758,9.0,1.0,385.0
2022-02-02-16:28:04.257724,8.0,4.0,385.0
2022-02-02-16:28:04.258753,11.0,2.0,385.0
2022-02-02-16:28:04.259756,11.0,2.0,385.0
2022-02-02-16:28:04.260751,11.0,2.0,385.0
2022-02-02-16:28:04.261745,7.0,7.0,386.0
2022-02-02-16:28:04.262742,2.0,18.0,385.0
2022-02-02-16:28:04.263743,1.0,11.0,386.0
2022-02-02-16:28:04.264737,1.0,11.0,386.0
2022-02-02-16:28:04.265729,2.0,13.0,385.0
2022-02-02-16:28:04.266730,5.0,5.0,385.0
2022-02-02-16:28:04.267722,1.0,2.0,385.0
2022-02-02-16:28:04.269692,1.0,2.0,385.0
2022-02-02-16:28:04.269692,5.0,6.0,386.0
2022-02-02-16:28:04.270690,5.0,5.0,385.0
2022-02-02-16:28:04.271714,5.0,0.0,385.0
2022-02-02-16:28:04.272715,5.0,0.0,385.0
2022-02-02-16:28:04.273708,7.0,4.0,385.0
2022-02-02-16:28:04.274704,9.0,3.0,385.0
2022-02-02-16:28:04.275700,9.0,3.0,385.0
2022-02-02-16:28:04.276726,9.0,3.0,385.0
2022-02-02-16:28:04.276726,6.0,6.0,385.0
2022-02-02-16:28:04.277760,6.0,6.0,385.0
2022-02-02-16:28:04.278757,3.0,12.0,385.0
2022-02-02-16:28:04.279754,2.0,14.0,386.0
2022-02-02-16:28:04.280755,2.0,14.0,386.0
2022-02-02-16:28:04.281750,3.0,13.0,385.0
2022-02-02-16:28:04.282746,2.0,4.0,385.0
2022-02-02-16:28:04.283744,0.0,2.0,385.0
2022-02-02-16:28:04.284741,0.0,2.0,385.0
2022-02-02-16:28:04.285738,2.0,6.0,385.0
2022-02-02-16:28:04.286736,7.0,1.0,385.0
2022-02-02-16:28:04.287758,7.0,1.0,385.0
2022-02-02-16:28:04.288720,7.0,1.0,385.0
2022-02-02-16:28:04.289750,8.0,1.0,385.0
2022-02-02-16:28:04.290692,8.0,2.0,385.0
2022-02-02-16:28:04.291689,9.0,1.0,385.0
2022-02-02-16:28:04.292686,9.0,1.0,385.0
2022-02-02-16:28:04.293738,9.0,1.0,385.0
2022-02-02-16:28:04.294735,6.0,14.0,386.0
2022-02-02-16:28:04.295736,2.0,17.0,385.0
2022-02-02-16:28:04.296730,2.0,17.0,385.0
2022-02-02-16:28:04.297729,2.0,17.0,385.0
2022-02-02-16:28:04.298724,2.0,12.0,385.0
2022-02-02-16:28:04.299721,3.0,6.0,385.0
2022-02-02-16:28:04.300723,3.0,6.0,385.0
2022-02-02-16:28:04.301716,4.0,4.0,385.0
2022-02-02-16:28:04.303715,5.0,3.0,385.0
2022-02-02-16:28:04.303715,7.0,3.0,386.0
2022-02-02-16:28:04.304708,7.0,3.0,386.0
2022-02-02-16:28:04.305707,7.0,3.0,386.0
2022-02-02-16:28:04.306682,6.0,3.0,386.0
2022-02-02-16:28:04.307646,8.0,0.0,386.0
2022-02-02-16:28:04.308689,8.0,0.0,386.0
2022-02-02-16:28:04.309687,8.0,0.0,386.0
2022-02-02-16:28:04.310638,4.0,10.0,385.0
2022-02-02-16:28:04.311686,1.0,14.0,386.0
2022-02-02-16:28:04.312679,1.0,14.0,386.0
2022-02-02-16:28:04.313678,1.0,14.0,386.0
2022-02-02-16:28:04.314901,3.0,16.0,385.0
2022-02-02-16:28:04.314901,1.0,9.0,386.0
2022-02-02-16:28:04.315955,5.0,7.0,385.0
2022-02-02-16:28:04.316947,5.0,7.0,385.0
2022-02-02-16:28:04.317932,5.0,7.0,385.0
2022-02-02-16:28:04.318947,3.0,5.0,385.0
2022-02-02-16:28:04.320124,4.0,4.0,385.0
2022-02-02-16:28:04.320124,4.0,4.0,385.0
2022-02-02-16:28:04.321178,4.0,4.0,385.0
2022-02-02-16:28:04.322178,4.0,4.0,385.0
2022-02-02-16:28:04.323173,5.0,3.0,385.0
2022-02-02-16:28:04.324116,11.0,5.0,385.0
2022-02-02-16:28:04.325331,10.0,0.0,385.0
2022-02-02-16:28:04.325331,10.0,0.0,385.0
2022-02-02-16:28:04.326385,10.0,0.0,385.0
2022-02-02-16:28:04.327438,10.0,2.0,385.0
2022-02-02-16:28:04.327925,9.0,9.0,385.0
2022-02-02-16:28:04.327925,0.0,16.0,386.0
2022-02-02-16:28:04.328980,0.0,16.0,386.0
2022-02-02-16:28:04.329976,0.0,16.0,386.0
2022-02-02-16:28:04.330974,3.0,11.0,385.0
2022-02-02-16:28:04.331963,3.0,10.0,385.0
2022-02-02-16:28:04.332971,1.0,8.0,386.0
2022-02-02-16:28:04.333946,1.0,8.0,386.0
2022-02-02-16:28:04.334963,4.0,5.0,385.0
2022-02-02-16:28:04.335961,5.0,1.0,385.0
2022-02-02-16:28:04.337901,4.0,2.0,385.0
2022-02-02-16:28:04.337901,4.0,2.0,385.0
2022-02-02-16:28:04.339015,12.0,1.0,386.0
2022-02-02-16:28:04.339015,12.0,1.0,386.0
2022-02-02-16:28:04.340069,12.0,1.0,386.0
2022-02-02-16:28:04.341012,12.0,1.0,386.0
2022-02-02-16:28:04.342072,12.0,1.0,386.0
2022-02-02-16:28:04.343061,10.0,2.0,385.0
2022-02-02-16:28:04.344031,5.0,11.0,385.0
2022-02-02-16:28:04.345051,5.0,11.0,385.0
2022-02-02-16:28:04.346204,5.0,11.0,385.0
2022-02-02-16:28:04.346204,1.0,15.0,385.0
2022-02-02-16:28:04.347257,2.0,8.0,385.0
2022-02-02-16:28:04.348259,1.0,10.0,386.0
2022-02-02-16:28:04.349202,1.0,10.0,386.0
2022-02-02-16:28:04.350196,1.0,10.0,386.0
2022-02-02-16:28:04.351225,3.0,4.0,385.0
2022-02-02-16:28:04.352224,6.0,3.0,385.0
2022-02-02-16:28:04.353219,6.0,3.0,385.0
2022-02-02-16:28:04.354192,6.0,3.0,385.0
2022-02-02-16:28:04.355216,6.0,8.0,385.0
2022-02-02-16:28:04.356212,6.0,8.0,385.0
2022-02-02-16:28:04.357257,6.0,8.0,385.0
2022-02-02-16:28:04.357257,6.0,8.0,385.0
2022-02-02-16:28:04.358315,6.0,8.0,385.0
2022-02-02-16:28:04.359302,6.0,1.0,385.0
2022-02-02-16:28:04.360298,2.0,11.0,385.0
2022-02-02-16:28:04.361297,2.0,11.0,385.0
2022-02-02-16:28:04.362293,2.0,11.0,385.0
2022-02-02-16:28:04.363290,2.0,11.0,385.0
2022-02-02-16:28:04.364289,3.0,11.0,385.0
2022-02-02-16:28:04.365285,1.0,5.0,385.0
2022-02-02-16:28:04.366286,1.0,5.0,385.0
2022-02-02-16:28:04.367280,1.0,5.0,385.0
2022-02-02-16:28:04.368277,0.0,3.0,385.0
2022-02-02-16:28:04.369275,3.0,5.0,385.0
2022-02-02-16:28:04.370272,4.0,4.0,385.0
2022-02-02-16:28:04.371548,4.0,4.0,385.0
2022-02-02-16:28:04.372548,8.0,0.0,385.0
2022-02-02-16:28:04.372548,10.0,5.0,385.0
2022-02-02-16:28:04.373656,10.0,5.0,385.0
2022-02-02-16:28:04.373656,10.0,5.0,385.0
2022-02-02-16:28:04.374860,10.0,5.0,385.0
2022-02-02-16:28:04.374860,11.0,5.0,385.0
2022-02-02-16:28:04.375891,11.0,5.0,385.0
2022-02-02-16:28:04.376857,0.0,9.0,385.0
2022-02-02-16:28:04.377951,0.0,9.0,385.0
2022-02-02-16:28:04.377951,0.0,9.0,385.0
2022-02-02-16:28:04.378996,0.0,9.0,385.0
2022-02-02-16:28:04.380255,3.0,9.0,385.0
2022-02-02-16:28:04.380255,2.0,15.0,385.0
2022-02-02-16:28:04.381290,5.0,6.0,386.0
2022-02-02-16:28:04.382284,5.0,6.0,386.0
2022-02-02-16:28:04.383283,5.0,6.0,386.0
2022-02-02-16:28:04.384278,6.0,5.0,385.0
2022-02-02-16:28:04.385276,4.0,2.0,385.0
2022-02-02-16:28:04.386275,4.0,2.0,385.0
2022-02-02-16:28:04.387320,4.0,2.0,385.0
2022-02-02-16:28:04.387601,8.0,2.0,385.0
2022-02-02-16:28:04.387601,12.0,8.0,385.0
2022-02-02-16:28:04.388880,12.0,8.0,385.0
2022-02-02-16:28:04.388880,12.0,8.0,385.0
2022-02-02-16:28:04.389931,12.0,8.0,385.0
2022-02-02-16:28:04.390876,12.0,8.0,385.0
2022-02-02-16:28:04.391875,12.0,8.0,385.0
2022-02-02-16:28:04.392923,8.0,0.0,385.0
2022-02-02-16:28:04.393916,9.0,5.0,386.0
2022-02-02-16:28:04.394915,9.0,5.0,386.0
2022-02-02-16:28:04.395910,9.0,5.0,386.0
2022-02-02-16:28:04.397127,3.0,9.0,385.0
2022-02-02-16:28:04.397127,7.0,5.0,385.0
2022-02-02-16:28:04.398268,7.0,5.0,385.0
2022-02-02-16:28:04.398268,7.0,5.0,385.0
2022-02-02-16:28:04.399312,7.0,5.0,385.0
2022-02-02-16:28:04.400312,1.0,7.0,385.0
2022-02-02-16:28:04.401362,1.0,5.0,385.0
2022-02-02-16:28:04.401362,1.0,5.0,385.0
2022-02-02-16:28:04.402415,1.0,5.0,385.0
2022-02-02-16:28:04.403383,1.0,5.0,385.0
2022-02-02-16:28:04.404402,3.0,6.0,385.0
2022-02-02-16:28:04.405411,6.0,2.0,385.0
2022-02-02-16:28:04.405994,4.0,5.0,385.0
2022-02-02-16:28:04.406994,4.0,5.0,385.0
2022-02-02-16:28:04.406994,11.0,4.0,385.0
2022-02-02-16:28:04.407991,8.0,1.0,385.0
2022-02-02-16:28:04.409087,6.0,7.0,385.0
2022-02-02-16:28:04.409087,6.0,7.0,385.0
2022-02-02-16:28:04.410087,6.0,7.0,385.0
2022-02-02-16:28:04.411132,6.0,7.0,385.0
2022-02-02-16:28:04.412128,6.0,7.0,385.0
2022-02-02-16:28:04.413126,3.0,12.0,386.0
2022-02-02-16:28:04.414125,1.0,10.0,385.0
2022-02-02-16:28:04.414125,1.0,10.0,385.0
2022-02-02-16:28:04.415181,1.0,10.0,385.0
2022-02-02-16:28:04.416179,1.0,10.0,385.0
2022-02-02-16:28:04.417391,1.0,12.0,385.0
2022-02-02-16:28:04.417391,1.0,7.0,385.0
2022-02-02-16:28:04.418426,1.0,7.0,385.0
2022-02-02-16:28:04.419423,1.0,4.0,385.0
2022-02-02-16:28:04.420417,1.0,4.0,385.0
2022-02-02-16:28:04.421414,1.0,7.0,385.0
2022-02-02-16:28:04.422413,5.0,4.0,385.0
2022-02-02-16:28:04.423409,7.0,7.0,385.0
2022-02-02-16:28:04.424375,5.0,2.0,385.0
2022-02-02-16:28:04.425400,4.0,2.0,385.0
2022-02-02-16:28:04.426393,4.0,2.0,385.0
2022-02-02-16:28:04.427413,4.0,2.0,385.0
2022-02-02-16:28:04.428410,4.0,2.0,385.0
2022-02-02-16:28:04.429407,1.0,8.0,385.0
2022-02-02-16:28:04.430405,6.0,17.0,385.0
2022-02-02-16:28:04.431403,3.0,12.0,385.0
2022-02-02-16:28:04.432399,3.0,12.0,385.0
2022-02-02-16:28:04.433396,0.0,12.0,385.0
2022-02-02-16:28:04.434395,3.0,5.0,385.0
2022-02-02-16:28:04.435433,3.0,3.0,385.0
2022-02-02-16:28:04.435433,3.0,3.0,385.0
2022-02-02-16:28:04.436647,3.0,3.0,385.0
2022-02-02-16:28:04.436647,3.0,2.0,385.0
2022-02-02-16:28:04.437693,6.0,1.0,385.0
2022-02-02-16:28:04.438692,8.0,1.0,385.0
2022-02-02-16:28:04.439860,8.0,1.0,385.0
2022-02-02-16:28:04.439860,8.0,1.0,385.0
2022-02-02-16:28:04.441856,8.0,1.0,385.0
2022-02-02-16:28:04.441856,9.0,4.0,385.0
2022-02-02-16:28:04.442887,9.0,4.0,385.0
2022-02-02-16:28:04.443946,9.0,4.0,385.0
2022-02-02-16:28:04.443946,9.0,4.0,385.0
2022-02-02-16:28:04.445190,9.0,4.0,385.0
2022-02-02-16:28:04.445190,7.0,4.0,385.0
2022-02-02-16:28:04.446215,7.0,4.0,385.0
2022-02-02-16:28:04.447210,0.0,13.0,385.0
2022-02-02-16:28:04.448280,0.0,13.0,385.0
2022-02-02-16:28:04.448280,0.0,13.0,385.0
2022-02-02-16:28:04.449538,0.0,13.0,385.0
2022-02-02-16:28:04.449538,4.0,9.0,385.0
2022-02-02-16:28:04.450568,4.0,9.0,385.0
2022-02-02-16:28:04.451558,5.0,2.0,385.0
2022-02-02-16:28:04.452532,5.0,2.0,385.0
2022-02-02-16:28:04.453555,6.0,0.0,385.0
2022-02-02-16:28:04.454550,10.0,3.0,386.0
2022-02-02-16:28:04.455548,8.0,4.0,385.0
2022-02-02-16:28:04.456564,8.0,4.0,385.0
2022-02-02-16:28:04.457545,11.0,3.0,386.0
2022-02-02-16:28:04.458542,7.0,6.0,385.0
2022-02-02-16:28:04.459537,7.0,6.0,385.0
2022-02-02-16:28:04.460538,7.0,6.0,385.0
2022-02-02-16:28:04.461534,7.0,6.0,385.0
2022-02-02-16:28:04.462530,2.0,13.0,386.0
2022-02-02-16:28:04.463623,3.0,11.0,385.0
2022-02-02-16:28:04.463623,3.0,11.0,385.0
2022-02-02-16:28:04.464649,3.0,11.0,385.0
2022-02-02-16:28:04.465644,3.0,11.0,385.0
2022-02-02-16:28:04.466829,1.0,8.0,385.0
2022-02-02-16:28:04.466971,4.0,3.0,385.0
2022-02-02-16:28:04.466971,4.0,3.0,385.0
2022-02-02-16:28:04.467995,4.0,3.0,385.0
2022-02-02-16:28:04.468994,4.0,3.0,385.0
2022-02-02-16:28:04.469992,6.0,3.0,385.0
2022-02-02-16:28:04.470988,7.0,0.0,385.0
2022-02-02-16:28:04.471992,8.0,0.0,385.0
2022-02-02-16:28:04.473980,8.0,0.0,385.0
2022-02-02-16:28:04.473980,8.0,0.0,385.0
2022-02-02-16:28:04.474952,10.0,6.0,385.0
2022-02-02-16:28:04.475974,10.0,6.0,385.0
2022-02-02-16:28:04.476977,10.0,6.0,385.0
2022-02-02-16:28:04.477972,10.0,6.0,385.0
2022-02-02-16:28:04.478966,6.0,10.0,385.0
2022-02-02-16:28:04.479965,3.0,10.0,385.0
2022-02-02-16:28:04.480961,3.0,10.0,385.0
2022-02-02-16:28:04.481958,3.0,10.0,385.0
2022-02-02-16:28:04.482958,1.0,12.0,386.0
2022-02-02-16:28:04.483952,4.0,4.0,385.0
2022-02-02-16:28:04.484951,5.0,6.0,385.0
2022-02-02-16:28:04.486117,5.0,6.0,385.0
2022-02-02-16:28:04.486117,4.0,2.0,385.0
2022-02-02-16:28:04.487149,6.0,1.0,385.0
2022-02-02-16:28:04.488146,6.0,1.0,385.0
2022-02-02-16:28:04.489146,6.0,1.0,385.0
2022-02-02-16:28:04.490141,6.0,1.0,385.0
2022-02-02-16:28:04.491106,10.0,3.0,385.0
