2022-01-24-13:15:12.147006,4.0,3.0,381.0
2022-01-24-13:15:12.147969,19.0,4.0,381.0
2022-01-24-13:15:12.147969,9.0,4.0,380.0
2022-01-24-13:15:12.149963,9.0,0.0,381.0
2022-01-24-13:15:12.149963,4.0,15.0,381.0
2022-01-24-13:15:12.150962,2.0,11.0,380.0
2022-01-24-13:15:12.152957,2.0,10.0,380.0
2022-01-24-13:15:12.152957,8.0,2.0,380.0
2022-01-24-13:15:12.153972,12.0,2.0,380.0
2022-01-24-13:15:12.156996,15.0,0.0,381.0
2022-01-24-13:15:12.157961,15.0,1.0,380.0
2022-01-24-13:15:12.157961,7.0,1.0,380.0
2022-01-24-13:15:12.158940,1.0,6.0,380.0
2022-01-24-13:15:12.159959,6.0,5.0,380.0
2022-01-24-13:15:12.160956,2.0,2.0,380.0
2022-01-24-13:15:12.161932,11.0,4.0,380.0
2022-01-24-13:15:12.162947,16.0,7.0,380.0
2022-01-24-13:15:12.163944,9.0,6.0,379.0
2022-01-24-13:15:12.164942,2.0,13.0,380.0
2022-01-24-13:15:12.165939,3.0,1.0,380.0
2022-01-24-13:15:12.166938,7.0,2.0,380.0
2022-01-24-13:15:12.167935,13.0,4.0,380.0
2022-01-24-13:15:12.168931,18.0,5.0,379.0
2022-01-24-13:15:12.169923,12.0,4.0,380.0
2022-01-24-13:15:12.170926,5.0,6.0,380.0
2022-01-24-13:15:12.171925,4.0,11.0,380.0
2022-01-24-13:15:12.172928,1.0,1.0,380.0
2022-01-24-13:15:12.173925,6.0,8.0,380.0
2022-01-24-13:15:12.174897,14.0,9.0,379.0
2022-01-24-13:15:12.175919,15.0,13.0,379.0
2022-01-24-13:15:12.176917,2.0,1.0,380.0
2022-01-24-13:15:12.177913,0.0,6.0,379.0
2022-01-24-13:15:12.178886,7.0,0.0,380.0
2022-01-24-13:15:12.179918,17.0,4.0,379.0
2022-01-24-13:15:12.180909,13.0,3.0,379.0
2022-01-24-13:15:12.181905,2.0,7.0,380.0
2022-01-24-13:15:12.182904,7.0,11.0,380.0
2022-01-24-13:15:12.183899,13.0,16.0,380.0
2022-01-24-13:15:12.184897,18.0,13.0,379.0
2022-01-24-13:15:12.186913,10.0,6.0,380.0
2022-01-24-13:15:12.187862,3.0,7.0,380.0
2022-01-24-13:15:12.187862,6.0,2.0,379.0
2022-01-24-13:15:12.188906,16.0,2.0,380.0
2022-01-24-13:15:12.189903,5.0,6.0,380.0
2022-01-24-13:15:12.190876,5.0,14.0,379.0
2022-01-24-13:15:12.191880,9.0,15.0,380.0
2022-01-24-13:15:12.192897,7.0,14.0,380.0
2022-01-24-13:15:12.193899,15.0,3.0,380.0
2022-01-24-13:15:12.194891,2.0,4.0,380.0
2022-01-24-13:15:12.195888,4.0,14.0,379.0
2022-01-24-13:15:12.196886,11.0,3.0,380.0
2022-01-24-13:15:12.197835,15.0,0.0,380.0
2022-01-24-13:15:12.198833,1.0,2.0,380.0
2022-01-24-13:15:12.199878,6.0,10.0,379.0
2022-01-24-13:15:12.200852,1.0,5.0,380.0
2022-01-24-13:15:12.201850,12.0,2.0,380.0
2022-01-24-13:15:12.202848,9.0,2.0,379.0
2022-01-24-13:15:12.203850,5.0,3.0,380.0
2022-01-24-13:15:12.204842,0.0,11.0,380.0
2022-01-24-13:15:12.205841,2.0,5.0,379.0
2022-01-24-13:15:12.206838,14.0,3.0,379.0
2022-01-24-13:15:12.207814,6.0,2.0,379.0
2022-01-24-13:15:12.208832,3.0,9.0,379.0
2022-01-24-13:15:12.209834,0.0,0.0,379.0
2022-01-24-13:15:12.210827,18.0,8.0,378.0
2022-01-24-13:15:12.211825,5.0,5.0,378.0
2022-01-24-13:15:12.212821,0.0,4.0,378.0
2022-01-24-13:15:12.213820,5.0,10.0,378.0
2022-01-24-13:15:12.214818,18.0,10.0,378.0
2022-01-24-13:15:12.215813,4.0,5.0,378.0
2022-01-24-13:15:12.216818,1.0,8.0,377.0
2022-01-24-13:15:12.217807,5.0,9.0,376.0
2022-01-24-13:15:12.218805,16.0,3.0,376.0
2022-01-24-13:15:12.219804,7.0,6.0,375.0
2022-01-24-13:15:12.220803,6.0,1.0,376.0
2022-01-24-13:15:12.222815,2.0,4.0,375.0
2022-01-24-13:15:12.222815,10.0,3.0,375.0
2022-01-24-13:15:12.223766,3.0,6.0,374.0
2022-01-24-13:15:12.224798,7.0,12.0,374.0
2022-01-24-13:15:12.225785,18.0,4.0,374.0
2022-01-24-13:15:12.226783,8.0,1.0,374.0
2022-01-24-13:15:12.227782,1.0,5.0,373.0
2022-01-24-13:15:12.228778,8.0,3.0,373.0
2022-01-24-13:15:12.229778,10.0,2.0,373.0
2022-01-24-13:15:12.230774,4.0,5.0,373.0
2022-01-24-13:15:12.231771,9.0,5.0,373.0
2022-01-24-13:15:12.233012,15.0,8.0,373.0
2022-01-24-13:15:12.233228,3.0,11.0,373.0
2022-01-24-13:15:12.233437,3.0,11.0,373.0
2022-01-24-13:15:12.233646,3.0,11.0,373.0
2022-01-24-13:15:12.233857,3.0,11.0,373.0
2022-01-24-13:15:12.234059,3.0,11.0,373.0
2022-01-24-13:15:12.234059,3.0,11.0,373.0
2022-01-24-13:15:12.235109,3.0,13.0,373.0
2022-01-24-13:15:12.235372,1.0,20.0,373.0
2022-01-24-13:15:12.235372,1.0,20.0,373.0
2022-01-24-13:15:12.236372,1.0,20.0,373.0
2022-01-24-13:15:12.237369,1.0,20.0,373.0
2022-01-24-13:15:12.238607,1.0,20.0,373.0
2022-01-24-13:15:12.238607,4.0,19.0,373.0
2022-01-24-13:15:12.239639,9.0,8.0,373.0
2022-01-24-13:15:12.240631,9.0,8.0,373.0
2022-01-24-13:15:12.241630,9.0,8.0,373.0
2022-01-24-13:15:12.242625,9.0,8.0,373.0
2022-01-24-13:15:12.243626,0.0,1.0,373.0
2022-01-24-13:15:12.244619,8.0,1.0,373.0
2022-01-24-13:15:12.245617,17.0,2.0,373.0
2022-01-24-13:15:12.246614,17.0,2.0,373.0
2022-01-24-13:15:12.247806,6.0,5.0,373.0
2022-01-24-13:15:12.248022,6.0,5.0,373.0
2022-01-24-13:15:12.248235,6.0,5.0,373.0
2022-01-24-13:15:12.248448,6.0,5.0,373.0
2022-01-24-13:15:12.248545,6.0,5.0,373.0
2022-01-24-13:15:12.248545,6.0,5.0,373.0
2022-01-24-13:15:12.249569,6.0,5.0,373.0
2022-01-24-13:15:12.250568,6.0,5.0,373.0
2022-01-24-13:15:12.251568,3.0,1.0,373.0
2022-01-24-13:15:12.252562,1.0,4.0,373.0
2022-01-24-13:15:12.253560,1.0,4.0,373.0
2022-01-24-13:15:12.254555,1.0,4.0,373.0
2022-01-24-13:15:12.256556,4.0,5.0,373.0
2022-01-24-13:15:12.256556,4.0,5.0,373.0
2022-01-24-13:15:12.257568,4.0,5.0,373.0
2022-01-24-13:15:12.258547,4.0,5.0,373.0
2022-01-24-13:15:12.259542,8.0,1.0,373.0
2022-01-24-13:15:12.260539,14.0,0.0,373.0
2022-01-24-13:15:12.261539,14.0,0.0,373.0
2022-01-24-13:15:12.262534,14.0,0.0,373.0
2022-01-24-13:15:12.263762,14.0,0.0,373.0
2022-01-24-13:15:12.263762,5.0,2.0,373.0
2022-01-24-13:15:12.264796,5.0,2.0,373.0
2022-01-24-13:15:12.265793,5.0,2.0,373.0
2022-01-24-13:15:12.266790,5.0,2.0,373.0
2022-01-24-13:15:12.267787,3.0,5.0,374.0
2022-01-24-13:15:12.268785,2.0,7.0,373.0
2022-01-24-13:15:12.269783,2.0,7.0,373.0
2022-01-24-13:15:12.270779,2.0,7.0,373.0
2022-01-24-13:15:12.271779,2.0,7.0,373.0
2022-01-24-13:15:12.273208,5.0,6.0,373.0
2022-01-24-13:15:12.273420,5.0,6.0,373.0
2022-01-24-13:15:12.273635,5.0,6.0,373.0
2022-01-24-13:15:12.273738,5.0,6.0,373.0
2022-01-24-13:15:12.273738,5.0,6.0,373.0
2022-01-24-13:15:12.274738,5.0,6.0,373.0
2022-01-24-13:15:12.275929,5.0,6.0,373.0
2022-01-24-13:15:12.275929,2.0,4.0,373.0
2022-01-24-13:15:12.276962,13.0,0.0,373.0
2022-01-24-13:15:12.277960,13.0,0.0,373.0
2022-01-24-13:15:12.278957,13.0,0.0,373.0
2022-01-24-13:15:12.279954,13.0,0.0,373.0
2022-01-24-13:15:12.281224,12.0,2.0,373.0
2022-01-24-13:15:12.281443,8.0,0.0,373.0
2022-01-24-13:15:12.281654,8.0,0.0,373.0
2022-01-24-13:15:12.281872,8.0,0.0,373.0
2022-01-24-13:15:12.282082,8.0,0.0,373.0
2022-01-24-13:15:12.282299,8.0,0.0,373.0
2022-01-24-13:15:12.282507,8.0,0.0,373.0
2022-01-24-13:15:12.282507,8.0,0.0,373.0
2022-01-24-13:15:12.283507,8.0,0.0,373.0
2022-01-24-13:15:12.284541,3.0,4.0,373.0
2022-01-24-13:15:12.284541,5.0,4.0,373.0
2022-01-24-13:15:12.285575,5.0,4.0,373.0
2022-01-24-13:15:12.286572,5.0,4.0,373.0
2022-01-24-13:15:12.287569,5.0,4.0,373.0
2022-01-24-13:15:12.288566,0.0,6.0,373.0
2022-01-24-13:15:12.290529,6.0,1.0,373.0
2022-01-24-13:15:12.290529,6.0,1.0,373.0
2022-01-24-13:15:12.291552,6.0,1.0,373.0
2022-01-24-13:15:12.292558,6.0,1.0,373.0
2022-01-24-13:15:12.293553,5.0,3.0,373.0
2022-01-24-13:15:12.294718,5.0,3.0,373.0
2022-01-24-13:15:12.294936,5.0,3.0,373.0
2022-01-24-13:15:12.295152,5.0,3.0,373.0
2022-01-24-13:15:12.295362,5.0,3.0,373.0
2022-01-24-13:15:12.295568,5.0,3.0,373.0
2022-01-24-13:15:12.295568,15.0,1.0,373.0
2022-01-24-13:15:12.296601,18.0,3.0,373.0
2022-01-24-13:15:12.297603,13.0,0.0,373.0
2022-01-24-13:15:12.298596,13.0,0.0,373.0
2022-01-24-13:15:12.299594,13.0,0.0,373.0
2022-01-24-13:15:12.300593,13.0,0.0,373.0
2022-01-24-13:15:12.301589,7.0,2.0,373.0
2022-01-24-13:15:12.302700,3.0,0.0,373.0
2022-01-24-13:15:12.302700,3.0,0.0,373.0
2022-01-24-13:15:12.303724,3.0,0.0,373.0
2022-01-24-13:15:12.305019,3.0,0.0,373.0
2022-01-24-13:15:12.305019,6.0,5.0,373.0
2022-01-24-13:15:12.306055,4.0,4.0,373.0
2022-01-24-13:15:12.307049,4.0,4.0,373.0
2022-01-24-13:15:12.308013,4.0,4.0,373.0
2022-01-24-13:15:12.309045,5.0,9.0,373.0
2022-01-24-13:15:12.310045,2.0,15.0,373.0
2022-01-24-13:15:12.311040,2.0,6.0,373.0
2022-01-24-13:15:12.312003,2.0,6.0,373.0
2022-01-24-13:15:12.313033,8.0,2.0,373.0
2022-01-24-13:15:12.314033,18.0,12.0,374.0
2022-01-24-13:15:12.315028,13.0,15.0,373.0
2022-01-24-13:15:12.316034,13.0,15.0,373.0
2022-01-24-13:15:12.317023,6.0,3.0,373.0
2022-01-24-13:15:12.318111,1.0,10.0,373.0
2022-01-24-13:15:12.318111,1.0,10.0,373.0
2022-01-24-13:15:12.319138,1.0,10.0,373.0
2022-01-24-13:15:12.320152,1.0,10.0,373.0
2022-01-24-13:15:12.321129,1.0,13.0,373.0
2022-01-24-13:15:12.322412,0.0,14.0,373.0
2022-01-24-13:15:12.322412,0.0,14.0,373.0
2022-01-24-13:15:12.323445,2.0,3.0,373.0
2022-01-24-13:15:12.324410,4.0,4.0,373.0
2022-01-24-13:15:12.326405,3.0,4.0,373.0
2022-01-24-13:15:12.326405,9.0,2.0,373.0
2022-01-24-13:15:12.327401,10.0,1.0,373.0
2022-01-24-13:15:12.328399,10.0,1.0,373.0
2022-01-24-13:15:12.329431,20.0,2.0,373.0
2022-01-24-13:15:12.330427,18.0,0.0,373.0
2022-01-24-13:15:12.331427,15.0,3.0,373.0
2022-01-24-13:15:12.332415,7.0,2.0,373.0
2022-01-24-13:15:12.333411,6.0,5.0,373.0
2022-01-24-13:15:12.334502,3.0,2.0,373.0
2022-01-24-13:15:12.334686,3.0,2.0,373.0
2022-01-24-13:15:12.334891,3.0,2.0,373.0
2022-01-24-13:15:12.334891,3.0,2.0,373.0
2022-01-24-13:15:12.335923,3.0,2.0,373.0
2022-01-24-13:15:12.336920,3.0,2.0,373.0
2022-01-24-13:15:12.337920,3.0,5.0,373.0
2022-01-24-13:15:12.338915,3.0,5.0,373.0
2022-01-24-13:15:12.339912,1.0,10.0,373.0
2022-01-24-13:15:12.340909,6.0,11.0,373.0
2022-01-24-13:15:12.341899,7.0,9.0,373.0
2022-01-24-13:15:12.342898,7.0,5.0,374.0
2022-01-24-13:15:12.343893,6.0,5.0,373.0
2022-01-24-13:15:12.345051,6.0,5.0,373.0
2022-01-24-13:15:12.345051,12.0,6.0,373.0
2022-01-24-13:15:12.346084,15.0,1.0,373.0
2022-01-24-13:15:12.347082,13.0,1.0,373.0
2022-01-24-13:15:12.348081,13.0,1.0,373.0
2022-01-24-13:15:12.349076,13.0,1.0,373.0
2022-01-24-13:15:12.350075,10.0,1.0,373.0
2022-01-24-13:15:12.351072,6.0,4.0,373.0
2022-01-24-13:15:12.352068,1.0,1.0,373.0
2022-01-24-13:15:12.353033,1.0,1.0,373.0
2022-01-24-13:15:12.354063,0.0,1.0,373.0
2022-01-24-13:15:12.355060,1.0,8.0,373.0
2022-01-24-13:15:12.356060,3.0,3.0,373.0
2022-01-24-13:15:12.358021,3.0,3.0,373.0
2022-01-24-13:15:12.358021,8.0,5.0,373.0
2022-01-24-13:15:12.359291,1.0,3.0,373.0
2022-01-24-13:15:12.359291,7.0,0.0,373.0
2022-01-24-13:15:12.360347,7.0,0.0,373.0
2022-01-24-13:15:12.361342,7.0,0.0,373.0
2022-01-24-13:15:12.362395,12.0,0.0,373.0
2022-01-24-13:15:12.362395,20.0,1.0,373.0
2022-01-24-13:15:12.363441,13.0,2.0,373.0
2022-01-24-13:15:12.364438,13.0,2.0,373.0
2022-01-24-13:15:12.365390,13.0,2.0,373.0
2022-01-24-13:15:12.366414,10.0,3.0,373.0
2022-01-24-13:15:12.367430,3.0,5.0,374.0
2022-01-24-13:15:12.368428,3.0,5.0,373.0
2022-01-24-13:15:12.369379,3.0,5.0,373.0
2022-01-24-13:15:12.370423,2.0,8.0,373.0
2022-01-24-13:15:12.371421,2.0,8.0,373.0
2022-01-24-13:15:12.372417,8.0,12.0,373.0
2022-01-24-13:15:12.373393,8.0,12.0,373.0
2022-01-24-13:15:12.374392,6.0,9.0,373.0
2022-01-24-13:15:12.375378,4.0,3.0,374.0
2022-01-24-13:15:12.376407,4.0,2.0,373.0
2022-01-24-13:15:12.377407,4.0,2.0,373.0
2022-01-24-13:15:12.378403,11.0,4.0,373.0
2022-01-24-13:15:12.379400,16.0,4.0,373.0
2022-01-24-13:15:12.380400,13.0,2.0,374.0
2022-01-24-13:15:12.381394,13.0,2.0,374.0
2022-01-24-13:15:12.382391,13.0,2.0,374.0
2022-01-24-13:15:12.383392,9.0,2.0,374.0
2022-01-24-13:15:12.384388,3.0,4.0,373.0
2022-01-24-13:15:12.385386,1.0,9.0,373.0
2022-01-24-13:15:12.386381,1.0,9.0,373.0
2022-01-24-13:15:12.387378,3.0,6.0,373.0
2022-01-24-13:15:12.389352,3.0,6.0,373.0
2022-01-24-13:15:12.389352,1.0,6.0,373.0
2022-01-24-13:15:12.390370,5.0,2.0,373.0
2022-01-24-13:15:12.391320,0.0,4.0,374.0
2022-01-24-13:15:12.392365,4.0,1.0,373.0
2022-01-24-13:15:12.393364,4.0,1.0,373.0
2022-01-24-13:15:12.394359,4.0,1.0,373.0
2022-01-24-13:15:12.395361,7.0,5.0,373.0
2022-01-24-13:15:12.396355,15.0,2.0,373.0
2022-01-24-13:15:12.397352,16.0,2.0,373.0
2022-01-24-13:15:12.398349,16.0,2.0,373.0
2022-01-24-13:15:12.399350,9.0,4.0,373.0
2022-01-24-13:15:12.400344,4.0,3.0,373.0
2022-01-24-13:15:12.401346,6.0,8.0,373.0
2022-01-24-13:15:12.402338,6.0,8.0,373.0
2022-01-24-13:15:12.403311,0.0,8.0,373.0
2022-01-24-13:15:12.404332,3.0,10.0,373.0
2022-01-24-13:15:12.405445,2.0,13.0,373.0
2022-01-24-13:15:12.405445,2.0,13.0,373.0
2022-01-24-13:15:12.406500,2.0,13.0,373.0
2022-01-24-13:15:12.407586,1.0,7.0,373.0
2022-01-24-13:15:12.407586,3.0,10.0,373.0
2022-01-24-13:15:12.408611,3.0,10.0,373.0
2022-01-24-13:15:12.409608,3.0,10.0,373.0
2022-01-24-13:15:12.410605,3.0,10.0,373.0
2022-01-24-13:15:12.411823,8.0,9.0,373.0
2022-01-24-13:15:12.411823,10.0,3.0,373.0
2022-01-24-13:15:12.412958,17.0,4.0,373.0
2022-01-24-13:15:12.412958,17.0,4.0,373.0
2022-01-24-13:15:12.413984,17.0,4.0,373.0
2022-01-24-13:15:12.414981,17.0,4.0,373.0
2022-01-24-13:15:12.415980,13.0,2.0,373.0
2022-01-24-13:15:12.416974,9.0,1.0,373.0
2022-01-24-13:15:12.417977,7.0,1.0,373.0
2022-01-24-13:15:12.418971,7.0,1.0,373.0
2022-01-24-13:15:12.419967,3.0,7.0,373.0
2022-01-24-13:15:12.421362,0.0,20.0,373.0
2022-01-24-13:15:12.421545,1.0,20.0,373.0
2022-01-24-13:15:12.422545,1.0,20.0,373.0
2022-01-24-13:15:12.422545,1.0,20.0,373.0
2022-01-24-13:15:12.423597,7.0,18.0,373.0
2022-01-24-13:15:12.424541,0.0,8.0,374.0
2022-01-24-13:15:12.425591,0.0,8.0,374.0
2022-01-24-13:15:12.425591,0.0,8.0,374.0
2022-01-24-13:15:12.426616,0.0,8.0,374.0
2022-01-24-13:15:12.427860,0.0,8.0,374.0
2022-01-24-13:15:12.427860,12.0,13.0,374.0
2022-01-24-13:15:12.428915,19.0,4.0,373.0
2022-01-24-13:15:12.429912,19.0,4.0,373.0
2022-01-24-13:15:12.430855,19.0,4.0,373.0
2022-01-24-13:15:12.431907,15.0,7.0,373.0
2022-01-24-13:15:12.432906,11.0,4.0,373.0
2022-01-24-13:15:12.433906,9.0,4.0,373.0
2022-01-24-13:15:12.435052,9.0,4.0,373.0
2022-01-24-13:15:12.435052,5.0,2.0,373.0
2022-01-24-13:15:12.436203,1.0,13.0,373.0
2022-01-24-13:15:12.436203,1.0,13.0,373.0
2022-01-24-13:15:12.437227,1.0,13.0,373.0
2022-01-24-13:15:12.438226,1.0,13.0,373.0
2022-01-24-13:15:12.439496,1.0,13.0,373.0
2022-01-24-13:15:12.439496,2.0,10.0,373.0
2022-01-24-13:15:12.440760,0.0,1.0,373.0
2022-01-24-13:15:12.440760,0.0,1.0,373.0
2022-01-24-13:15:12.441816,0.0,1.0,373.0
2022-01-24-13:15:12.442812,0.0,1.0,373.0
2022-01-24-13:15:12.443986,0.0,1.0,373.0
2022-01-24-13:15:12.443986,3.0,1.0,373.0
2022-01-24-13:15:12.445042,10.0,1.0,373.0
2022-01-24-13:15:12.446038,13.0,2.0,374.0
2022-01-24-13:15:12.447035,13.0,2.0,374.0
2022-01-24-13:15:12.448035,13.0,2.0,374.0
2022-01-24-13:15:12.449029,10.0,2.0,374.0
2022-01-24-13:15:12.450026,10.0,7.0,373.0
2022-01-24-13:15:12.451027,10.0,7.0,373.0
2022-01-24-13:15:12.452028,10.0,7.0,373.0
2022-01-24-13:15:12.453023,3.0,7.0,373.0
2022-01-24-13:15:12.454016,2.0,4.0,373.0
2022-01-24-13:15:12.455014,0.0,7.0,373.0
2022-01-24-13:15:12.456014,0.0,7.0,373.0
2022-01-24-13:15:12.457008,3.0,8.0,373.0
2022-01-24-13:15:12.458981,3.0,8.0,373.0
2022-01-24-13:15:12.458981,3.0,8.0,373.0
2022-01-24-13:15:12.460000,3.0,8.0,373.0
2022-01-24-13:15:12.460991,4.0,4.0,373.0
2022-01-24-13:15:12.461988,16.0,1.0,373.0
2022-01-24-13:15:12.462984,16.0,1.0,373.0
2022-01-24-13:15:12.463984,16.0,1.0,373.0
2022-01-24-13:15:12.464979,16.0,0.0,373.0
2022-01-24-13:15:12.465976,9.0,4.0,373.0
2022-01-24-13:15:12.466928,5.0,6.0,374.0
2022-01-24-13:15:12.467952,5.0,6.0,374.0
2022-01-24-13:15:12.468948,2.0,8.0,374.0
2022-01-24-13:15:12.469945,1.0,5.0,373.0
2022-01-24-13:15:12.470944,2.0,9.0,373.0
2022-01-24-13:15:12.471938,2.0,9.0,373.0
2022-01-24-13:15:12.472936,2.0,12.0,373.0
2022-01-24-13:15:12.473935,2.0,12.0,373.0
2022-01-24-13:15:12.475232,4.0,16.0,373.0
2022-01-24-13:15:12.475232,5.0,9.0,373.0
2022-01-24-13:15:12.476265,5.0,9.0,373.0
2022-01-24-13:15:12.477265,1.0,11.0,373.0
2022-01-24-13:15:12.478266,10.0,7.0,373.0
2022-01-24-13:15:12.479262,15.0,3.0,373.0
2022-01-24-13:15:12.480256,15.0,3.0,373.0
2022-01-24-13:15:12.481252,16.0,3.0,373.0
2022-01-24-13:15:12.482216,9.0,3.0,373.0
2022-01-24-13:15:12.483225,7.0,3.0,373.0
2022-01-24-13:15:12.484211,7.0,3.0,373.0
2022-01-24-13:15:12.485255,3.0,3.0,373.0
2022-01-24-13:15:12.485612,0.0,1.0,373.0
2022-01-24-13:15:12.485612,0.0,1.0,373.0
2022-01-24-13:15:12.486644,0.0,1.0,373.0
2022-01-24-13:15:12.487642,0.0,1.0,373.0
2022-01-24-13:15:12.489165,0.0,1.0,373.0
2022-01-24-13:15:12.490199,6.0,2.0,373.0
2022-01-24-13:15:12.490199,5.0,13.0,373.0
2022-01-24-13:15:12.491226,5.0,13.0,373.0
2022-01-24-13:15:12.492159,5.0,13.0,373.0
2022-01-24-13:15:12.493212,5.0,13.0,373.0
2022-01-24-13:15:12.494209,1.0,3.0,373.0
2022-01-24-13:15:12.495208,13.0,5.0,373.0
2022-01-24-13:15:12.496206,13.0,5.0,373.0
2022-01-24-13:15:12.497201,20.0,6.0,373.0
2022-01-24-13:15:12.498308,9.0,9.0,373.0
2022-01-24-13:15:12.498308,9.0,9.0,373.0
2022-01-24-13:15:12.499340,9.0,9.0,373.0
2022-01-24-13:15:12.500337,9.0,9.0,373.0
2022-01-24-13:15:12.501623,4.0,10.0,373.0
2022-01-24-13:15:12.501623,3.0,10.0,373.0
2022-01-24-13:15:12.502679,0.0,12.0,373.0
2022-01-24-13:15:12.503677,0.0,12.0,373.0
2022-01-24-13:15:12.504618,0.0,12.0,373.0
2022-01-24-13:15:12.505671,2.0,7.0,373.0
2022-01-24-13:15:12.506673,5.0,4.0,373.0
2022-01-24-13:15:12.507665,6.0,3.0,374.0
2022-01-24-13:15:12.508607,6.0,3.0,374.0
2022-01-24-13:15:12.509660,0.0,2.0,373.0
2022-01-24-13:15:12.510658,5.0,1.0,373.0
2022-01-24-13:15:12.511648,10.0,5.0,373.0
2022-01-24-13:15:12.512655,10.0,5.0,373.0
2022-01-24-13:15:12.513649,16.0,2.0,373.0
2022-01-24-13:15:12.514639,12.0,2.0,373.0
2022-01-24-13:15:12.515635,4.0,4.0,373.0
2022-01-24-13:15:12.516635,4.0,4.0,373.0
2022-01-24-13:15:12.517631,4.0,4.0,373.0
2022-01-24-13:15:12.518629,4.0,7.0,373.0
2022-01-24-13:15:12.519627,4.0,8.0,373.0
2022-01-24-13:15:12.520622,4.0,8.0,373.0
2022-01-24-13:15:12.521620,4.0,8.0,373.0
2022-01-24-13:15:12.522617,2.0,11.0,373.0
2022-01-24-13:15:12.523615,5.0,6.0,373.0
2022-01-24-13:15:12.525563,5.0,6.0,373.0
2022-01-24-13:15:12.525563,1.0,0.0,373.0
2022-01-24-13:15:12.526584,1.0,0.0,373.0
2022-01-24-13:15:12.527580,10.0,2.0,373.0
2022-01-24-13:15:12.528578,10.0,2.0,373.0
2022-01-24-13:15:12.529575,10.0,2.0,373.0
2022-01-24-13:15:12.530572,15.0,3.0,373.0
2022-01-24-13:15:12.531652,8.0,3.0,373.0
2022-01-24-13:15:12.531652,8.0,3.0,373.0
2022-01-24-13:15:12.532687,8.0,3.0,373.0
2022-01-24-13:15:12.533893,8.0,3.0,373.0
2022-01-24-13:15:12.533893,7.0,5.0,373.0
2022-01-24-13:15:12.534916,1.0,10.0,374.0
2022-01-24-13:15:12.535920,2.0,8.0,373.0
2022-01-24-13:15:12.536914,2.0,8.0,373.0
2022-01-24-13:15:12.537908,2.0,8.0,373.0
2022-01-24-13:15:12.539018,1.0,5.0,373.0
2022-01-24-13:15:12.539018,7.0,4.0,373.0
2022-01-24-13:15:12.540077,7.0,4.0,373.0
2022-01-24-13:15:12.541070,7.0,4.0,373.0
2022-01-24-13:15:12.542046,7.0,4.0,373.0
2022-01-24-13:15:12.543065,3.0,4.0,373.0
2022-01-24-13:15:12.544041,1.0,0.0,374.0
2022-01-24-13:15:12.545064,5.0,4.0,373.0
2022-01-24-13:15:12.546225,7.0,2.0,373.0
2022-01-24-13:15:12.546225,13.0,3.0,374.0
2022-01-24-13:15:12.547249,17.0,7.0,373.0
2022-01-24-13:15:12.548340,10.0,8.0,373.0
2022-01-24-13:15:12.548340,10.0,8.0,373.0
2022-01-24-13:15:12.549381,10.0,8.0,373.0
2022-01-24-13:15:12.550361,10.0,8.0,373.0
2022-01-24-13:15:12.551358,3.0,3.0,373.0
2022-01-24-13:15:12.552360,3.0,9.0,373.0
2022-01-24-13:15:12.553353,3.0,9.0,373.0
2022-01-24-13:15:12.554353,3.0,9.0,373.0
2022-01-24-13:15:12.556601,1.0,8.0,373.0
2022-01-24-13:15:12.556601,1.0,8.0,373.0
2022-01-24-13:15:12.557630,4.0,5.0,373.0
2022-01-24-13:15:12.558652,3.0,4.0,373.0
2022-01-24-13:15:12.559594,8.0,5.0,374.0
2022-01-24-13:15:12.560646,8.0,5.0,374.0
2022-01-24-13:15:12.561644,8.0,5.0,374.0
2022-01-24-13:15:12.562642,8.0,5.0,374.0
2022-01-24-13:15:12.563690,20.0,12.0,373.0
2022-01-24-13:15:12.563690,13.0,4.0,373.0
2022-01-24-13:15:12.564722,8.0,1.0,373.0
2022-01-24-13:15:12.565722,8.0,1.0,373.0
2022-01-24-13:15:12.566716,8.0,1.0,373.0
2022-01-24-13:15:12.567716,8.0,2.0,373.0
2022-01-24-13:15:12.568711,5.0,12.0,373.0
2022-01-24-13:15:12.569708,1.0,19.0,373.0
2022-01-24-13:15:12.570708,1.0,19.0,373.0
2022-01-24-13:15:12.571703,2.0,19.0,373.0
2022-01-24-13:15:12.572700,2.0,19.0,373.0
2022-01-24-13:15:12.573692,0.0,9.0,374.0
2022-01-24-13:15:12.574687,8.0,8.0,373.0
2022-01-24-13:15:12.575731,4.0,6.0,373.0
2022-01-24-13:15:12.576682,5.0,2.0,373.0
2022-01-24-13:15:12.577679,8.0,2.0,373.0
2022-01-24-13:15:12.578679,8.0,2.0,373.0
2022-01-24-13:15:12.579673,16.0,14.0,373.0
2022-01-24-13:15:12.580671,11.0,13.0,373.0
2022-01-24-13:15:12.581671,10.0,5.0,373.0
2022-01-24-13:15:12.582665,10.0,5.0,373.0
2022-01-24-13:15:12.583665,10.0,4.0,373.0
2022-01-24-13:15:12.584660,2.0,16.0,373.0
2022-01-24-13:15:12.585657,3.0,5.0,373.0
2022-01-24-13:15:12.586657,3.0,5.0,373.0
2022-01-24-13:15:12.587652,0.0,2.0,373.0
2022-01-24-13:15:12.588649,0.0,8.0,373.0
2022-01-24-13:15:12.589650,1.0,10.0,373.0
2022-01-24-13:15:12.590620,2.0,11.0,373.0
2022-01-24-13:15:12.591644,2.0,8.0,373.0
2022-01-24-13:15:12.593636,7.0,6.0,373.0
2022-01-24-13:15:12.593636,7.0,6.0,373.0
2022-01-24-13:15:12.594610,7.0,6.0,373.0
2022-01-24-13:15:12.595634,9.0,7.0,373.0
2022-01-24-13:15:12.596628,17.0,4.0,373.0
2022-01-24-13:15:12.597630,12.0,3.0,374.0
2022-01-24-13:15:12.598624,12.0,3.0,374.0
2022-01-24-13:15:12.599623,12.0,3.0,374.0
2022-01-24-13:15:12.600618,6.0,0.0,373.0
2022-01-24-13:15:12.601615,2.0,6.0,373.0
2022-01-24-13:15:12.602614,2.0,6.0,373.0
2022-01-24-13:15:12.603613,2.0,6.0,373.0
2022-01-24-13:15:12.604615,1.0,11.0,373.0
2022-01-24-13:15:12.605607,5.0,7.0,373.0
2022-01-24-13:15:12.606601,5.0,7.0,373.0
2022-01-24-13:15:12.607603,5.0,7.0,373.0
2022-01-24-13:15:12.608597,6.0,9.0,373.0
2022-01-24-13:15:12.609594,1.0,8.0,373.0
2022-01-24-13:15:12.610593,6.0,0.0,373.0
2022-01-24-13:15:12.611588,6.0,0.0,373.0
2022-01-24-13:15:12.612728,17.0,0.0,373.0
2022-01-24-13:15:12.612728,17.0,0.0,373.0
2022-01-24-13:15:12.613776,17.0,0.0,373.0
2022-01-24-13:15:12.614774,17.0,0.0,373.0
2022-01-24-13:15:12.615770,17.0,0.0,373.0
2022-01-24-13:15:12.616946,10.0,2.0,373.0
2022-01-24-13:15:12.616946,7.0,6.0,373.0
2022-01-24-13:15:12.617973,7.0,6.0,373.0
2022-01-24-13:15:12.618967,2.0,12.0,373.0
2022-01-24-13:15:12.619965,2.0,12.0,373.0
2022-01-24-13:15:12.620962,0.0,11.0,373.0
2022-01-24-13:15:12.621935,0.0,11.0,373.0
2022-01-24-13:15:12.622933,2.0,1.0,373.0
2022-01-24-13:15:12.623930,2.0,1.0,373.0
2022-01-24-13:15:12.624932,4.0,0.0,373.0
2022-01-24-13:15:12.625958,4.0,0.0,373.0
2022-01-24-13:15:12.627951,4.0,0.0,373.0
2022-01-24-13:15:12.627951,11.0,1.0,373.0
2022-01-24-13:15:12.628949,11.0,1.0,373.0
2022-01-24-13:15:12.629945,18.0,1.0,373.0
2022-01-24-13:15:12.630942,18.0,1.0,373.0
2022-01-24-13:15:12.631940,18.0,1.0,373.0
2022-01-24-13:15:12.632937,10.0,3.0,373.0
2022-01-24-13:15:12.633937,5.0,3.0,373.0
2022-01-24-13:15:12.634932,5.0,3.0,373.0
2022-01-24-13:15:12.635930,5.0,3.0,373.0
2022-01-24-13:15:12.636927,5.0,4.0,373.0
2022-01-24-13:15:12.637924,2.0,3.0,373.0
2022-01-24-13:15:12.638927,0.0,1.0,373.0
2022-01-24-13:15:12.639919,0.0,1.0,373.0
2022-01-24-13:15:12.640908,8.0,1.0,373.0
2022-01-24-13:15:12.641911,8.0,1.0,373.0
2022-01-24-13:15:12.642902,8.0,1.0,373.0
2022-01-24-13:15:12.643876,8.0,1.0,373.0
2022-01-24-13:15:12.644898,11.0,1.0,373.0
2022-01-24-13:15:12.645895,14.0,9.0,373.0
2022-01-24-13:15:12.646891,14.0,9.0,373.0
2022-01-24-13:15:12.647866,14.0,9.0,373.0
2022-01-24-13:15:12.648887,13.0,3.0,373.0
2022-01-24-13:15:12.649887,5.0,5.0,373.0
2022-01-24-13:15:12.650886,5.0,5.0,373.0
2022-01-24-13:15:12.651879,5.0,5.0,373.0
2022-01-24-13:15:12.652877,1.0,6.0,373.0
2022-01-24-13:15:12.653855,3.0,6.0,373.0
2022-01-24-13:15:12.654874,3.0,6.0,373.0
2022-01-24-13:15:12.655868,3.0,6.0,373.0
2022-01-24-13:15:12.656866,3.0,6.0,373.0
2022-01-24-13:15:12.657876,4.0,8.0,373.0
2022-01-24-13:15:12.658861,2.0,10.0,373.0
2022-01-24-13:15:12.660856,2.0,10.0,373.0
2022-01-24-13:15:12.660856,6.0,4.0,373.0
2022-01-24-13:15:12.661852,6.0,4.0,373.0
2022-01-24-13:15:12.662850,21.0,1.0,373.0
2022-01-24-13:15:12.663852,21.0,1.0,373.0
2022-01-24-13:15:12.664844,21.0,1.0,373.0
2022-01-24-13:15:12.665844,15.0,2.0,373.0
2022-01-24-13:15:12.666950,4.0,5.0,373.0
2022-01-24-13:15:12.666950,4.0,5.0,373.0
2022-01-24-13:15:12.668013,4.0,5.0,373.0
2022-01-24-13:15:12.669011,4.0,5.0,373.0
2022-01-24-13:15:12.670000,3.0,4.0,373.0
2022-01-24-13:15:12.671186,4.0,4.0,374.0
2022-01-24-13:15:12.671186,1.0,11.0,374.0
2022-01-24-13:15:12.672212,1.0,11.0,374.0
2022-01-24-13:15:12.673208,1.0,11.0,374.0
2022-01-24-13:15:12.674351,3.0,10.0,373.0
2022-01-24-13:15:12.674351,1.0,4.0,373.0
2022-01-24-13:15:12.675351,1.0,4.0,373.0
2022-01-24-13:15:12.676380,1.0,4.0,373.0
2022-01-24-13:15:12.677380,4.0,1.0,373.0
2022-01-24-13:15:12.678446,21.0,5.0,373.0
2022-01-24-13:15:12.678446,21.0,5.0,373.0
2022-01-24-13:15:12.679502,21.0,5.0,373.0
2022-01-24-13:15:12.680498,21.0,5.0,373.0
2022-01-24-13:15:12.681499,21.0,5.0,373.0
2022-01-24-13:15:12.682493,6.0,1.0,374.0
2022-01-24-13:15:12.683490,3.0,3.0,373.0
2022-01-24-13:15:12.684487,3.0,3.0,373.0
2022-01-24-13:15:12.685484,3.0,3.0,373.0
2022-01-24-13:15:12.686481,3.0,14.0,373.0
2022-01-24-13:15:12.687684,2.0,15.0,373.0
2022-01-24-13:15:12.687684,0.0,22.0,374.0
2022-01-24-13:15:12.688718,0.0,22.0,374.0
2022-01-24-13:15:12.690711,8.0,18.0,373.0
2022-01-24-13:15:12.691675,4.0,12.0,373.0
2022-01-24-13:15:12.691675,4.0,12.0,373.0
2022-01-24-13:15:12.692705,2.0,4.0,373.0
2022-01-24-13:15:12.693702,2.0,4.0,373.0
2022-01-24-13:15:12.694703,18.0,14.0,373.0
2022-01-24-13:15:12.695697,18.0,14.0,373.0
2022-01-24-13:15:12.696697,18.0,14.0,373.0
2022-01-24-13:15:12.697692,18.0,14.0,373.0
2022-01-24-13:15:12.698690,19.0,5.0,373.0
2022-01-24-13:15:12.699709,8.0,2.0,373.0
2022-01-24-13:15:12.700712,8.0,2.0,373.0
2022-01-24-13:15:12.701703,8.0,2.0,373.0
2022-01-24-13:15:12.702696,5.0,6.0,374.0
2022-01-24-13:15:12.703691,1.0,11.0,373.0
2022-01-24-13:15:12.704687,0.0,13.0,373.0
2022-01-24-13:15:12.705686,0.0,13.0,373.0
2022-01-24-13:15:12.706682,1.0,12.0,373.0
2022-01-24-13:15:12.707680,4.0,7.0,373.0
2022-01-24-13:15:12.708802,4.0,1.0,373.0
2022-01-24-13:15:12.708802,4.0,1.0,373.0
2022-01-24-13:15:12.709857,4.0,1.0,373.0
2022-01-24-13:15:12.710855,3.0,3.0,374.0
2022-01-24-13:15:12.711852,18.0,6.0,373.0
2022-01-24-13:15:12.712845,18.0,6.0,373.0
2022-01-24-13:15:12.713840,18.0,6.0,373.0
2022-01-24-13:15:12.714835,14.0,15.0,373.0
2022-01-24-13:15:12.715833,6.0,12.0,373.0
2022-01-24-13:15:12.716832,7.0,3.0,373.0
2022-01-24-13:15:12.717979,7.0,3.0,373.0
2022-01-24-13:15:12.717979,4.0,0.0,373.0
2022-01-24-13:15:12.719038,4.0,1.0,374.0
2022-01-24-13:15:12.720031,1.0,4.0,372.0
2022-01-24-13:15:12.721028,1.0,4.0,372.0
2022-01-24-13:15:12.722026,1.0,4.0,372.0
2022-01-24-13:15:12.723026,2.0,7.0,373.0
2022-01-24-13:15:12.724020,4.0,8.0,373.0
2022-01-24-13:15:12.724997,3.0,4.0,373.0
2022-01-24-13:15:12.726994,3.0,4.0,373.0
2022-01-24-13:15:12.726994,6.0,2.0,373.0
2022-01-24-13:15:12.727954,15.0,3.0,372.0
2022-01-24-13:15:12.729037,15.0,3.0,372.0
2022-01-24-13:15:12.729037,15.0,3.0,372.0
2022-01-24-13:15:12.730097,15.0,3.0,372.0
2022-01-24-13:15:12.731090,13.0,3.0,372.0
2022-01-24-13:15:12.732087,11.0,4.0,371.0
2022-01-24-13:15:12.733084,9.0,0.0,371.0
2022-01-24-13:15:12.734082,9.0,0.0,371.0
2022-01-24-13:15:12.735130,9.0,1.0,371.0
2022-01-24-13:15:12.735130,3.0,4.0,371.0
2022-01-24-13:15:12.736185,2.0,5.0,370.0
2022-01-24-13:15:12.737182,2.0,5.0,370.0
2022-01-24-13:15:12.738125,2.0,5.0,370.0
2022-01-24-13:15:12.739156,4.0,10.0,370.0
2022-01-24-13:15:12.740178,4.0,3.0,369.0
2022-01-24-13:15:12.741151,4.0,3.0,369.0
2022-01-24-13:15:12.742116,2.0,1.0,369.0
2022-01-24-13:15:12.743170,10.0,3.0,369.0
2022-01-24-13:15:12.744163,14.0,3.0,368.0
2022-01-24-13:15:12.745131,14.0,3.0,368.0
2022-01-24-13:15:12.746132,14.0,3.0,368.0
2022-01-24-13:15:12.747126,13.0,3.0,369.0
2022-01-24-13:15:12.748123,12.0,3.0,368.0
2022-01-24-13:15:12.749121,7.0,2.0,368.0
2022-01-24-13:15:12.750121,7.0,2.0,368.0
2022-01-24-13:15:12.751115,7.0,2.0,368.0
2022-01-24-13:15:12.752117,4.0,1.0,367.0
2022-01-24-13:15:12.753217,2.0,9.0,366.0
2022-01-24-13:15:12.753217,2.0,9.0,366.0
2022-01-24-13:15:12.754243,2.0,9.0,366.0
2022-01-24-13:15:12.755404,2.0,9.0,366.0
2022-01-24-13:15:12.755404,3.0,9.0,366.0
2022-01-24-13:15:12.756431,4.0,11.0,365.0
2022-01-24-13:15:12.757427,5.0,8.0,366.0
2022-01-24-13:15:12.758398,5.0,8.0,366.0
2022-01-24-13:15:12.759424,1.0,15.0,365.0
2022-01-24-13:15:12.761441,4.0,13.0,365.0
2022-01-24-13:15:12.761441,10.0,2.0,364.0
2022-01-24-13:15:12.762437,10.0,2.0,364.0
2022-01-24-13:15:12.763433,17.0,4.0,364.0
2022-01-24-13:15:12.764523,10.0,6.0,364.0
2022-01-24-13:15:12.764523,10.0,6.0,364.0
2022-01-24-13:15:12.765571,10.0,6.0,364.0
2022-01-24-13:15:12.766789,10.0,6.0,364.0
2022-01-24-13:15:12.766789,10.0,10.0,363.0
2022-01-24-13:15:12.767837,5.0,18.0,363.0
2022-01-24-13:15:12.768929,1.0,9.0,362.0
2022-01-24-13:15:12.768929,1.0,9.0,362.0
2022-01-24-13:15:12.769976,1.0,9.0,362.0
2022-01-24-13:15:12.771137,1.0,9.0,362.0
2022-01-24-13:15:12.771137,3.0,9.0,362.0
2022-01-24-13:15:12.772184,9.0,7.0,362.0
2022-01-24-13:15:12.773183,7.0,3.0,361.0
2022-01-24-13:15:12.774178,7.0,3.0,361.0
2022-01-24-13:15:12.775257,7.0,3.0,361.0
2022-01-24-13:15:12.775942,2.0,3.0,361.0
2022-01-24-13:15:12.776209,14.0,7.0,360.0
2022-01-24-13:15:12.776209,14.0,7.0,360.0
2022-01-24-13:15:12.777257,14.0,7.0,360.0
2022-01-24-13:15:12.778255,14.0,7.0,360.0
2022-01-24-13:15:12.779256,14.0,7.0,360.0
2022-01-24-13:15:12.780249,15.0,2.0,359.0
2022-01-24-13:15:12.781411,19.0,2.0,359.0
2022-01-24-13:15:12.781411,13.0,3.0,359.0
2022-01-24-13:15:12.782458,9.0,5.0,359.0
2022-01-24-13:15:12.783456,9.0,5.0,359.0
2022-01-24-13:15:12.784453,4.0,1.0,358.0
2022-01-24-13:15:12.785450,3.0,2.0,358.0
2022-01-24-13:15:12.786452,4.0,13.0,358.0
2022-01-24-13:15:12.787445,4.0,13.0,358.0
2022-01-24-13:15:12.788442,2.0,14.0,358.0
2022-01-24-13:15:12.789439,8.0,0.0,357.0
2022-01-24-13:15:12.790437,6.0,3.0,356.0
2022-01-24-13:15:12.791386,6.0,3.0,356.0
2022-01-24-13:15:12.793414,8.0,9.0,356.0
2022-01-24-13:15:12.793414,11.0,10.0,356.0
2022-01-24-13:15:12.794426,11.0,10.0,356.0
2022-01-24-13:15:12.795376,11.0,10.0,356.0
2022-01-24-13:15:12.796421,17.0,8.0,356.0
2022-01-24-13:15:12.797418,11.0,5.0,355.0
2022-01-24-13:15:12.798416,12.0,6.0,355.0
2022-01-24-13:15:12.799408,12.0,6.0,355.0
2022-01-24-13:15:12.800411,8.0,1.0,355.0
2022-01-24-13:15:12.801408,2.0,5.0,354.0
2022-01-24-13:15:12.802404,1.0,2.0,353.0
2022-01-24-13:15:12.803402,1.0,2.0,353.0
2022-01-24-13:15:12.804399,1.0,2.0,353.0
2022-01-24-13:15:12.805397,2.0,7.0,354.0
2022-01-24-13:15:12.806394,4.0,4.0,353.0
2022-01-24-13:15:12.807370,5.0,11.0,352.0
2022-01-24-13:15:12.808389,5.0,11.0,352.0
2022-01-24-13:15:12.809386,1.0,6.0,352.0
2022-01-24-13:15:12.810383,8.0,4.0,351.0
2022-01-24-13:15:12.811381,8.0,4.0,351.0
2022-01-24-13:15:12.812378,8.0,4.0,351.0
2022-01-24-13:15:12.813375,18.0,3.0,351.0
2022-01-24-13:15:12.814373,11.0,1.0,351.0
2022-01-24-13:15:12.815370,7.0,1.0,350.0
2022-01-24-13:15:12.816368,7.0,1.0,350.0
2022-01-24-13:15:12.817365,6.0,4.0,350.0
2022-01-24-13:15:12.818362,2.0,4.0,350.0
2022-01-24-13:15:12.819360,3.0,10.0,349.0
2022-01-24-13:15:12.820356,3.0,10.0,349.0
2022-01-24-13:15:12.821354,2.0,11.0,349.0
2022-01-24-13:15:12.822358,0.0,2.0,348.0
2022-01-24-13:15:12.823353,5.0,7.0,348.0
2022-01-24-13:15:12.824347,5.0,7.0,348.0
2022-01-24-13:15:12.825352,5.0,10.0,348.0
2022-01-24-13:15:12.826339,5.0,10.0,348.0
2022-01-24-13:15:12.827338,8.0,9.0,347.0
2022-01-24-13:15:12.829334,6.0,11.0,346.0
2022-01-24-13:15:12.829334,6.0,11.0,346.0
2022-01-24-13:15:12.830328,6.0,11.0,346.0
2022-01-24-13:15:12.831437,19.0,12.0,346.0
2022-01-24-13:15:12.831437,10.0,7.0,345.0
2022-01-24-13:15:12.832493,10.0,7.0,345.0
2022-01-24-13:15:12.833678,8.0,6.0,345.0
2022-01-24-13:15:12.833678,7.0,1.0,345.0
2022-01-24-13:15:12.834825,7.0,3.0,344.0
2022-01-24-13:15:12.834825,7.0,3.0,344.0
2022-01-24-13:15:12.835880,7.0,3.0,344.0
2022-01-24-13:15:12.836877,7.0,3.0,344.0
2022-01-24-13:15:12.838141,0.0,2.0,344.0
2022-01-24-13:15:12.838141,0.0,7.0,344.0
2022-01-24-13:15:12.839289,4.0,5.0,343.0
2022-01-24-13:15:12.839289,4.0,5.0,343.0
2022-01-24-13:15:12.840348,4.0,5.0,343.0
2022-01-24-13:15:12.841286,5.0,3.0,343.0
2022-01-24-13:15:12.842725,3.0,8.0,342.0
2022-01-24-13:15:12.842884,9.0,0.0,342.0
2022-01-24-13:15:12.842884,9.0,0.0,342.0
2022-01-24-13:15:12.844151,9.0,0.0,342.0
2022-01-24-13:15:12.844151,9.0,0.0,342.0
2022-01-24-13:15:12.845204,9.0,0.0,342.0
2022-01-24-13:15:12.846197,14.0,3.0,342.0
2022-01-24-13:15:12.847193,16.0,1.0,341.0
2022-01-24-13:15:12.848191,12.0,1.0,341.0
2022-01-24-13:15:12.849334,12.0,1.0,341.0
2022-01-24-13:15:12.849334,9.0,3.0,341.0
2022-01-24-13:15:12.850381,0.0,0.0,340.0
2022-01-24-13:15:12.851379,5.0,5.0,340.0
2022-01-24-13:15:12.852378,5.0,5.0,340.0
2022-01-24-13:15:12.853374,5.0,5.0,340.0
2022-01-24-13:15:12.854354,0.0,11.0,339.0
2022-01-24-13:15:12.855378,7.0,9.0,339.0
2022-01-24-13:15:12.856373,3.0,7.0,339.0
2022-01-24-13:15:12.857378,3.0,7.0,339.0
2022-01-24-13:15:12.858360,10.0,7.0,339.0
2022-01-24-13:15:12.859365,4.0,6.0,338.0
2022-01-24-13:15:12.860365,1.0,0.0,338.0
2022-01-24-13:15:12.862349,6.0,1.0,338.0
2022-01-24-13:15:12.862349,20.0,0.0,337.0
2022-01-24-13:15:12.863454,16.0,2.0,337.0
2022-01-24-13:15:12.863454,16.0,2.0,337.0
2022-01-24-13:15:12.864502,16.0,2.0,337.0
2022-01-24-13:15:12.865499,16.0,2.0,337.0
2022-01-24-13:15:12.866668,11.0,1.0,336.0
2022-01-24-13:15:12.866668,5.0,3.0,337.0
2022-01-24-13:15:12.867715,2.0,2.0,335.0
2022-01-24-13:15:12.868713,2.0,2.0,335.0
2022-01-24-13:15:12.869709,2.0,2.0,335.0
2022-01-24-13:15:12.870707,2.0,3.0,335.0
2022-01-24-13:15:12.871707,3.0,8.0,335.0
2022-01-24-13:15:12.872702,4.0,8.0,335.0
2022-01-24-13:15:12.873698,4.0,8.0,335.0
2022-01-24-13:15:12.874714,6.0,9.0,334.0
2022-01-24-13:15:12.875699,8.0,2.0,334.0
2022-01-24-13:15:12.876699,8.0,2.0,334.0
2022-01-24-13:15:12.877688,8.0,2.0,334.0
2022-01-24-13:15:12.878688,20.0,3.0,333.0
2022-01-24-13:15:12.879685,17.0,6.0,333.0
2022-01-24-13:15:12.880680,17.0,6.0,333.0
2022-01-24-13:15:12.881677,17.0,6.0,333.0
2022-01-24-13:15:12.882677,12.0,8.0,333.0
2022-01-24-13:15:12.883675,7.0,4.0,333.0
2022-01-24-13:15:12.884671,5.0,4.0,332.0
2022-01-24-13:15:12.885666,5.0,4.0,332.0
2022-01-24-13:15:12.886664,1.0,2.0,332.0
2022-01-24-13:15:12.887669,0.0,5.0,332.0
2022-01-24-13:15:12.888659,2.0,7.0,332.0
2022-01-24-13:15:12.889609,2.0,7.0,332.0
2022-01-24-13:15:12.890656,6.0,8.0,332.0
2022-01-24-13:15:12.891652,4.0,5.0,331.0
2022-01-24-13:15:12.892628,4.0,4.0,331.0
2022-01-24-13:15:12.893630,4.0,4.0,331.0
2022-01-24-13:15:12.894643,8.0,1.0,331.0
2022-01-24-13:15:12.896615,19.0,3.0,331.0
2022-01-24-13:15:12.896615,19.0,3.0,331.0
2022-01-24-13:15:12.897636,19.0,3.0,331.0
2022-01-24-13:15:12.898634,13.0,0.0,330.0
2022-01-24-13:15:12.899630,8.0,4.0,331.0
2022-01-24-13:15:12.900628,6.0,2.0,330.0
2022-01-24-13:15:12.901624,6.0,2.0,330.0
2022-01-24-13:15:12.902626,6.0,2.0,330.0
2022-01-24-13:15:12.903621,1.0,4.0,330.0
2022-01-24-13:15:12.904616,1.0,6.0,330.0
2022-01-24-13:15:12.905613,2.0,11.0,330.0
2022-01-24-13:15:12.906613,2.0,11.0,330.0
2022-01-24-13:15:12.907608,0.0,1.0,329.0
2022-01-24-13:15:12.908597,0.0,3.0,329.0
2022-01-24-13:15:12.909603,0.0,3.0,329.0
2022-01-24-13:15:12.910600,0.0,3.0,329.0
2022-01-24-13:15:12.911600,6.0,5.0,329.0
2022-01-24-13:15:12.912698,14.0,3.0,329.0
2022-01-24-13:15:12.913069,14.0,3.0,329.0
2022-01-24-13:15:12.913069,14.0,3.0,329.0
2022-01-24-13:15:12.914118,14.0,3.0,329.0
2022-01-24-13:15:12.915114,11.0,0.0,329.0
2022-01-24-13:15:12.916111,5.0,4.0,329.0
2022-01-24-13:15:12.917110,6.0,3.0,328.0
2022-01-24-13:15:12.918106,6.0,3.0,328.0
2022-01-24-13:15:12.919103,6.0,3.0,328.0
2022-01-24-13:15:12.920100,3.0,7.0,328.0
2022-01-24-13:15:12.921272,2.0,7.0,328.0
2022-01-24-13:15:12.921272,3.0,8.0,328.0
2022-01-24-13:15:12.922303,0.0,9.0,328.0
2022-01-24-13:15:12.923316,1.0,5.0,327.0
2022-01-24-13:15:12.924474,7.0,8.0,328.0
2022-01-24-13:15:12.924474,3.0,4.0,328.0
2022-01-24-13:15:12.925524,3.0,4.0,328.0
2022-01-24-13:15:12.926515,3.0,4.0,328.0
2022-01-24-13:15:12.927515,7.0,1.0,327.0
2022-01-24-13:15:12.929513,7.0,1.0,327.0
2022-01-24-13:15:12.929513,14.0,17.0,326.0
2022-01-24-13:15:12.930525,14.0,17.0,326.0
2022-01-24-13:15:12.931505,18.0,16.0,327.0
2022-01-24-13:15:12.932502,13.0,15.0,326.0
2022-01-24-13:15:12.933500,7.0,1.0,326.0
2022-01-24-13:15:12.934497,7.0,1.0,326.0
2022-01-24-13:15:12.935734,7.0,1.0,326.0
2022-01-24-13:15:12.935734,3.0,10.0,326.0
2022-01-24-13:15:12.936788,1.0,24.0,326.0
2022-01-24-13:15:12.937786,1.0,24.0,326.0
2022-01-24-13:15:12.938728,1.0,24.0,326.0
2022-01-24-13:15:12.939781,1.0,28.0,325.0
2022-01-24-13:15:12.940778,8.0,23.0,325.0
2022-01-24-13:15:12.941754,7.0,19.0,325.0
2022-01-24-13:15:12.942773,7.0,19.0,325.0
2022-01-24-13:15:12.943772,5.0,12.0,324.0
2022-01-24-13:15:12.944767,4.0,5.0,324.0
2022-01-24-13:15:12.945764,21.0,4.0,324.0
2022-01-24-13:15:12.946753,21.0,4.0,324.0
2022-01-24-13:15:12.947752,18.0,0.0,323.0
2022-01-24-13:15:12.948856,8.0,1.0,323.0
2022-01-24-13:15:12.948856,8.0,1.0,323.0
2022-01-24-13:15:12.949903,8.0,1.0,323.0
2022-01-24-13:15:12.950903,8.0,1.0,323.0
2022-01-24-13:15:12.951898,8.0,1.0,323.0
2022-01-24-13:15:12.953061,2.0,1.0,322.0
2022-01-24-13:15:12.953061,5.0,4.0,322.0
2022-01-24-13:15:12.954195,3.0,3.0,322.0
2022-01-24-13:15:12.954195,3.0,3.0,322.0
2022-01-24-13:15:12.955393,3.0,3.0,322.0
2022-01-24-13:15:12.955393,1.0,6.0,322.0
2022-01-24-13:15:12.956443,10.0,5.0,321.0
2022-01-24-13:15:12.957438,6.0,1.0,320.0
2022-01-24-13:15:12.958434,6.0,1.0,320.0
2022-01-24-13:15:12.959384,6.0,1.0,320.0
2022-01-24-13:15:12.960430,2.0,2.0,320.0
2022-01-24-13:15:12.961428,2.0,2.0,320.0
2022-01-24-13:15:12.963374,8.0,2.0,320.0
2022-01-24-13:15:12.963374,14.0,4.0,320.0
2022-01-24-13:15:12.964421,13.0,7.0,320.0
2022-01-24-13:15:12.965416,7.0,1.0,319.0
2022-01-24-13:15:12.966413,7.0,1.0,319.0
2022-01-24-13:15:12.967377,7.0,1.0,319.0
2022-01-24-13:15:12.968407,5.0,4.0,319.0
2022-01-24-13:15:12.969407,2.0,7.0,318.0
2022-01-24-13:15:12.970402,0.0,11.0,319.0
2022-01-24-13:15:12.971400,0.0,11.0,319.0
2022-01-24-13:15:12.972404,2.0,11.0,319.0
2022-01-24-13:15:12.973395,3.0,2.0,318.0
2022-01-24-13:15:12.974395,3.0,2.0,318.0
2022-01-24-13:15:12.975341,3.0,2.0,318.0
2022-01-24-13:15:12.976387,3.0,2.0,318.0
2022-01-24-13:15:12.977385,2.0,5.0,318.0
2022-01-24-13:15:12.978381,2.0,5.0,318.0
2022-01-24-13:15:12.979379,10.0,6.0,317.0
2022-01-24-13:15:12.980383,20.0,2.0,317.0
2022-01-24-13:15:12.981375,8.0,2.0,316.0
2022-01-24-13:15:12.982369,8.0,2.0,316.0
2022-01-24-13:15:12.983370,8.0,2.0,316.0
2022-01-24-13:15:12.984365,8.0,2.0,316.0
2022-01-24-13:15:12.985364,4.0,3.0,316.0
2022-01-24-13:15:12.986360,1.0,4.0,316.0
2022-01-24-13:15:12.987357,0.0,9.0,316.0
2022-01-24-13:15:12.988362,0.0,9.0,316.0
2022-01-24-13:15:12.989353,1.0,2.0,315.0
2022-01-24-13:15:12.990348,3.0,4.0,315.0
2022-01-24-13:15:12.991349,7.0,1.0,315.0
2022-01-24-13:15:12.992344,7.0,1.0,315.0
2022-01-24-13:15:12.993342,7.0,1.0,315.0
2022-01-24-13:15:12.994338,3.0,5.0,314.0
2022-01-24-13:15:12.995340,10.0,9.0,315.0
2022-01-24-13:15:12.996336,17.0,5.0,315.0
2022-01-24-13:15:12.998329,17.0,5.0,315.0
2022-01-24-13:15:12.998329,15.0,2.0,315.0
2022-01-24-13:15:12.999330,6.0,3.0,315.0
2022-01-24-13:15:13.000275,6.0,3.0,315.0
2022-01-24-13:15:13.001321,4.0,4.0,314.0
2022-01-24-13:15:13.002317,3.0,5.0,315.0
2022-01-24-13:15:13.003314,0.0,8.0,315.0
2022-01-24-13:15:13.004264,0.0,8.0,315.0
2022-01-24-13:15:13.005309,3.0,10.0,314.0
2022-01-24-13:15:13.006306,5.0,10.0,314.0
2022-01-24-13:15:13.007306,5.0,5.0,314.0
2022-01-24-13:15:13.008283,5.0,5.0,314.0
2022-01-24-13:15:13.009300,1.0,0.0,314.0
2022-01-24-13:15:13.010296,9.0,16.0,314.0
2022-01-24-13:15:13.011292,16.0,12.0,314.0
2022-01-24-13:15:13.012289,16.0,12.0,314.0
2022-01-24-13:15:13.013286,19.0,6.0,314.0
2022-01-24-13:15:13.014378,14.0,5.0,314.0
2022-01-24-13:15:13.014378,8.0,5.0,314.0
2022-01-24-13:15:13.015435,8.0,5.0,314.0
2022-01-24-13:15:13.016625,8.0,5.0,314.0
2022-01-24-13:15:13.016625,2.0,8.0,314.0
2022-01-24-13:15:13.017751,1.0,11.0,314.0
2022-01-24-13:15:13.017751,1.0,11.0,314.0
2022-01-24-13:15:13.018798,1.0,11.0,314.0
2022-01-24-13:15:13.019796,1.0,11.0,314.0
2022-01-24-13:15:13.020958,1.0,11.0,314.0
2022-01-24-13:15:13.020958,4.0,22.0,314.0
2022-01-24-13:15:13.022005,12.0,9.0,314.0
2022-01-24-13:15:13.023003,8.0,10.0,314.0
2022-01-24-13:15:13.023999,8.0,10.0,314.0
2022-01-24-13:15:13.024979,8.0,10.0,314.0
2022-01-24-13:15:13.025982,1.0,8.0,314.0
2022-01-24-13:15:13.026992,11.0,2.0,314.0
2022-01-24-13:15:13.027989,13.0,4.0,314.0
2022-01-24-13:15:13.028939,13.0,4.0,314.0
2022-01-24-13:15:13.029984,20.0,3.0,314.0
2022-01-24-13:15:13.030981,9.0,4.0,314.0
2022-01-24-13:15:13.032928,9.0,4.0,314.0
2022-01-24-13:15:13.032928,9.0,4.0,314.0
2022-01-24-13:15:13.033973,9.0,4.0,314.0
2022-01-24-13:15:13.034971,3.0,8.0,314.0
2022-01-24-13:15:13.036047,3.0,2.0,313.0
2022-01-24-13:15:13.036047,3.0,2.0,313.0
2022-01-24-13:15:13.037233,3.0,2.0,313.0
2022-01-24-13:15:13.037233,2.0,6.0,314.0
2022-01-24-13:15:13.038282,2.0,6.0,314.0
2022-01-24-13:15:13.039278,4.0,2.0,314.0
2022-01-24-13:15:13.040279,4.0,2.0,314.0
2022-01-24-13:15:13.041225,4.0,2.0,314.0
2022-01-24-13:15:13.042222,2.0,4.0,314.0
2022-01-24-13:15:13.043274,11.0,8.0,314.0
2022-01-24-13:15:13.044265,11.0,8.0,314.0
2022-01-24-13:15:13.045214,11.0,8.0,314.0
2022-01-24-13:15:13.046261,15.0,2.0,314.0
2022-01-24-13:15:13.047256,11.0,5.0,314.0
2022-01-24-13:15:13.048254,11.0,5.0,314.0
2022-01-24-13:15:13.049251,11.0,5.0,314.0
2022-01-24-13:15:13.050255,5.0,6.0,314.0
2022-01-24-13:15:13.051248,1.0,9.0,314.0
2022-01-24-13:15:13.052243,1.0,15.0,313.0
2022-01-24-13:15:13.053241,1.0,15.0,313.0
2022-01-24-13:15:13.054239,1.0,11.0,314.0
2022-01-24-13:15:13.055240,0.0,4.0,314.0
2022-01-24-13:15:13.056233,8.0,1.0,314.0
2022-01-24-13:15:13.057229,8.0,1.0,314.0
2022-01-24-13:15:13.058243,8.0,1.0,314.0
2022-01-24-13:15:13.059232,7.0,4.0,314.0
2022-01-24-13:15:13.060222,6.0,2.0,315.0
2022-01-24-13:15:13.061225,9.0,5.0,314.0
2022-01-24-13:15:13.063216,12.0,6.0,314.0
2022-01-24-13:15:13.063216,13.0,8.0,314.0
2022-01-24-13:15:13.064214,13.0,8.0,314.0
2022-01-24-13:15:13.065210,13.0,8.0,314.0
2022-01-24-13:15:13.066207,13.0,8.0,314.0
2022-01-24-13:15:13.067205,2.0,13.0,314.0
2022-01-24-13:15:13.068202,2.0,8.0,314.0
2022-01-24-13:15:13.069199,4.0,2.0,314.0
2022-01-24-13:15:13.070198,4.0,2.0,314.0
2022-01-24-13:15:13.071194,1.0,8.0,314.0
2022-01-24-13:15:13.072191,0.0,0.0,314.0
2022-01-24-13:15:13.073186,7.0,5.0,314.0
2022-01-24-13:15:13.074184,7.0,5.0,314.0
2022-01-24-13:15:13.075163,4.0,0.0,314.0
2022-01-24-13:15:13.076316,4.0,1.0,314.0
2022-01-24-13:15:13.076316,5.0,0.0,314.0
2022-01-24-13:15:13.077373,5.0,0.0,314.0
2022-01-24-13:15:13.078369,5.0,0.0,314.0
2022-01-24-13:15:13.079366,11.0,1.0,314.0
2022-01-24-13:15:13.080355,18.0,6.0,314.0
2022-01-24-13:15:13.081353,15.0,7.0,314.0
2022-01-24-13:15:13.082352,15.0,7.0,314.0
2022-01-24-13:15:13.083347,10.0,5.0,314.0
2022-01-24-13:15:13.084346,7.0,4.0,314.0
2022-01-24-13:15:13.085344,5.0,6.0,314.0
2022-01-24-13:15:13.086340,5.0,6.0,314.0
2022-01-24-13:15:13.087337,0.0,9.0,314.0
2022-01-24-13:15:13.088334,1.0,13.0,314.0
2022-01-24-13:15:13.089331,1.0,10.0,314.0
2022-01-24-13:15:13.090312,1.0,10.0,314.0
2022-01-24-13:15:13.091326,6.0,4.0,314.0
2022-01-24-13:15:13.092276,4.0,1.0,314.0
2022-01-24-13:15:13.093323,7.0,2.0,314.0
2022-01-24-13:15:13.094330,7.0,2.0,314.0
2022-01-24-13:15:13.095316,15.0,2.0,314.0
2022-01-24-13:15:13.097310,15.0,2.0,314.0
2022-01-24-13:15:13.097310,15.0,7.0,314.0
2022-01-24-13:15:13.098306,15.0,7.0,314.0
2022-01-24-13:15:13.099303,15.0,7.0,314.0
2022-01-24-13:15:13.100302,5.0,11.0,314.0
2022-01-24-13:15:13.101301,3.0,4.0,314.0
2022-01-24-13:15:13.102296,3.0,4.0,314.0
2022-01-24-13:15:13.103293,3.0,4.0,314.0
2022-01-24-13:15:13.104244,4.0,7.0,314.0
2022-01-24-13:15:13.105510,0.0,19.0,314.0
2022-01-24-13:15:13.105510,1.0,14.0,314.0
2022-01-24-13:15:13.106565,1.0,14.0,314.0
2022-01-24-13:15:13.107564,1.0,14.0,314.0
2022-01-24-13:15:13.108541,7.0,11.0,314.0
2022-01-24-13:15:13.109561,7.0,9.0,314.0
2022-01-24-13:15:13.110555,7.0,9.0,314.0
2022-01-24-13:15:13.111552,7.0,9.0,314.0
2022-01-24-13:15:13.112549,12.0,8.0,314.0
2022-01-24-13:15:13.113548,17.0,1.0,314.0
2022-01-24-13:15:13.114828,14.0,1.0,314.0
2022-01-24-13:15:13.114828,10.0,4.0,314.0
2022-01-24-13:15:13.115884,8.0,7.0,314.0
2022-01-24-13:15:13.116884,2.0,2.0,314.0
2022-01-24-13:15:13.117879,2.0,2.0,314.0
2022-01-24-13:15:13.118875,2.0,2.0,314.0
2022-01-24-13:15:13.119872,6.0,6.0,314.0
2022-01-24-13:15:13.120869,0.0,1.0,315.0
2022-01-24-13:15:13.121869,0.0,1.0,315.0
2022-01-24-13:15:13.122865,0.0,1.0,315.0
2022-01-24-13:15:13.123863,0.0,1.0,315.0
2022-01-24-13:15:13.124860,0.0,1.0,314.0
2022-01-24-13:15:13.125849,3.0,0.0,314.0
2022-01-24-13:15:13.126846,3.0,0.0,314.0
2022-01-24-13:15:13.127843,3.0,0.0,314.0
2022-01-24-13:15:13.128795,13.0,2.0,315.0
2022-01-24-13:15:13.129790,13.0,2.0,315.0
2022-01-24-13:15:13.130834,13.0,2.0,315.0
2022-01-24-13:15:13.131812,13.0,2.0,315.0
2022-01-24-13:15:13.132782,5.0,0.0,316.0
2022-01-24-13:15:13.133808,2.0,5.0,316.0
2022-01-24-13:15:13.135776,2.0,5.0,316.0
2022-01-24-13:15:13.135776,4.0,3.0,316.0
2022-01-24-13:15:13.136799,0.0,3.0,316.0
2022-01-24-13:15:13.137793,0.0,5.0,317.0
2022-01-24-13:15:13.138789,0.0,5.0,317.0
2022-01-24-13:15:13.139788,0.0,5.0,317.0
2022-01-24-13:15:13.140784,3.0,2.0,316.0
2022-01-24-13:15:13.141775,6.0,7.0,317.0
2022-01-24-13:15:13.142879,2.0,4.0,317.0
2022-01-24-13:15:13.142879,2.0,4.0,317.0
2022-01-24-13:15:13.144282,2.0,4.0,317.0
2022-01-24-13:15:13.144282,11.0,2.0,317.0
2022-01-24-13:15:13.145332,17.0,5.0,318.0
2022-01-24-13:15:13.146326,17.0,5.0,318.0
2022-01-24-13:15:13.147326,17.0,5.0,318.0
2022-01-24-13:15:13.148322,17.0,5.0,318.0
2022-01-24-13:15:13.149319,13.0,10.0,318.0
2022-01-24-13:15:13.150316,3.0,7.0,319.0
2022-01-24-13:15:13.151277,2.0,4.0,319.0
2022-01-24-13:15:13.152313,2.0,4.0,319.0
2022-01-24-13:15:13.153311,7.0,7.0,319.0
2022-01-24-13:15:13.154305,3.0,10.0,320.0
2022-01-24-13:15:13.155283,2.0,6.0,320.0
2022-01-24-13:15:13.156278,2.0,6.0,320.0
2022-01-24-13:15:13.157278,1.0,7.0,320.0
2022-01-24-13:15:13.158280,5.0,6.0,321.0
2022-01-24-13:15:13.159271,3.0,2.0,321.0
2022-01-24-13:15:13.160242,3.0,2.0,321.0
2022-01-24-13:15:13.161266,12.0,4.0,322.0
2022-01-24-13:15:13.162266,16.0,1.0,322.0
2022-01-24-13:15:13.163262,16.0,1.0,322.0
2022-01-24-13:15:13.164258,16.0,1.0,322.0
2022-01-24-13:15:13.166277,11.0,0.0,323.0
2022-01-24-13:15:13.166277,9.0,2.0,323.0
2022-01-24-13:15:13.167223,9.0,2.0,323.0
2022-01-24-13:15:13.168221,9.0,2.0,323.0
2022-01-24-13:15:13.169269,8.0,3.0,323.0
2022-01-24-13:15:13.170268,3.0,12.0,324.0
2022-01-24-13:15:13.171263,3.0,16.0,325.0
2022-01-24-13:15:13.172210,3.0,16.0,325.0
2022-01-24-13:15:13.173260,0.0,11.0,325.0
2022-01-24-13:15:13.174260,6.0,8.0,325.0
2022-01-24-13:15:13.175202,7.0,10.0,326.0
2022-01-24-13:15:13.176254,7.0,10.0,326.0
2022-01-24-13:15:13.177242,0.0,2.0,325.0
2022-01-24-13:15:13.178241,0.0,2.0,325.0
2022-01-24-13:15:13.179239,6.0,1.0,326.0
2022-01-24-13:15:13.180199,18.0,4.0,327.0
2022-01-24-13:15:13.181235,18.0,4.0,327.0
2022-01-24-13:15:13.182231,17.0,4.0,327.0
2022-01-24-13:15:13.183228,8.0,1.0,327.0
2022-01-24-13:15:13.184227,7.0,2.0,328.0
2022-01-24-13:15:13.185226,7.0,2.0,328.0
2022-01-24-13:15:13.186219,6.0,4.0,328.0
2022-01-24-13:15:13.187218,2.0,1.0,329.0
2022-01-24-13:15:13.188215,2.0,11.0,329.0
2022-01-24-13:15:13.189212,2.0,11.0,329.0
2022-01-24-13:15:13.190209,1.0,8.0,329.0
2022-01-24-13:15:13.191206,5.0,7.0,330.0
2022-01-24-13:15:13.192157,4.0,4.0,330.0
2022-01-24-13:15:13.193205,4.0,4.0,330.0
2022-01-24-13:15:13.194197,0.0,8.0,330.0
2022-01-24-13:15:13.195181,0.0,8.0,330.0
2022-01-24-13:15:13.196146,14.0,15.0,332.0
2022-01-24-13:15:13.198187,14.0,15.0,332.0
2022-01-24-13:15:13.198187,15.0,9.0,332.0
2022-01-24-13:15:13.199163,8.0,14.0,333.0
2022-01-24-13:15:13.200163,8.0,14.0,333.0
2022-01-24-13:15:13.201158,8.0,14.0,333.0
2022-01-24-13:15:13.202182,2.0,13.0,334.0
2022-01-24-13:15:13.203176,2.0,14.0,334.0
2022-01-24-13:15:13.204174,1.0,11.0,334.0
2022-01-24-13:15:13.205122,1.0,11.0,334.0
2022-01-24-13:15:13.206170,3.0,8.0,335.0
2022-01-24-13:15:13.207163,3.0,3.0,335.0
2022-01-24-13:15:13.208170,4.0,13.0,335.0
2022-01-24-13:15:13.209112,4.0,13.0,335.0
2022-01-24-13:15:13.210155,1.0,11.0,336.0
2022-01-24-13:15:13.211154,13.0,5.0,337.0
2022-01-24-13:15:13.212150,13.0,5.0,337.0
2022-01-24-13:15:13.213129,13.0,5.0,337.0
2022-01-24-13:15:13.214124,13.0,5.0,337.0
2022-01-24-13:15:13.215121,9.0,3.0,338.0
2022-01-24-13:15:13.216120,8.0,0.0,338.0
2022-01-24-13:15:13.217091,8.0,0.0,338.0
2022-01-24-13:15:13.218089,8.0,0.0,338.0
2022-01-24-13:15:13.219112,3.0,1.0,338.0
2022-01-24-13:15:13.220082,2.0,5.0,339.0
2022-01-24-13:15:13.221080,2.0,5.0,339.0
2022-01-24-13:15:13.222077,2.0,5.0,339.0
2022-01-24-13:15:13.223075,2.0,7.0,340.0
2022-01-24-13:15:13.224071,2.0,7.0,340.0
2022-01-24-13:15:13.225093,2.0,7.0,340.0
2022-01-24-13:15:13.226080,2.0,7.0,340.0
2022-01-24-13:15:13.227064,3.0,7.0,341.0
2022-01-24-13:15:13.228061,12.0,9.0,341.0
2022-01-24-13:15:13.229084,18.0,4.0,341.0
2022-01-24-13:15:13.230065,18.0,4.0,341.0
2022-01-24-13:15:13.231078,16.0,7.0,342.0
2022-01-24-13:15:13.232078,4.0,2.0,343.0
2022-01-24-13:15:13.234070,4.0,2.0,343.0
2022-01-24-13:15:13.234070,3.0,0.0,343.0
2022-01-24-13:15:13.235070,4.0,5.0,343.0
2022-01-24-13:15:13.236065,1.0,7.0,343.0
2022-01-24-13:15:13.237083,1.0,7.0,343.0
2022-01-24-13:15:13.238034,1.0,7.0,343.0
2022-01-24-13:15:13.239057,5.0,4.0,343.0
2022-01-24-13:15:13.240033,9.0,12.0,344.0
2022-01-24-13:15:13.241052,4.0,6.0,344.0
2022-01-24-13:15:13.242054,4.0,6.0,344.0
2022-01-24-13:15:13.243021,0.0,4.0,344.0
2022-01-24-13:15:13.244043,11.0,3.0,344.0
2022-01-24-13:15:13.245016,15.0,0.0,345.0
2022-01-24-13:15:13.246014,15.0,0.0,345.0
2022-01-24-13:15:13.247050,14.0,0.0,345.0
2022-01-24-13:15:13.248009,10.0,2.0,345.0
2022-01-24-13:15:13.249006,7.0,3.0,345.0
2022-01-24-13:15:13.250008,7.0,3.0,345.0
2022-01-24-13:15:13.251026,2.0,10.0,345.0
2022-01-24-13:15:13.252022,0.0,9.0,346.0
2022-01-24-13:15:13.253021,0.0,9.0,346.0
2022-01-24-13:15:13.254016,0.0,9.0,346.0
2022-01-24-13:15:13.255013,0.0,9.0,346.0
2022-01-24-13:15:13.256012,2.0,8.0,345.0
2022-01-24-13:15:13.257008,3.0,9.0,345.0
2022-01-24-13:15:13.257986,6.0,2.0,345.0
2022-01-24-13:15:13.258978,6.0,2.0,345.0
2022-01-24-13:15:13.259975,1.0,2.0,345.0
2022-01-24-13:15:13.260973,4.0,11.0,346.0
2022-01-24-13:15:13.261970,14.0,9.0,345.0
2022-01-24-13:15:13.262993,14.0,9.0,345.0
2022-01-24-13:15:13.264989,10.0,1.0,346.0
2022-01-24-13:15:13.264989,6.0,8.0,346.0
2022-01-24-13:15:13.265978,6.0,8.0,346.0
2022-01-24-13:15:13.266983,6.0,8.0,346.0
2022-01-24-13:15:13.267980,7.0,5.0,346.0
2022-01-24-13:15:13.268977,3.0,10.0,346.0
2022-01-24-13:15:13.269973,1.0,17.0,346.0
2022-01-24-13:15:13.270972,1.0,17.0,346.0
2022-01-24-13:15:13.271976,1.0,21.0,345.0
2022-01-24-13:15:13.272941,9.0,16.0,345.0
2022-01-24-13:15:13.273939,5.0,12.0,346.0
2022-01-24-13:15:13.274936,5.0,12.0,346.0
2022-01-24-13:15:13.275933,5.0,7.0,346.0
2022-01-24-13:15:13.276931,7.0,1.0,345.0
2022-01-24-13:15:13.277929,12.0,1.0,345.0
2022-01-24-13:15:13.278974,12.0,1.0,345.0
2022-01-24-13:15:13.279956,21.0,1.0,346.0
2022-01-24-13:15:13.280921,9.0,1.0,346.0
2022-01-24-13:15:13.281917,9.0,1.0,346.0
2022-01-24-13:15:13.282914,9.0,1.0,346.0
2022-01-24-13:15:13.283937,7.0,1.0,346.0
2022-01-24-13:15:13.284935,5.0,1.0,345.0
2022-01-24-13:15:13.285940,4.0,5.0,346.0
2022-01-24-13:15:13.286903,4.0,9.0,345.0
2022-01-24-13:15:13.287928,1.0,12.0,346.0
2022-01-24-13:15:13.288923,3.0,6.0,346.0
2022-01-24-13:15:13.289920,8.0,9.0,346.0
2022-01-24-13:15:13.290920,8.0,9.0,346.0
2022-01-24-13:15:13.291890,3.0,1.0,345.0
2022-01-24-13:15:13.292915,8.0,2.0,345.0
2022-01-24-13:15:13.293909,8.0,2.0,345.0
2022-01-24-13:15:13.294906,8.0,2.0,345.0
2022-01-24-13:15:13.295906,8.0,2.0,345.0
2022-01-24-13:15:13.296878,16.0,6.0,345.0
2022-01-24-13:15:13.297875,16.0,6.0,345.0
2022-01-24-13:15:13.298899,10.0,1.0,345.0
2022-01-24-13:15:13.299893,10.0,1.0,345.0
2022-01-24-13:15:13.300865,6.0,1.0,346.0
2022-01-24-13:15:13.302861,5.0,6.0,345.0
2022-01-24-13:15:13.302861,5.0,7.0,345.0
2022-01-24-13:15:13.303858,5.0,7.0,345.0
2022-01-24-13:15:13.304857,5.0,7.0,345.0
2022-01-24-13:15:13.305853,1.0,2.0,345.0
2022-01-24-13:15:13.306849,1.0,2.0,345.0
2022-01-24-13:15:13.307847,1.0,5.0,346.0
2022-01-24-13:15:13.308872,4.0,0.0,345.0
2022-01-24-13:15:13.309867,7.0,12.0,346.0
2022-01-24-13:15:13.310839,2.0,11.0,346.0
2022-01-24-13:15:13.311863,5.0,10.0,345.0
2022-01-24-13:15:13.312859,13.0,9.0,346.0
2022-01-24-13:15:13.313856,16.0,10.0,346.0
2022-01-24-13:15:13.314829,16.0,10.0,346.0
2022-01-24-13:15:13.315827,11.0,8.0,346.0
2022-01-24-13:15:13.316824,12.0,5.0,345.0
2022-01-24-13:15:13.317822,0.0,1.0,345.0
2022-01-24-13:15:13.318819,0.0,1.0,345.0
2022-01-24-13:15:13.319836,0.0,1.0,345.0
2022-01-24-13:15:13.320815,1.0,1.0,346.0
2022-01-24-13:15:13.321835,2.0,9.0,345.0
2022-01-24-13:15:13.322809,3.0,9.0,346.0
2022-01-24-13:15:13.323806,3.0,9.0,346.0
2022-01-24-13:15:13.324803,7.0,7.0,345.0
2022-01-24-13:15:13.325800,7.0,1.0,345.0
2022-01-24-13:15:13.326822,7.0,1.0,345.0
2022-01-24-13:15:13.327795,7.0,1.0,345.0
2022-01-24-13:15:13.328818,15.0,0.0,345.0
2022-01-24-13:15:13.329813,15.0,3.0,345.0
2022-01-24-13:15:13.330814,15.0,3.0,345.0
2022-01-24-13:15:13.331783,15.0,3.0,345.0
2022-01-24-13:15:13.332807,15.0,3.0,345.0
2022-01-24-13:15:13.333806,2.0,11.0,344.0
2022-01-24-13:15:13.334804,3.0,2.0,345.0
2022-01-24-13:15:13.335799,3.0,2.0,345.0
2022-01-24-13:15:13.337792,3.0,2.0,345.0
2022-01-24-13:15:13.337792,1.0,7.0,344.0
2022-01-24-13:15:13.338810,2.0,2.0,344.0
2022-01-24-13:15:13.339763,2.0,2.0,344.0
2022-01-24-13:15:13.340786,2.0,2.0,344.0
2022-01-24-13:15:13.341757,4.0,7.0,344.0
2022-01-24-13:15:13.342777,8.0,4.0,344.0
2022-01-24-13:15:13.343778,8.0,4.0,344.0
2022-01-24-13:15:13.344773,8.0,4.0,344.0
2022-01-24-13:15:13.345746,6.0,5.0,344.0
2022-01-24-13:15:13.346746,15.0,14.0,344.0
2022-01-24-13:15:13.347742,15.0,14.0,344.0
2022-01-24-13:15:13.348737,15.0,14.0,344.0
2022-01-24-13:15:13.349735,14.0,3.0,343.0
2022-01-24-13:15:13.350738,11.0,3.0,343.0
2022-01-24-13:15:13.351756,5.0,2.0,343.0
2022-01-24-13:15:13.352754,5.0,2.0,343.0
2022-01-24-13:15:13.353754,5.0,6.0,343.0
2022-01-24-13:15:13.354748,0.0,4.0,343.0
2022-01-24-13:15:13.355744,0.0,4.0,342.0
2022-01-24-13:15:13.356743,0.0,4.0,342.0
2022-01-24-13:15:13.357741,3.0,5.0,342.0
2022-01-24-13:15:13.358741,3.0,4.0,342.0
2022-01-24-13:15:13.359710,1.0,5.0,342.0
2022-01-24-13:15:13.360706,1.0,5.0,342.0
2022-01-24-13:15:13.361704,8.0,5.0,342.0
2022-01-24-13:15:13.362702,18.0,1.0,342.0
2022-01-24-13:15:13.363699,18.0,1.0,342.0
2022-01-24-13:15:13.364696,18.0,1.0,342.0
2022-01-24-13:15:13.365694,13.0,2.0,342.0
2022-01-24-13:15:13.366692,12.0,1.0,342.0
2022-01-24-13:15:13.367689,3.0,5.0,342.0
2022-01-24-13:15:13.369683,3.0,5.0,342.0
2022-01-24-13:15:13.369683,2.0,3.0,342.0
2022-01-24-13:15:13.370680,0.0,4.0,341.0
2022-01-24-13:15:13.371677,1.0,8.0,342.0
2022-01-24-13:15:13.372675,0.0,11.0,341.0
2022-01-24-13:15:13.373672,0.0,11.0,341.0
2022-01-24-13:15:13.374671,2.0,8.0,341.0
2022-01-24-13:15:13.375666,4.0,2.0,341.0
2022-01-24-13:15:13.376665,4.0,2.0,341.0
2022-01-24-13:15:13.377662,4.0,2.0,341.0
2022-01-24-13:15:13.378658,5.0,2.0,341.0
2022-01-24-13:15:13.379681,17.0,0.0,340.0
2022-01-24-13:15:13.380683,17.0,0.0,340.0
2022-01-24-13:15:13.381674,17.0,0.0,340.0
2022-01-24-13:15:13.382672,12.0,0.0,341.0
2022-01-24-13:15:13.383671,8.0,4.0,341.0
2022-01-24-13:15:13.384642,8.0,4.0,341.0
2022-01-24-13:15:13.385640,8.0,4.0,341.0
2022-01-24-13:15:13.386637,2.0,7.0,340.0
2022-01-24-13:15:13.387635,2.0,7.0,340.0
2022-01-24-13:15:13.388632,2.0,7.0,340.0
2022-01-24-13:15:13.389630,2.0,7.0,340.0
2022-01-24-13:15:13.390627,4.0,5.0,340.0
2022-01-24-13:15:13.391623,6.0,6.0,340.0
2022-01-24-13:15:13.392621,3.0,5.0,340.0
2022-01-24-13:15:13.393620,3.0,6.0,340.0
2022-01-24-13:15:13.394617,7.0,6.0,340.0
2022-01-24-13:15:13.395612,7.0,6.0,340.0
2022-01-24-13:15:13.396610,16.0,9.0,340.0
2022-01-24-13:15:13.397607,16.0,9.0,340.0
2022-01-24-13:15:13.398605,13.0,4.0,341.0
2022-01-24-13:15:13.399602,6.0,6.0,340.0
2022-01-24-13:15:13.400599,6.0,6.0,340.0
2022-01-24-13:15:13.401597,6.0,6.0,340.0
2022-01-24-13:15:13.402595,3.0,6.0,340.0
2022-01-24-13:15:13.403593,1.0,3.0,340.0
2022-01-24-13:15:13.405602,1.0,3.0,340.0
2022-01-24-13:15:13.405602,0.0,7.0,340.0
2022-01-24-13:15:13.406583,5.0,4.0,340.0
2022-01-24-13:15:13.407581,1.0,5.0,341.0
2022-01-24-13:15:13.408578,1.0,5.0,341.0
2022-01-24-13:15:13.409576,1.0,5.0,341.0
2022-01-24-13:15:13.410600,1.0,3.0,340.0
2022-01-24-13:15:13.411585,9.0,0.0,340.0
2022-01-24-13:15:13.412593,18.0,2.0,340.0
2022-01-24-13:15:13.413589,18.0,2.0,340.0
2022-01-24-13:15:13.414562,18.0,2.0,340.0
2022-01-24-13:15:13.415558,10.0,6.0,340.0
2022-01-24-13:15:13.416581,4.0,3.0,340.0
2022-01-24-13:15:13.417578,4.0,3.0,340.0
2022-01-24-13:15:13.418587,4.0,3.0,340.0
2022-01-24-13:15:13.419582,4.0,0.0,341.0
2022-01-24-13:15:13.420546,2.0,15.0,340.0
2022-01-24-13:15:13.421568,2.0,15.0,340.0
2022-01-24-13:15:13.422565,2.0,15.0,340.0
2022-01-24-13:15:13.423539,1.0,3.0,340.0
2022-01-24-13:15:13.424537,1.0,3.0,340.0
2022-01-24-13:15:13.425534,1.0,3.0,340.0
2022-01-24-13:15:13.426530,1.0,3.0,340.0
2022-01-24-13:15:13.427527,1.0,1.0,340.0
2022-01-24-13:15:13.428526,17.0,3.0,340.0
2022-01-24-13:15:13.429522,17.0,3.0,340.0
2022-01-24-13:15:13.430520,17.0,3.0,340.0
2022-01-24-13:15:13.431518,17.0,6.0,340.0
2022-01-24-13:15:13.432515,5.0,18.0,341.0
2022-01-24-13:15:13.433513,5.0,18.0,341.0
2022-01-24-13:15:13.434510,5.0,18.0,341.0
2022-01-24-13:15:13.435507,4.0,26.0,340.0
2022-01-24-13:15:13.437502,1.0,30.0,341.0
2022-01-24-13:15:13.437502,3.0,18.0,340.0
2022-01-24-13:15:13.438498,3.0,18.0,340.0
2022-01-24-13:15:13.439531,4.0,14.0,341.0
2022-01-24-13:15:13.440493,4.0,1.0,340.0
2022-01-24-13:15:13.441524,6.0,2.0,340.0
2022-01-24-13:15:13.442490,1.0,2.0,341.0
2022-01-24-13:15:13.443519,6.0,1.0,340.0
2022-01-24-13:15:13.444516,15.0,1.0,340.0
2022-01-24-13:15:13.445512,16.0,3.0,340.0
2022-01-24-13:15:13.446478,16.0,3.0,340.0
2022-01-24-13:15:13.447474,16.0,7.0,340.0
2022-01-24-13:15:13.448471,13.0,7.0,340.0
2022-01-24-13:15:13.449493,8.0,7.0,340.0
2022-01-24-13:15:13.450466,4.0,4.0,340.0
2022-01-24-13:15:13.451489,4.0,4.0,340.0
2022-01-24-13:15:13.452461,2.0,6.0,340.0
2022-01-24-13:15:13.453459,4.0,11.0,340.0
2022-01-24-13:15:13.454480,4.0,11.0,340.0
2022-01-24-13:15:13.455494,4.0,11.0,340.0
2022-01-24-13:15:13.456451,6.0,5.0,340.0
2022-01-24-13:15:13.457448,1.0,1.0,340.0
2022-01-24-13:15:13.458444,1.0,1.0,340.0
2022-01-24-13:15:13.459443,1.0,1.0,340.0
2022-01-24-13:15:13.460467,9.0,1.0,341.0
2022-01-24-13:15:13.461461,9.0,1.0,340.0
2022-01-24-13:15:13.462458,12.0,4.0,340.0
2022-01-24-13:15:13.463436,14.0,0.0,341.0
2022-01-24-13:15:13.464474,13.0,2.0,340.0
2022-01-24-13:15:13.465443,6.0,8.0,340.0
2022-01-24-13:15:13.466424,6.0,8.0,340.0
2022-01-24-13:15:13.467456,6.0,8.0,340.0
2022-01-24-13:15:13.468464,5.0,10.0,340.0
2022-01-24-13:15:13.469462,1.0,15.0,340.0
2022-01-24-13:15:13.470459,1.0,18.0,341.0
2022-01-24-13:15:13.472453,5.0,14.0,340.0
2022-01-24-13:15:13.472453,5.0,14.0,340.0
2022-01-24-13:15:13.473458,3.0,10.0,340.0
2022-01-24-13:15:13.474450,10.0,11.0,340.0
2022-01-24-13:15:13.475399,4.0,4.0,340.0
2022-01-24-13:15:13.476442,1.0,1.0,341.0
2022-01-24-13:15:13.477440,8.0,11.0,341.0
2022-01-24-13:15:13.478436,20.0,8.0,340.0
2022-01-24-13:15:13.479402,20.0,8.0,340.0
2022-01-24-13:15:13.480431,20.0,2.0,340.0
2022-01-24-13:15:13.481428,15.0,1.0,340.0
2022-01-24-13:15:13.482427,9.0,2.0,340.0
2022-01-24-13:15:13.483423,9.0,2.0,340.0
2022-01-24-13:15:13.484420,3.0,5.0,341.0
2022-01-24-13:15:13.485417,2.0,9.0,340.0
2022-01-24-13:15:13.486415,0.0,11.0,340.0
2022-01-24-13:15:13.487412,0.0,11.0,340.0
2022-01-24-13:15:13.488410,2.0,11.0,340.0
2022-01-24-13:15:13.489407,6.0,3.0,340.0
2022-01-24-13:15:13.490406,3.0,0.0,340.0
2022-01-24-13:15:13.491401,3.0,0.0,340.0
2022-01-24-13:15:13.492354,3.0,0.0,340.0
2022-01-24-13:15:13.493397,1.0,1.0,341.0
2022-01-24-13:15:13.494393,9.0,3.0,341.0
2022-01-24-13:15:13.495391,16.0,8.0,340.0
2022-01-24-13:15:13.496389,16.0,8.0,340.0
2022-01-24-13:15:13.497387,15.0,7.0,341.0
2022-01-24-13:15:13.498385,12.0,4.0,341.0
2022-01-24-13:15:13.499447,9.0,11.0,340.0
2022-01-24-13:15:13.499447,9.0,11.0,340.0
2022-01-24-13:15:13.500480,9.0,11.0,340.0
2022-01-24-13:15:13.501479,5.0,15.0,341.0
2022-01-24-13:15:13.502821,4.0,8.0,340.0
2022-01-24-13:15:13.503868,5.0,3.0,341.0
2022-01-24-13:15:13.503868,1.0,6.0,341.0
2022-01-24-13:15:13.504819,7.0,11.0,341.0
2022-01-24-13:15:13.505860,7.0,11.0,341.0
2022-01-24-13:15:13.506858,7.0,11.0,341.0
2022-01-24-13:15:13.507842,7.0,11.0,341.0
2022-01-24-13:15:13.508808,7.0,11.0,341.0
2022-01-24-13:15:13.509849,9.0,25.0,340.0
2022-01-24-13:15:13.510846,9.0,25.0,340.0
2022-01-24-13:15:13.511847,9.0,25.0,340.0
2022-01-24-13:15:13.512843,9.0,25.0,340.0
2022-01-24-13:15:13.513840,14.0,13.0,340.0
2022-01-24-13:15:13.514842,14.0,4.0,341.0
2022-01-24-13:15:13.515834,10.0,1.0,341.0
2022-01-24-13:15:13.516832,10.0,1.0,341.0
2022-01-24-13:15:13.517828,9.0,4.0,340.0
2022-01-24-13:15:13.518825,3.0,1.0,340.0
2022-01-24-13:15:13.519823,1.0,5.0,340.0
2022-01-24-13:15:13.520819,1.0,5.0,340.0
2022-01-24-13:15:13.521818,1.0,1.0,341.0
2022-01-24-13:15:13.523041,11.0,2.0,340.0
2022-01-24-13:15:13.523041,11.0,2.0,340.0
2022-01-24-13:15:13.524067,11.0,2.0,340.0
2022-01-24-13:15:13.525064,11.0,2.0,340.0
2022-01-24-13:15:13.526060,4.0,0.0,341.0
2022-01-24-13:15:13.527034,9.0,2.0,341.0
2022-01-24-13:15:13.528060,9.0,2.0,341.0
2022-01-24-13:15:13.529028,9.0,2.0,341.0
2022-01-24-13:15:13.530026,20.0,8.0,341.0
2022-01-24-13:15:13.531023,8.0,1.0,340.0
2022-01-24-13:15:13.532044,8.0,1.0,340.0
2022-01-24-13:15:13.533043,8.0,1.0,340.0
2022-01-24-13:15:13.534039,11.0,3.0,340.0
2022-01-24-13:15:13.535036,5.0,9.0,341.0
2022-01-24-13:15:13.536022,2.0,5.0,341.0
2022-01-24-13:15:13.537031,2.0,5.0,341.0
2022-01-24-13:15:13.538028,2.0,6.0,340.0
2022-01-24-13:15:13.540023,9.0,8.0,341.0
2022-01-24-13:15:13.540023,9.0,8.0,341.0
2022-01-24-13:15:13.541021,9.0,8.0,341.0
2022-01-24-13:15:13.541994,0.0,3.0,341.0
2022-01-24-13:15:13.542991,8.0,4.0,340.0
2022-01-24-13:15:13.544019,8.0,4.0,340.0
2022-01-24-13:15:13.544985,8.0,4.0,340.0
2022-01-24-13:15:13.545983,16.0,6.0,340.0
2022-01-24-13:15:13.547007,12.0,4.0,340.0
2022-01-24-13:15:13.548001,12.0,4.0,340.0
2022-01-24-13:15:13.549000,12.0,4.0,340.0
2022-01-24-13:15:13.549996,5.0,4.0,341.0
2022-01-24-13:15:13.550993,4.0,12.0,341.0
2022-01-24-13:15:13.551991,4.0,12.0,341.0
2022-01-24-13:15:13.552988,4.0,12.0,341.0
2022-01-24-13:15:13.553985,3.0,6.0,341.0
2022-01-24-13:15:13.554984,2.0,12.0,341.0
2022-01-24-13:15:13.555980,7.0,3.0,340.0
2022-01-24-13:15:13.556979,7.0,3.0,340.0
2022-01-24-13:15:13.557974,7.0,3.0,340.0
2022-01-24-13:15:13.558949,5.0,1.0,341.0
2022-01-24-13:15:13.559970,1.0,0.0,340.0
2022-01-24-13:15:13.560966,7.0,0.0,340.0
2022-01-24-13:15:13.561964,7.0,0.0,340.0
2022-01-24-13:15:13.562962,13.0,3.0,340.0
2022-01-24-13:15:13.563934,16.0,3.0,341.0
2022-01-24-13:15:13.564958,14.0,1.0,340.0
2022-01-24-13:15:13.565954,14.0,1.0,340.0
2022-01-24-13:15:13.566950,10.0,1.0,341.0
2022-01-24-13:15:13.567954,3.0,2.0,340.0
2022-01-24-13:15:13.568945,3.0,6.0,340.0
2022-01-24-13:15:13.569943,3.0,6.0,340.0
2022-01-24-13:15:13.571937,2.0,4.0,340.0
2022-01-24-13:15:13.571937,2.0,4.0,340.0
2022-01-24-13:15:13.572936,2.0,4.0,340.0
2022-01-24-13:15:13.573934,2.0,4.0,340.0
2022-01-24-13:15:13.574930,5.0,6.0,340.0
2022-01-24-13:15:13.575929,1.0,2.0,341.0
2022-01-24-13:15:13.576925,6.0,5.0,341.0
2022-01-24-13:15:13.577925,6.0,5.0,341.0
2022-01-24-13:15:13.578920,8.0,6.0,341.0
2022-01-24-13:15:13.579917,22.0,3.0,341.0
2022-01-24-13:15:13.580915,15.0,7.0,341.0
2022-01-24-13:15:13.581914,15.0,7.0,341.0
2022-01-24-13:15:13.582909,10.0,2.0,341.0
2022-01-24-13:15:13.583907,6.0,5.0,341.0
2022-01-24-13:15:13.584903,3.0,2.0,341.0
2022-01-24-13:15:13.585900,3.0,2.0,341.0
2022-01-24-13:15:13.586899,2.0,5.0,341.0
2022-01-24-13:15:13.587896,2.0,5.0,341.0
2022-01-24-13:15:13.588893,8.0,24.0,341.0
2022-01-24-13:15:13.589889,8.0,24.0,341.0
2022-01-24-13:15:13.590886,12.0,20.0,341.0
2022-01-24-13:15:13.591885,2.0,8.0,340.0
2022-01-24-13:15:13.592882,8.0,1.0,340.0
2022-01-24-13:15:13.593878,8.0,1.0,340.0
2022-01-24-13:15:13.594851,8.0,1.0,340.0
2022-01-24-13:15:13.595873,8.0,1.0,341.0
2022-01-24-13:15:13.596872,20.0,15.0,340.0
2022-01-24-13:15:13.597868,15.0,17.0,341.0
2022-01-24-13:15:13.598865,15.0,17.0,341.0
2022-01-24-13:15:13.599863,13.0,9.0,341.0
2022-01-24-13:15:13.600860,4.0,1.0,341.0
2022-01-24-13:15:13.601833,5.0,3.0,340.0
2022-01-24-13:15:13.602855,5.0,3.0,340.0
2022-01-24-13:15:13.603827,0.0,3.0,341.0
2022-01-24-13:15:13.604825,0.0,11.0,341.0
2022-01-24-13:15:13.605823,1.0,11.0,340.0
2022-01-24-13:15:13.606818,1.0,11.0,340.0
2022-01-24-13:15:13.607817,5.0,11.0,340.0
2022-01-24-13:15:13.609811,6.0,14.0,341.0
2022-01-24-13:15:13.609811,1.0,9.0,341.0
2022-01-24-13:15:13.610810,5.0,8.0,341.0
2022-01-24-13:15:13.611833,18.0,1.0,341.0
2022-01-24-13:15:13.612831,20.0,8.0,340.0
2022-01-24-13:15:13.613826,20.0,8.0,340.0
2022-01-24-13:15:13.614823,20.0,8.0,340.0
2022-01-24-13:15:13.615795,13.0,3.0,340.0
2022-01-24-13:15:13.616818,5.0,6.0,340.0
2022-01-24-13:15:13.617818,4.0,3.0,341.0
2022-01-24-13:15:13.618815,4.0,3.0,341.0
2022-01-24-13:15:13.619809,5.0,0.0,340.0
2022-01-24-13:15:13.620783,1.0,13.0,341.0
2022-01-24-13:15:13.621805,1.0,13.0,341.0
2022-01-24-13:15:13.622801,1.0,13.0,341.0
2022-01-24-13:15:13.623800,7.0,12.0,341.0
2022-01-24-13:15:13.624796,3.0,2.0,340.0
2022-01-24-13:15:13.625770,3.0,2.0,340.0
2022-01-24-13:15:13.626793,3.0,2.0,340.0
2022-01-24-13:15:13.627787,5.0,1.0,341.0
2022-01-24-13:15:13.628787,16.0,1.0,340.0
2022-01-24-13:15:13.629782,18.0,4.0,340.0
2022-01-24-13:15:13.630780,18.0,4.0,340.0
2022-01-24-13:15:13.631778,18.0,4.0,340.0
2022-01-24-13:15:13.632775,13.0,5.0,340.0
2022-01-24-13:15:13.633772,8.0,4.0,341.0
2022-01-24-13:15:13.634770,8.0,4.0,341.0
2022-01-24-13:15:13.635766,8.0,4.0,341.0
2022-01-24-13:15:13.636739,5.0,2.0,340.0
2022-01-24-13:15:13.637738,4.0,5.0,340.0
2022-01-24-13:15:13.638735,0.0,11.0,340.0
2022-01-24-13:15:13.639732,0.0,11.0,340.0
2022-01-24-13:15:13.640755,9.0,13.0,341.0
2022-01-24-13:15:13.641754,5.0,12.0,341.0
2022-01-24-13:15:13.643746,1.0,3.0,340.0
2022-01-24-13:15:13.643746,4.0,1.0,340.0
2022-01-24-13:15:13.644744,18.0,9.0,340.0
2022-01-24-13:15:13.645741,18.0,9.0,340.0
2022-01-24-13:15:13.646712,18.0,9.0,340.0
2022-01-24-13:15:13.647741,18.0,9.0,340.0
2022-01-24-13:15:13.648733,17.0,4.0,340.0
2022-01-24-13:15:13.649737,7.0,5.0,341.0
2022-01-24-13:15:13.650727,7.0,5.0,341.0
2022-01-24-13:15:13.651724,7.0,5.0,341.0
2022-01-24-13:15:13.652727,5.0,7.0,340.0
2022-01-24-13:15:13.653718,3.0,9.0,340.0
2022-01-24-13:15:13.654716,3.0,9.0,340.0
2022-01-24-13:15:13.655714,3.0,9.0,340.0
2022-01-24-13:15:13.656710,7.0,4.0,341.0
2022-01-24-13:15:13.657701,4.0,1.0,340.0
2022-01-24-13:15:13.658704,4.0,1.0,340.0
2022-01-24-13:15:13.659704,4.0,1.0,340.0
2022-01-24-13:15:13.660702,0.0,3.0,340.0
2022-01-24-13:15:13.661698,12.0,3.0,340.0
2022-01-24-13:15:13.662694,19.0,1.0,340.0
2022-01-24-13:15:13.663694,19.0,1.0,340.0
2022-01-24-13:15:13.664689,15.0,8.0,340.0
2022-01-24-13:15:13.665687,10.0,12.0,341.0
2022-01-24-13:15:13.666684,3.0,13.0,341.0
2022-01-24-13:15:13.667683,3.0,13.0,341.0
2022-01-24-13:15:13.668680,3.0,13.0,341.0
2022-01-24-13:15:13.669676,1.0,5.0,341.0
2022-01-24-13:15:13.670673,3.0,8.0,341.0
2022-01-24-13:15:13.671671,3.0,12.0,340.0
2022-01-24-13:15:13.672667,3.0,12.0,340.0
2022-01-24-13:15:13.673640,4.0,3.0,340.0
2022-01-24-13:15:13.675659,1.0,2.0,341.0
2022-01-24-13:15:13.675659,1.0,2.0,341.0
2022-01-24-13:15:13.676659,7.0,2.0,340.0
2022-01-24-13:15:13.677654,15.0,3.0,341.0
2022-01-24-13:15:13.678652,20.0,1.0,341.0
2022-01-24-13:15:13.679650,20.0,1.0,341.0
2022-01-24-13:15:13.680646,20.0,1.0,341.0
2022-01-24-13:15:13.681644,14.0,12.0,341.0
2022-01-24-13:15:13.682617,13.0,12.0,340.0
2022-01-24-13:15:13.683613,8.0,15.0,340.0
2022-01-24-13:15:13.684612,6.0,7.0,341.0
2022-01-24-13:15:13.685610,3.0,2.0,340.0
2022-01-24-13:15:13.686607,1.0,4.0,341.0
2022-01-24-13:15:13.687629,1.0,4.0,341.0
2022-01-24-13:15:13.688626,1.0,4.0,341.0
2022-01-24-13:15:13.689598,1.0,9.0,340.0
2022-01-24-13:15:13.690621,7.0,16.0,341.0
2022-01-24-13:15:13.691592,4.0,17.0,341.0
2022-01-24-13:15:13.692591,4.0,17.0,341.0
2022-01-24-13:15:13.693618,3.0,12.0,340.0
2022-01-24-13:15:13.694609,15.0,4.0,341.0
2022-01-24-13:15:13.695607,14.0,2.0,341.0
2022-01-24-13:15:13.696604,14.0,2.0,341.0
2022-01-24-13:15:13.697601,17.0,4.0,340.0
2022-01-24-13:15:13.698599,6.0,2.0,341.0
2022-01-24-13:15:13.699572,8.0,3.0,341.0
2022-01-24-13:15:13.700784,8.0,3.0,341.0
2022-01-24-13:15:13.700784,4.0,0.0,340.0
2022-01-24-13:15:13.701821,4.0,0.0,340.0
2022-01-24-13:15:13.702814,2.0,6.0,341.0
2022-01-24-13:15:13.703811,2.0,6.0,341.0
2022-01-24-13:15:13.704776,2.0,6.0,341.0
2022-01-24-13:15:13.705809,3.0,10.0,341.0
2022-01-24-13:15:13.706802,4.0,4.0,341.0
2022-01-24-13:15:13.708779,4.0,4.0,341.0
2022-01-24-13:15:13.708779,8.0,6.0,341.0
2022-01-24-13:15:13.709821,9.0,0.0,341.0
2022-01-24-13:15:13.710804,16.0,7.0,340.0
2022-01-24-13:15:13.711802,16.0,7.0,340.0
2022-01-24-13:15:13.712809,16.0,7.0,340.0
2022-01-24-13:15:13.713806,16.0,7.0,340.0
2022-01-24-13:15:13.714806,19.0,9.0,341.0
2022-01-24-13:15:13.715802,7.0,4.0,341.0
2022-01-24-13:15:13.716800,5.0,1.0,341.0
2022-01-24-13:15:13.717799,5.0,1.0,341.0
2022-01-24-13:15:13.718793,1.0,12.0,340.0
2022-01-24-13:15:13.719791,1.0,15.0,340.0
2022-01-24-13:15:13.720788,1.0,15.0,340.0
2022-01-24-13:15:13.721791,1.0,15.0,340.0
2022-01-24-13:15:13.723396,1.0,12.0,341.0
2022-01-24-13:15:13.723396,1.0,9.0,340.0
2022-01-24-13:15:13.724395,1.0,9.0,340.0
2022-01-24-13:15:13.725419,1.0,9.0,340.0
2022-01-24-13:15:13.726418,2.0,10.0,340.0
2022-01-24-13:15:13.727434,4.0,4.0,340.0
2022-01-24-13:15:13.728431,8.0,1.0,340.0
2022-01-24-13:15:13.729430,13.0,6.0,341.0
2022-01-24-13:15:13.730424,16.0,4.0,341.0
2022-01-24-13:15:13.731422,9.0,2.0,341.0
2022-01-24-13:15:13.732421,10.0,2.0,341.0
2022-01-24-13:15:13.733546,10.0,2.0,341.0
2022-01-24-13:15:13.733546,8.0,0.0,340.0
2022-01-24-13:15:13.734698,1.0,11.0,341.0
2022-01-24-13:15:13.734698,1.0,11.0,341.0
2022-01-24-13:15:13.735741,1.0,11.0,341.0
2022-01-24-13:15:13.736739,1.0,11.0,341.0
2022-01-24-13:15:13.737896,1.0,11.0,341.0
2022-01-24-13:15:13.737896,1.0,15.0,340.0
2022-01-24-13:15:13.738948,7.0,9.0,340.0
2022-01-24-13:15:13.739946,4.0,7.0,341.0
2022-01-24-13:15:13.740943,4.0,7.0,341.0
2022-01-24-13:15:13.742939,4.0,7.0,341.0
2022-01-24-13:15:13.742939,1.0,1.0,340.0
2022-01-24-13:15:13.743938,6.0,12.0,341.0
2022-01-24-13:15:13.745101,13.0,4.0,341.0
2022-01-24-13:15:13.745101,13.0,4.0,341.0
2022-01-24-13:15:13.746138,13.0,4.0,341.0
2022-01-24-13:15:13.747132,16.0,8.0,340.0
2022-01-24-13:15:13.748130,13.0,7.0,340.0
2022-01-24-13:15:13.749178,8.0,12.0,340.0
2022-01-24-13:15:13.749178,8.0,12.0,340.0
2022-01-24-13:15:13.750205,8.0,12.0,340.0
2022-01-24-13:15:13.751203,6.0,8.0,341.0
2022-01-24-13:15:13.752199,2.0,17.0,340.0
2022-01-24-13:15:13.753199,2.0,17.0,340.0
2022-01-24-13:15:13.754360,2.0,17.0,340.0
2022-01-24-13:15:13.754360,4.0,25.0,341.0
2022-01-24-13:15:13.755397,4.0,11.0,341.0
2022-01-24-13:15:13.756390,4.0,6.0,340.0
2022-01-24-13:15:13.757389,4.0,6.0,340.0
2022-01-24-13:15:13.758384,4.0,6.0,340.0
2022-01-24-13:15:13.759383,3.0,2.0,340.0
2022-01-24-13:15:13.760381,11.0,5.0,341.0
2022-01-24-13:15:13.761378,11.0,5.0,341.0
2022-01-24-13:15:13.762381,11.0,5.0,341.0
2022-01-24-13:15:13.763367,17.0,9.0,340.0
2022-01-24-13:15:13.764361,15.0,2.0,341.0
2022-01-24-13:15:13.765360,13.0,5.0,341.0
2022-01-24-13:15:13.766355,13.0,5.0,341.0
2022-01-24-13:15:13.767353,6.0,2.0,341.0
2022-01-24-13:15:13.768351,0.0,3.0,341.0
2022-01-24-13:15:13.769353,2.0,10.0,341.0
2022-01-24-13:15:13.770320,2.0,10.0,341.0
2022-01-24-13:15:13.771345,3.0,10.0,340.0
2022-01-24-13:15:13.772339,2.0,6.0,341.0
2022-01-24-13:15:13.773338,11.0,6.0,341.0
2022-01-24-13:15:13.774311,11.0,6.0,341.0
2022-01-24-13:15:13.775332,4.0,1.0,341.0
2022-01-24-13:15:13.776329,13.0,1.0,340.0
2022-01-24-13:15:13.777327,13.0,1.0,340.0
2022-01-24-13:15:13.778323,13.0,1.0,340.0
2022-01-24-13:15:13.780339,15.0,6.0,341.0
2022-01-24-13:15:13.780339,13.0,3.0,340.0
2022-01-24-13:15:13.781342,13.0,3.0,340.0
2022-01-24-13:15:13.782334,13.0,3.0,340.0
2022-01-24-13:15:13.783331,13.0,3.0,340.0
2022-01-24-13:15:13.784329,6.0,3.0,341.0
2022-01-24-13:15:13.785327,0.0,1.0,341.0
2022-01-24-13:15:13.786324,2.0,2.0,341.0
2022-01-24-13:15:13.787324,2.0,2.0,341.0
2022-01-24-13:15:13.788319,0.0,11.0,341.0
2022-01-24-13:15:13.789315,2.0,2.0,340.0
2022-01-24-13:15:13.790319,5.0,1.0,341.0
2022-01-24-13:15:13.791309,5.0,1.0,341.0
2022-01-24-13:15:13.792307,5.0,6.0,341.0
2022-01-24-13:15:13.793259,2.0,8.0,340.0
2022-01-24-13:15:13.794256,11.0,8.0,341.0
2022-01-24-13:15:13.795281,11.0,8.0,341.0
2022-01-24-13:15:13.796275,16.0,13.0,340.0
2022-01-24-13:15:13.797367,10.0,15.0,341.0
2022-01-24-13:15:13.797551,10.0,15.0,341.0
2022-01-24-13:15:13.797551,10.0,15.0,341.0
2022-01-24-13:15:13.798584,10.0,15.0,341.0
2022-01-24-13:15:13.799581,10.0,15.0,341.0
2022-01-24-13:15:13.800581,8.0,8.0,341.0
2022-01-24-13:15:13.801576,1.0,5.0,341.0
2022-01-24-13:15:13.802574,3.0,2.0,341.0
2022-01-24-13:15:13.803574,3.0,2.0,341.0
2022-01-24-13:15:13.804568,1.0,7.0,341.0
2022-01-24-13:15:13.805558,3.0,10.0,341.0
2022-01-24-13:15:13.806554,4.0,6.0,341.0
2022-01-24-13:15:13.807552,4.0,6.0,341.0
2022-01-24-13:15:13.808530,7.0,6.0,341.0
2022-01-24-13:15:13.809545,7.0,6.0,341.0
2022-01-24-13:15:13.810544,7.0,6.0,341.0
2022-01-24-13:15:13.811539,7.0,6.0,341.0
2022-01-24-13:15:13.812538,10.0,4.0,341.0
2022-01-24-13:15:13.814553,13.0,3.0,341.0
2022-01-24-13:15:13.814553,13.0,3.0,341.0
2022-01-24-13:15:13.815551,13.0,3.0,341.0
2022-01-24-13:15:13.816551,9.0,2.0,341.0
2022-01-24-13:15:13.817548,7.0,5.0,341.0
2022-01-24-13:15:13.818544,6.0,9.0,340.0
2022-01-24-13:15:13.819494,6.0,9.0,340.0
2022-01-24-13:15:13.820538,2.0,12.0,341.0
2022-01-24-13:15:13.821535,1.0,10.0,341.0
2022-01-24-13:15:13.822532,4.0,9.0,341.0
2022-01-24-13:15:13.823484,4.0,9.0,341.0
2022-01-24-13:15:13.824526,1.0,6.0,341.0
2022-01-24-13:15:13.824526,5.0,3.0,341.0
2022-01-24-13:15:13.825581,5.0,3.0,341.0
2022-01-24-13:15:13.826571,5.0,3.0,341.0
2022-01-24-13:15:13.827561,5.0,3.0,341.0
2022-01-24-13:15:13.828572,11.0,5.0,340.0
2022-01-24-13:15:13.829572,14.0,3.0,341.0
2022-01-24-13:15:13.830567,14.0,3.0,341.0
2022-01-24-13:15:13.831567,14.0,3.0,341.0
2022-01-24-13:15:13.832567,10.0,0.0,341.0
2022-01-24-13:15:13.833559,3.0,3.0,341.0
2022-01-24-13:15:13.834556,1.0,8.0,341.0
2022-01-24-13:15:13.835553,1.0,8.0,341.0
2022-01-24-13:15:13.836552,1.0,8.0,341.0
2022-01-24-13:15:13.837551,2.0,0.0,340.0
2022-01-24-13:15:13.838546,1.0,0.0,340.0
2022-01-24-13:15:13.839543,2.0,7.0,341.0
2022-01-24-13:15:13.840520,2.0,7.0,341.0
2022-01-24-13:15:13.841517,5.0,8.0,341.0
2022-01-24-13:15:13.842484,2.0,7.0,340.0
2022-01-24-13:15:13.843479,5.0,4.0,341.0
2022-01-24-13:15:13.844510,5.0,4.0,341.0
2022-01-24-13:15:13.845501,5.0,2.0,340.0
2022-01-24-13:15:13.847581,16.0,2.0,341.0
2022-01-24-13:15:13.847581,16.0,2.0,341.0
2022-01-24-13:15:13.848813,16.0,2.0,341.0
2022-01-24-13:15:13.848813,16.0,4.0,340.0
2022-01-24-13:15:13.849867,7.0,0.0,341.0
2022-01-24-13:15:13.850865,4.0,4.0,340.0
2022-01-24-13:15:13.851869,4.0,4.0,340.0
2022-01-24-13:15:13.852860,4.0,4.0,340.0
2022-01-24-13:15:13.853849,1.0,12.0,340.0
2022-01-24-13:15:13.854847,4.0,17.0,341.0
2022-01-24-13:15:13.855798,3.0,13.0,340.0
2022-01-24-13:15:13.856795,3.0,13.0,340.0
2022-01-24-13:15:13.857826,5.0,2.0,340.0
2022-01-24-13:15:13.858843,0.0,0.0,341.0
2022-01-24-13:15:13.859841,0.0,0.0,341.0
2022-01-24-13:15:13.860838,0.0,0.0,341.0
2022-01-24-13:15:13.861836,7.0,4.0,341.0
2022-01-24-13:15:13.862833,18.0,3.0,340.0
2022-01-24-13:15:13.863833,18.0,3.0,340.0
2022-01-24-13:15:13.864828,18.0,3.0,340.0
2022-01-24-13:15:13.865817,16.0,6.0,341.0
2022-01-24-13:15:13.866814,10.0,6.0,341.0
2022-01-24-13:15:13.867812,2.0,7.0,340.0
2022-01-24-13:15:13.868809,2.0,7.0,340.0
2022-01-24-13:15:13.869807,1.0,8.0,341.0
2022-01-24-13:15:13.870807,2.0,3.0,341.0
2022-01-24-13:15:13.871782,2.0,0.0,341.0
2022-01-24-13:15:13.872752,2.0,0.0,341.0
2022-01-24-13:15:13.873776,0.0,4.0,340.0
2022-01-24-13:15:13.874771,8.0,7.0,340.0
2022-01-24-13:15:13.875744,1.0,4.0,341.0
2022-01-24-13:15:13.876742,1.0,4.0,341.0
2022-01-24-13:15:13.877763,6.0,10.0,341.0
2022-01-24-13:15:13.878761,15.0,14.0,341.0
2022-01-24-13:15:13.879762,16.0,11.0,341.0
2022-01-24-13:15:13.881774,16.0,11.0,341.0
2022-01-24-13:15:13.881774,10.0,3.0,341.0
2022-01-24-13:15:13.882771,4.0,3.0,341.0
2022-01-24-13:15:13.883768,4.0,3.0,341.0
2022-01-24-13:15:13.884770,4.0,3.0,341.0
2022-01-24-13:15:13.885764,4.0,3.0,341.0
2022-01-24-13:15:13.886761,2.0,1.0,341.0
2022-01-24-13:15:13.887761,2.0,1.0,340.0
2022-01-24-13:15:13.888756,3.0,1.0,341.0
2022-01-24-13:15:13.889753,3.0,1.0,341.0
2022-01-24-13:15:13.890750,5.0,2.0,340.0
2022-01-24-13:15:13.891748,0.0,9.0,340.0
2022-01-24-13:15:13.892726,3.0,5.0,341.0
2022-01-24-13:15:13.893743,3.0,5.0,341.0
2022-01-24-13:15:13.894740,9.0,1.0,341.0
2022-01-24-13:15:13.895740,14.0,2.0,340.0
2022-01-24-13:15:13.896734,14.0,2.0,340.0
2022-01-24-13:15:13.897732,11.0,10.0,341.0
2022-01-24-13:15:13.898729,11.0,10.0,341.0
2022-01-24-13:15:13.899729,10.0,11.0,341.0
2022-01-24-13:15:13.900833,6.0,4.0,340.0
2022-01-24-13:15:13.900833,6.0,4.0,340.0
2022-01-24-13:15:13.901888,6.0,4.0,340.0
2022-01-24-13:15:13.902864,4.0,2.0,340.0
2022-01-24-13:15:13.903863,2.0,2.0,341.0
2022-01-24-13:15:13.904893,1.0,7.0,341.0
2022-01-24-13:15:13.905095,1.0,7.0,341.0
2022-01-24-13:15:13.905095,1.0,7.0,341.0
2022-01-24-13:15:13.906328,1.0,7.0,341.0
2022-01-24-13:15:13.906328,1.0,8.0,341.0
2022-01-24-13:15:13.907375,2.0,0.0,341.0
2022-01-24-13:15:13.908371,2.0,0.0,341.0
2022-01-24-13:15:13.909352,2.0,0.0,341.0
2022-01-24-13:15:13.910367,2.0,0.0,341.0
2022-01-24-13:15:13.911364,14.0,0.0,341.0
2022-01-24-13:15:13.912361,16.0,2.0,340.0
2022-01-24-13:15:13.913361,16.0,2.0,340.0
2022-01-24-13:15:13.915353,16.0,2.0,340.0
2022-01-24-13:15:13.915845,5.0,0.0,341.0
2022-01-24-13:15:13.915845,5.0,0.0,341.0
2022-01-24-13:15:13.916900,5.0,0.0,341.0
2022-01-24-13:15:13.917897,5.0,0.0,341.0
2022-01-24-13:15:13.918839,6.0,1.0,340.0
2022-01-24-13:15:13.919871,2.0,6.0,340.0
2022-01-24-13:15:13.920868,3.0,8.0,340.0
2022-01-24-13:15:13.921855,3.0,8.0,340.0
2022-01-24-13:15:13.923055,2.0,5.0,341.0
2022-01-24-13:15:13.923055,6.0,4.0,341.0
2022-01-24-13:15:13.924081,1.0,1.0,340.0
2022-01-24-13:15:13.925078,1.0,1.0,340.0
2022-01-24-13:15:13.926069,1.0,1.0,340.0
2022-01-24-13:15:13.927073,5.0,1.0,340.0
2022-01-24-13:15:13.928069,14.0,2.0,341.0
2022-01-24-13:15:13.929067,19.0,4.0,341.0
2022-01-24-13:15:13.930039,19.0,4.0,341.0
2022-01-24-13:15:13.931061,12.0,2.0,341.0
2022-01-24-13:15:13.932060,6.0,11.0,341.0
2022-01-24-13:15:13.933056,6.0,11.0,341.0
2022-01-24-13:15:13.934053,6.0,11.0,341.0
2022-01-24-13:15:13.935051,5.0,8.0,341.0
2022-01-24-13:15:13.936048,1.0,10.0,340.0
2022-01-24-13:15:13.937045,3.0,6.0,341.0
2022-01-24-13:15:13.938044,3.0,6.0,341.0
2022-01-24-13:15:13.939041,3.0,6.0,341.0
2022-01-24-13:15:13.940038,8.0,7.0,341.0
2022-01-24-13:15:13.941033,2.0,5.0,341.0
2022-01-24-13:15:13.942032,2.0,5.0,341.0
2022-01-24-13:15:13.943030,2.0,5.0,341.0
2022-01-24-13:15:13.944029,5.0,1.0,340.0
2022-01-24-13:15:13.945024,11.0,10.0,341.0
2022-01-24-13:15:13.946023,19.0,24.0,340.0
2022-01-24-13:15:13.947022,19.0,24.0,340.0
2022-01-24-13:15:13.948017,17.0,16.0,341.0
2022-01-24-13:15:13.949052,5.0,2.0,341.0
2022-01-24-13:15:13.950052,9.0,6.0,341.0
2022-01-24-13:15:13.950052,2.0,10.0,341.0
2022-01-24-13:15:13.951049,2.0,23.0,341.0
2022-01-24-13:15:13.952146,2.0,30.0,341.0
2022-01-24-13:15:13.952146,2.0,30.0,341.0
2022-01-24-13:15:13.953202,2.0,30.0,341.0
2022-01-24-13:15:13.954194,2.0,30.0,341.0
2022-01-24-13:15:13.955188,2.0,30.0,341.0
2022-01-24-13:15:13.956175,4.0,36.0,341.0
2022-01-24-13:15:13.957364,2.0,28.0,340.0
2022-01-24-13:15:13.957364,4.0,24.0,342.0
2022-01-24-13:15:13.958409,4.0,16.0,340.0
2022-01-24-13:15:13.959395,4.0,16.0,340.0
2022-01-24-13:15:13.960405,0.0,12.0,341.0
2022-01-24-13:15:13.961404,11.0,1.0,341.0
2022-01-24-13:15:13.962400,15.0,1.0,340.0
2022-01-24-13:15:13.963398,15.0,1.0,340.0
2022-01-24-13:15:13.964395,12.0,14.0,341.0
2022-01-24-13:15:13.965391,8.0,14.0,340.0
2022-01-24-13:15:13.966388,8.0,14.0,340.0
2022-01-24-13:15:13.967390,8.0,14.0,340.0
2022-01-24-13:15:13.968385,6.0,9.0,340.0
2022-01-24-13:15:13.969466,2.0,6.0,341.0
2022-01-24-13:15:13.969466,2.0,6.0,341.0
2022-01-24-13:15:13.970513,2.0,6.0,341.0
2022-01-24-13:15:13.971671,2.0,6.0,341.0
2022-01-24-13:15:13.971671,1.0,8.0,340.0
2022-01-24-13:15:13.972719,8.0,5.0,340.0
2022-01-24-13:15:13.973715,6.0,5.0,341.0
2022-01-24-13:15:13.974712,6.0,5.0,341.0
2022-01-24-13:15:13.975686,6.0,5.0,341.0
2022-01-24-13:15:13.976711,1.0,3.0,341.0
2022-01-24-13:15:13.977716,8.0,5.0,340.0
2022-01-24-13:15:13.978702,17.0,6.0,341.0
2022-01-24-13:15:13.979699,17.0,6.0,341.0
2022-01-24-13:15:13.980675,16.0,6.0,341.0
2022-01-24-13:15:13.981694,16.0,6.0,341.0
2022-01-24-13:15:13.982691,10.0,3.0,340.0
2022-01-24-13:15:13.984686,10.0,3.0,340.0
2022-01-24-13:15:13.984686,4.0,3.0,340.0
2022-01-24-13:15:13.985807,2.0,0.0,341.0
2022-01-24-13:15:13.985807,2.0,0.0,341.0
2022-01-24-13:15:13.986854,2.0,0.0,341.0
2022-01-24-13:15:13.987851,2.0,0.0,341.0
2022-01-24-13:15:13.989024,4.0,2.0,341.0
2022-01-24-13:15:13.989024,1.0,10.0,340.0
2022-01-24-13:15:13.990072,4.0,8.0,340.0
2022-01-24-13:15:13.991047,4.0,8.0,340.0
2022-01-24-13:15:13.992018,4.0,8.0,340.0
2022-01-24-13:15:13.993064,1.0,8.0,340.0
2022-01-24-13:15:13.994060,4.0,9.0,340.0
2022-01-24-13:15:13.995183,2.0,13.0,341.0
2022-01-24-13:15:13.995183,2.0,13.0,341.0
2022-01-24-13:15:13.996233,2.0,13.0,341.0
2022-01-24-13:15:13.997595,14.0,13.0,340.0
2022-01-24-13:15:13.997595,17.0,12.0,340.0
2022-01-24-13:15:13.998907,8.0,4.0,340.0
2022-01-24-13:15:13.998907,8.0,4.0,340.0
2022-01-24-13:15:13.999954,8.0,4.0,340.0
2022-01-24-13:15:14.000952,8.0,1.0,340.0
2022-01-24-13:15:14.002119,5.0,1.0,340.0
2022-01-24-13:15:14.002119,5.0,0.0,341.0
2022-01-24-13:15:14.003165,3.0,3.0,341.0
2022-01-24-13:15:14.004164,3.0,3.0,341.0
2022-01-24-13:15:14.005162,2.0,5.0,341.0
2022-01-24-13:15:14.006162,5.0,15.0,341.0
2022-01-24-13:15:14.007155,5.0,15.0,340.0
2022-01-24-13:15:14.008153,5.0,15.0,340.0
2022-01-24-13:15:14.009128,1.0,10.0,340.0
2022-01-24-13:15:14.010147,5.0,4.0,340.0
2022-01-24-13:15:14.011145,8.0,1.0,341.0
2022-01-24-13:15:14.012147,8.0,1.0,341.0
2022-01-24-13:15:14.013139,14.0,9.0,341.0
2022-01-24-13:15:14.014141,12.0,14.0,341.0
2022-01-24-13:15:14.015138,10.0,22.0,341.0
2022-01-24-13:15:14.016084,10.0,22.0,341.0
2022-01-24-13:15:14.018126,5.0,17.0,340.0
2022-01-24-13:15:14.018126,3.0,3.0,341.0
2022-01-24-13:15:14.019123,3.0,3.0,341.0
2022-01-24-13:15:14.020103,3.0,3.0,341.0
2022-01-24-13:15:14.021118,2.0,3.0,340.0
2022-01-24-13:15:14.022120,0.0,4.0,340.0
2022-01-24-13:15:14.023113,4.0,0.0,340.0
2022-01-24-13:15:14.024110,4.0,0.0,340.0
2022-01-24-13:15:14.025113,4.0,1.0,340.0
2022-01-24-13:15:14.026106,0.0,4.0,341.0
2022-01-24-13:15:14.027102,7.0,4.0,340.0
2022-01-24-13:15:14.028100,7.0,4.0,340.0
2022-01-24-13:15:14.029091,7.0,4.0,340.0
2022-01-24-13:15:14.030046,16.0,7.0,341.0
2022-01-24-13:15:14.031069,11.0,5.0,340.0
2022-01-24-13:15:14.032068,11.0,5.0,340.0
2022-01-24-13:15:14.033086,11.0,5.0,340.0
2022-01-24-13:15:14.034083,1.0,2.0,341.0
2022-01-24-13:15:14.035081,5.0,5.0,340.0
2022-01-24-13:15:14.036078,5.0,5.0,340.0
2022-01-24-13:15:14.037075,5.0,5.0,340.0
2022-01-24-13:15:14.038077,3.0,7.0,340.0
2022-01-24-13:15:14.039185,5.0,8.0,340.0
2022-01-24-13:15:14.039185,3.0,8.0,341.0
2022-01-24-13:15:14.040233,3.0,8.0,341.0
2022-01-24-13:15:14.041182,3.0,8.0,341.0
2022-01-24-13:15:14.042228,6.0,4.0,341.0
2022-01-24-13:15:14.043392,2.0,3.0,340.0
2022-01-24-13:15:14.043392,3.0,5.0,341.0
2022-01-24-13:15:14.044441,10.0,6.0,341.0
2022-01-24-13:15:14.045436,10.0,6.0,341.0
2022-01-24-13:15:14.046435,13.0,2.0,340.0
2022-01-24-13:15:14.047433,16.0,3.0,341.0
2022-01-24-13:15:14.048428,12.0,1.0,341.0
2022-01-24-13:15:14.050423,9.0,3.0,341.0
2022-01-24-13:15:14.050423,2.0,13.0,341.0
2022-01-24-13:15:14.051421,2.0,13.0,341.0
2022-01-24-13:15:14.052419,2.0,13.0,341.0
2022-01-24-13:15:14.053415,2.0,13.0,341.0
2022-01-24-13:15:14.054413,4.0,18.0,341.0
2022-01-24-13:15:14.055411,4.0,16.0,341.0
2022-01-24-13:15:14.056408,2.0,6.0,341.0
2022-01-24-13:15:14.057405,2.0,6.0,341.0
2022-01-24-13:15:14.058486,7.0,3.0,341.0
2022-01-24-13:15:14.058486,7.0,3.0,341.0
2022-01-24-13:15:14.059513,7.0,3.0,341.0
2022-01-24-13:15:14.060532,7.0,3.0,341.0
2022-01-24-13:15:14.061695,7.0,3.0,341.0
2022-01-24-13:15:14.061695,11.0,4.0,340.0
2022-01-24-13:15:14.062745,17.0,13.0,340.0
2022-01-24-13:15:14.063740,15.0,7.0,341.0
2022-01-24-13:15:14.064738,15.0,7.0,341.0
2022-01-24-13:15:14.065737,15.0,7.0,341.0
2022-01-24-13:15:14.066733,11.0,4.0,341.0
2022-01-24-13:15:14.067825,1.0,4.0,341.0
2022-01-24-13:15:14.068213,1.0,4.0,341.0
2022-01-24-13:15:14.068213,1.0,4.0,341.0
2022-01-24-13:15:14.069268,1.0,4.0,341.0
2022-01-24-13:15:14.070262,2.0,3.0,341.0
2022-01-24-13:15:14.071422,1.0,2.0,341.0
2022-01-24-13:15:14.071422,2.0,1.0,340.0
2022-01-24-13:15:14.072470,1.0,1.0,341.0
2022-01-24-13:15:14.073419,1.0,1.0,341.0
2022-01-24-13:15:14.074443,6.0,1.0,341.0
2022-01-24-13:15:14.075442,5.0,4.0,340.0
2022-01-24-13:15:14.076458,5.0,4.0,340.0
2022-01-24-13:15:14.077458,5.0,4.0,340.0
2022-01-24-13:15:14.078454,6.0,10.0,340.0
2022-01-24-13:15:14.079452,16.0,10.0,341.0
2022-01-24-13:15:14.080451,18.0,15.0,341.0
2022-01-24-13:15:14.081445,18.0,15.0,341.0
2022-01-24-13:15:14.083418,12.0,6.0,340.0
2022-01-24-13:15:14.083418,6.0,11.0,341.0
2022-01-24-13:15:14.084437,6.0,11.0,341.0
2022-01-24-13:15:14.085437,6.0,11.0,341.0
2022-01-24-13:15:14.086433,6.0,11.0,341.0
2022-01-24-13:15:14.087429,0.0,11.0,341.0
2022-01-24-13:15:14.088427,1.0,11.0,340.0
2022-01-24-13:15:14.089424,1.0,22.0,341.0
2022-01-24-13:15:14.090400,1.0,22.0,341.0
2022-01-24-13:15:14.091399,6.0,19.0,340.0
2022-01-24-13:15:14.092411,8.0,9.0,341.0
2022-01-24-13:15:14.093394,1.0,7.0,341.0
2022-01-24-13:15:14.094389,1.0,7.0,341.0
2022-01-24-13:15:14.095387,5.0,6.0,340.0
2022-01-24-13:15:14.096384,16.0,1.0,341.0
2022-01-24-13:15:14.097384,13.0,2.0,341.0
2022-01-24-13:15:14.098379,13.0,2.0,341.0
2022-01-24-13:15:14.099376,12.0,3.0,340.0
2022-01-24-13:15:14.100373,7.0,5.0,341.0
2022-01-24-13:15:14.101372,7.0,5.0,341.0
2022-01-24-13:15:14.102390,7.0,5.0,341.0
2022-01-24-13:15:14.103387,3.0,1.0,341.0
2022-01-24-13:15:14.104384,3.0,10.0,341.0
2022-01-24-13:15:14.105381,2.0,8.0,341.0
2022-01-24-13:15:14.106379,2.0,8.0,341.0
2022-01-24-13:15:14.107379,1.0,1.0,340.0
2022-01-24-13:15:14.108373,3.0,1.0,340.0
2022-01-24-13:15:14.109358,0.0,5.0,340.0
2022-01-24-13:15:14.110321,0.0,5.0,340.0
2022-01-24-13:15:14.111365,3.0,10.0,341.0
2022-01-24-13:15:14.112453,16.0,3.0,341.0
2022-01-24-13:15:14.112453,11.0,5.0,341.0
2022-01-24-13:15:14.113509,11.0,5.0,341.0
2022-01-24-13:15:14.114508,11.0,5.0,341.0
2022-01-24-13:15:14.115812,6.0,3.0,340.0
2022-01-24-13:15:14.115812,6.0,3.0,340.0
2022-01-24-13:15:14.117856,9.0,12.0,341.0
2022-01-24-13:15:14.117856,8.0,13.0,341.0
2022-01-24-13:15:14.118857,8.0,13.0,341.0
2022-01-24-13:15:14.119850,2.0,16.0,341.0
2022-01-24-13:15:14.120849,2.0,17.0,341.0
2022-01-24-13:15:14.121844,1.0,15.0,341.0
2022-01-24-13:15:14.122842,1.0,15.0,341.0
2022-01-24-13:15:14.123840,6.0,5.0,340.0
2022-01-24-13:15:14.124931,2.0,5.0,340.0
2022-01-24-13:15:14.124931,3.0,1.0,341.0
2022-01-24-13:15:14.125990,3.0,1.0,341.0
2022-01-24-13:15:14.126984,3.0,1.0,341.0
2022-01-24-13:15:14.128185,9.0,8.0,340.0
2022-01-24-13:15:14.128185,10.0,0.0,341.0
2022-01-24-13:15:14.129231,16.0,3.0,340.0
2022-01-24-13:15:14.130228,16.0,3.0,340.0
2022-01-24-13:15:14.131230,16.0,3.0,340.0
2022-01-24-13:15:14.132226,14.0,6.0,341.0
2022-01-24-13:15:14.133223,14.0,6.0,341.0
2022-01-24-13:15:14.134220,9.0,3.0,341.0
2022-01-24-13:15:14.135215,1.0,2.0,340.0
2022-01-24-13:15:14.136216,2.0,3.0,341.0
2022-01-24-13:15:14.137212,2.0,8.0,340.0
2022-01-24-13:15:14.138293,3.0,7.0,340.0
2022-01-24-13:15:14.138293,3.0,7.0,340.0
2022-01-24-13:15:14.139348,3.0,7.0,340.0
2022-01-24-13:15:14.140352,6.0,5.0,340.0
2022-01-24-13:15:14.141538,7.0,10.0,340.0
2022-01-24-13:15:14.141685,6.0,7.0,340.0
2022-01-24-13:15:14.141685,5.0,1.0,341.0
2022-01-24-13:15:14.142686,5.0,1.0,341.0
2022-01-24-13:15:14.143739,5.0,1.0,341.0
2022-01-24-13:15:14.144924,7.0,9.0,341.0
2022-01-24-13:15:14.144924,10.0,18.0,340.0
2022-01-24-13:15:14.145980,16.0,2.0,340.0
2022-01-24-13:15:14.146969,16.0,2.0,340.0
2022-01-24-13:15:14.147965,6.0,5.0,341.0
2022-01-24-13:15:14.148961,6.0,5.0,341.0
2022-01-24-13:15:14.149915,6.0,5.0,341.0
2022-01-24-13:15:14.150910,6.0,5.0,341.0
2022-01-24-13:15:14.151955,6.0,5.0,341.0
2022-01-24-13:15:14.152931,0.0,11.0,341.0
2022-01-24-13:15:14.154900,1.0,8.0,341.0
2022-01-24-13:15:14.154900,1.0,14.0,340.0
2022-01-24-13:15:14.155897,4.0,4.0,341.0
2022-01-24-13:15:14.156943,2.0,4.0,341.0
2022-01-24-13:15:14.157939,2.0,4.0,341.0
2022-01-24-13:15:14.158936,2.0,4.0,341.0
2022-01-24-13:15:14.159887,2.0,4.0,341.0
2022-01-24-13:15:14.160934,7.0,2.0,341.0
2022-01-24-13:15:14.161928,12.0,4.0,341.0
2022-01-24-13:15:14.162926,15.0,8.0,341.0
2022-01-24-13:15:14.163923,15.0,8.0,341.0
2022-01-24-13:15:14.164920,17.0,6.0,340.0
2022-01-24-13:15:14.165918,7.0,4.0,341.0
2022-01-24-13:15:14.166915,4.0,3.0,341.0
2022-01-24-13:15:14.167912,4.0,3.0,341.0
2022-01-24-13:15:14.168862,0.0,4.0,341.0
2022-01-24-13:15:14.169885,0.0,4.0,341.0
2022-01-24-13:15:14.170883,2.0,10.0,341.0
2022-01-24-13:15:14.171879,2.0,10.0,341.0
2022-01-24-13:15:14.172881,3.0,11.0,341.0
2022-01-24-13:15:14.173874,7.0,5.0,341.0
2022-01-24-13:15:14.174873,5.0,2.0,341.0
2022-01-24-13:15:14.175843,5.0,2.0,341.0
2022-01-24-13:15:14.176867,5.0,1.0,340.0
2022-01-24-13:15:14.177865,14.0,5.0,340.0
2022-01-24-13:15:14.178883,14.0,5.0,340.0
2022-01-24-13:15:14.179860,14.0,5.0,340.0
2022-01-24-13:15:14.180880,18.0,1.0,341.0
2022-01-24-13:15:14.181875,9.0,7.0,341.0
2022-01-24-13:15:14.182870,3.0,5.0,341.0
2022-01-24-13:15:14.183868,3.0,5.0,341.0
2022-01-24-13:15:14.184845,1.0,15.0,340.0
2022-01-24-13:15:14.186862,4.0,12.0,340.0
2022-01-24-13:15:14.186862,4.0,12.0,340.0
2022-01-24-13:15:14.187929,4.0,12.0,340.0
2022-01-24-13:15:14.187929,4.0,12.0,340.0
2022-01-24-13:15:14.189153,4.0,12.0,340.0
2022-01-24-13:15:14.189153,1.0,15.0,341.0
2022-01-24-13:15:14.190202,3.0,6.0,341.0
2022-01-24-13:15:14.191190,4.0,0.0,341.0
2022-01-24-13:15:14.192159,4.0,0.0,341.0
2022-01-24-13:15:14.193194,5.0,0.0,341.0
2022-01-24-13:15:14.194192,15.0,5.0,341.0
2022-01-24-13:15:14.195187,15.0,5.0,341.0
2022-01-24-13:15:14.196137,15.0,5.0,341.0
2022-01-24-13:15:14.197160,11.0,1.0,340.0
2022-01-24-13:15:14.198160,8.0,2.0,341.0
2022-01-24-13:15:14.199157,8.0,2.0,341.0
2022-01-24-13:15:14.200126,8.0,2.0,341.0
2022-01-24-13:15:14.201149,5.0,11.0,341.0
2022-01-24-13:15:14.202346,1.0,5.0,341.0
2022-01-24-13:15:14.202346,1.0,5.0,341.0
2022-01-24-13:15:14.203394,1.0,5.0,341.0
2022-01-24-13:15:14.204403,1.0,5.0,341.0
2022-01-24-13:15:14.205554,4.0,16.0,341.0
2022-01-24-13:15:14.205554,4.0,15.0,340.0
2022-01-24-13:15:14.206600,2.0,17.0,341.0
2022-01-24-13:15:14.207598,2.0,17.0,341.0
2022-01-24-13:15:14.208548,2.0,17.0,341.0
2022-01-24-13:15:14.209546,2.0,12.0,341.0
2022-01-24-13:15:14.210596,8.0,8.0,341.0
2022-01-24-13:15:14.211587,11.0,16.0,341.0
2022-01-24-13:15:14.212570,11.0,16.0,341.0
2022-01-24-13:15:14.213582,11.0,16.0,341.0
2022-01-24-13:15:14.214579,11.0,0.0,341.0
2022-01-24-13:15:14.215577,7.0,1.0,340.0
2022-01-24-13:15:14.216573,7.0,5.0,340.0
2022-01-24-13:15:14.217575,7.0,5.0,340.0
2022-01-24-13:15:14.219686,2.0,6.0,341.0
2022-01-24-13:15:14.219686,1.0,13.0,341.0
2022-01-24-13:15:14.220717,1.0,13.0,341.0
2022-01-24-13:15:14.221713,2.0,9.0,341.0
2022-01-24-13:15:14.222808,3.0,7.0,340.0
2022-01-24-13:15:14.222808,3.0,7.0,340.0
2022-01-24-13:15:14.223855,3.0,7.0,340.0
2022-01-24-13:15:14.225011,3.0,7.0,340.0
2022-01-24-13:15:14.225011,0.0,10.0,341.0
2022-01-24-13:15:14.226058,7.0,2.0,341.0
2022-01-24-13:15:14.227043,14.0,2.0,341.0
2022-01-24-13:15:14.228051,14.0,2.0,341.0
2022-01-24-13:15:14.229026,14.0,2.0,341.0
2022-01-24-13:15:14.230046,14.0,0.0,341.0
2022-01-24-13:15:14.231031,5.0,1.0,340.0
2022-01-24-13:15:14.232098,5.0,1.0,340.0
2022-01-24-13:15:14.232098,5.0,1.0,340.0
2022-01-24-13:15:14.233124,5.0,1.0,340.0
2022-01-24-13:15:14.234528,10.0,3.0,340.0
2022-01-24-13:15:14.234528,7.0,5.0,340.0
2022-01-24-13:15:14.235583,1.0,6.0,340.0
2022-01-24-13:15:14.236582,1.0,6.0,340.0
2022-01-24-13:15:14.237581,1.0,6.0,340.0
2022-01-24-13:15:14.238577,3.0,4.0,341.0
2022-01-24-13:15:14.239567,11.0,19.0,340.0
2022-01-24-13:15:14.240562,9.0,18.0,341.0
2022-01-24-13:15:14.241561,9.0,18.0,341.0
2022-01-24-13:15:14.242535,1.0,16.0,341.0
2022-01-24-13:15:14.243639,10.0,1.0,340.0
2022-01-24-13:15:14.243639,10.0,1.0,340.0
2022-01-24-13:15:14.244686,10.0,1.0,340.0
2022-01-24-13:15:14.245683,10.0,1.0,340.0
2022-01-24-13:15:14.246660,17.0,2.0,341.0
2022-01-24-13:15:14.247678,14.0,1.0,340.0
2022-01-24-13:15:14.248678,12.0,2.0,341.0
2022-01-24-13:15:14.249673,12.0,2.0,341.0
2022-01-24-13:15:14.251673,12.0,2.0,341.0
2022-01-24-13:15:14.252242,6.0,1.0,340.0
2022-01-24-13:15:14.252242,1.0,4.0,341.0
2022-01-24-13:15:14.253288,1.0,2.0,341.0
2022-01-24-13:15:14.254285,1.0,2.0,341.0
2022-01-24-13:15:14.255283,3.0,7.0,341.0
2022-01-24-13:15:14.256281,4.0,7.0,340.0
2022-01-24-13:15:14.257376,6.0,8.0,341.0
2022-01-24-13:15:14.257376,6.0,8.0,341.0
2022-01-24-13:15:14.258428,6.0,8.0,341.0
2022-01-24-13:15:14.259399,2.0,5.0,340.0
2022-01-24-13:15:14.260416,7.0,5.0,341.0
2022-01-24-13:15:14.261415,11.0,0.0,341.0
2022-01-24-13:15:14.262412,11.0,0.0,341.0
2022-01-24-13:15:14.263577,14.0,1.0,341.0
2022-01-24-13:15:14.263577,18.0,1.0,341.0
2022-01-24-13:15:14.264628,9.0,2.0,341.0
2022-01-24-13:15:14.265620,9.0,2.0,341.0
2022-01-24-13:15:14.266618,9.0,2.0,341.0
2022-01-24-13:15:14.267730,4.0,7.0,341.0
2022-01-24-13:15:14.267730,2.0,7.0,341.0
2022-01-24-13:15:14.268927,2.0,7.0,341.0
2022-01-24-13:15:14.268927,2.0,7.0,341.0
2022-01-24-13:15:14.269956,2.0,7.0,341.0
2022-01-24-13:15:14.270970,2.0,8.0,341.0
2022-01-24-13:15:14.272148,5.0,8.0,341.0
2022-01-24-13:15:14.272282,6.0,3.0,341.0
2022-01-24-13:15:14.272282,6.0,3.0,341.0
2022-01-24-13:15:14.273335,6.0,3.0,341.0
2022-01-24-13:15:14.274439,6.0,3.0,341.0
2022-01-24-13:15:14.274439,7.0,3.0,341.0
2022-01-24-13:15:14.275486,3.0,5.0,341.0
2022-01-24-13:15:14.276482,4.0,3.0,340.0
2022-01-24-13:15:14.277488,4.0,3.0,340.0
2022-01-24-13:15:14.278484,4.0,3.0,340.0
2022-01-24-13:15:14.279482,14.0,3.0,341.0
2022-01-24-13:15:14.280481,18.0,5.0,341.0
2022-01-24-13:15:14.281470,13.0,1.0,340.0
2022-01-24-13:15:14.283442,13.0,1.0,340.0
2022-01-24-13:15:14.283442,7.0,1.0,340.0
2022-01-24-13:15:14.284461,2.0,3.0,341.0
2022-01-24-13:15:14.285458,2.0,3.0,341.0
2022-01-24-13:15:14.286409,2.0,3.0,341.0
2022-01-24-13:15:14.287453,1.0,5.0,341.0
2022-01-24-13:15:14.288452,0.0,8.0,341.0
2022-01-24-13:15:14.289448,2.0,3.0,340.0
2022-01-24-13:15:14.290425,2.0,3.0,340.0
2022-01-24-13:15:14.291443,5.0,2.0,341.0
2022-01-24-13:15:14.292439,6.0,1.0,340.0
2022-01-24-13:15:14.293436,10.0,6.0,340.0
2022-01-24-13:15:14.294435,10.0,6.0,340.0
2022-01-24-13:15:14.295431,10.0,6.0,340.0
2022-01-24-13:15:14.296430,14.0,5.0,340.0
2022-01-24-13:15:14.297427,7.0,16.0,341.0
2022-01-24-13:15:14.298423,7.0,16.0,341.0
2022-01-24-13:15:14.299426,7.0,16.0,341.0
2022-01-24-13:15:14.300418,5.0,1.0,341.0
2022-01-24-13:15:14.301415,4.0,3.0,341.0
2022-01-24-13:15:14.302412,4.0,3.0,341.0
2022-01-24-13:15:14.303410,4.0,3.0,341.0
2022-01-24-13:15:14.304409,0.0,5.0,341.0
2022-01-24-13:15:14.305411,1.0,10.0,340.0
2022-01-24-13:15:14.306508,2.0,5.0,341.0
2022-01-24-13:15:14.306508,2.0,5.0,341.0
2022-01-24-13:15:14.307559,2.0,5.0,341.0
2022-01-24-13:15:14.308762,7.0,9.0,341.0
2022-01-24-13:15:14.308762,2.0,6.0,341.0
2022-01-24-13:15:14.309808,7.0,6.0,341.0
2022-01-24-13:15:14.310808,7.0,6.0,341.0
2022-01-24-13:15:14.311803,7.0,6.0,341.0
2022-01-24-13:15:14.312806,13.0,7.0,341.0
2022-01-24-13:15:14.313881,16.0,9.0,340.0
2022-01-24-13:15:14.313881,16.0,9.0,340.0
2022-01-24-13:15:14.314928,16.0,9.0,340.0
2022-01-24-13:15:14.315925,16.0,9.0,340.0
2022-01-24-13:15:14.317244,8.0,15.0,341.0
2022-01-24-13:15:14.317244,5.0,19.0,341.0
2022-01-24-13:15:14.319240,5.0,19.0,341.0
2022-01-24-13:15:14.319240,1.0,12.0,341.0
2022-01-24-13:15:14.320270,1.0,6.0,340.0
2022-01-24-13:15:14.321267,1.0,8.0,341.0
2022-01-24-13:15:14.322268,1.0,8.0,341.0
2022-01-24-13:15:14.323263,1.0,8.0,341.0
2022-01-24-13:15:14.324261,8.0,5.0,341.0
2022-01-24-13:15:14.325247,4.0,3.0,341.0
2022-01-24-13:15:14.326223,4.0,4.0,340.0
2022-01-24-13:15:14.327252,4.0,4.0,340.0
2022-01-24-13:15:14.328272,11.0,2.0,341.0
2022-01-24-13:15:14.329273,19.0,4.0,341.0
2022-01-24-13:15:14.330266,18.0,3.0,341.0
2022-01-24-13:15:14.331263,18.0,3.0,341.0
2022-01-24-13:15:14.332260,18.0,3.0,341.0
2022-01-24-13:15:14.333259,7.0,2.0,340.0
2022-01-24-13:15:14.334254,3.0,3.0,341.0
2022-01-24-13:15:14.335352,3.0,6.0,340.0
2022-01-24-13:15:14.335352,3.0,6.0,340.0
2022-01-24-13:15:14.336570,2.0,1.0,340.0
2022-01-24-13:15:14.336570,0.0,10.0,340.0
2022-01-24-13:15:14.337624,4.0,8.0,341.0
2022-01-24-13:15:14.338623,4.0,8.0,341.0
2022-01-24-13:15:14.339598,4.0,8.0,341.0
2022-01-24-13:15:14.340575,0.0,8.0,341.0
2022-01-24-13:15:14.341593,0.0,10.0,341.0
2022-01-24-13:15:14.342603,9.0,7.0,341.0
2022-01-24-13:15:14.343608,9.0,7.0,341.0
2022-01-24-13:15:14.344605,9.0,7.0,341.0
2022-01-24-13:15:14.345594,15.0,1.0,340.0
2022-01-24-13:15:14.346692,12.0,2.0,341.0
2022-01-24-13:15:14.346692,12.0,2.0,341.0
2022-01-24-13:15:14.347916,12.0,2.0,341.0
2022-01-24-13:15:14.347916,11.0,1.0,340.0
2022-01-24-13:15:14.348969,5.0,0.0,340.0
2022-01-24-13:15:14.349960,4.0,3.0,341.0
2022-01-24-13:15:14.350958,4.0,3.0,341.0
2022-01-24-13:15:14.351908,4.0,3.0,341.0
2022-01-24-13:15:14.353929,0.0,2.0,341.0
2022-01-24-13:15:14.353929,2.0,3.0,341.0
2022-01-24-13:15:14.354949,2.0,3.0,341.0
2022-01-24-13:15:14.355897,2.0,3.0,341.0
2022-01-24-13:15:14.356940,5.0,8.0,340.0
2022-01-24-13:15:14.357937,0.0,5.0,340.0
2022-01-24-13:15:14.358937,6.0,0.0,341.0
2022-01-24-13:15:14.359913,6.0,0.0,341.0
2022-01-24-13:15:14.360934,6.0,0.0,341.0
2022-01-24-13:15:14.361928,7.0,3.0,341.0
2022-01-24-13:15:14.362925,13.0,7.0,341.0
2022-01-24-13:15:14.363923,16.0,9.0,340.0
2022-01-24-13:15:14.364920,16.0,9.0,340.0
2022-01-24-13:15:14.365917,11.0,11.0,341.0
2022-01-24-13:15:14.366915,8.0,9.0,341.0
2022-01-24-13:15:14.367915,4.0,6.0,341.0
2022-01-24-13:15:14.368913,4.0,6.0,341.0
2022-01-24-13:15:14.369907,4.0,6.0,341.0
2022-01-24-13:15:14.370884,1.0,10.0,340.0
2022-01-24-13:15:14.371901,2.0,7.0,340.0
2022-01-24-13:15:14.372898,2.0,7.0,340.0
2022-01-24-13:15:14.373896,5.0,4.0,340.0
2022-01-24-13:15:14.374894,2.0,1.0,341.0
2022-01-24-13:15:14.375890,7.0,13.0,341.0
2022-01-24-13:15:14.376892,7.0,13.0,341.0
2022-01-24-13:15:14.377886,9.0,24.0,341.0
2022-01-24-13:15:14.378882,21.0,5.0,341.0
2022-01-24-13:15:14.379886,20.0,4.0,341.0
2022-01-24-13:15:14.380878,20.0,4.0,341.0
2022-01-24-13:15:14.381875,9.0,6.0,341.0
2022-01-24-13:15:14.382873,2.0,14.0,340.0
2022-01-24-13:15:14.383869,2.0,14.0,340.0
2022-01-24-13:15:14.384820,2.0,14.0,340.0
2022-01-24-13:15:14.385866,1.0,19.0,340.0
2022-01-24-13:15:14.387859,1.0,19.0,340.0
2022-01-24-13:15:14.387859,1.0,19.0,340.0
2022-01-24-13:15:14.388828,1.0,17.0,341.0
2022-01-24-13:15:14.389854,2.0,11.0,341.0
2022-01-24-13:15:14.390851,1.0,1.0,340.0
2022-01-24-13:15:14.391809,1.0,1.0,341.0
2022-01-24-13:15:14.392856,1.0,1.0,341.0
2022-01-24-13:15:14.393822,15.0,2.0,341.0
2022-01-24-13:15:14.394840,14.0,3.0,340.0
2022-01-24-13:15:14.395837,14.0,3.0,340.0
2022-01-24-13:15:14.396835,14.0,3.0,340.0
2022-01-24-13:15:14.397832,14.0,3.0,340.0
2022-01-24-13:15:14.398830,6.0,1.0,341.0
2022-01-24-13:15:14.399827,5.0,3.0,341.0
2022-01-24-13:15:14.400827,5.0,3.0,341.0
2022-01-24-13:15:14.401801,3.0,6.0,341.0
2022-01-24-13:15:14.402824,2.0,9.0,341.0
2022-01-24-13:15:14.403815,2.0,9.0,341.0
2022-01-24-13:15:14.404813,2.0,9.0,341.0
2022-01-24-13:15:14.405811,2.0,9.0,341.0
2022-01-24-13:15:14.406809,2.0,10.0,341.0
2022-01-24-13:15:14.407899,0.0,6.0,340.0
2022-01-24-13:15:14.407899,0.0,6.0,340.0
2022-01-24-13:15:14.408955,0.0,6.0,340.0
2022-01-24-13:15:14.409951,0.0,6.0,340.0
2022-01-24-13:15:14.410940,3.0,3.0,341.0
2022-01-24-13:15:14.412115,7.0,2.0,341.0
2022-01-24-13:15:14.412115,12.0,1.0,341.0
2022-01-24-13:15:14.413161,18.0,2.0,340.0
2022-01-24-13:15:14.414159,18.0,2.0,340.0
2022-01-24-13:15:14.415156,11.0,3.0,341.0
2022-01-24-13:15:14.416158,4.0,3.0,341.0
2022-01-24-13:15:14.417130,4.0,3.0,341.0
2022-01-24-13:15:14.419125,4.0,3.0,341.0
2022-01-24-13:15:14.419125,0.0,10.0,341.0
2022-01-24-13:15:14.420142,2.0,12.0,340.0
2022-01-24-13:15:14.421140,2.0,12.0,340.0
2022-01-24-13:15:14.422137,2.0,12.0,340.0
2022-01-24-13:15:14.423135,0.0,9.0,340.0
2022-01-24-13:15:14.424131,6.0,10.0,341.0
2022-01-24-13:15:14.425122,0.0,9.0,340.0
2022-01-24-13:15:14.426129,0.0,9.0,340.0
2022-01-24-13:15:14.427113,2.0,7.0,341.0
2022-01-24-13:15:14.428121,13.0,1.0,341.0
2022-01-24-13:15:14.429119,17.0,0.0,341.0
2022-01-24-13:15:14.430119,17.0,0.0,341.0
2022-01-24-13:15:14.431113,17.0,0.0,341.0
2022-01-24-13:15:14.432115,10.0,9.0,341.0
2022-01-24-13:15:14.433063,10.0,9.0,341.0
2022-01-24-13:15:14.434085,3.0,7.0,340.0
2022-01-24-13:15:14.435081,0.0,2.0,341.0
2022-01-24-13:15:14.436080,0.0,6.0,340.0
2022-01-24-13:15:14.437075,0.0,6.0,340.0
2022-01-24-13:15:14.438048,0.0,6.0,340.0
2022-01-24-13:15:14.439072,2.0,6.0,341.0
2022-01-24-13:15:14.440067,2.0,5.0,340.0
2022-01-24-13:15:14.441075,2.0,5.0,340.0
2022-01-24-13:15:14.442038,2.0,5.0,340.0
2022-01-24-13:15:14.443059,1.0,9.0,341.0
2022-01-24-13:15:14.444058,13.0,3.0,341.0
2022-01-24-13:15:14.445053,13.0,3.0,341.0
2022-01-24-13:15:14.446053,13.0,3.0,341.0
2022-01-24-13:15:14.447051,17.0,0.0,341.0
2022-01-24-13:15:14.448104,7.0,2.0,341.0
2022-01-24-13:15:14.448104,7.0,2.0,341.0
2022-01-24-13:15:14.449158,7.0,2.0,341.0
2022-01-24-13:15:14.450160,7.0,2.0,341.0
2022-01-24-13:15:14.451153,3.0,8.0,340.0
2022-01-24-13:15:14.453093,0.0,11.0,340.0
2022-01-24-13:15:14.453093,0.0,11.0,340.0
2022-01-24-13:15:14.454145,0.0,11.0,340.0
2022-01-24-13:15:14.455192,0.0,11.0,340.0
2022-01-24-13:15:14.455192,4.0,12.0,341.0
2022-01-24-13:15:14.456344,4.0,12.0,341.0
2022-01-24-13:15:14.456344,6.0,7.0,340.0
2022-01-24-13:15:14.457398,6.0,7.0,340.0
2022-01-24-13:15:14.458397,6.0,7.0,340.0
2022-01-24-13:15:14.459417,1.0,1.0,340.0
2022-01-24-13:15:14.460390,10.0,4.0,340.0
2022-01-24-13:15:14.461387,14.0,3.0,340.0
2022-01-24-13:15:14.462384,14.0,3.0,340.0
2022-01-24-13:15:14.463385,14.0,3.0,340.0
2022-01-24-13:15:14.464609,15.0,2.0,341.0
2022-01-24-13:15:14.464609,11.0,1.0,341.0
2022-01-24-13:15:14.465640,11.0,1.0,341.0
2022-01-24-13:15:14.466606,11.0,1.0,341.0
2022-01-24-13:15:14.467636,10.0,3.0,340.0
2022-01-24-13:15:14.468637,10.0,3.0,340.0
2022-01-24-13:15:14.469634,6.0,5.0,341.0
2022-01-24-13:15:14.470636,1.0,12.0,340.0
2022-01-24-13:15:14.471627,0.0,12.0,341.0
2022-01-24-13:15:14.472767,5.0,5.0,341.0
2022-01-24-13:15:14.472767,5.0,5.0,341.0
2022-01-24-13:15:14.473822,5.0,5.0,341.0
2022-01-24-13:15:14.475009,5.0,5.0,341.0
2022-01-24-13:15:14.475009,5.0,2.0,341.0
2022-01-24-13:15:14.476042,5.0,2.0,341.0
2022-01-24-13:15:14.477038,10.0,3.0,341.0
2022-01-24-13:15:14.478039,10.0,3.0,341.0
2022-01-24-13:15:14.479060,10.0,3.0,341.0
2022-01-24-13:15:14.479477,18.0,1.0,340.0
2022-01-24-13:15:14.479477,15.0,7.0,341.0
2022-01-24-13:15:14.480521,15.0,7.0,341.0
2022-01-24-13:15:14.481576,12.0,3.0,341.0
2022-01-24-13:15:14.482572,12.0,3.0,341.0
2022-01-24-13:15:14.483570,12.0,3.0,341.0
2022-01-24-13:15:14.484567,10.0,3.0,340.0
2022-01-24-13:15:14.485559,1.0,6.0,341.0
2022-01-24-13:15:14.486897,0.0,3.0,341.0
2022-01-24-13:15:14.486897,2.0,4.0,341.0
2022-01-24-13:15:14.488894,7.0,5.0,341.0
2022-01-24-13:15:14.488894,6.0,3.0,341.0
2022-01-24-13:15:14.489923,6.0,3.0,341.0
2022-01-24-13:15:14.490920,6.0,3.0,341.0
2022-01-24-13:15:14.492111,6.0,3.0,341.0
2022-01-24-13:15:14.492111,3.0,2.0,341.0
2022-01-24-13:15:14.493159,3.0,2.0,341.0
2022-01-24-13:15:14.494140,8.0,10.0,340.0
2022-01-24-13:15:14.495139,9.0,7.0,340.0
2022-01-24-13:15:14.496272,10.0,13.0,341.0
2022-01-24-13:15:14.496272,10.0,13.0,341.0
2022-01-24-13:15:14.497318,10.0,13.0,341.0
2022-01-24-13:15:14.498316,10.0,13.0,341.0
2022-01-24-13:15:14.499315,10.0,13.0,341.0
2022-01-24-13:15:14.500311,10.0,13.0,341.0
2022-01-24-13:15:14.501663,3.0,11.0,341.0
2022-01-24-13:15:14.501663,3.0,11.0,341.0
2022-01-24-13:15:14.502701,3.0,11.0,341.0
2022-01-24-13:15:14.503698,1.0,12.0,341.0
2022-01-24-13:15:14.504688,1.0,10.0,340.0
2022-01-24-13:15:14.505801,3.0,6.0,341.0
2022-01-24-13:15:14.505801,3.0,6.0,341.0
2022-01-24-13:15:14.506849,3.0,6.0,341.0
2022-01-24-13:15:14.507798,3.0,6.0,341.0
2022-01-24-13:15:14.508842,4.0,2.0,341.0
2022-01-24-13:15:14.509793,10.0,4.0,341.0
2022-01-24-13:15:14.510836,10.0,4.0,341.0
2022-01-24-13:15:14.511837,10.0,4.0,341.0
2022-01-24-13:15:14.512831,14.0,8.0,341.0
2022-01-24-13:15:14.513829,18.0,3.0,340.0
2022-01-24-13:15:14.514826,8.0,2.0,341.0
2022-01-24-13:15:14.516017,8.0,2.0,341.0
2022-01-24-13:15:14.516017,8.0,2.0,341.0
2022-01-24-13:15:14.517052,8.0,2.0,341.0
2022-01-24-13:15:14.518048,3.0,5.0,340.0
2022-01-24-13:15:14.519244,3.0,5.0,340.0
2022-01-24-13:15:14.520417,3.0,5.0,340.0
2022-01-24-13:15:14.520417,3.0,5.0,340.0
2022-01-24-13:15:14.521446,3.0,5.0,340.0
2022-01-24-13:15:14.522565,2.0,12.0,340.0
2022-01-24-13:15:14.522565,1.0,11.0,340.0
2022-01-24-13:15:14.523599,1.0,11.0,340.0
2022-01-24-13:15:14.524594,1.0,11.0,340.0
2022-01-24-13:15:14.525591,5.0,8.0,341.0
2022-01-24-13:15:14.526607,0.0,6.0,341.0
2022-01-24-13:15:14.527586,0.0,6.0,341.0
2022-01-24-13:15:14.528584,12.0,5.0,341.0
2022-01-24-13:15:14.529581,8.0,1.0,340.0
2022-01-24-13:15:14.530578,12.0,3.0,341.0
2022-01-24-13:15:14.531577,12.0,3.0,341.0
2022-01-24-13:15:14.532573,12.0,3.0,341.0
2022-01-24-13:15:14.533571,9.0,4.0,340.0
2022-01-24-13:15:14.534560,9.0,4.0,340.0
2022-01-24-13:15:14.535557,6.0,2.0,341.0
2022-01-24-13:15:14.536558,1.0,6.0,341.0
2022-01-24-13:15:14.537551,0.0,7.0,341.0
2022-01-24-13:15:14.538670,0.0,6.0,341.0
2022-01-24-13:15:14.538670,0.0,6.0,341.0
2022-01-24-13:15:14.539721,0.0,6.0,341.0
2022-01-24-13:15:14.540715,0.0,6.0,341.0
2022-01-24-13:15:14.542011,6.0,5.0,341.0
2022-01-24-13:15:14.542011,7.0,5.0,341.0
2022-01-24-13:15:14.543011,7.0,5.0,341.0
2022-01-24-13:15:14.544040,7.0,5.0,341.0
2022-01-24-13:15:14.545037,7.0,5.0,341.0
2022-01-24-13:15:14.546037,7.0,9.0,341.0
2022-01-24-13:15:14.547138,17.0,0.0,341.0
2022-01-24-13:15:14.547138,17.0,0.0,341.0
2022-01-24-13:15:14.548186,17.0,0.0,341.0
2022-01-24-13:15:14.549182,17.0,0.0,341.0
2022-01-24-13:15:14.550179,10.0,1.0,341.0
2022-01-24-13:15:14.551447,10.0,1.0,341.0
2022-01-24-13:15:14.551447,5.0,7.0,341.0
2022-01-24-13:15:14.552481,5.0,7.0,341.0
2022-01-24-13:15:14.553476,1.0,15.0,340.0
2022-01-24-13:15:14.554473,4.0,13.0,340.0
2022-01-24-13:15:14.556468,4.0,13.0,340.0
2022-01-24-13:15:14.556468,4.0,13.0,340.0
2022-01-24-13:15:14.557465,4.0,13.0,340.0
2022-01-24-13:15:14.558466,7.0,9.0,341.0
2022-01-24-13:15:14.559471,10.0,1.0,340.0
2022-01-24-13:15:14.560460,10.0,1.0,340.0
2022-01-24-13:15:14.561456,10.0,1.0,340.0
2022-01-24-13:15:14.562451,14.0,0.0,341.0
2022-01-24-13:15:14.563570,18.0,5.0,341.0
2022-01-24-13:15:14.563570,13.0,0.0,340.0
2022-01-24-13:15:14.564617,13.0,0.0,340.0
2022-01-24-13:15:14.565619,13.0,0.0,340.0
2022-01-24-13:15:14.566956,7.0,1.0,340.0
2022-01-24-13:15:14.566956,7.0,1.0,340.0
2022-01-24-13:15:14.567989,7.0,1.0,340.0
2022-01-24-13:15:14.568984,2.0,3.0,341.0
2022-01-24-13:15:14.569986,0.0,3.0,341.0
2022-01-24-13:15:14.571125,7.0,5.0,340.0
2022-01-24-13:15:14.571125,7.0,5.0,340.0
2022-01-24-13:15:14.572172,7.0,5.0,340.0
2022-01-24-13:15:14.573166,7.0,5.0,340.0
2022-01-24-13:15:14.574167,4.0,1.0,340.0
2022-01-24-13:15:14.575165,3.0,10.0,341.0
2022-01-24-13:15:14.576171,3.0,9.0,341.0
2022-01-24-13:15:14.577338,3.0,9.0,341.0
2022-01-24-13:15:14.577338,17.0,9.0,341.0
2022-01-24-13:15:14.578369,17.0,9.0,341.0
2022-01-24-13:15:14.579373,15.0,1.0,340.0
2022-01-24-13:15:14.580363,15.0,1.0,340.0
2022-01-24-13:15:14.581330,15.0,1.0,340.0
2022-01-24-13:15:14.582359,7.0,5.0,340.0
2022-01-24-13:15:14.583355,4.0,1.0,341.0
2022-01-24-13:15:14.584356,4.0,1.0,341.0
2022-01-24-13:15:14.585350,4.0,1.0,341.0
2022-01-24-13:15:14.586348,0.0,3.0,341.0
2022-01-24-13:15:14.587346,0.0,2.0,341.0
2022-01-24-13:15:14.589340,0.0,2.0,341.0
2022-01-24-13:15:14.589340,0.0,2.0,341.0
2022-01-24-13:15:14.590338,0.0,2.0,341.0
2022-01-24-13:15:14.591481,5.0,7.0,341.0
2022-01-24-13:15:14.591481,5.0,7.0,341.0
2022-01-24-13:15:14.592537,5.0,7.0,341.0
2022-01-24-13:15:14.593534,5.0,7.0,341.0
2022-01-24-13:15:14.594576,8.0,9.0,341.0
2022-01-24-13:15:14.594576,18.0,8.0,340.0
2022-01-24-13:15:14.595722,18.0,8.0,340.0
2022-01-24-13:15:14.595722,16.0,9.0,340.0
2022-01-24-13:15:14.596768,16.0,9.0,340.0
2022-01-24-13:15:14.597772,16.0,9.0,340.0
2022-01-24-13:15:14.598762,12.0,13.0,340.0
2022-01-24-13:15:14.599760,8.0,17.0,341.0
2022-01-24-13:15:14.601172,2.0,20.0,341.0
2022-01-24-13:15:14.601172,2.0,20.0,341.0
2022-01-24-13:15:14.602229,2.0,20.0,341.0
2022-01-24-13:15:14.603225,2.0,13.0,340.0
2022-01-24-13:15:14.604223,2.0,7.0,340.0
2022-01-24-13:15:14.605340,2.0,5.0,341.0
2022-01-24-13:15:14.605340,2.0,5.0,341.0
2022-01-24-13:15:14.606386,2.0,5.0,341.0
2022-01-24-13:15:14.607389,6.0,3.0,341.0
2022-01-24-13:15:14.608568,2.0,7.0,341.0
2022-01-24-13:15:14.608568,8.0,16.0,340.0
2022-01-24-13:15:14.609599,8.0,16.0,340.0
2022-01-24-13:15:14.610599,8.0,16.0,340.0
2022-01-24-13:15:14.611594,10.0,21.0,341.0
2022-01-24-13:15:14.612705,16.0,12.0,341.0
2022-01-24-13:15:14.612705,13.0,7.0,341.0
2022-01-24-13:15:14.613751,13.0,7.0,341.0
2022-01-24-13:15:14.614749,13.0,7.0,341.0
2022-01-24-13:15:14.615747,11.0,5.0,341.0
2022-01-24-13:15:14.617033,7.0,11.0,341.0
2022-01-24-13:15:14.617033,7.0,11.0,341.0
2022-01-24-13:15:14.618066,7.0,11.0,341.0
2022-01-24-13:15:14.619066,5.0,17.0,341.0
2022-01-24-13:15:14.620066,2.0,4.0,341.0
2022-01-24-13:15:14.621058,2.0,4.0,341.0
2022-01-24-13:15:14.623053,2.0,4.0,341.0
2022-01-24-13:15:14.623053,2.0,3.0,341.0
2022-01-24-13:15:14.624049,2.0,3.0,341.0
2022-01-24-13:15:14.625203,1.0,7.0,340.0
2022-01-24-13:15:14.625203,1.0,7.0,340.0
2022-01-24-13:15:14.626250,1.0,7.0,340.0
2022-01-24-13:15:14.627490,1.0,7.0,340.0
2022-01-24-13:15:14.627490,6.0,5.0,341.0
2022-01-24-13:15:14.628524,6.0,5.0,341.0
2022-01-24-13:15:14.629519,13.0,12.0,340.0
2022-01-24-13:15:14.630485,13.0,12.0,340.0
2022-01-24-13:15:14.631514,12.0,7.0,341.0
2022-01-24-13:15:14.632511,5.0,1.0,340.0
2022-01-24-13:15:14.633516,5.0,1.0,340.0
2022-01-24-13:15:14.634506,5.0,1.0,340.0
2022-01-24-13:15:14.635817,0.0,5.0,340.0
2022-01-24-13:15:14.635817,5.0,14.0,341.0
2022-01-24-13:15:14.636945,5.0,14.0,341.0
2022-01-24-13:15:14.636945,0.0,15.0,340.0
2022-01-24-13:15:14.637992,0.0,15.0,340.0
2022-01-24-13:15:14.639155,0.0,15.0,340.0
2022-01-24-13:15:14.639155,2.0,8.0,341.0
2022-01-24-13:15:14.640179,2.0,8.0,341.0
2022-01-24-13:15:14.641297,2.0,5.0,340.0
2022-01-24-13:15:14.641297,2.0,5.0,340.0
2022-01-24-13:15:14.642344,2.0,5.0,340.0
2022-01-24-13:15:14.643507,2.0,5.0,340.0
2022-01-24-13:15:14.643507,8.0,6.0,341.0
2022-01-24-13:15:14.644531,8.0,6.0,341.0
2022-01-24-13:15:14.645633,19.0,14.0,341.0
2022-01-24-13:15:14.645633,19.0,14.0,341.0
2022-01-24-13:15:14.646681,19.0,14.0,341.0
2022-01-24-13:15:14.647688,19.0,14.0,341.0
2022-01-24-13:15:14.648956,5.0,13.0,341.0
2022-01-24-13:15:14.648956,3.0,11.0,341.0
2022-01-24-13:15:14.649987,3.0,11.0,341.0
2022-01-24-13:15:14.651951,3.0,11.0,341.0
2022-01-24-13:15:14.651951,1.0,21.0,341.0
2022-01-24-13:15:14.652950,1.0,21.0,341.0
2022-01-24-13:15:14.653946,1.0,21.0,341.0
2022-01-24-13:15:14.654944,1.0,21.0,341.0
2022-01-24-13:15:14.655972,3.0,3.0,341.0
2022-01-24-13:15:14.656971,2.0,2.0,340.0
2022-01-24-13:15:14.657966,2.0,2.0,340.0
2022-01-24-13:15:14.658964,2.0,2.0,340.0
2022-01-24-13:15:14.659964,2.0,2.0,340.0
2022-01-24-13:15:14.660965,18.0,6.0,340.0
2022-01-24-13:15:14.661955,18.0,6.0,340.0
2022-01-24-13:15:14.662956,18.0,6.0,340.0
2022-01-24-13:15:14.663951,18.0,6.0,340.0
2022-01-24-13:15:14.664956,14.0,0.0,340.0
2022-01-24-13:15:14.665945,4.0,3.0,341.0
2022-01-24-13:15:14.666947,4.0,3.0,341.0
2022-01-24-13:15:14.667942,4.0,3.0,341.0
2022-01-24-13:15:14.668937,1.0,4.0,340.0
2022-01-24-13:15:14.669926,1.0,7.0,340.0
2022-01-24-13:15:14.670927,1.0,7.0,340.0
2022-01-24-13:15:14.671928,1.0,7.0,340.0
2022-01-24-13:15:14.672921,3.0,5.0,341.0
2022-01-24-13:15:14.674024,3.0,10.0,341.0
2022-01-24-13:15:14.674024,3.0,10.0,341.0
2022-01-24-13:15:14.675072,3.0,10.0,341.0
2022-01-24-13:15:14.676070,3.0,10.0,341.0
2022-01-24-13:15:14.677068,3.0,4.0,340.0
2022-01-24-13:15:14.678251,9.0,4.0,340.0
2022-01-24-13:15:14.678251,12.0,1.0,341.0
2022-01-24-13:15:14.679399,12.0,1.0,341.0
2022-01-24-13:15:14.679399,14.0,8.0,340.0
2022-01-24-13:15:14.680446,14.0,8.0,340.0
2022-01-24-13:15:14.681446,12.0,2.0,341.0
2022-01-24-13:15:14.682440,10.0,8.0,340.0
2022-01-24-13:15:14.683439,8.0,4.0,340.0
2022-01-24-13:15:14.685434,8.0,4.0,340.0
2022-01-24-13:15:14.685434,1.0,9.0,340.0
2022-01-24-13:15:14.686430,1.0,9.0,340.0
2022-01-24-13:15:14.687661,0.0,10.0,341.0
2022-01-24-13:15:14.687661,4.0,14.0,341.0
2022-01-24-13:15:14.688692,4.0,14.0,341.0
2022-01-24-13:15:14.689690,6.0,4.0,341.0
2022-01-24-13:15:14.690690,1.0,3.0,340.0
2022-01-24-13:15:14.691685,1.0,3.0,340.0
2022-01-24-13:15:14.692684,1.0,3.0,340.0
2022-01-24-13:15:14.693679,2.0,2.0,340.0
2022-01-24-13:15:14.694676,13.0,0.0,341.0
2022-01-24-13:15:14.695675,13.0,0.0,341.0
2022-01-24-13:15:14.696671,13.0,0.0,341.0
2022-01-24-13:15:14.697668,15.0,6.0,340.0
2022-01-24-13:15:14.698668,14.0,3.0,340.0
2022-01-24-13:15:14.699662,12.0,8.0,341.0
2022-01-24-13:15:14.700662,8.0,7.0,340.0
2022-01-24-13:15:14.701650,1.0,9.0,340.0
2022-01-24-13:15:14.702648,1.0,15.0,341.0
2022-01-24-13:15:14.703646,1.0,15.0,341.0
2022-01-24-13:15:14.704650,1.0,15.0,341.0
2022-01-24-13:15:14.705639,1.0,11.0,340.0
2022-01-24-13:15:14.706763,2.0,1.0,341.0
2022-01-24-13:15:14.706763,2.0,1.0,341.0
2022-01-24-13:15:14.707762,2.0,1.0,341.0
2022-01-24-13:15:14.708984,2.0,1.0,341.0
2022-01-24-13:15:14.708984,2.0,4.0,340.0
2022-01-24-13:15:14.710018,2.0,4.0,340.0
2022-01-24-13:15:14.711142,10.0,4.0,341.0
2022-01-24-13:15:14.711142,10.0,4.0,341.0
2022-01-24-13:15:14.712190,10.0,4.0,341.0
2022-01-24-13:15:14.713185,10.0,4.0,341.0
2022-01-24-13:15:14.714184,17.0,1.0,341.0
2022-01-24-13:15:14.715500,13.0,3.0,340.0
2022-01-24-13:15:14.715500,10.0,2.0,341.0
2022-01-24-13:15:14.716534,10.0,2.0,341.0
2022-01-24-13:15:14.717530,2.0,1.0,341.0
2022-01-24-13:15:14.719526,2.0,1.0,341.0
2022-01-24-13:15:14.719526,2.0,1.0,341.0
2022-01-24-13:15:14.720521,2.0,1.0,341.0
2022-01-24-13:15:14.721518,3.0,2.0,340.0
2022-01-24-13:15:14.722519,3.0,0.0,341.0
2022-01-24-13:15:14.723513,3.0,0.0,341.0
2022-01-24-13:15:14.724514,3.0,0.0,341.0
2022-01-24-13:15:14.725508,3.0,0.0,341.0
2022-01-24-13:15:14.726505,6.0,6.0,341.0
2022-01-24-13:15:14.727498,12.0,7.0,341.0
2022-01-24-13:15:14.728492,12.0,7.0,341.0
2022-01-24-13:15:14.729490,12.0,7.0,341.0
2022-01-24-13:15:14.730586,11.0,7.0,341.0
2022-01-24-13:15:14.730586,8.0,5.0,341.0
2022-01-24-13:15:14.731635,8.0,5.0,341.0
2022-01-24-13:15:14.732629,8.0,5.0,341.0
2022-01-24-13:15:14.733627,5.0,1.0,341.0
2022-01-24-13:15:14.734837,5.0,1.0,340.0
2022-01-24-13:15:14.734837,4.0,11.0,340.0
2022-01-24-13:15:14.735869,4.0,11.0,340.0
2022-01-24-13:15:14.736866,4.0,11.0,340.0
2022-01-24-13:15:14.737863,4.0,11.0,340.0
2022-01-24-13:15:14.738860,2.0,8.0,341.0
2022-01-24-13:15:14.739858,7.0,5.0,340.0
2022-01-24-13:15:14.740857,7.0,5.0,340.0
2022-01-24-13:15:14.741852,7.0,5.0,340.0
2022-01-24-13:15:14.742850,8.0,19.0,341.0
2022-01-24-13:15:14.743906,11.0,19.0,341.0
2022-01-24-13:15:14.743906,11.0,19.0,341.0
2022-01-24-13:15:14.744961,11.0,19.0,341.0
2022-01-24-13:15:14.745958,11.0,19.0,341.0
2022-01-24-13:15:14.746960,15.0,3.0,341.0
2022-01-24-13:15:14.748038,7.0,4.0,340.0
2022-01-24-13:15:14.748038,7.0,4.0,340.0
2022-01-24-13:15:14.749085,7.0,4.0,340.0
2022-01-24-13:15:14.750082,7.0,4.0,340.0
2022-01-24-13:15:14.751079,9.0,6.0,341.0
2022-01-24-13:15:14.753075,1.0,17.0,341.0
2022-01-24-13:15:14.753075,2.0,30.0,341.0
2022-01-24-13:15:14.754072,2.0,30.0,341.0
2022-01-24-13:15:14.755069,3.0,7.0,340.0
2022-01-24-13:15:14.756070,3.0,7.0,340.0
2022-01-24-13:15:14.757064,3.0,7.0,340.0
2022-01-24-13:15:14.758068,3.0,7.0,340.0
2022-01-24-13:15:14.759058,1.0,2.0,341.0
2022-01-24-13:15:14.760035,7.0,5.0,340.0
2022-01-24-13:15:14.761053,7.0,5.0,340.0
2022-01-24-13:15:14.762230,7.0,5.0,340.0
2022-01-24-13:15:14.762230,12.0,4.0,341.0
2022-01-24-13:15:14.763266,12.0,4.0,341.0
2022-01-24-13:15:14.764363,10.0,3.0,341.0
2022-01-24-13:15:14.764363,10.0,3.0,341.0
2022-01-24-13:15:14.765414,10.0,3.0,341.0
2022-01-24-13:15:14.766885,10.0,3.0,341.0
2022-01-24-13:15:14.766885,1.0,7.0,341.0
2022-01-24-13:15:14.767916,1.0,7.0,341.0
2022-01-24-13:15:14.769119,1.0,7.0,341.0
2022-01-24-13:15:14.769119,1.0,6.0,341.0
2022-01-24-13:15:14.770166,1.0,6.0,341.0
2022-01-24-13:15:14.771410,3.0,13.0,341.0
2022-01-24-13:15:14.771410,2.0,15.0,340.0
2022-01-24-13:15:14.772559,2.0,15.0,340.0
2022-01-24-13:15:14.772559,5.0,8.0,341.0
2022-01-24-13:15:14.773606,5.0,8.0,341.0
2022-01-24-13:15:14.774602,5.0,8.0,341.0
2022-01-24-13:15:14.775600,5.0,6.0,341.0
2022-01-24-13:15:14.776761,2.0,1.0,341.0
2022-01-24-13:15:14.776761,8.0,2.0,341.0
2022-01-24-13:15:14.777792,8.0,2.0,341.0
2022-01-24-13:15:14.778791,8.0,2.0,341.0
2022-01-24-13:15:14.779788,19.0,2.0,341.0
2022-01-24-13:15:14.780785,13.0,3.0,340.0
2022-01-24-13:15:14.781785,13.0,3.0,340.0
2022-01-24-13:15:14.782779,13.0,3.0,340.0
2022-01-24-13:15:14.783779,10.0,13.0,341.0
2022-01-24-13:15:14.784777,10.0,13.0,341.0
2022-01-24-13:15:14.785772,7.0,0.0,341.0
2022-01-24-13:15:14.787766,2.0,8.0,340.0
2022-01-24-13:15:14.787766,2.0,8.0,341.0
2022-01-24-13:15:14.788763,2.0,8.0,341.0
2022-01-24-13:15:14.789762,6.0,1.0,341.0
2022-01-24-13:15:14.790750,6.0,1.0,341.0
2022-01-24-13:15:14.791751,0.0,1.0,341.0
2022-01-24-13:15:14.792748,11.0,3.0,341.0
2022-01-24-13:15:14.793743,11.0,3.0,341.0
2022-01-24-13:15:14.794741,11.0,3.0,341.0
2022-01-24-13:15:14.795737,11.0,1.0,341.0
2022-01-24-13:15:14.796734,11.0,6.0,341.0
2022-01-24-13:15:14.797732,11.0,6.0,341.0
2022-01-24-13:15:14.798729,11.0,6.0,341.0
2022-01-24-13:15:14.799728,4.0,6.0,341.0
2022-01-24-13:15:14.801145,4.0,5.0,341.0
2022-01-24-13:15:14.801145,4.0,5.0,341.0
2022-01-24-13:15:14.802203,4.0,5.0,341.0
2022-01-24-13:15:14.803197,4.0,5.0,341.0
2022-01-24-13:15:14.804197,2.0,9.0,341.0
2022-01-24-13:15:14.805194,5.0,23.0,341.0
2022-01-24-13:15:14.806189,5.0,23.0,341.0
2022-01-24-13:15:14.807188,5.0,23.0,341.0
2022-01-24-13:15:14.808186,8.0,18.0,340.0
2022-01-24-13:15:14.809268,5.0,8.0,341.0
2022-01-24-13:15:14.809268,7.0,6.0,340.0
2022-01-24-13:15:14.810324,7.0,6.0,340.0
2022-01-24-13:15:14.811508,7.0,6.0,340.0
2022-01-24-13:15:14.811508,14.0,4.0,341.0
2022-01-24-13:15:14.812561,12.0,1.0,341.0
2022-01-24-13:15:14.813554,12.0,0.0,341.0
2022-01-24-13:15:14.814549,12.0,0.0,341.0
2022-01-24-13:15:14.815547,12.0,0.0,341.0
2022-01-24-13:15:14.816543,13.0,0.0,341.0
2022-01-24-13:15:14.817541,2.0,2.0,341.0
2022-01-24-13:15:14.818538,0.0,1.0,340.0
2022-01-24-13:15:14.819535,3.0,2.0,341.0
2022-01-24-13:15:14.821517,3.0,9.0,341.0
2022-01-24-13:15:14.821517,3.0,2.0,341.0
2022-01-24-13:15:14.822535,3.0,2.0,341.0
2022-01-24-13:15:14.823533,3.0,2.0,341.0
2022-01-24-13:15:14.824515,6.0,6.0,341.0
2022-01-24-13:15:14.825606,2.0,1.0,341.0
2022-01-24-13:15:14.825606,2.0,1.0,341.0
2022-01-24-13:15:14.826640,2.0,1.0,341.0
2022-01-24-13:15:14.827637,2.0,1.0,341.0
2022-01-24-13:15:14.828851,10.0,6.0,341.0
2022-01-24-13:15:14.828851,15.0,5.0,341.0
2022-01-24-13:15:14.829905,15.0,5.0,341.0
