# 
# 
# 
# 
# 
# 
# 
# 
# 
# 
# time,realtime,ref,inp,inp0,inp1,dis,state...
0.000000000000000000e+00,1.639371246466127396e+09,-0.000000000000000000e+00,-3.044724009425465311e-02,0.000000000000000000e+00,-6.089448018850930622e-02,0.000000000000000000e+00,0.000000000000000000e+00,0.000000000000000000e+00
1.666666666666666644e-02,1.639371246469154358e+09,-4.646968747399017172e-07,-1.442237688675220356e-02,0.000000000000000000e+00,-2.884475377350440711e-02,0.000000000000000000e+00,-1.992025891948821480e-06,-2.383809222205879319e-04
3.333333333333333287e-02,1.639371246471147060e+09,-1.490916225632305943e-06,-1.442237688675220356e-02,0.000000000000000000e+00,-2.884475377350440711e-02,1.884338821576968359e-05,-7.921539204135784256e-06,-4.725103005506748840e-04
5.000000000000000278e-02,1.639371246490095854e+09,-2.561926697016047623e-06,-1.442237688675220356e-02,0.000000000000000000e+00,-2.884475377350440711e-02,7.895300191563899461e-05,-1.771256838542823744e-05,-7.017763361166584699e-04
6.666666666666666574e-02,1.639371246505048513e+09,-3.209354704366075086e-06,-3.044724009425465311e-02,0.000000000000000000e+00,-6.089448018850930622e-02,1.847479753301529298e-04,-3.349178146790626330e-05,-1.190371991682921942e-03
8.333333333333332871e-02,1.639371246522010565e+09,-3.013995253413797937e-06,-1.442237688675220356e-02,0.000000000000000000e+00,-2.884475377350440711e-02,3.392527742744839482e-04,-5.511206801865771963e-05,-1.403470440340132391e-03
1.000000000000000056e-01,1.639371246539968491e+09,-1.605238298648115214e-06,-1.442237688675220356e-02,0.000000000000000000e+00,-2.884475377350440711e-02,5.439559750031842467e-04,-8.022628840807850717e-05,-1.609663235146528660e-03
1.166666666666666685e-01,1.639371246555919886e+09,1.340834852172644526e-06,-1.442237688675220356e-02,0.000000000000000000e+00,-2.884475377350440711e-02,7.986936694977116689e-04,-1.087133914284326228e-04,-1.808237519080416102e-03
1.333333333333333315e-01,1.639371246573872089e+09,6.104606852115225959e-06,-1.442237688675220356e-02,0.000000000000000000e+00,-2.884475377350440711e-02,1.101559736860694425e-03,-1.404408066561594346e-04,-1.998523723017547622e-03
1.499999999999999944e-01,1.639371246590835094e+09,1.292723094103499091e-05,-1.442237688675220356e-02,0.000000000000000000e+00,-2.884475377350440711e-02,1.448844861504162192e-03,-1.752654089960356304e-04,-2.179924654431805373e-03
1.666666666666666574e-01,1.639371246607783794e+09,2.201596820525096354e-05,-1.442237688675220356e-02,0.000000000000000000e+00,-2.884475377350440711e-02,1.835005792152133832e-03,-2.130349682652310625e-04,-2.351944613405944438e-03
1.833333333333333204e-01,1.639371246623741388e+09,3.355041673402875738e-05,-1.442237688675220356e-02,0.000000000000000000e+00,-2.884475377350440711e-02,2.252665926021260156e-03,-2.535900799420052619e-04,-2.514218017741352579e-03
2.000000000000000111e-01,1.639371246642689466e+09,4.768947836832612209e-05,-1.442237688675220356e-02,0.000000000000000000e+00,-2.884475377350440711e-02,2.692647874882039480e-03,-2.967665645478113966e-04,-2.666537016666715824e-03
2.166666666666666741e-01,1.639371246659609795e+09,6.457889590085834602e-05,-3.044724009425465311e-02,0.000000000000000000e+00,-6.089448018850930622e-02,3.144038229261018197e-03,-3.446116766007603204e-04,-3.073745269030327652e-03
2.333333333333333370e-01,1.639371246675567150e+09,8.435918367974614633e-05,-1.442237688675220356e-02,0.000000000000000000e+00,-2.884475377350440711e-02,3.594284289224271810e-03,-3.969117987401404434e-04,-3.201913356849746175e-03
2.500000000000000000e-01,1.639371246692521811e+09,1.071737677445215472e-04,-1.442237688675220356e-02,0.000000000000000000e+00,-2.884475377350440711e-02,4.029322080504586616e-03,-4.512702653994661649e-04,-3.320772470294547276e-03
2.666666666666666630e-01,1.639371246709510088e+09,1.331771479898877350e-04,-1.442237688675220356e-02,0.000000000000000000e+00,-2.884475377350440711e-02,4.433734528774110374e-03,-5.075374427536704942e-04,-3.430982665573311264e-03
2.833333333333333259e-01,1.639371246727429390e+09,1.625428944676356505e-04,-1.442237688675220356e-02,0.000000000000000000e+00,-2.884475377350440711e-02,4.790938228186247469e-03,-5.655768972554934626e-04,-3.533467188714254498e-03
2.999999999999999889e-01,1.639371246744384289e+09,1.954712928093596438e-04,-3.044724009425465311e-02,0.000000000000000000e+00,-6.089448018850930622e-02,5.083396818407573924e-03,-6.274832395052813531e-04,-3.894291567728584442e-03
3.166666666666666519e-01,1.639371246762336493e+09,2.321964598413063605e-04,-3.044724009425465311e-02,0.000000000000000000e+00,-6.089448018850930622e-02,5.292858582587870418e-03,-6.953245531986536462e-04,-4.245689945896325215e-03
3.333333333333333148e-01,1.639371246779290438e+09,2.729927596778076440e-04,-3.044724009425465311e-02,0.000000000000000000e+00,-6.089448018850930622e-02,5.400615502230676421e-03,-7.689590877693160608e-04,-4.589499154526062441e-03
3.499999999999999778e-01,1.639371246796245098e+09,3.181803627833349412e-04,-1.442237688675220356e-02,0.000000000000000000e+00,-2.884475377350440711e-02,5.387780658624993953e-03,-8.460646993705316435e-04,-4.662970146726967170e-03
3.666666666666666408e-01,1.639371246813199997e+09,3.681298055010573736e-04,-1.442237688675220356e-02,0.000000000000000000e+00,-2.884475377350440711e-02,5.235580558961523863e-03,-9.244057016120352851e-04,-4.737742416615307872e-03
3.833333333333333037e-01,1.639371246828159809e+09,4.232654251300835692e-04,-1.442237688675220356e-02,0.000000000000000000e+00,-2.884475377350440711e-02,4.925658692692976189e-03,-1.004025387331262736e-03,-4.816401367463734456e-03
4.000000000000000222e-01,1.639371246845114708e+09,4.840675655259414774e-04,-3.044724009425465311e-02,0.000000000000000000e+00,-6.089448018850930622e-02,4.440386393894349588e-03,-1.087225579305303204e-03,-5.166648737162365251e-03
4.166666666666666852e-01,1.639371246863066673e+09,5.510734700941214131e-04,-1.442237688675220356e-02,0.000000000000000000e+00,-2.884475377350440711e-02,3.763176901654715321e-03,-1.174095025510332345e-03,-5.257432624042294653e-03
4.333333333333333481e-01,1.639371246880021095e+09,6.248768026069157280e-04,-3.044724009425465311e-02,0.000000000000000000e+00,-6.089448018850930622e-02,2.878798375695885980e-03,-1.264800510286389484e-03,-5.626201167908883791e-03
4.500000000000000111e-01,1.639371246896975994e+09,7.061257611337543776e-04,-3.044724009425465311e-02,0.000000000000000000e+00,-6.089448018850930622e-02,1.773681540729510689e-03,-1.361753842253606321e-03,-6.007140478500419198e-03
4.666666666666666741e-01,1.639371246913930893e+09,7.955197761465066138e-04,-3.044724009425465311e-02,0.000000000000000000e+00,-6.089448018850930622e-02,4.362176022206071778e-04,-1.465188278389568206e-03,-6.403889750565024477e-03
4.833333333333333370e-01,1.639371246930885077e+09,8.938048101382907581e-04,-3.044724009425465311e-02,0.000000000000000000e+00,-6.089448018850930622e-02,-1.142957900688672084e-03,-1.575398519694274366e-03,-6.820182809176040563e-03
5.000000000000000000e-01,1.639371246948835611e+09,1.001767302460436666e-03,-1.442237688675220356e-02,0.000000000000000000e+00,-2.884475377350440711e-02,-2.970699561854470757e-03,-1.690528566525589197e-03,-6.994937369821503832e-03
5.166666666666666075e-01,1.639371246967785358e+09,1.120226829115002990e-03,-3.044724009425465311e-02,0.000000000000000000e+00,-6.089448018850930622e-02,-5.051109019433609043e-03,-1.811047761475058446e-03,-7.466057326766839183e-03
5.333333333333333259e-01,1.639371246985737801e+09,1.250027572518138275e-03,-1.442237688675220356e-02,0.000000000000000000e+00,-2.884475377350440711e-02,-7.385318251651770693e-03,-1.937462924425113319e-03,-7.703103749456850953e-03
5.500000000000000444e-01,1.639371247004686356e+09,1.392028720357741571e-03,-3.044724009425465311e-02,0.000000000000000000e+00,-6.089448018850930622e-02,-9.971302959646597894e-03,-2.070366659716852461e-03,-8.243842398396799415e-03
5.666666666666666519e-01,1.639371247020644665e+09,1.547093935205507472e-03,-3.044724009425465311e-02,0.000000000000000000e+00,-6.089448018850930622e-02,-1.280372945276089976e-02,-2.212599234892780996e-03,-8.822459315671129371e-03
5.833333333333333703e-01,1.639371247034606695e+09,1.716080057125394728e-03,-3.044724009425465311e-02,0.000000000000000000e+00,-6.089448018850930622e-02,-1.587383811705875628e-02,-2.364819551439896559e-03,-9.442256969312570747e-03
5.999999999999999778e-01,1.639371247054553509e+09,1.899825219789505340e-03,-1.442237688675220356e-02,0.000000000000000000e+00,-2.884475377350440711e-02,-1.916936616908535701e-02,-2.525526039996608182e-03,-9.841412865019818698e-03
6.166666666666666963e-01,1.639371247070510864e+09,2.099136576240033698e-03,-3.044724009425465311e-02,0.000000000000000000e+00,-6.089448018850930622e-02,-2.267451197775227634e-02,-2.695527489793850089e-03,-1.055677394975602576e-02
6.333333333333333037e-01,1.639371247086468220e+09,2.314777843128929154e-03,-3.044724009425465311e-02,0.000000000000000000e+00,-6.089448018850930622e-02,-2.636994278198355121e-02,-2.877863233053321035e-03,-1.132139125443385776e-02
6.500000000000000222e-01,1.639371247104459524e+09,2.547456881772218636e-03,-3.044724009425465311e-02,0.000000000000000000e+00,-6.089448018850930622e-02,-3.023284714514875085e-02,-3.073370535011896946e-03,-1.213721873979867194e-02
6.666666666666666297e-01,1.639371247119415283e+09,2.797813540463822690e-03,-1.442237688675220356e-02,0.000000000000000000e+00,-2.884475377350440711e-02,-3.423703297451047983e-02,-3.280701977269759491e-03,-1.274087746189518817e-02
6.833333333333333481e-01,1.639371247138329268e+09,3.066407985042618814e-03,-1.442237688675220356e-02,0.000000000000000000e+00,-2.884475377350440711e-02,-3.835307140045938340e-02,-3.498579529866503030e-03,-1.340259071408530372e-02
6.999999999999999556e-01,1.639371247156280994e+09,3.353709743584972099e-03,-1.442237688675220356e-02,0.000000000000000000e+00,-2.884475377350440711e-02,-4.254848626205827433e-02,-3.727973713295921771e-03,-1.412271091646939356e-02
7.166666666666666741e-01,1.639371247173269510e+09,3.660087686244546234e-03,-3.044724009425465311e-02,0.000000000000000000e+00,-6.089448018850930622e-02,-4.678798838846175839e-02,-3.972069360987990315e-03,-1.516586907682259885e-02
7.333333333333332815e-01,1.639371247189227581e+09,3.985801152677576065e-03,-1.442237688675220356e-02,0.000000000000000000e+00,-2.884475377350440711e-02,-5.103375330641500562e-02,-4.231779961560481161e-03,-1.599709397946956144e-02
7.500000000000000000e-01,1.639371247206147194e+09,4.330992427226450919e-03,-1.442237688675220356e-02,0.000000000000000000e+00,-2.884475377350440711e-02,-5.524574044866698702e-02,-4.505811263077859168e-03,-1.688419796687583643e-02
7.666666666666666075e-01,1.639371247223102808e+09,4.695680746193264983e-03,-3.044724009425465311e-02,0.000000000000000000e+00,-6.089448018850930622e-02,-5.938205139321969112e-02,-4.797289775240355138e-03,-1.808987431283791414e-02
7.833333333333333259e-01,1.639371247240089893e+09,5.079758002279596840e-03,-3.044724009425465311e-02,0.000000000000000000e+00,-6.089448018850930622e-02,-6.339932413530861843e-02,-5.109251232266024539e-03,-1.934202225963830082e-02
8.000000000000000444e-01,1.639371247256013870e+09,5.482986288813215120e-03,-3.044724009425465311e-02,0.000000000000000000e+00,-6.089448018850930622e-02,-6.725315988921851118e-02,-5.442441168156452423e-03,-2.063717232347242470e-02
8.166666666666666519e-01,1.639371247273966312e+09,5.904997400992269274e-03,-3.044724009425465311e-02,0.000000000000000000e+00,-6.089448018850930622e-02,-7.089857844166055911e-02,-5.797541558700478048e-03,-2.197116890852698554e-02
8.333333333333333703e-01,1.639371247291918039e+09,6.345294383366268873e-03,-3.044724009425465311e-02,0.000000000000000000e+00,-6.089448018850930622e-02,-7.429049763842331122e-02,-6.175159466960053467e-03,-2.333917996247870941e-02
8.499999999999999778e-01,1.639371247308872700e+09,6.803255182499238184e-03,-3.044724009425465311e-02,0.000000000000000000e+00,-6.089448018850930622e-02,-7.738423218700578310e-02,-6.575815917242321638e-03,-2.473571471688411350e-02
8.666666666666666963e-01,1.639371247324831963e+09,7.278138431622192817e-03,-3.044724009425465311e-02,0.000000000000000000e+00,-6.089448018850930622e-02,-8.013600660522990360e-02,-6.999935133143272113e-03,-2.615464961264123839e-02
8.833333333333333037e-01,1.639371247340820789e+09,7.769091360513166733e-03,-3.044724009425465311e-02,0.000000000000000000e+00,-6.089448018850930622e-02,-8.250347684426397044e-02,-7.447834276148413563e-03,-2.758926241861140577e-02
9.000000000000000222e-01,1.639371247358741522e+09,8.275159789308072708e-03,-3.044724009425465311e-02,0.000000000000000000e+00,-6.089448018850930622e-02,-8.444625486842910478e-02,-7.919713820619888114e-03,-2.903227445685132788e-02
9.166666666666666297e-01,1.639371247375694036e+09,8.795300129931727523e-03,-3.044724009425465311e-02,0.000000000000000000e+00,-6.089448018850930622e-02,-8.592643028743641997e-02,-8.415648698753389750e-03,-3.047590075174600940e-02
9.333333333333333481e-01,1.639371247396673918e+09,9.328393283851999992e-03,-1.442237688675220356e-02,0.000000000000000000e+00,-2.884475377350440711e-02,-8.690908301253877366e-02,-8.933366983133498099e-03,-3.164704013235408037e-02
9.499999999999999556e-01,1.639371247413592577e+09,9.873260290417096643e-03,-1.442237688675220356e-02,0.000000000000000000e+00,-2.884475377350440711e-02,-8.736278084907998787e-02,-9.470505163806357957e-03,-3.280632124727841936e-02
9.666666666666666741e-01,1.639371247428552628e+09,1.042867954665838495e-02,-1.442237688675220356e-02,0.000000000000000000e+00,-2.884475377350440711e-02,-8.726005594601117521e-02,-1.002679038749371490e-02,-3.394474323747045247e-02
9.833333333333332815e-01,1.639371247444509268e+09,1.099340538764529730e-02,-3.044724009425465311e-02,0.000000000000000000e+00,-6.089448018850930622e-02,-8.657785409934132259e-02,-1.060401120764698467e-02,-3.531794065387711817e-02
1.000000000000000000e+00,1.639371247464456797e+09,1.156618778677388076e-02,-3.044724009425465311e-02,0.000000000000000000e+00,-6.089448018850930622e-02,-8.529795105170161207e-02,-1.120375220384711712e-02,-3.664728617677625450e-02
1.016666666666666607e+00,1.639371247480414152e+09,1.214579290824548304e-02,-3.044724009425465311e-02,0.000000000000000000e+00,-6.089448018850930622e-02,-8.340733014398316048e-02,-1.182520421539216826e-02,-3.792341033586849736e-02
1.033333333333333215e+00,1.639371247495373964e+09,1.273102421991351152e-02,-3.044724009425465311e-02,0.000000000000000000e+00,-6.089448018850930622e-02,-8.089851595637222170e-02,-1.246740218534906838e-02,-3.913697496675538207e-02
1.050000000000000044e+00,1.639371247512367487e+09,1.332074385407817571e-02,-3.044724009425465311e-02,0.000000000000000000e+00,-6.089448018850930622e-02,-7.776985892330724737e-02,-1.312922648266454800e-02,-4.027876898639926734e-02
1.066666666666666652e+00,1.639371247531279564e+09,1.391389388708917478e-02,5.604503375599055870e-01,1.181795155308320355e+00,-6.089448018850930622e-02,-7.402576631744200997e-02,-1.372779077094233094e-02,-3.157312851074708937e-02
1.083333333333333259e+00,1.639371247548267365e+09,1.450951719612617909e-02,-3.044724009425465311e-02,0.000000000000000000e+00,-6.089448018850930622e-02,-6.967687546840510560e-02,-1.426347787599136115e-02,-3.270617666507572019e-02
1.100000000000000089e+00,1.639371247567182064e+09,1.510677754357043004e-02,5.333257364481656104e-01,1.095496226669835815e+00,-2.884475377350440711e-02,-6.474016560908281426e-02,-1.473934215411387347e-02,-2.442055287296849425e-02
1.116666666666666696e+00,1.639371247582141638e+09,1.570497853620602194e-02,5.330598080355170021e-01,1.127014096259543185e+00,-6.089448018850930622e-02,-5.923900532073492209e-02,-1.507753402402148453e-02,-1.618534762448118475e-02
1.133333333333333304e+00,1.639371247598098993e+09,1.630358110828547188e-02,5.634520394255919662e-01,1.187798559039693114e+00,-6.089448018850930622e-02,-5.320313317325420233e-02,-1.527457845594184377e-02,-7.484154755021864280e-03
1.149999999999999911e+00,1.639371247617049456e+09,1.690221918438596788e-02,5.206777878395604242e-01,1.102250055867630252e+00,-6.089448018850930622e-02,-4.666856982249298347e-02,-1.533281026362693852e-02,4.742306862810189566e-04
1.166666666666666741e+00,1.639371247634004593e+09,1.750071319003141529e-02,-3.044724009425465311e-02,0.000000000000000000e+00,-6.089448018850930622e-02,-3.967746052644504501e-02,-1.533465757847454064e-02,-6.926670092163729996e-04
1.183333333333333348e+00,1.639371247650958538e+09,1.809908109525086919e-02,-3.044724009425465311e-02,0.000000000000000000e+00,-6.089448018850930622e-02,-3.227784776937085015e-02,-1.535476997754894879e-02,-1.717972741202389731e-03
1.199999999999999956e+00,1.639371247667945385e+09,1.869754669850801077e-02,-1.442237688675220356e-02,0.000000000000000000e+00,-2.884475377350440711e-02,-2.452337443043114962e-02,-1.538854477592149252e-02,-2.333293798116235600e-03
1.216666666666666563e+00,1.639371247685897112e+09,1.929654488562041609e-02,-1.442237688675220356e-02,0.000000000000000000e+00,-2.884475377350440711e-02,-1.647291869346985058e-02,-1.543137800382785724e-02,-2.805382163213571926e-03
1.233333333333333393e+00,1.639371247701854229e+09,1.989672363017233256e-02,-1.442237688675220356e-02,0.000000000000000000e+00,-2.884475377350440711e-02,-8.190162659394963074e-03,-1.548087014767568145e-02,-3.132765678468200053e-03
1.250000000000000000e+00,1.639371247717811346e+09,2.049894253822263923e-02,-1.442237688675220356e-02,0.000000000000000000e+00,-2.884475377350440711e-02,2.569026159043384769e-04,-1.553460675219926757e-02,-3.315120311792077792e-03
1.266666666666666607e+00,1.639371247736760855e+09,2.110426778046818955e-02,-1.442237688675220356e-02,0.000000000000000000e+00,-2.884475377350440711e-02,8.796532185165087392e-03,-1.559017791580150601e-02,-3.353313226549625107e-03
1.283333333333333215e+00,1.639371247753715992e+09,2.171396329902291686e-02,-1.442237688675220356e-02,0.000000000000000000e+00,-2.884475377350440711e-02,1.735383817162164735e-02,-1.564519841338589401e-02,-3.249435040884079279e-03
1.300000000000000044e+00,1.639371247770675182e+09,2.232947822314030120e-02,-1.442237688675220356e-02,0.000000000000000000e+00,-2.884475377350440711e-02,2.585145172337208891e-02,-1.569732826095886213e-02,-3.006820612700781062e-03
1.316666666666666652e+00,1.639371247786627531e+09,2.295243047800971103e-02,-1.442237688675220356e-02,0.000000000000000000e+00,-2.884475377350440711e-02,3.421023038779161946e-02,-1.574429352607473187e-02,-2.630057789234253353e-03
1.333333333333333259e+00,1.639371247803584814e+09,2.358458662261593217e-02,-1.442237688675220356e-02,0.000000000000000000e+00,-2.884475377350440711e-02,4.235000471044029352e-02,-1.578390717977770641e-02,-2.124983671803142623e-03
1.350000000000000089e+00,1.639371247820539474e+09,2.422783800594451725e-02,-1.442237688675220356e-02,0.000000000000000000e+00,-2.884475377350440711e-02,5.019035729086031294e-02,-1.581408977920209513e-02,-1.498668065643617587e-03
1.366666666666666696e+00,1.639371247838456392e+09,2.488417338488720446e-02,-1.442237688675220356e-02,0.000000000000000000e+00,-2.884475377350440711e-02,5.765142701371361172e-02,-1.583288976554154959e-02,-7.593839105214726486e-04
1.383333333333333304e+00,1.639371247858402967e+09,2.555564820136376619e-02,-3.044724009425465311e-02,0.000000000000000000e+00,-6.089448018850930622e-02,6.465473072447464054e-02,-1.584071652189121202e-02,-1.814323103348120273e-04
1.399999999999999911e+00,1.639371247874393940e+09,2.624435076972880115e-02,-1.442237688675220356e-02,0.000000000000000000e+00,-2.884475377350440711e-02,7.112399424040545537e-02,-1.583588367852753129e-02,7.587618021957291637e-04
1.416666666666666741e+00,1.639371247890351057e+09,2.695236567775483039e-02,-1.442237688675220356e-02,0.000000000000000000e+00,-2.884475377350440711e-02,7.698598428521984116e-02,-1.581470113237834138e-02,1.780306046020999674e-03
1.433333333333333348e+00,1.639371247906308413e+09,2.768173475466140926e-02,-1.442237688675220356e-02,0.000000000000000000e+00,-2.884475377350440711e-02,8.217133271444446163e-02,-1.577591774212035863e-02,2.870671919557886854e-03
1.449999999999999956e+00,1.639371247924262047e+09,2.843441600708162056e-02,-1.442237688675220356e-02,0.000000000000000000e+00,-2.884475377350440711e-02,8.661534426198272407e-02,-1.571849838008956141e-02,4.016468680447598041e-03
1.466666666666666563e+00,1.639371247942212343e+09,2.921224096782781138e-02,-1.442237688675220356e-02,0.000000000000000000e+00,-2.884475377350440711e-02,9.025877898998206639e-02,-1.564163743037500290e-02,5.203547765786869887e-03
1.483333333333333393e+00,1.639371247959133148e+09,3.001687094216761928e-02,-3.044724009425465311e-02,0.000000000000000000e+00,-6.089448018850930622e-02,9.304860066614312197e-02,-1.554698381973392170e-02,6.152250164677262878e-03
1.500000000000000000e+00,1.639371247975090504e+09,3.084975267141424476e-02,-1.442237688675220356e-02,0.000000000000000000e+00,-2.884475377350440711e-02,9.493868242655133238e-02,-1.543417511655536742e-02,7.381379887162027413e-03
1.516666666666666607e+00,1.639371247994078636e+09,3.171207396337819701e-02,-1.442237688675220356e-02,0.000000000000000000e+00,-2.884475377350440711e-02,9.589046130850818750e-02,-1.530091922583855062e-02,8.605925403474476432e-03
1.533333333333333215e+00,1.639371248011028051e+09,3.260471986308003528e-02,-1.442237688675220356e-02,0.000000000000000000e+00,-2.884475377350440711e-02,9.587353355629374407e-02,-1.514742571609050195e-02,9.809951171552120514e-03
1.550000000000000044e+00,1.639371248027984619e+09,3.352822995460338212e-02,-1.442237688675220356e-02,0.000000000000000000e+00,-2.884475377350440711e-02,9.486618301198394831e-02,-1.497417054660750597e-02,1.097742610415631918e-02
1.566666666666666652e+00,1.639371248043941736e+09,3.448275739565878628e-02,-1.442237688675220356e-02,0.000000000000000000e+00,-2.884475377350440711e-02,9.285583540108252598e-02,-1.478189638401645675e-02,1.209237625013744218e-02
1.583333333333333259e+00,1.639371248061891794e+09,3.546803028998981450e-02,-1.442237688675220356e-02,0.000000000000000000e+00,-2.884475377350440711e-02,8.983943190556867298e-02,-1.457161034361877799e-02,1.313904112672003785e-02
1.600000000000000089e+00,1.639371248077848911e+09,3.648331599892047639e-02,-1.442237688675220356e-02,0.000000000000000000e+00,-2.884475377350440711e-02,8.582371608088128212e-02,-1.434457910715983102e-02,1.410203221016324317e-02
1.616666666666666696e+00,1.639371248095801592e+09,3.752738898193890005e-02,-1.442237688675220356e-02,0.000000000000000000e+00,-2.884475377350440711e-02,8.082542891326197076e-02,-1.410232139403670704e-02,1.496649203081528226e-02
1.633333333333333304e+00,1.639371248111763239e+09,3.859850273714752339e-02,-3.044724009425465311e-02,0.000000000000000000e+00,-6.089448018850930622e-02,7.487140762387944903e-02,-1.384881115135135933e-02,1.545338458029034759e-02
1.649999999999999911e+00,1.639371248128714561e+09,3.969436638568378528e-02,-1.442237688675220356e-02,0.000000000000000000e+00,-2.884475377350440711e-02,6.799858469946910844e-02,-1.358598919831279991e-02,1.608349942413040204e-02
1.666666666666666741e+00,1.639371248146631956e+09,4.081212640992766538e-02,-1.442237688675220356e-02,0.000000000000000000e+00,-2.884475377350440711e-02,6.025388455838114055e-02,-1.331382206483474988e-02,1.657519075184616872e-02
1.683333333333333348e+00,1.639371248163621426e+09,4.194835401364822164e-02,-3.044724009425465311e-02,0.000000000000000000e+00,-6.089448018850930622e-02,5.169401623765806225e-02,-1.303692364393204545e-02,1.665240526666685386e-02
1.699999999999999956e+00,1.639371248181571722e+09,4.309903852349147163e-02,-1.442237688675220356e-02,0.000000000000000000e+00,-2.884475377350440711e-02,4.238516150225934975e-02,-1.275782136091504863e-02,1.683934939390830873e-02
1.716666666666666563e+00,1.639371248197494984e+09,4.425958719574901723e-02,-1.442237688675220356e-02,0.000000000000000000e+00,-2.884475377350440711e-02,3.240255882235841545e-02,-1.247700796532334212e-02,1.685820569724337178e-02
1.733333333333333393e+00,1.639371248213451862e+09,4.542483173064575108e-02,-1.442237688675220356e-02,0.000000000000000000e+00,-2.884475377350440711e-02,2.182998472888877939e-02,-1.219734319166060864e-02,1.670200105428291601e-02
1.750000000000000000e+00,1.639371248231403828e+09,4.658904172899813040e-02,-1.442237688675220356e-02,0.000000000000000000e+00,-2.884475377350440711e-02,1.075913513091975027e-02,-1.192178936492116308e-02,1.636539319827959651e-02
1.766666666666666607e+00,1.639371248247361183e+09,4.774594525366405995e-02,-1.442237688675220356e-02,0.000000000000000000e+00,-2.884475377350440711e-02,-7.110897495564476528e-04,-1.165338344985387964e-02,1.584476283927383627e-02
1.783333333333333215e+00,1.639371248265313148e+09,4.888875658144557074e-02,-1.442237688675220356e-02,0.000000000000000000e+00,-2.884475377350440711e-02,-1.247539211001636762e-02,-1.139520768902380250e-02,1.513829092849761603e-02
1.800000000000000044e+00,1.639371248281270742e+09,5.001021115080551277e-02,-1.442237688675220356e-02,0.000000000000000000e+00,-2.884475377350440711e-02,-2.442296921473392779e-02,-1.115035908709837049e-02,1.424601989154741441e-02
1.816666666666666652e+00,1.639371248298225164e+09,5.110260762776257237e-02,-1.442237688675220356e-02,0.000000000000000000e+00,-2.884475377350440711e-02,-3.643848520182110112e-02,-1.092191801726479991e-02,1.316989778690428811e-02
1.833333333333333259e+00,1.639371248316177130e+09,5.215785692754520975e-02,-1.442237688675220356e-02,0.000000000000000000e+00,-2.884475377350440711e-02,-4.840311433629703591e-02,-1.071291624186596070e-02,1.191380449112129473e-02
1.849999999999999867e+00,1.639371248332134247e+09,5.316753794395032845e-02,-1.442237688675220356e-02,0.000000000000000000e+00,-2.884475377350440711e-02,-6.019564709204892200e-02,-1.052630465300576079e-02,1.048355916928107694e-02
1.866666666666666696e+00,1.639371248349088907e+09,5.412295965285605220e-02,-1.442237688675220356e-02,0.000000000000000000e+00,-2.884475377350440711e-02,-7.169364960720815694e-02,-1.036492104982329396e-02,8.886908457865936792e-03
1.883333333333333304e+00,1.639371248367041111e+09,5.501522917197716744e-02,-1.442237688675220356e-02,0.000000000000000000e+00,-2.884475377350440711e-02,-8.277466629394814035e-02,-1.023145827719201643e-02,7.133494965556320434e-03
1.899999999999999911e+00,1.639371248382998228e+09,5.583532527673899792e-02,-3.044724009425465311e-02,0.000000000000000000e+00,-6.089448018850930622e-02,-9.331745470410490739e-02,-1.013064641771736253e-02,4.969938192775674030e-03
1.916666666666666741e+00,1.639371248399952888e+09,5.657417679310243475e-02,-1.442237688675220356e-02,0.000000000000000000e+00,-2.884475377350440711e-02,-1.032032411648487191e-01,-1.006474707390455844e-02,2.943611881436188852e-03
1.933333333333333348e+00,1.639371248418902397e+09,5.722274521329197283e-02,-1.442237688675220356e-02,0.000000000000000000e+00,-2.884475377350440711e-02,-1.123169852115998985e-01,-1.003359875295477786e-02,8.001408588472077275e-04
1.949999999999999956e+00,1.639371248433862686e+09,5.777211081064538567e-02,-3.044724009425465311e-02,0.000000000000000000e+00,-6.089448018850930622e-02,-1.205486404654131788e-01,-1.004122921419415768e-02,-1.708826689241208906e-03
1.966666666666666563e+00,1.639371248451814413e+09,5.821356146615506988e-02,-3.044724009425465311e-02,0.000000000000000000e+00,-6.089448018850930622e-02,-1.277943993351430552e-01,-1.009133004921587869e-02,-4.296086511376116107e-03
1.983333333333333393e+00,1.639371248469766378e+09,5.853868336260407979e-02,-1.442237688675220356e-02,0.000000000000000000e+00,-2.884475377350440711e-02,-1.339579087758297760e-01,-1.018283247255277746e-02,-6.677588849082250616e-03
2.000000000000000000e+00,1.639371248489713192e+09,5.873945265334696436e-02,-1.442237688675220356e-02,0.000000000000000000e+00,-2.884475377350440711e-02,-1.389514443078956885e-01,-1.031438737684624470e-02,-9.102264298032914855e-03
2.016666666666666607e+00,1.639371248504673004e+09,5.880832717251277542e-02,-3.044724009425465311e-02,0.000000000000000000e+00,-6.089448018850930622e-02,-1.426970295997242177e-01,-1.048874934545098239e-02,-1.181364015766115695e-02
2.033333333333333215e+00,1.639371248520630360e+09,5.873833722239715782e-02,-1.442237688675220356e-02,0.000000000000000000e+00,-2.884475377350440711e-02,-1.451274891406989787e-01,-1.070604874931192427e-02,-1.425550518759106759e-02
2.049999999999999822e+00,1.639371248536588192e+09,5.852317445265701329e-02,-1.442237688675220356e-02,0.000000000000000000e+00,-2.884475377350440711e-02,-1.461874218832897310e-01,-1.096385503049462744e-02,-1.667452888590906235e-02
2.066666666666666430e+00,1.639371248553576708e+09,5.815727783511755872e-02,-1.442237688675220356e-02,0.000000000000000000e+00,-2.884475377350440711e-02,-1.458340842105413648e-01,-1.126159545338006364e-02,-1.904772948131185431e-02
2.083333333333333481e+00,1.639371248571528673e+09,5.763591573793741540e-02,-1.442237688675220356e-02,0.000000000000000000e+00,-2.884475377350440711e-02,-1.440381711873802151e-01,-1.159831337946894830e-02,-2.135202068979184103e-02
2.100000000000000089e+00,1.639371248587485790e+09,5.695526311382242274e-02,-1.442237688675220356e-02,0.000000000000000000e+00,-2.884475377350440711e-02,-1.407844857772752589e-01,-1.197266848852867119e-02,-2.356444662513257696e-02
2.116666666666666696e+00,1.639371248605403900e+09,5.611247283909197303e-02,-1.442237688675220356e-02,0.000000000000000000e+00,-2.884475377350440711e-02,-1.360724865455385513e-01,-1.238294095811823953e-02,-2.566242187941452160e-02
2.133333333333333304e+00,1.639371248621361256e+09,5.510574027371153288e-02,-1.442237688675220356e-02,0.000000000000000000e+00,-2.884475377350440711e-02,-1.299167053212499090e-01,-1.282703966898263506e-02,-2.762397453868349617e-02
2.149999999999999911e+00,1.639371248639346838e+09,5.393436015681582485e-02,-1.442237688675220356e-02,0.000000000000000000e+00,-2.884475377350440711e-02,-1.223470273446428253e-01,-1.330251446583694333e-02,-2.942798981235244041e-02
2.166666666666666519e+00,1.639371248656301975e+09,5.259877500753769308e-02,-3.044724009425465311e-02,0.000000000000000000e+00,-6.089448018850930622e-02,-1.134088275777575539e-01,-1.380878582591977405e-02,-3.131931958013647876e-02
2.183333333333333126e+00,1.639371248672259092e+09,5.110061426677717233e-02,-1.442237688675220356e-02,0.000000000000000000e+00,-2.884475377350440711e-02,-1.031629580942952512e-01,-1.434268959068014590e-02,-3.274517139839356467e-02
2.200000000000000178e+00,1.639371248690177202e+09,4.944272349141117656e-02,-1.442237688675220356e-02,0.000000000000000000e+00,-2.884475377350440711e-02,-9.168558277975265292e-02,-1.489857535224154740e-02,-3.395775163127390944e-02
2.216666666666666785e+00,1.639371248707131863e+09,4.762918299776548042e-02,-1.442237688675220356e-02,0.000000000000000000e+00,-2.884475377350440711e-02,-7.906785695416516935e-02,-1.547276053557723567e-02,-3.494173701195350812e-02
2.233333333333333393e+00,1.639371248724086523e+09,4.566531544521305885e-02,-1.442237688675220356e-02,0.000000000000000000e+00,-2.884475377350440711e-02,-6.541545096524513381e-02,-1.606132388957847573e-02,-3.568380412215222536e-02
2.250000000000000000e+00,1.639371248743070364e+09,4.355768195270665055e-02,-1.442237688675220356e-02,0.000000000000000000e+00,-2.884475377350440711e-02,-5.084791827685289367e-02,-1.666014045918646352e-02,-3.617282580527098751e-02
2.266666666666666607e+00,1.639371248759027004e+09,4.131406644994736754e-02,-1.442237688675220356e-02,0.000000000000000000e+00,-2.884475377350440711e-02,-3.549791008330761138e-02,-1.726491969546998032e-02,-3.640005135182180357e-02
2.283333333333333215e+00,1.639371248774984360e+09,3.894344807969953720e-02,-1.442237688675220356e-02,0.000000000000000000e+00,-2.884475377350440711e-02,-1.951024000034605119e-02,-1.787124641472089687e-02,-3.635926824735585816e-02
2.299999999999999822e+00,1.639371248792935848e+09,3.645596158736607445e-02,-3.044724009425465311e-02,0.000000000000000000e+00,-6.089448018850930622e-02,-3.040803904372344282e-03,-1.847683764391760269e-02,-3.631181108480293490e-02
2.316666666666666430e+00,1.639371248809892416e+09,3.386284575712014688e-02,-1.442237688675220356e-02,0.000000000000000000e+00,-2.884475377350440711e-02,1.374463850137861397e-02,-1.907711269942936536e-02,-3.572283166904739737e-02
2.333333333333333481e+00,1.639371248826845407e+09,3.117638007939528555e-02,-1.442237688675220356e-02,0.000000000000000000e+00,-2.884475377350440711e-02,3.067181233659656975e-02,-1.966531479177969707e-02,-3.486380565253299063e-02
2.350000000000000089e+00,1.639371248843800068e+09,2.840980996103617193e-02,-1.442237688675220356e-02,0.000000000000000000e+00,-2.884475377350440711e-02,4.755939691690760918e-02,-2.023698591134816607e-02,-3.373985086579526366e-02
2.366666666666666696e+00,1.639371248860755205e+09,2.557726091554936645e-02,-1.442237688675220356e-02,0.000000000000000000e+00,-2.884475377350440711e-02,6.422060497942477797e-02,-2.078777843796258268e-02,-3.235908787096963835e-02
2.383333333333333304e+00,1.639371248876713753e+09,2.269364229529148569e-02,-3.044724009425465311e-02,0.000000000000000000e+00,-6.089448018850930622e-02,8.046485958380374115e-02,-2.131571865722117071e-02,-3.099752066021856448e-02
2.399999999999999911e+00,1.639371248894663572e+09,1.977454124868960675e-02,-1.442237688675220356e-02,0.000000000000000000e+00,-2.884475377350440711e-02,9.609955529083678838e-02,-2.181678131590195774e-02,-2.913517169480303592e-02
2.416666666666666519e+00,1.639371248911618471e+09,1.683610770233069653e-02,-1.442237688675220356e-02,0.000000000000000000e+00,-2.884475377350440711e-02,1.109318890985200173e-01,-2.228501340438108699e-02,-2.705844773612777615e-02
2.433333333333333126e+00,1.639371248929572105e+09,1.389493127861644861e-02,-1.442237688675220356e-02,0.000000000000000000e+00,-2.884475377350440711e-02,1.247707456046257823e-01,-2.271700883526588111e-02,-2.478731282661175706e-02
2.450000000000000178e+00,1.639371248945529461e+09,1.096791116333341483e-02,-3.044724009425465311e-02,0.000000000000000000e+00,-6.089448018850930622e-02,1.374286199770984318e-01,-2.311193075812359790e-02,-2.260936790570664337e-02
2.466666666666666785e+00,1.639371248962483168e+09,8.072120032667426393e-03,-1.442237688675220356e-02,0.000000000000000000e+00,-2.884475377350440711e-02,1.487235615597253258e-01,-2.346708099273603007e-02,-2.001586459321132855e-02
2.483333333333333393e+00,1.639371248979438305e+09,5.224663234688974034e-03,-3.044724009425465311e-02,0.000000000000000000e+00,-6.089448018850930622e-02,1.584811203305023786e-01,-2.378023003132781477e-02,-1.756881755068208026e-02
2.500000000000000000e+00,1.639371248996392250e+09,2.442534495040688675e-03,-3.044724009425465311e-02,0.000000000000000000e+00,-6.089448018850930622e-02,1.665362779724354481e-01,-2.405182035750983924e-02,-1.502907659319704416e-02
2.516666666666666607e+00,1.639371249013346672e+09,-2.575305205607797128e-04,-3.044724009425465311e-02,0.000000000000000000e+00,-6.089448018850930622e-02,1.727353450186657202e-01,-2.428057623978850318e-02,-1.242885229551152909e-02
2.533333333333333215e+00,1.639371249030301571e+09,-2.859201404244781329e-03,-1.442237688675220356e-02,0.000000000000000000e+00,-2.884475377350440711e-02,1.769378054018256596e-01,-2.446356038668931476e-02,-9.537277673359493418e-03
2.549999999999999822e+00,1.639371249046257973e+09,-5.346699544934753467e-03,-3.044724009425465311e-02,0.000000000000000000e+00,-6.089448018850930622e-02,1.790180897760375034e-01,-2.460067704113694589e-02,-6.923980190882148347e-03
2.566666666666666430e+00,1.639371249064209938e+09,-7.704942566479453837e-03,-3.044724009425465311e-02,0.000000000000000000e+00,-6.089448018850930622e-02,1.788672591920973665e-01,-2.469462052029104335e-02,-4.356369726764007175e-03
2.583333333333333481e+00,1.639371249080167532e+09,-9.919685215361335670e-03,-1.442237688675220356e-02,0.000000000000000000e+00,-2.884475377350440711e-02,1.763945810937589120e-01,-2.474425329677887656e-02,-1.607200213492728305e-03
2.600000000000000089e+00,1.639371249099117279e+09,-1.197765525567102106e-02,-3.044724009425465311e-02,0.000000000000000000e+00,-6.089448018850930622e-02,1.715289801655813795e-01,-2.475133169937394559e-02,7.512405236244526323e-04
2.616666666666666696e+00,1.639371249115074396e+09,-1.386668295159287738e-02,-3.044724009425465311e-02,0.000000000000000000e+00,-6.089448018850930622e-02,1.642203472989913760e-01,-2.472043797738012957e-02,2.949898588376248607e-03
2.633333333333333304e+00,1.639371249134023190e+09,-1.557582275550270338e-02,-1.442237688675220356e-02,0.000000000000000000e+00,-2.884475377350440711e-02,1.544406908497045761e-01,-2.465234104298246604e-02,5.215440220027789398e-03
2.649999999999999911e+00,1.639371249150978327e+09,-1.709546587281680907e-02,-1.442237688675220356e-02,0.000000000000000000e+00,-2.884475377350440711e-02,1.421851154316170762e-01,-2.454849074532313921e-02,7.240968898116208544e-03
2.666666666666666519e+00,1.639371249165938377e+09,-1.841744244266108402e-02,-1.442237688675220356e-02,0.000000000000000000e+00,-2.884475377350440711e-02,1.274726147232159157e-01,-2.441319350133299565e-02,8.989842284733791725e-03
2.683333333333333126e+00,1.639371249183856964e+09,-1.953511215578495469e-02,-3.044724009425465311e-02,0.000000000000000000e+00,-6.089448018850930622e-02,1.103466661443412156e-01,-2.425356872949592166e-02,1.016187461373149400e-02
2.700000000000000178e+00,1.639371249200846434e+09,-2.044344222731882960e-02,-3.044724009425465311e-02,0.000000000000000000e+00,-6.089448018850930622e-02,9.087561678425641609e-02,-2.407726131825208699e-02,1.099270681398768768e-02
2.716666666666666785e+00,1.639371249217799664e+09,-2.113907175116800513e-02,-1.442237688675220356e-02,0.000000000000000000e+00,-2.884475377350440711e-02,6.915285161519335588e-02,-2.388800845569072698e-02,1.171562853023368211e-02
2.733333333333333393e+00,1.639371249235751867e+09,-2.162036158412561360e-02,-3.044724009425465311e-02,0.000000000000000000e+00,-6.089448018850930622e-02,4.529673679656248675e-02,-2.369231512875119572e-02,1.176742681499928084e-02
2.750000000000000000e+00,1.639371249251676559e+09,-2.188742904007846130e-02,-3.044724009425465311e-02,0.000000000000000000e+00,-6.089448018850930622e-02,1.945033274983962168e-02,-2.349933556969405202e-02,1.139116546686855420e-02
2.766666666666666607e+00,1.639371249267666340e+09,-2.194216681675546093e-02,-3.044724009425465311e-02,0.000000000000000000e+00,-6.089448018850930622e-02,-8.219126352014757830e-03,-2.331639678319801998e-02,1.056378723960136462e-02
2.783333333333333215e+00,1.639371249285618544e+09,-2.178824572797953898e-02,-1.442237688675220356e-02,0.000000000000000000e+00,-2.884475377350440711e-02,-3.752098800015990498e-02,-2.314896718157898048e-02,9.530634889867122331e-03
2.799999999999999822e+00,1.639371249303570032e+09,-2.143110097186329277e-02,-3.044724009425465311e-02,0.000000000000000000e+00,-6.089448018850930622e-02,-6.824217089761330790e-02,-2.300507067348373305e-02,7.741914865240742682e-03
2.816666666666666430e+00,1.639371249319526911e+09,-2.087790182828273486e-02,-3.044724009425465311e-02,0.000000000000000000e+00,-6.089448018850930622e-02,-1.001483857358777679e-01,-2.289514600921034593e-02,5.455396437131816365e-03
2.833333333333333481e+00,1.639371249336483717e+09,-2.013750484561770138e-02,-1.442237688675220356e-02,0.000000000000000000e+00,-2.884475377350440711e-02,-1.329855821474766053e-01,-2.282533629819026577e-02,2.928787408874587803e-03
2.850000000000000089e+00,1.639371249353436708e+09,-1.922039074545230444e-02,-1.442237688675220356e-02,0.000000000000000000e+00,-2.884475377350440711e-02,-1.664816146312473599e-01,-2.280191424986166213e-02,-1.097011647540071209e-04
2.866666666666666696e+00,1.639371249370391607e+09,-1.813858544292255848e-02,-1.442237688675220356e-02,0.000000000000000000e+00,-2.884475377350440711e-02,-2.003481181162493352e-01,-2.283339165856205361e-02,-3.657732006103640941e-03
2.883333333333333304e+00,1.639371249386348486e+09,-1.690556574788095942e-02,-3.044724009425465311e-02,0.000000000000000000e+00,-6.089448018850930622e-02,-2.342825817376536224e-01,-2.293041326597797247e-02,-7.972874095886192669e-03
2.899999999999999911e+00,1.639371249404300690e+09,-1.553615047621804794e-02,-3.044724009425465311e-02,0.000000000000000000e+00,-6.089448018850930622e-02,-2.679706073637521668e-01,-2.310341090555385890e-02,-1.277350724727708414e-02
2.916666666666666519e+00,1.639371249421261787e+09,-1.404637785973575533e-02,-1.442237688675220356e-02,0.000000000000000000e+00,-2.884475377350440711e-02,-3.010883374566506454e-01,-2.335811690710973970e-02,-1.777731315144458202e-02
2.933333333333333126e+00,1.639371249438209772e+09,-1.245337029513422442e-02,-1.442237688675220356e-02,0.000000000000000000e+00,-2.884475377350440711e-02,-3.333050349892862085e-01,-2.369997833190524983e-02,-2.323090859124971042e-02
2.950000000000000178e+00,1.639371249454167128e+09,-1.077518761622874195e-02,-3.044724009425465311e-02,0.000000000000000000e+00,-6.089448018850930622e-02,-3.642857963967566226e-01,-2.413847220103378793e-02,-2.937129866363802702e-02
2.966666666666666785e+00,1.639371249471121550e+09,-9.030670206797436136e-03,-3.044724009425465311e-02,0.000000000000000000e+00,-6.089448018850930622e-02,-3.936943769283579031e-01,-2.468251971877851239e-02,-3.589627809627017607e-02
2.983333333333333393e+00,1.639371249491070032e+09,-7.239273392892240505e-03,-1.442237688675220356e-02,0.000000000000000000e+00,-2.884475377350440711e-02,-4.211961063052016008e-01,-2.533600085080069814e-02,-4.250310501744722358e-02
3.000000000000000000e+00,1.639371249510981083e+09,-5.420894661569344332e-03,-1.442237688675220356e-02,0.000000000000000000e+00,-2.884475377350440711e-02,-4.464608712926783074e-01,-2.610217280855799127e-02,-4.941832052934710257e-02
3.016666666666666607e+00,1.639371249524977684e+09,-3.595695346444747770e-03,-3.044724009425465311e-02,0.000000000000000000e+00,-6.089448018850930622e-02,-4.691661406822060232e-01,-2.698799265040280684e-02,-5.685939036710996319e-02
3.033333333333333215e+00,1.639371249541932344e+09,-1.783918498058692384e-03,-1.442237688675220356e-02,0.000000000000000000e+00,-2.884475377350440711e-02,-4.890000072558073341e-01,-2.799732866004363968e-02,-6.424042742651178695e-02
3.049999999999999822e+00,1.639371249559885979e+09,-5.704717674577368301e-06,-3.044724009425465311e-02,0.000000000000000000e+00,-6.089448018850930622e-02,-5.056642205922226019e-01,-2.913317751304942207e-02,-7.203976958494728855e-02
3.066666666666666430e+00,1.639371249575843096e+09,1.719092224045665456e-03,-1.442237688675220356e-02,0.000000000000000000e+00,-2.884475377350440711e-02,-5.188771840744809127e-01,-3.039754977200545202e-02,-7.966372334201181349e-02
3.083333333333333481e+00,1.639371249592797279e+09,3.371088137769112040e-03,-1.442237688675220356e-02,0.000000000000000000e+00,-2.884475377350440711e-02,-5.283768891848246163e-01,-3.178924700662541514e-02,-8.731868054191813111e-02
3.100000000000000089e+00,1.639371249609750986e+09,4.931547684680875898e-03,-3.044724009425465311e-02,0.000000000000000000e+00,-6.089448018850930622e-02,-5.339237601301034530e-01,-3.331044905342062101e-02,-9.520366183219555745e-02
3.116666666666666696e+00,1.639371249626705885e+09,6.382558327362719379e-03,-3.044724009425465311e-02,0.000000000000000000e+00,-6.089448018850930622e-02,-5.353033820340376003e-01,-3.496216893156935818e-02,-1.029811189895183665e-01
3.133333333333333304e+00,1.639371249643660307e+09,7.707197159251318562e-03,-1.442237688675220356e-02,0.000000000000000000e+00,-2.884475377350440711e-02,-5.323290863647295312e-01,-3.673981469610607814e-02,-1.103159976125063363e-01
3.149999999999999911e+00,1.639371249660614967e+09,8.889688862662281643e-03,-3.044724009425465311e-02,0.000000000000000000e+00,-6.089448018850930622e-02,-5.248443679370967674e-01,-3.863987490965557769e-02,-1.176707975328126904e-01
3.166666666666666519e+00,1.639371249677569389e+09,9.915553117561282451e-03,-3.044724009425465311e-02,0.000000000000000000e+00,-6.089448018850930622e-02,-5.127251087391055950e-01,-4.065982535511443452e-02,-1.247037195679098348e-01
3.183333333333333126e+00,1.639371249694523811e+09,1.077173987408301323e-02,-3.044724009425465311e-02,0.000000000000000000e+00,-6.089448018850930622e-02,-4.958815849740328963e-01,-4.279369334121733287e-02,-1.313419986662783812e-01
3.200000000000000178e+00,1.639371249711480141e+09,1.144675101049725738e-02,-3.044724009425465311e-02,0.000000000000000000e+00,-6.089448018850930622e-02,-4.742602350828916125e-01,-4.503429607823627306e-02,-1.375131871822118934e-01
3.216666666666666785e+00,1.639371249728434563e+09,1.193074702399977462e-02,-3.044724009425465311e-02,0.000000000000000000e+00,-6.089448018850930622e-02,-4.478451681036275112e-01,-4.737325112731883420e-02,-1.431457722697606905e-01
3.233333333333333393e+00,1.639371249746385574e+09,1.221563754323496710e-02,-3.044724009425465311e-02,0.000000000000000000e+00,-6.089448018850930622e-02,-4.166593935268664839e-01,-4.980099722431907683e-02,-1.481698033997791430e-01
3.250000000000000000e+00,1.639371249761346102e+09,1.229515460754122998e-02,-3.044724009425465311e-02,0.000000000000000000e+00,-6.089448018850930622e-02,-3.807657558098102579e-01,-5.230682560464839509e-02,-1.525175249511842301e-01
3.266666666666666607e+00,1.639371249779298306e+09,1.216490782706636242e-02,-3.044724009425465311e-02,0.000000000000000000e+00,-6.089448018850930622e-02,-3.402675588965671793e-01,-5.487892187019930562e-02,-1.561240086688136797e-01
3.283333333333333215e+00,1.639371249795255661e+09,1.182242071850285979e-02,-3.044724009425465311e-02,0.000000000000000000e+00,-6.089448018850930622e-02,-2.953088684487287785e-01,-5.750441835162235088e-02,-1.589277806631070322e-01
3.299999999999999822e+00,1.639371249813207626e+09,1.126714770142718883e-02,-3.044724009425465311e-02,0.000000000000000000e+00,-6.089448018850930622e-02,-2.460744819971562580e-01,-6.016945682987353411e-02,-1.608714375530460317e-01
3.316666666666666430e+00,1.639371249830127954e+09,1.050047143822721400e-02,-3.044724009425465311e-02,0.000000000000000000e+00,-6.089448018850930622e-02,-1.927895598652360487e-01,-6.285926139073173824e-02,-1.619022463248460109e-01
3.333333333333333481e+00,1.639371249847117186e+09,9.525680404288286787e-03,-3.044724009425465311e-02,0.000000000000000000e+00,-6.089448018850930622e-02,-1.357189124649681722e-01,-6.555822109566916689e-02,-1.619727224958956435e-01
3.350000000000000089e+00,1.639371249865034342e+09,8.347926782423834360e-03,-3.044724009425465311e-02,0.000000000000000000e+00,-6.089448018850930622e-02,-7.516594240790244741e-02,-6.824998206281504554e-02,-1.610411812371190521e-01
3.366666666666666696e+00,1.639371249882022619e+09,6.974164984252996524e-03,-1.442237688675220356e-02,0.000000000000000000e+00,-2.884475377350440711e-02,-1.147124278038381268e-02,-7.091533510146157127e-02,-1.588073885262581142e-01
3.383333333333333304e+00,1.639371249898977041e+09,5.413071309162734678e-03,-3.044724009425465311e-02,0.000000000000000000e+00,-6.089448018850930622e-02,5.498914411765235682e-02,-7.353680061445956595e-02,-1.557768912795368110e-01
3.399999999999999911e+00,1.639371249915931463e+09,3.674945456365678528e-03,-3.044724009425465311e-02,0.000000000000000000e+00,-6.089448018850930622e-02,1.238058003034260002e-01,-7.609867142291414088e-02,-1.516590444675960381e-01
3.416666666666666519e+00,1.639371249932852983e+09,1.771594805160299577e-03,-1.442237688675220356e-02,0.000000000000000000e+00,-2.884475377350440711e-02,1.945383276848119125e-01,-7.858049723614848880e-02,-1.461752861410607063e-01
3.433333333333333126e+00,1.639371249949841261e+09,-2.837974294129831654e-04,-3.044724009425465311e-02,0.000000000000000000e+00,-6.089448018850930622e-02,2.667180525234019162e-01,-8.096392835920206144e-02,-1.398540081441880245e-01
3.449999999999999734e+00,1.639371249967792988e+09,-2.476818875908279489e-03,-3.044724009425465311e-02,0.000000000000000000e+00,-6.089448018850930622e-02,3.398510227666765027e-01,-8.323277678470424046e-02,-1.324284300074788090e-01
3.466666666666666785e+00,1.639371249982719898e+09,-4.791988060523798276e-03,-3.044724009425465311e-02,0.000000000000000000e+00,-6.089448018850930622e-02,4.134212794467914676e-01,-8.536872963858989360e-02,-1.239095764977175412e-01
3.483333333333333393e+00,1.639371249999674559e+09,-7.212926218664885390e-03,-3.044724009425465311e-02,0.000000000000000000e+00,-6.089448018850930622e-02,4.868943806718783462e-01,-8.735373008754145074e-02,-1.143171237058055872e-01
3.500000000000000000e+00,1.639371250016629219e+09,-9.722539105511305083e-03,-3.044724009425465311e-02,0.000000000000000000e+00,-6.089448018850930622e-02,5.597211541995408268e-01,-8.917012236736235331e-02,-1.036794995242299178e-01
3.516666666666666607e+00,1.639371250034581423e+09,-1.230320692309366283e-02,-3.044724009425465311e-02,0.000000000000000000e+00,-6.089448018850930622e-02,6.313416522055975699e-01,-9.080079792586233378e-02,-9.203391709720756819e-02
3.533333333333333215e+00,1.639371250051536322e+09,-1.493698037629306689e-02,-3.044724009425465311e-02,0.000000000000000000e+00,-6.089448018850930622e-02,7.011892796669929595e-01,-9.222934154841064269e-02,-7.942633948178028092e-02
3.549999999999999822e+00,1.639371250069488049e+09,-1.760578078534208099e-02,-3.044724009425465311e-02,0.000000000000000000e+00,-6.089448018850930622e-02,7.686950657883349081e-01,-9.344017630941703345e-02,-6.591137429253920987e-02
3.566666666666666430e+00,1.639371250087472439e+09,-2.029160211900100583e-02,-3.044724009425465311e-02,0.000000000000000000e+00,-6.089448018850930622e-02,8.332920461368937826e-01,-9.441870617718048364e-02,-5.155209765739844630e-02
3.583333333333333481e+00,1.639371250105424881e+09,-2.297671277156369124e-02,-1.442237688675220356e-02,0.000000000000000000e+00,-2.884475377350440711e-02,8.944197216302642861e-01,-9.514924173100304527e-02,-3.615493969118402373e-02
3.600000000000000089e+00,1.639371250121348143e+09,-2.564385488893348650e-02,-3.044724009425465311e-02,0.000000000000000000e+00,-6.089448018850930622e-02,9.515285592609560306e-01,-9.561961010948268058e-02,-2.033321599325937229e-02
3.616666666666666696e+00,1.639371250138302803e+09,-2.827643905469364588e-02,-3.044724009425465311e-02,0.000000000000000000e+00,-6.089448018850930622e-02,1.004084498458296837e+00,-9.582120934482279972e-02,-3.904329118518547193e-03
3.633333333333333304e+00,1.639371250155289650e+09,-3.085873217659663645e-02,-1.442237688675220356e-02,0.000000000000000000e+00,-2.884475377350440711e-02,1.051573426292832014e+00,-9.574249040845964065e-02,1.330280276855295984e-02
3.649999999999999911e+00,1.639371250171272755e+09,-3.337603646720362083e-02,-3.044724009425465311e-02,0.000000000000000000e+00,-6.089448018850930622e-02,1.093505584332692848e+00,-9.537578426979816115e-02,3.065373570053211982e-02
3.666666666666666519e+00,1.639371250189223051e+09,-3.581485748923745466e-02,-3.044724009425465311e-02,0.000000000000000000e+00,-6.089448018850930622e-02,1.129419869873212745e+00,-9.471733193607882739e-02,4.831149386312875299e-02
3.683333333333333126e+00,1.639371250206176758e+09,-3.816305933602064104e-02,-3.044724009425465311e-02,0.000000000000000000e+00,-6.089448018850930622e-02,1.158887994486185846e+00,-9.376295237927571857e-02,6.616446021285783685e-02
3.699999999999999734e+00,1.639371250223131418e+09,-4.041000513936293670e-02,-3.044724009425465311e-02,0.000000000000000000e+00,-6.089448018850930622e-02,1.181518463376459049e+00,-9.251036351227573395e-02,8.409639173389457656e-02
3.716666666666666785e+00,1.639371250240086317e+09,-4.254668124040780763e-02,-3.044724009425465311e-02,0.000000000000000000e+00,-6.089448018850930622e-02,1.196960339891706804e+00,-9.095925304756499741e-02,1.019871662658080325e-01
3.733333333333333393e+00,1.639371250257040977e+09,-4.456580352191965438e-02,-3.044724009425465311e-02,0.000000000000000000e+00,-6.089448018850930622e-02,1.204906760703497115e+00,-8.911133652642014291e-02,1.197135750881505450e-01
3.750000000000000000e+00,1.639371250274993181e+09,-4.646190458180683019e-02,-3.044724009425465311e-02,0.000000000000000000e+00,-6.089448018850930622e-02,1.205098168659485491e+00,-8.697040180130535814e-02,1.371501558391229336e-01
3.766666666666666607e+00,1.639371250290950537e+09,-4.823140062556197094e-02,-3.044724009425465311e-02,0.000000000000000000e+00,-6.089448018850930622e-02,1.197325232089611946e+00,-8.454233934811888895e-02,1.541700599191924148e-01
3.783333333333333215e+00,1.639371250307903767e+09,-4.987263716782366907e-02,-3.044724009425465311e-02,0.000000000000000000e+00,-6.089448018850930622e-02,1.181431421423249750e+00,-8.183515788563502924e-02,1.706459481455251392e-01
3.799999999999999822e+00,1.639371250324860096e+09,-5.138591285829108291e-02,-3.044724009425465311e-02,0.000000000000000000e+00,-6.089448018850930622e-02,1.157315216326098906e+00,-7.885898488622974933e-02,1.864509080833172683e-01
3.816666666666666430e+00,1.639371250341813803e+09,-5.277348098246405911e-02,-3.044724009425465311e-02,0.000000000000000000e+00,-6.089448018850930622e-02,1.124931919179531725e+00,-7.562605167397430661e-02,2.014593861891497695e-01
3.833333333333333481e+00,1.639371250358768702e+09,-5.403952843068443590e-02,-3.044724009425465311e-02,0.000000000000000000e+00,-6.089448018850930622e-02,1.084295053582897905e+00,-7.215066292259260383e-02,2.155481276625787757e-01
3.850000000000000089e+00,1.639371250374726534e+09,-5.519013217719300618e-02,-3.044724009425465311e-02,0.000000000000000000e+00,-6.089448018850930622e-02,1.035477329640439592e+00,-6.844915048571216520e-02,2.285971167181347630e-01
3.866666666666666696e+00,1.639371250393676281e+09,-5.623319356171359307e-02,-3.044724009425465311e-02,0.000000000000000000e+00,-6.089448018850930622e-02,9.786111610761121238e-01,-6.453981161436191105e-02,2.404905098631487936e-01
3.883333333333333304e+00,1.639371250408634901e+09,-5.717835091675403658e-02,-3.044724009425465311e-02,0.000000000000000000e+00,-6.089448018850930622e-02,9.138887226770663341e-01,-6.044283174081004073e-02,2.511175546993104635e-01
3.899999999999999911e+00,1.639371250426587105e+09,-5.803687133160789074e-02,-3.044724009425465311e-02,0.000000000000000000e+00,-6.089448018850930622e-02,8.415615401731300071e-01,-5.618019213259413391e-02,2.603734867590757895e-01
3.916666666666666519e+00,1.639371250443542004e+09,-5.882152258621885232e-02,-3.044724009425465311e-02,0.000000000000000000e+00,-6.089448018850930622e-02,7.619396083869151015e-01,-5.177556284495070382e-02,2.681603969429767198e-01
3.933333333333333126e+00,1.639371250460497379e+09,-5.954642652189243157e-02,-3.044724009425465311e-02,0.000000000000000000e+00,-6.089448018850930622e-02,6.753900373075809593e-01,-4.725418152277218592e-02,2.743880622410203030e-01
3.949999999999999734e+00,1.639371250477451086e+09,-6.022689533865188682e-02,-3.044724009425465311e-02,0.000000000000000000e+00,-6.089448018850930622e-02,5.823352296197543687e-01,-4.264271872366751093e-02,2.789747326006739581e-01
3.966666666666666785e+00,1.639371250494405508e+09,-6.087925251824236050e-02,-3.044724009425465311e-02,0.000000000000000000e+00,-6.089448018850930622e-02,4.832505971257841648e-01,-3.796913055064774639e-02,2.818478670448463785e-01
3.983333333333333393e+00,1.639371250511360884e+09,-6.152064026490951937e-02,-3.044724009425465311e-02,0.000000000000000000e+00,-6.089448018850930622e-02,3.786618274017672925e-01,-3.326249949538254841e-02,2.829448124447063728e-01
4.000000000000000000e+00,1.639371250533248425e+09,-6.216881553080304268e-02,-3.044724009425465311e-02,0.000000000000000000e+00,-6.089448018850930622e-02,2.691417158927615350e-01,-2.855286449988132455e-02,2.822134187125135973e-01
4.016666666666666607e+00,1.639371250547242403e+09,-6.284193684699099225e-02,-3.044724009425465311e-02,0.000000000000000000e+00,-6.089448018850930622e-02,1.553065824468780887e-01,-2.387104134488141072e-02,2.796125845967240564e-01
4.033333333333333215e+00,1.639371250563199997e+09,-6.355834431267118334e-02,-3.044724009425465311e-02,0.000000000000000000e+00,-6.089448018850930622e-02,3.781229497888131952e-02,-1.924843456625018739e-02,2.751127287328365978e-01
4.049999999999999822e+00,1.639371250579212427e+09,-6.433633520246431758e-02,-3.044724009425465311e-02,0.000000000000000000e+00,-6.089448018850930622e-02,-8.265007349134298464e-02,-1.471684218545356131e-02,2.686961811256133315e-01
4.066666666666666430e+00,1.639371250596167088e+09,-6.519393773315818041e-02,-3.044724009425465311e-02,0.000000000000000000e+00,-6.089448018850930622e-02,-2.053589247933751138e-01,-1.030825461579015952e-02,2.603574908078227779e-01
4.083333333333333037e+00,1.639371250613123655e+09,-6.614868558570392854e-02,-3.044724009425465311e-02,0.000000000000000000e+00,-6.089448018850930622e-02,-3.295671197337797231e-01,-6.054649171883954607e-03,2.501036460334493117e-01
4.099999999999999645e+00,1.639371250630075455e+09,-6.721739580464183850e-02,-3.044724009425465311e-02,0.000000000000000000e+00,-6.089448018850930622e-02,-4.545072306170920284e-01,-1.987781665184083259e-03,2.379542040148936721e-01
4.116666666666666252e+00,1.639371250648028374e+09,-6.841595269479804065e-02,-3.044724009425465311e-02,0.000000000000000000e+00,-6.089448018850930622e-02,-5.793970236777011840e-01,1.861023387666410969e-03,2.239413278991772560e-01
4.133333333333332860e+00,1.639371250664983988e+09,-6.975910030364655678e-02,-3.044724009425465311e-02,0.000000000000000000e+00,-6.089448018850930622e-02,-7.034451305200254412e-01,5.461082384282596111e-03,2.081097293923230840e-01
4.150000000000000355e+00,1.639371250681938648e+09,-7.126024601710082007e-02,-3.044724009425465311e-02,0.000000000000000000e+00,-6.089448018850930622e-02,-8.258568655510153400e-01,8.782560504147413072e-03,1.905165161783704264e-01
4.166666666666666963e+00,1.639371250698892593e+09,-7.293127770693168255e-02,-3.044724009425465311e-02,0.000000000000000000e+00,-6.089448018850930622e-02,-9.458401446050589412e-01,1.179667623679615807e-02,1.712309440340664402e-01
4.183333333333333570e+00,1.639371250716847897e+09,-7.478239675007734844e-02,-3.044724009425465311e-02,0.000000000000000000e+00,-6.089448018850930622e-02,-1.062611458525241748e+00,1.447590098774317532e-02,1.503340743061278295e-01
4.200000000000000178e+00,1.639371250732804775e+09,-7.682196909466257329e-02,-3.044724009425465311e-02,0.000000000000000000e+00,-6.089448018850930622e-02,-1.175401854394521717e+00,1.679415219687501945e-02,1.279183381888497062e-01
4.216666666666666785e+00,1.639371250748761892e+09,-7.905639637580776091e-02,-3.044724009425465311e-02,0.000000000000000000e+00,-6.089448018850930622e-02,-1.283462876418441923e+00,1.872697843442827290e-02,1.040870100094181822e-01
4.233333333333333393e+00,1.639371250765713692e+09,-8.149000888773484663e-02,-3.044724009425465311e-02,0.000000000000000000e+00,-6.089448018850930622e-02,-1.386072418159428610e+00,2.025173498282581766e-02,7.895359249012591507e-02
4.250000000000000000e+00,1.639371250784663200e+09,-8.412498199907607332e-02,-3.044724009425465311e-02,0.000000000000000000e+00,-6.089448018850930622e-02,-1.482540437918367759e+00,2.134774846837990750e-02,5.264111770436145227e-02
4.266666666666666607e+00,1.639371250800620794e+09,-8.696127735770342593e-02,-3.044724009425465311e-02,0.000000000000000000e+00,-6.089448018850930622e-02,-1.572214489556901462e+00,2.199646917489408299e-02,2.528136817032801409e-02
4.283333333333333215e+00,1.639371250817576170e+09,-8.999660997213905500e-02,-3.044724009425465311e-02,0.000000000000000000e+00,-6.089448018850930622e-02,-1.654485021954775092e+00,2.218160975111298228e-02,-2.985976773374716259e-03
4.299999999999999822e+00,1.639371250834529400e+09,-9.322644198123522519e-02,-3.044724009425465311e-02,0.000000000000000000e+00,-6.089448018850930622e-02,-1.728790401598026882e+00,2.188926911527914673e-02,-3.201426349907890434e-02
4.316666666666666430e+00,1.639371250851483822e+09,-9.664400363506932268e-02,-3.044724009425465311e-02,0.000000000000000000e+00,-6.089448018850930622e-02,-1.794621614490375716e+00,2.110804046215784130e-02,-6.165084908903476629e-02
4.333333333333333037e+00,1.639371250867441654e+09,-1.002403417108587713e-01,-3.044724009425465311e-02,0.000000000000000000e+00,-6.089448018850930622e-02,-1.851526605662700220e+00,1.982910239008541659e-02,-9.173814177957825833e-02
4.349999999999999645e+00,1.639371250885393381e+09,-1.040043952812338968e-01,-3.044724009425465311e-02,0.000000000000000000e+00,-6.089448018850930622e-02,-1.899114217011091066e+00,1.804629228709209166e-02,-1.221146892950073504e-01
4.366666666666666252e+00,1.639371250903346777e+09,-1.079230984416554157e-01,-3.044724009425465311e-02,0.000000000000000000e+00,-6.089448018850930622e-02,-1.937057687007331941e+00,1.575616124506622195e-02,-1.526163070380079367e-01
4.383333333333332860e+00,1.639371250920334578e+09,-1.119815092924601047e-01,-3.044724009425465311e-02,0.000000000000000000e+00,-6.089448018850930622e-02,-1.965097678977264506e+00,1.295800990830373381e-02,-1.830772376857707773e-01
4.400000000000000355e+00,1.639371250936247587e+09,-1.161629641622906328e-01,-3.044724009425465311e-02,0.000000000000000000e+00,-6.089448018850930622e-02,-1.983044808110465018e+00,9.653904806587749327e-03,-2.133313333874667928e-01
4.416666666666666963e+00,1.639371250954210281e+09,-1.204492557569730726e-01,-3.044724009425465311e-02,0.000000000000000000e+00,-6.089448018850930622e-02,-1.990781641123723578e+00,5.848674872068155423e-03,-2.432132514732468498e-01
4.433333333333333570e+00,1.639371250970133543e+09,-1.248208336245942296e-01,-3.044724009425465311e-02,0.000000000000000000e+00,-6.089448018850930622e-02,-1.988264146523182951e+00,1.549887992498836381e-03,-2.725596543706348407e-01
4.450000000000000178e+00,1.639371250989116192e+09,-1.292570250469150805e-01,-3.044724009425465311e-02,0.000000000000000000e+00,-6.089448018850930622e-02,-1.975522577665135726e+00,-3.232192390367403384e-03,-3.012104042837584483e-01
4.466666666666666785e+00,1.639371251005073071e+09,-1.337362742026577955e-01,-3.044724009425465311e-02,0.000000000000000000e+00,-6.089448018850930622e-02,-1.952661775270721156e+00,-8.484670470478204718e-03,-3.290097431263972472e-01
4.483333333333333393e+00,1.639371251022028685e+09,-1.382363972026457999e-01,-3.044724009425465311e-02,0.000000000000000000e+00,-6.089448018850930622e-02,-1.919860880669985059e+00,-1.419210073015201613e-02,-3.558074482127940863e-01
4.500000000000000000e+00,1.639371251038982391e+09,-1.427348503733160689e-01,-4.647210330175770288e-02,0.000000000000000000e+00,-9.294420660351540575e-02,-1.877372455799549700e+00,-2.033880293519318982e-02,-3.817248219927746877e-01
4.516666666666666607e+00,1.639371251056934834e+09,-1.472090089664614132e-01,-3.044724009425465311e-02,0.000000000000000000e+00,-6.089448018850930622e-02,-1.825521010817000578e+00,-2.690450653974665873e-02,-4.060919225700754809e-01
4.533333333333333215e+00,1.639371251072893143e+09,-1.516364533018104144e-01,-4.647210330175770288e-02,0.000000000000000000e+00,-9.294420660351540575e-02,-1.764700945084637151e+00,-3.386677575544067009e-02,-4.293158708274880664e-01
4.549999999999999822e+00,1.639371251088849545e+09,-1.559952592074481115e-01,-6.249696650926014896e-02,0.000000000000000000e+00,-1.249939330185202979e-01,-1.695373912175171638e+00,-4.120554094982802062e-02,-4.512749536111745896e-01
4.566666666666666430e+00,1.639371251106800795e+09,-1.602642895131879963e-01,-7.852182971676319179e-02,0.000000000000000000e+00,-1.570436594335263836e-01,-1.618065624421078708e+00,-4.889879336062873810e-02,-4.718581587693378987e-01
4.583333333333333037e+00,1.639371251123758554e+09,-1.644234832754847275e-01,-7.852182971676319179e-02,0.000000000000000000e+00,-1.570436594335263836e-01,-1.533362117326751317e+00,-5.692055693750082412e-02,-4.907011276431910707e-01
4.599999999999999645e+00,1.639371251141709566e+09,-1.684541393707450763e-01,-7.852182971676319179e-02,0.000000000000000000e+00,-1.570436594335263836e-01,-1.441905498846971501e+00,-6.524113536156220250e-02,-5.077210046951919908e-01
4.616666666666666252e+00,1.639371251157665491e+09,-1.723391910879079891e-01,-7.852182971676319179e-02,0.000000000000000000e+00,-1.570436594335263836e-01,-1.344389213066063515e+00,-7.382955861119619434e-02,-5.228477654919384543e-01
4.633333333333332860e+00,1.639371251175617218e+09,-1.760634683816797996e-01,-7.852182971676319179e-02,0.000000000000000000e+00,-1.570436594335263836e-01,-1.241552852149534925e+00,-8.265380141554472260e-02,-5.360247673853615336e-01
4.650000000000000355e+00,1.639371251192572594e+09,-1.796139445149826930e-01,-7.852182971676319179e-02,0.000000000000000000e+00,-1.570436594335263836e-01,-1.134176554545394566e+00,-9.168101003623774226e-02,-5.472091985023711525e-01
4.666666666666666963e+00,1.639371251208529949e+09,-1.829799639230192121e-01,-7.852182971676319179e-02,0.000000000000000000e+00,-1.570436594335263836e-01,-1.023075031248461553e+00,-1.008777356451734386e-01,-5.563724205761891861e-01
4.683333333333333570e+00,1.639371251225483894e+09,-1.861534482712733918e-01,-7.852182971676319179e-02,0.000000000000000000e+00,-1.570436594335263836e-01,-9.090912654725651354e-01,-1.102101724985974918e-01,-5.635002019759205449e-01
4.700000000000000178e+00,1.639371251242438793e+09,-1.891290778549245266e-01,-7.852182971676319179e-02,0.000000000000000000e+00,-1.570436594335263836e-01,-7.930899342692765419e-01,-1.196443990542131325e-01,-5.685928381534055553e-01
4.716666666666666785e+00,1.639371251259395838e+09,-1.919044456962554213e-01,-9.454669292426565175e-02,0.000000000000000000e+00,-1.890933858485313035e-01,-6.759506034570751387e-01,-1.291488335012848376e-01,-5.719300253126895495e-01
4.733333333333333393e+00,1.639371251276347399e+09,-1.944801819380234664e-01,-7.852182971676319179e-02,0.000000000000000000e+00,-1.570436594335263836e-01,-5.585607496537174921e-01,-1.386899994931053703e-01,-5.730069023103769865e-01
4.750000000000000000e+00,1.639371251294299841e+09,-1.968600464024003183e-01,-9.454669292426565175e-02,0.000000000000000000e+00,-1.890933858485313035e-01,-4.418086652115171820e-01,-1.482350522020421946e-01,-5.724011055703698281e-01
4.766666666666666607e+00,1.639371251311253786e+09,-1.990509874846345395e-01,-9.454669292426565175e-02,0.000000000000000000e+00,-1.890933858485313035e-01,-3.265763034196436654e-01,-1.577541760202852417e-01,-5.699006983578586150e-01
4.783333333333333215e+00,1.639371251328209639e+09,-2.010631658752806694e-01,-7.852182971676319179e-02,0.000000000000000000e+00,-1.570436594335263836e-01,-2.137321224396845909e-01,-1.672141722857931612e-01,-5.653116012949581659e-01
4.799999999999999822e+00,1.639371251345163345e+09,-2.029099419517224057e-01,-9.454669292426565175e-02,0.000000000000000000e+00,-1.890933858485313035e-01,-1.041239870673598134e-01,-1.765853916803821200e-01,-5.592515599002296778e-01
4.816666666666666430e+00,1.639371251362122774e+09,-2.046078260454356201e-01,-7.852182971676319179e-02,0.000000000000000000e+00,-1.570436594335263836e-01,1.427812446993766528e-03,-1.858396551716817724e-01,-5.512821966967594856e-01
4.833333333333333037e+00,1.639371251379075527e+09,-2.061763911724901754e-01,-9.454669292426565175e-02,0.000000000000000000e+00,-1.890933858485313035e-01,1.021373656407472963e-01,-1.949504999837096131e-01,-5.420448406727902402e-01
4.849999999999999645e+00,1.639371251396027565e+09,-2.076381482074041163e-01,-7.852182971676319179e-02,0.000000000000000000e+00,-1.570436594335263836e-01,1.972597131154767702e-01,-2.038933130220291490e-01,-5.311230629111588497e-01
4.866666666666666252e+00,1.639371251412981987e+09,-2.090183838806717043e-01,-9.454669292426565175e-02,0.000000000000000000e+00,-1.890933858485313035e-01,2.860971271642775426e-01,-2.126455480465286874e-01,-5.191783206493257863e-01
4.883333333333332860e+00,1.639371251429936409e+09,-2.103449623840620286e-01,-9.454669292426565175e-02,0.000000000000000000e+00,-1.890933858485313035e-01,3.680050469002561497e-01,-2.211890406843486645e-01,-5.060771887785726619e-01
4.900000000000000355e+00,1.639371251447889090e+09,-2.116480917708903897e-01,-7.852182971676319179e-02,0.000000000000000000e+00,-1.570436594335263836e-01,4.423976153502353625e-01,-2.295035021584176105e-01,-4.916981308772792048e-01
4.916666666666666963e+00,1.639371251464844704e+09,-2.129600567367039843e-01,-7.852182971676319179e-02,0.000000000000000000e+00,-1.570436594335263836e-01,5.087527687561838041e-01,-2.375711337032193060e-01,-4.764599836818204648e-01
4.933333333333333570e+00,1.639371251481798649e+09,-2.143149197549197582e-01,-7.852182971676319179e-02,0.000000000000000000e+00,-1.570436594335263836e-01,5.666168315529086508e-01,-2.453789086153647658e-01,-4.605172920724059371e-01
4.950000000000000178e+00,1.639371251498720169e+09,-2.157481929177050006e-01,-9.454669292426565175e-02,0.000000000000000000e+00,-1.890933858485313035e-01,6.156085741418466650e-01,-2.529186206113769875e-01,-4.442932153894340597e-01
4.966666666666666785e+00,1.639371251515707254e+09,-2.172964831906369354e-01,-7.852182971676319179e-02,0.000000000000000000e+00,-1.570436594335263836e-01,6.554226946312539104e-01,-2.601824596986161975e-01,-4.274143618869533090e-01
4.983333333333333393e+00,1.639371251531630754e+09,-2.189971141264075716e-01,-7.852182971676319179e-02,0.000000000000000000e+00,-1.570436594335263836e-01,6.858326901337347126e-01,-2.671631156327293755e-01,-4.103118582792239510e-01
5.000000000000000000e+00,1.639371251550613642e+09,-2.208877273941727282e-01,-7.852182971676319179e-02,0.000000000000000000e+00,-1.570436594335263836e-01,7.066930879694152123e-01,-2.738582107978212443e-01,-3.931472421432545827e-01
5.016666666666666607e+00,1.639371251566572189e+09,-2.215265626064864823e-01,-9.454669292426565175e-02,0.000000000000000000e+00,-1.890933858485313035e-01,7.179410121812607182e-01,-2.802702596058566087e-01,-3.763452880142693080e-01
5.033333333333333215e+00,1.639371251584974527e+09,-2.224131615808155882e-01,-7.852182971676319179e-02,0.000000000000000000e+00,-1.570436594335263836e-01,7.148236327194132933e-01,-2.864028137512681371e-01,-3.596077038188136288e-01
5.049999999999999822e+00,1.639371251602922201e+09,-2.235779333357784115e-01,-6.249696650926014896e-02,0.000000000000000000e+00,-1.249939330185202979e-01,7.023693757215558886e-01,-2.922582267896580710e-01,-3.430877506268854571e-01
5.066666666666666430e+00,1.639371251619880915e+09,-2.250490911307709563e-01,-4.647210330175770288e-02,0.000000000000000000e+00,-9.294420660351540575e-02,6.809467464892874355e-01,-2.978413345611636842e-01,-3.269300654689210051e-01
5.083333333333333037e+00,1.639371251637829781e+09,-2.268522917598987387e-01,-1.442237688675220356e-02,0.000000000000000000e+00,-2.884475377350440711e-02,6.509955542135146267e-01,-3.031570894369903790e-01,-3.110047576376482326e-01
5.099999999999999645e+00,1.639371251654787064e+09,-2.290102941366056744e-01,6.352743155609426040e-01,1.267343658480383439e+00,3.204972641501691987e-03,6.130226287284928910e-01,-3.081251305351677128e-01,-2.852317674679802906e-01
5.116666666666666252e+00,1.639371251672736168e+09,-2.315426407999990888e-01,6.760632191603580532e-01,1.316871739264209529e+00,3.525469905650659153e-02,5.675970146660559434e-01,-3.126678220002088726e-01,-2.599614054391655715e-01
5.133333333333332860e+00,1.639371251689690351e+09,-2.344653657759839527e-01,7.466032130039887971e-01,1.457951726951471016e+00,3.525469905650659153e-02,5.153446836659294483e-01,-3.167903052186654134e-01,-2.348064572762103841e-01
5.150000000000000355e+00,1.639371251706647396e+09,-2.377907319933693919e-01,7.319699164087675181e-01,1.428685133761028458e+00,3.525469905650659153e-02,4.569428090744136473e-01,-3.205071013693513438e-01,-2.112744490341381121e-01
5.166666666666666963e+00,1.639371251724596739e+09,-2.415270011893153046e-01,6.614299225651366632e-01,1.287605146073766749e+00,3.525469905650659153e-02,3.931136509795538081e-01,-3.238535067697016490e-01,-1.903523174080429536e-01
5.183333333333333570e+00,1.639371251741551161e+09,-2.456782389422461077e-01,6.441701368374397330e-01,1.253085574618372888e+00,3.525469905650659153e-02,3.246181024602326493e-01,-3.268659443210991111e-01,-1.711934092016842990e-01
5.200000000000000178e+00,1.639371251758509874e+09,-2.502441571466085257e-01,1.762734952825329576e-02,0.000000000000000000e+00,3.525469905650659153e-02,2.522489505439941548e-01,-3.296582470394678333e-01,-1.639031681487780889e-01
5.216666666666666785e+00,1.639371251775460720e+09,-2.552199958955838066e-01,1.762734952825329576e-02,0.000000000000000000e+00,3.525469905650659153e-02,1.768239075553135475e-01,-3.323404704165924817e-01,-1.579800904869272937e-01
5.233333333333333393e+00,1.639371251793412685e+09,-2.605964463684583010e-01,1.762734952825329576e-02,0.000000000000000000e+00,3.525469905650659153e-02,9.917847027359552592e-02,-3.349355183576686046e-01,-1.534382788824870392e-01
5.250000000000000000e+00,1.639371251812362194e+09,-2.663596159323816659e-01,1.762734952825329576e-02,0.000000000000000000e+00,3.525469905650659153e-02,2.015866559603332608e-02,-3.374664110108064330e-01,-1.502776193106111213e-01
5.266666666666666607e+00,1.639371251828319788e+09,-2.724910362673827469e-01,1.762734952825329576e-02,0.000000000000000000e+00,3.525469905650659153e-02,-5.938625779527978432e-02,-3.399560493407995931e-01,-1.484839627850684241e-01
5.283333333333333215e+00,1.639371251846251249e+09,-2.789677149127237632e-01,1.762734952825329576e-02,0.000000000000000000e+00,3.525469905650659153e-02,-1.386111319371051143e-01,-3.424269837152487117e-01,-1.480294247841001665e-01
5.299999999999999822e+00,1.639371251862194061e+09,-2.857622302158693284e-01,1.762734952825329576e-02,0.000000000000000000e+00,3.525469905650659153e-02,-2.166821065881507358e-01,-3.449011884393378136e-01,-1.488727993443426934e-01
5.316666666666666430e+00,1.639371251882141113e+09,-2.928428692466487071e-01,1.762734952825329576e-02,0.000000000000000000e+00,3.525469905650659153e-02,-2.927837616933801623e-01,-3.473998441173581919e-01,-1.509600838690743907e-01
5.333333333333333037e+00,1.639371251899095297e+09,-3.001738078226489082e-01,1.762734952825329576e-02,0.000000000000000000e+00,3.525469905650659153e-02,-3.661260373765594656e-01,-3.499431296457237717e-01,-1.542251098048472435e-01
5.349999999999999645e+00,1.639371251916049957e+09,-3.077153313815702562e-01,1.762734952825329576e-02,0.000000000000000000e+00,3.525469905650659153e-02,-4.359509250983814033e-01,-3.525500255543402295e-01,-1.585902734890662358e-01
5.366666666666666252e+00,1.639371251932007313e+09,-3.154240950362521279e-01,1.762734952825329576e-02,0.000000000000000000e+00,3.525469905650659153e-02,-5.015388656383799049e-01,-3.552381303115147437e-01,-1.639673606670604966e-01
5.383333333333332860e+00,1.639371251949959278e+09,-3.232534207622306810e-01,1.762734952825329576e-02,0.000000000000000000e+00,3.525469905650659153e-02,-5.622148020144138725e-01,-3.580234910929662728e-01,-1.702584574270449846e-01
5.400000000000000355e+00,1.639371251965976477e+09,-3.311536292998665254e-01,1.762734952825329576e-02,0.000000000000000000e+00,3.525469905650659153e-02,-6.173538383244894234e-01,-3.609204503888685522e-01,-1.773569396110799556e-01
5.416666666666666963e+00,1.639371251982872486e+09,-3.390724040068603951e-01,1.762734952825329576e-02,0.000000000000000000e+00,3.525469905650659153e-02,-6.663864587574871434e-01,-3.639415096852703368e-01,-1.851485321351654112e-01
5.433333333333333570e+00,1.639371252002819300e+09,-3.469551835758610814e-01,1.762734952825329576e-02,0.000000000000000000e+00,3.525469905650659153e-02,-7.088032646473740872e-01,-3.670972113088206146e-01,-1.935124290969338356e-01
5.450000000000000178e+00,1.639371252018831730e+09,-3.547455802389646862e-01,1.762734952825329576e-02,0.000000000000000000e+00,3.525469905650659153e-02,-7.441591914089580317e-01,-3.703960393676912211e-01,-2.023224650694083193e-01
5.466666666666666785e+00,1.639371252036783695e+09,-3.623858198192229096e-01,1.762734952825329576e-02,0.000000000000000000e+00,3.525469905650659153e-02,-7.720771714613086090e-01,-3.738443405582070334e-01,-2.114483275777767901e-01
5.483333333333333393e+00,1.639371252055732012e+09,-3.698171997613868833e-01,1.762734952825329576e-02,0.000000000000000000e+00,3.525469905650659153e-02,-7.922512137830883816e-01,-3.774462654373041959e-01,-2.207568004362602254e-01
5.500000000000000000e+00,1.639371252073684931e+09,-3.769805610823252495e-01,7.646134241981075164e-01,1.493972149339708455e+00,3.525469905650659153e-02,-8.044488755153649251e-01,-3.811005564975603610e-01,-2.177664335646250504e-01
5.516666666666666607e+00,1.639371252089641094e+09,-3.838167700278458105e-01,8.565405438347540867e-01,1.677826388613001596e+00,3.525469905650659153e-02,-8.085131059944026255e-01,-3.846932854748288388e-01,-2.133732472900173871e-01
5.533333333333333215e+00,1.639371252106595516e+09,-3.902672051085748772e-01,8.681721385642888755e-01,1.701089578072071173e+00,3.525469905650659153e-02,-8.043634487190526317e-01,-3.882112217555328537e-01,-2.087918328452260941e-01
5.549999999999999822e+00,1.639371252125550270e+09,-3.962742451143510536e-01,8.824302224262996486e-01,1.729605745796092720e+00,3.525469905650659153e-02,-7.919965919939189192e-01,-3.916497564659938146e-01,-2.038460709608921062e-01
5.566666666666666430e+00,1.639371252143476725e+09,-4.017817536750283858e-01,9.334591541429687611e-01,1.831663609229430945e+00,3.525469905650659153e-02,-7.714862642983950636e-01,-3.949966638846091338e-01,-1.977996153782005939e-01
5.583333333333333037e+00,1.639371252159400702e+09,-4.067355559461157122e-01,9.574727690684601278e-01,1.879690839080413678e+00,3.525469905650659153e-02,-7.429824757703807903e-01,-3.982363784530053019e-01,-1.909850625881697461e-01
5.599999999999999645e+00,1.639371252176387072e+09,-4.110839030502753677e-01,1.062907547100695460e+00,2.090560395144884342e+00,3.525469905650659153e-02,-7.067101125193853139e-01,-4.013438857099374535e-01,-1.819409314215491014e-01
5.616666666666666252e+00,1.639371252194341183e+09,-4.147779199999347410e-01,1.015255529982923788e+00,1.995256360909340998e+00,3.525469905650659153e-02,-6.629668957538178420e-01,-4.043024465127904588e-01,-1.731108933815443396e-01
5.633333333333332860e+00,1.639371252211260796e+09,-4.177720329613779926e-01,1.133447540944326537e+00,2.231640382832146496e+00,3.525469905650659153e-02,-6.121207228797703737e-01,-4.070917119859401856e-01,-1.616328476073186915e-01
5.650000000000000355e+00,1.639371252227255583e+09,-4.200243718953851069e-01,1.238507106243351252e+00,2.441759513430195927e+00,3.525469905650659153e-02,-5.546064127617185147e-01,-4.096688072648034251e-01,-1.476574074370949341e-01
5.666666666666666963e+00,1.639371252244206667e+09,-4.214971448222387118e-01,1.216744767717124809e+00,2.398234836377743040e+00,3.525469905650659153e-02,-4.909218821890604101e-01,-4.120091185215158380e-01,-1.332200480882481386e-01
5.683333333333333570e+00,1.639371252262158394e+09,-4.221569802077417832e-01,1.319177843883674095e+00,2.603100988710841612e+00,3.525469905650659153e-02,-4.216237852278218456e-01,-4.140870816223699014e-01,-1.161828506764632229e-01
5.700000000000000178e+00,1.639371252279114246e+09,-4.219752342494114128e-01,1.333811140478895263e+00,2.632367581901283948e+00,3.525469905650659153e-02,-3.473226515159520966e-01,-4.158711609513454088e-01,-9.795729653143868398e-02
5.716666666666666785e+00,1.639371252299058676e+09,-4.209282601556815773e-01,1.301808773835414934e+00,2.536313122199318482e+00,6.730442547151148369e-02,-2.686775636501558262e-01,-4.173475560512744376e-01,-7.926204792842200808e-02
5.733333333333333393e+00,1.639371252313986063e+09,-4.189976368526946437e-01,1.263912287781123744e+00,2.460520150090736102e+00,6.730442547151148369e-02,-1.863904175769421911e-01,-4.185088146114404606e-01,-6.014209153151961473e-02
5.750000000000000000e+00,1.639371252331970692e+09,-4.161703549199484709e-01,1.357715471083824399e+00,2.648126516696137411e+00,6.730442547151148369e-02,-1.011998133128731436e-01,-4.193293253783245134e-01,-3.837965313511972065e-02
5.766666666666666607e+00,1.639371252348928690e+09,-4.124389579441773424e-01,1.505174075235670150e+00,2.943043724999828470e+00,6.730442547151148369e-02,-1.387462634941155626e-02,-4.197577062230728462e-01,-1.309628147560042144e-02
5.783333333333333215e+00,1.639371252364886045e+09,-4.078016378866777258e-01,1.471029716513486907e+00,2.874755007555462427e+00,6.730442547151148369e-02,7.479268727688290208e-02,-4.197606589543350641e-01,1.267037798550129518e-02
5.799999999999999822e+00,1.639371252381837368e+09,-4.022622834790489099e-01,1.486038225841919136e+00,2.904772026212326885e+00,6.730442547151148369e-02,1.639929970690220951e-01,-4.193233328910130342e-01,3.973357230402829732e-02
5.816666666666666430e+00,1.639371252399791718e+09,-3.958304810919323069e-01,1.524575853042070772e+00,2.949797554197622684e+00,9.935415188651879059e-02,2.529075583750470257e-01,-4.184210878110805054e-01,6.845605074771438092e-02
5.833333333333333037e+00,1.639371252415749311e+09,-3.885214679567589591e-01,1.478690615269790953e+00,2.825977352238058238e+00,1.314038783015236689e-01,3.407151686835270255e-01,-4.170383115811280850e-01,9.739670425031726753e-02
5.849999999999999645e+00,1.639371252433701992e+09,-3.803560380575860544e-01,1.479065828003001570e+00,2.826727777704479472e+00,1.314038783015236689e-01,4.265993608514414004e-01,-4.151652742315887212e-01,1.272847533816852950e-01
5.866666666666666252e+00,1.639371252451644182e+09,-3.713604014446210688e-01,1.590285441125485866e+00,2.985067551119438001e+00,1.955033311315334810e-01,5.097555738546359905e-01,-4.127713835960267752e-01,1.598915463291253891e-01
5.883333333333332860e+00,1.639371252468610764e+09,-3.615659981489077190e-01,1.598164908522912819e+00,3.000826485914292352e+00,1.955033311315334810e-01,5.893982417782961392e-01,-4.098264614768510339e-01,1.934060100483031008e-01
5.900000000000000355e+00,1.639371252485561609e+09,-3.510092682947112408e-01,1.419454363194009971e+00,2.611355668841479183e+00,2.275530575465407879e-01,6.647677423695044219e-01,-4.063418675134706781e-01,2.246584511776479609e-01
5.916666666666666963e+00,1.639371252502481699e+09,-3.397313804085028699e-01,1.396191173734939950e+00,2.564829289923339140e+00,2.275530575465407879e-01,7.351371475518538867e-01,-4.023342098000103895e-01,2.561729321523009140e-01
5.933333333333333570e+00,1.639371252521430969e+09,-3.277779203071476410e-01,1.550028394351369077e+00,2.872503731156197393e+00,2.275530575465407879e-01,7.998187198447311852e-01,-3.977754816080983913e-01,2.907783225303238739e-01
5.950000000000000178e+00,1.639371252537388325e+09,-3.151985433094340872e-01,1.476861911375262570e+00,2.726170765203984381e+00,2.275530575465407879e-01,8.581701006252231423e-01,-3.926468228929796966e-01,3.245668640152132300e-01
5.966666666666666785e+00,1.639371252555354357e+09,-3.020465928507972686e-01,1.548902756151736781e+00,2.870252454756932803e+00,2.275530575465407879e-01,9.096001386027162683e-01,-3.869426348500544788e-01,3.598377242181955982e-01
5.983333333333333393e+00,1.639371252573325872e+09,-2.883786888879984467e-01,1.627697430126005429e+00,3.027841802705470098e+00,2.275530575465407879e-01,9.535743097257947110e-01,-3.806385138717469641e-01,3.965547989040847932e-01
6.000000000000000000e+00,1.639371252590246677e+09,-2.742542897555213521e-01,1.593553071403822408e+00,2.959553085261104055e+00,2.275530575465407879e-01,9.896196829864323252e-01,-3.737272504602744405e-01,4.326964147324498522e-01
6.016666666666666607e+00,1.639371252604210138e+09,-2.597352313760152298e-01,1.520761801160926296e+00,2.813970544775311833e+00,2.275530575465407879e-01,1.017329390199947614e+00,-3.662248453709877061e-01,4.674955294991776644e-01
6.033333333333333215e+00,1.639371252620166779e+09,-2.448852479309687469e-01,1.781268722329784504e+00,3.367034113528035721e+00,1.955033311315334810e-01,1.036366561794804131e+00,-3.581086507371071814e-01,5.063399229340402874e-01
6.049999999999999822e+00,1.639371252639117002e+09,-2.297694782629553512e-01,1.870460068513394747e+00,3.513367079480248734e+00,2.275530575465407879e-01,1.046467694909737345e+00,-3.493367004261975772e-01,5.461834353468495440e-01
6.066666666666666430e+00,1.639371252656104565e+09,-2.144539624057396343e-01,1.888470279707513244e+00,3.549387501868485728e+00,2.275530575465407879e-01,1.047445424635812472e+00,-3.399035721570153878e-01,5.856822354833894906e-01
6.083333333333333037e+00,1.639371252673025131e+09,-1.990051327221096789e-01,1.738385186423192286e+00,3.249217315299843811e+00,2.275530575465407879e-01,1.039190674019446758e+00,-3.298394561244544221e-01,6.219110504582058274e-01
6.099999999999999645e+00,1.639371252689979553e+09,-1.834893041706944228e-01,1.970641868280678999e+00,3.713730679014817238e+00,2.275530575465407879e-01,1.021674163422585213e+00,-3.191468704313776272e-01,6.610903986268501509e-01
6.116666666666666252e+00,1.639371252705971241e+09,-1.679721682219308398e-01,2.040431436657888398e+00,3.853309815769236035e+00,2.275530575465407879e-01,9.949472649780328748e-01,-3.078007592358170674e-01,7.003339324585549086e-01
6.133333333333332860e+00,1.639371252723889112e+09,-1.525182948997738652e-01,1.970266655547468382e+00,3.712980253548396004e+00,2.275530575465407879e-01,9.591421931402439593e-01,-2.958206460885007272e-01,7.371773001227004407e-01
6.150000000000000355e+00,1.639371252739848614e+09,-1.371906473401664772e-01,1.900477087170259205e+00,3.573401116793977650e+00,2.275530575465407879e-01,9.144715276731422149e-01,-2.832473749423851106e-01,7.715198392239748237e-01
6.166666666666666963e+00,1.639371252757798195e+09,-1.220501131305972570e-01,1.873571054699642024e+00,3.551638778267750762e+00,1.955033311315334810e-01,8.612270707939428949e-01,-2.701175419788000021e-01,8.039699750186161120e-01
6.183333333333333570e+00,1.639371252773791075e+09,-1.071550565284530160e-01,1.654337534183972558e+00,3.081122010821404356e+00,2.275530575465407879e-01,7.997780455625990159e-01,-2.564901234608562564e-01,8.312444828297819166e-01
6.200000000000000178e+00,1.639371252791708469e+09,-9.256089545111192973e-02,1.560159138148061064e+00,2.892765218749581368e+00,2.275530575465407879e-01,7.305686479278690193e-01,-2.424344641849420778e-01,8.553676199884665543e-01
6.216666666666666785e+00,1.639371252808696985e+09,-7.831970688964785821e-02,1.670471681712036860e+00,3.113390305877532960e+00,2.275530575465407879e-01,6.541149700699944169e-01,-2.279754079193649918e-01,8.796516745859233044e-01
6.233333333333333393e+00,1.639371252826648235e+09,-6.447986412316276950e-02,1.603308602467303334e+00,2.979064147388065908e+00,2.275530575465407879e-01,5.710013177755306479e-01,-2.131357278333789740e-01,9.010504931706512233e-01
6.250000000000000000e+00,1.639371252842605829e+09,-5.108570880470503228e-02,1.473860209509576302e+00,2.720167361472611844e+00,2.275530575465407879e-01,4.818759495007078897e-01,-1.979725459034445967e-01,9.184829138908882085e-01
6.266666666666666607e+00,1.639371252859526396e+09,-3.817726065549206793e-02,1.338783625553687351e+00,2.450014193560833942e+00,2.275530575465407879e-01,3.874462694867137902e-01,-1.825529309225176200e-01,9.318337971606345249e-01
6.283333333333333215e+00,1.639371252876481056e+09,-2.578996714499925957e-02,1.320022988893147176e+00,2.412492920239753591e+00,2.275530575465407879e-01,2.884735117456865838e-01,-1.669289066462674442e-01,9.430180478950315193e-01
6.299999999999999822e+00,1.639371252893435478e+09,-1.395449515386535527e-02,1.318522137960303819e+00,2.409491218374066879e+00,2.275530575465407879e-01,1.857669559043297891e-01,-1.511344161444228562e-01,9.522950422909308710e-01
6.316666666666666430e+00,1.639371252910390377e+09,-2.696566218208684695e-03,1.154069676493410190e+00,2.048536569025274812e+00,2.596027839615456800e-01,8.017771973942400265e-02,-1.352238887064281248e-01,9.569553047901500076e-01
6.333333333333333037e+00,1.639371252927378893e+09,7.963163458287091101e-03,1.135684252566080854e+00,2.011765721170616139e+00,2.596027839615456800e-01,-2.740782326484897391e-02,-1.192537330773699444e-01,9.594564229827790003e-01
6.349999999999999645e+00,1.639371252943336487e+09,1.800917746032194150e-02,1.140077521044048359e+00,1.988502531711546117e+00,2.916525103765505444e-01,-1.360749498920532652e-01,-1.032566399581112543e-01,9.601927060493868904e-01
6.366666666666666252e+00,1.639371252962285757e+09,2.743112774870861553e-02,1.035877665532007441e+00,1.812152547102469313e+00,2.596027839615456800e-01,-2.448877625445649020e-01,-8.727679856620770837e-02,9.573960297072741099e-01
6.383333333333332860e+00,1.639371252978242636e+09,3.622381747332318463e-02,1.100680184056914257e+00,1.909707857737277914e+00,2.916525103765505444e-01,-3.528965775302072005e-01,-7.134914984356673096e-02,9.539314410934115473e-01
6.400000000000000355e+00,1.639371252994199991e+09,4.438713853191408876e-02,1.091675078459854786e+00,1.891697646543158973e+00,2.916525103765505444e-01,-4.591454680057793225e-01,-5.549468467322803134e-02,9.486191360973074138e-01
6.416666666666666963e+00,1.639371253012152433e+09,5.192596481609768749e-02,1.006877000754213380e+00,1.722101491131876161e+00,2.916525103765505444e-01,-5.626799019211733421e-01,-3.975403676175191803e-02,9.402817731663819512e-01
6.433333333333333570e+00,1.639371253029109001e+09,5.885000249596205463e-02,8.766781823300648924e-01,1.461703854283579407e+00,2.916525103765505444e-01,-6.625544144020559800e-01,-2.418297118166100323e-02,9.282794370517578608e-01
6.450000000000000178e+00,1.639371253048057318e+09,6.517359909027731213e-02,7.492151373589540642e-01,1.238827490756362337e+00,2.596027839615456800e-01,-7.578402535834036780e-01,-8.841052955185266238e-03,9.127937668882080136e-01
6.466666666666666785e+00,1.639371253062982082e+09,7.091551344662326561e-02,6.835529090470635616e-01,1.107503034132581332e+00,2.596027839615456800e-01,-8.476329389633235900e-01,6.223438146807896976e-03,8.949946086209438212e-01
6.483333333333333393e+00,1.639371253079970837e+09,7.609864911116445696e-02,1.298013919807728400e-01,0.000000000000000000e+00,2.596027839615456800e-01,-9.310596718886053891e-01,2.090572766181203815e-02,8.669580144408091105e-01
6.500000000000000000e+00,1.639371253096891403e+09,8.074975389798511038e-02,1.298013919807728400e-01,0.000000000000000000e+00,2.596027839615456800e-01,-1.007286538804033516e+00,3.511408454263151291e-02,8.381249051129352479e-01
6.516666666666666607e+00,1.639371253113884926e+09,8.489908876971222207e-02,1.298013919807728400e-01,0.000000000000000000e+00,2.596027839615456800e-01,-1.075525449391195210e+00,4.883644685238745786e-02,8.086404751796723023e-01
6.533333333333333215e+00,1.639371253131798506e+09,8.858006941177050397e-02,1.298013919807728400e-01,0.000000000000000000e+00,2.596027839615456800e-01,-1.135040753677039049e+00,6.206325411723890434e-02,7.786596785532163834e-01
6.549999999999999822e+00,1.639371253149784565e+09,9.182888411949483021e-02,1.298013919807728400e-01,0.000000000000000000e+00,2.596027839615456800e-01,-1.185155484592296915e+00,7.478760052926586299e-02,7.483460972643306564e-01
6.566666666666666430e+00,1.639371253165742159e+09,9.468409181830134136e-02,1.298013919807728400e-01,0.000000000000000000e+00,2.596027839615456800e-01,-1.225257175288382516e+00,8.700536864792275671e-02,7.178707327572135810e-01
6.583333333333333037e+00,1.639371253182662487e+09,9.718620420034047858e-02,1.298013919807728400e-01,0.000000000000000000e+00,2.596027839615456800e-01,-1.254803203753746210e+00,9.871534238515215776e-02,6.874107288237679692e-01
6.599999999999999645e+00,1.639371253199652433e+09,9.937725608504410779e-02,1.298013919807728400e-01,0.000000000000000000e+00,2.596027839615456800e-01,-1.273325620885115583e+00,1.099192982156030896e-01,6.571480358449113268e-01
6.616666666666666252e+00,1.639371253216605663e+09,1.013003681947132056e-01,1.298013919807728400e-01,0.000000000000000000e+00,2.596027839615456800e-01,-1.280435422133919587e+00,1.206220737186981251e-01,6.272680265059304983e-01
6.633333333333332860e+00,1.639371253232562304e+09,1.029993065790111295e-01,1.298013919807728400e-01,0.000000000000000000e+00,2.596027839615456800e-01,-1.275826227135842261e+00,1.308316127322556310e-01,5.979580735731218066e-01
6.649999999999999467e+00,1.639371253249483585e+09,1.045180429237412278e-01,1.298013919807728400e-01,0.000000000000000000e+00,2.596027839615456800e-01,-1.259277336305329342e+00,1.405589865766491420e-01,5.694061006566523142e-01
6.666666666666666963e+00,1.639371253267469168e+09,1.059003199396620631e-01,1.298013919807728400e-01,0.000000000000000000e+00,2.596027839615456800e-01,-1.230656138203530814e+00,1.498183909926769919e-01,5.417991171369118675e-01
6.683333333333333570e+00,1.639371253284424543e+09,1.071892259468738562e-01,1.137765287732703939e-01,0.000000000000000000e+00,2.275530575465407879e-01,-1.189919846528148417e+00,1.586249052618782795e-01,5.150568809051292440e-01
6.700000000000000178e+00,1.639371253301345110e+09,1.084267826504603793e-01,1.298013919807728400e-01,0.000000000000000000e+00,2.596027839615456800e-01,-1.137116550788283886e+00,1.669989158245522021e-01,4.898942843623301235e-01
6.716666666666666785e+00,1.639371253319330692e+09,1.096535499448388074e-01,1.298013919807728400e-01,0.000000000000000000e+00,2.596027839615456800e-01,-1.072385570075181871e+00,1.749659659239243548e-01,4.662174979613845083e-01
6.733333333333333393e+00,1.639371253335287809e+09,1.109082513894213140e-01,1.298013919807728400e-01,0.000000000000000000e+00,2.596027839615456800e-01,-9.959571047790555243e-01,1.825522295039281317e-01,4.441953058347427041e-01
6.750000000000000000e+00,1.639371253353239536e+09,1.122274237686937820e-01,1.298013919807728400e-01,0.000000000000000000e+00,2.596027839615456800e-01,-9.081511865898173053e-01,1.897866260618857603e-01,4.239884126999676761e-01
6.766666666666666607e+00,1.639371253370197535e+09,1.136450938881387873e-01,1.298013919807728400e-01,0.000000000000000000e+00,2.596027839615456800e-01,-8.093759326126426235e-01,1.967006749411248923e-01,4.057481214768640099e-01
6.783333333333333215e+00,1.639371253388113737e+09,1.151924854661457720e-01,1.298013919807728400e-01,0.000000000000000000e+00,2.596027839615456800e-01,-7.001251148842091432e-01,2.033283281022284228e-01,3.896150729340365215e-01
6.799999999999999822e+00,1.639371253403078794e+09,1.168977586642869215e-01,1.298013919807728400e-01,0.000000000000000000e+00,2.596027839615456800e-01,-5.809750619495356316e-01,2.097057824904299261e-01,3.757180573796889411e-01
6.816666666666666430e+00,1.639371253423018932e+09,1.187857844571540977e-01,1.298013919807728400e-01,0.000000000000000000e+00,2.596027839615456800e-01,-4.525809144100095827e-01,2.158712732791713551e-01,3.641729078837935840e-01
6.833333333333333037e+00,1.639371253438976765e+09,1.208779556819751105e-01,1.137765287732703939e-01,0.000000000000000000e+00,2.275530575465407879e-01,-3.156722614390349291e-01,2.218626360608166037e-01,3.548166162243855948e-01
6.849999999999999645e+00,1.639371253454933405e+09,1.231920362309421590e-01,1.298013919807728400e-01,0.000000000000000000e+00,2.596027839615456800e-01,-1.710481901423902551e-01,2.277215418548038106e-01,3.482702637943714263e-01
6.866666666666666252e+00,1.639371253474880695e+09,1.257420494594991001e-01,1.137765287732703939e-01,0.000000000000000000e+00,2.275530575465407879e-01,-1.957178427781813834e-02,2.334909545950797360e-01,3.440709301290197364e-01
6.883333333333332860e+00,1.639371253490837336e+09,1.285382064855843942e-01,1.298013919807728400e-01,0.000000000000000000e+00,2.596027839615456800e-01,1.378358867947432342e-01,2.392149130431669157e-01,3.428075929938578237e-01
6.899999999999999467e+00,1.639371253505797148e+09,1.315868746520293397e-01,1.137765287732703939e-01,0.000000000000000000e+00,2.275530575465407879e-01,3.002022440186032926e-01,2.449382031252639591e-01,3.439839491249586656e-01
6.916666666666666963e+00,1.639371253524781466e+09,1.348905860209459462e-01,1.137765287732703939e-01,0.000000000000000000e+00,2.275530575465407879e-01,4.665100907923540596e-01,2.507039071867627755e-01,3.478896887228869472e-01
6.933333333333333570e+00,1.639371253541735172e+09,1.384480853690806257e-01,1.137765287732703939e-01,0.000000000000000000e+00,2.275530575465407879e-01,6.357048694396529864e-01,2.565575367127750361e-01,3.545274158337567427e-01
6.950000000000000178e+00,1.639371253558656216e+09,1.422544167606154542e-01,1.298013919807728400e-01,0.000000000000000000e+00,2.596027839615456800e-01,8.067022271514954213e-01,2.625467098202599603e-01,3.641466363784763294e-01
6.966666666666666785e+00,1.639371253575643539e+09,1.463010473928052502e-01,1.137765287732703939e-01,0.000000000000000000e+00,2.275530575465407879e-01,9.783958340636083051e-01,2.687163757031701961e-01,3.761798432095140865e-01
6.983333333333333393e+00,1.639371253592565775e+09,1.505760270437160042e-01,1.298013919807728400e-01,0.000000000000000000e+00,2.596027839615456800e-01,1.149665394086501147e+00,2.751108021999237874e-01,3.911098631472150755e-01
7.000000000000000000e+00,1.639371253613509893e+09,1.550641811039842888e-01,1.137765287732703939e-01,0.000000000000000000e+00,2.275530575465407879e-01,1.319384787520701652e+00,2.817732285857063035e-01,4.083334586996654192e-01
7.016666666666666607e+00,1.639371253627473354e+09,1.597473348491617595e-01,1.137765287732703939e-01,0.000000000000000000e+00,2.275530575465407879e-01,1.486430283381384942e+00,2.887434083729903955e-01,4.280333924482922492e-01
7.033333333333333215e+00,1.639371253645450115e+09,1.646045663091863231e-01,1.298013919807728400e-01,0.000000000000000000e+00,2.596027839615456800e-01,1.649688758729472848e+00,2.960639621289177237e-01,4.503710078708690334e-01
7.049999999999999822e+00,1.639371253661380768e+09,1.696124848196061408e-01,1.137765287732703939e-01,0.000000000000000000e+00,2.275530575465407879e-01,1.808065862170340710e+00,3.037733859550840743e-01,4.746922905604295528e-01
7.066666666666666430e+00,1.639371253679332733e+09,1.747455320981464444e-01,1.298013919807728400e-01,0.000000000000000000e+00,2.596027839615456800e-01,1.960494059033182523e+00,3.119080720457524936e-01,5.013958619866604183e-01
7.083333333333333037e+00,1.639371253693295717e+09,1.799763024822208513e-01,1.137765287732703939e-01,0.000000000000000000e+00,2.275530575465407879e-01,2.105940496585650745e+00,3.205020051220078825e-01,5.297972126663870185e-01
7.099999999999999645e+00,1.639371253712278843e+09,1.852758787901746806e-01,1.298013919807728400e-01,0.000000000000000000e+00,2.596027839615456800e-01,2.243414628959651935e+00,3.295865725920593681e-01,5.602662455453426560e-01
7.116666666666666252e+00,1.639371253729199886e+09,1.906141801329102325e-01,1.298013919807728400e-01,0.000000000000000000e+00,2.596027839615456800e-01,2.371975543257559327e+00,3.391925057763667262e-01,5.923565946150075590e-01
7.133333333333332860e+00,1.639371253746154785e+09,1.959603179044049071e-01,1.137765287732703939e-01,0.000000000000000000e+00,2.275530575465407879e-01,2.490738930558484387e+00,3.493430360730208628e-01,6.256146553072160499e-01
7.149999999999999467e+00,1.639371253763109446e+09,2.012829561203580697e-01,1.137765287732703939e-01,0.000000000000000000e+00,2.275530575465407879e-01,2.598883648234400212e+00,3.600582107636406404e-01,6.601104835667240822e-01
7.166666666666666963e+00,1.639371253780090809e+09,2.065506722542244100e-01,1.137765287732703939e-01,0.000000000000000000e+00,2.275530575465407879e-01,2.695657823095281014e+00,3.713569178415599414e-01,6.956356823532806599e-01
7.183333333333333570e+00,1.639371253798017502e+09,2.117323147393611882e-01,1.137765287732703939e-01,0.000000000000000000e+00,2.275530575465407879e-01,2.780384448386479690e+00,3.832545072915007345e-01,7.319741091893356977e-01
7.200000000000000178e+00,1.639371253815968037e+09,2.167973533645566331e-01,9.775166556576674048e-02,0.000000000000000000e+00,1.955033311315334810e-01,2.852466431532921121e+00,3.957604607444395461e-01,7.686384573547083709e-01
7.216666666666666785e+00,1.639371253833945036e+09,2.217162188871448225e-01,9.775166556576674048e-02,0.000000000000000000e+00,1.955033311315334810e-01,2.911391053733711320e+00,4.088805612669582645e-01,8.056707354871809335e-01
7.233333333333333393e+00,1.639371253849876881e+09,2.264606283221762273e-01,1.137765287732703939e-01,0.000000000000000000e+00,2.275530575465407879e-01,2.956733807023645078e+00,4.226212276340957641e-01,8.431052413833253212e-01
7.250000000000000000e+00,1.639371253868828058e+09,2.310038925361721784e-01,9.775166556576674048e-02,0.000000000000000000e+00,1.955033311315334810e-01,2.988161579200679707e+00,4.369827594176750596e-01,8.801755970125201278e-01
7.266666666666666607e+00,1.639371253885780573e+09,2.353212029781191483e-01,1.137765287732703939e-01,0.000000000000000000e+00,2.275530575465407879e-01,3.005435162032323859e+00,4.519616094837062836e-01,9.171836084599155337e-01
7.283333333333333215e+00,1.639371253901737690e+09,2.393898946163034447e-01,9.775166556576674048e-02,0.000000000000000000e+00,1.955033311315334810e-01,3.008411063360608928e+00,4.675503458463945439e-01,9.533642509126668552e-01
7.299999999999999822e+00,1.639371253919691563e+09,2.431896824149199499e-01,9.775166556576674048e-02,0.000000000000000000e+00,1.955033311315334810e-01,2.997042609083741205e+00,4.837355254116627590e-01,9.887589759248904819e-01
7.316666666666666430e+00,1.639371253935678720e+09,2.467028689763635929e-01,9.775166556576674048e-02,0.000000000000000000e+00,1.955033311315334810e-01,2.971380326460856480e+00,5.005021838361077835e-01,1.023144517367555739e+00
7.333333333333333037e+00,1.639371253954596996e+09,2.499145212905874991e-01,9.775166556576674048e-02,0.000000000000000000e+00,1.955033311315334810e-01,2.931571605721786433e+00,5.178316868694171626e-01,1.056303735522372111e+00
7.349999999999999645e+00,1.639371253968559504e+09,2.528126148687792618e-01,9.775166556576674048e-02,0.000000000000000000e+00,1.955033311315334810e-01,2.877859642523031170e+00,5.357018448477254280e-01,1.088027099345543869e+00
7.366666666666666252e+00,1.639371253986537695e+09,2.553881438912361523e-01,9.775166556576674048e-02,0.000000000000000000e+00,1.955033311315334810e-01,2.810581669330578514e+00,5.540870514423524851e-01,1.118114114999189335e+00
7.383333333333332860e+00,1.639371254004488230e+09,2.576351963652004917e-01,9.775166556576674048e-02,0.000000000000000000e+00,1.955033311315334810e-01,2.730166489286915965e+00,5.729584456794665215e-01,1.146374690009620112e+00
7.399999999999999467e+00,1.639371254021418095e+09,2.595509936637096504e-01,8.172680235826429440e-02,0.000000000000000000e+00,1.634536047165285888e-01,2.637131331489799280e+00,5.922818827108471407e-01,1.172365555209040622e+00
7.416666666666666963e+00,1.639371254038407326e+09,2.611358941974065151e-01,8.172680235826429440e-02,0.000000000000000000e+00,1.634536047165285888e-01,2.532078051833460908e+00,6.120204009462100192e-01,1.196190451210206618e+00
7.433333333333333570e+00,1.639371254054364204e+09,2.623933613538166898e-01,8.172680235826429440e-02,0.000000000000000000e+00,1.634536047165285888e-01,2.415688708596219314e+00,6.321366343209058325e-01,1.217697809684752164e+00
7.450000000000000178e+00,1.639371254071318150e+09,2.633298962189393744e-01,8.172680235826429440e-02,0.000000000000000000e+00,1.634536047165285888e-01,2.288720546764737573e+00,6.525908161572276933e-01,1.236751083667146922e+00
7.466666666666666785e+00,1.639371254089270115e+09,2.639549359701732212e-01,8.172680235826429440e-02,0.000000000000000000e+00,1.634536047165285888e-01,2.152000429624487676e+00,6.733410370614145712e-01,1.253229649962672720e+00
7.483333333333333393e+00,1.639371254106231928e+09,2.642807191938532085e-01,6.570193915076183444e-02,0.000000000000000000e+00,1.314038783015236689e-01,2.006418760385306754e+00,6.943413035344958573e-01,1.266764728481859281e+00
7.500000000000000000e+00,1.639371254122183561e+09,2.643221197312199955e-01,6.570193915076183444e-02,0.000000000000000000e+00,1.314038783015236689e-01,1.852922940514915240e+00,7.155440842585344408e-01,1.277539029085581923e+00
7.516666666666666607e+00,1.639371254140135288e+09,2.640964509899423884e-01,4.967707594325939530e-02,0.000000000000000000e+00,9.935415188651879059e-02,1.692510414993039447e+00,7.369005788873578267e-01,1.285218992639030278e+00
7.533333333333333215e+00,1.639371254157090187e+09,2.636232429709275404e-01,3.365221273575574185e-02,0.000000000000000000e+00,6.730442547151148369e-02,1.526221357846031745e+00,7.583588308586918236e-01,1.289758633510726060e+00
7.549999999999999822e+00,1.639371254175047874e+09,2.629239945489422192e-01,3.365221273575574185e-02,0.000000000000000000e+00,6.730442547151148369e-02,1.355131054052119310e+00,7.798684854156292534e-01,1.291395366733586458e+00
7.566666666666666430e+00,1.639371254192992687e+09,2.620219038075042861e-01,3.365221273575574185e-02,0.000000000000000000e+00,6.730442547151148369e-02,1.180342036199550249e+00,8.013810508468444116e-01,1.290116038784626440e+00
7.583333333333333037e+00,1.639371254208949804e+09,2.609415794610064898e-01,3.365221273575574185e-02,0.000000000000000000e+00,6.730442547151148369e-02,1.002976036116284053e+00,8.228479729665596487e-01,1.285926254145778547e+00
7.599999999999999645e+00,1.639371254226901531e+09,2.597087365976367690e-01,1.762734952825329576e-02,0.000000000000000000e+00,3.525469905650659153e-02,8.241658130558638939e-01,8.442187333181064846e-01,1.278585379837300362e+00
7.616666666666666252e+00,1.639371254242859602e+09,2.583498801433806169e-01,1.602486320750845994e-03,0.000000000000000000e+00,3.204972641501691987e-03,6.450469209097129397e-01,8.654412063368738250e-01,1.268140396939040793e+00
7.633333333333332860e+00,1.639371254259814978e+09,2.568919795784816995e-01,-1.442237688675220356e-02,0.000000000000000000e+00,-2.884475377350440711e-02,4.667494773143496811e-01,8.864641990796097160e-01,1.254656189203431582e+00
7.649999999999999467e+00,1.639371254277765512e+09,2.553621385318760595e-01,-3.044724009425465311e-02,0.000000000000000000e+00,-6.089448018850930622e-02,2.903899974299998243e-01,9.072377452507907059e-01,1.238215022321179637e+00
7.666666666666666963e+00,1.639371254294720411e+09,2.537872629353069565e-01,-3.044724009425465311e-02,0.000000000000000000e+00,-6.089448018850930622e-02,1.170633545859268709e-01,9.277156028737129079e-01,1.219180766606452027e+00
7.683333333333333570e+00,1.639371254311678648e+09,2.521937314365312321e-01,-4.647210330175770288e-02,0.000000000000000000e+00,-9.294420660351540575e-02,-5.216507107763312945e-02,9.478532646455916089e-01,1.197399151928250083e+00
7.700000000000000178e+00,1.639371254330624342e+09,2.506070717499779832e-01,-6.249696650926014896e-02,0.000000000000000000e+00,-1.249939330185202979e-01,-2.162669963824734864e-01,9.676060287917472857e-01,1.173000321733898899e+00
7.716666666666666785e+00,1.639371254344554901e+09,2.490516465637137855e-01,-7.852182971676319179e-02,0.000000000000000000e+00,-1.570436594335263836e-01,-3.742585337164403558e-01,9.869314805145259495e-01,1.146128530620566854e+00
7.733333333333333393e+00,1.639371254361542225e+09,2.475503525240827229e-01,-9.454669292426565175e-02,0.000000000000000000e+00,-1.890933858485313035e-01,-5.252071293364697357e-01,1.005789718139830979e+00,1.116941062624249525e+00
7.750000000000000000e+00,1.639371254379493713e+09,2.461243356849981412e-01,-1.105715561317686946e-01,0.000000000000000000e+00,-2.211431122635373892e-01,-6.682380891185808469e-01,1.024143560483205206e+00,1.085607059526702889e+00
7.766666666666666607e+00,1.639371254396449566e+09,2.447927266388611189e-01,-1.426212825467741974e-01,0.000000000000000000e+00,-2.852425650935483947e-01,-8.025406427872258108e-01,1.041956520649832685e+00,1.052041400604508681e+00
7.783333333333333215e+00,1.639371254413403273e+09,2.435723983421870242e-01,-1.586461457542766296e-01,0.000000000000000000e+00,-3.172922915085532591e-01,-9.273735013203867616e-01,1.059195233934504765e+00,1.016702359868592032e+00
7.799999999999999822e+00,1.639371254429360390e+09,2.424777494133155686e-01,-1.746710089617797002e-01,0.000000000000000000e+00,-3.493420179235594003e-01,-1.042069866239475839e+00,1.075831788971596259e+00,9.797867902448129662e-01
7.816666666666666430e+00,1.639371254446282387e+09,2.415205154144094979e-01,-1.906958721692821324e-01,0.000000000000000000e+00,-3.813917443385642647e-01,-1.146041853825411128e+00,1.091841609286947845e+00,9.414980078295498434e-01
7.833333333333333037e+00,1.639371254464266777e+09,2.407096103380473584e-01,-2.227455985842876351e-01,0.000000000000000000e+00,-4.454911971685752703e-01,-1.238784301916508124e+00,1.107201335337033354e+00,9.017794501044510413e-01
7.849999999999999645e+00,1.639371254480191231e+09,2.400510002029638268e-01,-2.547953249992931379e-01,0.000000000000000000e+00,-5.095906499985862759e-01,-1.319877931807078797e+00,1.121888943955217099e+00,8.608472872061611048e-01
7.866666666666666252e+00,1.639371254498174906e+09,2.395476103271767798e-01,-2.708201882067962085e-01,0.000000000000000000e+00,-5.416403764135924170e-01,-1.388991842836439394e+00,1.135888244019213511e+00,8.191844532914441812e-01
7.883333333333332860e+00,1.639371254519088030e+09,2.391992674932134910e-01,-3.349196410368071586e-01,0.000000000000000000e+00,-6.698392820736143172e-01,-1.445885322498535297e+00,1.149182206405165552e+00,7.762104081799030553e-01
7.899999999999999467e+00,1.639371254536073446e+09,2.390026778530043305e-01,-3.509445042443096185e-01,0.000000000000000000e+00,-7.018890084886192371e-01,-1.490408960269910876e+00,1.161757507313311732e+00,7.329458828631865153e-01
7.916666666666666963e+00,1.639371254551998615e+09,2.389514410430461089e-01,-3.990190938668175535e-01,0.000000000000000000e+00,-7.980381877336351071e-01,-1.522505058806721934e+00,1.173606635301885692e+00,6.890713523300534549e-01
7.933333333333333570e+00,1.639371254569987059e+09,2.390361005973823116e-01,-4.791434099043316297e-01,0.000000000000000000e+00,-9.582868198086632594e-01,-1.542207341656387953e+00,1.184716792987307921e+00,6.442720154519525622e-01
7.950000000000000178e+00,1.639371254587937593e+09,2.392442303608137144e-01,-5.111931363193371602e-01,0.000000000000000000e+00,-1.022386272638674320e+00,-1.549639962123570580e+00,1.195081029443406440e+00,5.995605606884721883e-01
7.966666666666666785e+00,1.639371254602862120e+09,2.395605562213962147e-01,-5.432428627343426353e-01,0.000000000000000000e+00,-1.086485725468685271e+00,-1.545015823379721098e+00,1.204702462519368300e+00,5.551348161772760026e-01
7.983333333333333393e+00,1.639371254619870663e+09,2.399671121036554000e-01,-5.913174523568505148e-01,0.000000000000000000e+00,-1.182634904713701030e+00,-1.528634225267790914e+00,1.213585225174341309e+00,5.109195255618923515e-01
8.000000000000000000e+00,1.639371254637801409e+09,2.404434287959269778e-01,-6.714417683943646464e-01,0.000000000000000000e+00,-1.342883536788729293e+00,-1.500877858486811878e+00,1.221729940269778325e+00,4.665694833517690099e-01
8.016666666666665719e+00,1.639371254652762651e+09,2.409667538305512724e-01,-7.195163580168725259e-01,0.000000000000000000e+00,-1.439032716033745052e+00,-1.462209171903574578e+00,1.229140314496985020e+00,4.227970169592215055e-01
8.033333333333333215e+00,1.639371254670718193e+09,2.415123002980097411e-01,-7.675909476393810715e-01,0.000000000000000000e+00,-1.535181895278762143e+00,-1.413166143591030544e+00,1.235827327253783636e+00,3.797640526819159312e-01
8.050000000000000711e+00,1.639371254687670469e+09,2.420535221589395214e-01,-7.836158108468835870e-01,0.000000000000000000e+00,-1.567231621693767174e+00,-1.354357490797032604e+00,1.241808976992157643e+00,3.381495145828099513e-01
8.066666666666666430e+00,1.639371254706617355e+09,2.425624133245989911e-01,-7.996406740543865466e-01,0.000000000000000000e+00,-1.599281348108773093e+00,-1.286457358366872361e+00,1.247109963954382561e+00,2.980802270802306864e-01
8.083333333333333925e+00,1.639371254721578598e+09,2.430098275098105387e-01,-8.156655372618890620e-01,0.000000000000000000e+00,-1.631331074523778124e+00,-1.210199529144774910e+00,1.251756983255534861e+00,2.596687900056339204e-01
8.099999999999999645e+00,1.639371254737535477e+09,2.433658156255032734e-01,-8.156655372618890620e-01,0.000000000000000000e+00,-1.631331074523778124e+00,-1.126371203531438603e+00,1.255780695755793763e+00,2.232777984921528180e-01
8.116666666666667140e+00,1.639371254755488396e+09,2.435999772731571311e-01,-8.316904004693921326e-01,0.000000000000000000e+00,-1.663380800938784265e+00,-1.035806398649666171e+00,1.259213213566671374e+00,1.887203340292910037e-01
8.133333333333332860e+00,1.639371254771446466e+09,2.436818227329234920e-01,-8.316904004693921326e-01,0.000000000000000000e+00,-1.663380800938784265e+00,-9.393790204404282029e-01,1.262087865328328729e+00,1.563278585858033087e-01
8.150000000000000355e+00,1.639371254789397001e+09,2.435811417028037607e-01,-8.156655372618890620e-01,0.000000000000000000e+00,-1.631331074523778124e+00,-8.379956644580142111e-01,1.264443333045950357e+00,1.264113708395167013e-01
8.166666666666666075e+00,1.639371254806318998e+09,2.432683749494266023e-01,-8.156655372618890620e-01,0.000000000000000000e+00,-1.631331074523778124e+00,-7.325882031329391531e-01,1.266318883645835669e+00,9.873159123305096097e-02
8.183333333333333570e+00,1.639371254823273182e+09,2.427149849728727771e-01,-8.316904004693921326e-01,0.000000000000000000e+00,-1.663380800938784265e+00,-6.241062188134112176e-01,1.267749697954285271e+00,7.303749993655464512e-02
8.199999999999999289e+00,1.639371254839265108e+09,2.418938217692623849e-01,-8.477152636768945371e-01,0.000000000000000000e+00,-1.695430527353789074e+00,-5.135093429646692131e-01,1.268768888622078483e+00,4.933123249140205363e-02
8.216666666666666785e+00,1.639371254857216835e+09,2.407794797958570654e-01,-8.797649900919000121e-01,0.000000000000000000e+00,-1.759529980183800024e+00,-4.017595624966600609e-01,1.269407257365174679e+00,2.733412120516329896e-02
8.233333333333332504e+00,1.639371254876164675e+09,2.393486423040974143e-01,-8.957898532994025276e-01,0.000000000000000000e+00,-1.791579706598805055e+00,-2.898135542957585575e-01,1.269695294515228667e+00,7.286027261856679177e-03
8.250000000000000000e+00,1.639371254890095711e+09,2.375804093058654920e-01,-9.278395797144080026e-01,0.000000000000000000e+00,-1.855679159428816005e+00,-1.786151086597819182e-01,1.269662897879558106e+00,-1.112248757537591046e-02
8.266666666666665719e+00,1.639371254908080101e+09,2.354566055764309718e-01,-9.598893061294134776e-01,0.000000000000000000e+00,-1.919778612258826955e+00,-6.908770147617393498e-02,1.269336936512448499e+00,-2.794614300169277754e-02
8.283333333333333215e+00,1.639371254925000191e+09,2.329620652727999175e-01,-9.919390325444189527e-01,0.000000000000000000e+00,-1.983878065088837905e+00,3.787272634688054751e-02,1.268743251283372286e+00,-4.325356287590897963e-02
8.300000000000000711e+00,1.639371254941992283e+09,2.300848899568715134e-01,-1.007963895751922134e+00,0.000000000000000000e+00,-2.015927791503844269e+00,1.414047254813800558e-01,1.267908643187474649e+00,-5.686160761785373496e-02
8.316666666666666430e+00,1.639371254958943844e+09,2.268166770569383373e-01,-1.023988758959424539e+00,0.000000000000000000e+00,-2.047977517918849077e+00,2.406879763372620218e-01,1.266860613585853335e+00,-6.886859105993506369e-02
8.333333333333333925e+00,1.639371254975898504e+09,2.231527160763942530e-01,-1.056038485374430014e+00,0.000000000000000000e+00,-2.112076970748860028e+00,3.349495569729490363e-01,1.265622718736421737e+00,-7.964884501719471377e-02
8.349999999999999645e+00,1.639371254992852926e+09,2.190921501622685452e-01,-1.088088211789435489e+00,0.000000000000000000e+00,-2.176176423578870978e+00,4.234697920316684572e-01,1.264214441696589031e+00,-8.931754163999144902e-02
8.366666666666667140e+00,1.639371255009807110e+09,2.146381009756040403e-01,-1.136162801411944034e+00,0.000000000000000000e+00,-2.272325602823888069e+00,5.055876374372826332e-01,1.262651057229720264e+00,-9.826374323936712396e-02
8.383333333333332860e+00,1.639371255024766922e+09,2.097977551574311261e-01,-1.136162801411944034e+00,0.000000000000000000e+00,-2.272325602823888069e+00,5.807055593989109976e-01,1.260950180381553709e+00,-1.058204870914178919e-01
8.400000000000000355e+00,1.639371255043715715e+09,2.045824110548309371e-01,-1.152187664619446439e+00,0.000000000000000000e+00,-2.304375329238892878e+00,6.482938704124923124e-01,1.259131523512890816e+00,-1.124000601262042515e-01
8.416666666666666075e+00,1.639371255060670614e+09,1.990074847576395467e-01,-1.168212527826949509e+00,0.000000000000000000e+00,-2.336425055653899019e+00,7.078944893786565107e-01,1.257210134572687155e+00,-1.181506384934721682e-01
8.433333333333333570e+00,1.639371255078624487e+09,1.930924748939936986e-01,-1.168212527826949509e+00,0.000000000000000000e+00,-2.336425055653899019e+00,7.591240976414450614e-01,1.255200772791504438e+00,-1.229594172153812975e-01
8.449999999999999289e+00,1.639371255095578194e+09,1.868608860382436343e-01,-1.184237391034451914e+00,0.000000000000000000e+00,-2.368474782068903828e+00,8.016766676568166661e-01,1.253115592909307408e+00,-1.272502493894781539e-01
8.466666666666666785e+00,1.639371255112531900e+09,1.803401109937136093e-01,-1.184237391034451914e+00,0.000000000000000000e+00,-2.368474782068903828e+00,8.353253460819112242e-01,1.250964139381676832e+00,-1.309139966110565156e-01
8.483333333333332504e+00,1.639371255131481647e+09,1.735612726214811885e-01,-1.184237391034451914e+00,0.000000000000000000e+00,-2.368474782068903828e+00,8.599236782969978954e-01,1.248755526972866958e+00,-1.341106127478708665e-01
8.500000000000000000e+00,1.639371255148402452e+09,1.665590262905186081e-01,-1.184237391034451914e+00,0.000000000000000000e+00,-2.368474782068903828e+00,8.754061666887023030e-01,1.246496217595681300e+00,-1.369984904431144068e-01
8.516666666666665719e+00,1.639371255164393425e+09,1.593713244204278123e-01,-1.184237391034451914e+00,0.000000000000000000e+00,-2.368474782068903828e+00,8.817881603942177016e-01,1.244190057282838158e+00,-1.397331506409418833e-01
8.533333333333333215e+00,1.639371255181351662e+09,1.520391449714257326e-01,-1.184237391034451914e+00,0.000000000000000000e+00,-2.368474782068903828e+00,8.791650795880336933e-01,1.241838334711432568e+00,-1.424659665936432174e-01
8.550000000000000711e+00,1.639371255198303938e+09,1.446061861036052054e-01,-1.200262254241954984e+00,0.000000000000000000e+00,-2.400524508483909969e+00,8.677109827430338207e-01,1.239437647257711328e+00,-1.456078003315705860e-01
8.566666666666666430e+00,1.639371255215258360e+09,1.371185295749219601e-01,-1.216287117449457389e+00,0.000000000000000000e+00,-2.432574234898914778e+00,8.476764905734468503e-01,1.236980049323844089e+00,-1.492937128456369444e-01
8.583333333333333925e+00,1.639371255232212543e+09,1.296242757715158067e-01,-1.216287117449457389e+00,0.000000000000000000e+00,-2.432574234898914778e+00,8.193860855265657772e-01,1.234457621129956939e+00,-1.533863018504646458e-01
8.599999999999999645e+00,1.639371255249166727e+09,1.221731535615300374e-01,-1.232311980656960460e+00,0.000000000000000000e+00,-2.464623961313920919e+00,7.832348106918310959e-01,1.231860341795537384e+00,-1.582736420154638446e-01
8.616666666666667140e+00,1.639371255265124083e+09,1.148161084314633373e-01,-1.248336843864462864e+00,0.000000000000000000e+00,-2.496673687728925728e+00,7.396843968003286030e-01,1.229174053266564037e+00,-1.640648942708927693e-01
8.633333333333332860e+00,1.639371255284072638e+09,1.076048725997665600e-01,-1.264361707071965935e+00,0.000000000000000000e+00,-2.528723414143931869e+00,6.892588505568988388e-01,1.226382865593607985e+00,-1.708587542065210796e-01
8.650000000000000355e+00,1.639371255301030397e+09,1.005915210030957768e-01,-1.280386570279468561e+00,0.000000000000000000e+00,-2.560773140558937122e+00,6.325395418438927164e-01,1.223469337831726067e+00,-1.787426769185654074e-01
8.666666666666666075e+00,1.639371255318985939e+09,9.382801721476249912e-02,-1.264361707071965935e+00,0.000000000000000000e+00,-2.528723414143931869e+00,5.701598313271714069e-01,1.220419097734675384e+00,-1.872624680839280464e-01
8.683333333333333570e+00,1.639371255335934401e+09,8.736575348016904774e-02,-1.280386570279468561e+00,0.000000000000000000e+00,-2.560773140558937122e+00,5.027992836480825734e-01,1.217216520641450472e+00,-1.970196791012261694e-01
8.699999999999999289e+00,1.639371255352890730e+09,8.125508913968232383e-02,-1.296411433486971410e+00,0.000000000000000000e+00,-2.592822866973942819e+00,4.311775146726446462e-01,1.213840565238887947e+00,-2.080642890122356703e-01
8.716666666666666785e+00,1.639371255370847464e+09,7.554489175382225752e-02,-1.296411433486971410e+00,0.000000000000000000e+00,-2.592822866973942819e+00,3.560477241629382839e-01,1.210271681527354204e+00,-2.201681337894358381e-01
