# 
# 
# 
# 
# 
# 
# 
# 
# 
# 
# time,realtime,ref,inp,dis,state...
0.000000000000000000e+00,1.639370892314393759e+09,0.000000000000000000e+00,-9.438644429219110732e-01,0.000000000000000000e+00,-9.919390325444189527e-01
1.666666666666666644e-02,1.639370892317385912e+09,0.000000000000000000e+00,-9.919390325444189527e-01,2.820509131922317447e-01,-9.919390325444189527e-01
3.333333333333333287e-02,1.639370892319380283e+09,0.000000000000000000e+00,-9.438644429219110732e-01,0.000000000000000000e+00,-9.438644429219110732e-01
5.000000000000000278e-02,1.639370892337332726e+09,0.000000000000000000e+00,-9.438644429219110732e-01,0.000000000000000000e+00,-9.438644429219110732e-01
6.666666666666666574e-02,1.639370892353289843e+09,0.000000000000000000e+00,-9.438644429219110732e-01,0.000000000000000000e+00,-9.438644429219110732e-01
8.333333333333332871e-02,1.639370892373299360e+09,0.000000000000000000e+00,-4.013693078519445234e-01,0.000000000000000000e+00,-4.013693078519445234e-01
1.000000000000000056e-01,1.639370892389255285e+09,0.000000000000000000e+00,-3.848599475906690492e-01,0.000000000000000000e+00,-3.848599475906690492e-01
1.166666666666666685e-01,1.639370892404215097e+09,0.000000000000000000e+00,-3.614874738110372410e-01,0.000000000000000000e+00,-3.614874738110372410e-01
1.333333333333333315e-01,1.639370892423164606e+09,0.000000000000000000e+00,-3.615967581315993051e-01,0.000000000000000000e+00,-3.615967581315993051e-01
1.499999999999999944e-01,1.639370892440119505e+09,0.000000000000000000e+00,-9.438644429219110732e-01,0.000000000000000000e+00,-9.438644429219110732e-01
1.666666666666666574e-01,1.639370892454081535e+09,0.000000000000000000e+00,-9.598893061294134776e-01,0.000000000000000000e+00,-9.598893061294134776e-01
1.833333333333333204e-01,1.639370892472033739e+09,0.000000000000000000e+00,-9.598893061294134776e-01,0.000000000000000000e+00,-9.598893061294134776e-01
2.000000000000000111e-01,1.639370892488988161e+09,0.000000000000000000e+00,-9.598893061294134776e-01,0.000000000000000000e+00,-9.598893061294134776e-01
2.166666666666666741e-01,1.639370892506941319e+09,0.000000000000000000e+00,-9.598893061294134776e-01,0.000000000000000000e+00,-9.598893061294134776e-01
2.333333333333333370e-01,1.639370892522897720e+09,0.000000000000000000e+00,-9.598893061294134776e-01,0.000000000000000000e+00,-9.598893061294134776e-01
2.500000000000000000e-01,1.639370892540849686e+09,0.000000000000000000e+00,-9.438644429219110732e-01,0.000000000000000000e+00,-9.438644429219110732e-01
2.666666666666666630e-01,1.639370892558801889e+09,0.000000000000000000e+00,-9.598893061294134776e-01,0.000000000000000000e+00,-9.598893061294134776e-01
2.833333333333333259e-01,1.639370892575756311e+09,0.000000000000000000e+00,-9.598893061294134776e-01,0.000000000000000000e+00,-9.598893061294134776e-01
2.999999999999999889e-01,1.639370892592711210e+09,0.000000000000000000e+00,-9.598893061294134776e-01,0.000000000000000000e+00,-9.598893061294134776e-01
3.166666666666666519e-01,1.639370892608668089e+09,0.000000000000000000e+00,-9.598893061294134776e-01,0.000000000000000000e+00,-9.598893061294134776e-01
3.333333333333333148e-01,1.639370892627617598e+09,0.000000000000000000e+00,-9.438644429219110732e-01,0.000000000000000000e+00,-9.438644429219110732e-01
3.499999999999999778e-01,1.639370892643574476e+09,0.000000000000000000e+00,-9.598893061294134776e-01,0.000000000000000000e+00,-9.598893061294134776e-01
3.666666666666666408e-01,1.639370892660529613e+09,0.000000000000000000e+00,-9.598893061294134776e-01,0.000000000000000000e+00,-9.598893061294134776e-01
3.833333333333333037e-01,1.639370892678481579e+09,0.000000000000000000e+00,-9.438644429219110732e-01,0.000000000000000000e+00,-9.438644429219110732e-01
4.000000000000000222e-01,1.639370892693441391e+09,0.000000000000000000e+00,-9.598893061294134776e-01,0.000000000000000000e+00,-9.598893061294134776e-01
4.166666666666666852e-01,1.639370892710395813e+09,0.000000000000000000e+00,-9.438644429219110732e-01,0.000000000000000000e+00,-9.438644429219110732e-01
4.333333333333333481e-01,1.639370892728348255e+09,0.000000000000000000e+00,-9.438644429219110732e-01,0.000000000000000000e+00,-9.438644429219110732e-01
4.500000000000000111e-01,1.639370892745302677e+09,0.000000000000000000e+00,-9.438644429219110732e-01,0.000000000000000000e+00,-9.438644429219110732e-01
4.666666666666666741e-01,1.639370892762257338e+09,0.000000000000000000e+00,-9.438644429219110732e-01,0.000000000000000000e+00,-9.438644429219110732e-01
4.833333333333333370e-01,1.639370892779211521e+09,0.000000000000000000e+00,-9.438644429219110732e-01,0.000000000000000000e+00,-9.438644429219110732e-01
5.000000000000000000e-01,1.639370892796166420e+09,0.000000000000000000e+00,-9.438644429219110732e-01,0.000000000000000000e+00,-9.438644429219110732e-01
5.166666666666666075e-01,1.639370892814118385e+09,0.000000000000000000e+00,-9.278395797144080026e-01,0.000000000000000000e+00,-9.278395797144080026e-01
5.333333333333333259e-01,1.639370892831073284e+09,0.000000000000000000e+00,-8.957898532994025276e-01,0.000000000000000000e+00,-8.957898532994025276e-01
5.500000000000000444e-01,1.639370892848027706e+09,0.000000000000000000e+00,-8.637401268843969415e-01,0.000000000000000000e+00,-8.637401268843969415e-01
5.666666666666666519e-01,1.639370892866977215e+09,0.000000000000000000e+00,-8.477152636768945371e-01,0.000000000000000000e+00,-8.477152636768945371e-01
5.833333333333333703e-01,1.639370892882934093e+09,0.000000000000000000e+00,-8.156655372618890620e-01,0.000000000000000000e+00,-8.156655372618890620e-01
5.999999999999999778e-01,1.639370892899888992e+09,0.000000000000000000e+00,-7.515660844318780009e-01,0.000000000000000000e+00,-7.515660844318780009e-01
6.166666666666666963e-01,1.639370892918838978e+09,0.000000000000000000e+00,-7.034914948093701215e-01,0.000000000000000000e+00,-7.034914948093701215e-01
6.333333333333333037e-01,1.639370892934796095e+09,0.000000000000000000e+00,-6.714417683943646464e-01,0.000000000000000000e+00,-6.714417683943646464e-01
6.500000000000000222e-01,1.639370892949755669e+09,0.000000000000000000e+00,-6.073423155643535853e-01,0.000000000000000000e+00,-6.073423155643535853e-01
6.666666666666666297e-01,1.639370892969702244e+09,0.000000000000000000e+00,-5.432428627343426353e-01,0.000000000000000000e+00,-5.432428627343426353e-01
6.833333333333333481e-01,1.639370892985659599e+09,0.000000000000000000e+00,-5.272179995268395647e-01,0.000000000000000000e+00,-5.272179995268395647e-01
6.999999999999999556e-01,1.639370893001616955e+09,0.000000000000000000e+00,-4.951682731118340897e-01,0.000000000000000000e+00,-4.951682731118340897e-01
7.166666666666666741e-01,1.639370893018571377e+09,0.000000000000000000e+00,-4.631185466968285591e-01,0.000000000000000000e+00,-4.631185466968285591e-01
7.333333333333332815e-01,1.639370893035526037e+09,0.000000000000000000e+00,-4.310688202818230841e-01,0.000000000000000000e+00,-4.310688202818230841e-01
7.500000000000000000e-01,1.639370893054475307e+09,0.000000000000000000e+00,-3.990190938668175535e-01,0.000000000000000000e+00,-3.990190938668175535e-01
7.666666666666666075e-01,1.639370893068438292e+09,0.000000000000000000e+00,-3.669693674518120785e-01,0.000000000000000000e+00,-3.669693674518120785e-01
7.833333333333333259e-01,1.639370893088384628e+09,0.000000000000000000e+00,-3.349196410368071586e-01,0.000000000000000000e+00,-3.349196410368071586e-01
8.000000000000000444e-01,1.639370893103344440e+09,0.000000000000000000e+00,-3.028699146218016836e-01,0.000000000000000000e+00,-3.028699146218016836e-01
8.166666666666666519e-01,1.639370893123291492e+09,0.000000000000000000e+00,-2.868450514142986130e-01,0.000000000000000000e+00,-2.868450514142986130e-01
8.333333333333333703e-01,1.639370893140245914e+09,0.000000000000000000e+00,-2.387704617917906780e-01,0.000000000000000000e+00,-2.387704617917906780e-01
8.499999999999999778e-01,1.639370893155205965e+09,0.000000000000000000e+00,-2.067207353767851752e-01,0.000000000000000000e+00,-2.067207353767851752e-01
8.666666666666666963e-01,1.639370893173159599e+09,0.000000000000000000e+00,-1.746710089617797002e-01,0.000000000000000000e+00,-1.746710089617797002e-01
8.833333333333333037e-01,1.639370893189115524e+09,0.000000000000000000e+00,-1.265964193392711545e-01,0.000000000000000000e+00,-1.265964193392711545e-01
9.000000000000000222e-01,1.639370893208064556e+09,0.000000000000000000e+00,-7.852182971676319179e-02,0.000000000000000000e+00,-7.852182971676319179e-02
9.166666666666666297e-01,1.639370893225019455e+09,0.000000000000000000e+00,1.602486320750845994e-03,0.000000000000000000e+00,1.602486320750845994e-03
9.333333333333333481e-01,1.639370893241974115e+09,0.000000000000000000e+00,9.775166556576674048e-02,0.000000000000000000e+00,9.775166556576674048e-02
9.499999999999999556e-01,1.639370893256934404e+09,0.000000000000000000e+00,1.618511183957777322e-01,0.000000000000000000e+00,1.618511183957777322e-01
9.666666666666666741e-01,1.639370893276880026e+09,0.000000000000000000e+00,2.580002976407948512e-01,0.000000000000000000e+00,2.580002976407948512e-01
9.833333333333332815e-01,1.639370893291840553e+09,0.000000000000000000e+00,3.381246136783082612e-01,0.000000000000000000e+00,3.381246136783082612e-01
1.000000000000000000e+00,1.639370893308795214e+09,0.000000000000000000e+00,4.182489297158217267e-01,0.000000000000000000e+00,4.182489297158217267e-01
1.016666666666666607e+00,1.639370893324752569e+09,0.000000000000000000e+00,5.143981089608388180e-01,0.000000000000000000e+00,5.143981089608388180e-01
1.033333333333333215e+00,1.639370893342704296e+09,0.000000000000000000e+00,6.105472882058546880e-01,0.000000000000000000e+00,6.105472882058546880e-01
1.050000000000000044e+00,1.639370893359658957e+09,0.000000000000000000e+00,6.746467410358656380e-01,0.000000000000000000e+00,6.746467410358656380e-01
1.066666666666666652e+00,1.639370893378642797e+09,0.000000000000000000e+00,7.227213306583742947e-01,0.000000000000000000e+00,7.227213306583742947e-01
1.083333333333333259e+00,1.639370893395596266e+09,0.000000000000000000e+00,7.868207834883852447e-01,0.000000000000000000e+00,7.868207834883852447e-01
1.100000000000000089e+00,1.639370893413514614e+09,0.000000000000000000e+00,8.028456466958876492e-01,0.000000000000000000e+00,8.028456466958876492e-01
1.116666666666666696e+00,1.639370893429507017e+09,0.000000000000000000e+00,8.188705099033901647e-01,0.000000000000000000e+00,8.188705099033901647e-01
1.133333333333333304e+00,1.639370893447459221e+09,0.000000000000000000e+00,8.188705099033901647e-01,0.000000000000000000e+00,8.188705099033901647e-01
1.149999999999999911e+00,1.639370893466374397e+09,0.000000000000000000e+00,8.188705099033901647e-01,0.000000000000000000e+00,8.188705099033901647e-01
1.166666666666666741e+00,1.639370893482365370e+09,0.000000000000000000e+00,7.387461938658766991e-01,0.000000000000000000e+00,7.387461938658766991e-01
1.183333333333333348e+00,1.639370893502277374e+09,0.000000000000000000e+00,5.464478353758437379e-01,0.000000000000000000e+00,5.464478353758437379e-01
1.199999999999999956e+00,1.639370893515242577e+09,0.000000000000000000e+00,4.022240665083192668e-01,0.000000000000000000e+00,4.022240665083192668e-01
1.216666666666666563e+00,1.639370893532196999e+09,0.000000000000000000e+00,2.259505712257887378e-01,0.000000000000000000e+00,2.259505712257887378e-01
1.233333333333333393e+00,1.639370893547156811e+09,0.000000000000000000e+00,6.570193915076183444e-02,0.000000000000000000e+00,6.570193915076183444e-02
1.250000000000000000e+00,1.639370893564112425e+09,0.000000000000000000e+00,-7.852182971676319179e-02,0.000000000000000000e+00,-7.852182971676319179e-02
1.266666666666666607e+00,1.639370893583060980e+09,0.000000000000000000e+00,-2.227455985842876351e-01,0.000000000000000000e+00,-2.227455985842876351e-01
1.283333333333333215e+00,1.639370893599019051e+09,0.000000000000000000e+00,-3.188947778293041435e-01,0.000000000000000000e+00,-3.188947778293041435e-01
1.300000000000000044e+00,1.639370893618965387e+09,0.000000000000000000e+00,-4.150439570743206241e-01,0.000000000000000000e+00,-4.150439570743206241e-01
1.316666666666666652e+00,1.639370893633924961e+09,0.000000000000000000e+00,-4.951682731118340897e-01,0.000000000000000000e+00,-4.951682731118340897e-01
1.333333333333333259e+00,1.639370893651911497e+09,0.000000000000000000e+00,-5.752925891493481103e-01,0.000000000000000000e+00,-5.752925891493481103e-01
1.350000000000000089e+00,1.639370893668831587e+09,0.000000000000000000e+00,-6.393920419793590604e-01,0.000000000000000000e+00,-6.393920419793590604e-01
1.366666666666666696e+00,1.639370893685786486e+09,0.000000000000000000e+00,-6.874666316018670509e-01,0.000000000000000000e+00,-6.874666316018670509e-01
1.383333333333333304e+00,1.639370893702775717e+09,0.000000000000000000e+00,-7.034914948093701215e-01,0.000000000000000000e+00,-7.034914948093701215e-01
1.399999999999999911e+00,1.639370893719728708e+09,0.000000000000000000e+00,-7.034914948093701215e-01,0.000000000000000000e+00,-7.034914948093701215e-01
1.416666666666666741e+00,1.639370893737682104e+09,0.000000000000000000e+00,-7.034914948093701215e-01,0.000000000000000000e+00,-7.034914948093701215e-01
1.433333333333333348e+00,1.639370893753639460e+09,0.000000000000000000e+00,-6.393920419793590604e-01,0.000000000000000000e+00,-6.393920419793590604e-01
1.449999999999999956e+00,1.639370893770560265e+09,0.000000000000000000e+00,-5.432428627343426353e-01,0.000000000000000000e+00,-5.432428627343426353e-01
1.466666666666666563e+00,1.639370893786551714e+09,0.000000000000000000e+00,-4.470936834893260992e-01,0.000000000000000000e+00,-4.470936834893260992e-01
1.483333333333333393e+00,1.639370893804504871e+09,0.000000000000000000e+00,-3.028699146218016836e-01,0.000000000000000000e+00,-3.028699146218016836e-01
1.500000000000000000e+00,1.639370893821457624e+09,0.000000000000000000e+00,-1.586461457542766296e-01,0.000000000000000000e+00,-1.586461457542766296e-01
1.516666666666666607e+00,1.639370893838412762e+09,0.000000000000000000e+00,1.602486320750845994e-03,0.000000000000000000e+00,1.602486320750845994e-03
1.533333333333333215e+00,1.639370893856365442e+09,0.000000000000000000e+00,1.298013919807728400e-01,0.000000000000000000e+00,1.298013919807728400e-01
1.550000000000000044e+00,1.639370893873319387e+09,0.000000000000000000e+00,2.099257080182862778e-01,0.000000000000000000e+00,2.099257080182862778e-01
1.566666666666666652e+00,1.639370893889254093e+09,0.000000000000000000e+00,2.900500240557997156e-01,0.000000000000000000e+00,2.900500240557997156e-01
1.583333333333333259e+00,1.639370893907195807e+09,0.000000000000000000e+00,3.060748872633021755e-01,0.000000000000000000e+00,3.060748872633021755e-01
1.600000000000000089e+00,1.639370893924184561e+09,0.000000000000000000e+00,3.060748872633021755e-01,0.000000000000000000e+00,3.060748872633021755e-01
1.616666666666666696e+00,1.639370893941103935e+09,0.000000000000000000e+00,3.060748872633021755e-01,0.000000000000000000e+00,3.060748872633021755e-01
1.633333333333333304e+00,1.639370893958093405e+09,0.000000000000000000e+00,3.060748872633021755e-01,0.000000000000000000e+00,3.060748872633021755e-01
1.649999999999999911e+00,1.639370893977043390e+09,0.000000000000000000e+00,2.740251608482972556e-01,0.000000000000000000e+00,2.740251608482972556e-01
1.666666666666666741e+00,1.639370893993995905e+09,0.000000000000000000e+00,2.099257080182862778e-01,0.000000000000000000e+00,2.099257080182862778e-01
1.683333333333333348e+00,1.639370894010950804e+09,0.000000000000000000e+00,1.298013919807728400e-01,0.000000000000000000e+00,1.298013919807728400e-01
1.699999999999999956e+00,1.639370894027907133e+09,0.000000000000000000e+00,1.762734952825329576e-02,0.000000000000000000e+00,1.762734952825329576e-02
1.716666666666666563e+00,1.639370894044825792e+09,0.000000000000000000e+00,-7.852182971676319179e-02,0.000000000000000000e+00,-7.852182971676319179e-02
1.733333333333333393e+00,1.639370894061814547e+09,0.000000000000000000e+00,-2.067207353767851752e-01,0.000000000000000000e+00,-2.067207353767851752e-01
1.750000000000000000e+00,1.639370894078769684e+09,0.000000000000000000e+00,-2.868450514142986130e-01,0.000000000000000000e+00,-2.868450514142986130e-01
1.766666666666666607e+00,1.639370894095724583e+09,0.000000000000000000e+00,-3.669693674518120785e-01,0.000000000000000000e+00,-3.669693674518120785e-01
1.783333333333333215e+00,1.639370894113676310e+09,0.000000000000000000e+00,-3.990190938668175535e-01,0.000000000000000000e+00,-3.990190938668175535e-01
1.800000000000000044e+00,1.639370894130630493e+09,0.000000000000000000e+00,-4.310688202818230841e-01,0.000000000000000000e+00,-4.310688202818230841e-01
1.816666666666666652e+00,1.639370894146587610e+09,0.000000000000000000e+00,-4.310688202818230841e-01,0.000000000000000000e+00,-4.310688202818230841e-01
1.833333333333333259e+00,1.639370894163544178e+09,0.000000000000000000e+00,-4.470936834893260992e-01,0.000000000000000000e+00,-4.470936834893260992e-01
1.849999999999999867e+00,1.639370894179502010e+09,0.000000000000000000e+00,-4.310688202818230841e-01,0.000000000000000000e+00,-4.310688202818230841e-01
1.866666666666666696e+00,1.639370894196456909e+09,0.000000000000000000e+00,-4.310688202818230841e-01,0.000000000000000000e+00,-4.310688202818230841e-01
1.883333333333333304e+00,1.639370894214406013e+09,0.000000000000000000e+00,-4.310688202818230841e-01,0.000000000000000000e+00,-4.310688202818230841e-01
1.899999999999999911e+00,1.639370894231360674e+09,0.000000000000000000e+00,-3.829942306593151491e-01,0.000000000000000000e+00,-3.829942306593151491e-01
1.916666666666666741e+00,1.639370894248315573e+09,0.000000000000000000e+00,-3.509445042443096185e-01,0.000000000000000000e+00,-3.509445042443096185e-01
1.933333333333333348e+00,1.639370894265270233e+09,0.000000000000000000e+00,-3.028699146218016836e-01,0.000000000000000000e+00,-3.028699146218016836e-01
1.949999999999999956e+00,1.639370894281193495e+09,0.000000000000000000e+00,-2.547953249992931379e-01,0.000000000000000000e+00,-2.547953249992931379e-01
1.966666666666666563e+00,1.639370894298182487e+09,0.000000000000000000e+00,-2.227455985842876351e-01,0.000000000000000000e+00,-2.227455985842876351e-01
1.983333333333333393e+00,1.639370894315138578e+09,0.000000000000000000e+00,-1.906958721692821324e-01,0.000000000000000000e+00,-1.906958721692821324e-01
2.000000000000000000e+00,1.639370894335049391e+09,0.000000000000000000e+00,-1.746710089617797002e-01,0.000000000000000000e+00,-1.746710089617797002e-01
2.016666666666666607e+00,1.639370894351006746e+09,0.000000000000000000e+00,-1.746710089617797002e-01,0.000000000000000000e+00,-1.746710089617797002e-01
2.033333333333333215e+00,1.639370894366998196e+09,0.000000000000000000e+00,-1.746710089617797002e-01,0.000000000000000000e+00,-1.746710089617797002e-01
2.049999999999999822e+00,1.639370894383952856e+09,0.000000000000000000e+00,-1.746710089617797002e-01,0.000000000000000000e+00,-1.746710089617797002e-01
2.066666666666666430e+00,1.639370894399909973e+09,0.000000000000000000e+00,-1.746710089617797002e-01,0.000000000000000000e+00,-1.746710089617797002e-01
2.083333333333333481e+00,1.639370894416829824e+09,0.000000000000000000e+00,-1.746710089617797002e-01,0.000000000000000000e+00,-1.746710089617797002e-01
2.100000000000000089e+00,1.639370894434818506e+09,0.000000000000000000e+00,-1.746710089617797002e-01,0.000000000000000000e+00,-1.746710089617797002e-01
2.116666666666666696e+00,1.639370894451770782e+09,0.000000000000000000e+00,-1.746710089617797002e-01,0.000000000000000000e+00,-1.746710089617797002e-01
2.133333333333333304e+00,1.639370894468725920e+09,0.000000000000000000e+00,-1.746710089617797002e-01,0.000000000000000000e+00,-1.746710089617797002e-01
2.149999999999999911e+00,1.639370894485678911e+09,0.000000000000000000e+00,-1.746710089617797002e-01,0.000000000000000000e+00,-1.746710089617797002e-01
2.166666666666666519e+00,1.639370894503598452e+09,0.000000000000000000e+00,-1.746710089617797002e-01,0.000000000000000000e+00,-1.746710089617797002e-01
2.183333333333333126e+00,1.639370894518593311e+09,0.000000000000000000e+00,-1.746710089617797002e-01,0.000000000000000000e+00,-1.746710089617797002e-01
2.200000000000000178e+00,1.639370894535547495e+09,0.000000000000000000e+00,-1.746710089617797002e-01,0.000000000000000000e+00,-1.746710089617797002e-01
2.216666666666666785e+00,1.639370894552500248e+09,0.000000000000000000e+00,-1.746710089617797002e-01,0.000000000000000000e+00,-1.746710089617797002e-01
2.233333333333333393e+00,1.639370894570455551e+09,0.000000000000000000e+00,-1.746710089617797002e-01,0.000000000000000000e+00,-1.746710089617797002e-01
2.250000000000000000e+00,1.639370894587431431e+09,0.000000000000000000e+00,-1.746710089617797002e-01,0.000000000000000000e+00,-1.746710089617797002e-01
2.266666666666666607e+00,1.639370894604384422e+09,0.000000000000000000e+00,-1.746710089617797002e-01,0.000000000000000000e+00,-1.746710089617797002e-01
2.283333333333333215e+00,1.639370894621338844e+09,0.000000000000000000e+00,-1.746710089617797002e-01,0.000000000000000000e+00,-1.746710089617797002e-01
2.299999999999999822e+00,1.639370894638294935e+09,0.000000000000000000e+00,-1.746710089617797002e-01,0.000000000000000000e+00,-1.746710089617797002e-01
2.316666666666666430e+00,1.639370894654250860e+09,0.000000000000000000e+00,-1.746710089617797002e-01,0.000000000000000000e+00,-1.746710089617797002e-01
2.333333333333333481e+00,1.639370894672207594e+09,0.000000000000000000e+00,-1.746710089617797002e-01,0.000000000000000000e+00,-1.746710089617797002e-01
2.350000000000000089e+00,1.639370894688163519e+09,0.000000000000000000e+00,-1.746710089617797002e-01,0.000000000000000000e+00,-1.746710089617797002e-01
2.366666666666666696e+00,1.639370894706092596e+09,0.000000000000000000e+00,-1.746710089617797002e-01,0.000000000000000000e+00,-1.746710089617797002e-01
2.383333333333333304e+00,1.639370894723012209e+09,0.000000000000000000e+00,-1.746710089617797002e-01,0.000000000000000000e+00,-1.746710089617797002e-01
2.399999999999999911e+00,1.639370894740000248e+09,0.000000000000000000e+00,-1.746710089617797002e-01,0.000000000000000000e+00,-1.746710089617797002e-01
2.416666666666666519e+00,1.639370894755958557e+09,0.000000000000000000e+00,-1.746710089617797002e-01,0.000000000000000000e+00,-1.746710089617797002e-01
2.433333333333333126e+00,1.639370894772911310e+09,0.000000000000000000e+00,-1.746710089617797002e-01,0.000000000000000000e+00,-1.746710089617797002e-01
2.450000000000000178e+00,1.639370894790830374e+09,0.000000000000000000e+00,-1.746710089617797002e-01,0.000000000000000000e+00,-1.746710089617797002e-01
2.466666666666666785e+00,1.639370894808830976e+09,0.000000000000000000e+00,-1.746710089617797002e-01,0.000000000000000000e+00,-1.746710089617797002e-01
2.483333333333333393e+00,1.639370894825772285e+09,0.000000000000000000e+00,-1.746710089617797002e-01,0.000000000000000000e+00,-1.746710089617797002e-01
2.500000000000000000e+00,1.639370894842727661e+09,0.000000000000000000e+00,-1.746710089617797002e-01,0.000000000000000000e+00,-1.746710089617797002e-01
2.516666666666666607e+00,1.639370894859680414e+09,0.000000000000000000e+00,-1.746710089617797002e-01,0.000000000000000000e+00,-1.746710089617797002e-01
2.533333333333333215e+00,1.639370894875637531e+09,0.000000000000000000e+00,-1.746710089617797002e-01,0.000000000000000000e+00,-1.746710089617797002e-01
2.549999999999999822e+00,1.639370894893588543e+09,0.000000000000000000e+00,-1.906958721692821324e-01,0.000000000000000000e+00,-1.906958721692821324e-01
2.566666666666666430e+00,1.639370894910544395e+09,0.000000000000000000e+00,-2.067207353767851752e-01,0.000000000000000000e+00,-2.067207353767851752e-01
2.583333333333333481e+00,1.639370894926501036e+09,0.000000000000000000e+00,-2.387704617917906780e-01,0.000000000000000000e+00,-2.387704617917906780e-01
2.600000000000000089e+00,1.639370894944452524e+09,0.000000000000000000e+00,-2.547953249992931379e-01,0.000000000000000000e+00,-2.547953249992931379e-01
2.616666666666666696e+00,1.639370894961410522e+09,0.000000000000000000e+00,-2.868450514142986130e-01,0.000000000000000000e+00,-2.868450514142986130e-01
2.633333333333333304e+00,1.639370894979360104e+09,0.000000000000000000e+00,-3.188947778293041435e-01,0.000000000000000000e+00,-3.188947778293041435e-01
2.649999999999999911e+00,1.639370894995283127e+09,0.000000000000000000e+00,-3.509445042443096185e-01,0.000000000000000000e+00,-3.509445042443096185e-01
2.666666666666666519e+00,1.639370895010279417e+09,0.000000000000000000e+00,-3.829942306593151491e-01,0.000000000000000000e+00,-3.829942306593151491e-01
2.683333333333333126e+00,1.639370895029225826e+09,0.000000000000000000e+00,-4.150439570743206241e-01,0.000000000000000000e+00,-4.150439570743206241e-01
2.700000000000000178e+00,1.639370895046181202e+09,0.000000000000000000e+00,-4.470936834893260992e-01,0.000000000000000000e+00,-4.470936834893260992e-01
2.716666666666666785e+00,1.639370895063135147e+09,0.000000000000000000e+00,-4.791434099043316297e-01,0.000000000000000000e+00,-4.791434099043316297e-01
2.733333333333333393e+00,1.639370895080089569e+09,0.000000000000000000e+00,-4.951682731118340897e-01,0.000000000000000000e+00,-4.951682731118340897e-01
2.750000000000000000e+00,1.639370895097046375e+09,0.000000000000000000e+00,-5.272179995268395647e-01,0.000000000000000000e+00,-5.272179995268395647e-01
2.766666666666666607e+00,1.639370895113999128e+09,0.000000000000000000e+00,-5.592677259418450397e-01,0.000000000000000000e+00,-5.592677259418450397e-01
2.783333333333333215e+00,1.639370895131950855e+09,0.000000000000000000e+00,-5.752925891493481103e-01,0.000000000000000000e+00,-5.752925891493481103e-01
2.799999999999999822e+00,1.639370895148908377e+09,0.000000000000000000e+00,-6.073423155643535853e-01,0.000000000000000000e+00,-6.073423155643535853e-01
2.816666666666666430e+00,1.639370895165860653e+09,0.000000000000000000e+00,-6.073423155643535853e-01,0.000000000000000000e+00,-6.073423155643535853e-01
2.833333333333333481e+00,1.639370895182815313e+09,0.000000000000000000e+00,-6.073423155643535853e-01,0.000000000000000000e+00,-6.073423155643535853e-01
2.850000000000000089e+00,1.639370895198771954e+09,0.000000000000000000e+00,-6.073423155643535853e-01,0.000000000000000000e+00,-6.073423155643535853e-01
2.866666666666666696e+00,1.639370895216726303e+09,0.000000000000000000e+00,-6.073423155643535853e-01,0.000000000000000000e+00,-6.073423155643535853e-01
2.883333333333333304e+00,1.639370895233678818e+09,0.000000000000000000e+00,-6.073423155643535853e-01,0.000000000000000000e+00,-6.073423155643535853e-01
2.899999999999999911e+00,1.639370895250634193e+09,0.000000000000000000e+00,-6.073423155643535853e-01,0.000000000000000000e+00,-6.073423155643535853e-01
2.916666666666666519e+00,1.639370895267592907e+09,0.000000000000000000e+00,-6.073423155643535853e-01,0.000000000000000000e+00,-6.073423155643535853e-01
2.933333333333333126e+00,1.639370895286537409e+09,0.000000000000000000e+00,-6.073423155643535853e-01,0.000000000000000000e+00,-6.073423155643535853e-01
2.950000000000000178e+00,1.639370895302495003e+09,0.000000000000000000e+00,-6.073423155643535853e-01,0.000000000000000000e+00,-6.073423155643535853e-01
2.966666666666666785e+00,1.639370895318453789e+09,0.000000000000000000e+00,-6.073423155643535853e-01,0.000000000000000000e+00,-6.073423155643535853e-01
2.983333333333333393e+00,1.639370895334409475e+09,0.000000000000000000e+00,-6.073423155643535853e-01,0.000000000000000000e+00,-6.073423155643535853e-01
3.000000000000000000e+00,1.639370895352363586e+09,0.000000000000000000e+00,-5.752925891493481103e-01,0.000000000000000000e+00,-5.752925891493481103e-01
