2022-02-11-16:52:35.333968,4.0,12.0,349.0
2022-02-11-16:52:35.334929,5.0,3.0,349.0
2022-02-11-16:52:35.335954,5.0,4.0,348.0
2022-02-11-16:52:35.337932,7.0,5.0,348.0
2022-02-11-16:52:35.337932,10.0,7.0,349.0
2022-02-11-16:52:35.338920,7.0,3.0,349.0
2022-02-11-16:52:35.340950,2.0,2.0,349.0
2022-02-11-16:52:35.341911,1.0,5.0,349.0
2022-02-11-16:52:35.341911,5.0,6.0,348.0
2022-02-11-16:52:35.342934,3.0,1.0,349.0
2022-02-11-16:52:35.343932,6.0,4.0,349.0
2022-02-11-16:52:35.344903,8.0,11.0,349.0
2022-02-11-16:52:35.345901,4.0,13.0,349.0
2022-02-11-16:52:35.346899,3.0,5.0,349.0
2022-02-11-16:52:35.347935,3.0,15.0,349.0
2022-02-11-16:52:35.348926,8.0,1.0,349.0
2022-02-11-16:52:35.349924,5.0,2.0,349.0
2022-02-11-16:52:35.350920,2.0,4.0,349.0
2022-02-11-16:52:35.351918,6.0,4.0,349.0
2022-02-11-16:52:35.352915,1.0,15.0,349.0
2022-02-11-16:52:35.353912,1.0,4.0,350.0
2022-02-11-16:52:35.354911,4.0,1.0,349.0
2022-02-11-16:52:35.355875,8.0,5.0,349.0
2022-02-11-16:52:35.356871,0.0,22.0,350.0
2022-02-11-16:52:35.357869,7.0,7.0,349.0
2022-02-11-16:52:35.358867,3.0,1.0,350.0
2022-02-11-16:52:35.359862,6.0,5.0,349.0
2022-02-11-16:52:35.360895,7.0,0.0,350.0
2022-02-11-16:52:35.361891,6.0,5.0,350.0
2022-02-11-16:52:35.362890,6.0,9.0,349.0
2022-02-11-16:52:35.363885,6.0,18.0,350.0
2022-02-11-16:52:35.364883,5.0,0.0,349.0
2022-02-11-16:52:35.365882,6.0,2.0,349.0
2022-02-11-16:52:35.366879,1.0,7.0,350.0
2022-02-11-16:52:35.367876,9.0,10.0,350.0
2022-02-11-16:52:35.368875,3.0,22.0,350.0
2022-02-11-16:52:35.369871,3.0,11.0,350.0
2022-02-11-16:52:35.370868,8.0,0.0,349.0
2022-02-11-16:52:35.371868,7.0,6.0,349.0
2022-02-11-16:52:35.372861,3.0,12.0,349.0
2022-02-11-16:52:35.374824,2.0,2.0,349.0
2022-02-11-16:52:35.375820,5.0,0.0,350.0
2022-02-11-16:52:35.375820,6.0,13.0,350.0
2022-02-11-16:52:35.376851,4.0,5.0,349.0
2022-02-11-16:52:35.377852,3.0,17.0,350.0
2022-02-11-16:52:35.378847,1.0,9.0,349.0
2022-02-11-16:52:35.379843,5.0,1.0,349.0
2022-02-11-16:52:35.380843,7.0,2.0,349.0
2022-02-11-16:52:35.381839,4.0,8.0,350.0
2022-02-11-16:52:35.382836,2.0,14.0,349.0
2022-02-11-16:52:35.383834,4.0,8.0,350.0
2022-02-11-16:52:35.384831,8.0,0.0,349.0
2022-02-11-16:52:35.385828,6.0,4.0,349.0
2022-02-11-16:52:35.386826,5.0,16.0,350.0
2022-02-11-16:52:35.387823,1.0,7.0,349.0
2022-02-11-16:52:35.388822,5.0,1.0,349.0
2022-02-11-16:52:35.390780,5.0,2.0,349.0
2022-02-11-16:52:35.390780,6.0,13.0,349.0
2022-02-11-16:52:35.391812,7.0,6.0,350.0
2022-02-11-16:52:35.392821,6.0,3.0,349.0
2022-02-11-16:52:35.393774,7.0,10.0,349.0
2022-02-11-16:52:35.394805,3.0,7.0,349.0
2022-02-11-16:52:35.395802,7.0,2.0,349.0
2022-02-11-16:52:35.396270,7.0,0.0,349.0
2022-02-11-16:52:35.396764,7.0,6.0,349.0
2022-02-11-16:52:35.397796,5.0,16.0,350.0
2022-02-11-16:52:35.398792,6.0,9.0,350.0
2022-02-11-16:52:35.399791,6.0,3.0,350.0
2022-02-11-16:52:35.400787,7.0,3.0,349.0
2022-02-11-16:52:35.401785,0.0,6.0,349.0
2022-02-11-16:52:35.402782,4.0,16.0,349.0
2022-02-11-16:52:35.403779,8.0,1.0,349.0
2022-02-11-16:52:35.404779,6.0,1.0,349.0
2022-02-11-16:52:35.405775,8.0,4.0,349.0
2022-02-11-16:52:35.406771,0.0,16.0,350.0
2022-02-11-16:52:35.407735,7.0,8.0,349.0
2022-02-11-16:52:35.408732,5.0,9.0,349.0
2022-02-11-16:52:35.410776,2.0,10.0,350.0
2022-02-11-16:52:35.411724,1.0,2.0,349.0
2022-02-11-16:52:35.411724,7.0,1.0,350.0
2022-02-11-16:52:35.412750,8.0,2.0,349.0
2022-02-11-16:52:35.413745,4.0,21.0,350.0
2022-02-11-16:52:35.414741,5.0,9.0,349.0
2022-02-11-16:52:35.415739,6.0,1.0,349.0
2022-02-11-16:52:35.416735,5.0,8.0,349.0
2022-02-11-16:52:35.417732,6.0,30.0,350.0
2022-02-11-16:52:35.418731,6.0,2.0,350.0
2022-02-11-16:52:35.419727,6.0,0.0,350.0
2022-02-11-16:52:35.420725,3.0,6.0,349.0
2022-02-11-16:52:35.421723,8.0,30.0,350.0
2022-02-11-16:52:35.422719,6.0,3.0,350.0
2022-02-11-16:52:35.423718,8.0,7.0,349.0
2022-02-11-16:52:35.424690,3.0,14.0,349.0
2022-02-11-16:52:35.425720,6.0,19.0,349.0
2022-02-11-16:52:35.426718,3.0,3.0,350.0
2022-02-11-16:52:35.427714,8.0,8.0,349.0
2022-02-11-16:52:35.428711,5.0,4.0,350.0
2022-02-11-16:52:35.429710,2.0,18.0,349.0
2022-02-11-16:52:35.430706,5.0,7.0,349.0
2022-02-11-16:52:35.431705,10.0,1.0,350.0
2022-02-11-16:52:35.432700,6.0,4.0,349.0
2022-02-11-16:52:35.433697,6.0,4.0,349.0
2022-02-11-16:52:35.434696,6.0,4.0,349.0
2022-02-11-16:52:35.435692,0.0,1.0,349.0
2022-02-11-16:52:35.436690,0.0,1.0,349.0
2022-02-11-16:52:35.437689,0.0,1.0,349.0
2022-02-11-16:52:35.438684,6.0,15.0,349.0
2022-02-11-16:52:35.439684,4.0,12.0,349.0
2022-02-11-16:52:35.440679,4.0,12.0,349.0
2022-02-11-16:52:35.442676,4.0,12.0,349.0
2022-02-11-16:52:35.442676,5.0,1.0,349.0
2022-02-11-16:52:35.443639,8.0,1.0,349.0
2022-02-11-16:52:35.444668,8.0,1.0,349.0
2022-02-11-16:52:35.445634,8.0,1.0,349.0
2022-02-11-16:52:35.446961,10.0,5.0,349.0
2022-02-11-16:52:35.447225,6.0,6.0,349.0
2022-02-11-16:52:35.447558,6.0,6.0,349.0
2022-02-11-16:52:35.447830,6.0,6.0,349.0
2022-02-11-16:52:35.448091,6.0,6.0,349.0
2022-02-11-16:52:35.448374,6.0,6.0,349.0
2022-02-11-16:52:35.448624,6.0,6.0,349.0
2022-02-11-16:52:35.448624,6.0,6.0,349.0
2022-02-11-16:52:35.449623,6.0,6.0,349.0
2022-02-11-16:52:35.450658,7.0,7.0,349.0
2022-02-11-16:52:35.450658,7.0,3.0,348.0
2022-02-11-16:52:35.451691,7.0,3.0,348.0
2022-02-11-16:52:35.452695,7.0,3.0,348.0
2022-02-11-16:52:35.453689,7.0,3.0,348.0
2022-02-11-16:52:35.454684,1.0,24.0,349.0
2022-02-11-16:52:35.455682,6.0,23.0,349.0
2022-02-11-16:52:35.456678,6.0,23.0,349.0
2022-02-11-16:52:35.457678,6.0,23.0,349.0
2022-02-11-16:52:35.458675,6.0,23.0,349.0
2022-02-11-16:52:35.459906,6.0,4.0,349.0
2022-02-11-16:52:35.460163,6.0,4.0,349.0
2022-02-11-16:52:35.460420,6.0,4.0,349.0
2022-02-11-16:52:35.460680,6.0,4.0,349.0
2022-02-11-16:52:35.460930,6.0,4.0,349.0
2022-02-11-16:52:35.461187,6.0,4.0,349.0
2022-02-11-16:52:35.461440,6.0,4.0,349.0
2022-02-11-16:52:35.461671,6.0,4.0,349.0
2022-02-11-16:52:35.461878,6.0,4.0,349.0
2022-02-11-16:52:35.461878,6.0,4.0,349.0
2022-02-11-16:52:35.462877,9.0,4.0,349.0
2022-02-11-16:52:35.463874,4.0,2.0,349.0
2022-02-11-16:52:35.465039,4.0,2.0,349.0
2022-02-11-16:52:35.465285,4.0,2.0,349.0
2022-02-11-16:52:35.465285,4.0,2.0,349.0
2022-02-11-16:52:35.466459,4.0,2.0,349.0
2022-02-11-16:52:35.466459,5.0,16.0,348.0
2022-02-11-16:52:35.467492,4.0,9.0,348.0
2022-02-11-16:52:35.468494,4.0,9.0,348.0
2022-02-11-16:52:35.469486,4.0,9.0,348.0
2022-02-11-16:52:35.470486,4.0,9.0,348.0
2022-02-11-16:52:35.471481,7.0,22.0,349.0
2022-02-11-16:52:35.472480,2.0,22.0,349.0
2022-02-11-16:52:35.473477,2.0,22.0,349.0
2022-02-11-16:52:35.474469,2.0,22.0,349.0
2022-02-11-16:52:35.476489,2.0,22.0,349.0
2022-02-11-16:52:35.476489,8.0,5.0,349.0
2022-02-11-16:52:35.477432,8.0,5.0,349.0
2022-02-11-16:52:35.478430,8.0,5.0,349.0
2022-02-11-16:52:35.479459,5.0,2.0,349.0
2022-02-11-16:52:35.480459,8.0,2.0,349.0
2022-02-11-16:52:35.481456,8.0,2.0,349.0
2022-02-11-16:52:35.482419,8.0,2.0,349.0
2022-02-11-16:52:35.483783,4.0,14.0,349.0
2022-02-11-16:52:35.484037,6.0,5.0,349.0
2022-02-11-16:52:35.484290,6.0,5.0,349.0
2022-02-11-16:52:35.484547,6.0,5.0,349.0
2022-02-11-16:52:35.484806,6.0,5.0,349.0
2022-02-11-16:52:35.485058,6.0,5.0,349.0
2022-02-11-16:52:35.485308,6.0,5.0,349.0
2022-02-11-16:52:35.485308,6.0,5.0,349.0
2022-02-11-16:52:35.486307,6.0,5.0,349.0
2022-02-11-16:52:35.487305,6.0,5.0,349.0
2022-02-11-16:52:35.488583,4.0,21.0,349.0
2022-02-11-16:52:35.488834,5.0,28.0,348.0
2022-02-11-16:52:35.489091,5.0,28.0,348.0
2022-02-11-16:52:35.489352,5.0,28.0,348.0
2022-02-11-16:52:35.489597,5.0,28.0,348.0
2022-02-11-16:52:35.489825,5.0,28.0,348.0
2022-02-11-16:52:35.489917,5.0,28.0,348.0
2022-02-11-16:52:35.489917,5.0,28.0,348.0
2022-02-11-16:52:35.490981,5.0,28.0,348.0
2022-02-11-16:52:35.490981,3.0,7.0,348.0
2022-02-11-16:52:35.491981,3.0,7.0,348.0
2022-02-11-16:52:35.493002,3.0,7.0,348.0
2022-02-11-16:52:35.494183,3.0,7.0,348.0
2022-02-11-16:52:35.494391,3.0,7.0,348.0
2022-02-11-16:52:35.494597,3.0,7.0,348.0
2022-02-11-16:52:35.494833,3.0,7.0,348.0
2022-02-11-16:52:35.494833,6.0,11.0,349.0
2022-02-11-16:52:35.495963,8.0,17.0,349.0
2022-02-11-16:52:35.495963,8.0,17.0,349.0
2022-02-11-16:52:35.496988,8.0,17.0,349.0
2022-02-11-16:52:35.498161,8.0,17.0,349.0
2022-02-11-16:52:35.498363,8.0,17.0,349.0
2022-02-11-16:52:35.498565,8.0,17.0,349.0
2022-02-11-16:52:35.498762,8.0,17.0,349.0
2022-02-11-16:52:35.498762,8.0,17.0,349.0
2022-02-11-16:52:35.499793,8.0,17.0,349.0
2022-02-11-16:52:35.500792,6.0,6.0,349.0
2022-02-11-16:52:35.501788,8.0,7.0,349.0
2022-02-11-16:52:35.502788,8.0,7.0,349.0
2022-02-11-16:52:35.504073,4.0,13.0,349.0
2022-02-11-16:52:35.504328,4.0,23.0,349.0
2022-02-11-16:52:35.504584,4.0,23.0,349.0
2022-02-11-16:52:35.504817,4.0,23.0,349.0
2022-02-11-16:52:35.505041,4.0,23.0,349.0
2022-02-11-16:52:35.505256,4.0,23.0,349.0
2022-02-11-16:52:35.505466,4.0,23.0,349.0
2022-02-11-16:52:35.505671,4.0,23.0,349.0
2022-02-11-16:52:35.505755,4.0,23.0,349.0
2022-02-11-16:52:35.505755,4.0,23.0,349.0
2022-02-11-16:52:35.506755,4.0,23.0,349.0
2022-02-11-16:52:35.507987,4.0,23.0,349.0
2022-02-11-16:52:35.507987,0.0,2.0,349.0
2022-02-11-16:52:35.509021,7.0,0.0,348.0
2022-02-11-16:52:35.511037,7.0,0.0,348.0
2022-02-11-16:52:35.511037,7.0,3.0,350.0
2022-02-11-16:52:35.512014,6.0,1.0,349.0
2022-02-11-16:52:35.513010,6.0,1.0,349.0
2022-02-11-16:52:35.513975,6.0,1.0,349.0
2022-02-11-16:52:35.515003,6.0,1.0,349.0
2022-02-11-16:52:35.516001,10.0,5.0,349.0
2022-02-11-16:52:35.517000,7.0,1.0,349.0
2022-02-11-16:52:35.518211,7.0,1.0,349.0
2022-02-11-16:52:35.518492,7.0,1.0,349.0
2022-02-11-16:52:35.518768,7.0,1.0,349.0
2022-02-11-16:52:35.519049,7.0,1.0,349.0
2022-02-11-16:52:35.519296,7.0,1.0,349.0
2022-02-11-16:52:35.519296,5.0,6.0,349.0
2022-02-11-16:52:35.520329,2.0,17.0,349.0
2022-02-11-16:52:35.521325,2.0,17.0,349.0
2022-02-11-16:52:35.522326,2.0,17.0,349.0
2022-02-11-16:52:35.523321,2.0,17.0,349.0
2022-02-11-16:52:35.524317,3.0,3.0,349.0
2022-02-11-16:52:35.525453,6.0,5.0,349.0
2022-02-11-16:52:35.526231,6.0,5.0,349.0
2022-02-11-16:52:35.526514,6.0,5.0,349.0
2022-02-11-16:52:35.526794,6.0,5.0,349.0
2022-02-11-16:52:35.527069,6.0,5.0,349.0
2022-02-11-16:52:35.527345,6.0,5.0,349.0
2022-02-11-16:52:35.527634,6.0,5.0,349.0
2022-02-11-16:52:35.527634,5.0,2.0,349.0
2022-02-11-16:52:35.528667,8.0,3.0,349.0
2022-02-11-16:52:35.529665,8.0,3.0,349.0
2022-02-11-16:52:35.530663,8.0,3.0,349.0
2022-02-11-16:52:35.531626,8.0,3.0,349.0
2022-02-11-16:52:35.532657,7.0,5.0,349.0
2022-02-11-16:52:35.533653,7.0,1.0,349.0
2022-02-11-16:52:35.534657,7.0,1.0,349.0
2022-02-11-16:52:35.535652,7.0,1.0,349.0
2022-02-11-16:52:35.536645,2.0,18.0,349.0
2022-02-11-16:52:35.537644,5.0,14.0,349.0
2022-02-11-16:52:35.538640,5.0,14.0,349.0
2022-02-11-16:52:35.539638,5.0,14.0,349.0
2022-02-11-16:52:35.540638,5.0,14.0,349.0
2022-02-11-16:52:35.541632,6.0,4.0,349.0
2022-02-11-16:52:35.543652,6.0,4.0,349.0
2022-02-11-16:52:35.543652,6.0,4.0,349.0
2022-02-11-16:52:35.544592,6.0,6.0,349.0
2022-02-11-16:52:35.545623,6.0,6.0,349.0
2022-02-11-16:52:35.546619,6.0,6.0,349.0
2022-02-11-16:52:35.547618,6.0,6.0,349.0
2022-02-11-16:52:35.548615,6.0,6.0,349.0
2022-02-11-16:52:35.549612,6.0,6.0,349.0
2022-02-11-16:52:35.550608,3.0,6.0,349.0
2022-02-11-16:52:35.551609,3.0,6.0,349.0
2022-02-11-16:52:35.552602,3.0,6.0,349.0
2022-02-11-16:52:35.553602,1.0,12.0,349.0
2022-02-11-16:52:35.554597,4.0,24.0,349.0
2022-02-11-16:52:35.555596,4.0,24.0,349.0
2022-02-11-16:52:35.556594,4.0,24.0,349.0
2022-02-11-16:52:35.557590,5.0,5.0,349.0
2022-02-11-16:52:35.558589,1.0,12.0,349.0
2022-02-11-16:52:35.559588,1.0,12.0,349.0
2022-02-11-16:52:35.560582,1.0,12.0,349.0
2022-02-11-16:52:35.561581,5.0,10.0,349.0
2022-02-11-16:52:35.562577,7.0,12.0,348.0
2022-02-11-16:52:35.563577,7.0,12.0,348.0
2022-02-11-16:52:35.564610,7.0,12.0,348.0
2022-02-11-16:52:35.565228,6.0,12.0,349.0
2022-02-11-16:52:35.565509,7.0,5.0,349.0
2022-02-11-16:52:35.565777,7.0,5.0,349.0
2022-02-11-16:52:35.566054,7.0,5.0,349.0
2022-02-11-16:52:35.566333,7.0,5.0,349.0
2022-02-11-16:52:35.566618,7.0,5.0,349.0
2022-02-11-16:52:35.566618,7.0,5.0,349.0
2022-02-11-16:52:35.567839,7.0,5.0,349.0
2022-02-11-16:52:35.568098,7.0,5.0,349.0
2022-02-11-16:52:35.568341,7.0,5.0,349.0
2022-02-11-16:52:35.568341,7.0,5.0,349.0
2022-02-11-16:52:35.569401,4.0,14.0,349.0
2022-02-11-16:52:35.569899,7.0,19.0,349.0
2022-02-11-16:52:35.570115,7.0,19.0,349.0
2022-02-11-16:52:35.570346,7.0,19.0,349.0
2022-02-11-16:52:35.570573,7.0,19.0,349.0
2022-02-11-16:52:35.570573,7.0,19.0,349.0
2022-02-11-16:52:35.571572,7.0,19.0,349.0
2022-02-11-16:52:35.572569,7.0,19.0,349.0
2022-02-11-16:52:35.573816,3.0,2.0,349.0
2022-02-11-16:52:35.573816,3.0,2.0,349.0
2022-02-11-16:52:35.574815,3.0,2.0,349.0
2022-02-11-16:52:35.575813,3.0,2.0,349.0
2022-02-11-16:52:35.577881,3.0,2.0,349.0
2022-02-11-16:52:35.577881,9.0,3.0,349.0
2022-02-11-16:52:35.578877,9.0,3.0,349.0
2022-02-11-16:52:35.579874,9.0,3.0,349.0
2022-02-11-16:52:35.581092,9.0,3.0,349.0
2022-02-11-16:52:35.581526,9.0,9.0,349.0
2022-02-11-16:52:35.581526,6.0,2.0,349.0
2022-02-11-16:52:35.582562,6.0,2.0,349.0
2022-02-11-16:52:35.583557,6.0,2.0,349.0
2022-02-11-16:52:35.584551,6.0,2.0,349.0
2022-02-11-16:52:35.585549,6.0,2.0,349.0
2022-02-11-16:52:35.586547,0.0,4.0,349.0
2022-02-11-16:52:35.587551,1.0,10.0,349.0
2022-02-11-16:52:35.588541,1.0,10.0,349.0
2022-02-11-16:52:35.589539,1.0,10.0,349.0
2022-02-11-16:52:35.590538,3.0,1.0,349.0
2022-02-11-16:52:35.591500,8.0,1.0,349.0
2022-02-11-16:52:35.592531,8.0,1.0,349.0
2022-02-11-16:52:35.593528,8.0,2.0,349.0
2022-02-11-16:52:35.594526,9.0,7.0,349.0
2022-02-11-16:52:35.595523,9.0,7.0,349.0
2022-02-11-16:52:35.596520,9.0,7.0,349.0
2022-02-11-16:52:35.597518,9.0,7.0,349.0
2022-02-11-16:52:35.598483,2.0,6.0,349.0
2022-02-11-16:52:35.599511,7.0,14.0,349.0
2022-02-11-16:52:35.600500,7.0,14.0,349.0
2022-02-11-16:52:35.601508,7.0,14.0,349.0
2022-02-11-16:52:35.602506,3.0,8.0,349.0
2022-02-11-16:52:35.603507,2.0,12.0,349.0
2022-02-11-16:52:35.604502,2.0,12.0,349.0
2022-02-11-16:52:35.605464,2.0,12.0,349.0
2022-02-11-16:52:35.606500,4.0,18.0,349.0
2022-02-11-16:52:35.607492,5.0,8.0,349.0
2022-02-11-16:52:35.608489,5.0,8.0,349.0
2022-02-11-16:52:35.609453,5.0,8.0,349.0
2022-02-11-16:52:35.611504,9.0,2.0,349.0
2022-02-11-16:52:35.611504,9.0,2.0,349.0
2022-02-11-16:52:35.612481,9.0,2.0,349.0
2022-02-11-16:52:35.613504,9.0,2.0,349.0
2022-02-11-16:52:35.613504,8.0,2.0,349.0
2022-02-11-16:52:35.614538,7.0,14.0,349.0
2022-02-11-16:52:35.615534,7.0,14.0,349.0
2022-02-11-16:52:35.616534,7.0,14.0,349.0
2022-02-11-16:52:35.617530,7.0,14.0,349.0
2022-02-11-16:52:35.618526,8.0,6.0,349.0
2022-02-11-16:52:35.619524,5.0,13.0,349.0
2022-02-11-16:52:35.620521,5.0,13.0,349.0
2022-02-11-16:52:35.621519,5.0,13.0,349.0
2022-02-11-16:52:35.622517,7.0,22.0,349.0
2022-02-11-16:52:35.623513,4.0,7.0,349.0
2022-02-11-16:52:35.624477,4.0,7.0,349.0
2022-02-11-16:52:35.625475,4.0,7.0,349.0
2022-02-11-16:52:35.626505,4.0,7.0,349.0
2022-02-11-16:52:35.627503,5.0,10.0,349.0
2022-02-11-16:52:35.628500,5.0,10.0,349.0
2022-02-11-16:52:35.629499,5.0,10.0,349.0
2022-02-11-16:52:35.630495,5.0,10.0,349.0
2022-02-11-16:52:35.631493,5.0,1.0,349.0
2022-02-11-16:52:35.632491,4.0,4.0,349.0
2022-02-11-16:52:35.633487,4.0,4.0,349.0
2022-02-11-16:52:35.634484,4.0,4.0,349.0
2022-02-11-16:52:35.635482,5.0,9.0,349.0
2022-02-11-16:52:35.636478,2.0,16.0,349.0
2022-02-11-16:52:35.637476,2.0,16.0,349.0
2022-02-11-16:52:35.638479,2.0,16.0,349.0
2022-02-11-16:52:35.639470,6.0,32.0,349.0
2022-02-11-16:52:35.640470,2.0,9.0,349.0
2022-02-11-16:52:35.641432,2.0,9.0,349.0
2022-02-11-16:52:35.642463,2.0,9.0,349.0
2022-02-11-16:52:35.643461,6.0,2.0,348.0
2022-02-11-16:52:35.644423,3.0,3.0,349.0
2022-02-11-16:52:35.646418,2.0,7.0,349.0
2022-02-11-16:52:35.646418,2.0,7.0,349.0
2022-02-11-16:52:35.647416,4.0,12.0,349.0
2022-02-11-16:52:35.648449,4.0,12.0,349.0
2022-02-11-16:52:35.649444,4.0,12.0,349.0
2022-02-11-16:52:35.650408,4.0,12.0,349.0
2022-02-11-16:52:35.651724,5.0,10.0,349.0
2022-02-11-16:52:35.651973,6.0,22.0,349.0
2022-02-11-16:52:35.652226,6.0,22.0,349.0
2022-02-11-16:52:35.652226,6.0,22.0,349.0
2022-02-11-16:52:35.653225,6.0,22.0,349.0
2022-02-11-16:52:35.654430,6.0,22.0,349.0
2022-02-11-16:52:35.654430,6.0,22.0,349.0
2022-02-11-16:52:35.655430,2.0,13.0,349.0
2022-02-11-16:52:35.656462,2.0,13.0,349.0
2022-02-11-16:52:35.656462,2.0,13.0,349.0
2022-02-11-16:52:35.657497,2.0,13.0,349.0
2022-02-11-16:52:35.658487,2.0,13.0,349.0
2022-02-11-16:52:35.659457,4.0,5.0,349.0
2022-02-11-16:52:35.660527,1.0,2.0,349.0
2022-02-11-16:52:35.661444,1.0,2.0,349.0
2022-02-11-16:52:35.661697,1.0,2.0,349.0
2022-02-11-16:52:35.661952,1.0,2.0,349.0
2022-02-11-16:52:35.662209,1.0,2.0,349.0
2022-02-11-16:52:35.662209,1.0,2.0,349.0
2022-02-11-16:52:35.663208,1.0,2.0,349.0
2022-02-11-16:52:35.664205,5.0,1.0,349.0
2022-02-11-16:52:35.665238,3.0,0.0,349.0
2022-02-11-16:52:35.665717,3.0,0.0,349.0
2022-02-11-16:52:35.665967,3.0,0.0,349.0
2022-02-11-16:52:35.666220,3.0,0.0,349.0
2022-02-11-16:52:35.666475,3.0,0.0,349.0
2022-02-11-16:52:35.666735,3.0,0.0,349.0
2022-02-11-16:52:35.666842,3.0,0.0,349.0
2022-02-11-16:52:35.666842,5.0,12.0,349.0
2022-02-11-16:52:35.667877,5.0,12.0,349.0
2022-02-11-16:52:35.668878,5.0,12.0,349.0
2022-02-11-16:52:35.669870,5.0,12.0,349.0
2022-02-11-16:52:35.670833,5.0,12.0,349.0
2022-02-11-16:52:35.671864,1.0,11.0,349.0
2022-02-11-16:52:35.672861,5.0,28.0,349.0
2022-02-11-16:52:35.673859,5.0,28.0,349.0
2022-02-11-16:52:35.674823,5.0,28.0,349.0
2022-02-11-16:52:35.676154,5.0,10.0,349.0
2022-02-11-16:52:35.676408,5.0,4.0,349.0
2022-02-11-16:52:35.676408,5.0,4.0,349.0
2022-02-11-16:52:35.677408,5.0,4.0,349.0
2022-02-11-16:52:35.678405,5.0,4.0,349.0
2022-02-11-16:52:35.679439,5.0,4.0,349.0
2022-02-11-16:52:35.680474,5.0,3.0,349.0
2022-02-11-16:52:35.681450,5.0,4.0,349.0
2022-02-11-16:52:35.681699,5.0,4.0,349.0
2022-02-11-16:52:35.681956,5.0,4.0,349.0
2022-02-11-16:52:35.682216,5.0,4.0,349.0
2022-02-11-16:52:35.682216,5.0,4.0,349.0
2022-02-11-16:52:35.683215,5.0,4.0,349.0
2022-02-11-16:52:35.684248,1.0,12.0,349.0
2022-02-11-16:52:35.684248,4.0,6.0,349.0
2022-02-11-16:52:35.685284,4.0,6.0,349.0
2022-02-11-16:52:35.686281,4.0,6.0,349.0
2022-02-11-16:52:35.687284,4.0,6.0,349.0
2022-02-11-16:52:35.688274,5.0,10.0,349.0
2022-02-11-16:52:35.689593,3.0,16.0,349.0
2022-02-11-16:52:35.689852,3.0,16.0,349.0
2022-02-11-16:52:35.690098,3.0,16.0,349.0
2022-02-11-16:52:35.690348,3.0,16.0,349.0
2022-02-11-16:52:35.690612,3.0,16.0,349.0
2022-02-11-16:52:35.690716,3.0,16.0,349.0
2022-02-11-16:52:35.690716,3.0,16.0,349.0
2022-02-11-16:52:35.691751,3.0,16.0,349.0
2022-02-11-16:52:35.692746,6.0,6.0,349.0
2022-02-11-16:52:35.693961,5.0,0.0,349.0
2022-02-11-16:52:35.694210,5.0,0.0,349.0
2022-02-11-16:52:35.694210,5.0,0.0,349.0
2022-02-11-16:52:35.695209,5.0,0.0,349.0
2022-02-11-16:52:35.696206,5.0,0.0,349.0
2022-02-11-16:52:35.697203,6.0,6.0,349.0
2022-02-11-16:52:35.698201,2.0,2.0,349.0
2022-02-11-16:52:35.699397,2.0,2.0,349.0
2022-02-11-16:52:35.699669,2.0,2.0,349.0
2022-02-11-16:52:35.699761,2.0,2.0,349.0
2022-02-11-16:52:35.699761,9.0,6.0,349.0
2022-02-11-16:52:35.700794,9.0,6.0,349.0
2022-02-11-16:52:35.701791,9.0,6.0,349.0
2022-02-11-16:52:35.702788,9.0,6.0,349.0
2022-02-11-16:52:35.703752,9.0,6.0,349.0
2022-02-11-16:52:35.704784,1.0,22.0,349.0
2022-02-11-16:52:35.705781,3.0,17.0,349.0
2022-02-11-16:52:35.706779,3.0,17.0,349.0
2022-02-11-16:52:35.707742,3.0,17.0,349.0
2022-02-11-16:52:35.709100,1.0,4.0,349.0
2022-02-11-16:52:35.709355,6.0,6.0,349.0
2022-02-11-16:52:35.709613,6.0,6.0,349.0
2022-02-11-16:52:35.709724,6.0,6.0,349.0
2022-02-11-16:52:35.709724,6.0,6.0,349.0
2022-02-11-16:52:35.710757,6.0,6.0,349.0
2022-02-11-16:52:35.711754,6.0,6.0,349.0
2022-02-11-16:52:35.712752,9.0,5.0,349.0
2022-02-11-16:52:35.715069,9.0,3.0,348.0
2022-02-11-16:52:35.715069,9.0,3.0,348.0
2022-02-11-16:52:35.716351,9.0,3.0,348.0
2022-02-11-16:52:35.716757,7.0,3.0,349.0
2022-02-11-16:52:35.717009,3.0,5.0,349.0
2022-02-11-16:52:35.717262,3.0,5.0,349.0
2022-02-11-16:52:35.717512,3.0,5.0,349.0
2022-02-11-16:52:35.717762,3.0,5.0,349.0
2022-02-11-16:52:35.718017,3.0,5.0,349.0
2022-02-11-16:52:35.718260,3.0,5.0,349.0
2022-02-11-16:52:35.718260,3.0,5.0,349.0
2022-02-11-16:52:35.719259,3.0,5.0,349.0
2022-02-11-16:52:35.720256,3.0,5.0,349.0
2022-02-11-16:52:35.721254,6.0,15.0,349.0
2022-02-11-16:52:35.722251,2.0,10.0,349.0
2022-02-11-16:52:35.723248,2.0,10.0,349.0
2022-02-11-16:52:35.724246,2.0,10.0,349.0
2022-02-11-16:52:35.725287,2.0,19.0,349.0
2022-02-11-16:52:35.725287,8.0,4.0,348.0
2022-02-11-16:52:35.726321,8.0,4.0,348.0
2022-02-11-16:52:35.727317,8.0,4.0,348.0
2022-02-11-16:52:35.728281,8.0,4.0,348.0
2022-02-11-16:52:35.729595,6.0,2.0,349.0
2022-02-11-16:52:35.729843,5.0,1.0,349.0
2022-02-11-16:52:35.730099,5.0,1.0,349.0
2022-02-11-16:52:35.730355,5.0,1.0,349.0
2022-02-11-16:52:35.730462,5.0,1.0,349.0
2022-02-11-16:52:35.730858,5.0,1.0,349.0
2022-02-11-16:52:35.730858,5.0,1.0,349.0
2022-02-11-16:52:35.732047,5.0,1.0,349.0
2022-02-11-16:52:35.732152,5.0,1.0,349.0
2022-02-11-16:52:35.732152,5.0,1.0,349.0
2022-02-11-16:52:35.733181,0.0,13.0,349.0
2022-02-11-16:52:35.734175,6.0,9.0,348.0
2022-02-11-16:52:35.735179,6.0,9.0,348.0
2022-02-11-16:52:35.736179,6.0,9.0,348.0
2022-02-11-16:52:35.737174,6.0,9.0,348.0
2022-02-11-16:52:35.738172,1.0,5.0,349.0
2022-02-11-16:52:35.739388,2.0,20.0,349.0
2022-02-11-16:52:35.739642,2.0,20.0,349.0
2022-02-11-16:52:35.739901,2.0,20.0,349.0
2022-02-11-16:52:35.740156,2.0,20.0,349.0
2022-02-11-16:52:35.740411,2.0,20.0,349.0
2022-02-11-16:52:35.740488,2.0,20.0,349.0
2022-02-11-16:52:35.741066,8.0,12.0,349.0
2022-02-11-16:52:35.741164,5.0,17.0,348.0
2022-02-11-16:52:35.741164,5.0,17.0,348.0
2022-02-11-16:52:35.742205,5.0,17.0,348.0
2022-02-11-16:52:35.743187,5.0,17.0,348.0
2022-02-11-16:52:35.744185,5.0,17.0,348.0
2022-02-11-16:52:35.746179,5.0,17.0,348.0
2022-02-11-16:52:35.747151,8.0,5.0,349.0
2022-02-11-16:52:35.747151,8.0,5.0,349.0
2022-02-11-16:52:35.748357,8.0,5.0,349.0
2022-02-11-16:52:35.748589,8.0,5.0,349.0
2022-02-11-16:52:35.748589,8.0,5.0,349.0
2022-02-11-16:52:35.749657,5.0,4.0,349.0
2022-02-11-16:52:35.749657,7.0,10.0,349.0
2022-02-11-16:52:35.750692,7.0,10.0,349.0
2022-02-11-16:52:35.751687,7.0,10.0,349.0
2022-02-11-16:52:35.752652,7.0,10.0,349.0
2022-02-11-16:52:35.753973,1.0,14.0,349.0
2022-02-11-16:52:35.754203,2.0,17.0,349.0
2022-02-11-16:52:35.754437,2.0,17.0,349.0
2022-02-11-16:52:35.754664,2.0,17.0,349.0
2022-02-11-16:52:35.754891,2.0,17.0,349.0
2022-02-11-16:52:35.755120,2.0,17.0,349.0
2022-02-11-16:52:35.755346,2.0,17.0,349.0
2022-02-11-16:52:35.755565,2.0,17.0,349.0
2022-02-11-16:52:35.755651,2.0,17.0,349.0
2022-02-11-16:52:35.755651,2.0,17.0,349.0
2022-02-11-16:52:35.756650,2.0,17.0,349.0
2022-02-11-16:52:35.757854,2.0,17.0,349.0
2022-02-11-16:52:35.757854,5.0,0.0,349.0
2022-02-11-16:52:35.758918,5.0,2.0,349.0
2022-02-11-16:52:35.759884,5.0,2.0,349.0
2022-02-11-16:52:35.760882,5.0,2.0,349.0
2022-02-11-16:52:35.761879,6.0,2.0,348.0
2022-02-11-16:52:35.762876,4.0,3.0,349.0
2022-02-11-16:52:35.763895,4.0,3.0,349.0
2022-02-11-16:52:35.764872,4.0,3.0,349.0
2022-02-11-16:52:35.765868,2.0,16.0,349.0
2022-02-11-16:52:35.766865,2.0,2.0,349.0
2022-02-11-16:52:35.767862,2.0,2.0,349.0
2022-02-11-16:52:35.768861,2.0,2.0,349.0
2022-02-11-16:52:35.769857,2.0,2.0,349.0
2022-02-11-16:52:35.770855,3.0,10.0,349.0
2022-02-11-16:52:35.771855,2.0,16.0,350.0
2022-02-11-16:52:35.772849,2.0,16.0,350.0
2022-02-11-16:52:35.773847,2.0,16.0,350.0
2022-02-11-16:52:35.774811,8.0,11.0,348.0
2022-02-11-16:52:35.775841,9.0,5.0,349.0
2022-02-11-16:52:35.776839,9.0,5.0,349.0
2022-02-11-16:52:35.777862,9.0,5.0,349.0
2022-02-11-16:52:35.778834,7.0,1.0,349.0
2022-02-11-16:52:35.779834,2.0,5.0,349.0
2022-02-11-16:52:35.780831,2.0,5.0,349.0
2022-02-11-16:52:35.782845,2.0,5.0,349.0
2022-02-11-16:52:35.782845,6.0,1.0,349.0
2022-02-11-16:52:35.783820,5.0,9.0,349.0
2022-02-11-16:52:35.784818,5.0,9.0,349.0
2022-02-11-16:52:35.785814,5.0,9.0,349.0
2022-02-11-16:52:35.786813,4.0,3.0,349.0
2022-02-11-16:52:35.787812,4.0,26.0,349.0
2022-02-11-16:52:35.788807,4.0,26.0,349.0
2022-02-11-16:52:35.789771,4.0,26.0,349.0
2022-02-11-16:52:35.790802,2.0,6.0,349.0
2022-02-11-16:52:35.791800,4.0,6.0,349.0
2022-02-11-16:52:35.792797,4.0,6.0,349.0
2022-02-11-16:52:35.793760,4.0,6.0,349.0
2022-02-11-16:52:35.794791,7.0,2.0,350.0
2022-02-11-16:52:35.795791,6.0,0.0,349.0
2022-02-11-16:52:35.796786,6.0,0.0,349.0
2022-02-11-16:52:35.797784,6.0,0.0,349.0
2022-02-11-16:52:35.798780,5.0,5.0,349.0
2022-02-11-16:52:35.799777,10.0,7.0,349.0
2022-02-11-16:52:35.800776,10.0,7.0,349.0
2022-02-11-16:52:35.801772,10.0,7.0,349.0
2022-02-11-16:52:35.802770,7.0,15.0,349.0
2022-02-11-16:52:35.803769,4.0,13.0,350.0
2022-02-11-16:52:35.804764,4.0,13.0,350.0
2022-02-11-16:52:35.805763,4.0,13.0,350.0
2022-02-11-16:52:35.806759,4.0,13.0,350.0
2022-02-11-16:52:35.807756,5.0,9.0,350.0
2022-02-11-16:52:35.808755,6.0,8.0,349.0
2022-02-11-16:52:35.809754,6.0,8.0,349.0
2022-02-11-16:52:35.810748,6.0,8.0,349.0
2022-02-11-16:52:35.811748,6.0,10.0,349.0
2022-02-11-16:52:35.812742,7.0,4.0,349.0
2022-02-11-16:52:35.813740,7.0,4.0,349.0
2022-02-11-16:52:35.814737,7.0,4.0,349.0
2022-02-11-16:52:35.816733,4.0,8.0,349.0
2022-02-11-16:52:35.816733,4.0,8.0,349.0
2022-02-11-16:52:35.817729,4.0,8.0,349.0
2022-02-11-16:52:35.818727,4.0,8.0,349.0
2022-02-11-16:52:35.819727,5.0,9.0,349.0
2022-02-11-16:52:35.820721,7.0,28.0,349.0
2022-02-11-16:52:35.821719,7.0,28.0,349.0
2022-02-11-16:52:35.822716,7.0,28.0,349.0
2022-02-11-16:52:35.823714,4.0,0.0,349.0
2022-02-11-16:52:35.824719,2.0,2.0,349.0
2022-02-11-16:52:35.825715,2.0,2.0,349.0
2022-02-11-16:52:35.826672,2.0,2.0,349.0
2022-02-11-16:52:35.827705,6.0,7.0,349.0
2022-02-11-16:52:35.828700,4.0,3.0,349.0
2022-02-11-16:52:35.829698,4.0,3.0,349.0
2022-02-11-16:52:35.830661,4.0,3.0,349.0
2022-02-11-16:52:35.831693,7.0,1.0,349.0
2022-02-11-16:52:35.832690,7.0,7.0,349.0
2022-02-11-16:52:35.833686,7.0,7.0,349.0
2022-02-11-16:52:35.834684,7.0,7.0,349.0
2022-02-11-16:52:35.835684,6.0,8.0,349.0
2022-02-11-16:52:35.836679,2.0,11.0,349.0
2022-02-11-16:52:35.837676,2.0,11.0,349.0
2022-02-11-16:52:35.838673,2.0,11.0,349.0
2022-02-11-16:52:35.839671,2.0,11.0,349.0
2022-02-11-16:52:35.840668,5.0,20.0,349.0
2022-02-11-16:52:35.841633,5.0,20.0,349.0
2022-02-11-16:52:35.842662,5.0,20.0,349.0
2022-02-11-16:52:35.843663,5.0,20.0,349.0
2022-02-11-16:52:35.844658,9.0,2.0,349.0
2022-02-11-16:52:35.845676,9.0,2.0,349.0
2022-02-11-16:52:35.846652,9.0,2.0,349.0
2022-02-11-16:52:35.847655,9.0,2.0,349.0
2022-02-11-16:52:35.849665,5.0,23.0,349.0
2022-02-11-16:52:35.849665,5.0,23.0,349.0
2022-02-11-16:52:35.850642,5.0,23.0,349.0
2022-02-11-16:52:35.851642,5.0,23.0,349.0
2022-02-11-16:52:35.852636,8.0,7.0,349.0
2022-02-11-16:52:35.853634,6.0,10.0,349.0
2022-02-11-16:52:35.854631,6.0,10.0,349.0
2022-02-11-16:52:35.855628,6.0,10.0,349.0
2022-02-11-16:52:35.856947,4.0,24.0,349.0
2022-02-11-16:52:35.857228,2.0,2.0,349.0
2022-02-11-16:52:35.857502,2.0,2.0,349.0
2022-02-11-16:52:35.857778,2.0,2.0,349.0
2022-02-11-16:52:35.857886,2.0,2.0,349.0
2022-02-11-16:52:35.858349,2.0,2.0,349.0
2022-02-11-16:52:35.858629,2.0,2.0,349.0
2022-02-11-16:52:35.858629,2.0,2.0,349.0
2022-02-11-16:52:35.859654,2.0,2.0,349.0
2022-02-11-16:52:35.860997,5.0,1.0,349.0
2022-02-11-16:52:35.860997,9.0,4.0,349.0
2022-02-11-16:52:35.862030,9.0,4.0,349.0
2022-02-11-16:52:35.863029,9.0,4.0,349.0
2022-02-11-16:52:35.863992,9.0,4.0,349.0
2022-02-11-16:52:35.865025,10.0,4.0,348.0
2022-02-11-16:52:35.866020,7.0,12.0,349.0
2022-02-11-16:52:35.867017,7.0,12.0,349.0
2022-02-11-16:52:35.868015,7.0,12.0,349.0
2022-02-11-16:52:35.869011,2.0,13.0,349.0
2022-02-11-16:52:35.870009,1.0,11.0,349.0
2022-02-11-16:52:35.871007,1.0,11.0,349.0
2022-02-11-16:52:35.872004,1.0,11.0,349.0
2022-02-11-16:52:35.873003,4.0,13.0,349.0
2022-02-11-16:52:35.873999,5.0,8.0,349.0
2022-02-11-16:52:35.874963,5.0,8.0,349.0
2022-02-11-16:52:35.875993,5.0,8.0,349.0
2022-02-11-16:52:35.876990,6.0,1.0,349.0
2022-02-11-16:52:35.877987,2.0,2.0,349.0
2022-02-11-16:52:35.878986,2.0,2.0,349.0
2022-02-11-16:52:35.879981,2.0,2.0,349.0
2022-02-11-16:52:35.881978,8.0,11.0,349.0
2022-02-11-16:52:35.881978,8.0,11.0,349.0
2022-02-11-16:52:35.882974,8.0,11.0,349.0
2022-02-11-16:52:35.883938,8.0,11.0,349.0
2022-02-11-16:52:35.885281,7.0,4.0,349.0
2022-02-11-16:52:35.885554,1.0,1.0,349.0
2022-02-11-16:52:35.885827,1.0,1.0,349.0
2022-02-11-16:52:35.886106,1.0,1.0,349.0
2022-02-11-16:52:35.886383,1.0,1.0,349.0
2022-02-11-16:52:35.886661,1.0,1.0,349.0
2022-02-11-16:52:35.886938,1.0,1.0,349.0
2022-02-11-16:52:35.886938,1.0,1.0,349.0
2022-02-11-16:52:35.887938,1.0,1.0,349.0
2022-02-11-16:52:35.888974,1.0,11.0,349.0
2022-02-11-16:52:35.888974,0.0,7.0,349.0
2022-02-11-16:52:35.890008,0.0,7.0,349.0
2022-02-11-16:52:35.891005,0.0,7.0,349.0
2022-02-11-16:52:35.892007,0.0,7.0,349.0
2022-02-11-16:52:35.893021,8.0,10.0,349.0
2022-02-11-16:52:35.893997,6.0,12.0,349.0
2022-02-11-16:52:35.894994,6.0,12.0,349.0
2022-02-11-16:52:35.895991,6.0,12.0,349.0
2022-02-11-16:52:35.896989,6.0,12.0,349.0
2022-02-11-16:52:35.898035,1.0,8.0,349.0
2022-02-11-16:52:35.898035,6.0,4.0,349.0
2022-02-11-16:52:35.899068,6.0,4.0,349.0
2022-02-11-16:52:35.900068,6.0,4.0,349.0
2022-02-11-16:52:35.901064,6.0,4.0,349.0
2022-02-11-16:52:35.902060,3.0,6.0,349.0
2022-02-11-16:52:35.903057,3.0,6.0,349.0
2022-02-11-16:52:35.904054,3.0,6.0,349.0
2022-02-11-16:52:35.905052,3.0,6.0,349.0
2022-02-11-16:52:35.906049,5.0,21.0,349.0
2022-02-11-16:52:35.907053,6.0,23.0,349.0
2022-02-11-16:52:35.908047,6.0,23.0,349.0
2022-02-11-16:52:35.910061,6.0,23.0,349.0
2022-02-11-16:52:35.910061,7.0,9.0,349.0
2022-02-11-16:52:35.911057,8.0,9.0,349.0
2022-02-11-16:52:35.912054,8.0,9.0,349.0
2022-02-11-16:52:35.913052,8.0,9.0,349.0
2022-02-11-16:52:35.915049,10.0,4.0,349.0
2022-02-11-16:52:35.915049,10.0,4.0,349.0
2022-02-11-16:52:35.916046,10.0,4.0,349.0
2022-02-11-16:52:35.917040,10.0,4.0,349.0
2022-02-11-16:52:35.918038,3.0,9.0,349.0
2022-02-11-16:52:35.919035,4.0,6.0,349.0
2022-02-11-16:52:35.920033,4.0,6.0,349.0
2022-02-11-16:52:35.921033,4.0,6.0,349.0
2022-02-11-16:52:35.922027,6.0,18.0,349.0
2022-02-11-16:52:35.923026,5.0,17.0,349.0
2022-02-11-16:52:35.924026,5.0,17.0,349.0
2022-02-11-16:52:35.926012,5.0,17.0,349.0
2022-02-11-16:52:35.926509,1.0,2.0,349.0
2022-02-11-16:52:35.926788,10.0,11.0,349.0
2022-02-11-16:52:35.927066,10.0,11.0,349.0
2022-02-11-16:52:35.927341,10.0,11.0,349.0
2022-02-11-16:52:35.927621,10.0,11.0,349.0
2022-02-11-16:52:35.927899,10.0,11.0,349.0
2022-02-11-16:52:35.928175,10.0,11.0,349.0
2022-02-11-16:52:35.928434,10.0,11.0,349.0
2022-02-11-16:52:35.928531,10.0,11.0,349.0
2022-02-11-16:52:35.928531,10.0,11.0,349.0
2022-02-11-16:52:35.929556,10.0,11.0,349.0
2022-02-11-16:52:35.930874,5.0,5.0,349.0
2022-02-11-16:52:35.931287,9.0,1.0,349.0
2022-02-11-16:52:35.931374,9.0,1.0,349.0
2022-02-11-16:52:35.931374,9.0,1.0,349.0
2022-02-11-16:52:35.932400,9.0,1.0,349.0
2022-02-11-16:52:35.933594,9.0,1.0,349.0
2022-02-11-16:52:35.933594,9.0,6.0,349.0
2022-02-11-16:52:35.934797,9.0,8.0,348.0
2022-02-11-16:52:35.935038,9.0,8.0,348.0
2022-02-11-16:52:35.935278,9.0,8.0,348.0
2022-02-11-16:52:35.935506,9.0,8.0,348.0
2022-02-11-16:52:35.935740,9.0,8.0,348.0
2022-02-11-16:52:35.935965,9.0,8.0,348.0
2022-02-11-16:52:35.936189,9.0,8.0,348.0
2022-02-11-16:52:35.936417,9.0,8.0,348.0
2022-02-11-16:52:35.936643,9.0,8.0,348.0
2022-02-11-16:52:35.936643,9.0,8.0,348.0
2022-02-11-16:52:35.937642,9.0,8.0,348.0
2022-02-11-16:52:35.938639,5.0,25.0,349.0
2022-02-11-16:52:35.939637,8.0,4.0,349.0
2022-02-11-16:52:35.940634,8.0,4.0,349.0
2022-02-11-16:52:35.942676,8.0,4.0,349.0
2022-02-11-16:52:35.942676,7.0,4.0,349.0
2022-02-11-16:52:35.943662,8.0,1.0,350.0
2022-02-11-16:52:35.943662,8.0,1.0,350.0
2022-02-11-16:52:35.944698,8.0,1.0,350.0
2022-02-11-16:52:35.945692,8.0,1.0,350.0
2022-02-11-16:52:35.946690,8.0,11.0,349.0
2022-02-11-16:52:35.947687,7.0,10.0,349.0
2022-02-11-16:52:35.949729,7.0,10.0,349.0
2022-02-11-16:52:35.949729,7.0,2.0,349.0
2022-02-11-16:52:35.950759,10.0,12.0,349.0
2022-02-11-16:52:35.951757,10.0,12.0,349.0
2022-02-11-16:52:35.952755,10.0,12.0,349.0
2022-02-11-16:52:35.953752,10.0,12.0,349.0
2022-02-11-16:52:35.954753,2.0,3.0,349.0
2022-02-11-16:52:35.955746,3.0,19.0,349.0
2022-02-11-16:52:35.956743,3.0,19.0,349.0
2022-02-11-16:52:35.957743,3.0,19.0,349.0
2022-02-11-16:52:35.958738,3.0,0.0,349.0
2022-02-11-16:52:35.959735,12.0,12.0,349.0
2022-02-11-16:52:35.960734,12.0,12.0,349.0
2022-02-11-16:52:35.961739,12.0,12.0,349.0
2022-02-11-16:52:35.962728,3.0,5.0,349.0
2022-02-11-16:52:35.963725,9.0,10.0,348.0
2022-02-11-16:52:35.965304,9.0,10.0,348.0
2022-02-11-16:52:35.965562,9.0,10.0,348.0
2022-02-11-16:52:35.965675,9.0,10.0,348.0
2022-02-11-16:52:35.965675,9.0,10.0,348.0
2022-02-11-16:52:35.966713,5.0,15.0,349.0
2022-02-11-16:52:35.967907,6.0,0.0,349.0
2022-02-11-16:52:35.968162,6.0,0.0,349.0
2022-02-11-16:52:35.968412,6.0,0.0,349.0
2022-02-11-16:52:35.968412,6.0,0.0,349.0
2022-02-11-16:52:35.969412,6.0,0.0,349.0
2022-02-11-16:52:35.970409,6.0,0.0,349.0
2022-02-11-16:52:35.972408,5.0,18.0,348.0
2022-02-11-16:52:35.972408,4.0,27.0,349.0
2022-02-11-16:52:35.973403,4.0,27.0,349.0
2022-02-11-16:52:35.974401,4.0,27.0,349.0
2022-02-11-16:52:35.975396,6.0,11.0,349.0
2022-02-11-16:52:35.976393,7.0,6.0,349.0
2022-02-11-16:52:35.977425,7.0,6.0,349.0
2022-02-11-16:52:35.977425,7.0,6.0,349.0
2022-02-11-16:52:35.978459,7.0,6.0,349.0
2022-02-11-16:52:35.979458,2.0,11.0,348.0
2022-02-11-16:52:35.980453,6.0,2.0,349.0
2022-02-11-16:52:35.981450,6.0,2.0,349.0
2022-02-11-16:52:35.983468,6.0,2.0,349.0
2022-02-11-16:52:35.983468,6.0,3.0,349.0
2022-02-11-16:52:35.984444,4.0,6.0,349.0
2022-02-11-16:52:35.985443,4.0,6.0,349.0
2022-02-11-16:52:35.986631,4.0,6.0,349.0
2022-02-11-16:52:35.987030,2.0,10.0,349.0
2022-02-11-16:52:35.987311,2.0,10.0,349.0
2022-02-11-16:52:35.987582,2.0,10.0,349.0
2022-02-11-16:52:35.987866,2.0,10.0,349.0
2022-02-11-16:52:35.988147,2.0,10.0,349.0
2022-02-11-16:52:35.988431,2.0,10.0,349.0
2022-02-11-16:52:35.988711,2.0,10.0,349.0
2022-02-11-16:52:35.988977,2.0,10.0,349.0
2022-02-11-16:52:35.989226,2.0,10.0,349.0
2022-02-11-16:52:35.989459,2.0,10.0,349.0
2022-02-11-16:52:35.989459,2.0,10.0,349.0
2022-02-11-16:52:35.990655,2.0,10.0,349.0
2022-02-11-16:52:35.991030,8.0,7.0,349.0
2022-02-11-16:52:35.991256,10.0,6.0,349.0
2022-02-11-16:52:35.991458,10.0,6.0,349.0
2022-02-11-16:52:35.991458,10.0,6.0,349.0
2022-02-11-16:52:35.992490,10.0,6.0,349.0
2022-02-11-16:52:35.993487,10.0,6.0,349.0
2022-02-11-16:52:35.994485,10.0,6.0,349.0
2022-02-11-16:52:35.995481,10.0,4.0,349.0
2022-02-11-16:52:35.996481,9.0,9.0,349.0
2022-02-11-16:52:35.997479,9.0,9.0,349.0
2022-02-11-16:52:35.998474,9.0,9.0,349.0
2022-02-11-16:52:35.999473,3.0,6.0,349.0
2022-02-11-16:52:36.000469,3.0,6.0,349.0
2022-02-11-16:52:36.001465,3.0,6.0,349.0
2022-02-11-16:52:36.002430,3.0,6.0,349.0
2022-02-11-16:52:36.003430,3.0,6.0,349.0
2022-02-11-16:52:36.004428,1.0,1.0,349.0
2022-02-11-16:52:36.005423,0.0,11.0,349.0
2022-02-11-16:52:36.006449,0.0,11.0,349.0
2022-02-11-16:52:36.007453,0.0,11.0,349.0
2022-02-11-16:52:36.008414,3.0,5.0,349.0
2022-02-11-16:52:36.009412,9.0,4.0,349.0
2022-02-11-16:52:36.010446,9.0,4.0,349.0
2022-02-11-16:52:36.011439,9.0,4.0,349.0
2022-02-11-16:52:36.012438,9.0,1.0,349.0
2022-02-11-16:52:36.013435,7.0,1.0,349.0
2022-02-11-16:52:36.014432,7.0,1.0,349.0
2022-02-11-16:52:36.015430,7.0,1.0,349.0
2022-02-11-16:52:36.017392,7.0,7.0,349.0
2022-02-11-16:52:36.017392,10.0,4.0,349.0
2022-02-11-16:52:36.018425,10.0,4.0,349.0
2022-02-11-16:52:36.019420,10.0,4.0,349.0
2022-02-11-16:52:36.020417,5.0,6.0,349.0
2022-02-11-16:52:36.021412,5.0,19.0,349.0
2022-02-11-16:52:36.022410,5.0,19.0,349.0
2022-02-11-16:52:36.023409,5.0,19.0,349.0
2022-02-11-16:52:36.024374,5.0,7.0,349.0
2022-02-11-16:52:36.025370,4.0,2.0,348.0
2022-02-11-16:52:36.026403,4.0,2.0,348.0
2022-02-11-16:52:36.027397,4.0,2.0,348.0
2022-02-11-16:52:36.028403,6.0,5.0,349.0
2022-02-11-16:52:36.029391,5.0,6.0,349.0
2022-02-11-16:52:36.030389,5.0,6.0,349.0
2022-02-11-16:52:36.031393,5.0,6.0,349.0
2022-02-11-16:52:36.032384,7.0,6.0,349.0
2022-02-11-16:52:36.033693,7.0,6.0,349.0
2022-02-11-16:52:36.033946,7.0,6.0,349.0
2022-02-11-16:52:36.034197,7.0,6.0,349.0
2022-02-11-16:52:36.034444,7.0,6.0,349.0
2022-02-11-16:52:36.034692,7.0,6.0,349.0
2022-02-11-16:52:36.034944,7.0,6.0,349.0
2022-02-11-16:52:36.035203,7.0,6.0,349.0
2022-02-11-16:52:36.035462,7.0,6.0,349.0
2022-02-11-16:52:36.035829,7.0,6.0,349.0
2022-02-11-16:52:36.036037,7.0,23.0,349.0
2022-02-11-16:52:36.036120,7.0,23.0,349.0
2022-02-11-16:52:36.036120,7.0,23.0,349.0
2022-02-11-16:52:36.037120,7.0,23.0,349.0
2022-02-11-16:52:36.038300,7.0,23.0,349.0
2022-02-11-16:52:36.038300,7.0,23.0,349.0
2022-02-11-16:52:36.039620,7.0,23.0,349.0
2022-02-11-16:52:36.039728,7.0,23.0,349.0
2022-02-11-16:52:36.039728,2.0,10.0,349.0
2022-02-11-16:52:36.040858,6.0,2.0,349.0
2022-02-11-16:52:36.040858,6.0,2.0,349.0
2022-02-11-16:52:36.041858,6.0,2.0,349.0
2022-02-11-16:52:36.042879,6.0,2.0,349.0
2022-02-11-16:52:36.043879,6.0,2.0,349.0
2022-02-11-16:52:36.044851,7.0,6.0,349.0
2022-02-11-16:52:36.045872,6.0,1.0,349.0
2022-02-11-16:52:36.046878,6.0,1.0,349.0
2022-02-11-16:52:36.047873,6.0,1.0,349.0
2022-02-11-16:52:36.049869,7.0,4.0,349.0
2022-02-11-16:52:36.049869,7.0,4.0,349.0
2022-02-11-16:52:36.050865,7.0,4.0,349.0
2022-02-11-16:52:36.052060,7.0,4.0,349.0
2022-02-11-16:52:36.052060,7.0,25.0,349.0
2022-02-11-16:52:36.053092,7.0,25.0,349.0
2022-02-11-16:52:36.054088,7.0,25.0,349.0
2022-02-11-16:52:36.055086,7.0,25.0,349.0
2022-02-11-16:52:36.056052,7.0,25.0,349.0
2022-02-11-16:52:36.057359,1.0,9.0,349.0
2022-02-11-16:52:36.057641,5.0,15.0,348.0
2022-02-11-16:52:36.057925,5.0,15.0,348.0
2022-02-11-16:52:36.058159,5.0,15.0,348.0
2022-02-11-16:52:36.058454,5.0,15.0,348.0
2022-02-11-16:52:36.058735,5.0,15.0,348.0
2022-02-11-16:52:36.059003,5.0,15.0,348.0
2022-02-11-16:52:36.059003,5.0,15.0,348.0
2022-02-11-16:52:36.060002,5.0,15.0,348.0
2022-02-11-16:52:36.061000,4.0,12.0,348.0
2022-02-11-16:52:36.061997,6.0,1.0,349.0
2022-02-11-16:52:36.062994,6.0,1.0,349.0
2022-02-11-16:52:36.063992,6.0,1.0,349.0
2022-02-11-16:52:36.064989,6.0,1.0,349.0
2022-02-11-16:52:36.066415,5.0,8.0,349.0
2022-02-11-16:52:36.066944,10.0,9.0,349.0
2022-02-11-16:52:36.067228,10.0,9.0,349.0
2022-02-11-16:52:36.067504,10.0,9.0,349.0
2022-02-11-16:52:36.067784,10.0,9.0,349.0
2022-02-11-16:52:36.068054,10.0,9.0,349.0
2022-02-11-16:52:36.068322,10.0,9.0,349.0
2022-02-11-16:52:36.068707,1.0,5.0,349.0
2022-02-11-16:52:36.068986,4.0,3.0,349.0
2022-02-11-16:52:36.068986,4.0,3.0,349.0
2022-02-11-16:52:36.069986,4.0,3.0,349.0
2022-02-11-16:52:36.071023,4.0,3.0,349.0
2022-02-11-16:52:36.071023,4.0,3.0,349.0
2022-02-11-16:52:36.072057,4.0,3.0,349.0
2022-02-11-16:52:36.073053,4.0,3.0,349.0
2022-02-11-16:52:36.074052,1.0,5.0,349.0
2022-02-11-16:52:36.075051,1.0,5.0,349.0
2022-02-11-16:52:36.076045,1.0,5.0,349.0
2022-02-11-16:52:36.077044,1.0,5.0,349.0
2022-02-11-16:52:36.078040,7.0,10.0,349.0
2022-02-11-16:52:36.079037,8.0,1.0,349.0
2022-02-11-16:52:36.080035,8.0,1.0,349.0
2022-02-11-16:52:36.081031,8.0,1.0,349.0
2022-02-11-16:52:36.082031,6.0,15.0,349.0
2022-02-11-16:52:36.084045,6.0,15.0,349.0
2022-02-11-16:52:36.084642,6.0,15.0,349.0
2022-02-11-16:52:36.084749,6.0,15.0,349.0
2022-02-11-16:52:36.084749,3.0,30.0,349.0
2022-02-11-16:52:36.085784,3.0,30.0,349.0
2022-02-11-16:52:36.086777,3.0,30.0,349.0
2022-02-11-16:52:36.087775,3.0,30.0,349.0
2022-02-11-16:52:36.088741,3.0,30.0,349.0
2022-02-11-16:52:36.090023,4.0,4.0,349.0
2022-02-11-16:52:36.090023,4.0,4.0,349.0
2022-02-11-16:52:36.091022,4.0,4.0,349.0
2022-02-11-16:52:36.092020,4.0,4.0,349.0
2022-02-11-16:52:36.093017,4.0,4.0,349.0
2022-02-11-16:52:36.094014,6.0,1.0,349.0
2022-02-11-16:52:36.095048,11.0,6.0,349.0
2022-02-11-16:52:36.095615,11.0,6.0,349.0
2022-02-11-16:52:36.095901,11.0,6.0,349.0
2022-02-11-16:52:36.096009,11.0,6.0,349.0
2022-02-11-16:52:36.096009,11.0,6.0,349.0
2022-02-11-16:52:36.097040,11.0,6.0,349.0
2022-02-11-16:52:36.098427,5.0,1.0,349.0
2022-02-11-16:52:36.098427,4.0,31.0,349.0
2022-02-11-16:52:36.099460,4.0,31.0,349.0
2022-02-11-16:52:36.100456,4.0,31.0,349.0
2022-02-11-16:52:36.101456,4.0,31.0,349.0
2022-02-11-16:52:36.102452,4.0,18.0,348.0
2022-02-11-16:52:36.103452,4.0,18.0,348.0
2022-02-11-16:52:36.104445,4.0,18.0,348.0
2022-02-11-16:52:36.105442,4.0,18.0,348.0
2022-02-11-16:52:36.106738,0.0,13.0,349.0
2022-02-11-16:52:36.107020,2.0,1.0,349.0
2022-02-11-16:52:36.107299,2.0,1.0,349.0
2022-02-11-16:52:36.107584,2.0,1.0,349.0
2022-02-11-16:52:36.107859,2.0,1.0,349.0
2022-02-11-16:52:36.108138,2.0,1.0,349.0
2022-02-11-16:52:36.108138,2.0,1.0,349.0
2022-02-11-16:52:36.109138,2.0,1.0,349.0
2022-02-11-16:52:36.110135,8.0,23.0,349.0
2022-02-11-16:52:36.111132,6.0,3.0,349.0
2022-02-11-16:52:36.112179,6.0,3.0,349.0
2022-02-11-16:52:36.112179,6.0,3.0,349.0
2022-02-11-16:52:36.113211,6.0,3.0,349.0
2022-02-11-16:52:36.114211,6.0,14.0,349.0
2022-02-11-16:52:36.115588,6.0,14.0,349.0
2022-02-11-16:52:36.115588,6.0,14.0,349.0
2022-02-11-16:52:36.117585,6.0,14.0,349.0
2022-02-11-16:52:36.117585,4.0,6.0,349.0
2022-02-11-16:52:36.118614,7.0,12.0,349.0
2022-02-11-16:52:36.119618,7.0,12.0,349.0
2022-02-11-16:52:36.120610,7.0,12.0,349.0
2022-02-11-16:52:36.121605,7.0,12.0,349.0
2022-02-11-16:52:36.122605,1.0,16.0,349.0
2022-02-11-16:52:36.123600,3.0,13.0,349.0
2022-02-11-16:52:36.124603,3.0,13.0,349.0
2022-02-11-16:52:36.125602,3.0,13.0,349.0
2022-02-11-16:52:36.126593,8.0,5.0,349.0
2022-02-11-16:52:36.127591,2.0,16.0,349.0
2022-02-11-16:52:36.128590,2.0,16.0,349.0
2022-02-11-16:52:36.129553,2.0,16.0,349.0
2022-02-11-16:52:36.130551,8.0,11.0,349.0
2022-02-11-16:52:36.131551,8.0,11.0,349.0
2022-02-11-16:52:36.132578,8.0,11.0,349.0
2022-02-11-16:52:36.133542,8.0,11.0,349.0
2022-02-11-16:52:36.134539,0.0,10.0,349.0
2022-02-11-16:52:36.135569,0.0,10.0,349.0
2022-02-11-16:52:36.136568,0.0,10.0,349.0
2022-02-11-16:52:36.137567,0.0,10.0,349.0
2022-02-11-16:52:36.138562,0.0,10.0,349.0
2022-02-11-16:52:36.139558,3.0,15.0,349.0
2022-02-11-16:52:36.140556,3.0,15.0,349.0
2022-02-11-16:52:36.141555,3.0,15.0,349.0
2022-02-11-16:52:36.142551,3.0,15.0,349.0
2022-02-11-16:52:36.143548,8.0,0.0,349.0
2022-02-11-16:52:36.144547,9.0,3.0,349.0
2022-02-11-16:52:36.145542,9.0,3.0,349.0
2022-02-11-16:52:36.146542,9.0,3.0,349.0
2022-02-11-16:52:36.147538,11.0,3.0,349.0
2022-02-11-16:52:36.148534,6.0,5.0,349.0
2022-02-11-16:52:36.149533,6.0,5.0,349.0
2022-02-11-16:52:36.150529,6.0,5.0,349.0
2022-02-11-16:52:36.152491,9.0,3.0,349.0
2022-02-11-16:52:36.152491,6.0,22.0,349.0
2022-02-11-16:52:36.153520,6.0,22.0,349.0
2022-02-11-16:52:36.154520,6.0,22.0,349.0
2022-02-11-16:52:36.155515,3.0,19.0,349.0
2022-02-11-16:52:36.156512,5.0,13.0,349.0
2022-02-11-16:52:36.157512,5.0,13.0,349.0
2022-02-11-16:52:36.158475,5.0,13.0,349.0
2022-02-11-16:52:36.159472,7.0,3.0,349.0
2022-02-11-16:52:36.160473,8.0,7.0,348.0
2022-02-11-16:52:36.161467,8.0,7.0,348.0
2022-02-11-16:52:36.162503,8.0,7.0,348.0
2022-02-11-16:52:36.163495,8.0,1.0,349.0
2022-02-11-16:52:36.164493,10.0,2.0,349.0
2022-02-11-16:52:36.165490,10.0,2.0,349.0
2022-02-11-16:52:36.166498,10.0,2.0,349.0
2022-02-11-16:52:36.167489,5.0,15.0,348.0
2022-02-11-16:52:36.168484,8.0,14.0,349.0
2022-02-11-16:52:36.169479,8.0,14.0,349.0
2022-02-11-16:52:36.170477,8.0,14.0,349.0
2022-02-11-16:52:36.171474,8.0,14.0,349.0
2022-02-11-16:52:36.172471,2.0,16.0,349.0
2022-02-11-16:52:36.173469,2.0,16.0,349.0
2022-02-11-16:52:36.174467,2.0,16.0,349.0
2022-02-11-16:52:36.175432,2.0,16.0,349.0
2022-02-11-16:52:36.176463,5.0,0.0,349.0
2022-02-11-16:52:36.177460,5.0,0.0,349.0
2022-02-11-16:52:36.178456,5.0,0.0,349.0
2022-02-11-16:52:36.179454,5.0,0.0,349.0
2022-02-11-16:52:36.180451,4.0,6.0,349.0
2022-02-11-16:52:36.181448,7.0,1.0,348.0
2022-02-11-16:52:36.182445,7.0,1.0,348.0
2022-02-11-16:52:36.183442,7.0,1.0,348.0
2022-02-11-16:52:36.185403,8.0,1.0,349.0
2022-02-11-16:52:36.186165,9.0,6.0,349.0
2022-02-11-16:52:36.186412,9.0,6.0,349.0
2022-02-11-16:52:36.186667,9.0,6.0,349.0
2022-02-11-16:52:36.186924,9.0,6.0,349.0
2022-02-11-16:52:36.186924,9.0,6.0,349.0
2022-02-11-16:52:36.187923,4.0,17.0,349.0
2022-02-11-16:52:36.188920,5.0,20.0,349.0
2022-02-11-16:52:36.189918,5.0,20.0,349.0
2022-02-11-16:52:36.190915,5.0,20.0,349.0
2022-02-11-16:52:36.191916,5.0,20.0,349.0
2022-02-11-16:52:36.192910,3.0,13.0,349.0
2022-02-11-16:52:36.193972,6.0,13.0,349.0
2022-02-11-16:52:36.193972,6.0,13.0,349.0
2022-02-11-16:52:36.195005,6.0,13.0,349.0
2022-02-11-16:52:36.196004,8.0,6.0,349.0
2022-02-11-16:52:36.196999,10.0,21.0,349.0
2022-02-11-16:52:36.197998,10.0,21.0,349.0
2022-02-11-16:52:36.198994,10.0,21.0,349.0
2022-02-11-16:52:36.199992,10.0,21.0,349.0
2022-02-11-16:52:36.200991,7.0,4.0,349.0
2022-02-11-16:52:36.201986,1.0,4.0,348.0
2022-02-11-16:52:36.202983,1.0,4.0,348.0
2022-02-11-16:52:36.203983,1.0,4.0,348.0
2022-02-11-16:52:36.204978,2.0,26.0,349.0
2022-02-11-16:52:36.205976,2.0,25.0,349.0
2022-02-11-16:52:36.206973,2.0,25.0,349.0
2022-02-11-16:52:36.207976,2.0,25.0,349.0
2022-02-11-16:52:36.208970,9.0,3.0,349.0
2022-02-11-16:52:36.209965,7.0,7.0,349.0
2022-02-11-16:52:36.210962,7.0,7.0,349.0
2022-02-11-16:52:36.211961,7.0,7.0,349.0
2022-02-11-16:52:36.212957,2.0,3.0,349.0
2022-02-11-16:52:36.213921,6.0,4.0,349.0
2022-02-11-16:52:36.214952,6.0,4.0,349.0
2022-02-11-16:52:36.215949,6.0,4.0,349.0
2022-02-11-16:52:36.216946,3.0,15.0,349.0
2022-02-11-16:52:36.217944,7.0,2.0,349.0
2022-02-11-16:52:36.219905,7.0,2.0,349.0
2022-02-11-16:52:36.219905,7.0,2.0,349.0
2022-02-11-16:52:36.220902,1.0,43.0,349.0
2022-02-11-16:52:36.221933,1.0,43.0,349.0
2022-02-11-16:52:36.222930,1.0,43.0,349.0
2022-02-11-16:52:36.223894,1.0,43.0,349.0
2022-02-11-16:52:36.224911,6.0,10.0,349.0
2022-02-11-16:52:36.225923,10.0,7.0,349.0
2022-02-11-16:52:36.226920,10.0,7.0,349.0
2022-02-11-16:52:36.227931,10.0,7.0,349.0
2022-02-11-16:52:36.227931,2.0,11.0,349.0
2022-02-11-16:52:36.228964,7.0,6.0,349.0
2022-02-11-16:52:36.229967,7.0,6.0,349.0
2022-02-11-16:52:36.230960,7.0,6.0,349.0
2022-02-11-16:52:36.231958,7.0,6.0,349.0
2022-02-11-16:52:36.232954,4.0,1.0,348.0
2022-02-11-16:52:36.233951,7.0,10.0,349.0
2022-02-11-16:52:36.234949,7.0,10.0,349.0
2022-02-11-16:52:36.235947,7.0,10.0,349.0
2022-02-11-16:52:36.236944,0.0,18.0,349.0
2022-02-11-16:52:36.238217,0.0,18.0,349.0
2022-02-11-16:52:36.238467,0.0,18.0,349.0
2022-02-11-16:52:36.238722,0.0,18.0,349.0
2022-02-11-16:52:36.238976,0.0,18.0,349.0
2022-02-11-16:52:36.239232,0.0,18.0,349.0
2022-02-11-16:52:36.239484,0.0,18.0,349.0
2022-02-11-16:52:36.239742,0.0,18.0,349.0
2022-02-11-16:52:36.239854,0.0,18.0,349.0
2022-02-11-16:52:36.239854,0.0,18.0,349.0
2022-02-11-16:52:36.240882,1.0,25.0,349.0
2022-02-11-16:52:36.241876,8.0,9.0,348.0
2022-02-11-16:52:36.242875,8.0,31.0,349.0
2022-02-11-16:52:36.244067,8.0,31.0,349.0
2022-02-11-16:52:36.244297,8.0,31.0,349.0
2022-02-11-16:52:36.244297,10.0,13.0,349.0
2022-02-11-16:52:36.245330,4.0,16.0,349.0
2022-02-11-16:52:36.246328,4.0,16.0,349.0
2022-02-11-16:52:36.247325,4.0,16.0,349.0
2022-02-11-16:52:36.248322,4.0,16.0,349.0
2022-02-11-16:52:36.249319,4.0,16.0,349.0
2022-02-11-16:52:36.250319,6.0,2.0,349.0
2022-02-11-16:52:36.251314,6.0,2.0,349.0
2022-02-11-16:52:36.252312,6.0,2.0,349.0
2022-02-11-16:52:36.253308,3.0,12.0,349.0
2022-02-11-16:52:36.255304,5.0,21.0,349.0
2022-02-11-16:52:36.255304,5.0,21.0,349.0
2022-02-11-16:52:36.256300,5.0,21.0,349.0
2022-02-11-16:52:36.257298,5.0,21.0,349.0
2022-02-11-16:52:36.258568,5.0,4.0,348.0
2022-02-11-16:52:36.258816,5.0,3.0,349.0
2022-02-11-16:52:36.259073,5.0,3.0,349.0
2022-02-11-16:52:36.259185,5.0,3.0,349.0
2022-02-11-16:52:36.259185,5.0,3.0,349.0
2022-02-11-16:52:36.260218,5.0,3.0,349.0
2022-02-11-16:52:36.261428,5.0,3.0,349.0
2022-02-11-16:52:36.261428,9.0,5.0,349.0
2022-02-11-16:52:36.262465,9.0,3.0,349.0
2022-02-11-16:52:36.263460,9.0,3.0,349.0
2022-02-11-16:52:36.264457,9.0,3.0,349.0
2022-02-11-16:52:36.265453,9.0,3.0,349.0
2022-02-11-16:52:36.266452,3.0,9.0,349.0
2022-02-11-16:52:36.267447,7.0,9.0,348.0
2022-02-11-16:52:36.268445,7.0,9.0,348.0
2022-02-11-16:52:36.269443,7.0,9.0,348.0
2022-02-11-16:52:36.270444,5.0,29.0,349.0
2022-02-11-16:52:36.271439,5.0,29.0,349.0
2022-02-11-16:52:36.272436,5.0,29.0,349.0
2022-02-11-16:52:36.273434,5.0,29.0,349.0
2022-02-11-16:52:36.274431,3.0,7.0,349.0
2022-02-11-16:52:36.275394,5.0,2.0,349.0
2022-02-11-16:52:36.276424,5.0,2.0,349.0
2022-02-11-16:52:36.277421,5.0,2.0,349.0
2022-02-11-16:52:36.278422,7.0,4.0,349.0
2022-02-11-16:52:36.279417,8.0,20.0,349.0
2022-02-11-16:52:36.280415,8.0,20.0,349.0
2022-02-11-16:52:36.281411,8.0,20.0,349.0
2022-02-11-16:52:36.282407,4.0,11.0,348.0
2022-02-11-16:52:36.283407,9.0,11.0,349.0
2022-02-11-16:52:36.284403,9.0,11.0,349.0
2022-02-11-16:52:36.285366,9.0,11.0,349.0
2022-02-11-16:52:36.286396,4.0,10.0,349.0
2022-02-11-16:52:36.288413,1.0,8.0,349.0
2022-02-11-16:52:36.288413,1.0,8.0,349.0
2022-02-11-16:52:36.289387,1.0,8.0,349.0
2022-02-11-16:52:36.290706,2.0,13.0,349.0
2022-02-11-16:52:36.290960,6.0,1.0,348.0
2022-02-11-16:52:36.291208,6.0,1.0,348.0
2022-02-11-16:52:36.291463,6.0,1.0,348.0
2022-02-11-16:52:36.291569,6.0,1.0,348.0
2022-02-11-16:52:36.292015,6.0,1.0,348.0
2022-02-11-16:52:36.292269,6.0,1.0,348.0
2022-02-11-16:52:36.292269,6.0,1.0,348.0
2022-02-11-16:52:36.293277,6.0,1.0,348.0
2022-02-11-16:52:36.294302,6.0,3.0,349.0
2022-02-11-16:52:36.295524,8.0,2.0,349.0
2022-02-11-16:52:36.295774,8.0,2.0,349.0
2022-02-11-16:52:36.296015,8.0,2.0,349.0
2022-02-11-16:52:36.296247,8.0,2.0,349.0
2022-02-11-16:52:36.296478,8.0,2.0,349.0
2022-02-11-16:52:36.296705,8.0,2.0,349.0
2022-02-11-16:52:36.296908,8.0,2.0,349.0
2022-02-11-16:52:36.297118,8.0,2.0,349.0
2022-02-11-16:52:36.297181,8.0,2.0,349.0
2022-02-11-16:52:36.297181,8.0,2.0,349.0
2022-02-11-16:52:36.298184,8.0,2.0,349.0
2022-02-11-16:52:36.299215,6.0,7.0,348.0
2022-02-11-16:52:36.300207,5.0,3.0,349.0
2022-02-11-16:52:36.301207,5.0,3.0,349.0
2022-02-11-16:52:36.302208,5.0,3.0,349.0
2022-02-11-16:52:36.303199,6.0,4.0,349.0
2022-02-11-16:52:36.304201,3.0,9.0,349.0
2022-02-11-16:52:36.305194,3.0,9.0,349.0
2022-02-11-16:52:36.306192,3.0,9.0,349.0
2022-02-11-16:52:36.307193,2.0,18.0,349.0
2022-02-11-16:52:36.308187,5.0,1.0,349.0
2022-02-11-16:52:36.309186,5.0,1.0,349.0
2022-02-11-16:52:36.310182,5.0,1.0,349.0
2022-02-11-16:52:36.311179,5.0,2.0,349.0
2022-02-11-16:52:36.312177,8.0,11.0,349.0
2022-02-11-16:52:36.313174,8.0,11.0,349.0
2022-02-11-16:52:36.314172,8.0,11.0,349.0
2022-02-11-16:52:36.315172,6.0,1.0,349.0
2022-02-11-16:52:36.316166,5.0,12.0,349.0
2022-02-11-16:52:36.317164,5.0,12.0,349.0
2022-02-11-16:52:36.318159,5.0,12.0,349.0
2022-02-11-16:52:36.319158,8.0,17.0,349.0
2022-02-11-16:52:36.320483,4.0,18.0,349.0
2022-02-11-16:52:36.320483,4.0,18.0,349.0
2022-02-11-16:52:36.321482,4.0,18.0,349.0
2022-02-11-16:52:36.322479,4.0,18.0,349.0
2022-02-11-16:52:36.323477,5.0,16.0,349.0
2022-02-11-16:52:36.325472,1.0,16.0,349.0
2022-02-11-16:52:36.326478,3.0,3.0,348.0
2022-02-11-16:52:36.326478,3.0,3.0,348.0
2022-02-11-16:52:36.327503,7.0,0.0,349.0
2022-02-11-16:52:36.328464,9.0,6.0,349.0
2022-02-11-16:52:36.329462,9.0,6.0,349.0
2022-02-11-16:52:36.330495,9.0,6.0,349.0
2022-02-11-16:52:36.331456,8.0,5.0,349.0
2022-02-11-16:52:36.332453,7.0,16.0,349.0
2022-02-11-16:52:36.333450,7.0,16.0,349.0
2022-02-11-16:52:36.334487,7.0,16.0,349.0
2022-02-11-16:52:36.334487,8.0,0.0,348.0
2022-02-11-16:52:36.335525,3.0,11.0,349.0
2022-02-11-16:52:36.336519,3.0,11.0,349.0
2022-02-11-16:52:36.337517,3.0,11.0,349.0
2022-02-11-16:52:36.338513,3.0,11.0,349.0
2022-02-11-16:52:36.339511,3.0,18.0,349.0
2022-02-11-16:52:36.340509,1.0,5.0,349.0
2022-02-11-16:52:36.341505,1.0,5.0,349.0
2022-02-11-16:52:36.342503,1.0,5.0,349.0
2022-02-11-16:52:36.343503,1.0,5.0,349.0
2022-02-11-16:52:36.344507,3.0,3.0,349.0
2022-02-11-16:52:36.345495,3.0,3.0,349.0
2022-02-11-16:52:36.346492,3.0,3.0,349.0
2022-02-11-16:52:36.347493,3.0,3.0,349.0
2022-02-11-16:52:36.348487,6.0,2.0,349.0
2022-02-11-16:52:36.349487,6.0,2.0,349.0
2022-02-11-16:52:36.350481,6.0,2.0,349.0
2022-02-11-16:52:36.351482,6.0,2.0,349.0
2022-02-11-16:52:36.352476,6.0,3.0,349.0
2022-02-11-16:52:36.353474,4.0,9.0,349.0
2022-02-11-16:52:36.354470,4.0,9.0,349.0
2022-02-11-16:52:36.355467,4.0,9.0,349.0
2022-02-11-16:52:36.357489,4.0,23.0,349.0
2022-02-11-16:52:36.357489,0.0,10.0,348.0
2022-02-11-16:52:36.358457,0.0,10.0,348.0
2022-02-11-16:52:36.359461,0.0,10.0,348.0
2022-02-11-16:52:36.360455,8.0,1.0,349.0
2022-02-11-16:52:36.361455,7.0,2.0,349.0
2022-02-11-16:52:36.362451,7.0,2.0,349.0
2022-02-11-16:52:36.363448,7.0,2.0,349.0
2022-02-11-16:52:36.364510,6.0,5.0,349.0
2022-02-11-16:52:36.364510,6.0,0.0,349.0
2022-02-11-16:52:36.365545,6.0,0.0,349.0
2022-02-11-16:52:36.366543,6.0,0.0,349.0
2022-02-11-16:52:36.367539,6.0,0.0,349.0
2022-02-11-16:52:36.368868,4.0,7.0,349.0
2022-02-11-16:52:36.369130,2.0,9.0,349.0
2022-02-11-16:52:36.369396,2.0,9.0,349.0
2022-02-11-16:52:36.369659,2.0,9.0,349.0
2022-02-11-16:52:36.369920,2.0,9.0,349.0
2022-02-11-16:52:36.370044,2.0,9.0,349.0
2022-02-11-16:52:36.370044,2.0,9.0,349.0
2022-02-11-16:52:36.371249,2.0,9.0,349.0
2022-02-11-16:52:36.371249,2.0,9.0,349.0
2022-02-11-16:52:36.372249,1.0,17.0,349.0
2022-02-11-16:52:36.373284,2.0,18.0,349.0
2022-02-11-16:52:36.374278,2.0,18.0,349.0
2022-02-11-16:52:36.375242,2.0,18.0,349.0
2022-02-11-16:52:36.376273,2.0,18.0,349.0
2022-02-11-16:52:36.377270,8.0,0.0,349.0
2022-02-11-16:52:36.378268,8.0,0.0,349.0
2022-02-11-16:52:36.379265,8.0,0.0,349.0
2022-02-11-16:52:36.380246,8.0,0.0,349.0
2022-02-11-16:52:36.380246,6.0,2.0,349.0
2022-02-11-16:52:36.381225,5.0,1.0,349.0
2022-02-11-16:52:36.382255,5.0,1.0,349.0
2022-02-11-16:52:36.383254,5.0,1.0,349.0
2022-02-11-16:52:36.384250,5.0,1.0,349.0
2022-02-11-16:52:36.385247,5.0,0.0,349.0
2022-02-11-16:52:36.386246,5.0,7.0,349.0
2022-02-11-16:52:36.387243,5.0,7.0,349.0
2022-02-11-16:52:36.388240,5.0,7.0,349.0
2022-02-11-16:52:36.390201,1.0,21.0,349.0
2022-02-11-16:52:36.391097,4.0,13.0,349.0
2022-02-11-16:52:36.391204,4.0,13.0,349.0
2022-02-11-16:52:36.391204,4.0,13.0,349.0
2022-02-11-16:52:36.392204,4.0,13.0,349.0
2022-02-11-16:52:36.393234,8.0,6.0,349.0
2022-02-11-16:52:36.394457,12.0,4.0,349.0
2022-02-11-16:52:36.394719,12.0,4.0,349.0
2022-02-11-16:52:36.394981,12.0,4.0,349.0
2022-02-11-16:52:36.395243,12.0,4.0,349.0
2022-02-11-16:52:36.395508,12.0,4.0,349.0
2022-02-11-16:52:36.395759,12.0,4.0,349.0
2022-02-11-16:52:36.395841,12.0,4.0,349.0
2022-02-11-16:52:36.395841,7.0,25.0,349.0
2022-02-11-16:52:36.396874,2.0,6.0,348.0
2022-02-11-16:52:36.397872,2.0,6.0,348.0
2022-02-11-16:52:36.398870,2.0,6.0,348.0
2022-02-11-16:52:36.399865,2.0,6.0,348.0
2022-02-11-16:52:36.400863,2.0,6.0,348.0
2022-02-11-16:52:36.401865,3.0,3.0,349.0
2022-02-11-16:52:36.402860,3.0,3.0,349.0
2022-02-11-16:52:36.404058,3.0,3.0,349.0
2022-02-11-16:52:36.404058,3.0,3.0,349.0
2022-02-11-16:52:36.405057,4.0,18.0,349.0
2022-02-11-16:52:36.406055,4.0,18.0,349.0
2022-02-11-16:52:36.407091,4.0,18.0,349.0
2022-02-11-16:52:36.407091,4.0,18.0,349.0
2022-02-11-16:52:36.408132,4.0,18.0,349.0
2022-02-11-16:52:36.409127,3.0,4.0,349.0
2022-02-11-16:52:36.410120,5.0,2.0,349.0
2022-02-11-16:52:36.411094,5.0,2.0,349.0
2022-02-11-16:52:36.412114,5.0,2.0,349.0
2022-02-11-16:52:36.413077,5.0,2.0,349.0
2022-02-11-16:52:36.414075,6.0,1.0,349.0
2022-02-11-16:52:36.415072,8.0,3.0,349.0
2022-02-11-16:52:36.416084,8.0,3.0,349.0
2022-02-11-16:52:36.417068,8.0,3.0,349.0
2022-02-11-16:52:36.418065,9.0,4.0,349.0
2022-02-11-16:52:36.419084,5.0,21.0,349.0
2022-02-11-16:52:36.420064,5.0,21.0,349.0
2022-02-11-16:52:36.421056,5.0,21.0,349.0
2022-02-11-16:52:36.422054,1.0,10.0,349.0
2022-02-11-16:52:36.423072,1.0,16.0,349.0
2022-02-11-16:52:36.424096,1.0,16.0,349.0
2022-02-11-16:52:36.425082,1.0,16.0,349.0
2022-02-11-16:52:36.427040,1.0,8.0,349.0
2022-02-11-16:52:36.427040,6.0,1.0,349.0
2022-02-11-16:52:36.428038,6.0,1.0,349.0
2022-02-11-16:52:36.429034,6.0,1.0,349.0
2022-02-11-16:52:36.430031,8.0,1.0,349.0
2022-02-11-16:52:36.431029,4.0,3.0,349.0
2022-02-11-16:52:36.432026,4.0,3.0,349.0
2022-02-11-16:52:36.433024,4.0,3.0,349.0
2022-02-11-16:52:36.434024,9.0,0.0,349.0
2022-02-11-16:52:36.435019,6.0,14.0,349.0
2022-02-11-16:52:36.436050,6.0,14.0,349.0
2022-02-11-16:52:36.437052,6.0,14.0,349.0
2022-02-11-16:52:36.438012,5.0,3.0,349.0
2022-02-11-16:52:36.439042,4.0,16.0,349.0
2022-02-11-16:52:36.440052,4.0,16.0,349.0
2022-02-11-16:52:36.441002,4.0,16.0,349.0
2022-02-11-16:52:36.442001,5.0,5.0,348.0
2022-02-11-16:52:36.442998,6.0,2.0,348.0
2022-02-11-16:52:36.443995,9.0,3.0,349.0
2022-02-11-16:52:36.445015,9.0,3.0,349.0
2022-02-11-16:52:36.445991,8.0,3.0,348.0
2022-02-11-16:52:36.446988,6.0,2.0,348.0
2022-02-11-16:52:36.447985,8.0,1.0,349.0
2022-02-11-16:52:36.448983,8.0,1.0,349.0
2022-02-11-16:52:36.450011,8.0,1.0,349.0
2022-02-11-16:52:36.451010,6.0,12.0,349.0
2022-02-11-16:52:36.452008,6.0,12.0,349.0
2022-02-11-16:52:36.453004,6.0,12.0,349.0
2022-02-11-16:52:36.454002,6.0,12.0,349.0
2022-02-11-16:52:36.455005,1.0,0.0,349.0
2022-02-11-16:52:36.455962,1.0,0.0,349.0
2022-02-11-16:52:36.456960,1.0,0.0,349.0
2022-02-11-16:52:36.457957,1.0,0.0,349.0
2022-02-11-16:52:36.458954,3.0,7.0,349.0
2022-02-11-16:52:36.459952,3.0,0.0,349.0
2022-02-11-16:52:36.460951,5.0,7.0,348.0
2022-02-11-16:52:36.462944,9.0,1.0,349.0
2022-02-11-16:52:36.462944,6.0,1.0,348.0
2022-02-11-16:52:36.463942,6.0,1.0,348.0
2022-02-11-16:52:36.464939,6.0,1.0,348.0
2022-02-11-16:52:36.465969,6.0,1.0,348.0
2022-02-11-16:52:36.466968,4.0,10.0,349.0
2022-02-11-16:52:36.467931,11.0,11.0,349.0
2022-02-11-16:52:36.468961,11.0,11.0,349.0
2022-02-11-16:52:36.469961,11.0,11.0,349.0
2022-02-11-16:52:36.470957,0.0,6.0,349.0
2022-02-11-16:52:36.471953,1.0,25.0,349.0
2022-02-11-16:52:36.472953,1.0,25.0,349.0
2022-02-11-16:52:36.473915,1.0,25.0,349.0
2022-02-11-16:52:36.474947,1.0,1.0,349.0
2022-02-11-16:52:36.475942,5.0,6.0,349.0
2022-02-11-16:52:36.476942,5.0,6.0,349.0
2022-02-11-16:52:36.477931,5.0,6.0,349.0
2022-02-11-16:52:36.478926,7.0,2.0,349.0
2022-02-11-16:52:36.479898,5.0,2.0,349.0
2022-02-11-16:52:36.480896,5.0,2.0,349.0
2022-02-11-16:52:36.481940,5.0,2.0,349.0
2022-02-11-16:52:36.482891,8.0,8.0,349.0
2022-02-11-16:52:36.483888,6.0,15.0,349.0
2022-02-11-16:52:36.484885,6.0,15.0,349.0
2022-02-11-16:52:36.485918,6.0,15.0,349.0
2022-02-11-16:52:36.486914,6.0,15.0,349.0
2022-02-11-16:52:36.487917,9.0,32.0,349.0
2022-02-11-16:52:36.488874,9.0,32.0,349.0
2022-02-11-16:52:36.489872,9.0,32.0,349.0
2022-02-11-16:52:36.490869,9.0,32.0,349.0
2022-02-11-16:52:36.491868,5.0,3.0,349.0
2022-02-11-16:52:36.492864,5.0,3.0,349.0
2022-02-11-16:52:36.493861,5.0,3.0,349.0
2022-02-11-16:52:36.495856,5.0,3.0,349.0
2022-02-11-16:52:36.495856,7.0,1.0,349.0
2022-02-11-16:52:36.496853,8.0,1.0,349.0
2022-02-11-16:52:36.497852,8.0,1.0,349.0
2022-02-11-16:52:36.498901,8.0,1.0,349.0
2022-02-11-16:52:36.499846,7.0,7.0,349.0
2022-02-11-16:52:36.500877,3.0,5.0,349.0
2022-02-11-16:52:36.501840,3.0,5.0,349.0
2022-02-11-16:52:36.502892,3.0,5.0,349.0
2022-02-11-16:52:36.503835,3.0,10.0,349.0
2022-02-11-16:52:36.504867,5.0,30.0,349.0
2022-02-11-16:52:36.505863,5.0,30.0,349.0
2022-02-11-16:52:36.506826,5.0,30.0,349.0
2022-02-11-16:52:36.507824,3.0,11.0,349.0
2022-02-11-16:52:36.508821,5.0,0.0,349.0
2022-02-11-16:52:36.509819,5.0,0.0,349.0
2022-02-11-16:52:36.510816,5.0,0.0,349.0
2022-02-11-16:52:36.511814,8.0,8.0,349.0
2022-02-11-16:52:36.512811,8.0,8.0,349.0
2022-02-11-16:52:36.513854,8.0,8.0,349.0
2022-02-11-16:52:36.514840,8.0,8.0,349.0
2022-02-11-16:52:36.515835,1.0,12.0,349.0
2022-02-11-16:52:36.516836,7.0,5.0,349.0
2022-02-11-16:52:36.517798,7.0,5.0,349.0
2022-02-11-16:52:36.518795,7.0,5.0,349.0
2022-02-11-16:52:36.519792,4.0,11.0,349.0
2022-02-11-16:52:36.520789,3.0,11.0,349.0
2022-02-11-16:52:36.521786,3.0,11.0,349.0
2022-02-11-16:52:36.522784,3.0,11.0,349.0
2022-02-11-16:52:36.523781,6.0,2.0,349.0
2022-02-11-16:52:36.524778,6.0,2.0,349.0
2022-02-11-16:52:36.525775,6.0,2.0,349.0
2022-02-11-16:52:36.526774,6.0,2.0,349.0
2022-02-11-16:52:36.527771,6.0,2.0,349.0
2022-02-11-16:52:36.528768,8.0,1.0,349.0
2022-02-11-16:52:36.530797,8.0,1.0,349.0
2022-02-11-16:52:36.530797,8.0,1.0,349.0
2022-02-11-16:52:36.531759,5.0,8.0,349.0
2022-02-11-16:52:36.532757,5.0,8.0,349.0
2022-02-11-16:52:36.533754,5.0,8.0,349.0
2022-02-11-16:52:36.534753,5.0,8.0,349.0
2022-02-11-16:52:36.535749,5.0,8.0,349.0
2022-02-11-16:52:36.536746,8.0,14.0,349.0
2022-02-11-16:52:36.537744,4.0,15.0,349.0
2022-02-11-16:52:36.538741,4.0,15.0,349.0
2022-02-11-16:52:36.539738,4.0,15.0,349.0
2022-02-11-16:52:36.540735,2.0,14.0,349.0
2022-02-11-16:52:36.541768,4.0,2.0,349.0
2022-02-11-16:52:36.542731,4.0,2.0,349.0
2022-02-11-16:52:36.543761,4.0,2.0,349.0
2022-02-11-16:52:36.544726,5.0,3.0,349.0
2022-02-11-16:52:36.545757,5.0,3.0,349.0
2022-02-11-16:52:36.546755,5.0,3.0,349.0
2022-02-11-16:52:36.547753,5.0,3.0,349.0
2022-02-11-16:52:36.548715,9.0,1.0,349.0
2022-02-11-16:52:36.549712,6.0,10.0,349.0
2022-02-11-16:52:36.550709,6.0,10.0,349.0
2022-02-11-16:52:36.551706,6.0,10.0,349.0
2022-02-11-16:52:36.552706,6.0,14.0,349.0
2022-02-11-16:52:36.553702,4.0,21.0,348.0
2022-02-11-16:52:36.554699,4.0,21.0,348.0
2022-02-11-16:52:36.555732,4.0,21.0,348.0
2022-02-11-16:52:36.556693,0.0,18.0,349.0
2022-02-11-16:52:36.557725,1.0,3.0,349.0
2022-02-11-16:52:36.558722,1.0,3.0,349.0
2022-02-11-16:52:36.559685,1.0,3.0,349.0
2022-02-11-16:52:36.560718,5.0,4.0,349.0
2022-02-11-16:52:36.562712,2.0,6.0,349.0
2022-02-11-16:52:36.562712,2.0,6.0,349.0
2022-02-11-16:52:36.563710,2.0,6.0,349.0
2022-02-11-16:52:36.564672,2.0,6.0,349.0
2022-02-11-16:52:36.565669,4.0,15.0,349.0
2022-02-11-16:52:36.566667,4.0,15.0,349.0
2022-02-11-16:52:36.567664,4.0,15.0,349.0
2022-02-11-16:52:36.568663,4.0,15.0,349.0
2022-02-11-16:52:36.569659,8.0,5.0,349.0
2022-02-11-16:52:36.570656,3.0,5.0,349.0
2022-02-11-16:52:36.571653,1.0,3.0,349.0
2022-02-11-16:52:36.572650,1.0,3.0,349.0
2022-02-11-16:52:36.573648,1.0,20.0,349.0
2022-02-11-16:52:36.574645,1.0,20.0,349.0
2022-02-11-16:52:36.575643,0.0,6.0,349.0
2022-02-11-16:52:36.576687,0.0,6.0,349.0
2022-02-11-16:52:36.577637,5.0,3.0,349.0
2022-02-11-16:52:36.578634,6.0,1.0,349.0
2022-02-11-16:52:36.579633,6.0,1.0,349.0
2022-02-11-16:52:36.580629,6.0,1.0,349.0
2022-02-11-16:52:36.581626,8.0,0.0,349.0
2022-02-11-16:52:36.582624,5.0,5.0,349.0
2022-02-11-16:52:36.583621,5.0,5.0,349.0
2022-02-11-16:52:36.584618,5.0,5.0,349.0
2022-02-11-16:52:36.585616,5.0,4.0,349.0
2022-02-11-16:52:36.586614,4.0,4.0,349.0
2022-02-11-16:52:36.587610,4.0,4.0,349.0
2022-02-11-16:52:36.588607,4.0,4.0,349.0
2022-02-11-16:52:36.589606,3.0,9.0,349.0
2022-02-11-16:52:36.590603,1.0,11.0,349.0
2022-02-11-16:52:36.591599,1.0,11.0,349.0
2022-02-11-16:52:36.592597,1.0,11.0,349.0
2022-02-11-16:52:36.593629,1.0,3.0,349.0
2022-02-11-16:52:36.594592,3.0,14.0,348.0
2022-02-11-16:52:36.596586,3.0,14.0,348.0
2022-02-11-16:52:36.596586,3.0,14.0,348.0
2022-02-11-16:52:36.597586,6.0,3.0,349.0
2022-02-11-16:52:36.598581,7.0,7.0,349.0
2022-02-11-16:52:36.599579,7.0,7.0,349.0
2022-02-11-16:52:36.600576,7.0,7.0,349.0
2022-02-11-16:52:36.601574,7.0,7.0,349.0
2022-02-11-16:52:36.602610,9.0,6.0,349.0
2022-02-11-16:52:36.603568,6.0,2.0,348.0
2022-02-11-16:52:36.604566,6.0,2.0,348.0
2022-02-11-16:52:36.605562,3.0,8.0,349.0
2022-02-11-16:52:36.606560,4.0,19.0,349.0
2022-02-11-16:52:36.607592,4.0,19.0,349.0
2022-02-11-16:52:36.608591,4.0,19.0,349.0
2022-02-11-16:52:36.609552,4.0,19.0,349.0
2022-02-11-16:52:36.610585,3.0,5.0,349.0
2022-02-11-16:52:36.611547,3.0,5.0,349.0
2022-02-11-16:52:36.612544,3.0,5.0,349.0
2022-02-11-16:52:36.613541,3.0,5.0,349.0
2022-02-11-16:52:36.614564,4.0,7.0,349.0
2022-02-11-16:52:36.615536,6.0,2.0,349.0
2022-02-11-16:52:36.616561,6.0,2.0,349.0
2022-02-11-16:52:36.617556,6.0,2.0,349.0
2022-02-11-16:52:36.618528,5.0,4.0,349.0
2022-02-11-16:52:36.619526,4.0,4.0,349.0
2022-02-11-16:52:36.620523,4.0,4.0,349.0
2022-02-11-16:52:36.621520,4.0,4.0,349.0
2022-02-11-16:52:36.622519,7.0,6.0,349.0
2022-02-11-16:52:36.623523,6.0,20.0,349.0
2022-02-11-16:52:36.624512,6.0,20.0,349.0
2022-02-11-16:52:36.625509,6.0,20.0,349.0
2022-02-11-16:52:36.626508,6.0,20.0,349.0
2022-02-11-16:52:36.627538,8.0,6.0,349.0
2022-02-11-16:52:36.628501,8.0,6.0,349.0
2022-02-11-16:52:36.630496,8.0,6.0,349.0
2022-02-11-16:52:36.631493,9.0,5.0,348.0
2022-02-11-16:52:36.631493,3.0,11.0,349.0
2022-02-11-16:52:36.632490,3.0,11.0,349.0
2022-02-11-16:52:36.633488,3.0,11.0,349.0
2022-02-11-16:52:36.634485,8.0,3.0,349.0
2022-02-11-16:52:36.635482,5.0,13.0,349.0
2022-02-11-16:52:36.636479,5.0,13.0,349.0
2022-02-11-16:52:36.637477,5.0,13.0,349.0
2022-02-11-16:52:36.638474,5.0,13.0,349.0
2022-02-11-16:52:36.639473,0.0,5.0,349.0
2022-02-11-16:52:36.640470,0.0,5.0,349.0
2022-02-11-16:52:36.641467,0.0,5.0,349.0
2022-02-11-16:52:36.642464,0.0,5.0,349.0
2022-02-11-16:52:36.643496,8.0,4.0,349.0
2022-02-11-16:52:36.644458,8.0,2.0,349.0
2022-02-11-16:52:36.645456,8.0,2.0,349.0
2022-02-11-16:52:36.646453,4.0,2.0,349.0
2022-02-11-16:52:36.647451,7.0,3.0,349.0
2022-02-11-16:52:36.648449,7.0,3.0,349.0
2022-02-11-16:52:36.649480,7.0,3.0,349.0
2022-02-11-16:52:36.650442,7.0,3.0,349.0
2022-02-11-16:52:36.651469,6.0,12.0,349.0
2022-02-11-16:52:36.652437,6.0,3.0,349.0
2022-02-11-16:52:36.653435,7.0,9.0,349.0
2022-02-11-16:52:36.654432,7.0,9.0,349.0
2022-02-11-16:52:36.655456,2.0,14.0,349.0
2022-02-11-16:52:36.656455,2.0,17.0,349.0
2022-02-11-16:52:36.657424,2.0,17.0,349.0
2022-02-11-16:52:36.658456,2.0,17.0,349.0
2022-02-11-16:52:36.659455,8.0,4.0,349.0
2022-02-11-16:52:36.660417,3.0,3.0,349.0
2022-02-11-16:52:36.661441,3.0,3.0,349.0
2022-02-11-16:52:36.662437,3.0,3.0,349.0
2022-02-11-16:52:36.664460,6.0,2.0,349.0
2022-02-11-16:52:36.664460,6.0,2.0,349.0
2022-02-11-16:52:36.665652,6.0,2.0,349.0
2022-02-11-16:52:36.665907,6.0,2.0,349.0
2022-02-11-16:52:36.666160,6.0,2.0,349.0
2022-02-11-16:52:36.666426,6.0,2.0,349.0
2022-02-11-16:52:36.666426,4.0,3.0,349.0
2022-02-11-16:52:36.667633,3.0,4.0,349.0
2022-02-11-16:52:36.667872,3.0,4.0,349.0
2022-02-11-16:52:36.668110,3.0,4.0,349.0
2022-02-11-16:52:36.668340,3.0,4.0,349.0
2022-02-11-16:52:36.668570,3.0,4.0,349.0
2022-02-11-16:52:36.668784,3.0,4.0,349.0
2022-02-11-16:52:36.668784,3.0,4.0,349.0
2022-02-11-16:52:36.669784,3.0,4.0,349.0
2022-02-11-16:52:36.670781,3.0,4.0,349.0
2022-02-11-16:52:36.671778,3.0,8.0,349.0
2022-02-11-16:52:36.672775,3.0,14.0,349.0
2022-02-11-16:52:36.673997,3.0,14.0,349.0
2022-02-11-16:52:36.674282,3.0,14.0,349.0
2022-02-11-16:52:36.674556,3.0,14.0,349.0
2022-02-11-16:52:36.674556,6.0,0.0,349.0
2022-02-11-16:52:36.675557,4.0,1.0,349.0
2022-02-11-16:52:36.676588,4.0,1.0,349.0
2022-02-11-16:52:36.677584,4.0,1.0,349.0
2022-02-11-16:52:36.678580,4.0,1.0,349.0
2022-02-11-16:52:36.679579,4.0,2.0,349.0
2022-02-11-16:52:36.680547,4.0,2.0,349.0
2022-02-11-16:52:36.681569,4.0,2.0,349.0
2022-02-11-16:52:36.682570,4.0,2.0,349.0
2022-02-11-16:52:36.683911,4.0,9.0,349.0
2022-02-11-16:52:36.684192,3.0,8.0,349.0
2022-02-11-16:52:36.684475,3.0,8.0,349.0
2022-02-11-16:52:36.684580,3.0,8.0,349.0
2022-02-11-16:52:36.684580,3.0,8.0,349.0
2022-02-11-16:52:36.685813,3.0,8.0,349.0
2022-02-11-16:52:36.686097,3.0,8.0,349.0
2022-02-11-16:52:36.686374,3.0,8.0,349.0
2022-02-11-16:52:36.686656,3.0,8.0,349.0
2022-02-11-16:52:36.686656,3.0,8.0,349.0
2022-02-11-16:52:36.687655,3.0,14.0,349.0
2022-02-11-16:52:36.688653,3.0,14.0,349.0
2022-02-11-16:52:36.689688,3.0,14.0,349.0
2022-02-11-16:52:36.690648,3.0,14.0,349.0
2022-02-11-16:52:36.691644,3.0,14.0,349.0
2022-02-11-16:52:36.692642,5.0,2.0,349.0
2022-02-11-16:52:36.693639,5.0,0.0,349.0
2022-02-11-16:52:36.694636,5.0,0.0,349.0
2022-02-11-16:52:36.695673,5.0,0.0,349.0
2022-02-11-16:52:36.695673,9.0,3.0,349.0
2022-02-11-16:52:36.697670,9.0,3.0,349.0
2022-02-11-16:52:36.697670,9.0,3.0,349.0
2022-02-11-16:52:36.698668,9.0,3.0,349.0
2022-02-11-16:52:36.699701,9.0,3.0,349.0
2022-02-11-16:52:36.700696,5.0,4.0,350.0
2022-02-11-16:52:36.701692,8.0,3.0,349.0
2022-02-11-16:52:36.702688,8.0,3.0,349.0
2022-02-11-16:52:36.703688,8.0,3.0,349.0
2022-02-11-16:52:36.704683,5.0,9.0,349.0
2022-02-11-16:52:36.705680,4.0,18.0,349.0
2022-02-11-16:52:36.706680,4.0,18.0,349.0
2022-02-11-16:52:36.707676,4.0,18.0,349.0
2022-02-11-16:52:36.708675,2.0,2.0,349.0
2022-02-11-16:52:36.709670,7.0,6.0,349.0
2022-02-11-16:52:36.710667,7.0,6.0,349.0
2022-02-11-16:52:36.711667,7.0,6.0,349.0
2022-02-11-16:52:36.712663,6.0,2.0,349.0
2022-02-11-16:52:36.713900,5.0,7.0,349.0
2022-02-11-16:52:36.713900,5.0,7.0,349.0
2022-02-11-16:52:36.714936,5.0,7.0,349.0
2022-02-11-16:52:36.715931,5.0,7.0,349.0
2022-02-11-16:52:36.716929,1.0,17.0,349.0
2022-02-11-16:52:36.717924,5.0,7.0,349.0
2022-02-11-16:52:36.718921,5.0,7.0,349.0
2022-02-11-16:52:36.719921,5.0,7.0,349.0
2022-02-11-16:52:36.720907,4.0,14.0,349.0
2022-02-11-16:52:36.721913,11.0,28.0,349.0
2022-02-11-16:52:36.722912,11.0,28.0,349.0
2022-02-11-16:52:36.723910,11.0,28.0,349.0
2022-02-11-16:52:36.724905,1.0,6.0,350.0
2022-02-11-16:52:36.725871,2.0,12.0,349.0
2022-02-11-16:52:36.726906,2.0,12.0,349.0
2022-02-11-16:52:36.727865,2.0,12.0,349.0
2022-02-11-16:52:36.728863,3.0,2.0,349.0
2022-02-11-16:52:36.729860,7.0,4.0,349.0
2022-02-11-16:52:36.730857,7.0,4.0,349.0
2022-02-11-16:52:36.732852,7.0,4.0,349.0
2022-02-11-16:52:36.732852,8.0,7.0,349.0
2022-02-11-16:52:36.733873,8.0,7.0,349.0
2022-02-11-16:52:36.734878,8.0,7.0,349.0
2022-02-11-16:52:36.735858,8.0,7.0,349.0
2022-02-11-16:52:36.736880,4.0,19.0,349.0
2022-02-11-16:52:36.737871,2.0,21.0,349.0
2022-02-11-16:52:36.738868,2.0,21.0,349.0
2022-02-11-16:52:36.739868,2.0,21.0,349.0
2022-02-11-16:52:36.740862,4.0,4.0,349.0
2022-02-11-16:52:36.741859,7.0,3.0,349.0
2022-02-11-16:52:36.742862,7.0,3.0,349.0
2022-02-11-16:52:36.743856,7.0,3.0,349.0
2022-02-11-16:52:36.744819,2.0,1.0,349.0
2022-02-11-16:52:36.745817,4.0,5.0,349.0
2022-02-11-16:52:36.746814,4.0,5.0,349.0
2022-02-11-16:52:36.747812,4.0,5.0,349.0
2022-02-11-16:52:36.748842,5.0,5.0,349.0
2022-02-11-16:52:36.749839,4.0,4.0,349.0
2022-02-11-16:52:36.750836,4.0,4.0,349.0
2022-02-11-16:52:36.751834,4.0,4.0,349.0
2022-02-11-16:52:36.752799,4.0,4.0,349.0
2022-02-11-16:52:36.753830,5.0,12.0,349.0
2022-02-11-16:52:36.754826,4.0,18.0,349.0
2022-02-11-16:52:36.755827,4.0,18.0,349.0
2022-02-11-16:52:36.756821,4.0,18.0,349.0
2022-02-11-16:52:36.757818,5.0,1.0,349.0
2022-02-11-16:52:36.758813,5.0,1.0,349.0
2022-02-11-16:52:36.760064,5.0,1.0,349.0
2022-02-11-16:52:36.760323,5.0,1.0,349.0
2022-02-11-16:52:36.760610,5.0,1.0,349.0
2022-02-11-16:52:36.761021,6.0,3.0,349.0
2022-02-11-16:52:36.761282,9.0,3.0,349.0
2022-02-11-16:52:36.761541,9.0,3.0,349.0
2022-02-11-16:52:36.761794,9.0,3.0,349.0
2022-02-11-16:52:36.761794,9.0,3.0,349.0
2022-02-11-16:52:36.762794,9.0,3.0,349.0
2022-02-11-16:52:36.763842,9.0,3.0,349.0
2022-02-11-16:52:36.763842,9.0,3.0,349.0
2022-02-11-16:52:36.765894,5.0,4.0,349.0
2022-02-11-16:52:36.765894,5.0,8.0,349.0
2022-02-11-16:52:36.766870,5.0,8.0,349.0
2022-02-11-16:52:36.767866,5.0,8.0,349.0
2022-02-11-16:52:36.768865,5.0,8.0,349.0
2022-02-11-16:52:36.769829,4.0,9.0,349.0
2022-02-11-16:52:36.770858,4.0,9.0,349.0
2022-02-11-16:52:36.771856,4.0,9.0,349.0
2022-02-11-16:52:36.772820,4.0,9.0,349.0
2022-02-11-16:52:36.774162,1.0,30.0,349.0
2022-02-11-16:52:36.774411,0.0,1.0,349.0
2022-02-11-16:52:36.774664,0.0,1.0,349.0
2022-02-11-16:52:36.774772,0.0,1.0,349.0
2022-02-11-16:52:36.774772,0.0,1.0,349.0
2022-02-11-16:52:36.775773,0.0,1.0,349.0
2022-02-11-16:52:36.776806,0.0,1.0,349.0
2022-02-11-16:52:36.778071,11.0,8.0,349.0
2022-02-11-16:52:36.778332,11.0,8.0,349.0
2022-02-11-16:52:36.778591,11.0,8.0,349.0
2022-02-11-16:52:36.778843,11.0,8.0,349.0
2022-02-11-16:52:36.779087,11.0,8.0,349.0
2022-02-11-16:52:36.779186,11.0,8.0,349.0
2022-02-11-16:52:36.779186,11.0,8.0,349.0
2022-02-11-16:52:36.780211,11.0,8.0,349.0
2022-02-11-16:52:36.781213,11.0,8.0,349.0
2022-02-11-16:52:36.782207,1.0,15.0,349.0
2022-02-11-16:52:36.783204,1.0,15.0,349.0
2022-02-11-16:52:36.784389,1.0,15.0,349.0
2022-02-11-16:52:36.784624,1.0,15.0,349.0
2022-02-11-16:52:36.784856,1.0,15.0,349.0
2022-02-11-16:52:36.785090,1.0,15.0,349.0
2022-02-11-16:52:36.785199,1.0,15.0,349.0
2022-02-11-16:52:36.785199,5.0,17.0,348.0
2022-02-11-16:52:36.786232,5.0,17.0,348.0
2022-02-11-16:52:36.787231,5.0,17.0,348.0
2022-02-11-16:52:36.788226,5.0,17.0,348.0
2022-02-11-16:52:36.789191,5.0,17.0,348.0
2022-02-11-16:52:36.790223,1.0,18.0,349.0
2022-02-11-16:52:36.791218,3.0,0.0,349.0
2022-02-11-16:52:36.792183,3.0,0.0,349.0
2022-02-11-16:52:36.793187,3.0,0.0,349.0
2022-02-11-16:52:36.794210,6.0,0.0,349.0
2022-02-11-16:52:36.795208,7.0,0.0,348.0
2022-02-11-16:52:36.796205,7.0,0.0,348.0
2022-02-11-16:52:36.797206,7.0,0.0,348.0
2022-02-11-16:52:36.798202,7.0,0.0,348.0
2022-02-11-16:52:36.800195,2.0,13.0,349.0
2022-02-11-16:52:36.800195,2.0,13.0,349.0
2022-02-11-16:52:36.801159,2.0,13.0,349.0
2022-02-11-16:52:36.802194,2.0,13.0,349.0
2022-02-11-16:52:36.803187,6.0,6.0,349.0
2022-02-11-16:52:36.804183,4.0,9.0,349.0
2022-02-11-16:52:36.805184,4.0,9.0,349.0
2022-02-11-16:52:36.806180,4.0,9.0,349.0
2022-02-11-16:52:36.807176,4.0,16.0,349.0
2022-02-11-16:52:36.808175,1.0,17.0,349.0
2022-02-11-16:52:36.809170,1.0,17.0,349.0
2022-02-11-16:52:36.810168,1.0,17.0,349.0
2022-02-11-16:52:36.811165,6.0,2.0,348.0
2022-02-11-16:52:36.812163,8.0,1.0,349.0
2022-02-11-16:52:36.813163,8.0,1.0,349.0
2022-02-11-16:52:36.814159,8.0,1.0,349.0
2022-02-11-16:52:36.815487,7.0,4.0,349.0
2022-02-11-16:52:36.815487,6.0,11.0,349.0
2022-02-11-16:52:36.816807,6.0,11.0,349.0
2022-02-11-16:52:36.817064,6.0,11.0,349.0
2022-02-11-16:52:36.817175,6.0,11.0,349.0
2022-02-11-16:52:36.817175,6.0,11.0,349.0
2022-02-11-16:52:36.818211,6.0,11.0,349.0
2022-02-11-16:52:36.819206,5.0,9.0,349.0
2022-02-11-16:52:36.820204,4.0,14.0,349.0
2022-02-11-16:52:36.821419,4.0,14.0,349.0
2022-02-11-16:52:36.821678,4.0,14.0,349.0
2022-02-11-16:52:36.821938,4.0,14.0,349.0
2022-02-11-16:52:36.822043,4.0,14.0,349.0
2022-02-11-16:52:36.822043,1.0,5.0,349.0
2022-02-11-16:52:36.823076,1.0,5.0,349.0
2022-02-11-16:52:36.824073,1.0,5.0,349.0
2022-02-11-16:52:36.825072,1.0,5.0,349.0
2022-02-11-16:52:36.826035,1.0,5.0,349.0
2022-02-11-16:52:36.827066,9.0,6.0,349.0
2022-02-11-16:52:36.828063,7.0,5.0,349.0
2022-02-11-16:52:36.829061,7.0,5.0,349.0
2022-02-11-16:52:36.830060,7.0,5.0,349.0
2022-02-11-16:52:36.831055,5.0,1.0,349.0
2022-02-11-16:52:36.832054,5.0,0.0,349.0
2022-02-11-16:52:36.834047,5.0,0.0,349.0
2022-02-11-16:52:36.834047,5.0,0.0,349.0
2022-02-11-16:52:36.835252,1.0,9.0,349.0
2022-02-11-16:52:36.835501,1.0,9.0,349.0
2022-02-11-16:52:36.835750,1.0,9.0,349.0
2022-02-11-16:52:36.836008,1.0,9.0,349.0
2022-02-11-16:52:36.836267,1.0,9.0,349.0
2022-02-11-16:52:36.836526,1.0,9.0,349.0
2022-02-11-16:52:36.836774,1.0,9.0,349.0
2022-02-11-16:52:36.837005,1.0,9.0,349.0
2022-02-11-16:52:36.837215,1.0,9.0,349.0
2022-02-11-16:52:36.837298,1.0,9.0,349.0
2022-02-11-16:52:36.837298,1.0,9.0,349.0
2022-02-11-16:52:36.838298,1.0,9.0,349.0
2022-02-11-16:52:36.839560,6.0,17.0,349.0
2022-02-11-16:52:36.839974,2.0,11.0,349.0
2022-02-11-16:52:36.840232,5.0,21.0,349.0
2022-02-11-16:52:36.840488,5.0,21.0,349.0
2022-02-11-16:52:36.840585,5.0,21.0,349.0
2022-02-11-16:52:36.840585,5.0,21.0,349.0
2022-02-11-16:52:36.841585,5.0,21.0,349.0
2022-02-11-16:52:36.842608,5.0,21.0,349.0
2022-02-11-16:52:36.843604,0.0,11.0,349.0
2022-02-11-16:52:36.844603,6.0,1.0,349.0
2022-02-11-16:52:36.845598,1.0,11.0,349.0
2022-02-11-16:52:36.846573,1.0,11.0,349.0
2022-02-11-16:52:36.847603,2.0,3.0,349.0
2022-02-11-16:52:36.848599,8.0,12.0,349.0
2022-02-11-16:52:36.849971,8.0,12.0,349.0
2022-02-11-16:52:36.850531,8.0,12.0,349.0
2022-02-11-16:52:36.850626,8.0,12.0,349.0
2022-02-11-16:52:36.851180,4.0,8.0,349.0
2022-02-11-16:52:36.851412,6.0,4.0,349.0
2022-02-11-16:52:36.851512,6.0,4.0,349.0
2022-02-11-16:52:36.851512,6.0,4.0,349.0
2022-02-11-16:52:36.852538,6.0,4.0,349.0
2022-02-11-16:52:36.853729,6.0,4.0,349.0
2022-02-11-16:52:36.853960,6.0,4.0,349.0
2022-02-11-16:52:36.854191,6.0,4.0,349.0
2022-02-11-16:52:36.854421,6.0,4.0,349.0
2022-02-11-16:52:36.854519,6.0,4.0,349.0
2022-02-11-16:52:36.854968,2.0,6.0,349.0
2022-02-11-16:52:36.855311,4.0,35.0,349.0
2022-02-11-16:52:36.855311,5.0,22.0,349.0
2022-02-11-16:52:36.856311,5.0,22.0,349.0
2022-02-11-16:52:36.857308,5.0,22.0,349.0
2022-02-11-16:52:36.858341,5.0,22.0,349.0
2022-02-11-16:52:36.858341,5.0,22.0,349.0
2022-02-11-16:52:36.859376,6.0,2.0,350.0
2022-02-11-16:52:36.860372,6.0,4.0,349.0
2022-02-11-16:52:36.861369,6.0,4.0,349.0
2022-02-11-16:52:36.862367,6.0,4.0,349.0
2022-02-11-16:52:36.863364,6.0,4.0,349.0
2022-02-11-16:52:36.864367,5.0,2.0,349.0
2022-02-11-16:52:36.865359,5.0,3.0,349.0
2022-02-11-16:52:36.866355,5.0,3.0,349.0
2022-02-11-16:52:36.867392,5.0,3.0,349.0
2022-02-11-16:52:36.868391,9.0,8.0,349.0
2022-02-11-16:52:36.869389,3.0,15.0,349.0
2022-02-11-16:52:36.869389,3.0,15.0,349.0
2022-02-11-16:52:36.870422,3.0,15.0,349.0
2022-02-11-16:52:36.871419,3.0,15.0,349.0
2022-02-11-16:52:36.872414,1.0,11.0,349.0
2022-02-11-16:52:36.873418,1.0,1.0,349.0
2022-02-11-16:52:36.874411,1.0,1.0,349.0
2022-02-11-16:52:36.875408,1.0,1.0,349.0
2022-02-11-16:52:36.876431,5.0,1.0,349.0
2022-02-11-16:52:36.877403,5.0,0.0,349.0
2022-02-11-16:52:36.878400,5.0,0.0,349.0
2022-02-11-16:52:36.879399,5.0,0.0,349.0
2022-02-11-16:52:36.880392,5.0,1.0,349.0
2022-02-11-16:52:36.881391,8.0,2.0,349.0
2022-02-11-16:52:36.882389,8.0,2.0,349.0
2022-02-11-16:52:36.883383,8.0,2.0,349.0
2022-02-11-16:52:36.884383,10.0,9.0,349.0
2022-02-11-16:52:36.885379,5.0,10.0,349.0
2022-02-11-16:52:36.886379,5.0,10.0,349.0
2022-02-11-16:52:36.887375,5.0,10.0,349.0
2022-02-11-16:52:36.888372,3.0,11.0,349.0
2022-02-11-16:52:36.889375,1.0,12.0,349.0
2022-02-11-16:52:36.890366,1.0,12.0,349.0
2022-02-11-16:52:36.891363,1.0,12.0,349.0
2022-02-11-16:52:36.892329,1.0,12.0,349.0
2022-02-11-16:52:36.893325,5.0,2.0,349.0
2022-02-11-16:52:36.894358,10.0,11.0,349.0
2022-02-11-16:52:36.895353,10.0,11.0,349.0
2022-02-11-16:52:36.896350,10.0,11.0,349.0
2022-02-11-16:52:36.897348,0.0,7.0,349.0
2022-02-11-16:52:36.898345,0.0,7.0,349.0
2022-02-11-16:52:36.899342,0.0,7.0,349.0
2022-02-11-16:52:36.900341,0.0,7.0,349.0
2022-02-11-16:52:36.901337,4.0,6.0,349.0
2022-02-11-16:52:36.903298,6.0,7.0,349.0
2022-02-11-16:52:36.903914,6.0,7.0,349.0
2022-02-11-16:52:36.904005,6.0,7.0,349.0
2022-02-11-16:52:36.904005,1.0,3.0,349.0
2022-02-11-16:52:36.905039,1.0,3.0,349.0
2022-02-11-16:52:36.906036,1.0,3.0,349.0
2022-02-11-16:52:36.907033,1.0,3.0,349.0
2022-02-11-16:52:36.907997,1.0,3.0,349.0
2022-02-11-16:52:36.908995,6.0,3.0,349.0
2022-02-11-16:52:36.910026,5.0,6.0,349.0
2022-02-11-16:52:36.911022,5.0,6.0,349.0
2022-02-11-16:52:36.912006,5.0,6.0,349.0
2022-02-11-16:52:36.913017,10.0,5.0,349.0
2022-02-11-16:52:36.913981,8.0,22.0,349.0
2022-02-11-16:52:36.915012,8.0,22.0,349.0
2022-02-11-16:52:36.916009,8.0,22.0,349.0
2022-02-11-16:52:36.917006,6.0,5.0,349.0
2022-02-11-16:52:36.918005,9.0,9.0,349.0
2022-02-11-16:52:36.919001,9.0,9.0,349.0
2022-02-11-16:52:36.920001,9.0,9.0,349.0
2022-02-11-16:52:36.920996,4.0,11.0,349.0
2022-02-11-16:52:36.921994,1.0,4.0,349.0
2022-02-11-16:52:36.922993,1.0,4.0,349.0
2022-02-11-16:52:36.923988,1.0,4.0,349.0
2022-02-11-16:52:36.924985,1.0,4.0,349.0
2022-02-11-16:52:36.926378,2.0,3.0,349.0
2022-02-11-16:52:36.926492,6.0,2.0,349.0
2022-02-11-16:52:36.926885,6.0,2.0,349.0
2022-02-11-16:52:36.927141,6.0,2.0,349.0
2022-02-11-16:52:36.927390,6.0,2.0,349.0
2022-02-11-16:52:36.927644,6.0,2.0,349.0
2022-02-11-16:52:36.927900,6.0,2.0,349.0
2022-02-11-16:52:36.928138,6.0,2.0,349.0
2022-02-11-16:52:36.928138,6.0,2.0,349.0
2022-02-11-16:52:36.929137,6.0,2.0,349.0
2022-02-11-16:52:36.930173,6.0,10.0,349.0
2022-02-11-16:52:36.930690,4.0,2.0,349.0
2022-02-11-16:52:36.930690,4.0,2.0,349.0
2022-02-11-16:52:36.931878,4.0,2.0,349.0
2022-02-11-16:52:36.932124,4.0,2.0,349.0
2022-02-11-16:52:36.932187,4.0,2.0,349.0
2022-02-11-16:52:36.932187,4.0,2.0,349.0
2022-02-11-16:52:36.933221,4.0,2.0,349.0
2022-02-11-16:52:36.934218,6.0,16.0,348.0
2022-02-11-16:52:36.935561,7.0,6.0,349.0
2022-02-11-16:52:36.936561,7.0,6.0,349.0
2022-02-11-16:52:36.936561,7.0,6.0,349.0
2022-02-11-16:52:36.937559,2.0,17.0,348.0
2022-02-11-16:52:36.938589,2.0,17.0,348.0
2022-02-11-16:52:36.939586,2.0,17.0,348.0
2022-02-11-16:52:36.940583,2.0,17.0,348.0
2022-02-11-16:52:36.941581,2.0,17.0,348.0
2022-02-11-16:52:36.942546,4.0,3.0,349.0
2022-02-11-16:52:36.943576,4.0,3.0,349.0
2022-02-11-16:52:36.944573,4.0,3.0,349.0
2022-02-11-16:52:36.945572,4.0,3.0,349.0
2022-02-11-16:52:36.946568,8.0,2.0,349.0
2022-02-11-16:52:36.947572,8.0,2.0,349.0
2022-02-11-16:52:36.948563,8.0,2.0,349.0
2022-02-11-16:52:36.949559,8.0,2.0,349.0
2022-02-11-16:52:36.950557,4.0,2.0,349.0
2022-02-11-16:52:36.951554,10.0,6.0,349.0
2022-02-11-16:52:36.952552,10.0,6.0,349.0
2022-02-11-16:52:36.953551,10.0,6.0,349.0
2022-02-11-16:52:36.954546,3.0,14.0,349.0
2022-02-11-16:52:36.955510,3.0,14.0,349.0
2022-02-11-16:52:36.956541,3.0,14.0,349.0
2022-02-11-16:52:36.957537,3.0,14.0,349.0
2022-02-11-16:52:36.958818,1.0,12.0,349.0
2022-02-11-16:52:36.958920,0.0,2.0,349.0
2022-02-11-16:52:36.958920,0.0,2.0,349.0
2022-02-11-16:52:36.959953,0.0,2.0,349.0
2022-02-11-16:52:36.960950,0.0,2.0,349.0
2022-02-11-16:52:36.961949,4.0,2.0,349.0
2022-02-11-16:52:36.962945,4.0,2.0,349.0
2022-02-11-16:52:36.963909,4.0,2.0,349.0
2022-02-11-16:52:36.964943,4.0,2.0,349.0
2022-02-11-16:52:36.965937,4.0,2.0,349.0
2022-02-11-16:52:36.966935,5.0,14.0,349.0
2022-02-11-16:52:36.967931,9.0,10.0,349.0
2022-02-11-16:52:36.968929,9.0,10.0,349.0
2022-02-11-16:52:36.969927,9.0,10.0,349.0
2022-02-11-16:52:36.970924,5.0,7.0,349.0
2022-02-11-16:52:36.972924,4.0,24.0,349.0
2022-02-11-16:52:36.973906,4.0,24.0,349.0
2022-02-11-16:52:36.973906,5.0,22.0,348.0
2022-02-11-16:52:36.974905,9.0,10.0,349.0
2022-02-11-16:52:36.975877,9.0,10.0,349.0
2022-02-11-16:52:36.976908,9.0,10.0,349.0
2022-02-11-16:52:36.977872,9.0,10.0,349.0
2022-02-11-16:52:36.978903,2.0,9.0,349.0
2022-02-11-16:52:36.980077,5.0,1.0,349.0
2022-02-11-16:52:36.980333,5.0,1.0,349.0
2022-02-11-16:52:36.980659,5.0,1.0,349.0
2022-02-11-16:52:36.980793,5.0,1.0,349.0
2022-02-11-16:52:36.980793,5.0,1.0,349.0
2022-02-11-16:52:36.981827,5.0,1.0,349.0
2022-02-11-16:52:36.982823,6.0,12.0,349.0
2022-02-11-16:52:36.983821,4.0,8.0,349.0
2022-02-11-16:52:36.984819,4.0,8.0,349.0
2022-02-11-16:52:36.985816,4.0,8.0,349.0
2022-02-11-16:52:36.986794,2.0,6.0,349.0
2022-02-11-16:52:36.987812,5.0,15.0,349.0
2022-02-11-16:52:36.988786,5.0,15.0,349.0
2022-02-11-16:52:36.989806,5.0,15.0,349.0
2022-02-11-16:52:36.990801,5.0,3.0,349.0
2022-02-11-16:52:36.991799,5.0,3.0,349.0
2022-02-11-16:52:36.992799,5.0,3.0,349.0
2022-02-11-16:52:36.993761,5.0,3.0,349.0
2022-02-11-16:52:36.995004,9.0,2.0,349.0
2022-02-11-16:52:36.995372,6.0,3.0,349.0
2022-02-11-16:52:36.995628,6.0,3.0,349.0
2022-02-11-16:52:36.995740,6.0,3.0,349.0
2022-02-11-16:52:36.995740,6.0,3.0,349.0
2022-02-11-16:52:36.996773,6.0,3.0,349.0
2022-02-11-16:52:36.997986,6.0,3.0,349.0
2022-02-11-16:52:36.997986,6.0,3.0,349.0
2022-02-11-16:52:36.999238,6.0,9.0,349.0
2022-02-11-16:52:36.999488,6.0,9.0,349.0
2022-02-11-16:52:36.999736,6.0,9.0,349.0
2022-02-11-16:52:36.999832,6.0,9.0,349.0
2022-02-11-16:52:36.999832,6.0,9.0,349.0
2022-02-11-16:52:37.000861,6.0,9.0,349.0
2022-02-11-16:52:37.001857,6.0,9.0,349.0
2022-02-11-16:52:37.002853,6.0,9.0,349.0
2022-02-11-16:52:37.005237,1.0,8.0,349.0
2022-02-11-16:52:37.005237,1.0,8.0,349.0
2022-02-11-16:52:37.006287,1.0,8.0,349.0
2022-02-11-16:52:37.007267,3.0,6.0,349.0
2022-02-11-16:52:37.008261,1.0,8.0,349.0
2022-02-11-16:52:37.009226,1.0,8.0,349.0
2022-02-11-16:52:37.010257,1.0,8.0,349.0
2022-02-11-16:52:37.011255,9.0,0.0,349.0
2022-02-11-16:52:37.012252,8.0,0.0,349.0
2022-02-11-16:52:37.013249,8.0,0.0,349.0
2022-02-11-16:52:37.014247,8.0,0.0,349.0
2022-02-11-16:52:37.015247,8.0,0.0,349.0
2022-02-11-16:52:37.016242,3.0,11.0,349.0
2022-02-11-16:52:37.017239,3.0,11.0,349.0
2022-02-11-16:52:37.018242,3.0,11.0,349.0
2022-02-11-16:52:37.019234,3.0,11.0,349.0
2022-02-11-16:52:37.020231,8.0,5.0,349.0
2022-02-11-16:52:37.021228,3.0,3.0,349.0
2022-02-11-16:52:37.022225,3.0,3.0,349.0
2022-02-11-16:52:37.023225,3.0,3.0,349.0
2022-02-11-16:52:37.024220,3.0,18.0,349.0
2022-02-11-16:52:37.025221,5.0,6.0,349.0
2022-02-11-16:52:37.026182,5.0,6.0,349.0
2022-02-11-16:52:37.027212,5.0,6.0,349.0
2022-02-11-16:52:37.028210,3.0,4.0,349.0
2022-02-11-16:52:37.029174,3.0,13.0,349.0
2022-02-11-16:52:37.030171,3.0,13.0,349.0
2022-02-11-16:52:37.031204,3.0,13.0,349.0
2022-02-11-16:52:37.032198,5.0,5.0,349.0
2022-02-11-16:52:37.033196,4.0,5.0,348.0
2022-02-11-16:52:37.034193,4.0,5.0,348.0
2022-02-11-16:52:37.035190,4.0,5.0,348.0
2022-02-11-16:52:37.036188,4.0,3.0,349.0
2022-02-11-16:52:37.037185,5.0,19.0,349.0
2022-02-11-16:52:37.039147,5.0,19.0,349.0
2022-02-11-16:52:37.039147,2.0,13.0,349.0
2022-02-11-16:52:37.040178,1.0,0.0,349.0
2022-02-11-16:52:37.041175,1.0,0.0,349.0
2022-02-11-16:52:37.042171,1.0,0.0,349.0
2022-02-11-16:52:37.043166,1.0,0.0,349.0
2022-02-11-16:52:37.044168,7.0,3.0,349.0
2022-02-11-16:52:37.045165,7.0,4.0,348.0
2022-02-11-16:52:37.046162,7.0,4.0,348.0
2022-02-11-16:52:37.047137,7.0,4.0,348.0
2022-02-11-16:52:37.048165,11.0,1.0,349.0
2022-02-11-16:52:37.049154,4.0,17.0,348.0
2022-02-11-16:52:37.050151,4.0,17.0,348.0
2022-02-11-16:52:37.051148,4.0,17.0,348.0
2022-02-11-16:52:37.052146,4.0,17.0,348.0
2022-02-11-16:52:37.053142,3.0,5.0,349.0
2022-02-11-16:52:37.054140,3.0,5.0,349.0
2022-02-11-16:52:37.055141,3.0,5.0,349.0
2022-02-11-16:52:37.056135,3.0,5.0,349.0
2022-02-11-16:52:37.057135,0.0,10.0,349.0
2022-02-11-16:52:37.058130,0.0,10.0,349.0
2022-02-11-16:52:37.059095,0.0,10.0,349.0
2022-02-11-16:52:37.060091,0.0,10.0,349.0
2022-02-11-16:52:37.061122,6.0,11.0,349.0
2022-02-11-16:52:37.062119,7.0,4.0,349.0
2022-02-11-16:52:37.063119,7.0,4.0,349.0
2022-02-11-16:52:37.064114,7.0,4.0,349.0
2022-02-11-16:52:37.065111,5.0,4.0,349.0
2022-02-11-16:52:37.066108,3.0,7.0,349.0
2022-02-11-16:52:37.067111,3.0,7.0,349.0
2022-02-11-16:52:37.068103,3.0,7.0,349.0
2022-02-11-16:52:37.069100,6.0,3.0,349.0
2022-02-11-16:52:37.070098,6.0,7.0,349.0
2022-02-11-16:52:37.071098,6.0,7.0,349.0
2022-02-11-16:52:37.073056,6.0,7.0,349.0
2022-02-11-16:52:37.073056,3.0,19.0,348.0
2022-02-11-16:52:37.074085,3.0,17.0,349.0
2022-02-11-16:52:37.075083,3.0,17.0,349.0
2022-02-11-16:52:37.076048,3.0,17.0,349.0
2022-02-11-16:52:37.077078,6.0,1.0,349.0
2022-02-11-16:52:37.078075,6.0,3.0,349.0
2022-02-11-16:52:37.079075,6.0,3.0,349.0
2022-02-11-16:52:37.080344,6.0,3.0,349.0
2022-02-11-16:52:37.080344,4.0,9.0,349.0
2022-02-11-16:52:37.081380,5.0,18.0,349.0
2022-02-11-16:52:37.082374,5.0,18.0,349.0
2022-02-11-16:52:37.083372,5.0,18.0,349.0
2022-02-11-16:52:37.084370,5.0,18.0,349.0
2022-02-11-16:52:37.085366,6.0,11.0,349.0
2022-02-11-16:52:37.086364,3.0,15.0,349.0
2022-02-11-16:52:37.087361,3.0,15.0,349.0
2022-02-11-16:52:37.088325,3.0,15.0,349.0
2022-02-11-16:52:37.089629,1.0,2.0,349.0
2022-02-11-16:52:37.089881,1.0,2.0,349.0
2022-02-11-16:52:37.089987,1.0,2.0,349.0
2022-02-11-16:52:37.089987,1.0,2.0,349.0
2022-02-11-16:52:37.091022,1.0,2.0,349.0
2022-02-11-16:52:37.092215,1.0,2.0,349.0
2022-02-11-16:52:37.092215,1.0,2.0,349.0
2022-02-11-16:52:37.093249,2.0,3.0,349.0
2022-02-11-16:52:37.094245,2.0,3.0,349.0
2022-02-11-16:52:37.095246,2.0,3.0,349.0
2022-02-11-16:52:37.096240,2.0,3.0,349.0
2022-02-11-16:52:37.097204,2.0,3.0,349.0
2022-02-11-16:52:37.098235,1.0,5.0,349.0
2022-02-11-16:52:37.099232,1.0,5.0,349.0
2022-02-11-16:52:37.100230,1.0,5.0,349.0
2022-02-11-16:52:37.101227,9.0,4.0,348.0
2022-02-11-16:52:37.102232,4.0,11.0,349.0
2022-02-11-16:52:37.103226,4.0,11.0,349.0
2022-02-11-16:52:37.104254,4.0,11.0,349.0
2022-02-11-16:52:37.104254,1.0,16.0,348.0
2022-02-11-16:52:37.106252,3.0,7.0,349.0
2022-02-11-16:52:37.106880,3.0,7.0,349.0
2022-02-11-16:52:37.107130,3.0,7.0,349.0
2022-02-11-16:52:37.107236,3.0,7.0,349.0
2022-02-11-16:52:37.107236,3.0,7.0,349.0
2022-02-11-16:52:37.108442,3.0,7.0,349.0
2022-02-11-16:52:37.108715,3.0,7.0,349.0
2022-02-11-16:52:37.108806,3.0,7.0,349.0
2022-02-11-16:52:37.108806,6.0,2.0,349.0
2022-02-11-16:52:37.109839,6.0,2.0,349.0
2022-02-11-16:52:37.111083,6.0,2.0,349.0
2022-02-11-16:52:37.111193,6.0,2.0,349.0
2022-02-11-16:52:37.111193,6.0,2.0,349.0
2022-02-11-16:52:37.112231,6.0,2.0,349.0
2022-02-11-16:52:37.113222,6.0,2.0,349.0
2022-02-11-16:52:37.114465,3.0,3.0,349.0
2022-02-11-16:52:37.114465,6.0,0.0,349.0
2022-02-11-16:52:37.115499,6.0,0.0,349.0
2022-02-11-16:52:37.116495,6.0,0.0,349.0
2022-02-11-16:52:37.117498,6.0,0.0,349.0
2022-02-11-16:52:37.118491,4.0,4.0,349.0
2022-02-11-16:52:37.119486,6.0,9.0,349.0
2022-02-11-16:52:37.120484,6.0,9.0,349.0
2022-02-11-16:52:37.121482,6.0,9.0,349.0
2022-02-11-16:52:37.122478,5.0,16.0,349.0
2022-02-11-16:52:37.123478,5.0,16.0,349.0
2022-02-11-16:52:37.124474,5.0,16.0,349.0
2022-02-11-16:52:37.125471,5.0,16.0,349.0
2022-02-11-16:52:37.126470,5.0,2.0,349.0
2022-02-11-16:52:37.127465,7.0,1.0,349.0
2022-02-11-16:52:37.128462,7.0,1.0,349.0
2022-02-11-16:52:37.129466,7.0,1.0,349.0
2022-02-11-16:52:37.130458,8.0,5.0,349.0
2022-02-11-16:52:37.131458,5.0,5.0,349.0
2022-02-11-16:52:37.132454,5.0,5.0,349.0
2022-02-11-16:52:37.133451,5.0,5.0,349.0
2022-02-11-16:52:37.134448,9.0,3.0,349.0
2022-02-11-16:52:37.135447,7.0,6.0,349.0
2022-02-11-16:52:37.136443,7.0,6.0,349.0
2022-02-11-16:52:37.137406,7.0,6.0,349.0
2022-02-11-16:52:37.138956,6.0,12.0,349.0
2022-02-11-16:52:37.140051,1.0,17.0,349.0
2022-02-11-16:52:37.140051,1.0,17.0,349.0
2022-02-11-16:52:37.141081,1.0,17.0,349.0
2022-02-11-16:52:37.142081,1.0,17.0,349.0
2022-02-11-16:52:37.143075,10.0,4.0,349.0
2022-02-11-16:52:37.144074,9.0,1.0,349.0
2022-02-11-16:52:37.145071,9.0,1.0,349.0
2022-02-11-16:52:37.146071,9.0,1.0,349.0
2022-02-11-16:52:37.147073,3.0,2.0,349.0
2022-02-11-16:52:37.148068,3.0,0.0,349.0
2022-02-11-16:52:37.149060,3.0,0.0,349.0
2022-02-11-16:52:37.150060,3.0,0.0,349.0
2022-02-11-16:52:37.151055,4.0,3.0,349.0
2022-02-11-16:52:37.152052,4.0,4.0,349.0
2022-02-11-16:52:37.153050,4.0,4.0,349.0
2022-02-11-16:52:37.154047,4.0,4.0,349.0
2022-02-11-16:52:37.155044,5.0,10.0,349.0
2022-02-11-16:52:37.156042,1.0,18.0,349.0
2022-02-11-16:52:37.157039,1.0,18.0,349.0
2022-02-11-16:52:37.158038,1.0,18.0,349.0
2022-02-11-16:52:37.159038,9.0,1.0,348.0
2022-02-11-16:52:37.160031,6.0,3.0,349.0
2022-02-11-16:52:37.161031,6.0,3.0,349.0
2022-02-11-16:52:37.162025,6.0,3.0,349.0
2022-02-11-16:52:37.163023,8.0,2.0,349.0
2022-02-11-16:52:37.164020,3.0,1.0,349.0
2022-02-11-16:52:37.165017,3.0,1.0,349.0
2022-02-11-16:52:37.166026,3.0,1.0,349.0
2022-02-11-16:52:37.167012,4.0,15.0,349.0
2022-02-11-16:52:37.168009,7.0,1.0,349.0
2022-02-11-16:52:37.169007,7.0,1.0,349.0
2022-02-11-16:52:37.170004,7.0,1.0,349.0
2022-02-11-16:52:37.171001,6.0,28.0,349.0
2022-02-11-16:52:37.172004,6.0,31.0,349.0
2022-02-11-16:52:37.172996,6.0,31.0,349.0
2022-02-11-16:52:37.174957,6.0,31.0,349.0
2022-02-11-16:52:37.174957,4.0,12.0,349.0
2022-02-11-16:52:37.175955,4.0,12.0,349.0
2022-02-11-16:52:37.176991,4.0,12.0,349.0
2022-02-11-16:52:37.177982,4.0,12.0,349.0
2022-02-11-16:52:37.178980,4.0,12.0,349.0
2022-02-11-16:52:37.179983,9.0,10.0,348.0
2022-02-11-16:52:37.180975,3.0,3.0,349.0
2022-02-11-16:52:37.181974,3.0,3.0,349.0
2022-02-11-16:52:37.182970,3.0,3.0,349.0
2022-02-11-16:52:37.184249,6.0,8.0,349.0
2022-02-11-16:52:37.184496,6.0,7.0,349.0
2022-02-11-16:52:37.184752,6.0,7.0,349.0
2022-02-11-16:52:37.185011,6.0,7.0,349.0
2022-02-11-16:52:37.185263,6.0,7.0,349.0
2022-02-11-16:52:37.185509,6.0,7.0,349.0
2022-02-11-16:52:37.185767,6.0,7.0,349.0
2022-02-11-16:52:37.185875,6.0,7.0,349.0
2022-02-11-16:52:37.185875,6.0,7.0,349.0
2022-02-11-16:52:37.186901,6.0,7.0,349.0
2022-02-11-16:52:37.187899,2.0,11.0,349.0
2022-02-11-16:52:37.188895,2.0,24.0,349.0
2022-02-11-16:52:37.190165,2.0,24.0,349.0
2022-02-11-16:52:37.190639,2.0,24.0,349.0
2022-02-11-16:52:37.190740,2.0,24.0,349.0
2022-02-11-16:52:37.190740,8.0,2.0,349.0
2022-02-11-16:52:37.191776,8.0,2.0,349.0
2022-02-11-16:52:37.192761,8.0,2.0,349.0
2022-02-11-16:52:37.193769,8.0,2.0,349.0
2022-02-11-16:52:37.194731,8.0,2.0,349.0
2022-02-11-16:52:37.195763,7.0,3.0,349.0
2022-02-11-16:52:37.196760,10.0,1.0,349.0
2022-02-11-16:52:37.197760,10.0,1.0,349.0
2022-02-11-16:52:37.198756,10.0,1.0,349.0
2022-02-11-16:52:37.200052,5.0,4.0,349.0
2022-02-11-16:52:37.200306,7.0,6.0,349.0
2022-02-11-16:52:37.200556,7.0,6.0,349.0
2022-02-11-16:52:37.200670,7.0,6.0,349.0
2022-02-11-16:52:37.200670,7.0,6.0,349.0
2022-02-11-16:52:37.201703,7.0,6.0,349.0
2022-02-11-16:52:37.202700,7.0,6.0,349.0
2022-02-11-16:52:37.203706,7.0,6.0,349.0
2022-02-11-16:52:37.205084,6.0,7.0,349.0
2022-02-11-16:52:37.206117,7.0,17.0,349.0
2022-02-11-16:52:37.206117,7.0,17.0,349.0
2022-02-11-16:52:37.207081,7.0,17.0,349.0
2022-02-11-16:52:37.208370,5.0,4.0,349.0
2022-02-11-16:52:37.208620,5.0,4.0,349.0
2022-02-11-16:52:37.208875,5.0,4.0,349.0
2022-02-11-16:52:37.209116,5.0,4.0,349.0
2022-02-11-16:52:37.209245,5.0,4.0,349.0
2022-02-11-16:52:37.209245,5.0,4.0,349.0
2022-02-11-16:52:37.210278,5.0,4.0,349.0
2022-02-11-16:52:37.211242,5.0,4.0,349.0
2022-02-11-16:52:37.212273,10.0,3.0,349.0
2022-02-11-16:52:37.213270,7.0,5.0,348.0
2022-02-11-16:52:37.214269,7.0,5.0,348.0
2022-02-11-16:52:37.215232,7.0,5.0,348.0
2022-02-11-16:52:37.216265,5.0,8.0,349.0
2022-02-11-16:52:37.217260,6.0,9.0,349.0
2022-02-11-16:52:37.218257,6.0,9.0,349.0
2022-02-11-16:52:37.219221,6.0,9.0,349.0
2022-02-11-16:52:37.220252,3.0,3.0,349.0
2022-02-11-16:52:37.221249,3.0,18.0,349.0
2022-02-11-16:52:37.222213,3.0,18.0,349.0
2022-02-11-16:52:37.223210,3.0,18.0,349.0
2022-02-11-16:52:37.224241,3.0,18.0,349.0
2022-02-11-16:52:37.225239,2.0,4.0,349.0
2022-02-11-16:52:37.226202,2.0,4.0,349.0
2022-02-11-16:52:37.227394,2.0,4.0,349.0
2022-02-11-16:52:37.227493,2.0,4.0,349.0
2022-02-11-16:52:37.228042,1.0,11.0,349.0
2022-02-11-16:52:37.228292,1.0,11.0,349.0
2022-02-11-16:52:37.228545,1.0,11.0,349.0
2022-02-11-16:52:37.228793,1.0,11.0,349.0
2022-02-11-16:52:37.229048,1.0,11.0,349.0
2022-02-11-16:52:37.229158,1.0,11.0,349.0
2022-02-11-16:52:37.229158,1.0,11.0,349.0
2022-02-11-16:52:37.230185,1.0,11.0,349.0
2022-02-11-16:52:37.231374,1.0,11.0,349.0
2022-02-11-16:52:37.231579,1.0,11.0,349.0
2022-02-11-16:52:37.231579,3.0,2.0,348.0
2022-02-11-16:52:37.232612,10.0,6.0,349.0
2022-02-11-16:52:37.233610,10.0,6.0,349.0
2022-02-11-16:52:37.234608,10.0,6.0,349.0
2022-02-11-16:52:37.235655,10.0,6.0,349.0
2022-02-11-16:52:37.235655,1.0,10.0,349.0
2022-02-11-16:52:37.236689,7.0,10.0,349.0
2022-02-11-16:52:37.237686,7.0,10.0,349.0
2022-02-11-16:52:37.238684,7.0,10.0,349.0
2022-02-11-16:52:37.240678,7.0,10.0,349.0
2022-02-11-16:52:37.240678,2.0,12.0,349.0
2022-02-11-16:52:37.241679,8.0,24.0,349.0
2022-02-11-16:52:37.242639,8.0,24.0,349.0
2022-02-11-16:52:37.243670,8.0,24.0,349.0
2022-02-11-16:52:37.244667,8.0,24.0,349.0
2022-02-11-16:52:37.245671,8.0,6.0,349.0
2022-02-11-16:52:37.246666,8.0,6.0,349.0
2022-02-11-16:52:37.247660,8.0,6.0,349.0
2022-02-11-16:52:37.248657,8.0,6.0,349.0
2022-02-11-16:52:37.249658,4.0,15.0,349.0
2022-02-11-16:52:37.250652,4.0,15.0,349.0
2022-02-11-16:52:37.251853,4.0,15.0,349.0
2022-02-11-16:52:37.252128,4.0,15.0,349.0
2022-02-11-16:52:37.252219,4.0,15.0,349.0
2022-02-11-16:52:37.252219,6.0,15.0,349.0
2022-02-11-16:52:37.253252,6.0,15.0,349.0
2022-02-11-16:52:37.254251,6.0,15.0,349.0
2022-02-11-16:52:37.255253,6.0,15.0,349.0
2022-02-11-16:52:37.256210,6.0,15.0,349.0
2022-02-11-16:52:37.257241,2.0,1.0,349.0
2022-02-11-16:52:37.258239,2.0,1.0,349.0
2022-02-11-16:52:37.259237,2.0,1.0,349.0
2022-02-11-16:52:37.260199,2.0,1.0,349.0
2022-02-11-16:52:37.261536,7.0,2.0,349.0
2022-02-11-16:52:37.261790,5.0,1.0,349.0
2022-02-11-16:52:37.262040,5.0,1.0,349.0
2022-02-11-16:52:37.262145,5.0,1.0,349.0
2022-02-11-16:52:37.262145,5.0,1.0,349.0
2022-02-11-16:52:37.263183,5.0,1.0,349.0
2022-02-11-16:52:37.264442,5.0,1.0,349.0
2022-02-11-16:52:37.264846,7.0,1.0,349.0
2022-02-11-16:52:37.265102,3.0,10.0,349.0
2022-02-11-16:52:37.265358,3.0,10.0,349.0
2022-02-11-16:52:37.265619,3.0,10.0,349.0
2022-02-11-16:52:37.265716,3.0,10.0,349.0
2022-02-11-16:52:37.265716,3.0,10.0,349.0
2022-02-11-16:52:37.266742,3.0,10.0,349.0
2022-02-11-16:52:37.267740,3.0,10.0,349.0
2022-02-11-16:52:37.268924,3.0,10.0,349.0
2022-02-11-16:52:37.268924,7.0,3.0,348.0
2022-02-11-16:52:37.269957,2.0,14.0,349.0
2022-02-11-16:52:37.270955,2.0,14.0,349.0
2022-02-11-16:52:37.271952,2.0,14.0,349.0
2022-02-11-16:52:37.273968,2.0,14.0,349.0
2022-02-11-16:52:37.273968,2.0,16.0,349.0
2022-02-11-16:52:37.274947,5.0,3.0,349.0
2022-02-11-16:52:37.275941,5.0,3.0,349.0
2022-02-11-16:52:37.276938,5.0,3.0,349.0
2022-02-11-16:52:37.278253,7.0,4.0,349.0
2022-02-11-16:52:37.278504,6.0,7.0,349.0
2022-02-11-16:52:37.278760,6.0,7.0,349.0
2022-02-11-16:52:37.279012,6.0,7.0,349.0
2022-02-11-16:52:37.279267,6.0,7.0,349.0
2022-02-11-16:52:37.279523,6.0,7.0,349.0
2022-02-11-16:52:37.279771,6.0,7.0,349.0
2022-02-11-16:52:37.280006,6.0,7.0,349.0
2022-02-11-16:52:37.280214,6.0,7.0,349.0
2022-02-11-16:52:37.280300,6.0,7.0,349.0
2022-02-11-16:52:37.280300,6.0,7.0,349.0
2022-02-11-16:52:37.281300,6.0,7.0,349.0
2022-02-11-16:52:37.282323,5.0,2.0,349.0
2022-02-11-16:52:37.283331,2.0,0.0,349.0
2022-02-11-16:52:37.284508,2.0,0.0,349.0
2022-02-11-16:52:37.284763,2.0,0.0,349.0
2022-02-11-16:52:37.284763,9.0,2.0,349.0
2022-02-11-16:52:37.285797,7.0,11.0,349.0
2022-02-11-16:52:37.286794,7.0,11.0,349.0
2022-02-11-16:52:37.287792,7.0,11.0,349.0
2022-02-11-16:52:37.288788,7.0,11.0,349.0
2022-02-11-16:52:37.289786,1.0,4.0,349.0
2022-02-11-16:52:37.290783,1.0,4.0,349.0
2022-02-11-16:52:37.291780,1.0,4.0,349.0
2022-02-11-16:52:37.292780,1.0,4.0,349.0
2022-02-11-16:52:37.293775,1.0,4.0,349.0
2022-02-11-16:52:37.294772,4.0,2.0,348.0
2022-02-11-16:52:37.295771,4.0,2.0,348.0
2022-02-11-16:52:37.296767,4.0,2.0,348.0
2022-02-11-16:52:37.297765,4.0,2.0,348.0
2022-02-11-16:52:37.298801,3.0,1.0,349.0
2022-02-11-16:52:37.299260,7.0,6.0,349.0
2022-02-11-16:52:37.299520,7.0,6.0,349.0
2022-02-11-16:52:37.299779,7.0,6.0,349.0
2022-02-11-16:52:37.299779,7.0,6.0,349.0
2022-02-11-16:52:37.301022,7.0,6.0,349.0
2022-02-11-16:52:37.301294,7.0,6.0,349.0
2022-02-11-16:52:37.301719,12.0,33.0,349.0
2022-02-11-16:52:37.301976,4.0,8.0,349.0
2022-02-11-16:52:37.302230,4.0,8.0,349.0
2022-02-11-16:52:37.302230,4.0,8.0,349.0
2022-02-11-16:52:37.303229,4.0,8.0,349.0
2022-02-11-16:52:37.304227,4.0,8.0,349.0
2022-02-11-16:52:37.305224,4.0,8.0,349.0
2022-02-11-16:52:37.306257,4.0,5.0,349.0
2022-02-11-16:52:37.307256,4.0,5.0,349.0
2022-02-11-16:52:37.308253,3.0,9.0,349.0
2022-02-11-16:52:37.308253,3.0,9.0,349.0
2022-02-11-16:52:37.309253,3.0,9.0,349.0
2022-02-11-16:52:37.310282,7.0,1.0,349.0
2022-02-11-16:52:37.311280,4.0,3.0,349.0
2022-02-11-16:52:37.312278,4.0,3.0,349.0
2022-02-11-16:52:37.313275,4.0,3.0,349.0
2022-02-11-16:52:37.314272,4.0,3.0,349.0
2022-02-11-16:52:37.315269,5.0,1.0,349.0
2022-02-11-16:52:37.316266,3.0,15.0,349.0
2022-02-11-16:52:37.317270,3.0,15.0,349.0
2022-02-11-16:52:37.318261,3.0,15.0,349.0
2022-02-11-16:52:37.319261,6.0,2.0,349.0
2022-02-11-16:52:37.320257,4.0,6.0,349.0
2022-02-11-16:52:37.321258,4.0,6.0,349.0
2022-02-11-16:52:37.322251,4.0,6.0,349.0
2022-02-11-16:52:37.323257,2.0,35.0,349.0
2022-02-11-16:52:37.324778,3.0,6.0,349.0
2022-02-11-16:52:37.325034,3.0,6.0,349.0
2022-02-11-16:52:37.325290,3.0,6.0,349.0
2022-02-11-16:52:37.325543,3.0,6.0,349.0
2022-02-11-16:52:37.325646,3.0,6.0,349.0
2022-02-11-16:52:37.325646,3.0,6.0,349.0
2022-02-11-16:52:37.326647,9.0,2.0,349.0
2022-02-11-16:52:37.327909,9.0,2.0,349.0
2022-02-11-16:52:37.328169,9.0,2.0,349.0
2022-02-11-16:52:37.328422,9.0,2.0,349.0
2022-02-11-16:52:37.328422,9.0,2.0,349.0
2022-02-11-16:52:37.329699,9.0,2.0,349.0
2022-02-11-16:52:37.329979,9.0,2.0,349.0
2022-02-11-16:52:37.330375,3.0,0.0,349.0
2022-02-11-16:52:37.330604,5.0,8.0,349.0
2022-02-11-16:52:37.330702,5.0,8.0,349.0
2022-02-11-16:52:37.330702,5.0,8.0,349.0
2022-02-11-16:52:37.331729,5.0,8.0,349.0
2022-02-11-16:52:37.331729,5.0,8.0,349.0
2022-02-11-16:52:37.332761,5.0,8.0,349.0
2022-02-11-16:52:37.333758,5.0,8.0,349.0
2022-02-11-16:52:37.334755,8.0,11.0,349.0
2022-02-11-16:52:37.335754,4.0,14.0,349.0
2022-02-11-16:52:37.336749,4.0,14.0,349.0
2022-02-11-16:52:37.337749,4.0,14.0,349.0
2022-02-11-16:52:37.338745,4.0,14.0,349.0
2022-02-11-16:52:37.339741,5.0,31.0,349.0
2022-02-11-16:52:37.340747,5.0,31.0,349.0
2022-02-11-16:52:37.341736,3.0,3.0,349.0
2022-02-11-16:52:37.343733,3.0,3.0,349.0
2022-02-11-16:52:37.344695,10.0,5.0,349.0
2022-02-11-16:52:37.344695,10.0,5.0,349.0
2022-02-11-16:52:37.345705,10.0,5.0,349.0
2022-02-11-16:52:37.346748,10.0,5.0,349.0
2022-02-11-16:52:37.347721,5.0,2.0,349.0
2022-02-11-16:52:37.348721,5.0,2.0,349.0
2022-02-11-16:52:37.349715,5.0,2.0,349.0
2022-02-11-16:52:37.350713,5.0,2.0,349.0
2022-02-11-16:52:37.351711,9.0,5.0,349.0
2022-02-11-16:52:37.352710,9.0,6.0,349.0
2022-02-11-16:52:37.353708,9.0,6.0,349.0
2022-02-11-16:52:37.354703,9.0,6.0,349.0
2022-02-11-16:52:37.355700,3.0,18.0,349.0
2022-02-11-16:52:37.356697,3.0,12.0,349.0
2022-02-11-16:52:37.357694,3.0,12.0,349.0
2022-02-11-16:52:37.358658,3.0,12.0,349.0
2022-02-11-16:52:37.359690,10.0,4.0,349.0
2022-02-11-16:52:37.360652,5.0,14.0,349.0
2022-02-11-16:52:37.361686,5.0,14.0,349.0
2022-02-11-16:52:37.362647,5.0,14.0,349.0
2022-02-11-16:52:37.363670,3.0,10.0,349.0
2022-02-11-16:52:37.364642,4.0,1.0,349.0
2022-02-11-16:52:37.365673,4.0,1.0,349.0
2022-02-11-16:52:37.366650,4.0,1.0,349.0
2022-02-11-16:52:37.367669,9.0,7.0,349.0
2022-02-11-16:52:37.368669,5.0,5.0,349.0
2022-02-11-16:52:37.369665,5.0,5.0,349.0
2022-02-11-16:52:37.370627,5.0,5.0,349.0
2022-02-11-16:52:37.371655,5.0,5.0,349.0
2022-02-11-16:52:37.372656,1.0,21.0,349.0
2022-02-11-16:52:37.373650,1.0,21.0,349.0
2022-02-11-16:52:37.374647,1.0,21.0,349.0
2022-02-11-16:52:37.375646,1.0,21.0,349.0
2022-02-11-16:52:37.377661,5.0,1.0,349.0
2022-02-11-16:52:37.377661,6.0,5.0,349.0
2022-02-11-16:52:37.378604,6.0,5.0,349.0
2022-02-11-16:52:37.379656,6.0,5.0,349.0
2022-02-11-16:52:37.380636,5.0,0.0,349.0
2022-02-11-16:52:37.381659,5.0,0.0,349.0
2022-02-11-16:52:37.382648,5.0,0.0,349.0
2022-02-11-16:52:37.383647,5.0,0.0,349.0
2022-02-11-16:52:37.384646,6.0,15.0,349.0
2022-02-11-16:52:37.385641,2.0,9.0,349.0
2022-02-11-16:52:37.386638,2.0,9.0,349.0
2022-02-11-16:52:37.387635,2.0,9.0,349.0
2022-02-11-16:52:37.388632,6.0,17.0,349.0
2022-02-11-16:52:37.389632,2.0,16.0,349.0
2022-02-11-16:52:37.390627,2.0,16.0,349.0
2022-02-11-16:52:37.391625,2.0,16.0,349.0
2022-02-11-16:52:37.392569,3.0,5.0,349.0
2022-02-11-16:52:37.393605,3.0,5.0,349.0
2022-02-11-16:52:37.394588,8.0,2.0,349.0
2022-02-11-16:52:37.395559,8.0,2.0,349.0
2022-02-11-16:52:37.396583,5.0,6.0,349.0
2022-02-11-16:52:37.397725,7.0,2.0,349.0
2022-02-11-16:52:37.397725,7.0,2.0,349.0
2022-02-11-16:52:37.398551,7.0,2.0,349.0
2022-02-11-16:52:37.399548,7.0,2.0,349.0
2022-02-11-16:52:37.400573,6.0,5.0,349.0
2022-02-11-16:52:37.401568,11.0,9.0,349.0
2022-02-11-16:52:37.402565,11.0,9.0,349.0
2022-02-11-16:52:37.403538,11.0,9.0,349.0
2022-02-11-16:52:37.404565,7.0,18.0,349.0
2022-02-11-16:52:37.405557,1.0,16.0,349.0
2022-02-11-16:52:37.406554,1.0,16.0,349.0
2022-02-11-16:52:37.407552,1.0,16.0,349.0
2022-02-11-16:52:37.409521,2.0,2.0,349.0
2022-02-11-16:52:37.409521,4.0,6.0,349.0
2022-02-11-16:52:37.410547,4.0,6.0,349.0
2022-02-11-16:52:37.411747,4.0,6.0,349.0
2022-02-11-16:52:37.411849,4.0,6.0,349.0
2022-02-11-16:52:37.411849,3.0,3.0,349.0
2022-02-11-16:52:37.412883,3.0,3.0,349.0
2022-02-11-16:52:37.413852,3.0,3.0,349.0
2022-02-11-16:52:37.414876,3.0,3.0,349.0
2022-02-11-16:52:37.415854,3.0,3.0,349.0
2022-02-11-16:52:37.417175,3.0,5.0,349.0
2022-02-11-16:52:37.417432,10.0,3.0,349.0
2022-02-11-16:52:37.417687,10.0,3.0,349.0
2022-02-11-16:52:37.417942,10.0,3.0,349.0
2022-02-11-16:52:37.418206,10.0,3.0,349.0
2022-02-11-16:52:37.418458,10.0,3.0,349.0
2022-02-11-16:52:37.418711,10.0,3.0,349.0
2022-02-11-16:52:37.418816,10.0,3.0,349.0
2022-02-11-16:52:37.418816,10.0,3.0,349.0
2022-02-11-16:52:37.419842,10.0,3.0,349.0
2022-02-11-16:52:37.420837,1.0,9.0,349.0
2022-02-11-16:52:37.421834,1.0,7.0,349.0
2022-02-11-16:52:37.422833,1.0,7.0,349.0
2022-02-11-16:52:37.423829,1.0,7.0,349.0
2022-02-11-16:52:37.424829,8.0,11.0,349.0
2022-02-11-16:52:37.425824,8.0,11.0,349.0
2022-02-11-16:52:37.427015,8.0,11.0,349.0
2022-02-11-16:52:37.427257,8.0,11.0,349.0
2022-02-11-16:52:37.427471,8.0,11.0,349.0
2022-02-11-16:52:37.427760,8.0,11.0,349.0
2022-02-11-16:52:37.427992,8.0,11.0,349.0
2022-02-11-16:52:37.428089,8.0,11.0,349.0
2022-02-11-16:52:37.428089,8.0,7.0,349.0
2022-02-11-16:52:37.429122,8.0,3.0,348.0
2022-02-11-16:52:37.430120,8.0,3.0,348.0
2022-02-11-16:52:37.431119,8.0,3.0,348.0
2022-02-11-16:52:37.432117,8.0,3.0,348.0
2022-02-11-16:52:37.433112,8.0,3.0,348.0
2022-02-11-16:52:37.434076,8.0,3.0,349.0
2022-02-11-16:52:37.435074,8.0,3.0,349.0
2022-02-11-16:52:37.436070,8.0,3.0,349.0
2022-02-11-16:52:37.437317,8.0,3.0,349.0
2022-02-11-16:52:37.437718,4.0,10.0,349.0
2022-02-11-16:52:37.437980,3.0,11.0,349.0
2022-02-11-16:52:37.438093,3.0,11.0,349.0
2022-02-11-16:52:37.438093,3.0,11.0,349.0
2022-02-11-16:52:37.439078,3.0,11.0,349.0
2022-02-11-16:52:37.440077,3.0,11.0,349.0
2022-02-11-16:52:37.441108,3.0,11.0,349.0
2022-02-11-16:52:37.443105,7.0,5.0,349.0
2022-02-11-16:52:37.443105,7.0,5.0,349.0
2022-02-11-16:52:37.444139,7.0,5.0,349.0
2022-02-11-16:52:37.445132,7.0,5.0,349.0
2022-02-11-16:52:37.446131,3.0,2.0,349.0
2022-02-11-16:52:37.447112,6.0,0.0,349.0
2022-02-11-16:52:37.448118,6.0,0.0,349.0
2022-02-11-16:52:37.449122,6.0,0.0,349.0
2022-02-11-16:52:37.450118,4.0,2.0,349.0
2022-02-11-16:52:37.451118,6.0,8.0,349.0
2022-02-11-16:52:37.452113,6.0,8.0,349.0
2022-02-11-16:52:37.453110,6.0,8.0,349.0
2022-02-11-16:52:37.454114,5.0,15.0,348.0
2022-02-11-16:52:37.455105,6.0,18.0,349.0
2022-02-11-16:52:37.456103,6.0,18.0,349.0
2022-02-11-16:52:37.457101,6.0,18.0,349.0
2022-02-11-16:52:37.458097,3.0,18.0,349.0
2022-02-11-16:52:37.459246,9.0,4.0,348.0
2022-02-11-16:52:37.459246,9.0,4.0,348.0
2022-02-11-16:52:37.460484,9.0,4.0,348.0
2022-02-11-16:52:37.460745,9.0,4.0,348.0
2022-02-11-16:52:37.460873,9.0,4.0,348.0
2022-02-11-16:52:37.460873,9.0,4.0,348.0
2022-02-11-16:52:37.461906,8.0,2.0,349.0
2022-02-11-16:52:37.462904,8.0,2.0,349.0
2022-02-11-16:52:37.463868,8.0,2.0,349.0
2022-02-11-16:52:37.464900,8.0,2.0,349.0
2022-02-11-16:52:37.465894,8.0,2.0,349.0
2022-02-11-16:52:37.466897,7.0,9.0,348.0
2022-02-11-16:52:37.467891,7.0,9.0,348.0
2022-02-11-16:52:37.468886,7.0,9.0,348.0
2022-02-11-16:52:37.469884,7.0,9.0,348.0
2022-02-11-16:52:37.470883,3.0,5.0,349.0
2022-02-11-16:52:37.471879,3.0,5.0,349.0
2022-02-11-16:52:37.472878,3.0,5.0,349.0
2022-02-11-16:52:37.473873,3.0,5.0,349.0
2022-02-11-16:52:37.474872,0.0,21.0,349.0
2022-02-11-16:52:37.476833,5.0,3.0,348.0
2022-02-11-16:52:37.476833,5.0,3.0,348.0
2022-02-11-16:52:37.478103,6.0,1.0,349.0
2022-02-11-16:52:37.478360,6.0,1.0,349.0
2022-02-11-16:52:37.478616,6.0,1.0,349.0
2022-02-11-16:52:37.478870,6.0,1.0,349.0
2022-02-11-16:52:37.479129,6.0,1.0,349.0
2022-02-11-16:52:37.479385,6.0,1.0,349.0
2022-02-11-16:52:37.479640,6.0,1.0,349.0
2022-02-11-16:52:37.479871,6.0,1.0,349.0
2022-02-11-16:52:37.480085,6.0,1.0,349.0
2022-02-11-16:52:37.480296,6.0,1.0,349.0
2022-02-11-16:52:37.480296,6.0,1.0,349.0
2022-02-11-16:52:37.481296,6.0,1.0,349.0
2022-02-11-16:52:37.482293,6.0,1.0,349.0
2022-02-11-16:52:37.483290,3.0,1.0,349.0
2022-02-11-16:52:37.484288,8.0,9.0,348.0
2022-02-11-16:52:37.485318,8.0,9.0,348.0
2022-02-11-16:52:37.486282,3.0,12.0,349.0
2022-02-11-16:52:37.487314,2.0,9.0,348.0
2022-02-11-16:52:37.487314,2.0,9.0,348.0
2022-02-11-16:52:37.488347,2.0,9.0,348.0
2022-02-11-16:52:37.489346,2.0,9.0,348.0
2022-02-11-16:52:37.490345,2.0,9.0,348.0
2022-02-11-16:52:37.491339,3.0,4.0,349.0
2022-02-11-16:52:37.492338,3.0,4.0,349.0
2022-02-11-16:52:37.493846,3.0,4.0,349.0
2022-02-11-16:52:37.493956,3.0,4.0,349.0
2022-02-11-16:52:37.493956,7.0,3.0,349.0
2022-02-11-16:52:37.494990,7.0,3.0,349.0
2022-02-11-16:52:37.495987,7.0,3.0,349.0
2022-02-11-16:52:37.496984,7.0,3.0,349.0
2022-02-11-16:52:37.497947,7.0,3.0,349.0
2022-02-11-16:52:37.498977,8.0,2.0,349.0
2022-02-11-16:52:37.499976,2.0,9.0,349.0
2022-02-11-16:52:37.500980,2.0,9.0,349.0
2022-02-11-16:52:37.501937,2.0,9.0,349.0
2022-02-11-16:52:37.502973,5.0,12.0,349.0
2022-02-11-16:52:37.503964,4.0,16.0,349.0
2022-02-11-16:52:37.504963,4.0,16.0,349.0
2022-02-11-16:52:37.505956,4.0,16.0,349.0
2022-02-11-16:52:37.506957,0.0,13.0,349.0
2022-02-11-16:52:37.507960,1.0,3.0,349.0
2022-02-11-16:52:37.508950,1.0,3.0,349.0
2022-02-11-16:52:37.510947,1.0,3.0,349.0
2022-02-11-16:52:37.510947,4.0,1.0,349.0
2022-02-11-16:52:37.512187,6.0,1.0,349.0
2022-02-11-16:52:37.512187,6.0,1.0,349.0
2022-02-11-16:52:37.513187,6.0,1.0,349.0
2022-02-11-16:52:37.514184,6.0,1.0,349.0
2022-02-11-16:52:37.515609,6.0,9.0,349.0
2022-02-11-16:52:37.515889,0.0,0.0,349.0
2022-02-11-16:52:37.516164,0.0,0.0,349.0
2022-02-11-16:52:37.516442,0.0,0.0,349.0
2022-02-11-16:52:37.516724,0.0,0.0,349.0
2022-02-11-16:52:37.517009,0.0,0.0,349.0
2022-02-11-16:52:37.517116,0.0,0.0,349.0
2022-02-11-16:52:37.517116,0.0,0.0,349.0
2022-02-11-16:52:37.518142,0.0,0.0,349.0
2022-02-11-16:52:37.519429,5.0,9.0,349.0
2022-02-11-16:52:37.519429,3.0,5.0,349.0
2022-02-11-16:52:37.520462,3.0,5.0,349.0
2022-02-11-16:52:37.521459,3.0,5.0,349.0
2022-02-11-16:52:37.522423,3.0,5.0,349.0
2022-02-11-16:52:37.523453,1.0,18.0,349.0
2022-02-11-16:52:37.524450,2.0,5.0,349.0
2022-02-11-16:52:37.525454,2.0,5.0,349.0
2022-02-11-16:52:37.526412,2.0,5.0,349.0
2022-02-11-16:52:37.527446,3.0,3.0,348.0
2022-02-11-16:52:37.528721,11.0,3.0,349.0
2022-02-11-16:52:37.528995,11.0,3.0,349.0
2022-02-11-16:52:37.529276,11.0,3.0,349.0
2022-02-11-16:52:37.529276,11.0,3.0,349.0
2022-02-11-16:52:37.530275,11.0,3.0,349.0
2022-02-11-16:52:37.531273,11.0,3.0,349.0
2022-02-11-16:52:37.532270,4.0,8.0,349.0
2022-02-11-16:52:37.533312,5.0,19.0,349.0
2022-02-11-16:52:37.533312,5.0,19.0,349.0
2022-02-11-16:52:37.534343,5.0,19.0,349.0
2022-02-11-16:52:37.535343,5.0,19.0,349.0
2022-02-11-16:52:37.536339,9.0,11.0,349.0
2022-02-11-16:52:37.537336,4.0,11.0,349.0
2022-02-11-16:52:37.538333,4.0,11.0,349.0
2022-02-11-16:52:37.539330,4.0,11.0,349.0
2022-02-11-16:52:37.540328,2.0,13.0,349.0
2022-02-11-16:52:37.541326,0.0,0.0,349.0
2022-02-11-16:52:37.542323,0.0,0.0,349.0
2022-02-11-16:52:37.544318,0.0,0.0,349.0
2022-02-11-16:52:37.544318,4.0,5.0,349.0
2022-02-11-16:52:37.545282,6.0,0.0,349.0
2022-02-11-16:52:37.546279,6.0,0.0,349.0
2022-02-11-16:52:37.547276,6.0,0.0,349.0
2022-02-11-16:52:37.548274,9.0,0.0,349.0
2022-02-11-16:52:37.549271,5.0,3.0,349.0
2022-02-11-16:52:37.550268,3.0,1.0,349.0
2022-02-11-16:52:37.551266,3.0,1.0,349.0
2022-02-11-16:52:37.552263,6.0,2.0,349.0
2022-02-11-16:52:37.553260,3.0,6.0,349.0
2022-02-11-16:52:37.554473,3.0,6.0,349.0
2022-02-11-16:52:37.554760,3.0,6.0,349.0
2022-02-11-16:52:37.555038,3.0,6.0,349.0
2022-02-11-16:52:37.555149,3.0,6.0,349.0
2022-02-11-16:52:37.555149,2.0,17.0,348.0
2022-02-11-16:52:37.556187,3.0,4.0,349.0
2022-02-11-16:52:37.557420,3.0,4.0,349.0
2022-02-11-16:52:37.557420,3.0,4.0,349.0
2022-02-11-16:52:37.558823,3.0,4.0,349.0
2022-02-11-16:52:37.558933,3.0,4.0,349.0
2022-02-11-16:52:37.559895,7.0,13.0,349.0
2022-02-11-16:52:37.560201,5.0,2.0,349.0
2022-02-11-16:52:37.560201,5.0,2.0,349.0
2022-02-11-16:52:37.561210,5.0,2.0,349.0
2022-02-11-16:52:37.562234,5.0,2.0,349.0
2022-02-11-16:52:37.563232,5.0,2.0,349.0
2022-02-11-16:52:37.564238,5.0,2.0,349.0
2022-02-11-16:52:37.565532,8.0,4.0,348.0
2022-02-11-16:52:37.565807,3.0,14.0,349.0
2022-02-11-16:52:37.566081,3.0,14.0,349.0
2022-02-11-16:52:37.566339,3.0,14.0,349.0
2022-02-11-16:52:37.566593,3.0,14.0,349.0
2022-02-11-16:52:37.566844,3.0,14.0,349.0
2022-02-11-16:52:37.567096,3.0,14.0,349.0
2022-02-11-16:52:37.567340,3.0,14.0,349.0
2022-02-11-16:52:37.567340,3.0,14.0,349.0
2022-02-11-16:52:37.568339,6.0,16.0,349.0
2022-02-11-16:52:37.569372,3.0,12.0,349.0
2022-02-11-16:52:37.569372,3.0,12.0,349.0
2022-02-11-16:52:37.570406,3.0,12.0,349.0
2022-02-11-16:52:37.571402,3.0,12.0,349.0
2022-02-11-16:52:37.572400,3.0,12.0,349.0
2022-02-11-16:52:37.573653,1.0,1.0,349.0
2022-02-11-16:52:37.573928,1.0,1.0,349.0
2022-02-11-16:52:37.574190,1.0,1.0,349.0
2022-02-11-16:52:37.574446,1.0,1.0,349.0
2022-02-11-16:52:37.574542,1.0,1.0,349.0
2022-02-11-16:52:37.574542,1.0,1.0,349.0
2022-02-11-16:52:37.575574,1.0,1.0,349.0
2022-02-11-16:52:37.576563,6.0,2.0,349.0
2022-02-11-16:52:37.577561,4.0,4.0,349.0
2022-02-11-16:52:37.579555,4.0,4.0,349.0
2022-02-11-16:52:37.580266,4.0,4.0,349.0
2022-02-11-16:52:37.580553,5.0,3.0,349.0
2022-02-11-16:52:37.580553,5.0,3.0,349.0
2022-02-11-16:52:37.581552,5.0,3.0,349.0
2022-02-11-16:52:37.582576,5.0,3.0,349.0
2022-02-11-16:52:37.583771,5.0,3.0,349.0
2022-02-11-16:52:37.583875,5.0,3.0,349.0
2022-02-11-16:52:37.584447,4.0,2.0,349.0
2022-02-11-16:52:37.584703,4.0,2.0,349.0
2022-02-11-16:52:37.584959,4.0,2.0,349.0
2022-02-11-16:52:37.585215,4.0,2.0,349.0
2022-02-11-16:52:37.585461,4.0,2.0,349.0
2022-02-11-16:52:37.585557,4.0,2.0,349.0
2022-02-11-16:52:37.585557,4.0,2.0,349.0
2022-02-11-16:52:37.586792,4.0,2.0,349.0
2022-02-11-16:52:37.587032,4.0,2.0,349.0
2022-02-11-16:52:37.587261,4.0,2.0,349.0
2022-02-11-16:52:37.587492,4.0,2.0,349.0
2022-02-11-16:52:37.587492,4.0,2.0,349.0
2022-02-11-16:52:37.588491,4.0,2.0,349.0
2022-02-11-16:52:37.589531,8.0,28.0,349.0
2022-02-11-16:52:37.589531,1.0,8.0,349.0
2022-02-11-16:52:37.590564,1.0,8.0,349.0
2022-02-11-16:52:37.591561,1.0,8.0,349.0
2022-02-11-16:52:37.592559,1.0,8.0,349.0
2022-02-11-16:52:37.593579,5.0,3.0,349.0
2022-02-11-16:52:37.594555,6.0,19.0,349.0
2022-02-11-16:52:37.595551,6.0,19.0,349.0
2022-02-11-16:52:37.596548,6.0,19.0,349.0
2022-02-11-16:52:37.597866,7.0,2.0,349.0
2022-02-11-16:52:37.598149,4.0,1.0,349.0
2022-02-11-16:52:37.598425,4.0,1.0,349.0
2022-02-11-16:52:37.598705,4.0,1.0,349.0
2022-02-11-16:52:37.598981,4.0,1.0,349.0
2022-02-11-16:52:37.599258,4.0,1.0,349.0
2022-02-11-16:52:37.599532,4.0,1.0,349.0
2022-02-11-16:52:37.599532,4.0,1.0,349.0
2022-02-11-16:52:37.600531,4.0,1.0,349.0
2022-02-11-16:52:37.601832,7.0,4.0,349.0
2022-02-11-16:52:37.602103,8.0,18.0,349.0
2022-02-11-16:52:37.602205,8.0,18.0,349.0
2022-02-11-16:52:37.602205,8.0,18.0,349.0
2022-02-11-16:52:37.603229,8.0,18.0,349.0
2022-02-11-16:52:37.604476,8.0,18.0,349.0
2022-02-11-16:52:37.604476,1.0,3.0,349.0
2022-02-11-16:52:37.605508,1.0,15.0,348.0
2022-02-11-16:52:37.606507,1.0,15.0,348.0
2022-02-11-16:52:37.607503,1.0,15.0,348.0
2022-02-11-16:52:37.608467,1.0,15.0,348.0
2022-02-11-16:52:37.609499,3.0,3.0,349.0
2022-02-11-16:52:37.610498,7.0,9.0,349.0
2022-02-11-16:52:37.612458,7.0,9.0,349.0
2022-02-11-16:52:37.612458,6.0,3.0,349.0
2022-02-11-16:52:37.613493,7.0,6.0,349.0
2022-02-11-16:52:37.614486,7.0,6.0,349.0
2022-02-11-16:52:37.615480,7.0,6.0,349.0
2022-02-11-16:52:37.616479,7.0,6.0,349.0
2022-02-11-16:52:37.617742,6.0,2.0,349.0
2022-02-11-16:52:37.618000,6.0,2.0,349.0
2022-02-11-16:52:37.618262,6.0,2.0,349.0
2022-02-11-16:52:37.618520,6.0,2.0,349.0
2022-02-11-16:52:37.618768,6.0,2.0,349.0
2022-02-11-16:52:37.619027,6.0,2.0,349.0
2022-02-11-16:52:37.619288,6.0,2.0,349.0
2022-02-11-16:52:37.619398,6.0,2.0,349.0
2022-02-11-16:52:37.619398,6.0,2.0,349.0
2022-02-11-16:52:37.620424,6.0,2.0,349.0
2022-02-11-16:52:37.621645,6.0,2.0,349.0
2022-02-11-16:52:37.621999,4.0,16.0,349.0
2022-02-11-16:52:37.622215,4.0,16.0,349.0
2022-02-11-16:52:37.622215,4.0,16.0,349.0
2022-02-11-16:52:37.623215,4.0,16.0,349.0
2022-02-11-16:52:37.624248,4.0,16.0,349.0
2022-02-11-16:52:37.624248,4.0,16.0,349.0
2022-02-11-16:52:37.625282,4.0,16.0,349.0
2022-02-11-16:52:37.626279,5.0,4.0,349.0
2022-02-11-16:52:37.627293,5.0,7.0,349.0
2022-02-11-16:52:37.628274,5.0,7.0,349.0
2022-02-11-16:52:37.629270,5.0,7.0,349.0
2022-02-11-16:52:37.630267,7.0,12.0,349.0
2022-02-11-16:52:37.631452,8.0,6.0,349.0
2022-02-11-16:52:37.631685,8.0,6.0,349.0
2022-02-11-16:52:37.631914,8.0,6.0,349.0
2022-02-11-16:52:37.632149,8.0,6.0,349.0
2022-02-11-16:52:37.632247,8.0,6.0,349.0
2022-02-11-16:52:37.632247,8.0,6.0,349.0
2022-02-11-16:52:37.633455,8.0,6.0,349.0
2022-02-11-16:52:37.633816,7.0,2.0,349.0
2022-02-11-16:52:37.634042,10.0,2.0,349.0
2022-02-11-16:52:37.634260,10.0,2.0,349.0
2022-02-11-16:52:37.634260,10.0,2.0,349.0
2022-02-11-16:52:37.635259,10.0,2.0,349.0
2022-02-11-16:52:37.636293,10.0,2.0,349.0
2022-02-11-16:52:37.636293,10.0,2.0,349.0
2022-02-11-16:52:37.637328,10.0,2.0,349.0
2022-02-11-16:52:37.638324,1.0,8.0,349.0
2022-02-11-16:52:37.639322,1.0,13.0,349.0
2022-02-11-16:52:37.640318,1.0,13.0,349.0
2022-02-11-16:52:37.641316,1.0,13.0,349.0
2022-02-11-16:52:37.642319,3.0,13.0,349.0
2022-02-11-16:52:37.643311,6.0,6.0,349.0
2022-02-11-16:52:37.644310,6.0,6.0,349.0
2022-02-11-16:52:37.646358,6.0,6.0,349.0
2022-02-11-16:52:37.646985,10.0,14.0,349.0
2022-02-11-16:52:37.646985,11.0,26.0,349.0
2022-02-11-16:52:37.648192,11.0,26.0,349.0
2022-02-11-16:52:37.648301,11.0,26.0,349.0
2022-02-11-16:52:37.648301,11.0,26.0,349.0
2022-02-11-16:52:37.649543,11.0,26.0,349.0
2022-02-11-16:52:37.649912,3.0,14.0,349.0
2022-02-11-16:52:37.650168,8.0,7.0,349.0
2022-02-11-16:52:37.650424,8.0,7.0,349.0
2022-02-11-16:52:37.650680,8.0,7.0,349.0
2022-02-11-16:52:37.650927,8.0,7.0,349.0
2022-02-11-16:52:37.651164,8.0,7.0,349.0
2022-02-11-16:52:37.651384,8.0,7.0,349.0
2022-02-11-16:52:37.651591,8.0,7.0,349.0
2022-02-11-16:52:37.651801,8.0,7.0,349.0
2022-02-11-16:52:37.651801,8.0,7.0,349.0
2022-02-11-16:52:37.652800,8.0,7.0,349.0
2022-02-11-16:52:37.653849,8.0,7.0,349.0
2022-02-11-16:52:37.654389,1.0,4.0,348.0
2022-02-11-16:52:37.654639,6.0,28.0,349.0
2022-02-11-16:52:37.654872,6.0,28.0,349.0
2022-02-11-16:52:37.655101,6.0,28.0,349.0
2022-02-11-16:52:37.655335,6.0,28.0,349.0
2022-02-11-16:52:37.655418,6.0,28.0,349.0
2022-02-11-16:52:37.655418,6.0,28.0,349.0
2022-02-11-16:52:37.656417,6.0,28.0,349.0
2022-02-11-16:52:37.657438,6.0,28.0,349.0
2022-02-11-16:52:37.658694,6.0,28.0,349.0
2022-02-11-16:52:37.658694,9.0,3.0,349.0
2022-02-11-16:52:37.659726,9.0,3.0,349.0
2022-02-11-16:52:37.660723,9.0,3.0,349.0
2022-02-11-16:52:37.661688,9.0,3.0,349.0
2022-02-11-16:52:37.662718,6.0,0.0,349.0
2022-02-11-16:52:37.663715,6.0,0.0,349.0
2022-02-11-16:52:37.664713,6.0,0.0,349.0
2022-02-11-16:52:37.665705,6.0,0.0,349.0
2022-02-11-16:52:37.666710,7.0,10.0,349.0
2022-02-11-16:52:37.667705,7.0,10.0,349.0
2022-02-11-16:52:37.668703,7.0,10.0,349.0
2022-02-11-16:52:37.669701,7.0,10.0,349.0
2022-02-11-16:52:37.670696,7.0,10.0,349.0
2022-02-11-16:52:37.671694,5.0,28.0,349.0
2022-02-11-16:52:37.672691,5.0,28.0,349.0
2022-02-11-16:52:37.673688,5.0,28.0,349.0
2022-02-11-16:52:37.675024,5.0,28.0,349.0
2022-02-11-16:52:37.675299,5.0,3.0,349.0
2022-02-11-16:52:37.675577,5.0,3.0,349.0
2022-02-11-16:52:37.675684,5.0,3.0,349.0
2022-02-11-16:52:37.675684,5.0,3.0,349.0
2022-02-11-16:52:37.676716,5.0,3.0,349.0
2022-02-11-16:52:37.677715,5.0,3.0,349.0
2022-02-11-16:52:37.678934,5.0,3.0,349.0
2022-02-11-16:52:37.679965,3.0,8.0,349.0
2022-02-11-16:52:37.679965,3.0,8.0,349.0
2022-02-11-16:52:37.680968,3.0,8.0,349.0
2022-02-11-16:52:37.681959,3.0,8.0,349.0
2022-02-11-16:52:37.682957,3.0,8.0,349.0
2022-02-11-16:52:37.683955,8.0,1.0,349.0
2022-02-11-16:52:37.684952,8.0,1.0,349.0
2022-02-11-16:52:37.685952,8.0,1.0,349.0
2022-02-11-16:52:37.686953,8.0,1.0,349.0
2022-02-11-16:52:37.687944,3.0,8.0,349.0
2022-02-11-16:52:37.688944,3.0,8.0,349.0
2022-02-11-16:52:37.689940,3.0,8.0,349.0
2022-02-11-16:52:37.690936,3.0,8.0,349.0
2022-02-11-16:52:37.691934,5.0,0.0,348.0
2022-02-11-16:52:37.692931,5.0,0.0,348.0
2022-02-11-16:52:37.693928,5.0,0.0,348.0
2022-02-11-16:52:37.694926,5.0,0.0,348.0
2022-02-11-16:52:37.695930,4.0,10.0,349.0
2022-02-11-16:52:37.696922,8.0,1.0,348.0
2022-02-11-16:52:37.698187,8.0,1.0,348.0
2022-02-11-16:52:37.698187,8.0,1.0,348.0
2022-02-11-16:52:37.699404,8.0,1.0,348.0
2022-02-11-16:52:37.699783,8.0,2.0,349.0
2022-02-11-16:52:37.700062,8.0,2.0,349.0
2022-02-11-16:52:37.700338,8.0,2.0,349.0
2022-02-11-16:52:37.700614,8.0,2.0,349.0
2022-02-11-16:52:37.700895,8.0,2.0,349.0
2022-02-11-16:52:37.700895,8.0,2.0,349.0
