# 
# 
# 
# 
# 
# 
# 
# 
# 
# 
# time,realtime,ref,inp,inp0,inp1,dis,state...
0.000000000000000000e+00,1.644630263318529367e+09,0.000000000000000000e+00,4.967707594325939530e-02,0.000000000000000000e+00,9.935415188651879059e-02,0.000000000000000000e+00,0.000000000000000000e+00,0.000000000000000000e+00
1.666666666666666644e-02,1.644630263319559097e+09,2.377284464025823980e-06,3.365221273575574185e-02,0.000000000000000000e+00,6.730442547151148369e-02,0.000000000000000000e+00,4.648060414547332565e-06,5.562221518480483379e-04
3.333333333333333287e-02,1.644630263321556568e+09,9.516305047969580871e-06,4.967707594325939530e-02,0.000000000000000000e+00,9.935415188651879059e-02,-8.347250038429656963e-07,2.070291115494154153e-05,1.368104654745246496e-03
5.000000000000000278e-02,1.644630263337513924e+09,2.140309853202594068e-05,3.365221273575574185e-02,0.000000000000000000e+00,6.730442547151148369e-02,-1.082394340486561700e-05,4.796225750922084160e-05,1.901535121596815070e-03
6.666666666666666574e-02,1.644630263356501818e+09,3.799281763195493051e-05,3.365221273575574185e-02,0.000000000000000000e+00,6.730442547151148369e-02,-4.127848708286445975e-05,8.403422756534290093e-05,2.425645389018574443e-03
8.333333333333332871e-02,1.644630263374415398e+09,5.921323101464255926e-05,4.967707594325939530e-02,0.000000000000000000e+00,9.935415188651879059e-02,-1.034208623935332493e-04,1.309737573397890746e-04,3.204933443925225660e-03
1.000000000000000056e-01,1.644630263390376806e+09,8.496927865313995626e-05,4.967707594325939530e-02,0.000000000000000000e+00,9.935415188651879059e-02,-2.081343707874156194e-04,1.907793226256650589e-04,3.969610238180549221e-03
1.166666666666666685e-01,1.644630263406330109e+09,1.151486126146100984e-04,3.365221273575574185e-02,0.000000000000000000e+00,6.730442547151148369e-02,-3.657134837179209564e-04,2.609887566008846208e-04,4.454175791739293372e-03
1.333333333333333315e-01,1.644630263426309586e+09,1.496280312915037149e-04,3.365221273575574185e-02,0.000000000000000000e+00,6.730442547151148369e-02,-5.856193118176892956e-04,3.391769811966709571e-04,4.927097457542474468e-03
1.499999999999999944e-01,1.644630263440238953e+09,1.882806942371387845e-04,3.365221273575574185e-02,0.000000000000000000e+00,6.730442547151148369e-02,-8.762439686061784111e-04,4.251417721567796789e-04,5.387398812701524840e-03
1.666666666666666574e-01,1.644630263458191395e+09,2.309839855130140038e-04,3.365221273575574185e-02,0.000000000000000000e+00,6.730442547151148369e-02,-1.244687539295105932e-03,5.186637857068612713e-04,5.834002219092453839e-03
1.833333333333333204e-01,1.644630263474217415e+09,2.776278761367724154e-04,3.365221273575574185e-02,0.000000000000000000e+00,6.730442547151148369e-02,-1.696551226472933858e-03,6.195050926401854657e-04,6.265755270647176134e-03
2.000000000000000111e-01,1.644630263492172003e+09,3.281236211504203674e-04,3.365221273575574185e-02,0.000000000000000000e+00,6.730442547151148369e-02,-2.235750058053098243e-03,7.274081754075127594e-04,6.681459899174893233e-03
2.166666666666666741e-01,1.644630263508102894e+09,3.824126142906797356e-04,4.967707594325939530e-02,0.000000000000000000e+00,9.935415188651879059e-02,-2.864348310913750108e-03,8.443087911174131099e-04,7.344771410670753418e-03
2.333333333333333370e-01,1.644630263525082827e+09,4.404752134840097806e-04,1.762734952825329576e-02,0.000000000000000000e+00,3.525469905650659153e-02,-3.582420528740477839e-03,9.676470770712821638e-04,7.455515274708764649e-03
2.500000000000000000e-01,1.644630263543038130e+09,5.023393436151332844e-04,3.365221273575574185e-02,0.000000000000000000e+00,6.730442547151148369e-02,-4.387940697831466987e-03,1.094917901349171671e-03,7.815982317729612550e-03
2.666666666666666630e-01,1.644630263559956312e+09,5.680886793941054402e-04,3.365221273575574185e-02,0.000000000000000000e+00,6.730442547151148369e-02,-5.276701793649453409e-03,1.228023965663543231e-03,8.155801435783678957e-03
2.833333333333333259e-01,1.644630263574947834e+09,6.378702107915561019e-04,1.762734952825329576e-02,0.000000000000000000e+00,3.525469905650659153e-02,-6.242267527768350852e-03,1.364400019436185722e-03,8.209176748685785563e-03
2.999999999999999889e-01,1.644630263591903448e+09,7.119009964952355144e-04,1.762734952825329576e-02,0.000000000000000000e+00,3.525469905650659153e-02,-7.275957714031403879e-03,1.501515515728037674e-03,8.244584449297631332e-03
3.166666666666666519e-01,1.644630263608862638e+09,7.904739171843916737e-04,3.365221273575574185e-02,0.000000000000000000e+00,6.730442547151148369e-02,-8.366868239034312704e-03,1.641278934830263467e-03,8.526243438474096631e-03
3.333333333333333148e-01,1.644630263627774477e+09,8.739622500924453885e-04,1.762734952825329576e-02,0.000000000000000000e+00,3.525469905650659153e-02,-9.501926170595779639e-03,1.783327630668604929e-03,8.519618465263379542e-03
3.499999999999999778e-01,1.644630263643730640e+09,9.628228992530398758e-04,3.365221273575574185e-02,0.000000000000000000e+00,6.730442547151148369e-02,-1.066598007404894431e-02,1.927319407727564422e-03,8.758730565899533124e-03
3.666666666666666408e-01,1.644630263660719633e+09,1.057598131870007407e-03,3.365221273575574185e-02,0.000000000000000000e+00,6.730442547151148369e-02,-1.184192513553558590e-02,2.075100938062487792e-03,8.974453828901612570e-03
3.833333333333333037e-01,1.644630263676677704e+09,1.158915690239555561e-03,1.762734952825329576e-02,0.000000000000000000e+00,3.525469905650659153e-02,-1.301086221968922145e-02,2.224073244033892508e-03,8.902422978072942195e-03
4.000000000000000222e-01,1.644630263693630695e+09,1.267487170357848138e-03,3.365221273575574185e-02,0.000000000000000000e+00,6.730442547151148369e-02,-1.415228952189034536e-02,2.373910692355523083e-03,9.077584249982400752e-03
4.166666666666666852e-01,1.644630263710551977e+09,1.384104582499591030e-03,3.365221273575574185e-02,0.000000000000000000e+00,6.730442547151148369e-02,-1.524432501839918103e-02,2.526492469359029481e-03,9.231800601601503065e-03
4.333333333333333481e-01,1.644630263728530884e+09,1.509635035343166167e-03,3.365221273575574185e-02,0.000000000000000000e+00,6.730442547151148369e-02,-1.626395747677829989e-02,2.681482386306167399e-03,9.366614938970655238e-03
4.500000000000000111e-01,1.644630263746456385e+09,1.645013513297779572e-03,3.365221273575574185e-02,0.000000000000000000e+00,6.730442547151148369e-02,-1.718732336963461546e-02,2.838573052494724330e-03,9.483939095550784557e-03
4.666666666666666741e-01,1.644630263764407873e+09,1.791233746178319368e-03,3.365221273575574185e-02,0.000000000000000000e+00,6.730442547151148369e-02,-1.799000664216154205e-02,2.997492049407784326e-03,9.586056866864294673e-03
4.833333333333333370e-01,1.644630263779367447e+09,1.949337200866482073e-03,3.365221273575574185e-02,0.000000000000000000e+00,6.730442547151148369e-02,-1.864735792331163530e-02,3.158008110931590211e-03,9.675621718881224215e-03
5.000000000000000000e-01,1.644630263795359850e+09,2.120400255662392448e-03,3.365221273575574185e-02,0.000000000000000000e+00,6.730442547151148369e-02,-1.913482944641902925e-02,3.319937219436954953e-03,9.755648998531471494e-03
5.166666666666666075e-01,1.644630263813277006e+09,2.305519649222842384e-03,3.365221273575574185e-02,0.000000000000000000e+00,6.730442547151148369e-02,-1.942832166208547859e-02,3.483148525237421845e-03,9.829502543958841890e-03
5.333333333333333259e-01,1.644630263830231667e+09,2.505796326843423225e-03,3.365221273575574185e-02,0.000000000000000000e+00,6.730442547151148369e-02,-1.950453728807650597e-02,3.647569995832841781e-03,9.900875664158075712e-03
5.500000000000000444e-01,1.644630263846227407e+09,2.722317836910646827e-03,1.762734952825329576e-02,0.000000000000000000e+00,3.525469905650659153e-02,-1.934133835130452672e-02,3.810980339357020186e-03,9.708898840249710616e-03
5.666666666666666519e-01,1.644630263863143682e+09,2.956139459167282744e-03,3.365221273575574185e-02,0.000000000000000000e+00,6.730442547151148369e-02,-1.891810163863602914e-02,3.973489404852204032e-03,9.791958293039856182e-03
5.833333333333333703e-01,1.644630263880098343e+09,3.208264273548615351e-03,3.365221273575574185e-02,0.000000000000000000e+00,6.730442547151148369e-02,-1.821606788862787166e-02,4.137468287599338490e-03,9.885248491078186053e-03
5.999999999999999778e-01,1.644630263898049831e+09,3.479622403322721064e-03,3.365221273575574185e-02,0.000000000000000000e+00,6.730442547151148369e-02,-1.721868002715684284e-02,4.303126881400837732e-03,9.993482109086668230e-03
6.166666666666666963e-01,1.644630263914048672e+09,3.771049688689681947e-03,3.365221273575574185e-02,0.000000000000000000e+00,6.730442547151148369e-02,-1.591190577742389659e-02,4.470754911865902625e-03,1.012152586126046847e-02
6.333333333333333037e-01,1.644630263933992624e+09,4.083266066474220551e-03,3.365221273575574185e-02,0.000000000000000000e+00,6.730442547151148369e-02,-1.428454005952027941e-02,4.640724091965222481e-03,1.027435122576507258e-02
6.500000000000000222e-01,1.644630263950908899e+09,4.416853947729477460e-03,3.365221273575574185e-02,0.000000000000000000e+00,6.730442547151148369e-02,-1.232848273651857181e-02,4.813489424770820736e-03,1.045698139294676081e-02
6.666666666666666297e-01,1.644630263965868711e+09,4.772236897639437619e-03,1.762734952825329576e-02,0.000000000000000000e+00,3.525469905650659153e-02,-1.003898746212263625e-02,4.987376232853822124e-03,1.040956728596593821e-02
6.833333333333333481e-01,1.644630263984817982e+09,5.149658930791065417e-03,3.458043044797352583e-01,6.243041834879590191e-01,6.730442547151148369e-02,-7.414877637852966032e-03,5.206169762807619228e-03,1.583059753671017811e-02
6.999999999999999556e-01,1.644630263999778032e+09,5.549164739459197526e-03,3.825911433253905147e-01,7.299275875942744518e-01,3.525469905650659153e-02,-4.458725793481652967e-03,5.520054363242030138e-03,2.181891989514091190e-02
7.166666666666666741e-01,1.644630264017730236e+09,5.970581172834025716e-03,3.960341220298307374e-01,7.568135450031548972e-01,3.525469905650659153e-02,-1.176993060270812956e-03,5.935227251733724528e-03,2.798469915614188244e-02
7.333333333333332815e-01,1.644630264033687115e+09,6.413500281004320437e-03,4.568689142521336621e-01,8.464334030327558267e-01,6.730442547151148369e-02,2.419874190802577540e-03,6.461210840356697641e-03,3.511352870823451072e-02
7.500000000000000000e-01,1.644630264050642014e+09,6.877264228928323467e-03,5.180024602651830401e-01,9.687004950588545826e-01,6.730442547151148369e-02,6.317393028109798483e-03,7.114005740478824592e-03,4.319939802966726861e-02
7.666666666666666075e-01,1.644630264068593979e+09,7.360952372576998366e-03,5.544692281893041086e-01,1.073683757322101640e+00,3.525469905650659153e-02,1.049703995396792863e-02,7.906062408086673987e-03,5.182344583111395120e-02
7.833333333333333259e-01,1.644630264085548878e+09,7.863370771980165291e-03,5.912773841657473772e-01,1.147300069274988177e+00,3.525469905650659153e-02,1.493629569541878206e-02,8.846359161020894354e-03,6.098671040919916714e-02
8.000000000000000444e-01,1.644630264102503777e+09,8.383044394165022756e-03,5.928777387734187609e-01,1.150500778490330944e+00,3.525469905650659153e-02,1.960873972604202167e-02,9.938977757658671794e-03,7.010219978755240222e-02
8.166666666666666519e-01,1.644630264118486166e+09,8.918212233128421096e-03,6.441104033496930503e-01,1.220916381227874714e+00,6.730442547151148369e-02,2.448419488542648292e-02,1.119001182282192315e-02,7.999440902630780559e-02
8.333333333333333703e-01,1.644630264135415792e+09,9.466825544268777509e-03,8.115074953121264034e-01,1.555710565152741198e+00,6.730442547151148369e-02,2.952892187836788154e-02,1.262836747516606246e-02,9.257332699380524388e-02
8.499999999999999778e-01,1.644630264153402090e+09,1.002654935741648101e-02,7.557938378343721508e-01,1.476332976612237724e+00,3.525469905650659153e-02,3.470586284135650235e-02,1.426765419737425350e-02,1.041090352828591969e-01
8.666666666666666963e-01,1.644630264171352625e+09,1.059476739609367842e-02,8.268708995457724198e-01,1.586437373620033453e+00,6.730442547151148369e-02,3.997493256605275103e-02,1.610815437238361306e-02,1.167159656430469261e-01
8.833333333333333037e-01,1.644630264187310934e+09,1.116859049130546587e-02,8.521565023469812594e-01,1.637008579222450910e+00,6.730442547151148369e-02,4.529335537494907221e-02,1.816125582117205164e-02,1.296203618229573307e-01
9.000000000000000222e-01,1.644630264205276489e+09,1.174486853646275301e-02,9.087877383277627175e-01,1.782320777599018857e+00,3.525469905650659153e-02,5.061604506008114679e-02,2.043620528511257486e-02,1.433354754154808619e-01
9.166666666666666297e-01,1.644630264221186399e+09,1.232020598644859716e-02,9.792246581960941665e-01,1.891144890920676724e+00,6.730442547151148369e-02,5.589602472826724067e-02,2.294830369320684585e-02,1.580753883894592815e-01
9.333333333333333481e-01,1.644630264238141060e+09,1.289098085889005089e-02,9.881653268682664137e-01,1.941075954680026250e+00,3.525469905650659153e-02,6.108488285263433126e-02,2.570598301069069655e-02,1.728052125673237849e-01
9.499999999999999556e-01,1.644630264255131483e+09,1.345336714993698550e-02,1.001629622703494427e+00,1.935954819935477467e+00,6.730442547151148369e-02,6.613326131669615415e-02,2.870968188695192588e-02,1.875975617580657451e-01
9.666666666666666741e-01,1.644630264274079800e+09,1.400336053085554470e-02,1.120354617461927882e+00,2.205454535867349186e+00,3.525469905650659153e-02,7.099137076030256899e-02,3.197494614975780053e-02,2.041880639656303842e-01
9.833333333333332815e-01,1.644630264290037394e+09,1.453680714610565590e-02,1.118754262854256609e+00,2.202253826652006641e+00,3.525469905650659153e-02,7.560952810243165567e-02,3.551484411466614144e-02,2.205542291833335056e-01
1.000000000000000000e+00,1.644630264309948921e+09,1.504943528889032128e-02,1.320078872499324207e+00,2.604903045942141837e+00,3.525469905650659153e-02,7.993871072969407909e-02,3.935365600136739306e-02,2.400490436837825481e-01
1.016666666666666607e+00,1.644630264325916290e+09,1.553688968703790911e-02,1.378011709297030762e+00,2.720768719537554947e+00,3.525469905650659153e-02,8.393112150681454608e-02,4.352324197566392883e-02,2.602451715562167922e-01
1.033333333333333215e+00,1.644630264341898680e+09,1.599476809110073755e-02,1.203252986139308867e+00,2.371251273222111156e+00,3.525469905650659153e-02,8.754075849096730477e-02,4.800300138472791966e-02,2.772786412243240517e-01
1.050000000000000044e+00,1.644630264358819962e+09,1.641865981830148771e-02,1.173166319515085876e+00,2.311077939973665174e+00,3.525469905650659153e-02,9.072398301986714375e-02,5.276058336675101129e-02,2.935858976178835067e-01
1.066666666666666652e+00,1.644630264376774311e+09,1.680418587098948119e-02,1.062101709742687250e+00,2.088948720428867922e+00,3.525469905650659153e-02,9.344007969751591536e-02,5.777273543825206525e-02,3.078327753703858360e-01
1.083333333333333259e+00,1.644630264391730785e+09,1.714704021710600559e-02,1.008009724003392060e+00,1.980764748950277765e+00,3.525469905650659153e-02,9.565180172440598816e-02,6.301320195852014305e-02,3.209866676122477003e-01
1.100000000000000089e+00,1.644630264410712481e+09,1.744303179329060802e-02,8.835021355265536558e-01,1.731749571996600734e+00,3.525469905650659153e-02,9.732589501300159540e-02,6.845411737034695632e-02,3.318928860427468042e-01
1.116666666666666696e+00,1.644630264425674438e+09,1.768812676913270043e-02,8.457337667855074903e-01,1.656212834514508403e+00,3.525469905650659153e-02,9.843359459595077410e-02,7.407023312710050988e-02,3.420128929756842129e-01
1.133333333333333304e+00,1.644630264443624496e+09,1.787849059407650015e-02,8.185277384550930790e-01,1.601800777853679580e+00,3.525469905650659153e-02,9.895108697446025614e-02,7.984993165176003382e-02,3.515245082081839278e-01
1.149999999999999911e+00,1.644630264460578918e+09,1.801052933696110567e-02,7.202446484132781768e-01,1.437284324185054585e+00,3.204972641501691987e-03,9.885993226754796748e-02,8.577325584814866899e-02,3.592529270231423766e-01
1.166666666666666741e+00,1.644630264476505280e+09,1.808092982239389163e-02,6.258237265606626520e-01,1.248442480479823535e+00,3.204972641501691987e-03,9.814744030864017144e-02,9.181117969713915861e-02,3.652811892886402845e-01
1.183333333333333348e+00,1.644630264496450663e+09,1.808669806832390731e-02,5.506070600001045090e-01,1.098009147358707471e+00,3.204972641501691987e-03,9.680699519258545438e-02,9.793816785083134246e-02,3.699444353881596315e-01
1.199999999999999956e+00,1.644630264513405085e+09,1.802519553543871500e-02,4.686475869565379093e-01,9.661399276865801911e-01,-2.884475377350440711e-02,9.483832320118809611e-02,1.041306404857007956e-01,3.731433945892522752e-01
1.216666666666666563e+00,1.644630264528398752e+09,1.789417271141889587e-02,4.007925515912685310e-01,8.304298569560414345e-01,-2.884475377350440711e-02,9.224769952565736730e-02,1.103662572758370153e-01,3.751251153177315167e-01
1.233333333333333393e+00,1.644630264545319796e+09,1.769179957163548658e-02,3.966316296113228113e-01,8.221080129961499949e-01,-2.884475377350440711e-02,8.904808975595586429e-02,1.166336123882074222e-01,3.769524221948157283e-01
1.250000000000000000e+00,1.644630264563305616e+09,1.741669248248094160e-02,3.934096032651918651e-01,8.477136867188930225e-01,-6.089448018850930622e-02,8.525922271527268392e-02,1.229302018785654455e-01,3.786336464707987792e-01
1.266666666666666607e+00,1.644630264579270124e+09,1.706793714401498227e-02,3.790064117961489121e-01,8.189073037808071165e-01,-6.089448018850930622e-02,8.090759187737922575e-02,1.292519891365721540e-01,3.799770926073508526e-01
1.283333333333333215e+00,1.644630264598179102e+09,1.664510720474403002e-02,3.050700289217280203e-01,6.710345380319653330e-01,-6.089448018850930622e-02,7.602638330944591627e-02,1.355850952810129517e-01,3.799955933334296376e-01
1.300000000000000044e+00,1.644630264614135742e+09,1.614827822281532030e-02,2.865059154727391810e-01,6.339063111339876544e-01,-6.089448018850930622e-02,7.065532882645922386e-02,1.419152012782211592e-01,3.796181747412080698e-01
1.316666666666666652e+00,1.644630264630129576e+09,1.557803669430886731e-02,2.682618729452846962e-01,5.974182260790786847e-01,-6.089448018850930622e-02,6.484048381850054943e-02,1.482357460692521889e-01,3.788493358962400914e-01
1.333333333333333259e+00,1.644630264647081375e+09,1.493548392018878394e-02,-4.647210330175770288e-02,0.000000000000000000e+00,-9.294420660351540575e-02,5.863393001133298393e-02,1.544992546057874783e-01,3.727885244715310464e-01
1.350000000000000089e+00,1.644630264665035009e+09,1.422223453831086837e-02,-6.249696650926014896e-02,0.000000000000000000e+00,-1.249939330185202979e-01,5.209340423593213087e-02,1.606594699980899710e-01,3.664549163746730898e-01
1.366666666666666696e+00,1.644630264680991411e+09,1.344040960508970962e-02,-4.135593465507294009e-01,-7.021247600829385593e-01,-1.249939330185202979e-01,4.528185510557062449e-02,1.666655703308894676e-01,3.543108578511209306e-01
1.383333333333333304e+00,1.644630264698943138e+09,1.259262417237234227e-02,-5.297188090076779821e-01,-8.703442321668246606e-01,-1.890933858485313035e-01,3.826693032123710397e-02,1.724539341238930101e-01,3.403316294133433839e-01
1.399999999999999911e+00,1.644630264715897083e+09,1.168196936806394082e-02,-6.216949232405940551e-01,-1.054296460632656807e+00,-1.890933858485313035e-01,3.112039813888259690e-02,1.779975507248917621e-01,3.249451040606494701e-01
1.416666666666666741e+00,1.644630264732851982e+09,1.071198905338309991e-02,-8.207539097101050896e-01,-1.388314980741667926e+00,-2.531928386785423091e-01,2.391750732649583835e-02,1.832583614378291703e-01,3.064036866413185622e-01
1.433333333333333348e+00,1.644630264750803232e+09,9.686651194538119236e-03,-8.942847366767577855e-01,-1.567426361089978348e+00,-2.211431122635373892e-01,1.673629070655427431e-02,1.882015614892035005e-01,2.868346791571075305e-01
1.449999999999999956e+00,1.644630264764766932e+09,8.610314151339747146e-03,-1.789528639229175155e+00,-3.325864439779807835e+00,-2.531928386785423091e-01,9.656818111402931323e-03,1.926966849421103134e-01,2.526750253522378475e-01
1.466666666666666563e+00,1.644630264783716202e+09,7.487688149011929688e-03,-2.027627409827995386e+00,-3.770012254562442156e+00,-2.852425650935483947e-01,2.760405267126768685e-03,1.965933601230481498e-01,2.150305667619522021e-01
1.483333333333333393e+00,1.644630264799673796e+09,6.323792261441680759e-03,-2.202503048073474190e+00,-4.119763531053400207e+00,-2.852425650935483947e-01,-3.871214242567221075e-03,1.998427572592105239e-01,1.750082652538558214e-01
1.500000000000000000e+00,1.644630264818623543e+09,5.123907293538245387e-03,-2.360414825544048689e+00,-4.371487633164537812e+00,-3.493420179235594003e-01,-1.015674620484824028e-02,2.024079649228502920e-01,1.329335313944011165e-01
1.516666666666666607e+00,1.644630264833583117e+09,3.893525006482882918e-03,-2.642394228389699506e+00,-4.935446438855840334e+00,-3.493420179235594003e-01,-1.601621396201339392e-02,2.042379819569695998e-01,8.679667365441992577e-02
1.533333333333333215e+00,1.644630264852532387e+09,2.638294181701426704e-03,-2.734370342622615357e+00,-5.119398667321672036e+00,-3.493420179235594003e-01,-2.137184887967976538e-02,2.052919802981428010e-01,3.981363878820846913e-02
1.550000000000000044e+00,1.644630264867496490e+09,1.363964066674096644e-03,-2.761579220920098887e+00,-5.109716971086627701e+00,-4.134414707535703504e-01,-2.614898407182947651e-02,2.055649994542881054e-01,-6.921517117802304664e-03
1.566666666666666652e+00,1.644630264885445356e+09,7.632578754896735017e-05,-3.054450532030173804e+00,-5.695459593306777535e+00,-4.134414707535703504e-01,-3.027694208565565037e-02,2.050245327411409912e-01,-5.779317497325234254e-02
1.583333333333333259e+00,1.644630264901402712e+09,-1.218847650665959813e-03,-3.153374919250238939e+00,-5.861258641331902552e+00,-4.454911971685752703e-01,-3.368990706912821514e-02,2.036290965963531152e-01,-1.095154859337872516e-01
1.600000000000000089e+00,1.644630264921348810e+09,-2.515862126336117569e-03,-3.539432556622610804e+00,-6.633373916076646282e+00,-4.454911971685752703e-01,-3.632777185791202096e-02,2.013250790302477666e-01,-1.668074738423572789e-01
1.616666666666666696e+00,1.644630264937305450e+09,-3.809163253717889105e-03,-3.624126506315666685e+00,-6.738662362632747538e+00,-5.095906499985862759e-01,-3.813695042862521450e-02,1.980621603417182242e-01,-2.245822794328992678e-01
1.633333333333333304e+00,1.644630264953262806e+09,-5.093396638943870069e-03,-3.950257755870127507e+00,-7.326825408911657789e+00,-5.736901028285972259e-01,-3.907114627445707616e-02,1.937991336691408384e-01,-2.868080677960649916e-01
1.649999999999999911e+00,1.644630264972212791e+09,-6.363466845784541276e-03,-3.172988633818729198e+00,-5.740237438393855030e+00,-6.057398292436033671e-01,-3.909206746785053727e-02,1.886149590901086137e-01,-3.351585715718090608e-01
1.666666666666666741e+00,1.644630264989169598e+09,-7.614594378649598358e-03,-3.034419356454665095e+00,-5.463098883665726824e+00,-6.057398292436033671e-01,-3.817007948339436185e-02,1.826508875803597165e-01,-3.804043239943611376e-01
1.683333333333333348e+00,1.644630265007092714e+09,-8.842369999619946810e-03,-3.120636517366234930e+00,-5.603483479073861240e+00,-6.377895556586082870e-01,-3.628478726124945153e-02,1.759273216030199927e-01,-4.262961130941461674e-01
1.699999999999999956e+00,1.644630265024039984e+09,-1.004280571385022906e-02,-3.036526781324292212e+00,-5.435264006989975805e+00,-6.377895556586082870e-01,-3.342553849541807925e-02,1.684572432704029843e-01,-4.699919067585243138e-01
1.716666666666666563e+00,1.644630265039997101e+09,-1.121238178339877163e-02,-2.736978411689047430e+00,-4.772067814889475734e+00,-7.018890084886192371e-01,-2.959184072892326670e-02,1.603068402773986656e-01,-5.079510079724861571e-01
1.733333333333333393e+00,1.644630265056951523e+09,-1.234808916328065595e-02,-2.856184296583023752e+00,-5.010479584677429266e+00,-7.018890084886192371e-01,-2.479368552552684013e-02,1.515132264747841295e-01,-5.471736938716807996e-01
1.750000000000000000e+00,1.644630265074950457e+09,-1.344746679504950880e-02,-2.926376594287091404e+00,-5.150864180085563682e+00,-7.018890084886192371e-01,-1.905177375999585546e-02,1.420624167779990232e-01,-5.868133569756804890e-01
1.766666666666666607e+00,1.644630265091860056e+09,-1.450863324215257745e-02,-2.771469454526390930e+00,-4.841049900564162733e+00,-7.018890084886192371e-01,-1.239763692020010542e-02,1.319787360036660251e-01,-6.231274610587906881e-01
1.783333333333333215e+00,1.644630265108812571e+09,-1.553031220722680440e-02,-2.635320601221087689e+00,-4.568752193953556251e+00,-7.018890084886192371e-01,-4.873650237669319325e-03,1.213146800478045739e-01,-6.564666426272418587e-01
1.800000000000000044e+00,1.644630265125807047e+09,-1.651185153388762261e-02,-2.268918463144359965e+00,-3.803898191385095551e+00,-7.339387349036241570e-01,3.467065549045949841e-03,1.101513355601573124e-01,-6.830608214328498518e-01
1.816666666666666652e+00,1.644630265145714283e+09,-1.745323536377800522e-02,-2.010538194871628548e+00,-3.287137654839632717e+00,-7.339387349036241570e-01,1.256085595022685998e-02,9.858537161077549071e-02,-7.047944797988247023e-01
1.833333333333333259e+00,1.644630265160710335e+09,-1.835508919300764957e-02,-1.646264374028105992e+00,-2.558590013152587606e+00,-7.339387349036241570e-01,2.233385906175646557e-02,8.671184541966200920e-02,-7.199864621904836781e-01
1.849999999999999867e+00,1.644630265177663088e+09,-1.921867764983445706e-02,-1.612691436394586342e+00,-2.523493864300553557e+00,-7.018890084886192371e-01,3.270244641732805019e-02,7.459328707156621940e-02,-7.342010536753421635e-01
1.866666666666666696e+00,1.644630265193620205e+09,-2.004589489669865096e-02,-1.541581033486694396e+00,-2.349223332069764858e+00,-7.339387349036241570e-01,4.357377713700074512e-02,6.225110554981318212e-02,-7.468256597594173929e-01
1.883333333333333304e+00,1.644630265211570978e+09,-2.083924764360702703e-02,-1.309220323845643241e+00,-1.884501912787662325e+00,-7.339387349036241570e-01,5.484646298384005664e-02,4.973390840970137033e-02,-7.552146936336689986e-01
1.899999999999999911e+00,1.644630265228527784e+09,-2.160183084544779059e-02,-1.158256819362218026e+00,-1.614624630235816927e+00,-7.018890084886192371e-01,6.641134076690165255e-02,3.710050123715225023e-02,-7.607787111043751160e-01
1.916666666666666741e+00,1.644630265245480537e+09,-2.233729624210778128e-02,-1.140103638921510898e+00,-1.578318269354402670e+00,-7.018890084886192371e-01,7.815234736254253467e-02,2.437925794499050045e-02,-7.657566560048628679e-01
1.933333333333333348e+00,1.644630265261437416e+09,-2.304981398626667830e-02,-1.010610951777799915e+00,-1.319332895066980926e+00,-7.018890084886192371e-01,8.994749147867242556e-02,1.159525120647296112e-02,-7.683170402713307423e-01
1.949999999999999956e+00,1.644630265278399229e+09,-2.374402768842908545e-02,-8.321046774441800409e-01,-9.623203463997408447e-01,-7.018890084886192371e-01,1.016699151697733061e-01,-1.204800478910117087e-03,-7.676909012905210883e-01
1.966666666666666563e+00,1.644630265295315504e+09,-2.442500329111083057e-02,-3.509445042443096185e-01,0.000000000000000000e+00,-7.018890084886192371e-01,1.131890370360218862e-01,-1.392645388717417970e-02,-7.589318390023951366e-01
1.983333333333333393e+00,1.644630265313266993e+09,-2.509817226309856222e-02,-3.509445042443096185e-01,0.000000000000000000e+00,-7.018890084886192371e-01,1.243717680190917080e-01,-2.650178816563998965e-02,-7.501327169943495798e-01
2.000000000000000000e+00,1.644630265335207701e+09,-2.576926967937079316e-02,-2.630964656049280398e-02,6.492697153676336708e-01,-7.018890084886192371e-01,1.350837897513861019e-01,-3.888536747144724637e-02,-7.359362353020274528e-01
2.016666666666666607e+00,1.644630265347175598e+09,-2.644426782163466008e-02,1.657985692510201281e-02,7.350487223388232350e-01,-7.018890084886192371e-01,1.451908845353195587e-01,-5.102697965758735271e-02,-7.210984440915469973e-01
2.033333333333333215e+00,1.644630265363133192e+09,-2.712930599759584560e-02,8.861713140110510922e-02,8.470735448758245356e-01,-6.698392820736143172e-01,1.545603052350992546e-01,-6.291210079332112959e-02,-7.051603656785431218e-01
2.049999999999999822e+00,1.644630265382081985e+09,-2.783061733317277603e-02,1.308451759128433645e-01,9.635793603143060215e-01,-7.018890084886192371e-01,1.630621726648463221e-01,-7.452678182343110136e-02,-6.886472288388050256e-01
2.066666666666666430e+00,1.644630265397042513e+09,-2.855445334011086009e-02,2.406508191298926402e-01,1.151140920333399542e+00,-6.698392820736143172e-01,1.705708874627420990e-01,-8.585232119124647232e-02,-6.704679943611123738e-01
2.083333333333333481e+00,1.644630265414994478e+09,-2.930700710113988763e-02,3.497950033730853892e-01,1.369429288819785206e+00,-6.698392820736143172e-01,1.769665429592467143e-01,-9.686142582238804755e-02,-6.506795306244319566e-01
2.100000000000000089e+00,1.644630265430951834e+09,-3.009433594532029063e-02,3.654784785282655379e-01,1.400796239130145393e+00,-6.698392820736143172e-01,1.821363251854144494e-01,-1.075405756547554437e-01,-6.308734673968365847e-01
2.116666666666666696e+00,1.644630265447984934e+09,-3.092228450703038076e-02,4.518976273425236445e-01,1.573634536758661717e+00,-6.698392820736143172e-01,1.859758859310554624e-01,-1.178798934786643299e-01,-6.099029243517013477e-01
2.133333333333333304e+00,1.644630265467035294e+09,-3.179640907272719003e-02,4.343150437889262694e-01,1.506419643236460937e+00,-6.377895556586082870e-01,1.883906746569827539e-01,-1.278746936970799331e-01,-5.895296954925205446e-01
2.149999999999999911e+00,1.644630265483989239e+09,-3.272190411987102587e-02,4.644230275439374944e-01,1.534585884331478356e+00,-6.057398292436033671e-01,1.892972150946907184e-01,-1.375284703201546943e-01,-5.689805814921352622e-01
2.166666666666666519e+00,1.644630265498950481e+09,-3.370353194204389613e-02,5.620659757426844649e-01,1.697822054313966378e+00,-5.736901028285972259e-01,1.886243125332044135e-01,-1.468292064126801855e-01,-5.471683405950116263e-01
2.183333333333333126e+00,1.644630265514907360e+09,-3.474555623324737663e-02,5.976364822945671174e-01,1.704863614587720511e+00,-5.095906499985862759e-01,1.863141780978903317e-01,-1.557648239353239539e-01,-5.251668787324935694e-01
2.200000000000000178e+00,1.644630265533822298e+09,-3.585168047269526176e-02,5.173413152510368818e-01,1.480173827670648867e+00,-4.454911971685752703e-01,1.823234567698138187e-01,-1.643484308887744050e-01,-5.049221922453622780e-01
2.216666666666666785e+00,1.644630265548781872e+09,-3.702499190929835204e-02,4.875747195483479124e-01,1.420640636265271040e+00,-4.454911971685752703e-01,1.766241464755438917e-01,-1.726023211756045617e-01,-4.855983208581339250e-01
2.233333333333333393e+00,1.644630265567766190e+09,-3.826791189278579836e-02,4.981370599589796666e-01,1.441765317086534548e+00,-4.454911971685752703e-01,1.692043962935579349e-01,-1.805363819059418728e-01,-4.665419025235876815e-01
2.250000000000000000e+00,1.644630265585684299e+09,-3.958215323644532352e-02,4.667701096486192580e-01,1.379031416465813731e+00,-4.454911971685752703e-01,1.600691726706753026e-01,-1.881610619265187967e-01,-4.484699011310225303e-01
2.266666666666666607e+00,1.644630265600680590e+09,-4.096868522535317830e-02,4.866358239145330833e-01,1.386713118582636461e+00,-4.134414707535703504e-01,1.492407835150424411e-01,-1.954857897978824477e-01,-4.305472298024992650e-01
2.283333333333333215e+00,1.644630265617635965e+09,-4.242770680437092656e-02,4.351044055475125072e-01,1.283650281848595309e+00,-4.134414707535703504e-01,1.367592511245394049e-01,-2.025231234694434002e-01,-4.139788351864041038e-01
2.299999999999999822e+00,1.644630265634553194e+09,-4.395862839288976892e-02,4.959391977698161535e-01,1.373270139878196572e+00,-3.813917443385642647e-01,1.226825261133397404e-01,-2.092801474180935040e-01,-3.969114491730347249e-01
2.316666666666666430e+00,1.644630265651508570e+09,-4.556006267919594788e-02,5.042823588604955498e-01,1.357906735644550444e+00,-3.493420179235594003e-01,1.070865358056682926e-01,-2.157560740534501531e-01,-3.802460409599086599e-01
2.333333333333333481e+00,1.644630265670458078e+09,-4.722982464738412905e-02,5.267086404986843773e-01,1.370709572505921958e+00,-3.172922915085532591e-01,9.006506196452812585e-02,-2.219557992050028850e-01,-3.637667541006356919e-01
2.350000000000000089e+00,1.644630265687443733e+09,-4.896494098503751530e-02,5.215875057541358162e-01,1.360467303016824836e+00,-3.172922915085532591e-01,7.172944420298131563e-02,-2.278863855612518197e-01,-3.479475519117681270e-01
2.366666666666666696e+00,1.644630265703394651e+09,-5.076166891155359240e-02,6.874055602396856868e-01,1.660053685572919768e+00,-2.852425650935483947e-01,5.220810697438357795e-02,-2.335352969282005753e-01,-3.299717460912515721e-01
2.383333333333333304e+00,1.644630265721359015e+09,-5.261552435623673835e-02,6.957487213303656937e-01,1.644690281339273641e+00,-2.531928386785423091e-01,3.164590964262822131e-02,-2.388887820581259702e-01,-3.124950171117762965e-01
2.399999999999999911e+00,1.644630265737312078e+09,-5.452131930334600668e-02,6.919078702719543283e-01,1.637008579222450910e+00,-2.531928386785423091e-01,1.020332078014670775e-02,-2.439568944275913864e-01,-2.957250515581091865e-01
2.416666666666666519e+00,1.644630265755237818e+09,-5.647320800948216202e-02,7.767692987401175753e-01,1.742631983328766454e+00,-1.890933858485313035e-01,-1.194458048438824284e-02,-2.487391616235027358e-01,-2.781957057246023379e-01
2.433333333333333126e+00,1.644630265772219181e+09,-5.846474168831731349e-02,7.566048306834575188e-01,1.702303047215446341e+00,-1.890933858485313035e-01,-3.460927156013914041e-02,-2.532376098023453315e-01,-2.616639982270377307e-01
2.450000000000000178e+00,1.644630265789138794e+09,-6.048893115004628368e-02,8.315227434532691531e-01,1.820089146340064579e+00,-1.570436594335263836e-01,-5.759011573783406890e-02,-2.574556393167545809e-01,-2.445470915840379234e-01
2.466666666666666785e+00,1.644630265806126595e+09,-6.253831677937002342e-02,9.425873532256674459e-01,2.042218365884861164e+00,-1.570436594335263836e-01,-8.067584592627151385e-02,-2.613785995627198044e-01,-2.262589395497494327e-01
2.483333333333333393e+00,1.644630265824045897e+09,-6.460504513760058354e-02,8.990577078970042324e-01,1.955159075227534737e+00,-1.570436594335263836e-01,-1.036461932945729053e-01,-2.650084682556373417e-01,-2.093722122801247032e-01
2.500000000000000000e+00,1.644630265839046240e+09,-6.668095138284858836e-02,8.926776065971070429e-01,1.910349146212734439e+00,-1.249939330185202979e-01,-1.262736497535985880e-01,-2.683632304356092235e-01,-1.932440508194276929e-01
2.516666666666666607e+00,1.644630265855996609e+09,-6.875764661841222980e-02,9.406882448272505526e-01,2.006370422673021459e+00,-1.249939330185202979e-01,-1.483253516964993524e-01,-2.714478320930451272e-01,-1.769534009431459332e-01
2.533333333333333215e+00,1.644630265872947693e+09,-7.082660920455455256e-02,1.039270088659811631e+00,2.203534110338143392e+00,-1.249939330185202979e-01,-1.695650709866683425e-01,-2.742524904590658563e-01,-1.596536589492394687e-01
2.549999999999999822e+00,1.644630265891866684e+09,-7.287927900387676516e-02,1.113206471534232467e+00,2.351406876086985065e+00,-1.249939330185202979e-01,-1.897552978460328443e-01,-2.767637857949645230e-01,-1.417515107185374768e-01
2.566666666666666430e+00,1.644630265907822371e+09,-7.490715347641031807e-02,9.915795213512025308e-01,2.108152975720925415e+00,-1.249939330185202979e-01,-2.086593990722892256e-01,-2.789985948662727089e-01,-1.264680329425807437e-01
2.583333333333333481e+00,1.644630265925773144e+09,-7.690188449820176131e-02,9.016395924000669693e-01,1.928273117818654070e+00,-1.249939330185202979e-01,-2.260438339136578434e-01,-2.809956139642368345e-01,-1.132110845365098123e-01
2.600000000000000089e+00,1.644630265941731691e+09,-7.885537474725898277e-02,8.808136653695497476e-01,1.918670990172625768e+00,-1.570436594335263836e-01,-2.416804089668792010e-01,-2.827785511974099664e-01,-1.007759263632921481e-01
2.616666666666666696e+00,1.644630265957689762e+09,-8.075987248385854689e-02,9.512505852378819737e-01,2.027495103494284301e+00,-1.249939330185202979e-01,-2.553485526500539060e-01,-2.843481124129217941e-01,-8.760799793798315638e-02
2.633333333333333304e+00,1.644630265975642920e+09,-8.260806354881557179e-02,9.192434930844529672e-01,1.963480919187426288e+00,-1.249939330185202979e-01,-2.668375891471253536e-01,-2.857060346225155367e-01,-7.537664399610061183e-02
2.649999999999999911e+00,1.644630265992596626e+09,-8.439315941369834873e-02,8.689923584035695869e-01,1.862978649825659527e+00,-1.249939330185202979e-01,-2.759489912345167162e-01,-2.868699895169861125e-01,-6.432863298214584746e-02
2.666666666666666519e+00,1.644630266008554220e+09,-8.610898014126169842e-02,1.009524810087910840e+00,2.111993826779337002e+00,-9.294420660351540575e-02,-2.824985910906069875e-01,-2.878328310730032258e-01,-5.124868777617369586e-02
2.683333333333333126e+00,1.644630266026506186e+09,-8.775003115256864439e-02,9.663152356807814813e-01,2.025574677965078507e+00,-9.294420660351540575e-02,-2.863187280617645603e-01,-2.885859759180144923e-01,-3.916226780417879361e-02
2.700000000000000178e+00,1.644630266042463303e+09,-8.931157274919049316e-02,1.070359602310214209e+00,2.201613684808937599e+00,-6.089448018850930622e-02,-2.872603124193908730e-01,-2.891251092047837923e-01,-2.557147968589575798e-02
2.716666666666666785e+00,1.644630266059449673e+09,-9.078968140418587629e-02,1.048594779645882547e+00,2.158084039480274718e+00,-6.089448018850930622e-02,-2.851947843942270744e-01,-2.894423273990896495e-01,-1.253092823739565195e-02
2.733333333333333393e+00,1.644630266077401161e+09,-9.218130191376204541e-02,9.612154180670213766e-01,1.983325316322551934e+00,-6.089448018850930622e-02,-2.800159482184241821e-01,-2.895553578143111317e-01,-1.064573324697559720e-03
2.750000000000000000e+00,1.644630266094323635e+09,-9.348428959195954902e-02,9.445717301472383864e-01,1.950037940482986176e+00,-6.089448018850930622e-02,-2.716416615426790471e-01,-2.894800082268089159e-01,1.007557823120954280e-02
2.766666666666666607e+00,1.644630266111315250e+09,-9.469744179257369443e-02,1.002525884075732954e+00,2.033896521924970280e+00,-2.884475377350440711e-02,-2.600153614229339105e-01,-2.892109176429679684e-01,2.218166302491525466e-02
2.783333333333333215e+00,1.644630266128265142e+09,-9.582051815487060975e-02,1.072621415891742203e+00,2.174087585556989222e+00,-2.884475377350440711e-02,-2.451074090852841114e-01,-2.887299903540586077e-01,3.549263584944688937e-02
2.799999999999999822e+00,1.644630266145186901e+09,-9.685424909138604099e-02,1.059498508108836168e+00,2.147841769991176708e+00,-2.884475377350440711e-02,-2.269162368732839941e-01,-2.880283520050702095e-01,4.866736868771767699e-02
2.816666666666666430e+00,1.644630266162176847e+09,-9.780033216599062773e-02,9.846019124698126568e-01,1.998048578713129686e+00,-2.884475377350440711e-02,-2.054692821516544976e-01,-2.871163369671907439e-01,6.074089748847416592e-02
2.833333333333333481e+00,1.644630266179096937e+09,-9.866141614712532759e-02,9.980448911742527685e-01,2.024934536122009909e+00,-2.884475377350440711e-02,-1.808236944756321241e-01,-2.859995032393273795e-01,7.324441703892116406e-02
2.850000000000000089e+00,1.644630266196050882e+09,-9.944107266322296801e-02,9.916434727435669005e-01,2.012131699260638396e+00,-2.884475377350440711e-02,-1.530668040253570783e-01,-2.846730548828646512e-01,8.589424649442861659e-02
2.866666666666666696e+00,1.644630266212043762e+09,-1.001437555332959778e-01,8.124250738151532758e-01,1.621645174988805005e+00,3.204972641501691987e-03,-1.223163411375322585e-01,-2.831580297016402792e-01,9.588103352449790784e-02
2.883333333333333304e+00,1.644630266228996515e+09,-1.007747479939006818e-01,8.613959248098996824e-01,1.719586876978297596e+00,3.204972641501691987e-03,-8.872039872868232868e-02,-2.814665332832190781e-01,1.070674625407636721e-01
2.899999999999999911e+00,1.644630266247912407e+09,-1.013400981925068889e-01,7.900201093077532377e-01,1.576835245974004707e+00,3.204972641501691987e-03,-5.245713148053156999e-02,-2.795949912190358599e-01,1.174886367737008330e-01
2.916666666666666519e+00,1.644630266263869286e+09,-1.018465434650291934e-01,7.641369989250517136e-01,1.460969572378592041e+00,6.730442547151148369e-02,-1.373418783199443008e-02,-2.775494288512445618e-01,1.279497879241271729e-01
2.933333333333333126e+00,1.644630266280824423e+09,-1.023014240601865799e-01,7.394915379669112498e-01,1.411678650462310891e+00,6.730442547151148369e-02,2.721212692335635286e-02,-2.753287073816361175e-01,1.385074608693565024e-01
2.950000000000000178e+00,1.644630266299808979e+09,-1.027125871137294782e-01,7.356506869084998845e-01,1.403996948345488160e+00,6.730442547151148369e-02,7.011795581937370347e-02,-2.729280872530977509e-01,1.495363181196160407e-01
2.966666666666666785e+00,1.644630266315730810e+09,-1.030882818097265535e-01,7.612776777620321456e-01,1.423201203637545431e+00,9.935415188651879059e-02,1.146932607054511610e-01,-2.703354797722050673e-01,1.615432262798481011e-01
2.983333333333333393e+00,1.644630266331688881e+09,-1.034370467923464154e-01,6.508532098327023396e-01,1.202352267778886041e+00,9.935415188651879059e-02,1.606234526863475898e-01,-2.675533235370294860e-01,1.722856810866567057e-01
3.000000000000000000e+00,1.644630266350716591e+09,-1.037675910083271924e-01,7.183881742764374190e-01,1.337422196666355978e+00,9.935415188651879059e-02,2.075712747770475930e-01,-2.645777977220254429e-01,1.847428127558774225e-01
3.016666666666666607e+00,1.644630266365742922e+09,-1.040886692660586699e-01,8.454563301255503260e-01,1.591558508364581792e+00,9.935415188651879059e-02,2.551789266730419836e-01,-2.613722473213856978e-01,1.998811833018808715e-01
3.033333333333333215e+00,1.644630266381823301e+09,-1.044089538904678510e-01,1.069207221408806863e+00,2.007010564516090056e+00,1.314038783015236689e-01,3.030704192143396369e-01,-2.578789622826770933e-01,2.192591922735580290e-01
3.049999999999999822e+00,1.644630266399731874e+09,-1.047369039323981232e-01,1.024696046184752518e+00,1.950037940482986176e+00,9.935415188651879059e-02,3.508541438613422270e-01,-2.540649349218828679e-01,2.383710014135320687e-01
3.066666666666666430e+00,1.644630266417683363e+09,-1.050806334556984439e-01,1.038779166732261228e+00,1.978204181578003595e+00,9.935415188651879059e-02,3.981256403237707353e-01,-2.499265428110548082e-01,2.581810227536378566e-01
3.083333333333333481e+00,1.644630266434637785e+09,-1.054477804737534857e-01,9.725244859746631221e-01,1.845694820062807606e+00,9.935415188651879059e-02,4.444705434106602793e-01,-2.454634697963500589e-01,2.773345335620218677e-01
3.100000000000000089e+00,1.644630266450594902e+09,-1.058453781388081771e-01,9.955695923251319801e-01,1.891785032763745100e+00,9.935415188651879059e-02,4.894676882203197188e-01,-2.406744190642941261e-01,2.972961041723901077e-01
3.116666666666666696e+00,1.644630266468515396e+09,-1.062797298014448583e-01,1.037200129255377856e+00,1.942996380209231821e+00,1.314038783015236689e-01,5.326923509834319281e-01,-2.355437123483030692e-01,3.183302721270458990e-01
3.133333333333333304e+00,1.644630266486465931e+09,-1.067562895534498318e-01,1.094791578000761989e+00,2.090229004115005118e+00,9.935415188651879059e-02,5.737196012286874813e-01,-2.300517201522619404e-01,3.406467995848289076e-01
3.149999999999999911e+00,1.644630266503455162e+09,-1.072795498446968560e-01,1.100254100797632750e+00,2.069104323293741832e+00,1.314038783015236689e-01,6.121277394758094514e-01,-2.241848087642386023e-01,3.633195855346962877e-01
3.166666666666666519e+00,1.644630266519417048e+09,-1.078529377234649089e-01,1.152105590086187403e+00,2.172807301870851138e+00,1.314038783015236689e-01,6.475017933916453750e-01,-2.179311015513421823e-01,3.870593347130970585e-01
3.183333333333333126e+00,1.644630266535437584e+09,-1.084787211898529946e-01,1.461934242131379680e+00,2.792464605961235691e+00,1.314038783015236689e-01,6.794370442858682635e-01,-2.112378061973367305e-01,4.160555607993790539e-01
3.200000000000000178e+00,1.644630266551396132e+09,-1.091579270739318069e-01,1.381916511747807608e+00,2.632429145194091547e+00,1.314038783015236689e-01,7.075425549865974606e-01,-2.040724155234605319e-01,4.437144879044095935e-01
3.216666666666666785e+00,1.644630266570433378e+09,-1.098902717544763818e-01,1.290717616241323196e+00,2.417981627766117469e+00,1.634536047165285888e-01,7.314446695344714033e-01,-1.964591580609450494e-01,4.698039352048240525e-01
3.233333333333333393e+00,1.644630266587385178e+09,-1.106741059212383582e-01,1.107658366254497206e+00,2.019813401377461126e+00,1.955033311315334810e-01,7.507904547755328561e-01,-1.884372921496740017e-01,4.927562163107201965e-01
3.250000000000000000e+00,1.644630266603467703e+09,-1.115063744546392344e-01,1.169133300319869839e+00,2.110713543093198918e+00,2.275530575465407879e-01,7.652510538263752604e-01,-1.800255701467665670e-01,5.165842335435835153e-01
3.266666666666666607e+00,1.644630266623059988e+09,-1.123825923525992310e-01,1.246611780461956087e+00,2.233620776962366605e+00,2.596027839615456800e-01,7.745249215345080263e-01,-1.712080233833691290e-01,5.414522984801271033e-01
3.283333333333333215e+00,1.644630266637412310e+09,-1.132968374762269581e-01,1.253311952683388464e+00,2.279070847820236168e+00,2.275530575465407879e-01,7.783409124662669099e-01,-1.619779911628647928e-01,5.660831473454503993e-01
3.299999999999999822e+00,1.644630266654372454e+09,-1.142417607157556608e-01,1.299103411593579560e+00,2.338604039225613551e+00,2.596027839615456800e-01,7.764611926244984197e-01,-1.523347817084296230e-01,5.910326812946498087e-01
3.316666666666666430e+00,1.644630266671367884e+09,-1.152086139970374262e-01,1.206922986191704350e+00,2.154243188421863131e+00,2.596027839615456800e-01,7.686839470277311293e-01,-1.422929989336469414e-01,6.139176807401910407e-01
3.333333333333333481e+00,1.644630266689315796e+09,-1.161872963588775065e-01,1.090417170753222864e+00,1.921231557544899937e+00,2.596027839615456800e-01,7.548458564676959748e-01,-1.318909635543153158e-01,6.342700291478747809e-01
3.350000000000000089e+00,1.644630266707304716e+09,-1.171664181344118510e-01,1.029603695661707841e+00,1.799604607361869890e+00,2.596027839615456800e-01,7.348243181973361793e-01,-1.211636984170861575e-01,6.529498975749630230e-01
3.366666666666666696e+00,1.644630266723429918e+09,-1.181333830676205426e-01,7.623444761805761027e-01,1.265086168399606636e+00,2.596027839615456800e-01,7.085393869784362142e-01,-1.101682266767181478e-01,6.664691568872451732e-01
3.383333333333333304e+00,1.644630266740463734e+09,-1.190744879910515114e-01,5.267935950621269736e-01,7.619346797477034583e-01,2.916525103765505444e-01,6.759554148264449447e-01,-9.898633615437932298e-02,6.753330831963825220e-01
3.399999999999999911e+00,1.644630266758382320e+09,-1.199750394850866014e-01,4.755822476166407520e-01,6.595119848567309040e-01,2.916525103765505444e-01,6.370823699174829047e-01,-8.767038031803438269e-02,6.825615376522730093e-01
3.416666666666666519e+00,1.644630266774338245e+09,-1.208194867348522522e-01,4.275502922557093410e-01,5.954978005498730020e-01,2.596027839615456800e-01,5.919768174539993266e-01,-7.624781283754780703e-02,6.881310886669482763e-01
3.433333333333333126e+00,1.644630266791418791e+09,-1.215915696004377794e-01,1.298013919807728400e-01,0.000000000000000000e+00,2.596027839615456800e-01,5.407425478046564704e-01,-6.478139050554433676e-02,6.878403986647019241e-01
3.449999999999999734e+00,1.644630266808372974e+09,-1.222744807216889357e-01,1.298013919807728400e-01,0.000000000000000000e+00,2.596027839615456800e-01,4.835308399220470954e-01,-5.332767496630322346e-02,6.866088869905078163e-01
3.466666666666666785e+00,1.644630266825325727e+09,-1.228510402927512207e-01,-2.515162887952083204e-01,-7.626353615519623208e-01,2.596027839615456800e-01,4.205403508784530953e-01,-4.195568259073753636e-02,6.780539623163295282e-01
3.483333333333333393e+00,1.644630266843398809e+09,-1.233038819659369734e-01,-3.474151459418221011e-01,-9.223833494301849623e-01,2.275530575465407879e-01,3.520166253232023257e-01,-3.074780081177507646e-02,6.669227718603900623e-01
3.500000000000000000e+00,1.644630266860354185e+09,-1.236156481815209457e-01,-4.052132165265287522e-01,-1.070029217014603296e+00,2.596027839615456800e-01,2.782512217317889558e-01,-1.974207304086461265e-02,6.538010108429006539e-01
3.516666666666666607e+00,1.644630266876310349e+09,-1.237691930717469829e-01,-5.210805721579203631e-01,-1.269714201862381486e+00,2.275530575465407879e-01,1.995804554620637383e-01,-8.980098605199087619e-03,6.376807011289709060e-01
3.533333333333333215e+00,1.644630266893383026e+09,-1.237477909555771277e-01,-5.474131299787344807e-01,-1.354429043919014530e+00,2.596027839615456800e-01,1.163837618311839295e-01,1.500302312259747806e-03,6.200164774090528574e-01
3.549999999999999822e+00,1.644630266910371780e+09,-1.235353483273000791e-01,-6.439170931400386433e-01,-1.515387243826618047e+00,2.275530575465407879e-01,2.908168565132963207e-02,1.166335191057969733e-02,5.996061710192543970e-01
3.566666666666666430e+00,1.644630266928325176e+09,-1.231166171486382660e-01,-7.640201908742629833e-01,-1.723543712880059475e+00,1.955033311315334810e-01,-6.186649311384705835e-02,2.145989830982044863e-02,5.760448465535451534e-01
3.583333333333333481e+00,1.644630266946275949e+09,-1.224774071818700294e-01,-9.540234794869977275e-01,-2.103550290105529186e+00,1.955033311315334810e-01,-1.559654847148852219e-01,3.082776992115569131e-02,5.481771588721785493e-01
3.600000000000000089e+00,1.644630266963230371e+09,-1.216047950519469900e-01,-1.172758857615729289e+00,-2.508971319947987055e+00,1.634536047165285888e-01,-2.526870500079997917e-01,3.969145809963319643e-02,5.155560388999722576e-01
3.616666666666666696e+00,1.644630266980183601e+09,-1.204873276996091397e-01,-1.316168983097316003e+00,-2.795791570911160928e+00,1.634536047165285888e-01,-3.514733768208039288e-01,4.798251429576820548e-02,4.794709433718685743e-01
3.633333333333333304e+00,1.644630266997140408e+09,-1.191152178858624067e-01,-1.431744231903151254e+00,-3.026942068522830986e+00,1.634536047165285888e-01,-4.517407502970109401e-01,5.564732403381240228e-02,4.404147172638216978e-01
3.649999999999999911e+00,1.644630267013370991e+09,-1.174805294313989168e-01,-1.340060224495791319e+00,-2.811524327293106307e+00,1.314038783015236689e-01,-5.528834924189388600e-01,6.266528469033537385e-02,4.018476946587198895e-01
3.666666666666666519e+00,1.644630267031015158e+09,-1.155773499228558016e-01,-1.231433248677104908e+00,-2.562220649240728676e+00,9.935415188651879059e-02,-6.542781432654448670e-01,6.904678746551325130e-02,3.640376686844994936e-01
3.683333333333333126e+00,1.644630267048087358e+09,-1.134019486912336838e-01,-1.304651076454623304e+00,-2.708656304795765468e+00,9.935415188651879059e-02,-7.552878541107495014e-01,7.477928108620535141e-02,3.239728595543844847e-01
3.699999999999999734e+00,1.644630267064038515e+09,-1.109529179660571907e-01,-1.409021417806901599e+00,-2.885347261085315029e+00,6.730442547151148369e-02,-8.552669602305595919e-01,7.982133681184111484e-02,2.811926641947910532e-01
3.716666666666666785e+00,1.644630267081990480e+09,-1.082312952313990856e-01,-1.386027389248672970e+00,-2.839359203968857326e+00,6.730442547151148369e-02,-9.535656992784784514e-01,8.414589697922508771e-02,2.378748858852878789e-01
3.733333333333333393e+00,1.644630267098986626e+09,-1.052406649559281676e-01,-1.504607275764381802e+00,-3.012419524170265372e+00,3.204972641501691987e-03,-1.049535039348081344e+00,8.772484360170858253e-02,1.917269006775966789e-01
3.750000000000000000e+00,1.644630267116937637e+09,-1.019872380375616283e-01,-1.455593688574472244e+00,-2.914392349790446257e+00,3.204972641501691987e-03,-1.142531579363227801e+00,9.053495617275018892e-02,1.456147003075934088e-01
3.766666666666666607e+00,1.644630267132895231e+09,-9.847990749282305167e-02,-1.481905354031709754e+00,-2.934965954289915135e+00,-2.884475377350440711e-02,-1.231922483257968493e+00,9.256692021447102126e-02,9.835227231104462509e-02
3.783333333333333215e+00,1.644630267149070024e+09,-9.473027912999706923e-02,-1.403241572121978642e+00,-2.777638390470452912e+00,-2.884475377350440711e-02,-1.317090408531546464e+00,9.381680667752671787e-02,5.176351950376350403e-02
3.799999999999999822e+00,1.644630267168059349e+09,-9.075267617186411062e-02,-1.377827119504988929e+00,-2.726809485236473485e+00,-2.884475377350440711e-02,-1.397438389206312470e+00,9.428906134260632566e-02,5.036839693495533121e-03
3.816666666666666430e+00,1.644630267186045885e+09,-8.656411703611845143e-02,-1.415635799241339754e+00,-2.770377118294170327e+00,-6.089448018850930622e-02,-1.472394632985514651e+00,9.397341677567638829e-02,-4.278135627668875479e-02
3.833333333333333481e+00,1.644630267201966286e+09,-8.218426573732860729e-02,-1.653129463825469658e+00,-3.213314721047423994e+00,-9.294420660351540575e-02,-1.541417192511056689e+00,9.282507077518055427e-02,-9.487545454846835202e-02
3.850000000000000089e+00,1.644630267217304707e+09,-7.763535464102282180e-02,-1.618638420988126159e+00,-3.144332635372736995e+00,-9.294420660351540575e-02,-1.603998471062286768e+00,9.081180522896212248e-02,-1.465728038697567959e-01
3.866666666666666696e+00,1.644630267236281872e+09,-7.294207957566060940e-02,-1.782622150969180419e+00,-3.472300095334845516e+00,-9.294420660351540575e-02,-1.659669523816945436e+00,8.791371882954643335e-02,-2.010462453834431784e-01
3.883333333333333304e+00,1.644630267253216982e+09,-6.813146758912132228e-02,-1.580495849699064426e+00,-3.003948039964602135e+00,-1.570436594335263836e-01,-1.708004116912549275e+00,8.413650742462920606e-02,-2.520773667553861674e-01
3.899999999999999911e+00,1.644630267270171404e+09,-6.323271792012379044e-02,-1.622248164712690510e+00,-3.087452669991854748e+00,-1.570436594335263836e-01,-1.748622507996483666e+00,7.950444869109975221e-02,-3.036264859003429684e-01
3.916666666666666519e+00,1.644630267286128521e+09,-5.827701703877762734e-02,-1.496991219671811368e+00,-2.836938779910096020e+00,-1.570436594335263836e-01,-1.781194913727970563e+00,7.403315959669516666e-02,-3.527916323626014150e-01
3.933333333333333126e+00,1.644630267304079771e+09,-5.329732889132084844e-02,-1.493965689598360180e+00,-2.830887719763194088e+00,-1.570436594335263836e-01,-1.805444631784760334e+00,6.774631061371311214e-02,-4.014949554026713829e-01
3.949999999999999734e+00,1.644630267320037127e+09,-4.832816175904117856e-02,-1.519672249040906253e+00,-2.850251112233280981e+00,-1.890933858485313035e-01,-1.821150787318368991e+00,6.064874656248682439e-02,-4.500777752907663132e-01
3.966666666666666785e+00,1.644630267338023424e+09,-4.340531340748852995e-02,-1.442823785175246343e+00,-2.696554184501961604e+00,-1.890933858485313035e-01,-1.828150676478064618e+00,5.275782664977413799e-02,-4.967030964056088349e-01
3.983333333333333393e+00,1.644630267354944706e+09,-3.856559645641290807e-02,-1.359027048322437148e+00,-2.561010437211347579e+00,-1.570436594335263836e-01,-1.826341682566902769e+00,4.410808187067906394e-02,-5.411428304746693785e-01
4.000000000000000000e+00,1.644630267372897148e+09,-3.384654614060662176e-02,-1.160844382329595526e+00,-2.132595378810659525e+00,-1.890933858485313035e-01,-1.815682743581678027e+00,3.475265820202892708e-02,-5.813961922378737546e-01
4.016666666666666607e+00,1.644630267389883757e+09,-2.928611285423727423e-02,-9.563185493642953894e-01,-1.723543712880059475e+00,-1.890933858485313035e-01,-1.796195353299167241e+00,2.476284580324185358e-02,-6.172816115501443823e-01
4.033333333333333215e+00,1.644630267406806946e+09,-2.492234207374862190e-02,-7.977807735154531787e-01,-1.406468161182375054e+00,-1.890933858485313035e-01,-1.767964081677645627e+00,1.420569622863378755e-02,-6.494868762287546726e-01
4.049999999999999822e+00,1.644630267423761368e+09,-2.079304443452771947e-02,-7.058046592825371057e-01,-1.222515932716542908e+00,-1.890933858485313035e-01,-1.731136604117658351e+00,3.134030866310175828e-03,-6.790308985897676175e-01
4.066666666666666430e+00,1.644630267441791534e+09,-1.693545889207713137e-02,-9.454669292426565175e-02,0.000000000000000000e+00,-1.890933858485313035e-01,-1.685923233039614999e+00,-8.335282084899874738e-03,-6.972360844046222583e-01
4.083333333333333037e+00,1.644630267456784487e+09,-1.338591202734303737e-02,-7.852182971676319179e-02,0.000000000000000000e+00,-1.570436594335263836e-01,-1.632595949256981260e+00,-2.009592133719522583e-02,-7.139940748018893668e-01
4.099999999999999645e+00,1.644630267473740339e+09,-1.017947665637503919e-02,-7.852182971676319179e-02,0.000000000000000000e+00,-1.570436594335263836e-01,-1.571486934719982020e+00,-3.212510539987011027e-02,-7.294650368131602169e-01
4.116666666666666252e+00,1.644630267490660429e+09,-7.349632975106321249e-03,-7.852182971676319179e-02,0.000000000000000000e+00,-1.570436594335263836e-01,-1.502986612342250172e+00,-4.440054067370045182e-02,-7.435480755736467717e-01
4.133333333333332860e+00,1.644630267508613110e+09,-4.927935509533462773e-03,-7.852182971676319179e-02,0.000000000000000000e+00,-1.570436594335263836e-01,-1.427541202767416362e+00,-5.689832754624937761e-02,-7.561513392425008862e-01
4.150000000000000355e+00,1.644630267524605751e+09,-2.943689148993810546e-03,-4.647210330175770288e-02,0.000000000000000000e+00,-9.294420660351540575e-02,-1.345649812049325433e+00,-6.958869044026083639e-02,-7.666630082710075289e-01
4.166666666666666963e+00,1.644630267541557312e+09,-1.423637515006078965e-03,-3.044724009425465311e-02,0.000000000000000000e+00,-6.089448018850930622e-02,-1.257861068273085081e+00,-8.243845715391291684e-02,-7.752850466968110865e-01
4.183333333333333570e+00,1.644630267559511185e+09,-3.916668599535840238e-04,3.082707381370707878e-01,6.774359564626509789e-01,-6.089448018850930622e-02,-1.164769329099944351e+00,-9.537109185411701828e-02,-7.766273885126548926e-01
4.200000000000000178e+00,1.644630267576431274e+09,1.314714011861068527e-04,3.854078302268346135e-01,8.317101406421785192e-01,-6.089448018850930622e-02,-1.067010486041555462e+00,-1.083017567991664265e-01,-7.750567678311841568e-01
4.216666666666666785e+00,1.644630267593386650e+09,1.284165464287266600e-04,4.436607379460753009e-01,9.482159560806598941e-01,-6.089448018850930622e-02,-9.652573949257013952e-01,-1.211843615593727191e-01,-7.708674406873049501e-01
4.233333333333333393e+00,1.644630267611338377e+09,-4.145700346085596805e-04,5.038553883253097387e-01,1.036555530424124072e+00,-2.884475377350440711e-02,-8.602149654716692018e-01,-1.339749002045547144e-01,-7.640162283278956190e-01
4.250000000000000000e+00,1.644630267627322912e+09,-1.507400497356155711e-03,5.912134327733828965e-01,1.243321345735274974e+00,-6.089448018850930622e-02,-7.526149461186395495e-01,-1.466252705648988519e-01,-7.540558831899724090e-01
4.266666666666666607e+00,1.644630267644251585e+09,-3.155985697161859966e-03,5.819313760488883380e-01,1.224757232286286079e+00,-6.089448018850930622e-02,-6.432104432138319172e-01,-1.590971819385600117e-01,-7.426052896023936922e-01
4.283333333333333215e+00,1.644630267662236452e+09,-5.362092022472787246e-03,5.800109505196826554e-01,1.220916381227874714e+00,-6.089448018850930622e-02,-5.327702163403081892e-01,-1.713648428383514333e-01,-7.295502831329460092e-01
4.299999999999999822e+00,1.644630267678193808e+09,-8.123231818011819594e-03,6.248208795344831756e-01,1.310536239257475533e+00,-6.089448018850930622e-02,-4.220727939218931746e-01,-1.833952447080193782e-01,-7.141407465030682467e-01
4.316666666666666430e+00,1.644630267695146799e+09,-1.143258901803354682e-02,6.507466241787607242e-01,1.362387728546030852e+00,-6.089448018850930622e-02,-3.119004552594152879e-01,-1.951521514049022188e-01,-6.967364036575296460e-01
4.333333333333333037e+00,1.644630267712122679e+09,-1.527898129750708718e-02,7.208421559947699730e-01,1.502578792178049349e+00,-6.089448018850930622e-02,-2.030331268082909146e-01,-2.065966711779867737e-01,-6.766617333980037285e-01
4.349999999999999645e+00,1.644630267729076385e+09,-1.964685971909624004e-02,7.105998865056727398e-01,1.482094253199854883e+00,-6.089448018850930622e-02,-9.624224178327736579e-02,-2.176960504939327024e-01,-6.553230600033511655e-01
4.366666666666666252e+00,1.644630267746032000e+09,-2.451634650911881791e-02,7.317245673269360262e-01,1.524343614842381234e+00,-6.089448018850930622e-02,7.715386943522545109e-03,-2.284254561305104902e-01,-6.322696551289324063e-01
4.383333333333332860e+00,1.644630267762966394e+09,-2.986331123951768349e-02,7.055000688919121909e-01,1.439844891557328754e+00,-2.884475377350440711e-02,1.081036302128443316e-01,-2.387635789668567932e-01,-6.083714706408401840e-01
4.400000000000000355e+00,1.644630267778923512e+09,-3.565948532873891574e-02,7.032382553103843081e-01,1.467370990809277798e+00,-6.089448018850930622e-02,2.042129917221399416e-01,-2.486937372874205576e-01,-5.833171248697344158e-01
4.416666666666666963e+00,1.644630267796875715e+09,-4.187261440577141197e-02,6.734716596076953943e-01,1.407837799403899970e+00,-6.089448018850930622e-02,2.953663928158265506e-01,-2.582013049210143407e-01,-5.576622563624152873e-01
4.433333333333333570e+00,1.644630267812833071e+09,-4.846664771214519163e-02,7.755956007079215508e-01,1.580035955189347474e+00,-2.884475377350440711e-02,3.809247435855473429e-01,-2.672589121042576177e-01,-5.293293101076141927e-01
4.450000000000000178e+00,1.644630267831783295e+09,-5.540196335012069484e-02,7.304656007715868427e-01,1.489775955316678280e+00,-2.884475377350440711e-02,4.602922521590796512e-01,-2.758434879754850799e-01,-5.008987700208756833e-01
4.466666666666666785e+00,1.644630267848737478e+09,-6.263562782529369377e-02,7.819970191386074188e-01,1.592838792050719210e+00,-2.884475377350440711e-02,5.329214256887919721e-01,-2.839409992294110174e-01,-4.708859513531597485e-01
4.483333333333333393e+00,1.644630267865694523e+09,-7.012168798218523791e-02,8.281085489703335911e-01,1.653012125299165636e+00,3.204972641501691987e-03,5.983177185928879593e-01,-2.915270407082494741e-01,-4.395261387482676252e-01
4.500000000000000000e+00,1.644630267882649422e+09,-7.781149309564448779e-02,8.594968164114817899e-01,1.683738933766457002e+00,3.525469905650659153e-02,6.560437860419743306e-01,-2.985824415602371662e-01,-4.072117278553890052e-01
4.516666666666666607e+00,1.644630267899567127e+09,-8.565404456267419753e-02,8.041458641168378607e-01,1.540987302762164113e+00,6.730442547151148369e-02,7.057233035041250435e-01,-3.051045155213089610e-01,-3.755251677673011601e-01
4.533333333333333215e+00,1.644630267916521788e+09,-9.359637034200059269e-02,9.427365731411850858e-01,1.818168720810858785e+00,6.730442547151148369e-02,7.470443163448879931e-01,-3.110780072142745878e-01,-3.413886612495676820e-01
4.549999999999999822e+00,1.644630267931517601e+09,-1.015839210156002925e-01,9.949294504820634932e-01,1.890504749077608349e+00,9.935415188651879059e-02,7.797620870014354555e-01,-3.164755441821886506e-01,-3.064129319902619830e-01
4.566666666666666430e+00,1.644630267949468613e+09,-1.095609841005123763e-01,1.169368102718251423e+00,2.239382053549983986e+00,9.935415188651879059e-02,8.037014110872497952e-01,-3.212675831292169382e-01,-2.687364011464753455e-01
4.583333333333333037e+00,1.644630267967420340e+09,-1.174711130234369766e-01,1.128078953840327747e+00,2.156803755794136634e+00,9.935415188651879059e-02,8.187583779065049638e-01,-3.254405069988301480e-01,-2.321161884144149201e-01
4.599999999999999645e+00,1.644630267983376741e+09,-1.252575669873527420e-01,1.147944668106241961e+00,2.164485457910960253e+00,1.314038783015236689e-01,8.249015552342205959e-01,-3.290045596305460895e-01,-1.956713653936912878e-01
4.616666666666666252e+00,1.644630268001327991e+09,-1.328637578109489181e-01,1.111755336842079389e+00,2.124156521797639918e+00,9.935415188651879059e-02,8.221725828157009364e-01,-3.319716077379142871e-01,-1.604721852920267811e-01
4.633333333333332860e+00,1.644630268017286539e+09,-1.402336997099579152e-01,1.099315205163817755e+00,2.035176805611107032e+00,1.634536047165285888e-01,8.106861638204835296e-01,-3.343601693190247359e-01,-1.262502675611779646e-01
4.650000000000000355e+00,1.644630268036202908e+09,-1.473124579160492442e-01,1.101875772536092146e+00,2.040297940355655815e+00,1.634536047165285888e-01,7.906294484135344414e-01,-3.361855089296704180e-01,-9.288317426803852084e-02
4.666666666666666963e+00,1.644630268051195621e+09,-1.540465919950145812e-01,1.174553188855163688e+00,2.153603046578794089e+00,1.955033311315334810e-01,7.622608086405707750e-01,-3.374532190480132865e-01,-5.933523085810007286e-02
4.683333333333333570e+00,1.644630268068149090e+09,-1.603845897323253333e-01,1.275076775347719904e+00,2.322600493148899048e+00,2.275530575465407879e-01,7.259080089233042044e-01,-3.381575671337849753e-01,-2.528113636781131185e-02
4.700000000000000178e+00,1.644630268085071087e+09,-1.662772875011672147e-01,1.325669298080925484e+00,2.391735812200305400e+00,2.596027839615456800e-01,6.819657815821551505e-01,-3.382981320044570195e-01,8.320013163912072518e-03
4.716666666666666785e+00,1.644630268103057384e+09,-1.716782731158029984e-01,1.378843705317193802e+00,2.433985173842831973e+00,3.237022367915554644e-01,6.308928219056089137e-01,-3.378830284708208009e-01,4.140051841732257654e-02
4.733333333333333393e+00,1.644630268118980885e+09,-1.765442673010773622e-01,1.394228426681627608e+00,2.432704890156694333e+00,3.557519632065603843e-01,5.732082223235686058e-01,-3.369269947591387315e-01,7.323509552239379494e-02
4.750000000000000000e+00,1.644630268136932611e+09,-1.808354800763229964e-01,1.388787221015544526e+00,2.421822478824528613e+00,3.557519632065603843e-01,5.094873701734446980e-01,-3.354543344679818961e-01,1.034003450843867800e-01
4.766666666666666607e+00,1.644630268153886795e+09,-1.845159385575117217e-01,1.291186907078375468e+00,2.194572124535183022e+00,3.878016896215676357e-01,4.403573383295842913e-01,-3.335061153353325314e-01,1.303111967085367473e-01
4.783333333333333215e+00,1.644630268170899391e+09,-1.875537829236440246e-01,1.352341770222212469e+00,2.284832124407852660e+00,4.198514160365725556e-01,3.664918025567973636e-01,-3.311148545536471421e-01,1.565671621398348756e-01
4.799999999999999822e+00,1.644630268188848019e+09,-1.899215275700491257e-01,1.456386136851644642e+00,2.460871131251711752e+00,4.519011424515774755e-01,2.886055238061128181e-01,-3.282860078670031823e-01,1.828215097974869030e-01
4.816666666666666430e+00,1.644630268204789400e+09,-1.915962847799711488e-01,1.524582560269236664e+00,2.565214251671890988e+00,4.839508688665823399e-01,2.074484377563481086e-01,-3.250250051161867604e-01,2.084276903470969056e-01
4.833333333333333037e+00,1.644630268222737312e+09,-1.925599485839316616e-01,1.592096207582183620e+00,2.732291272712789709e+00,4.519011424515774755e-01,1.237993976800951940e-01,-3.213429980564773136e-01,2.333439433750921221e-01
4.849999999999999645e+00,1.644630268239659309e+09,-1.927993368406674957e-01,1.588276673654559934e+00,2.692602478442537528e+00,4.839508688665823399e-01,3.845962014328420386e-02,-3.172614762868560812e-01,2.563746931687682640e-01
4.866666666666666252e+00,1.644630268256645441e+09,-1.923062899606013954e-01,1.522662134740030870e+00,2.561373400613479401e+00,4.839508688665823399e-01,-4.775411390140495843e-02,-3.128202603028125139e-01,2.765152775320350864e-01
4.883333333333332860e+00,1.644630268273600817e+09,-1.910777250991871901e-01,1.608121070789686025e+00,2.732291272712789709e+00,4.839508688665823399e-01,-1.340164474232696801e-01,-3.080462607059360480e-01,2.963096883245988633e-01
4.900000000000000355e+00,1.644630268289562225e+09,-1.891156450691005853e-01,1.520741709210824855e+00,2.557532549555067369e+00,4.839508688665823399e-01,-2.195005676133167105e-01,-3.029689642667681704e-01,3.129197442453894307e-01
4.916666666666666963e+00,1.644630268305481911e+09,-1.864271016531272307e-01,1.544768345456685843e+00,2.573536095631781873e+00,5.160005952815897023e-01,-3.033853990152464708e-01,-2.976253953952479603e-01,3.282658911478932295e-01
4.933333333333333570e+00,1.644630268322472095e+09,-1.830241134394049451e-01,1.434045123736609861e+00,2.320039925776625100e+00,5.480503216965945112e-01,-3.848628090592071116e-01,-2.920547238733153250e-01,3.401815915372506383e-01
4.950000000000000178e+00,1.644630268340389013e+09,-1.789235387430995750e-01,1.330043391368753714e+00,2.079986734625907996e+00,5.801000481115994312e-01,-4.631447647968757741e-01,-2.863122802613322082e-01,3.488874583681321750e-01
4.966666666666666785e+00,1.644630268357342720e+09,-1.741469046191649606e-01,1.160405802955579935e+00,1.740711557799560438e+00,5.801000481115994312e-01,-5.374703793707895638e-01,-2.804596376468322383e-01,3.534170728133786965e-01
4.983333333333333393e+00,1.644630268374330997e+09,-1.687201934051250907e-01,1.155604739132565895e+00,1.731109430153532136e+00,5.801000481115994312e-01,-6.071127870025021522e-01,-2.745424092602746224e-01,3.566413769623221208e-01
5.000000000000000000e+00,1.644630268394245625e+09,-1.626735886563546729e-01,9.786268366548915854e-01,1.345103898783178709e+00,6.121497745266043511e-01,-6.713857860546872391e-01,-2.686052095086290392e-01,3.558248613873466470e-01
5.016666666666666607e+00,1.644630268408207655e+09,-1.550060865446294955e-01,9.072297040219572395e-01,1.234359359932314826e+00,5.801000481115994312e-01,-7.296501910134309821e-01,-2.626994144886306559e-01,3.528787249174903384e-01
5.033333333333333215e+00,1.644630268427157164e+09,-1.468955132481759018e-01,7.708794914483497740e-01,9.616589347851001168e-01,5.801000481115994312e-01,-7.761369658589607479e-01,-2.568675683572233526e-01,3.469592542125728429e-01
5.049999999999999822e+00,1.644630268443197966e+09,-1.383912164348358176e-01,7.523153779993611012e-01,9.245307078871226603e-01,5.801000481115994312e-01,-8.149647576447223152e-01,-2.511414894692385325e-01,3.401890189971653045e-01
5.066666666666666430e+00,1.644630268460069895e+09,-1.295440608271720972e-01,7.532755907639638870e-01,9.264511334163282319e-01,5.801000481115994312e-01,-8.458272974963503277e-01,-2.455314428509153546e-01,3.330364439333023396e-01
5.083333333333333037e+00,1.644630268477058411e+09,-1.204059658179446046e-01,7.046248106907518904e-01,8.291495732699043497e-01,5.801000481115994312e-01,-8.684939731137951702e-01,-2.400494683023184916e-01,3.248233166776547942e-01
5.099999999999999645e+00,1.644630268495010138e+09,-1.110294398714349873e-01,5.954806264475591693e-01,6.108612047835187964e-01,5.801000481115994312e-01,-8.828113749885064809e-01,-2.347202973826261474e-01,3.147052999489466374e-01
5.116666666666666252e+00,1.644630268510932207e+09,-1.014671160534267730e-01,2.900500240557997156e-01,0.000000000000000000e+00,5.801000481115994312e-01,-8.887041898296356157e-01,-2.296013627152893866e-01,2.996087958520459726e-01
5.133333333333332860e+00,1.644630268530878782e+09,-9.177129299430286657e-02,3.060748872633021755e-01,0.000000000000000000e+00,6.121497745266043511e-01,-8.861754353526155592e-01,-2.247293886779567484e-01,2.850684793465581013e-01
5.150000000000000355e+00,1.644630268546836615e+09,-8.199348551025789633e-02,7.161686809967742207e-01,8.201875874669440902e-01,6.121497745266043511e-01,-8.753060359318365347e-01,-2.200396012869910156e-01,2.777264027066746466e-01
5.166666666666666963e+00,1.644630268564790010e+09,-7.218398898791279772e-02,9.869699977455724804e-01,1.329740494549533247e+00,6.441995009416116025e-01,-8.562537439668964634e-01,-2.154311330236702016e-01,2.752965386729984143e-01
5.183333333333333570e+00,1.644630268580746174e+09,-6.239146147896256628e-02,9.815287920794893983e-01,1.318858083217367305e+00,6.441995009416116025e-01,-8.292514171163996028e-01,-2.108598488473948651e-01,2.732632107461078763e-01
5.200000000000000178e+00,1.644630268596704483e+09,-5.266252725556417463e-02,1.040443158772586640e+00,1.404637090188556536e+00,6.762492273566165224e-01,-7.946046667716146761e-01,-2.063092499174636330e-01,2.728099200161928084e-01
5.216666666666666785e+00,1.644630268612660408e+09,-4.304140534595356227e-02,1.174915580078564226e+00,1.609482479970502311e+00,7.403486801866263622e-01,-7.526888982333858058e-01,-2.017417803994952796e-01,2.752795618623107288e-01
5.233333333333333393e+00,1.644630268629615068e+09,-3.356956630574637473e-02,1.315768102684440777e+00,1.859137798767247940e+00,7.723984066016336136e-01,-7.039457679782161748e-01,-1.971073042460797509e-01,2.808421246206656008e-01
5.250000000000000000e+00,1.644630268644609213e+09,-2.428542018605121811e-02,1.454678882630322523e+00,2.136959358659011432e+00,7.723984066016336136e-01,-6.488790881145862777e-01,-1.923540947537639989e-01,2.895189117036121029e-01
5.266666666666666607e+00,1.644630268662526846e+09,-1.522403833803526174e-02,1.531858608981662151e+00,2.227219358531681070e+00,8.364978594316434535e-01,-5.880502126005990871e-01,-1.874384087686085387e-01,3.003333656581410605e-01
5.283333333333333215e+00,1.644630268680479288e+09,-6.416911348064949228e-03,1.542100878470759495e+00,2.247703897509875315e+00,8.364978594316434535e-01,-5.220729439825299023e-01,-1.823334481013525188e-01,3.122288705656888763e-01
5.299999999999999822e+00,1.644630268697433710e+09,2.108254968525520578e-03,1.547883472189164555e+00,2.227219358531681070e+00,8.685475858466483734e-01,-4.516080032888788454e-01,-1.770213406845457249e-01,3.251880209638868258e-01
5.316666666666666430e+00,1.644630268714387894e+09,1.032770396991138095e-02,1.647766916838651952e+00,2.394936521415648389e+00,9.005973122616556248e-01,-3.773571092432869700e-01,-1.714709858303396228e-01,3.408111629029367817e-01
5.333333333333333037e+00,1.644630268731343031e+09,1.822175183741169685e-02,1.686495498344301236e+00,2.472393684426946958e+00,9.005973122616556248e-01,-3.000567161156241780e-01,-1.656463771734379975e-01,3.580938672831797676e-01
5.349999999999999645e+00,1.644630268749294519e+09,2.577486972835310933e-02,1.681374363599752453e+00,2.462151414937849836e+00,9.005973122616556248e-01,-2.204714622874451579e-01,-1.595258255180016238e-01,3.763216973162818446e-01
5.366666666666666252e+00,1.644630268766249657e+09,3.297572409855900610e-02,1.493834120711447166e+00,2.055021202746233566e+00,9.326470386766605447e-01,-1.393873839441834850e-01,-1.531186981108917378e-01,3.924886821886263699e-01
5.383333333333332860e+00,1.644630268783204317e+09,3.981717527225532571e-02,1.423418517973902953e+00,1.914189997271145582e+00,9.326470386766605447e-01,-5.760495020367893682e-02,-1.464427839555570154e-01,4.085763274961287106e-01
5.400000000000000355e+00,1.644630268800159216e+09,4.629623474563991647e-02,1.472368051837861680e+00,2.044138791414067402e+00,9.005973122616556248e-01,2.406802256739613843e-02,-1.394829227662344462e-01,4.265570675468937645e-01
5.416666666666666963e+00,1.644630268842047691e+09,5.241398211182348582e-02,1.294109865674050175e+00,1.655572692671439805e+00,9.326470386766605447e-01,1.048235185206726205e-01,-1.322393332050763870e-01,4.426290343889811019e-01
5.433333333333333570e+00,1.644630268860000134e+09,5.817544288545686837e-02,1.217932986348889246e+00,1.503218934021117725e+00,9.326470386766605447e-01,1.838604729461637000e-01,-1.247297023629632545e-01,4.584826278684521750e-01
5.450000000000000178e+00,1.644630268871968508e+09,6.358942888117585790e-02,1.155199085728168651e+00,1.377751132779676535e+00,9.326470386766605447e-01,2.603918664895465973e-01,-1.169561289524937847e-01,4.743022369949446149e-01
5.466666666666666785e+00,1.644630268890916586e+09,6.866834315752273765e-02,1.267543979186704250e+00,1.602440919696747956e+00,9.326470386766605447e-01,3.336517041641525738e-01,-1.088954445841466556e-01,4.929281473491117782e-01
5.483333333333333393e+00,1.644630268910863876e+09,7.342795187362696763e-02,1.228495326759520889e+00,1.524343614842381234e+00,9.326470386766605447e-01,4.029018212830443035e-01,-1.005227295552224426e-01,5.117453847875637063e-01
5.500000000000000000e+00,1.644630268924827814e+09,7.788712571647918304e-02,1.183386643953973971e+00,1.402076522816282589e+00,9.646967650916654646e-01,4.674384598309102024e-01,-9.183630954960717019e-02,5.305727165116964628e-01
5.516666666666666607e+00,1.644630268941780806e+09,8.206755383914218771e-02,1.190108133306194027e+00,1.415519501520722701e+00,9.646967650916654646e-01,5.265985606463502444e-01,-8.282960152426807610e-02,5.501777867188997195e-01
5.533333333333333215e+00,1.644630268959733725e+09,8.599343350193212887e-02,1.262785549625265791e+00,1.528824607743861197e+00,9.967464915066702735e-01,5.797657190763858548e-01,-7.348146847543114701e-02,5.715388414817570428e-01
5.549999999999999822e+00,1.644630268977684736e+09,8.969113882717137665e-02,1.311094941646155476e+00,1.657493118200645377e+00,9.646967650916654646e-01,6.263757544801824562e-01,-6.376715792807770289e-02,5.941157092031759124e-01
5.566666666666666430e+00,1.644630268994638920e+09,9.318887226144656477e-02,1.186587353169316961e+00,1.408477941246968346e+00,9.646967650916654646e-01,6.659218470738488271e-01,-5.369141950447356426e-02,6.149151241169578119e-01
5.583333333333333037e+00,1.644630269010596991e+09,9.651630248572298787e-02,1.105609410021141770e+00,1.246522054950617742e+00,9.646967650916654646e-01,6.979591991009443941e-01,-4.327865669007151250e-02,6.345618381212572157e-01
5.599999999999999645e+00,1.644630269027551174e+09,9.970419262187148191e-02,1.029752601617514918e+00,1.094808438143364704e+00,9.646967650916654646e-01,7.221091811531796800e-01,-3.254830402886176033e-02,6.530291818395590475e-01
5.616666666666666252e+00,1.644630269043542624e+09,1.027840226531314960e-01,9.932645165626060590e-01,1.021832268033546542e+00,9.646967650916654646e-01,7.380629286245148357e-01,-2.151554923736244060e-02,6.708518844678450499e-01
5.633333333333332860e+00,1.644630269062459946e+09,1.057876100053427026e-01,9.190080627666509239e-01,8.733193604416363831e-01,9.646967650916654646e-01,7.455843577242430298e-01,-1.019742855754828675e-02,6.872769707962124164e-01
5.650000000000000355e+00,1.644630269078414917e+09,1.087467322251084584e-01,8.975846281546413508e-01,7.984227648026124280e-01,9.967464915066702735e-01,7.445125751670009784e-01,1.389067869332788821e-03,7.030587610913586749e-01
5.666666666666666963e+00,1.644630269096367121e+09,1.116927556408426891e-01,8.549938784597929109e-01,7.452909918279204682e-01,9.646967650916654646e-01,7.347636605609029203e-01,1.322918516516684642e-02,7.177146027792028482e-01
5.683333333333333570e+00,1.644630269112360239e+09,1.146562738033355122e-01,4.823483825458327323e-01,0.000000000000000000e+00,9.646967650916654646e-01,7.163318055913161508e-01,2.525752641812450613e-02,7.256642646618642889e-01
5.700000000000000178e+00,1.644630269129313231e+09,1.176667593752666885e-01,4.983732457533351368e-01,0.000000000000000000e+00,9.967464915066702735e-01,6.892897993055782102e-01,3.741574233122810234e-02,7.333004328330758881e-01
5.716666666666666785e+00,1.644630269146268129e+09,1.207522329752735990e-01,4.823483825458327323e-01,0.000000000000000000e+00,9.646967650916654646e-01,6.537888541024117206e-01,4.969305623212627587e-02,7.399587395429817471e-01
5.733333333333333393e+00,1.644630269162225485e+09,1.239389522835655510e-01,4.823483825458327323e-01,0.000000000000000000e+00,9.646967650916654646e-01,6.100577723758933146e-01,6.207438210404919027e-02,7.457841829197542349e-01
5.750000000000000000e+00,1.644630269180177212e+09,1.272511244847913670e-01,4.983732457533351368e-01,0.000000000000000000e+00,9.967464915066702735e-01,5.584014591153354523e-01,7.454707265211199529e-02,7.509244041195025643e-01
5.766666666666666607e+00,1.644630269197134018e+09,1.307106448623009676e-01,4.823483825458327323e-01,0.000000000000000000e+00,9.646967650916654646e-01,4.991987910762398784e-01,8.709433311943484690e-02,7.547362632125476090e-01
5.783333333333333215e+00,1.644630269213089466e+09,1.343368640688887838e-01,4.823483825458327323e-01,0.000000000000000000e+00,9.646967650916654646e-01,4.328998583710961245e-01,9.969544083409535851e-02,7.573892928465025820e-01
5.799999999999999822e+00,1.644630269231041193e+09,1.381463862855138447e-01,4.823483825458327323e-01,0.000000000000000000e+00,9.646967650916654646e-01,3.600225994405301666e-01,1.123303334281778171e-01,7.587939166188595319e-01
5.816666666666666430e+00,1.644630269247997522e+09,1.421529001446509843e-01,4.823483825458327323e-01,0.000000000000000000e+00,9.646967650916654646e-01,2.811488553138694613e-01,1.249775483302354162e-01,7.588716556811303526e-01
5.833333333333333037e+00,1.644630269263919353e+09,1.463670439422504743e-01,4.983732457533351368e-01,0.000000000000000000e+00,9.967464915066702735e-01,1.969198738141894056e-01,1.376166277591223952e-01,7.578207949117021780e-01
5.849999999999999645e+00,1.644630269280874014e+09,1.507963062954342237e-01,4.823483825458327323e-01,0.000000000000000000e+00,9.646967650916654646e-01,1.080312988681880748e-01,1.502238472908395128e-01,7.550532367368854025e-01
5.866666666666666252e+00,1.644630269297828197e+09,1.554449630257569992e-01,4.823483825458327323e-01,0.000000000000000000e+00,9.646967650916654646e-01,1.522768430956455976e-02,1.627725050279432151e-01,7.507975134473716672e-01
5.883333333333332860e+00,1.644630269315814018e+09,1.603140506639903484e-01,4.823483825458327323e-01,0.000000000000000000e+00,9.646967650916654646e-01,-8.070342451796463923e-02,1.752375717935611421e-01,7.450265293155515778e-01
5.900000000000000355e+00,1.644630269331777096e+09,1.654013765858879381e-01,4.823483825458327323e-01,0.000000000000000000e+00,9.646967650916654646e-01,-1.789377944768001383e-01,1.875936844013283977e-01,7.377272598422681682e-01
5.916666666666666963e+00,1.644630269348726749e+09,1.707015654031153185e-01,4.983732457533351368e-01,0.000000000000000000e+00,9.967464915066702735e-01,-2.786211435857340879e-01,1.998175957448001527e-01,7.291658835349230650e-01
5.933333333333333570e+00,1.644630269365682364e+09,1.762061408535347262e-01,1.240247303280805624e-01,-7.166473044355042843e-01,9.646967650916654646e-01,-3.788760623126377070e-01,2.118344475215784006e-01,7.129015095584021466e-01
5.950000000000000178e+00,1.644630269381637812e+09,1.819036420640148533e-01,3.113051089134018581e-02,-9.344854697239899366e-01,9.967464915066702735e-01,-4.788091619308563196e-01,2.235558394366739254e-01,6.937188067926480795e-01
5.966666666666666785e+00,1.644630269399557829e+09,1.877797727008158335e-01,-9.441854097509518040e-02,-1.153533847041855687e+00,9.646967650916654646e-01,-5.775183927133060724e-01,2.349291944975866187e-01,6.711465028369286712e-01
5.983333333333333393e+00,1.644630269417509794e+09,1.938175811808987570e-01,-1.401144912659968711e-01,-1.276975474038664071e+00,9.967464915066702735e-01,-6.741004732451140180e-01,2.459098106778460635e-01,6.465956372481507231e-01
6.000000000000000000e+00,1.644630269435461283e+09,1.999976697957006055e-01,-1.470627642531458779e-01,-1.258822293597957165e+00,9.646967650916654646e-01,-7.676583711116198305e-01,2.564707547802965171e-01,6.207893408896207887e-01
6.016666666666666607e+00,1.644630269450454473e+09,2.062984303003248809e-01,-2.317776063097790051e-01,-1.428251977711223475e+00,9.646967650916654646e-01,-8.573087746684819876e-01,2.665810749072404229e-01,5.925275810797059339e-01
6.033333333333333215e+00,1.644630269469369650e+09,2.126963032486101079e-01,-1.809487010757991066e-01,-1.326594167243263733e+00,9.646967650916654646e-01,-9.421894955338023792e-01,2.762195659786199631e-01,5.641701200648330250e-01
6.049999999999999822e+00,1.644630269485327005e+09,2.191660581110375372e-01,-2.039427296340282358e-01,-1.372582224359721881e+00,9.646967650916654646e-01,-1.021466741854846205e+00,2.853752236868997705e-01,5.345909711650719265e-01
6.066666666666666430e+00,1.644630269502281427e+09,2.256810910002599035e-01,-8.957769285757333222e-02,-1.143852150806812018e+00,9.646967650916654646e-01,-1.094342203295885607e+00,2.940477116278361613e-01,5.061864849549111423e-01
6.083333333333333037e+00,1.644630269518238783e+09,2.322137366503705669e-01,-2.015223055752671244e-01,-1.367741376242199713e+00,9.646967650916654646e-01,-1.160059890058398935e+00,3.022261759016257043e-01,4.753149840872271659e-01
6.099999999999999645e+00,1.644630269535193205e+09,2.387355911526564956e-01,-3.600600814241093905e-01,-1.684816927939884135e+00,9.646967650916654646e-01,-1.217912670072412995e+00,3.098644911765092158e-01,4.413771229540682794e-01
6.116666666666666252e+00,1.644630269552148104e+09,2.452178418439112662e-01,-4.266217430400356392e-01,-1.817940251171736632e+00,9.646967650916654646e-01,-1.267248450773467150e+00,3.169258551342581942e-01,4.060845890994276286e-01
6.133333333333332860e+00,1.644630269569102764e+09,2.516316006744849787e-01,-4.668717391987252108e-01,-1.930489969904120695e+00,9.967464915066702735e-01,-1.307475954584667921e+00,3.233927692243639962e-01,3.700452134462652864e-01
6.150000000000000355e+00,1.644630269587054729e+09,2.579482373528074746e-01,-5.034702069056956608e-01,-1.971637178903056675e+00,9.646967650916654646e-01,-1.338070040339252698e+00,3.292547241611203379e-01,3.334909210554264924e-01
6.166666666666666963e+00,1.644630269605006695e+09,2.641397085713700910e-01,-3.927358062173821884e-01,-1.750168377526429841e+00,9.646967650916654646e-01,-1.358576526378011629e+00,3.345249521130597703e-01,2.990321542268971622e-01
6.183333333333333570e+00,1.644630269621962786e+09,2.701788796660581360e-01,-4.242013189812745555e-01,-1.813099403054214465e+00,9.646967650916654646e-01,-1.368616474914278625e+00,3.392198939915672118e-01,2.644569157834638640e-01
6.200000000000000178e+00,1.644630269637952566e+09,2.760398351456930799e-01,-5.101263730672882524e-01,-1.984949511226241858e+00,9.646967650916654646e-01,-1.367889901443449130e+00,3.433315897885491075e-01,2.290449487446363508e-01
6.216666666666666785e+00,1.644630269654908180e+09,2.816981746508765982e-01,-4.072583505699479689e-01,-1.779213466231561291e+00,9.646967650916654646e-01,-1.356178877453456000e+00,3.468738029685132784e-01,1.961121150976154470e-01
6.233333333333333393e+00,1.644630269672859907e+09,2.871312910593738499e-01,-4.096787746287089416e-01,-1.784054314349083237e+00,9.646967650916654646e-01,-1.333349999431227895e+00,3.498745031129543159e-01,1.640609353855088104e-01
6.250000000000000000e+00,1.644630269689815283e+09,2.923186276477682810e-01,-3.612702934534898214e-01,-1.687237351998645218e+00,9.646967650916654646e-01,-1.299356202120331538e+00,3.523568252976155835e-01,1.339015049412838887e-01
6.266666666666666607e+00,1.644630269706767797e+09,2.972419114439448506e-01,-3.636907175122507940e-01,-1.692078200116166942e+00,9.646967650916654646e-01,-1.254237899128508360e+00,3.543465533961313030e-01,1.049462998987555212e-01
6.283333333333333215e+00,1.644630269722726583e+09,3.018853601598038838e-01,-3.406966889540218313e-01,-1.646090142999709016e+00,9.646967650916654646e-01,-1.198123439269219492e+00,3.558686205551995774e-01,7.777723060263322385e-02
6.299999999999999822e+00,1.644630269739687920e+09,3.062358603758980058e-01,-1.609802025910213874e-01,-1.286657170273708184e+00,9.646967650916654646e-01,-1.131228872407485930e+00,3.569756845397967782e-01,5.513334870139421223e-02
6.316666666666666430e+00,1.644630269756636143e+09,3.102831149564765356e-01,-1.270942657683679367e-01,-1.218885296628401393e+00,9.646967650916654646e-01,-1.053857024024511091e+00,3.577238450577805429e-01,3.470266668686244893e-02
6.333333333333333037e+00,1.644630269773590326e+09,3.140197580016047540e-01,-1.635986508005461346e-02,-9.974164952517746707e-01,9.646967650916654646e-01,-9.663958831747312406e-01,3.581616909719407271e-01,1.788555830178915895e-02
6.349999999999999645e+00,1.644630269790546656e+09,3.174414359892491766e-01,8.408773335852484654e-02,-7.965212983746157160e-01,9.646967650916654646e-01,-8.693163139398443207e-01,3.583488570847105370e-01,4.611249179330704356e-03
6.366666666666666252e+00,1.644630269808497429e+09,3.205468541208851829e-01,5.201711457994217386e-02,-8.606625359317811030e-01,9.646967650916654646e-01,-7.631691058444158848e-01,3.583268496617840193e-01,-7.219276585484031214e-03
6.383333333333332860e+00,1.644630269825452089e+09,3.233377872556799093e-01,1.485419701048238672e-01,-6.355630984670127548e-01,9.326470386766605447e-01,-6.485813839438205886e-01,3.581384598220987980e-01,-1.536487697644873390e-02
6.400000000000000355e+00,1.644630269841409206e+09,3.258190551967405368e-01,4.663235193383302724e-01,0.000000000000000000e+00,9.326470386766605447e-01,-5.262524043862427670e-01,3.578762233361270084e-01,-1.610145524127547592e-02
6.416666666666666963e+00,1.644630269859363317e+09,3.279984624744852750e-01,4.823483825458327323e-01,0.000000000000000000e+00,9.646967650916654646e-01,-3.969487661462886008e-01,3.576218851274335364e-01,-1.442379009258962404e-02
6.433333333333333570e+00,1.644630269877312899e+09,3.298867031529310601e-01,4.663235193383302724e-01,0.000000000000000000e+00,9.326470386766605447e-01,-2.614990742886937891e-01,3.574117713015267928e-01,-1.079993551585558750e-02
6.450000000000000178e+00,1.644630269893277884e+09,3.314972315607244702e-01,4.663235193383302724e-01,0.000000000000000000e+00,9.326470386766605447e-01,-1.207880945102199899e-01,3.572809895940343150e-01,-4.910230061227946127e-03
6.466666666666666785e+00,1.644630269910226822e+09,3.328461002161793303e-01,4.663235193383302724e-01,0.000000000000000000e+00,9.326470386766605447e-01,2.424955720848087637e-02,3.572675888278877832e-01,3.279388647365438433e-03
6.483333333333333393e+00,1.644630269927146435e+09,3.339517665706657756e-01,4.663235193383302724e-01,0.000000000000000000e+00,9.326470386766605447e-01,1.726361422651768729e-01,3.574100457818307208e-01,1.378625938681428582e-02
6.500000000000000000e+00,1.644630269943136930e+09,3.348348705337541587e-01,4.663235193383302724e-01,0.000000000000000000e+00,9.326470386766605447e-01,3.233578934606129440e-01,3.577469837973495936e-01,2.661067825127782019e-02
6.516666666666666607e+00,1.644630269961091518e+09,3.355179850630380933e-01,4.663235193383302724e-01,0.000000000000000000e+00,9.326470386766605447e-01,4.753724214534908454e-01,3.583168871346008588e-01,4.173570726055692015e-02
6.533333333333333215e+00,1.644630269978044271e+09,3.360253423982746956e-01,4.663235193383302724e-01,0.000000000000000000e+00,9.326470386766605447e-01,6.276163771535427927e-01,3.591578132232463583e-01,5.912711278010931298e-02
6.549999999999999822e+00,1.644630269994999409e+09,3.363825387902492636e-01,4.663235193383302724e-01,0.000000000000000000e+00,9.326470386766605447e-01,7.790133114394839353e-01,3.603071049810491755e-01,7.873343486860340246e-02
6.566666666666666430e+00,1.644630270011953354e+09,3.366162208168209657e-01,4.663235193383302724e-01,0.000000000000000000e+00,9.326470386766605447e-01,9.284816719263154772e-01,3.618011053832012047e-01,1.004861876541954524e-01
6.583333333333333037e+00,1.644630270028873920e+09,3.367537565893939377e-01,4.823483825458327323e-01,0.000000000000000000e+00,9.646967650916654646e-01,1.074942875312653978e+00,3.636770898206381775e-01,1.245650575143999184e-01
6.599999999999999645e+00,1.644630270044865131e+09,3.368228953303089579e-01,4.663235193383302724e-01,0.000000000000000000e+00,9.326470386766605447e-01,1.217329393128040005e+00,3.659685161050107438e-01,1.503345131044668548e-01
6.616666666666666252e+00,1.644630270062783241e+09,3.368514189435599104e-01,4.663235193383302724e-01,0.000000000000000000e+00,9.326470386766605447e-01,1.354592788473394371e+00,3.687048329144756997e-01,1.779468014251973096e-01
6.633333333333332860e+00,1.644630270079771996e+09,3.368667893061864094e-01,4.663235193383302724e-01,0.000000000000000000e+00,9.326470386766605447e-01,1.485711641612065037e+00,3.719156509076655959e-01,2.072699027811806816e-01
6.649999999999999467e+00,1.644630270096725225e+09,3.368957950745850027e-01,4.823483825458327323e-01,0.000000000000000000e+00,9.646967650916654646e-01,1.609699303018028660e+00,3.756304757351597301e-01,2.384225393797509140e-01
6.666666666666666963e+00,1.644630270113681316e+09,3.369642018279823681e-01,4.663235193383302724e-01,0.000000000000000000e+00,9.326470386766605447e-01,1.725611413720411047e+00,3.798740048313836160e-01,2.707112591678393909e-01
6.683333333333333570e+00,1.644630270132633924e+09,3.370964093600484768e-01,4.823483825458327323e-01,0.000000000000000000e+00,9.646967650916654646e-01,1.832553134486647695e+00,3.846682037292559198e-01,3.044987522205084285e-01
6.700000000000000178e+00,1.644630270148586512e+09,3.373151198791376482e-01,4.823483825458327323e-01,0.000000000000000000e+00,9.646967650916654646e-01,1.929686027550018501e+00,3.900342768095964030e-01,3.393332526417655037e-01
6.716666666666666785e+00,1.644630270165544033e+09,3.376410207882358794e-01,4.823483825458327323e-01,0.000000000000000000e+00,9.646967650916654646e-01,2.016234537192784337e+00,3.959880676617152928e-01,3.750225104519568919e-01
6.733333333333333393e+00,1.644630270181500196e+09,3.380924855882775359e-01,4.823483825458327323e-01,0.000000000000000000e+00,9.646967650916654646e-01,2.091492018523856800e+00,4.025421446601135100e-01,4.113657734713868641e-01
6.750000000000000000e+00,1.644630270200448990e+09,3.386852962841239156e-01,4.823483825458327323e-01,0.000000000000000000e+00,9.646967650916654646e-01,2.154826267216965796e+00,4.097056707172445078e-01,4.481551582436358316e-01
6.766666666666666607e+00,1.644630270216405153e+09,3.394323904728228092e-01,4.823483825458327323e-01,0.000000000000000000e+00,9.646967650916654646e-01,2.205684506774109988e+00,4.174842963844891397e-01,4.851770807317235534e-01
6.783333333333333215e+00,1.644630270234364271e+09,3.403436360606248434e-01,4.663235193383302724e-01,0.000000000000000000e+00,9.326470386766605447e-01,2.243597794020862679e+00,4.258778638468450062e-01,5.219488684920209343e-01
6.799999999999999822e+00,1.644630270251278877e+09,3.414256362909086073e-01,4.823483825458327323e-01,0.000000000000000000e+00,9.646967650916654646e-01,2.268184807992076557e+00,4.348848248336056876e-01,5.587841273475586679e-01
6.816666666666666430e+00,1.644630270267269135e+09,3.426815674722066274e-01,4.823483825458327323e-01,0.000000000000000000e+00,9.646967650916654646e-01,2.279154992094292620e+00,4.445021343042611650e-01,5.951918741209052399e-01
6.833333333333333037e+00,1.644630270284230947e+09,3.441110514767995454e-01,4.663235193383302724e-01,0.000000000000000000e+00,9.326470386766605447e-01,2.276311024397505101e+00,4.547186047259821895e-01,6.306859794281147735e-01
6.849999999999999645e+00,1.644630270302177191e+09,3.457100647389542702e-01,4.663235193383302724e-01,0.000000000000000000e+00,9.326470386766605447e-01,2.259550596075306395e+00,4.655194261472316297e-01,6.653163932637592426e-01
6.866666666666666252e+00,1.644630270319132805e+09,3.474708851212238714e-01,4.663235193383302724e-01,0.000000000000000000e+00,9.326470386766605447e-01,2.228867483338156763e+00,4.768883999955286779e-01,6.988672694600703839e-01
6.883333333333332860e+00,1.644630270336086273e+09,3.493820776408031459e-01,4.663235193383302724e-01,0.000000000000000000e+00,9.326470386766605447e-01,2.184351903648293014e+00,4.888057725359243322e-01,7.311278206361184751e-01
6.899999999999999467e+00,1.644630270353006840e+09,3.514285196595172134e-01,4.663235193383302724e-01,0.000000000000000000e+00,9.326470386766605447e-01,2.126190152523565136e+00,5.012483317557422380e-01,7.618938226139988501e-01
6.916666666666666963e+00,1.644630270370958805e+09,3.535914657444393372e-01,4.663235193383302724e-01,0.000000000000000000e+00,9.326470386766605447e-01,2.054663522788441554e+00,5.141895289658581225e-01,7.909690761059957609e-01
6.933333333333333570e+00,1.644630270385918856e+09,3.558486520053234514e-01,9.136989789838527443e-02,-7.178575164648850482e-01,9.005973122616556248e-01,1.970146513669960520e+00,5.275478355328986346e-01,8.119693763984277002e-01
6.950000000000000178e+00,1.644630270402873755e+09,3.581744393140297023e-01,3.236161528429843531e-02,-8.679238081080636880e-01,9.326470386766605447e-01,1.873104342620880658e+00,5.412316927663334276e-01,8.300432851300791892e-01
6.966666666666666785e+00,1.644630270419861794e+09,3.605399944138680257e-01,-2.372026680784136143e-01,-1.375002648418482964e+00,9.005973122616556248e-01,1.764089778139300346e+00,5.551619959353057965e-01,8.415611004621215141e-01
6.983333333333333393e+00,1.644630270437814713e+09,3.629135075373178254e-01,-5.028442085274278384e-01,-1.906285729316511413e+00,9.005973122616556248e-01,1.643739317100588515e+00,5.692293584389005456e-01,8.465086564347461540e-01
7.000000000000000000e+00,1.644630270455732107e+09,3.652604447727893500e-01,-6.819555888757381501e-01,-2.264508490013132036e+00,9.005973122616556248e-01,1.512768735183561919e+00,5.833356681744559236e-01,8.462492324709878222e-01
7.016666666666666607e+00,1.644630270472721338e+09,3.675438330587751934e-01,-8.680152422111981902e-01,-2.604578070269044865e+00,8.685475858466483734e-01,1.371968043817120675e+00,5.973925438951452893e-01,8.405915701103972015e-01
7.033333333333333215e+00,1.644630270487678766e+09,3.697245753405711266e-01,-1.039260244368535924e+00,-2.947068074583719888e+00,8.685475858466483734e-01,1.222195891660308398e+00,6.113115676327741665e-01,8.297214738276311730e-01
7.049999999999999822e+00,1.644630270506631374e+09,3.717617931042123125e-01,-1.199008232246758121e+00,-3.266564050340164727e+00,8.685475858466483734e-01,1.064373452919415097e+00,6.250070614963629811e-01,8.137820669752533487e-01
7.066666666666666430e+00,1.644630270523584843e+09,3.736131932076194317e-01,-1.507904406564335664e+00,-3.852306672560315004e+00,8.364978594316434535e-01,8.994778487694552460e-01,6.383736597810562019e-01,7.902750260606454802e-01
7.083333333333333037e+00,1.644630270540548563e+09,3.752354556632158111e-01,-1.729665314766518636e+00,-4.263778762549676138e+00,8.044481330166385336e-01,7.285351517502119956e-01,6.512974804368254489e-01,7.606657026879378725e-01
7.099999999999999645e+00,1.644630270557493687e+09,3.765846387921854554e-01,-1.833743549293239461e+00,-4.471935231603117344e+00,8.044481330166385336e-01,5.526130262236295110e-01,6.636932282347919321e-01,7.269177795054778679e-01
7.116666666666666252e+00,1.644630270573450565e+09,3.776165979705464193e-01,-2.022515733513017278e+00,-4.785380147212660695e+00,7.403486801866263622e-01,3.728130607821091846e-01,6.754802645571551523e-01,6.876356986375994351e-01
7.133333333333332860e+00,1.644630270590410233e+09,3.782874140233849491e-01,-2.054878459117155831e+00,-4.818055872005933438e+00,7.082989537716214423e-01,1.902628508658523176e-01,6.865883413104411082e-01,6.454506950801250920e-01
7.149999999999999467e+00,1.644630270607333183e+09,3.785538271977297309e-01,-1.968640405842008168e+00,-4.613530039040632857e+00,6.762492273566165224e-01,6.107891762550301390e-03,6.969856369529522366e-01,6.023445242029563662e-01
7.166666666666666963e+00,1.644630270625313282e+09,3.783736725579578963e-01,-2.055775671957402739e+00,-4.787800571271422001e+00,6.762492273566165224e-01,-1.784966563903080949e-01,7.066329174212704345e-01,5.554593715955096211e-01
7.183333333333333570e+00,1.644630270642249823e+09,3.777063126013768812e-01,-1.855172581905800033e+00,-4.354544664753211336e+00,6.441995009416116025e-01,-3.623942690129156041e-01,7.155075618490150946e-01,5.096252796524530781e-01
7.200000000000000178e+00,1.644630270658231020e+09,3.765130628862898843e-01,-1.977383104509651490e+00,-4.534866257130902412e+00,5.801000481115994312e-01,-5.444353598319284782e-01,7.235826119873657314e-01,4.595199217750760567e-01
7.216666666666666785e+00,1.644630270675183296e+09,3.747576065006039681e-01,-2.039396024833612042e+00,-4.626842371363818707e+00,5.480503216965945112e-01,-7.234855229129675269e-01,7.307961976514277813e-01,4.062583103152376252e-01
7.233333333333333393e+00,1.644630270692150116e+09,3.724063932757251671e-01,-1.976757106131383557e+00,-4.469514807544356927e+00,5.160005952815897023e-01,-8.984336514191022527e-01,7.371139341074128826e-01,3.520207279000777678e-01
7.250000000000000000e+00,1.644630270710087538e+09,3.694290197674552356e-01,-1.897780325032520254e+00,-4.279511518931622405e+00,4.839508688665823399e-01,-1.068199871525472133e+00,7.425226622958077671e-01,2.971789964357163250e-01
7.266666666666666607e+00,1.644630270726009846e+09,3.657985861818801587e-01,-2.019719633174390960e+00,-4.555439861630371290e+00,5.160005952815897023e-01,-1.231743231385552306e+00,7.469855053852255677e-01,2.385251056036327977e-01
7.283333333333333215e+00,1.644630270743993521e+09,3.614920266184069586e-01,-1.952844972369331522e+00,-4.389640813605245384e+00,4.839508688665823399e-01,-1.388069086977485878e+00,7.504665298884527491e-01,1.793621801112919578e-01
7.299999999999999822e+00,1.644630270760916948e+09,3.564904092324245322e-01,-1.896862219828695961e+00,-4.245625582108969454e+00,4.519011424515774755e-01,-1.536236129043492271e+00,7.529569447061973397e-01,1.196534594790108902e-01
7.316666666666666430e+00,1.644630270779901266e+09,3.507792031843744440e-01,-2.048430830326811503e+00,-4.516713076690195727e+00,4.198514160365725556e-01,-1.675362998152484018e+00,7.544203101736652872e-01,5.612686353688807472e-02
7.333333333333333037e+00,1.644630270795822859e+09,3.443485095378953087e-01,-2.114387385928047092e+00,-4.648626187892666906e+00,4.198514160365725556e-01,-1.804634438144412600e+00,7.548067083790628296e-01,-9.576565069717102308e-03
7.349999999999999645e+00,1.644630270811780214e+09,3.371932535943274467e-01,-2.217547515250944290e+00,-4.822896720123456049e+00,3.878016896215676357e-01,-1.923306941827785943e+00,7.540764847974013030e-01,-7.786058243936770651e-02
7.366666666666666252e+00,1.644630270830763817e+09,3.293133365011995939e-01,-2.199686441635794409e+00,-4.755124846478149259e+00,3.557519632065603843e-01,-2.030713846772180808e+00,7.522052575672257824e-01,-1.464960266826584312e-01
7.383333333333332860e+00,1.644630270846734762e+09,3.207137443450519543e-01,-2.227521318311545429e+00,-4.810794599829651297e+00,3.557519632065603843e-01,-2.126269843332492471e+00,7.491825434191549116e-01,-2.160364985619881439e-01
7.399999999999999467e+00,1.644630270863675356e+09,3.114046133304636532e-01,-2.376064398736209782e+00,-5.075831034263974750e+00,3.237022367915554644e-01,-2.209474861629528775e+00,7.449784172080721190e-01,-2.882580266903342903e-01
7.416666666666666963e+00,1.644630270881593466e+09,3.014012500538154060e-01,-2.497669815325370024e+00,-5.254942414612285617e+00,2.596027839615456800e-01,-2.279917309053406171e+00,7.395540483882145910e-01,-3.624601099434563434e-01
7.433333333333333570e+00,1.644630270896588087e+09,2.907241062981282265e-01,-2.679180727368864812e+00,-5.553864785869262910e+00,1.955033311315334810e-01,-2.337276634917071938e+00,7.328702341331195802e-01,-4.393839183931269043e-01
7.450000000000000178e+00,1.644630270914539337e+09,2.793987082003235312e-01,-2.627433716931060204e+00,-5.418321038578649329e+00,1.634536047165285888e-01,-2.381325204124526973e+00,7.249160444712132723e-01,-5.149090440821469938e-01
7.466666666666666785e+00,1.644630270931495905e+09,2.674555400703726993e-01,-2.385975524706077877e+00,-4.871305201298675058e+00,9.935415188651879059e-02,-2.411929467092968959e+00,7.157426575324539186e-01,-5.857007403400383838e-01
7.483333333333333393e+00,1.644630270949447393e+09,2.549298835688512122e-01,-2.326946349728414187e+00,-4.657097672098330143e+00,3.204972641501691987e-03,-2.429050418636347963e+00,7.054049751585382833e-01,-6.546296707722021324e-01
7.500000000000000000e+00,1.644630270966401339e+09,2.418616133713225314e-01,-2.289095885264909036e+00,-4.485247563926303194e+00,-9.294420660351540575e-02,-2.432743344037792355e+00,6.939327156320236334e-01,-7.218547317340657798e-01
7.516666666666666607e+00,1.644630270983355284e+09,2.282949508606497147e-01,-2.343847533412586781e+00,-4.562701133806653431e+00,-1.249939330185202979e-01,-2.423156856066173592e+00,6.813430853473150250e-01,-7.887151746073365333e-01
7.533333333333333215e+00,1.644630271000277519e+09,2.142781777877458826e-01,-2.190150605681266516e+00,-4.255307278344012900e+00,-1.249939330185202979e-01,-2.400531232184267338e+00,6.676727029045916861e-01,-8.515561561290387882e-01
7.549999999999999822e+00,1.644630271017230988e+09,1.998633122235814463e-01,-2.146875079449126478e+00,-4.136706499464726683e+00,-1.570436594335263836e-01,-2.365196066609970504e+00,6.529745081455403666e-01,-9.120591471376391368e-01
7.566666666666666430e+00,1.644630271034219265e+09,1.851057494867357767e-01,-2.125696368934967939e+00,-4.094349078436409606e+00,-1.570436594335263836e-01,-2.317567257184821372e+00,6.372857906353067703e-01,-9.704248233960686143e-01
7.583333333333333037e+00,1.644630271052171230e+09,1.700638710678978871e-01,-2.084549159936031959e+00,-4.012054660438537645e+00,-1.570436594335263836e-01,-2.258143352134509563e+00,6.206462642828814991e-01,-1.026163505578152391e+00
7.599999999999999645e+00,1.644630271069126844e+09,1.547986248821622279e-01,-1.764448078164896128e+00,-3.371852496896265983e+00,-1.570436594335263836e-01,-2.187501286733912309e+00,6.031394281871400587e-01,-1.074522492230724380e+00
7.616666666666666252e+00,1.644630271087079287e+09,1.393730804587907657e-01,-1.565368199331808485e+00,-2.973692739230090254e+00,-1.570436594335263836e-01,-2.106291544575875641e+00,5.848720020901964078e-01,-1.117449395198908846e+00
7.633333333333332860e+00,1.644630271103035688e+09,1.238519629234624136e-01,-1.409855953556417241e+00,-2.662668247679308209e+00,-1.570436594335263836e-01,-2.015232782551791058e+00,5.659291132063359875e-01,-1.155591318583518490e+00
7.649999999999999467e+00,1.644630271119990587e+09,1.083011698376222243e-01,-1.570209047449329987e+00,-2.983374435465133701e+00,-1.570436594335263836e-01,-1.915105962748724355e+00,5.463474752978598747e-01,-1.194098264178343305e+00
7.666666666666666963e+00,1.644630271136943340e+09,9.278727513120030301e-02,-1.496699112846254343e+00,-2.868404292673988554e+00,-1.249939330185202979e-01,-1.806748038220343577e+00,5.261544932407927755e-01,-1.228962734639052812e+00
7.683333333333333570e+00,1.644630271153899670e+09,7.737702449705721741e-02,-1.543292275977402817e+00,-2.961590618936285058e+00,-1.249939330185202979e-01,-1.691045242968010065e+00,5.053947976309759449e-01,-1.262108664344992803e+00
7.700000000000000178e+00,1.644630271170854807e+09,6.213682670667063090e-02,-1.479443145245794344e+00,-2.801842631058062416e+00,-1.570436594335263836e-01,-1.568926039447951837e+00,4.841129340308629736e-01,-1.291632953823108831e+00
7.716666666666666785e+00,1.644630271187808037e+09,4.713224535589478903e-02,-1.308198143088457277e+00,-2.459352626743388281e+00,-1.570436594335263836e-01,-1.441353779477118735e+00,4.623843496383888696e-01,-1.315730234806727683e+00
7.733333333333333393e+00,1.644630271205762625e+09,3.242749555655861926e-02,-1.118194854475722755e+00,-2.079346049517919237e+00,-1.570436594335263836e-01,-1.309319136524945248e+00,4.403019522644565087e-01,-1.334106403949473219e+00
7.750000000000000000e+00,1.644630271221718073e+09,1.808495005411085016e-02,-1.067365949241743106e+00,-1.977688239049959495e+00,-1.570436594335263836e-01,-1.173832369033612766e+00,4.179415575441458586e-01,-1.349099314533751759e+00
7.766666666666666607e+00,1.644630271238671780e+09,4.164659173783776674e-03,-1.019562574081213979e+00,-1.882081488728901464e+00,-1.570436594335263836e-01,-1.035915475594316515e+00,3.953590035852229123e-01,-1.360774728069420902e+00
7.783333333333333215e+00,1.644630271254629135e+09,-9.276111121525255215e-03,-8.050420456917360967e-01,-1.420990705534940890e+00,-1.890933858485313035e-01,-8.965943035106069825e-01,3.726323448068749045e-01,-1.366408675111111970e+00
7.799999999999999822e+00,1.644630271273579359e+09,-2.218331893806818611e-02,-8.135135298973994455e-01,-1.437933673946267588e+00,-1.890933858485313035e-01,-7.568906725000583702e-01,3.498306909243397156e-01,-1.369780424601867663e+00
7.816666666666666430e+00,1.644630271289535999e+09,-3.450655999774419891e-02,-8.083805749543211405e-01,-1.459717490475116008e+00,-1.570436594335263836e-01,-6.178145750168352324e-01,3.269932251509579113e-01,-1.370712877994671786e+00
7.833333333333333037e+00,1.644630271306495667e+09,-4.619945133482291494e-02,-7.923348193832409070e-01,-1.395576252917950510e+00,-1.890933858485313035e-01,-4.803565139279090124e-01,3.041615493023749894e-01,-1.369092724367941383e+00
7.849999999999999645e+00,1.644630271325440884e+09,-5.721998172382083275e-02,-4.870692811538052114e-01,-8.170949028740840392e-01,-1.570436594335263836e-01,-3.454800370457238312e-01,2.814174448725556554e-01,-1.360224441908114201e+00
7.866666666666666252e+00,1.644630271340367317e+09,-6.753082572209109791e-02,-4.770745857296272430e-01,-7.650557856107231824e-01,-1.890933858485313035e-01,-2.141145263254370379e-01,2.588394450010090830e-01,-1.349166260570818787e+00
7.883333333333332860e+00,1.644630271356358528e+09,-7.709961854265615089e-02,-4.129333481724621335e-01,-6.367733104963929636e-01,-1.890933858485313035e-01,-8.714829738459073383e-02,2.364706166488565742e-01,-1.335132126311283862e+00
7.899999999999999467e+00,1.644630271375273466e+09,-8.589918933101464704e-02,-3.669452910560040970e-01,-5.447971962634768905e-01,-1.890933858485313035e-01,3.457793758101912474e-02,2.143569169144433906e-01,-1.318557882468120335e+00
7.916666666666666963e+00,1.644630271391265154e+09,-9.390775080062943592e-02,-9.454669292426565175e-02,0.000000000000000000e+00,-1.890933858485313035e-01,1.502771934126553299e-01,1.925707696038256589e-01,-1.295842893482696212e+00
7.933333333333333570e+00,1.644630271408218384e+09,-1.011090435819529121e-01,-9.454669292426565175e-02,0.000000000000000000e+00,-1.890933858485313035e-01,2.592218754525719149e-01,1.711751155311957984e-01,-1.271702653034594510e+00
7.950000000000000178e+00,1.644630271425173998e+09,-1.074924340553307933e-01,-9.454669292426565175e-02,0.000000000000000000e+00,-1.890933858485313035e-01,3.607489399290638721e-01,1.501924875061162457e-01,-1.246283320892768387e+00
7.966666666666666785e+00,1.644630271443127871e+09,-1.130529648649740704e-01,-7.852182971676319179e-02,0.000000000000000000e+00,-1.570436594335263836e-01,4.542645124232463916e-01,1.296451338655314756e-01,-1.219473589207075603e+00
7.983333333333333393e+00,1.644630271459088802e+09,-1.177913577453597038e-01,-7.852182971676319179e-02,0.000000000000000000e+00,-1.570436594335263836e-01,5.392479299667776171e-01,1.095526440648925959e-01,-1.191702331068936527e+00
8.000000000000000000e+00,1.644630271479993582e+09,-1.217139687287520644e-01,-4.647210330175770288e-02,0.000000000000000000e+00,-9.294420660351540575e-02,6.152551769745948640e-01,8.993409766961142637e-02,-1.162604066779107992e+00
8.016666666666665719e+00,1.644630271493991852e+09,-1.248326962388227324e-01,-3.044724009425465311e-02,0.000000000000000000e+00,-6.089448018850930622e-02,6.819216900998161801e-01,7.080792465320417950e-02,-1.132619986262608069e+00
8.033333333333333215e+00,1.644630271510945082e+09,-1.271648430064903634e-01,1.602486320750845994e-03,0.000000000000000000e+00,3.204972641501691987e-03,7.389645121709665920e-01,5.218965040316132786e-02,-1.101658928704369877e+00
8.050000000000000711e+00,1.644630271527898788e+09,-1.287329331659547715e-01,1.762734952825329576e-02,0.000000000000000000e+00,3.525469905650659153e-02,7.861837805934822621e-01,3.409185273338823097e-02,-1.070164278865901153e+00
8.066666666666666430e+00,1.644630271543855667e+09,-1.295644862974315581e-01,3.259599073446092787e-01,5.846153892177070599e-01,6.730442547151148369e-02,8.234635409273984852e-01,1.656235198333917344e-02,-1.033477720644651932e+00
8.083333333333333925e+00,1.644630271561809063e+09,-1.296917505744480392e-01,3.852156620900299977e-01,6.390274458785364375e-01,1.314038783015236689e-01,8.507718817479894557e-01,-3.488170193435523314e-04,-9.959667592446689310e-01
8.099999999999999645e+00,1.644630271579871893e+09,-1.291513975440289064e-01,4.960028352024701825e-01,7.965023392734068564e-01,1.955033311315334810e-01,8.681603923135301493e-01,-1.662228067534644166e-02,-9.569572417967326938e-01
8.116666666666667140e+00,1.644630271597821474e+09,-1.279841814140955658e-01,5.504362089940885161e-01,8.733193604416363831e-01,2.275530575465407879e-01,8.757629499608616808e-01,-3.224240528742710471e-02,-9.175671312020695636e-01
8.133333333333332860e+00,1.644630271614777088e+09,-1.262345660407568626e-01,6.641040204003372249e-01,1.036555530424124072e+00,2.916525103765505444e-01,8.737938494828667579e-01,-4.719604075630539491e-02,-8.769818645684712699e-01
8.150000000000000355e+00,1.644630271630734205e+09,-1.239503230957913343e-01,7.383817913270803723e-01,1.153061345862605336e+00,3.237022367915554644e-01,8.625452919691294351e-01,-6.147015514549566267e-02,-8.360256321243442201e-01
8.166666666666666075e+00,1.644630271647655249e+09,-1.211821051488489870e-01,9.727163401517574526e-01,1.557630990681947214e+00,3.878016896215676357e-01,8.423842556711372831e-01,-7.503774080346170550e-02,-7.922063698693299072e-01
8.183333333333333570e+00,1.644630271663647413e+09,-1.179829976173301098e-01,1.096925174837849903e+00,1.773998933639127085e+00,4.198514160365725556e-01,8.137487763461378476e-01,-8.786785712268056769e-02,-7.475316876970445890e-01
8.199999999999999289e+00,1.644630271682599783e+09,-1.144080537175411055e-01,1.136336532448143144e+00,1.788722196029704170e+00,4.839508688665823399e-01,7.771436691997815061e-01,-9.995917829437336866e-02,-7.035490298312196966e-01
8.216666666666666785e+00,1.644630271698556185e+09,-1.105138166918678000e-01,1.209355336819538440e+00,1.870660351942482258e+00,5.480503216965945112e-01,7.331357289513278364e-01,-1.113195230799246815e-01,-6.598138339494872273e-01
8.233333333333332504e+00,1.644630271714513302e+09,-1.063578336870946994e-01,1.246483563717516230e+00,1.944916805738437615e+00,5.480503216965945112e-01,6.823484486497752854e-01,-1.219588752564631506e-01,-6.170272815668271793e-01
8.250000000000000000e+00,1.644630271731465101e+09,-1.019981657177497225e-01,1.342547474439379052e+00,2.072945174352153863e+00,6.121497745266043511e-01,6.254563016448817514e-01,-1.318856175030381217e-01,-5.743004763855145134e-01
8.266666666666665719e+00,1.644630271749382973e+09,-9.749289816500428252e-02,1.341907332596310010e+00,2.071664890666015779e+00,6.121497745266043511e-01,5.631786345309388597e-01,-1.411148380167429606e-01,-5.333198230863555045e-01
8.283333333333333215e+00,1.644630271767369747e+09,-9.289965623608181788e-02,1.329104495734938718e+00,2.046059216943273196e+00,6.121497745266043511e-01,4.962732219096457342e-01,-1.496777172536009892e-01,-4.943339818887543813e-01
8.300000000000000711e+00,1.644630271783292294e+09,-8.827512974172964377e-02,1.268952479617281304e+00,1.893705458292951116e+00,6.441995009416116025e-01,4.255295364345036413e-01,-1.576142965939552054e-01,-4.581560356142037049e-01
8.316666666666666430e+00,1.644630271799284697e+09,-8.367461144082176394e-02,1.304160280986053300e+00,1.964121061030495108e+00,6.441995009416116025e-01,3.517617897854546372e-01,-1.649582329979405182e-01,-4.232133980306932441e-01
8.333333333333333925e+00,1.644630271817236185e+09,-7.915155305264703900e-02,1.275055144257220885e+00,1.873861061157825247e+00,6.762492273566165224e-01,2.758018019588470149e-01,-1.717391300508337992e-01,-3.905848852075321509e-01
8.349999999999999645e+00,1.644630271834193230e+09,-7.475714285056925257e-02,1.240487484731517487e+00,1.804725742106418673e+00,6.762492273566165224e-01,1.984917575336048734e-01,-1.779961778274396778e-01,-3.603448500598409043e-01
8.366666666666667140e+00,1.644630271851147652e+09,-7.053990852724355276e-02,1.117580250862350466e+00,1.558911274368084410e+00,6.762492273566165224e-01,1.206769083776800811e-01,-1.837811256212561750e-01,-3.339222829453572516e-01
8.383333333333332860e+00,1.644630271868100405e+09,-6.654534876388668030e-02,1.048124860889409593e+00,1.420000494422202664e+00,6.762492273566165224e-01,4.319828258444541325e-02,-1.891496413942253541e-01,-3.103650481144905049e-01
8.400000000000000355e+00,1.644630271884074450e+09,-6.281559664658836750e-02,9.818914972625996107e-01,1.255484040753577890e+00,7.082989537716214423e-01,-3.311454072518060787e-02,-1.941484788741754119e-01,-2.895532613589167914e-01
8.416666666666666075e+00,1.644630271902009726e+09,-5.938911775438400487e-02,8.692052157517418109e-01,1.062161204146867099e+00,6.762492273566165224e-01,-1.074505317325804565e-01,-1.988291593855026906e-01,-2.721766694472701476e-01
8.433333333333333570e+00,1.644630271917966366e+09,-5.630044539984033203e-02,8.298578095338122740e-01,9.514166652960028836e-01,7.082989537716214423e-01,-1.790241274859836196e-01,-2.032379505593197855e-01,-2.569206502393225899e-01
8.449999999999999289e+00,1.644630271934921741e+09,-5.357995513665980009e-02,7.290141521197229801e-01,7.817790768828295489e-01,6.762492273566165224e-01,-2.470819103731074495e-01,-2.074179106665344219e-01,-2.447084861029976965e-01
8.466666666666666785e+00,1.644630271951844215e+09,-5.125368026385766079e-02,7.475782655687117639e-01,8.189073037808071165e-01,6.762492273566165224e-01,-3.109089931953182839e-01,-2.114022731989290971e-01,-2.334463023643797985e-01
8.483333333333332504e+00,1.644630271969826937e+09,-4.934316965634275021e-02,8.106322371109669911e-01,9.450152468653172377e-01,6.762492273566165224e-01,-3.698350589930954335e-01,-2.151999180590498106e-01,-2.223020378689612164e-01
8.500000000000000000e+00,1.644630271986781597e+09,-4.786538884086227741e-02,8.596030881057130646e-01,1.042956948854809607e+00,6.762492273566165224e-01,-4.232400066420787255e-01,-2.188139768685953557e-01,-2.114152610350217565e-01
8.516666666666665719e+00,1.644630272003737688e+09,-4.683266481866796282e-02,8.451998966366700561e-01,1.014150565916723590e+00,6.762492273566165224e-01,-4.705591565017192002e-01,-2.222566182052057304e-01,-2.017286073628288823e-01
8.533333333333333215e+00,1.644630272020696163e+09,-4.625267471560490923e-02,8.669647193010017183e-01,1.057680211245387136e+00,6.762492273566165224e-01,-5.112879740249807181e-01,-2.255417725558171993e-01,-1.925155072576170689e-01
8.550000000000000711e+00,1.644630272037645102e+09,-4.612847792101512634e-02,9.018524497482393043e-01,1.127455672139862086e+00,6.762492273566165224e-01,-5.449862732015413602e-01,-2.286744834711514629e-01,-1.834350267331711637e-01
8.566666666666666430e+00,1.644630272054601192e+09,-4.645859096281391987e-02,9.415412440184912635e-01,1.206833260680366005e+00,6.762492273566165224e-01,-5.712818659739183902e-01,-2.316552573692388650e-01,-1.742832632010075655e-01
8.583333333333333925e+00,1.644630272071554899e+09,-4.723710396134254280e-02,9.975536552869919138e-01,1.318858083217367305e+00,6.762492273566165224e-01,-5.898736283038523709e-01,-2.344795973625658503e-01,-1.646642560912949249e-01
8.599999999999999645e+00,1.644630272088509798e+09,-4.845383711317505226e-02,9.479426624491771314e-01,1.219636097541737518e+00,6.762492273566165224e-01,-6.005339583370121748e-01,-2.371532738579811284e-01,-1.562004345273435568e-01
8.616666666666667140e+00,1.644630272105462313e+09,-5.009453528150614732e-02,9.882715985624975774e-01,1.300293969768378632e+00,6.762492273566165224e-01,-6.031106070804633790e-01,-2.396818413231526779e-01,-1.472525172041380948e-01
8.633333333333332860e+00,1.644630272122419596e+09,-5.214109841595455930e-02,1.063808336044590019e+00,1.451367444732563294e+00,6.762492273566165224e-01,-5.975278671289173671e-01,-2.420513084610435017e-01,-1.371117089176527304e-01
8.650000000000000355e+00,1.644630272139375210e+09,-5.457184519469153450e-02,1.268333654905000829e+00,1.860418082453385136e+00,6.762492273566165224e-01,-5.837871102117937472e-01,-2.442230157616985253e-01,-1.235308925387775952e-01
8.666666666666666075e+00,1.644630272157325745e+09,-5.736180697908228876e-02,1.341928649727099243e+00,2.039657798512587217e+00,6.441995009416116025e-01,-5.619666696414122864e-01,-2.461570730842943533e-01,-1.085974688814203282e-01
8.683333333333333570e+00,1.644630272173283815e+09,-6.048304889834044823e-02,1.366574110685240040e+00,2.088948720428867922e+00,6.441995009416116025e-01,-5.322210690808850675e-01,-2.478367901039712495e-01,-9.301186783500417499e-02
8.699999999999999289e+00,1.644630272191235542e+09,-6.390501464147300970e-02,1.278554607263310272e+00,1.912909713585008609e+00,6.441995009416116025e-01,-4.947796043754582040e-01,-2.492658856611456863e-01,-7.851985556303220370e-02
8.716666666666666785e+00,1.644630272207193136e+09,-6.759489132856408289e-02,1.313442337710547525e+00,1.982685174479483559e+00,6.441995009416116025e-01,-4.499442904607556803e-01,-2.504444379377532282e-01,-6.294966916559477377e-02
8.733333333333332504e+00,1.644630272224148035e+09,-7.151799066472175337e-02,1.437629855265852408e+00,2.231060209590092658e+00,6.441995009416116025e-01,-3.980871905331078153e-01,-2.513413222992431639e-01,-4.472707372522573971e-02
8.750000000000000000e+00,1.644630272241107941e+09,-7.563814244970486211e-02,1.408503401406231426e+00,2.172807301870851138e+00,6.441995009416116025e-01,-3.396471496998914041e-01,-2.519329648434422975e-01,-2.632116031925425467e-02
