# 
# 
# 
# 
# 
# 
# 
# 
# 
# 
# time,realtime,ref,inp,inp0,inp1,dis,state...
0.000000000000000000e+00,1.644630887031612635e+09,-0.000000000000000000e+00,1.602486320750845994e-03,0.000000000000000000e+00,3.204972641501691987e-03,0.000000000000000000e+00,0.000000000000000000e+00,0.000000000000000000e+00
1.666666666666666644e-02,1.644630887034605026e+09,-4.646968747399017172e-07,1.602486320750845994e-03,0.000000000000000000e+00,3.204972641501691987e-03,0.000000000000000000e+00,2.213362102166187087e-07,2.648676913563081570e-05
3.333333333333333287e-02,1.644630887035602570e+09,-1.490916225632305943e-06,1.602486320750845994e-03,0.000000000000000000e+00,3.204972641501691987e-03,1.884338821576968359e-05,8.830628651072728425e-07,5.284720429685042342e-05
5.000000000000000278e-02,1.644630887053554296e+09,-2.561926697016047623e-06,1.602486320750845994e-03,0.000000000000000000e+00,3.204972641501691987e-03,7.895300191563899461e-05,1.988791559397880069e-06,7.976546431366789668e-05
6.666666666666666574e-02,1.644630887070507765e+09,-3.209354704366075086e-06,1.602486320750845994e-03,0.000000000000000000e+00,3.204972641501691987e-03,1.847479753301529298e-04,3.554052411647142749e-06,1.079874417294352781e-04
8.333333333333332871e-02,1.644630887086464882e+09,-3.013995253413797937e-06,-1.442237688675220356e-02,0.000000000000000000e+00,-2.884475377350440711e-02,3.392527742744839482e-04,3.393759698314770718e-06,-1.265710007651942959e-04
1.000000000000000056e-01,1.644630887104417086e+09,-1.605238298648115214e-06,1.602486320750845994e-03,0.000000000000000000e+00,3.204972641501691987e-03,5.439559750031842467e-04,1.598192749578258235e-06,-8.900139555389061021e-05
1.166666666666666685e-01,1.644630887120374203e+09,1.340834852172644526e-06,1.602486320750845994e-03,0.000000000000000000e+00,3.204972641501691987e-03,7.986936694977116689e-04,4.587812525492268814e-07,-4.784231755271895002e-05
1.333333333333333315e-01,1.644630887138326168e+09,6.104606852115225959e-06,1.602486320750845994e-03,0.000000000000000000e+00,3.204972641501691987e-03,1.101559736860694425e-03,4.150148882795865755e-08,-2.357603495472004624e-06
1.499999999999999944e-01,1.644630887154283524e+09,1.292723094103499091e-05,1.602486320750845994e-03,0.000000000000000000e+00,3.204972641501691987e-03,1.448844861504162192e-03,4.239851160273525915e-07,4.811543258157873490e-05
1.666666666666666574e-01,1.644630887171237946e+09,2.201596820525096354e-05,1.602486320750845994e-03,0.000000000000000000e+00,3.204972641501691987e-03,1.835005792152133832e-03,1.694051390674317071e-06,1.041369015219814230e-04
1.833333333333333204e-01,1.644630887189190149e+09,3.355041673402875738e-05,1.602486320750845994e-03,0.000000000000000000e+00,3.204972641501691987e-03,2.252665926021260156e-03,3.947758527175223732e-06,1.661357318316822578e-04
2.000000000000000111e-01,1.644630887206144810e+09,4.768947836832612209e-05,1.602486320750845994e-03,0.000000000000000000e+00,3.204972641501691987e-03,2.692647874882039480e-03,7.286986719108107306e-06,2.343820735669641456e-04
2.166666666666666741e-01,1.644630887223135710e+09,6.457889590085834602e-05,1.602486320750845994e-03,0.000000000000000000e+00,3.204972641501691987e-03,3.144038229261018197e-03,1.181657398216652788e-05,3.089612288041034428e-04
2.333333333333333370e-01,1.644630887241086721e+09,8.435918367974614633e-05,1.602486320750845994e-03,0.000000000000000000e+00,3.204972641501691987e-03,3.594284289224271810e-03,1.764103446617167287e-05,3.897496118196835642e-04
2.500000000000000000e-01,1.644630887257043362e+09,1.071737677445215472e-04,1.602486320750845994e-03,0.000000000000000000e+00,3.204972641501691987e-03,4.029322080504586616e-03,2.486089710546626055e-05,4.763932225346461779e-04
2.666666666666666630e-01,1.644630887272980452e+09,1.331771479898877350e-04,1.602486320750845994e-03,0.000000000000000000e+00,3.204972641501691987e-03,4.433734528774110374e-03,3.356871031374409025e-05,5.682890901517842919e-04
2.833333333333333259e-01,1.644630887289956093e+09,1.625428944676356505e-04,1.602486320750845994e-03,0.000000000000000000e+00,3.204972641501691987e-03,4.790938228186247469e-03,4.384476576574937695e-05,6.645701105153972504e-04
2.999999999999999889e-01,1.644630887306876898e+09,1.954712928093596438e-04,1.602486320750845994e-03,0.000000000000000000e+00,3.204972641501691987e-03,5.083396818407573924e-03,5.575260103431725004e-05,7.640936608994696767e-04
3.166666666666666519e-01,1.644630887324861526e+09,2.321964598413063605e-04,1.602486320750845994e-03,0.000000000000000000e+00,3.204972641501691987e-03,5.292858582587870418e-03,6.933434686356519780e-05,8.654343301258669591e-04
3.333333333333333148e-01,1.644630887341815710e+09,2.729927596778076440e-04,1.602486320750845994e-03,0.000000000000000000e+00,3.204972641501691987e-03,5.400615502230676421e-03,8.460599006229547385e-05,9.668810506434954207e-04
3.499999999999999778e-01,1.644630887357773781e+09,3.181803627833349412e-04,1.602486320750845994e-03,0.000000000000000000e+00,3.204972641501691987e-03,5.387780658624993953e-03,1.015526273096596410e-04,1.066438863052395240e-03
3.666666666666666408e-01,1.644630887376722574e+09,3.681298055010573736e-04,1.602486320750845994e-03,0.000000000000000000e+00,3.204972641501691987e-03,5.235580558961523863e-03,1.201237885020700895e-04,1.161835483188524299e-03
3.833333333333333037e-01,1.644630887393683195e+09,4.232654251300835692e-04,1.602486320750845994e-03,0.000000000000000000e+00,3.204972641501691987e-03,4.925658692692976189e-03,1.402289105718315589e-04,1.250532778009493147e-03
4.000000000000000222e-01,1.644630887409602404e+09,4.840675655259414774e-04,1.602486320750845994e-03,0.000000000000000000e+00,3.204972641501691987e-03,4.440386393894349588e-03,1.617330439219441572e-04,1.329743189903467068e-03
4.166666666666666852e-01,1.644630887424561501e+09,5.510734700941214131e-04,1.602486320750845994e-03,0.000000000000000000e+00,3.204972641501691987e-03,3.763176901654715321e-03,1.844528737090323032e-04,1.396451080489804868e-03
4.333333333333333481e-01,1.644630887441515684e+09,6.248768026069157280e-04,1.602486320750845994e-03,0.000000000000000000e+00,3.204972641501691987e-03,2.878798375695885980e-03,2.081531371421414583e-04,1.447438895330807867e-03
4.500000000000000111e-01,1.644630887458472013e+09,7.061257611337543776e-04,1.602486320750845994e-03,0.000000000000000000e+00,3.204972641501691987e-03,1.773681540729510689e-03,2.325435157381730198e-04,1.479317981092782277e-03
4.666666666666666741e-01,1.644630887476423740e+09,7.955197761465066138e-04,1.602486320750845994e-03,0.000000000000000000e+00,3.204972641501691987e-03,4.362176022206071778e-04,2.572760780884624757e-04,1.488563817458683682e-03
4.833333333333333370e-01,1.644630887492381096e+09,8.938048101382907581e-04,1.602486320750845994e-03,0.000000000000000000e+00,3.204972641501691987e-03,-1.142957900688672084e-03,2.819433441635597871e-04,1.471555358384622585e-03
5.000000000000000000e-01,1.644630887509335756e+09,1.001767302460436666e-03,1.602486320750845994e-03,0.000000000000000000e+00,3.204972641501691987e-03,-2.970699561854470757e-03,3.060770365473794658e-04,1.424618111982409131e-03
5.166666666666666075e-01,1.644630887527287245e+09,1.120226829115002990e-03,1.602486320750845994e-03,0.000000000000000000e+00,3.204972641501691987e-03,-5.051109019433609043e-03,3.291475772947104195e-04,1.344070526257032036e-03
5.333333333333333259e-01,1.644630887542247772e+09,1.250027572518138275e-03,1.602486320750845994e-03,0.000000000000000000e+00,3.204972641501691987e-03,-7.385318251651770693e-03,3.505643814088259497e-04,1.226273189961234406e-03
5.500000000000000444e-01,1.644630887561230183e+09,1.392028720357741571e-03,1.602486320750845994e-03,0.000000000000000000e+00,3.204972641501691987e-03,-9.971302959646597894e-03,3.696769893133447222e-04,1.067680304741786381e-03
5.666666666666666519e-01,1.644630887578183889e+09,1.547093935205507472e-03,1.602486320750845994e-03,0.000000000000000000e+00,3.204972641501691987e-03,-1.280372945276089976e-02,3.857770712321176060e-04,8.648928372895125973e-04
5.833333333333333703e-01,1.644630887596136332e+09,1.716080057125394728e-03,1.602486320750845994e-03,0.000000000000000000e+00,3.204972641501691987e-03,-1.587383811705875628e-02,3.981013261922669794e-04,6.147127190575646903e-04
5.999999999999999778e-01,1.644630887614054918e+09,1.899825219789505340e-03,1.602486320750845994e-03,0.000000000000000000e+00,3.204972641501691987e-03,-1.916936616908535701e-02,4.058352875390606020e-04,3.141974269051959275e-04
6.166666666666666963e-01,1.644630887628051043e+09,2.099136576240033698e-03,3.156536864631475092e-01,6.601521266997993909e-01,-2.884475377350440711e-02,-2.267451197775227634e-02,4.514949439835253919e-04,5.151524011883984455e-03
6.333333333333333037e-01,1.644630887646004677e+09,2.314777843128929154e-03,2.961293602495558841e-01,6.211034742726161406e-01,-2.884475377350440711e-02,-2.636994278198355121e-02,5.739014517907412450e-04,9.525107795202974320e-03
6.500000000000000222e-01,1.644630887662958145e+09,2.547456881772218636e-03,2.814060978589785211e-01,5.916569494914614147e-01,-2.884475377350440711e-02,-3.023284714514875085e-02,7.660298104528404659e-04,1.351920028177137217e-02
6.666666666666666297e-01,1.644630887679911852e+09,2.797813540463822690e-03,1.602486320750845994e-03,0.000000000000000000e+00,3.204972641501691987e-03,-3.423703297451047983e-02,9.849750365929041841e-04,1.275634594473531482e-02
6.833333333333333481e-01,1.644630887696868181e+09,3.066407985042618814e-03,3.310170906967934146e-01,6.908789351670912016e-01,-2.884475377350440711e-02,-3.835307140045938340e-02,1.236241789847681303e-03,1.738281284641943897e-02
6.999999999999999556e-01,1.644630887713788986e+09,3.353709743584972099e-03,5.685097144752362386e-01,1.165864182723977072e+00,-2.884475377350440711e-02,-4.254848626205827433e-02,1.596200441784440720e-03,2.578887466470231038e-02
7.166666666666666741e-01,1.644630887730782747e+09,3.660087686244546234e-03,6.127008187777567283e-01,1.222196664914011910e+00,3.204972641501691987e-03,-4.678798838846175839e-02,2.100617209800454722e-03,3.471633840317454867e-02
7.333333333333332815e-01,1.644630887747735977e+09,3.985801152677576065e-03,5.790720548858677708e-01,1.186988863545239914e+00,-2.884475377350440711e-02,-5.103375330641500562e-02,2.747360725560719918e-03,4.287023324707182892e-02
7.500000000000000000e-01,1.644630887763693333e+09,4.330992427226450919e-03,6.258237265606626520e-01,1.248442480479823535e+00,3.204972641501691987e-03,-5.524574044866698702e-02,3.534751871148587334e-03,5.159247520335055737e-02
7.666666666666666075e-01,1.644630887782637835e+09,4.695680746193264983e-03,6.789341824045660445e-01,1.386713118582636461e+00,-2.884475377350440711e-02,-5.938205139321969112e-02,4.473073328926804350e-03,6.098002259576144890e-02
7.833333333333333259e-01,1.644630887798594475e+09,5.079758002279596840e-03,6.834364924368346861e-01,1.363668012232167603e+00,3.204972641501691987e-03,-6.339932413530861843e-02,5.566624290774453178e-03,7.022042443893923569e-02
8.000000000000000444e-01,1.644630887816546917e+09,5.482986288813215120e-03,6.907768065013347725e-01,1.410398366776174139e+00,-2.884475377350440711e-02,-6.725315988921851118e-02,6.813387215219035911e-03,7.936572229136325263e-02
8.166666666666666519e-01,1.644630887832469940e+09,5.904997400992269274e-03,7.580130171543243423e-01,1.512821061667146916e+00,3.204972641501691987e-03,-7.089857844166055911e-02,8.220091809369636099e-03,8.941092500909038343e-02
8.333333333333333703e-01,1.644630887850421906e+09,6.345294383366268873e-03,9.257301800382917722e-01,1.848255387435081998e+00,3.204972641501691987e-03,-7.429049763842331122e-02,9.815525685055687816e-03,1.020061525067354757e-01
8.499999999999999778e-01,1.644630887867376804e+09,6.803255182499238184e-03,9.849433005221354120e-01,1.966681628402769055e+00,3.204972641501691987e-03,-7.738423218700578310e-02,1.162689159751652962e-02,1.153207710665268004e-01
8.666666666666666963e-01,1.644630887883333921e+09,7.278138431622192817e-03,1.125774505997222841e+00,2.248344039352944357e+00,3.204972641501691987e-03,-8.013600660522990360e-02,1.367740039746337052e-02,1.306975705897798490e-01
8.833333333333333037e-01,1.644630887900289297e+09,7.769091360513166733e-03,1.192029186754820502e+00,2.380853400868139236e+00,3.204972641501691987e-03,-8.250347684426397044e-02,1.599088947163639779e-02,1.468761766807827607e-01
9.000000000000000222e-01,1.644630887918275118e+09,8.275159789308072708e-03,1.028771699641544579e+00,2.086388153056593531e+00,-2.884475377350440711e-02,-8.444625486842910478e-02,1.854896984046256955e-02,1.600568537248418521e-01
9.166666666666666297e-01,1.644630887935229301e+09,8.795300129931727523e-03,1.023330493975461497e+00,2.075505741724427811e+00,-2.884475377350440711e-02,-8.592643028743641997e-02,2.132395165372391252e-02,1.729052729730475857e-01
9.333333333333333481e-01,1.644630887951153755e+09,9.328393283851999992e-03,1.143677160472354570e+00,2.316199074718213513e+00,-2.884475377350440711e-02,-8.690908301253877366e-02,2.432778577485249574e-02,1.875142401429159278e-01
9.499999999999999556e-01,1.644630887969105721e+09,9.873260290417096643e-03,1.153599359039917616e+00,2.336043471853339604e+00,-2.884475377350440711e-02,-8.736278084907998787e-02,2.757439267835607236e-02,2.020382428759263105e-01
9.666666666666666741e-01,1.644630887986092567e+09,1.042867954665838495e-02,1.123192621494160104e+00,2.275229996761824580e+00,-2.884475377350440711e-02,-8.726005594601117521e-02,3.105687462622491041e-02,2.158213036871932944e-01
9.833333333333332815e-01,1.644630888004011869e+09,1.099340538764529730e-02,1.207371273857678062e+00,2.443587301488860497e+00,-2.884475377350440711e-02,-8.657785409934132259e-02,3.477889155457156156e-02,2.307791770881522653e-01
1.000000000000000000e+00,1.644630888024989843e+09,1.156618778677388076e-02,1.206411061093075165e+00,2.441666875959654703e+00,-2.884475377350440711e-02,-8.529795105170161207e-02,3.874818453977791483e-02,2.454951026036354678e-01
1.016666666666666607e+00,1.644630888037921190e+09,1.214579290824548304e-02,1.101747869751362519e+00,2.232340493276229854e+00,-2.884475377350440711e-02,-8.340733014398316048e-02,4.294651538055840878e-02,2.582691140896446469e-01
1.033333333333333215e+00,1.644630888054876089e+09,1.273102421991351152e-02,9.849219833913468447e-01,1.998688720556198062e+00,-2.884475377350440711e-02,-8.089851595637222170e-02,4.734019252888269774e-02,2.689424947319032921e-01
1.050000000000000044e+00,1.644630888072863579e+09,1.332074385407817571e-02,1.076142196028619491e+00,2.181129145830743354e+00,-2.884475377350440711e-02,-7.776985892330724737e-02,5.192331665487417980e-02,2.809989095576669871e-01
1.066666666666666652e+00,1.644630888093772173e+09,1.391389388708917478e-02,1.015008650015569724e+00,2.058862053804643821e+00,-2.884475377350440711e-02,-7.402576631744200997e-02,5.669778912998989923e-02,2.919074851441867402e-01
1.083333333333333259e+00,1.644630888104743481e+09,1.450951719612617909e-02,8.703365934820711525e-01,1.769517940737646899e+00,-2.884475377350440711e-02,-6.967687546840510560e-02,6.163318299464964900e-02,3.003164199130881062e-01
1.100000000000000089e+00,1.644630888122696161e+09,1.510677754357043004e-02,9.023436856355002700e-01,1.833532125044504912e+00,-2.884475377350440711e-02,-6.474016560908281426e-02,6.671266702222622413e-02,3.091969945526185093e-01
1.116666666666666696e+00,1.644630888139650583e+09,1.570497853620602194e-02,9.874825507636210142e-01,2.003809855300746623e+00,-2.884475377350440711e-02,-5.923900532073492209e-02,7.195145328326522927e-02,3.194289340489609441e-01
1.133333333333333304e+00,1.644630888158599854e+09,1.630358110828547188e-02,9.301898558089833902e-01,1.889224465391471153e+00,-2.884475377350440711e-02,-5.320313317325420233e-02,7.735227901071278778e-02,3.286445536987755434e-01
1.149999999999999911e+00,1.644630888175587654e+09,1.690221918438596788e-02,8.508122672684796939e-01,1.730469288310463760e+00,-2.884475377350440711e-02,-4.666856982249298347e-02,8.289536441802045075e-02,3.365038632489009696e-01
1.166666666666666741e+00,1.644630888193506479e+09,1.750071319003141529e-02,7.650332602972900187e-01,1.558911274368084410e+00,-2.884475377350440711e-02,-3.967746052644504501e-02,8.855747056233378989e-02,3.429310204341017299e-01
1.183333333333333348e+00,1.644630888208466768e+09,1.809908109525086919e-02,6.344443243112999342e-01,1.297733402396104241e+00,-2.884475377350440711e-02,-3.227784776937085015e-02,9.430879330011746053e-02,3.472158056386835390e-01
1.199999999999999956e+00,1.644630888226450682e+09,1.869754669850801077e-02,6.132983263592488576e-01,1.287491132907006897e+00,-6.089448018850930622e-02,-2.452337443043114962e-02,1.001290876639121669e-01,3.512084271403691504e-01
1.216666666666666563e+00,1.644630888242374182e+09,1.929654488562041609e-02,5.438642535170959968e-01,1.116573260807696366e+00,-2.884475377350440711e-02,-1.647291869346985058e-02,1.060068959207043915e-01,3.541204744639707136e-01
1.233333333333333393e+00,1.644630888259330273e+09,1.989672363017233256e-02,5.249800691465729141e-01,1.078804892066650201e+00,-2.884475377350440711e-02,-8.190162659394963074e-03,1.119313718115556439e-01,3.568091636812391054e-01
1.250000000000000000e+00,1.644630888276287556e+09,2.049894253822263923e-02,4.814504238179094786e-01,9.917456014093233296e-01,-2.884475377350440711e-02,2.569026159043384769e-04,1.178954422028029303e-01,3.588735487305553806e-01
1.266666666666666607e+00,1.644630888294236898e+09,2.110426778046818955e-02,3.386987928136163672e-01,7.062423394007372179e-01,-2.884475377350440711e-02,8.796532185165087392e-03,1.238750964490396150e-01,3.586854832342983856e-01
1.283333333333333215e+00,1.644630888311225653e+09,2.171396329902291686e-02,3.050700289217280203e-01,6.710345380319653330e-01,-6.089448018850930622e-02,1.735383817162164735e-02,1.298481793637630277e-01,3.580861314377974391e-01
1.300000000000000044e+00,1.644630888328179598e+09,2.232947822314030120e-02,2.861858445512049376e-01,6.332661692909191675e-01,-6.089448018850930622e-02,2.585145172337208891e-02,1.358099212663032018e-01,3.573250111398335593e-01
1.316666666666666652e+00,1.644630888345099688e+09,2.295243047800971103e-02,-4.647210330175770288e-02,0.000000000000000000e+00,-9.294420660351540575e-02,3.421023038779161946e-02,1.417142905937950337e-01,3.512162772637756336e-01
1.333333333333333259e+00,1.644630888362053633e+09,2.358458662261593217e-02,-7.852182971676319179e-02,0.000000000000000000e+00,-1.570436594335263836e-01,4.235000471044029352e-02,1.475143889768769090e-01,3.448133151305883826e-01
1.350000000000000089e+00,1.644630888380007267e+09,2.422783800594451725e-02,-7.852182971676319179e-02,0.000000000000000000e+00,-1.570436594335263836e-01,5.019035729086031294e-02,1.532097386181409115e-01,3.386457742822259753e-01
1.366666666666666696e+00,1.644630888393970013e+09,2.488417338488720446e-02,-9.454669292426565175e-02,0.000000000000000000e+00,-1.890933858485313035e-01,5.765142701371361172e-02,1.588019649403224209e-01,3.324386268615352469e-01
1.383333333333333304e+00,1.644630888444833517e+09,2.555564820136376619e-02,-4.353013783524238844e-01,-6.174099180263054043e-01,-2.531928386785423091e-01,6.465473072447464054e-02,1.642454982324162149e-01,3.208176494423089498e-01
1.399999999999999911e+00,1.644630888459794044e+09,2.624435076972880115e-02,-5.299900234696578449e-01,-7.747374818457671841e-01,-2.852425650935483947e-01,7.112399424040545537e-02,1.694847687577168971e-01,3.079306117631874229e-01
1.416666666666666741e+00,1.644630888476749897e+09,2.695236567775483039e-02,-6.337343664436675406e-01,-8.860769885487707054e-01,-3.813917443385642647e-01,7.698598428521984116e-02,1.744975157263463084e-01,2.936387250919171854e-01
1.433333333333333348e+00,1.644630888492706299e+09,2.768173475466140926e-02,-6.660970920478070934e-01,-9.187527133420438918e-01,-4.134414707535703504e-01,8.217133271444446163e-02,1.792702848334100374e-01,2.791338599959640732e-01
1.449999999999999956e+00,1.644630888510658741e+09,2.843441600708162056e-02,-7.435297695645803895e-01,-1.009518615545579534e+00,-4.775409235835813559e-01,8.661534426198272407e-02,1.837932283771162023e-01,2.636623426972146134e-01
1.466666666666666563e+00,1.644630888526615620e+09,2.921224096782781138e-02,-8.366952034632998414e-01,-1.131750030513007266e+00,-5.416403764135924170e-01,9.025877898998206639e-02,1.880480854096713283e-01,2.469668785901041885e-01
1.483333333333333393e+00,1.644630888543569803e+09,3.001687094216761928e-02,-9.474087117880360953e-01,-1.289077594332469046e+00,-6.057398292436033671e-01,9.304860066614312197e-02,1.920120842194902588e-01,2.287635445949203761e-01
1.500000000000000000e+00,1.644630888560524702e+09,3.084975267141424476e-02,-9.921865568751135900e-01,-1.378633284506623813e+00,-6.057398292436033671e-01,9.493868242655133238e-02,1.956692847036933802e-01,2.101522128699078729e-01
1.516666666666666607e+00,1.644630888576480627e+09,3.171207396337819701e-02,-1.058122220112772460e+00,-1.446405158151930825e+00,-6.698392820736143172e-01,9.589046130850818750e-02,1.990098913257050406e-01,1.907744102678251286e-01
1.533333333333333215e+00,1.644630888593435764e+09,3.260471986308003528e-02,-1.033604980336028989e+00,-1.365320952183438630e+00,-7.018890084886192371e-01,9.587353355629374407e-02,2.020335950381014767e-01,1.721218491090997782e-01
1.550000000000000044e+00,1.644630888609393835e+09,3.352822995460338212e-02,-1.163076775116162809e+00,-1.560165088913695319e+00,-7.659884613186302982e-01,9.486618301198394831e-02,2.047309771875825968e-01,1.516209570912156746e-01
1.566666666666666652e+00,1.644630888627346277e+09,3.448275739565878628e-02,-1.197567817953506308e+00,-1.629147174588382319e+00,-7.659884613186302982e-01,9.285583540108252598e-02,2.070844678066053324e-01,1.308556000963192190e-01
1.583333333333333259e+00,1.644630888643334866e+09,3.546803028998981450e-02,-1.236899708908371753e+00,-1.707810956498113431e+00,-7.659884613186302982e-01,8.983943190556867298e-02,2.090888880962891716e-01,1.097335085232553215e-01
1.600000000000000089e+00,1.644630888662251472e+09,3.648331599892047639e-02,-1.269262434512510751e+00,-1.740486681291386173e+00,-7.980381877336351071e-01,8.582371608088128212e-02,2.107391663117673952e-01,8.835925166724994950e-02
1.616666666666666696e+00,1.644630888679207802e+09,3.752738898193890005e-02,-1.374237881879478484e+00,-1.918387849610315943e+00,-8.300879141486412482e-01,8.082542891326197076e-02,2.120209695089133040e-01,6.552057425400042989e-02
1.633333333333333304e+00,1.644630888696162462e+09,3.859850273714752339e-02,-1.426882105157529335e+00,-2.023676296166417199e+00,-8.300879141486412482e-01,7.487140762387944903e-02,2.129171889532467388e-01,4.209084318410617753e-02
1.649999999999999911e+00,1.644630888712153673e+09,3.969436638568378528e-02,-1.331880460851162074e+00,-1.833673007553682899e+00,-8.300879141486412482e-01,6.799858469946910844e-02,2.134383214026777387e-01,2.050501279881361549e-02
1.666666666666666741e+00,1.644630888731103897e+09,4.081212640992766538e-02,-1.319173234542666995e+00,-1.808258554936692519e+00,-8.300879141486412482e-01,6.025388455838114055e-02,2.136033568846077979e-01,-6.420118495212047416e-04
1.683333333333333348e+00,1.644630888750053406e+09,4.194835401364822164e-02,-1.255637103000192045e+00,-1.681186291851742842e+00,-8.300879141486412482e-01,5.169401623765806225e-02,2.134264561422362094e-01,-2.053082921985852419e-02
1.699999999999999956e+00,1.644630888764016390e+09,4.309903852349147163e-02,-1.302230266131340075e+00,-1.774372618114039124e+00,-8.300879141486412482e-01,4.238516150225934975e-02,2.129131009491369297e-01,-4.101489243724391887e-02
1.716666666666666563e+00,1.644630888781966209e+09,4.425958719574901723e-02,-1.235063498500723833e+00,-1.640039082852806418e+00,-8.300879141486412482e-01,3.240255882235841545e-02,2.120690722768433512e-01,-6.021521275958974934e-02
1.733333333333333393e+00,1.644630888797923565e+09,4.542483173064575108e-02,-1.223566484221609629e+00,-1.617045054294577788e+00,-8.300879141486412482e-01,2.182998472888877939e-02,2.109078179078070492e-01,-7.908290004876544765e-02
1.750000000000000000e+00,1.644630888816838503e+09,4.658904172899813040e-02,-1.252006466912050531e+00,-1.673925019675460035e+00,-8.300879141486412482e-01,1.075913513091975027e-02,2.094292508424634991e-01,-9.829178851310742260e-02
1.766666666666666607e+00,1.644630888833793879e+09,4.774594525366405995e-02,-1.129462052755488832e+00,-1.396786464947331607e+00,-8.621376405636461682e-01,-7.110897495564476528e-04,2.076485303997526177e-01,-1.153472871121472842e-01
1.783333333333333215e+00,1.644630888849782705e+09,4.888875658144557074e-02,-1.265610906060792296e+00,-1.669084171557938312e+00,-8.621376405636461682e-01,-1.247539211001636762e-02,2.055654775221694708e-01,-1.345656725374109464e-01
1.800000000000000044e+00,1.644630888866737127e+09,5.001021115080551277e-02,-1.173029685813185896e+00,-1.483921731062725513e+00,-8.621376405636461682e-01,-2.442296921473392779e-02,2.031759098328410340e-01,-1.521336490985478462e-01
1.816666666666666652e+00,1.644630888883692026e+09,5.110260762776257237e-02,-1.164245202418389136e+00,-1.434303037858126073e+00,-8.941873669786521983e-01,-3.643848520182110112e-02,2.004955227600150325e-01,-1.694646568193920178e-01
1.833333333333333259e+00,1.644630888900648117e+09,5.215785692754520975e-02,-1.100103964861224082e+00,-1.306020562743795743e+00,-8.941873669786521983e-01,-4.840311433629703591e-02,1.975358859851323312e-01,-1.856468046978013431e-01
1.849999999999999867e+00,1.644630888918566465e+09,5.316753794395032845e-02,-1.296158313620860980e+00,-1.698129260263069540e+00,-8.941873669786521983e-01,-6.019564709204892200e-02,1.942800739169643631e-01,-2.049968919748485219e-01
1.866666666666666696e+00,1.644630888935553312e+09,5.412295965285605220e-02,-1.346069113651016780e+00,-1.765901133908376108e+00,-9.262370933936571182e-01,-7.169364960720815694e-02,1.906959512234399912e-01,-2.250421486689612449e-01
1.883333333333333304e+00,1.644630888953505039e+09,5.501522917197716744e-02,-1.375114202356148008e+00,-1.823991311318638786e+00,-9.262370933936571182e-01,-8.277466629394814035e-02,1.867749673415051714e-01,-2.454193125978613721e-01
1.899999999999999911e+00,1.644630888969463587e+09,5.583532527673899792e-02,-1.336074418226839366e+00,-1.713862016645015363e+00,-9.582868198086632594e-01,-9.331745470410490739e-02,1.825211145840727467e-01,-2.649886577226113760e-01
1.916666666666666741e+00,1.644630888986425161e+09,5.657417679310243475e-02,-1.335469312212149262e+00,-1.712651804615635376e+00,-9.582868198086632594e-01,-1.032032411648487191e-01,1.779425271500603145e-01,-2.843879461782155560e-01
1.933333333333333348e+00,1.644630889003373384e+09,5.722274521329197283e-02,-1.333048888153388400e+00,-1.707810956498113431e+00,-9.582868198086632594e-01,-1.123169852115998985e-01,1.730423731964924883e-01,-3.035772234473975151e-01
1.949999999999999956e+00,1.644630889018335104e+09,5.777211081064538567e-02,-1.293716997198522733e+00,-1.629147174588382319e+00,-9.582868198086632594e-01,-1.205486404654131788e-01,1.678293439677294163e-01,-3.219352881797000743e-01
1.966666666666666563e+00,1.644630889037249088e+09,5.821356146615506988e-02,-1.272225287495230672e+00,-1.554114028766793165e+00,-9.903365462236681793e-01,-1.277943993351430552e-01,1.623148502763263890e-01,-3.397544559354699345e-01
1.983333333333333393e+00,1.644630889053241014e+09,5.853868336260407979e-02,-1.138204751423131933e+00,-1.318122683037600273e+00,-9.582868198086632594e-01,-1.339579087758297760e-01,1.565234913243175041e-01,-3.551658079867771045e-01
2.000000000000000000e+00,1.644630889073186398e+09,5.873945265334696436e-02,-1.172987901086031570e+00,-1.355639255948395183e+00,-9.903365462236681793e-01,-1.389514443078956885e-01,1.504719111528154407e-01,-3.709798835718404741e-01
2.016666666666666607e+00,1.644630889089110613e+09,5.880832717251277542e-02,-1.134866222160546556e+00,-1.279395898097424933e+00,-9.903365462236681793e-01,-1.426970295997242177e-01,1.441636953461115922e-01,-3.859643886278077973e-01
2.033333333333333215e+00,1.644630889104109049e+09,5.873833722239715782e-02,-1.059227970324266854e+00,-1.128119394424865751e+00,-9.903365462236681793e-01,-1.451274891406989787e-01,1.376179189525905400e-01,-3.994912032253695178e-01
2.049999999999999822e+00,1.644630889122055292e+09,5.852317445265701329e-02,-9.025055125194955119e-01,-8.146744788153226224e-01,-9.903365462236681793e-01,-1.461874218832897310e-01,1.308700641651245333e-01,-4.102215640112832351e-01
2.066666666666666430e+00,1.644630889138977051e+09,5.815727783511755872e-02,-7.975300651525282225e-01,-6.367733104963929636e-01,-9.582868198086632594e-01,-1.458340842105413648e-01,1.239594001783582283e-01,-4.190336358472347422e-01
2.083333333333333481e+00,1.644630889155967474e+09,5.763591573793741540e-02,-8.208162005363135449e-01,-6.512958548489587995e-01,-9.903365462236681793e-01,-1.440381711873802151e-01,1.169001172151828971e-01,-4.280552590794542978e-01
2.100000000000000089e+00,1.644630889172920704e+09,5.695526311382242274e-02,-7.945045350790769234e-01,-6.307222503494905874e-01,-9.582868198086632594e-01,-1.407844857772752589e-01,1.096958035169203344e-01,-4.364390957287975770e-01
2.116666666666666696e+00,1.644630889188849688e+09,5.611247283909197303e-02,-4.791434099043316297e-01,0.000000000000000000e+00,-9.582868198086632594e-01,-1.360724865455385513e-01,1.023971258471869789e-01,-4.393940163332287208e-01
2.133333333333333304e+00,1.644630889204805374e+09,5.510574027371153288e-02,-7.563828561535920203e-01,-5.544788924985207812e-01,-9.582868198086632594e-01,-1.299167053212499090e-01,9.501216542474522075e-02,-4.467807152687010008e-01
2.149999999999999911e+00,1.644630889222786665e+09,5.393436015681582485e-02,-4.951682731118340897e-01,0.000000000000000000e+00,-9.903365462236681793e-01,-1.223470273446428253e-01,8.754223822416909440e-02,-4.496027097423994645e-01
2.166666666666666519e+00,1.644630889239741564e+09,5.259877500753769308e-02,-4.791434099043316297e-01,0.000000000000000000e+00,-9.582868198086632594e-01,-1.134088275777575539e-01,8.002911546836333212e-02,-4.519654576112951960e-01
2.183333333333333126e+00,1.644630889257661343e+09,5.110061426677717233e-02,-4.791434099043316297e-01,0.000000000000000000e+00,-9.582868198086632594e-01,-1.031629580942952512e-01,7.247835508992934994e-02,-4.541198033661716926e-01
2.200000000000000178e+00,1.644630889274615049e+09,4.944272349141117656e-02,-4.791434099043316297e-01,0.000000000000000000e+00,-9.582868198086632594e-01,-9.168558277975265292e-02,6.489357176903004509e-02,-4.560488365900071117e-01
2.216666666666666785e+00,1.644630889292600632e+09,4.762918299776548042e-02,-7.624339163004943964e-01,-5.665810127923254225e-01,-9.582868198086632594e-01,-7.906785695416516935e-02,5.723951887392123017e-02,-4.624198132491426083e-01
2.233333333333333393e+00,1.644630889309555292e+09,4.566531544521305885e-02,-8.096321854463328638e-01,-6.609775510840023571e-01,-9.582868198086632594e-01,-6.541545096524513381e-02,4.947552962561092837e-02,-4.692399512743585799e-01
2.250000000000000000e+00,1.644630889325513601e+09,4.355768195270665055e-02,-7.999504892112889731e-01,-6.416141586139147979e-01,-9.582868198086632594e-01,-5.084791827685289367e-02,4.160216272667936060e-02,-4.755465578335626997e-01
2.266666666666666607e+00,1.644630889341469765e+09,4.131406644994736754e-02,-7.981351711672183269e-01,-6.379835225257736164e-01,-9.582868198086632594e-01,-3.549791008330761138e-02,3.362692767349743928e-02,-4.814652074678895666e-01
2.283333333333333215e+00,1.644630889358424425e+09,3.894344807969953720e-02,-7.521471140507604014e-01,-5.460074082928574324e-01,-9.582868198086632594e-01,-1.951024000034605119e-02,2.556242606494901759e-02,-4.862616617601929203e-01
2.299999999999999822e+00,1.644630889375377893e+09,3.645596158736607445e-02,-4.791434099043316297e-01,0.000000000000000000e+00,-9.582868198086632594e-01,-3.040803904372344282e-03,1.745862821475805890e-02,-4.861942674734803793e-01
2.316666666666666430e+00,1.644630889393332481e+09,3.386284575712014688e-02,-4.791434099043316297e-01,0.000000000000000000e+00,-9.582868198086632594e-01,1.374463850137861397e-02,9.358262707827001009e-03,-4.858505481565985606e-01
2.333333333333333481e+00,1.644630889410284281e+09,3.117638007939528555e-02,-4.791434099043316297e-01,0.000000000000000000e+00,-9.582868198086632594e-01,3.067181233659656975e-02,1.265916371190046325e-03,-4.852327284460904999e-01
2.350000000000000089e+00,1.644630889427238226e+09,2.840980996103617193e-02,-4.951682731118340897e-01,0.000000000000000000e+00,-9.903365462236681793e-01,4.755939691690760918e-02,-6.816099144331979470e-03,-4.846108608671506057e-01
2.366666666666666696e+00,1.644630889444194794e+09,2.557726091554936645e-02,-4.791434099043316297e-01,0.000000000000000000e+00,-9.582868198086632594e-01,6.422060497942477797e-02,-1.488332147639208000e-02,-4.834590186171722759e-01
2.383333333333333304e+00,1.644630889460152626e+09,2.269364229529148569e-02,-4.791434099043316297e-01,0.000000000000000000e+00,-9.582868198086632594e-01,8.046485958380374115e-02,-2.292926186609414024e-02,-4.820577207328123337e-01
2.399999999999999911e+00,1.644630889477105379e+09,1.977454124868960675e-02,1.758046388028719487e-01,1.309896097414407157e+00,-9.582868198086632594e-01,9.609955529083678838e-02,-3.085941961575989351e-02,-4.695958264149180938e-01
2.416666666666666519e+00,1.644630889495058060e+09,1.683610770233069653e-02,2.218735343730215970e-01,1.434083614969711373e+00,-9.903365462236681793e-01,1.109318890985200173e-01,-3.857518866166576715e-02,-4.563333003111532116e-01
2.433333333333333126e+00,1.644630889512012720e+09,1.389493127861644861e-02,2.724660571062272885e-01,1.503218934021117725e+00,-9.582868198086632594e-01,1.247707456046257823e-01,-4.606284813831536262e-02,-4.422250274559894057e-01
2.450000000000000178e+00,1.644630889528934240e+09,1.096791116333341483e-02,4.139374044243832595e-01,1.786161628657429778e+00,-9.582868198086632594e-01,1.374286199770984318e-01,-5.329602997072598741e-02,-4.258024118835541105e-01
2.466666666666666785e+00,1.644630889545923233e+09,8.072120032667426393e-03,4.177782554827949024e-01,1.793843330774253175e+00,-9.582868198086632594e-01,1.487235615597253258e-01,-6.025567928022139419e-02,-4.094010656233500467e-01
2.483333333333333393e+00,1.644630889562876701e+09,5.224663234688974034e-03,4.686908491375353925e-01,1.863618791668727903e+00,-9.262370933936571182e-01,1.584811203305023786e-01,-6.693585838911698949e-02,-3.922680203566538126e-01
2.500000000000000000e+00,1.644630889579833031e+09,2.442534495040688675e-03,5.307846079151875562e-01,1.987806309224032342e+00,-9.262370933936571182e-01,1.665362779724354481e-01,-7.332316416499061462e-02,-3.742586998159864731e-01
2.516666666666666607e+00,1.644630889596791983e+09,-2.575305205607797128e-04,6.511312744120804075e-01,2.228499642217817822e+00,-9.262370933936571182e-01,1.727353450186657202e-01,-7.939532349499933694e-02,-3.544554301621319903e-01
2.533333333333333215e+00,1.644630889613740206e+09,-2.859201404244781329e-03,7.561358538061154766e-01,2.406459074590883152e+00,-8.941873669786521983e-01,1.769378054018256596e-01,-8.512507983743781981e-02,-3.331744461662278223e-01
2.549999999999999822e+00,1.644630889631692410e+09,-5.346699544934753467e-03,5.640933008855416597e-01,2.022373968749735518e+00,-8.941873669786521983e-01,1.790180897760375034e-01,-9.052933013672333218e-02,-3.153850060225826812e-01
2.566666666666666430e+00,1.644630889649664879e+09,-7.704942566479453837e-03,4.981800081802666980e-01,1.858497656924179564e+00,-8.621376405636461682e-01,1.788672591920973665e-01,-9.564867166296994738e-02,-2.989815433734633321e-01
2.583333333333333481e+00,1.644630889665622711e+09,-9.919685215361335670e-03,5.676353981532075155e-01,1.997408436870061310e+00,-8.621376405636461682e-01,1.763945810937589120e-01,-1.004876361139239588e-01,-2.817420792683932307e-01
2.600000000000000089e+00,1.644630889683555365e+09,-1.197765525567102106e-02,2.469456519066373368e-01,1.323979217961915866e+00,-8.300879141486412482e-01,1.715289801655813795e-01,-1.050866231535055179e-01,-2.701685150276080249e-01
2.616666666666666696e+00,1.644630889700508118e+09,-1.386668295159287738e-02,2.696706873355719236e-01,1.369429288819785206e+00,-8.300879141486412482e-01,1.642203472989913760e-01,-1.094921866809942107e-01,-2.585314342562099466e-01
2.633333333333333304e+00,1.644630889717462778e+09,-1.557582275550270338e-02,3.042383468612751551e-01,1.438564607871191559e+00,-8.300879141486412482e-01,1.544406908497045761e-01,-1.137019824503422427e-01,-2.466769878583456033e-01
2.649999999999999911e+00,1.644630889733421326e+09,-1.709546587281680907e-02,1.723691271891479027e-01,1.174826168526936998e+00,-8.300879141486412482e-01,1.421851154316170762e-01,-1.177357480437226794e-01,-2.374006515546190910e-01
2.666666666666666519e+00,1.644630889752372742e+09,-1.841744244266108402e-02,3.263232404471410053e-01,1.482734395042923259e+00,-8.300879141486412482e-01,1.274726147232159157e-01,-1.215969571632369989e-01,-2.259761781822654803e-01
2.683333333333333126e+00,1.644630889767330647e+09,-1.953511215578495469e-02,3.343463306162868243e-01,1.466730848966208756e+00,-7.980381877336351071e-01,1.103466661443412156e-01,-1.252705936385203889e-01,-2.148909917609716225e-01
2.700000000000000178e+00,1.644630889785281181e+09,-2.044344222731882960e-02,3.381871816746984671e-01,1.474412551083032152e+00,-7.980381877336351071e-01,9.087561678425641609e-02,-1.287631669490503505e-01,-2.042473718094590940e-01
2.716666666666666785e+00,1.644630889802237272e+09,-2.113907175116800513e-02,3.788361887095530456e-01,1.555710565152741198e+00,-7.980381877336351071e-01,6.915285161519335588e-02,-1.320772025938501681e-01,-1.934668521592468327e-01
2.733333333333333393e+00,1.644630889819192410e+09,-2.162036158412561360e-02,3.733949830434702966e-01,1.544828153820575700e+00,-7.980381877336351071e-01,4.529673679656248675e-02,-1.352170984824235811e-01,-1.833487609400062113e-01
2.750000000000000000e+00,1.644630889836112499e+09,-2.188742904007846130e-02,3.801164723956904079e-01,1.558271132525015812e+00,-7.980381877336351071e-01,1.945033274983962168e-02,-1.381923985759112017e-01,-1.737140140940930944e-01
2.766666666666666607e+00,1.644630889853066921e+09,-2.194216681675546093e-02,4.255878603843473718e-01,1.617164182087325042e+00,-7.659884613186302982e-01,-8.219126352014757830e-03,-1.410059915000415887e-01,-1.639442756027571502e-01
2.783333333333333215e+00,1.644630889869024277e+09,-2.178824572797953898e-02,3.366081441978148736e-01,1.439204749714259934e+00,-7.659884613186302982e-01,-3.752098800015990498e-02,-1.436744419610212486e-01,-1.562910392051498898e-01
2.799999999999999822e+00,1.644630889885978937e+09,-2.143110097186329277e-02,4.192077590844503487e-01,1.572354253072524743e+00,-7.339387349036241570e-01,-6.824217089761330790e-02,-1.462092300759585961e-01,-1.479068246204319204e-01
2.816666666666666430e+00,1.644630889902933598e+09,-2.087790182828273486e-02,3.407690661777605934e-01,1.447526593674151485e+00,-7.659884613186302982e-01,-1.001483857358777679e-01,-1.486206802067692179e-01,-1.414850298155899133e-01
2.833333333333333481e+00,1.644630889919888496e+09,-2.013750484561770138e-02,3.218848818072376772e-01,1.409758224933105542e+00,-7.659884613186302982e-01,-1.329855821474766053e-01,-1.509331311885896421e-01,-1.360242571727734717e-01
2.850000000000000089e+00,1.644630889936842918e+09,-1.922039074545230444e-02,3.689353072727782901e-01,1.503859075864186767e+00,-7.659884613186302982e-01,-1.664816146312473599e-01,-1.531534513981500922e-01,-1.304297087525208287e-01
2.866666666666666696e+00,1.644630889954795122e+09,-1.813858544292255848e-02,3.043022982536402465e-01,1.342543331410904539e+00,-7.339387349036241570e-01,-2.003481181162493352e-01,-1.552949066576744808e-01,-1.265556838240399218e-01
2.883333333333333304e+00,1.644630889970752478e+09,-1.690556574788095942e-02,2.831563003015886704e-01,1.332301061921807639e+00,-7.659884613186302982e-01,-2.342825817376536224e-01,-1.573799376581497544e-01,-1.236560908474990533e-01
2.899999999999999911e+00,1.644630889987706900e+09,-1.553615047621804794e-02,2.274852770854108308e-01,1.188909289074445708e+00,-7.339387349036241570e-01,-2.679706073637521668e-01,-1.594293849186584344e-01,-1.222813990916293836e-01
2.916666666666666519e+00,1.644630890005658865e+09,-1.404637785973575533e-02,5.910665522758588170e-02,8.842017717738019922e-01,-7.659884613186302982e-01,-3.010883374566506454e-01,-1.614839412996861845e-01,-1.242598707477527015e-01
2.933333333333333126e+00,1.644630890021650791e+09,-1.245337029513422442e-02,-1.194908935302633340e-02,7.420902826125775897e-01,-7.659884613186302982e-01,-3.333050349892862085e-01,-1.635854629820583106e-01,-1.279125844710857773e-01
2.950000000000000178e+00,1.644630890040598631e+09,-1.077518761622874195e-02,2.645942123108841262e-02,8.189073037808071165e-01,-7.659884613186302982e-01,-3.642857963967566226e-01,-1.657463327874214021e-01,-1.313821542518171515e-01
2.966666666666666785e+00,1.644630890057552338e+09,-9.030670206797436136e-03,2.581927938801982514e-02,8.176270200946699207e-01,-7.659884613186302982e-01,-3.936943769283579031e-01,-1.679686998816151966e-01,-1.352910387832956529e-01
2.983333333333333393e+00,1.644630890073510170e+09,-7.239273392892240505e-03,8.759296724413768997e-02,9.411743958069056504e-01,-7.659884613186302982e-01,-4.211961063052016008e-01,-1.702509414942458554e-01,-1.385688494883494104e-01
3.000000000000000000e+00,1.644630890093426466e+09,-5.420894661569344332e-03,1.288821161220609912e-01,1.023752693562752336e+00,-7.659884613186302982e-01,-4.464608712926783074e-01,-1.725851472565453071e-01,-1.415276229788935969e-01
3.016666666666666607e+00,1.644630890107421875e+09,-3.595695346444747770e-03,2.005993196765304687e-01,1.135137374256685039e+00,-7.339387349036241570e-01,-4.691661406822060232e-01,-1.749614876902805538e-01,-1.436273962285862793e-01
3.033333333333333215e+00,1.644630890125339508e+09,-1.783918498058692384e-03,1.669705557846415112e-01,1.099929572887913265e+00,-7.659884613186302982e-01,-4.890000072558073341e-01,-1.773799186083112600e-01,-1.465761228350750123e-01
3.049999999999999822e+00,1.644630890141296864e+09,-5.704717674577368301e-06,1.500067969433241388e-01,1.066002055205278465e+00,-7.659884613186302982e-01,-5.056642205922226019e-01,-1.798517324024898056e-01,-1.500319327683781179e-01
3.066666666666666430e+00,1.644630890159248829e+09,1.719092224045665456e-03,1.685709103923129781e-01,1.103130282103256254e+00,-7.659884613186302982e-01,-5.188771840744809127e-01,-1.823799266071942371e-01,-1.533421764583764724e-01
3.083333333333333481e+00,1.644630890176237583e+09,3.371088137769112040e-03,2.380476174960422797e-01,1.210033969895708772e+00,-7.339387349036241570e-01,-5.283768891848246163e-01,-1.849545502741130054e-01,-1.556063739862707240e-01
3.100000000000000089e+00,1.644630890192194223e+09,4.931547684680875898e-03,3.615949932082779816e-01,1.457128721320180231e+00,-7.339387349036241570e-01,-5.339237601301034530e-01,-1.875502995458070976e-01,-1.558827708299403980e-01
3.116666666666666696e+00,1.644630890210147381e+09,6.382558327362719379e-03,4.185676172413815843e-01,1.571073969386387326e+00,-7.339387349036241570e-01,-5.353033820340376003e-01,-1.901429387222990097e-01,-1.552357277333260843e-01
3.133333333333333304e+00,1.644630890226125956e+09,7.707197159251318562e-03,4.076852059092159197e-01,1.549309146722056107e+00,-7.339387349036241570e-01,-5.323290863647295312e-01,-1.927259754899773025e-01,-1.547300889732396711e-01
3.149999999999999911e+00,1.644630890244077682e+09,8.889688862662281643e-03,4.515562392902013888e-01,1.605001487069021904e+00,-7.018890084886192371e-01,-5.248443679370967674e-01,-1.952935615020005011e-01,-1.533839717719980567e-01
3.166666666666666519e+00,1.644630890262008905e+09,9.915553117561282451e-03,4.874041825020417606e-01,1.676697373492702869e+00,-7.018890084886192371e-01,-5.127251087391055950e-01,-1.978322728997847502e-01,-1.512672758114982086e-01
3.183333333333333126e+00,1.644630890277965784e+09,1.077173987408301323e-02,4.493157428394614072e-01,1.600520494167541941e+00,-7.018890084886192371e-01,-4.958815849740328963e-01,-2.003389327490472660e-01,-1.495367133311452101e-01
3.200000000000000178e+00,1.644630890295917034e+09,1.144675101049725738e-02,4.807040102806096060e-01,1.631247302634833529e+00,-6.698392820736143172e-01,-4.742602350828916125e-01,-2.028096672016609647e-01,-1.469585826252362004e-01
3.216666666666666785e+00,1.644630890312871695e+09,1.193074702399977462e-02,4.759029464575952884e-01,1.621645174988805005e+00,-6.698392820736143172e-01,-4.478451681036275112e-01,-2.052348035649750047e-01,-1.440658166226893577e-01
3.233333333333333393e+00,1.644630890328828812e+09,1.221563754323496710e-02,5.242336556092731525e-01,1.718306593292160844e+00,-6.698392820736143172e-01,-4.166593935268664839e-01,-2.076011438554545840e-01,-1.399065719641696681e-01
3.250000000000000000e+00,1.644630890346780062e+09,1.229515460754122998e-02,5.306563911707474768e-01,1.699102338000103130e+00,-6.377895556586082870e-01,-3.807657558098102579e-01,-2.098928931199812165e-01,-1.351166454436274200e-01
3.266666666666666607e+00,1.644630890363734007e+09,1.216490782706636242e-02,5.280958237984730852e-01,1.693981203255554568e+00,-6.377895556586082870e-01,-3.402675588965671793e-01,-2.121002318985512058e-01,-1.297788355833590090e-01
3.283333333333333215e+00,1.644630890380712509e+09,1.182242071850285979e-02,4.989693699388526582e-01,1.635728295536313492e+00,-6.377895556586082870e-01,-2.953088684487287785e-01,-2.142171576839939640e-01,-1.242675681064141779e-01
3.299999999999999822e+00,1.644630890397667885e+09,1.126714770142718883e-02,5.002496536249900760e-01,1.638288862908588550e+00,-6.377895556586082870e-01,-2.460744819971562580e-01,-2.162360131190567414e-01,-1.180124598108874961e-01
3.316666666666666430e+00,1.644630890414605141e+09,1.050047143822721400e-02,4.522603325256346340e-01,1.510260494294872746e+00,-6.057398292436033671e-01,-1.927895598652360487e-01,-2.181507492768160195e-01,-1.117732107754549203e-01
3.333333333333333481e+00,1.644630890431553602e+09,9.525680404288286787e-03,4.663434530731432326e-01,1.538426735389889943e+00,-6.057398292436033671e-01,-1.357189124649681722e-01,-2.199525319249087674e-01,-1.044610191172259256e-01
3.350000000000000089e+00,1.644630890447510958e+09,8.347926782423834360e-03,4.833285290452492555e-01,1.540347160919095737e+00,-5.736901028285972259e-01,-7.516594240790244741e-02,-2.216227450819846234e-01,-9.598809618286094358e-02
3.366666666666666696e+00,1.644630890464465380e+09,6.974164984252996524e-03,4.503612241272174077e-01,1.474412551083032152e+00,-5.736901028285972259e-01,-1.147124278038381268e-02,-2.231486690580751497e-01,-8.714733918432318593e-02
3.383333333333333304e+00,1.644630890482417583e+09,5.413071309162734678e-03,4.500411532056832198e-01,1.473772409239963777e+00,-5.736901028285972259e-01,5.498914411765235682e-02,-2.245193328405131750e-01,-7.735950377982955817e-02
3.399999999999999911e+00,1.644630890499373198e+09,3.674945456365678528e-03,3.902092080095588278e-01,1.322058792432710073e+00,-5.416403764135924170e-01,1.238058003034260002e-01,-2.257269769608212240e-01,-6.758494285430509396e-02
3.416666666666666519e+00,1.644630890517324209e+09,1.771594805160299577e-03,3.975495220740596913e-01,1.368789146976716609e+00,-5.736901028285972259e-01,1.945383276848119125e-01,-2.267622783397861830e-01,-5.668151064602559852e-02
3.433333333333333126e+00,1.644630890533249855e+09,-2.837974294129831654e-04,4.122941015954249555e-01,1.366228579604442217e+00,-5.416403764135924170e-01,2.667180525234019162e-01,-2.276053558078193484e-01,-4.452156394267865747e-02
3.449999999999999734e+00,1.644630890551234961e+09,-2.476818875908279489e-03,5.166585391463919263e-01,1.542907728291370129e+00,-5.095906499985862759e-01,3.398510227666765027e-01,-2.282229310048388971e-01,-2.962882938044131276e-02
3.466666666666666785e+00,1.644630890566196203e+09,-4.791988060523798276e-03,5.224198157340090853e-01,1.554430281466604447e+00,-5.095906499985862759e-01,4.134212794467914676e-01,-2.285833936401241717e-01,-1.367101515880936313e-02
3.483333333333333393e+00,1.644630890584152699e+09,-7.212926218664885390e-03,4.872120143652372559e-01,1.484014678729060677e+00,-5.095906499985862759e-01,4.868943806718783462e-01,-2.286748115840022688e-01,2.655509369020651184e-03
3.500000000000000000e+00,1.644630890600103617e+09,-9.722539105511305083e-03,4.872120143652372559e-01,1.484014678729060677e+00,-5.095906499985862759e-01,5.597211541995408268e-01,-2.284863169431660124e-01,1.991590087093068548e-02
3.516666666666666607e+00,1.644630890618055820e+09,-1.230320692309366283e-02,4.885136151821623529e-01,1.454568153947906062e+00,-4.775409235835813559e-01,6.313416522055975699e-01,-2.280024610878424729e-01,3.809629947206981393e-02
3.533333333333333215e+00,1.644630890635014057e+09,-1.493698037629306689e-02,4.987558846712595861e-01,1.475052692926100528e+00,-4.775409235835813559e-01,7.011892796669929595e-01,-2.272070476183635501e-01,5.729997207489509470e-02
3.549999999999999822e+00,1.644630890651965380e+09,-1.760578078534208099e-02,4.244781137445163832e-01,1.358546877487619042e+00,-5.095906499985862759e-01,7.686950657883349081e-01,-2.260951607095998683e-01,7.607430482501226221e-02
3.566666666666666430e+00,1.644630890668920040e+09,-2.029160211900100583e-02,3.518220145562326873e-01,1.213234679111051539e+00,-5.095906499985862759e-01,8.332920461368937826e-01,-2.246740745047235976e-01,9.440511963168810028e-02
3.583333333333333481e+00,1.644630890684876680e+09,-2.297671277156369124e-02,3.959918017279646096e-01,1.301574253454515606e+00,-5.095906499985862759e-01,8.944197216302642861e-01,-2.229354628429399965e-01,1.141733666925416613e-01
3.600000000000000089e+00,1.644630890701833487e+09,-2.564385488893348650e-02,4.087946385893361234e-01,1.327179927177258634e+00,-5.095906499985862759e-01,9.515285592609560306e-01,-2.208604545615919235e-01,1.347704117086984676e-01
3.616666666666666696e+00,1.644630890719788313e+09,-2.827643905469364588e-02,3.972720854141017499e-01,1.304134820826789776e+00,-5.095906499985862759e-01,1.004084498458296837e+00,-2.184393395190243614e-01,1.557052397306708802e-01
3.633333333333333304e+00,1.644630890736738682e+09,-3.085873217659663645e-02,3.745683671159553141e-01,1.226677657815491873e+00,-4.775409235835813559e-01,1.051573426292832014e+00,-2.156687788594745803e-01,1.767037089612675527e-01
3.649999999999999911e+00,1.644630890752663374e+09,-3.337603646720362083e-02,2.987115587123285732e-01,1.074964041008238613e+00,-4.775409235835813559e-01,1.093505584332692848e+00,-2.125558297214316106e-01,1.967943788739749400e-01
3.666666666666666519e+00,1.644630890771644592e+09,-3.581485748923745466e-02,1.703418020462906246e-01,8.502742540911675251e-01,-5.095906499985862759e-01,1.129419869873212745e+00,-2.091235810140009976e-01,2.150248246985360656e-01
3.683333333333333126e+00,1.644630890787601709e+09,-3.816305933602064104e-02,1.184903127577357079e-01,7.465712755140576640e-01,-5.095906499985862759e-01,1.158887994486185846e+00,-2.053931011425991215e-01,2.325839832811995300e-01
3.699999999999999734e+00,1.644630890804556131e+09,-4.041000513936293670e-02,5.799690858775494867e-02,6.255844671740962148e-01,-5.095906499985862759e-01,1.181518463376459049e+00,-2.013776235554111393e-01,2.492270952267484629e-01
3.716666666666666785e+00,1.644630890822508812e+09,-4.254668124040780763e-02,1.926832708210591064e-02,5.481273041627980902e-01,-5.095906499985862759e-01,1.196960339891706804e+00,-1.970902758953697043e-01,2.652102253496039230e-01
3.733333333333333393e+00,1.644630890839466572e+09,-4.456580352191965438e-02,-2.547953249992931379e-01,0.000000000000000000e+00,-5.095906499985862759e-01,1.204906760703497115e+00,-1.925755065759561513e-01,2.765306466252604456e-01
3.750000000000000000e+00,1.644630890855405092e+09,-4.646190458180683019e-02,-2.547953249992931379e-01,0.000000000000000000e+00,-5.095906499985862759e-01,1.205098168659485491e+00,-1.878736007134877706e-01,2.876671214904619189e-01
3.766666666666666607e+00,1.644630890874373198e+09,-4.823140062556197094e-02,-2.547953249992931379e-01,0.000000000000000000e+00,-5.095906499985862759e-01,1.197325232089611946e+00,-1.829886987139420218e-01,2.984910512757548151e-01
3.783333333333333215e+00,1.644630890890326262e+09,-4.987263716782366907e-02,-2.547953249992931379e-01,0.000000000000000000e+00,-5.095906499985862759e-01,1.181431421423249750e+00,-1.779270881522839465e-01,3.088733756544960185e-01
3.799999999999999822e+00,1.644630890908298016e+09,-5.138591285829108291e-02,-2.387704617917906780e-01,0.000000000000000000e+00,-4.775409235835813559e-01,1.157315216326098906e+00,-1.726949904429830041e-01,3.189503571874335308e-01
3.816666666666666430e+00,1.644630890925233364e+09,-5.277348098246405911e-02,-2.547953249992931379e-01,0.000000000000000000e+00,-5.095906499985862759e-01,1.124931919179531725e+00,-1.673030210384462702e-01,3.280606643525674215e-01
3.833333333333333481e+00,1.644630890942188025e+09,-5.403952843068443590e-02,-2.547953249992931379e-01,0.000000000000000000e+00,-5.095906499985862759e-01,1.084295053582897905e+00,-1.617660842854815872e-01,3.363487230759961144e-01
3.850000000000000089e+00,1.644630890959109783e+09,-5.519013217719300618e-02,-2.708201882067962085e-01,0.000000000000000000e+00,-5.416403764135924170e-01,1.035477329640439592e+00,-1.561011140617578619e-01,3.434280385428331028e-01
3.866666666666666696e+00,1.644630890976064920e+09,-5.623319356171359307e-02,-2.868450514142986130e-01,0.000000000000000000e+00,-5.736901028285972259e-01,9.786111610761121238e-01,-1.503292007911836980e-01,3.491855604332891883e-01
3.883333333333333304e+00,1.644630890992058754e+09,-5.717835091675403658e-02,-2.868450514142986130e-01,0.000000000000000000e+00,-5.736901028285972259e-01,9.138887226770663341e-01,-1.444710635497179207e-01,3.537781510462028600e-01
3.899999999999999911e+00,1.644630891010008097e+09,-5.803687133160789074e-02,-5.813195729004425605e-01,-5.568993165572816428e-01,-6.057398292436033671e-01,8.415615401731300071e-01,-1.385876802966558574e-01,3.522321339143522634e-01
3.916666666666666519e+00,1.644630891028958797e+09,-5.882152258621885232e-02,-6.064210263282985292e-01,-5.750524969979887713e-01,-6.377895556586082870e-01,7.619396083869151015e-01,-1.327443149053533500e-01,3.489807448906933618e-01
3.933333333333333126e+00,1.644630891047916889e+09,-5.954642652189243157e-02,-6.741928999736050976e-01,-7.105962442886019081e-01,-6.377895556586082870e-01,6.753900373075809593e-01,-1.269760052025848684e-01,3.432323874768244965e-01
3.949999999999999734e+00,1.644630891062865973e+09,-6.022689533865188682e-02,-6.920330812251788144e-01,-7.142268803767435337e-01,-6.698392820736143172e-01,5.823352296197543687e-01,-1.213180243619256388e-01,3.357461091094082195e-01
3.966666666666666785e+00,1.644630891078824043e+09,-6.087925251824236050e-02,-7.552562135785199082e-01,-8.086234186684206904e-01,-7.018890084886192371e-01,4.832505971257841648e-01,-1.158061988483540805e-01,3.257008566549577377e-01
3.983333333333333393e+00,1.644630891097739697e+09,-6.152064026490951937e-02,-7.325542918458473052e-01,-7.311698487880702313e-01,-7.339387349036241570e-01,3.786618274017672925e-01,-1.104717170060458137e-01,3.144681670719147726e-01
4.000000000000000000e+00,1.644630891116724491e+09,-6.216881553080304268e-02,-7.700708647566416598e-01,-8.062029946096592736e-01,-7.339387349036241570e-01,2.691417158927615350e-01,-1.053432039723173896e-01,3.009908348904550279e-01
4.016666666666666607e+00,1.644630891131681442e+09,-6.284193684699099225e-02,-8.112180737555780841e-01,-8.884974126075320111e-01,-7.339387349036241570e-01,1.553065824468780887e-01,-1.004588578842377927e-01,2.851746306138970843e-01
4.033333333333333215e+00,1.644630891148604870e+09,-6.355834431267118334e-02,-8.447910113890979567e-01,-9.235935614595656151e-01,-7.659884613186302982e-01,3.781229497888131952e-02,-9.585679613925020270e-02,2.671229235954059034e-01
4.049999999999999822e+00,1.644630891164600611e+09,-6.433633520246431758e-02,-8.810973722705121025e-01,-9.962062832223939068e-01,-7.659884613186302982e-01,-8.265007349134298464e-02,-9.157475584224458731e-02,2.467784258690360333e-01
4.066666666666666430e+00,1.644630891180519342e+09,-6.519393773315818041e-02,-9.673145331820821591e-01,-1.136590878630528989e+00,-7.980381877336351071e-01,-2.053589247933751138e-01,-8.765783748022284994e-02,2.233169498740900094e-01
4.083333333333333037e+00,1.644630891199541807e+09,-6.614868558570392854e-02,-1.054449799297476398e+00,-1.310861410861317466e+00,-7.980381877336351071e-01,-3.295671197337797231e-01,-8.415789407164118996e-02,1.967500578149874169e-01
4.099999999999999645e+00,1.644630891216462851e+09,-6.721739580464183850e-02,-9.978619407421509546e-01,-1.165635967335660661e+00,-8.300879141486412482e-01,-4.545072306170920284e-01,-8.110650361218793569e-02,1.694925144995467758e-01
4.116666666666666252e+00,1.644630891234448671e+09,-6.841595269479804065e-02,-1.004205107714609690e+00,-1.146272574865573102e+00,-8.621376405636461682e-01,-5.793970236777011840e-01,-7.852376667776313213e-02,1.405164087085834512e-01
4.133333333333332860e+00,1.644630891251369953e+09,-6.975910030364655678e-02,-9.942104122904324992e-01,-1.094233457602212578e+00,-8.941873669786521983e-01,-7.034451305200254412e-01,-7.643571575975874333e-02,1.101340987437380847e-01
4.150000000000000355e+00,1.644630891268357277e+09,-7.126024601710082007e-02,-1.077402043128551146e+00,-1.228566992863445284e+00,-9.262370933936571182e-01,-8.258568655510153400e-01,-7.487823829417353250e-02,7.685563946682677505e-02
4.166666666666666963e+00,1.644630891283316135e+09,-7.293127770693168255e-02,-1.301583375389496089e+00,-1.644879930970328807e+00,-9.582868198086632594e-01,-9.458401446050589412e-01,-7.391834156697957292e-02,3.843868407305690155e-02
4.183333333333333570e+00,1.644630891301270008e+09,-7.478239675007734844e-02,-1.442280969986764472e+00,-1.958324846579871714e+00,-9.262370933936571182e-01,-1.062611458525241748e+00,-7.362898299474783526e-02,-3.598881641041606905e-03
4.200000000000000178e+00,1.644630891318223238e+09,-7.682196909466257329e-02,-1.435311804636038246e+00,-1.912336789463413345e+00,-9.582868198086632594e-01,-1.175401854394521717e+00,-7.404906034936006853e-02,-4.669069860360536284e-02
4.216666666666666785e+00,1.644630891335181475e+09,-7.905639637580776091e-02,-1.504293890310725468e+00,-2.050300960812787565e+00,-9.582868198086632594e-01,-1.283462876418441923e+00,-7.520583607246267288e-02,-9.199653565932221222e-02
4.233333333333333393e+00,1.644630891352133512e+09,-8.149000888773484663e-02,-1.572962976796278722e+00,-2.155589407368889265e+00,-9.903365462236681793e-01,-1.386072418159428610e+00,-7.713510850460052193e-02,-1.393845198097794780e-01
4.250000000000000000e+00,1.644630891369088650e+09,-8.412498199907607332e-02,-1.631658260221231505e+00,-2.272979974218795274e+00,-9.903365462236681793e-01,-1.482540437918367759e+00,-7.986906665342101419e-02,-1.885538732966189901e-01
4.266666666666666607e+00,1.644630891386042833e+09,-8.696127735770342593e-02,-1.532712980637589872e+00,-2.043039688636505424e+00,-1.022386272638674320e+00,-1.572214489556901462e+00,-8.341444218475460581e-02,-2.367572889351935717e-01
4.283333333333333215e+00,1.644630891403003931e+09,-8.999660997213905500e-02,-1.705168194824306926e+00,-2.387950117009939532e+00,-1.022386272638674320e+00,-1.654485021954775092e+00,-8.779173294413007700e-02,-2.883742184554694554e-01
4.299999999999999822e+00,1.644630891419952154e+09,-9.322644198123522519e-02,-1.801380051160055062e+00,-2.580373829681435804e+00,-1.022386272638674320e+00,-1.728790401598026882e+00,-9.304572843183271658e-02,-3.419563971804014946e-01
4.316666666666666430e+00,1.644630891436908722e+09,-9.664400363506932268e-02,-2.015566687996821926e+00,-2.944647650524958138e+00,-1.086485725468685271e+00,-1.794621614490375716e+00,-9.922403563948152538e-02,-3.992812283475393187e-01
4.333333333333333037e+00,1.644630891454860687e+09,-1.002403417108587713e-01,-2.045821988731333807e+00,-3.005158251993981899e+00,-1.086485725468685271e+00,-1.851526605662700220e+00,-1.063618775886403661e-01,-4.570991963049477191e-01
4.349999999999999645e+00,1.644630891470818996e+09,-1.040043952812338968e-01,-2.001044143644255868e+00,-2.915602561819826466e+00,-1.086485725468685271e+00,-1.899114217011091066e+00,-1.144557545768235818e-01,-5.140079586610202256e-01
4.366666666666666252e+00,1.644630891487771749e+09,-1.079230984416554157e-01,-1.766263009944444073e+00,-2.446040294420203320e+00,-1.086485725468685271e+00,-1.937057687007331941e+00,-1.234630633546284911e-01,-5.667226614990782396e-01
4.383333333333332860e+00,1.644630891504725218e+09,-1.119815092924601047e-01,-1.734192391165861435e+00,-2.381899056863037600e+00,-1.086485725468685271e+00,-1.965097678977264506e+00,-1.333411128198226103e-01,-6.184994465362695371e-01
4.400000000000000355e+00,1.644630891523645401e+09,-1.161629641622906328e-01,-1.863977185135128334e+00,-2.609418918386566588e+00,-1.118535451883690079e+00,-1.983044808110465018e+00,-1.440953620738516794e-01,-6.718622305030003128e-01
4.416666666666666963e+00,1.644630891540631294e+09,-1.204492557569730726e-01,-1.853690382885394783e+00,-2.588845313887099486e+00,-1.118535451883690079e+00,-1.990781641123723578e+00,-1.557312683632883221e-01,-7.243008579470490149e-01
4.433333333333333570e+00,1.644630891558581114e+09,-1.248208336245942296e-01,-1.890601849781499144e+00,-2.662668247679308209e+00,-1.118535451883690079e+00,-1.988264146523182951e+00,-1.682386594400195612e-01,-7.764412334753958422e-01
4.450000000000000178e+00,1.644630891576499939e+09,-1.292570250469150805e-01,-1.829778249123341638e+00,-2.508971319947987055e+00,-1.150585178298696221e+00,-1.975522577665135726e+00,-1.815976942629515811e-01,-8.265038790989384099e-01
4.466666666666666785e+00,1.644630891593454361e+09,-1.337362742026577955e-01,-1.721777271682922938e+00,-2.325019091482155797e+00,-1.118535451883690079e+00,-1.952661775270721156e+00,-1.957661171410222667e-01,-8.735761070034284703e-01
4.483333333333333393e+00,1.644630891611433983e+09,-1.382363972026457999e-01,-1.481237184661765127e+00,-1.811889191024834256e+00,-1.150585178298696221e+00,-1.919860880669985059e+00,-2.106748215184577055e-01,-9.153523703815221735e-01
4.500000000000000000e+00,1.644630891626365900e+09,-1.427348503733160689e-01,-1.431326384631608661e+00,-1.744117317379527243e+00,-1.118535451883690079e+00,-1.877372455799549700e+00,-2.262612645668039546e-01,-9.549109080070286026e-01
4.516666666666666607e+00,1.644630891643320560e+09,-1.472090089664614132e-01,-1.313017712577879026e+00,-1.475450246857062053e+00,-1.150585178298696221e+00,-1.825521010817000578e+00,-2.424780501303498426e-01,-9.910031011667307377e-01
4.533333333333333215e+00,1.644630891661272287e+09,-1.516364533018104144e-01,-1.243743520077635223e+00,-1.368951588271580366e+00,-1.118535451883690079e+00,-1.764700945084637151e+00,-2.592734184909688544e-01,-1.024348473892149558e+00
4.549999999999999822e+00,1.644630891678226948e+09,-1.559952592074481115e-01,-1.197442463772043775e+00,-1.244299749245391329e+00,-1.150585178298696221e+00,-1.695373912175171638e+00,-2.766039667747814956e-01,-1.055231531874123885e+00
4.566666666666666430e+00,1.644630891694184780e+09,-1.602642895131879963e-01,-1.172028011155053839e+00,-1.193470844011411680e+00,-1.150585178298696221e+00,-1.618065624421078708e+00,-2.944307789920930785e-01,-1.083906280249747889e+00
4.583333333333333037e+00,1.644630891712136507e+09,-1.644234832754847275e-01,-1.039822793127025191e+00,-9.611101343703601918e-01,-1.118535451883690079e+00,-1.533362117326751317e+00,-3.127015835704330948e-01,-1.108521890845637348e+00
4.599999999999999645e+00,1.644630891729125977e+09,-1.684541393707450763e-01,-9.402724075286927885e-01,-7.299596367586894674e-01,-1.150585178298696221e+00,-1.441905498846971501e+00,-3.313528664222430420e-01,-1.129573573100088435e+00
4.616666666666666252e+00,1.644630891745083332e+09,-1.723391910879079891e-01,-8.425582323380078620e-01,-5.665810127923254225e-01,-1.118535451883690079e+00,-1.344389213066063515e+00,-3.503251376474195711e-01,-1.147050425964979858e+00
4.633333333333332860e+00,1.644630891764034271e+09,-1.760634683816797996e-01,-5.592677259418450397e-01,0.000000000000000000e+00,-1.118535451883690079e+00,-1.241552852149534925e+00,-3.695329438064600680e-01,-1.157856296107462324e+00
4.650000000000000355e+00,1.644630891778992414e+09,-1.796139445149826930e-01,-5.592677259418450397e-01,0.000000000000000000e+00,-1.118535451883690079e+00,-1.134176554545394566e+00,-3.889045244212299690e-01,-1.166708786834146361e+00
4.666666666666666963e+00,1.644630891796943665e+09,-1.829799639230192121e-01,-5.592677259418450397e-01,0.000000000000000000e+00,-1.118535451883690079e+00,-1.023075031248461553e+00,-4.084070784398406984e-01,-1.173578612102040619e+00
4.683333333333333570e+00,1.644630891813898802e+09,-1.861534482712733918e-01,-5.592677259418450397e-01,0.000000000000000000e+00,-1.118535451883690079e+00,-9.090912654725651354e-01,-4.280074371879522555e-01,-1.178450903210835898e+00
4.700000000000000178e+00,1.644630891830853462e+09,-1.891290778549245266e-01,-5.432428627343426353e-01,0.000000000000000000e+00,-1.086485725468685271e+00,-7.930899342692765419e-01,-4.476700923007487232e-01,-1.181060461381433058e+00
4.716666666666666785e+00,1.644630891847807407e+09,-1.919044456962554213e-01,-2.121852694890514202e-01,6.300654600755762891e-01,-1.054435999053679129e+00,-6.759506034570751387e-01,-4.673139744334570134e-01,-1.176218843797826930e+00
4.733333333333333393e+00,1.644630891863731861e+09,-1.944801819380234664e-01,-1.222240234071281240e-01,7.779382258244179615e-01,-1.022386272638674320e+00,-5.585607496537174921e-01,-4.868491922290299478e-01,-1.168030038886601396e+00
4.750000000000000000e+00,1.644630891881717205e+09,-1.968600464024003183e-01,-6.458994040016746707e-02,8.611566654233332452e-01,-9.903365462236681793e-01,-4.418086652115171820e-01,-5.062249746801076311e-01,-1.157094233195718358e+00
4.766666666666666607e+00,1.644630891897675514e+09,-1.990509874846345395e-01,-3.029971753442192023e-02,8.656376583248133194e-01,-9.262370933936571182e-01,-3.265763034196436654e-01,-5.253993520279423013e-01,-1.143867789530451429e+00
4.783333333333333215e+00,1.644630891916626692e+09,-2.010631658752806694e-01,6.130451741674939475e-02,9.526969489821400794e-01,-8.300879141486412482e-01,-2.137321224396845909e-01,-5.443268769737988899e-01,-1.127480724668310508e+00
4.799999999999999822e+00,1.644630891933578968e+09,-2.029099419517224057e-01,1.631297047262300071e-01,1.092247870771090312e+00,-7.659884613186302982e-01,-1.041239870673598134e-01,-5.629543442855006186e-01,-1.107869828728961004e+00
4.816666666666666430e+00,1.644630891949542999e+09,-2.046078260454356201e-01,2.147250744856151750e-01,1.099289431044844667e+00,-6.698392820736143172e-01,1.427812446993766528e-03,-5.812359667528469442e-01,-1.085985658146071176e+00
4.833333333333333037e+00,1.644630891967487097e+09,-2.061763911724901754e-01,3.408756518317017647e-01,1.287491132907006897e+00,-6.057398292436033671e-01,1.021373656407472963e-01,-5.991245416619453978e-01,-1.060713532945765314e+00
4.849999999999999645e+00,1.644630891984442711e+09,-2.076381482074041163e-01,4.232191471891672552e-01,1.323979217961915866e+00,-4.775409235835813559e-01,1.972597131154767702e-01,-6.165708934121525431e-01,-1.032925866857147490e+00
4.866666666666666252e+00,1.644630892000419378e+09,-2.090183838806717043e-01,4.895164622083417738e-01,1.392474395170253842e+00,-4.134414707535703504e-01,2.860971271642775426e-01,-6.335365281543348104e-01,-1.003033338958754905e+00
4.883333333333332860e+00,1.644630892018350840e+09,-2.103449623840620286e-01,5.417519738107960947e-01,1.400796239130145393e+00,-3.172922915085532591e-01,3.680050469002561497e-01,-6.499895549114091953e-01,-9.714176951898296775e-01
4.900000000000000355e+00,1.644630892034329414e+09,-2.116480917708903897e-01,7.344986199668027682e-01,1.690140352197142981e+00,-2.211431122635373892e-01,4.423976153502353625e-01,-6.658831236392113162e-01,-9.359091892067435969e-01
4.916666666666666963e+00,1.644630892052227736e+09,-2.129600567367039843e-01,6.618851550400958184e-01,1.480813969513717909e+00,-1.570436594335263836e-01,5.087527687561838041e-01,-6.811906527876360196e-01,-9.010910279950474777e-01
4.933333333333333570e+00,1.644630892069216490e+09,-2.143149197549197582e-01,6.977757325135126587e-01,1.488495671630540640e+00,-9.294420660351540575e-02,5.666168315529086508e-01,-6.959097389133039879e-01,-8.652987324682724912e-01
4.950000000000000178e+00,1.644630892086190462e+09,-2.157481929177050006e-01,8.546318011961029359e-01,1.770158082580715275e+00,-6.089448018850930622e-02,6.156085741418466650e-01,-7.100087986275048779e-01,-8.266956664984390635e-01
4.966666666666666785e+00,1.644630892104089499e+09,-2.172964831906369354e-01,9.404534424288690797e-01,1.877701912216236613e+00,3.204972641501691987e-03,6.554226946312539104e-01,-7.234524529095111012e-01,-7.866540765987640738e-01
4.983333333333333393e+00,1.644630892121044159e+09,-2.189971141264075716e-01,1.036197282229197825e+00,2.005090138986883819e+00,6.730442547151148369e-02,6.858326901337347126e-01,-7.362168534935534803e-01,-7.451891764753394432e-01
5.000000000000000000e+00,1.644630892139993906e+09,-2.208877273941727282e-01,1.135120514114082102e+00,2.170886876341645344e+00,9.935415188651879059e-02,7.066930879694152123e-01,-7.482793549868613781e-01,-7.024297816139732920e-01
5.016666666666666607e+00,1.644630892153956413e+09,-2.215265626064864823e-01,1.231504495757479445e+00,2.299555386798430412e+00,1.634536047165285888e-01,7.179410121812607182e-01,-7.596202396755585839e-01,-6.585981384596304444e-01
5.033333333333333215e+00,1.644630892170910597e+09,-2.224131615808155882e-01,1.271876066132377137e+00,2.316199074718213513e+00,2.275530575465407879e-01,7.148236327194132933e-01,-7.702315054593356081e-01,-6.148752110283236538e-01
5.049999999999999822e+00,1.644630892188862324e+09,-2.235779333357784115e-01,1.376560574604877685e+00,2.493518365248209800e+00,2.596027839615456800e-01,7.023693757215558886e-01,-7.801073559301234805e-01,-5.703505280520951848e-01
5.066666666666666430e+00,1.644630892205850363e+09,-2.250490911307709563e-01,1.475867828803660409e+00,2.563933967985752904e+00,3.878016896215676357e-01,6.809467464892874355e-01,-7.892365206594742499e-01,-5.252744537345286346e-01
5.083333333333333037e+00,1.644630892223803520e+09,-2.268522917598987387e-01,1.441001415487211057e+00,2.462151414937849836e+00,4.198514160365725556e-01,6.509955542135146267e-01,-7.976295960534350860e-01,-4.820147621788890002e-01
5.099999999999999645e+00,1.644630892240757704e+09,-2.290102941366056744e-01,1.404577281824667345e+00,2.293153968367744433e+00,5.160005952815897023e-01,6.130226287284928910e-01,-8.053179273972497221e-01,-4.406997656591883361e-01
5.116666666666666252e+00,1.644630892257679462e+09,-2.315426407999990888e-01,1.534867464019910699e+00,2.521684606343226775e+00,5.480503216965945112e-01,5.675970146660559434e-01,-8.123116603771748379e-01,-3.986649580344970856e-01
5.133333333333332860e+00,1.644630892274634600e+09,-2.344653657759839527e-01,1.597003857059138721e+00,2.581857939591673201e+00,6.121497745266043511e-01,5.153446836659294483e-01,-8.186092539070444207e-01,-3.571615554925430813e-01
5.150000000000000355e+00,1.644630892291620731e+09,-2.377907319933693919e-01,1.586164079988550357e+00,2.496078932620484192e+00,6.762492273566165224e-01,4.569428090744136473e-01,-8.242304202233600163e-01,-3.174886076918447819e-01
5.166666666666666963e+00,1.644630892307579041e+09,-2.415270011893153046e-01,1.621094444697363635e+00,2.501840209208100685e+00,7.403486801866263622e-01,3.931136509795538081e-01,-8.291998419061052950e-01,-2.789490510811508672e-01
5.183333333333333570e+00,1.644630892324499130e+09,-2.456782389422461077e-01,1.781193856856873481e+00,2.725889854282103286e+00,8.364978594316434535e-01,3.246181024602326493e-01,-8.335196083767745234e-01,-2.395324186218631690e-01
5.200000000000000178e+00,1.644630892341453791e+09,-2.502441571466085257e-01,1.701538831656412842e+00,2.502480351051169727e+00,9.005973122616556248e-01,2.522489505439941548e-01,-8.372088728732643981e-01,-2.032800244220331620e-01
5.216666666666666785e+00,1.644630892359405756e+09,-2.552199958955838066e-01,1.673415224822971226e+00,2.382133684554277320e+00,9.646967650916654646e-01,1.768239075553135475e-01,-8.403132401897140946e-01,-1.693383382326120179e-01
5.233333333333333393e+00,1.644630892376361609e+09,-2.605964463684583010e-01,1.764379317931074276e+00,2.467912691525466329e+00,1.060845944336682445e+00,9.917847027359552592e-02,-8.428547611995841349e-01,-1.357375207526640981e-01
5.250000000000000000e+00,1.644630892394314289e+09,-2.663596159323816659e-01,1.701047909728861107e+00,2.277150422291029930e+00,1.124945397166692285e+00,2.015866559603332608e-02,-8.448605711670167384e-01,-1.050449345298166415e-01
5.266666666666666607e+00,1.644630892410269976e+09,-2.724910362673827469e-01,1.676125012110763812e+00,2.163205174224823057e+00,1.189044849996704567e+00,-5.938625779527978432e-02,-8.463735064536231922e-01,-7.658635333795207889e-02
5.283333333333333215e+00,1.644630892426227331e+09,-2.789677149127237632e-01,1.619195022339236179e+00,1.985245741851757950e+00,1.253144302826714185e+00,-1.386111319371051143e-01,-8.474348685448739316e-01,-5.084859307333250422e-02
5.299999999999999822e+00,1.644630892444214106e+09,-2.857622302158693284e-01,1.630781526906835754e+00,1.912269571741940011e+00,1.349293482071731276e+00,-2.166821065881507358e-01,-8.480800057455195606e-01,-2.663513220070878179e-02
5.316666666666666430e+00,1.644630892460171223e+09,-2.928428692466487071e-01,1.620901962600848734e+00,1.828410990299956129e+00,1.413392934901741116e+00,-2.927837616933801623e-01,-8.483368054091795507e-01,-4.243029188590950740e-03
5.333333333333333037e+00,1.644630892478089094e+09,-3.001738078226489082e-01,1.613561648536349091e+00,1.781680635755949815e+00,1.445442661316748589e+00,-3.661260373765594656e-01,-8.482346400839662071e-01,1.644539900552555861e-02
5.349999999999999645e+00,1.644630892495078087e+09,-3.077153313815702562e-01,1.555031304157150407e+00,1.600520494167541941e+00,1.509542114146758207e+00,-4.359509250983814033e-01,-8.478082536069126984e-01,3.467035217945156622e-02
5.366666666666666252e+00,1.644630892512031317e+09,-3.154240950362521279e-01,1.518564536233028894e+00,1.495537231904294995e+00,1.541591840561763238e+00,-5.015388656383799049e-01,-8.470947309971753603e-01,5.090725741295834550e-02
5.383333333333332860e+00,1.644630892527990818e+09,-3.232534207622306810e-01,1.407499926460630713e+00,1.273408012359498187e+00,1.541591840561763238e+00,-5.622148020144138725e-01,-8.461365568395931014e-01,6.403716866281301823e-02
5.400000000000000355e+00,1.644630892545907259e+09,-3.311536292998665254e-01,1.420644151374325759e+00,1.267646735771881028e+00,1.573641566976770489e+00,-6.173538383244894234e-01,-8.449671646820441362e-01,7.625594838942797993e-02
5.416666666666666963e+00,1.644630892562894583e+09,-3.390724040068603951e-01,1.524688518003757709e+00,1.443685742615739898e+00,1.605691293391775298e+00,-6.663864587574871434e-01,-8.435882156098369888e-01,8.918203363799198646e-02
5.433333333333333570e+00,1.644630892579856873e+09,-3.469551835758610814e-01,1.477040584956724523e+00,1.284290423691663907e+00,1.669790746221785138e+00,-7.088032646473740872e-01,-8.420080569275130156e-01,1.004058302941572139e-01
5.450000000000000178e+00,1.644630892596807241e+09,-3.547455802389646862e-01,1.508108781476339866e+00,1.314377090315887342e+00,1.701840472636792390e+00,-7.441591914089580317e-01,-8.402429774274212670e-01,1.113732439618551895e-01
5.466666666666666785e+00,1.644630892613759518e+09,-3.623858198192229096e-01,1.573104495678588677e+00,1.412318792305379933e+00,1.733890199051797421e+00,-7.720771714613086090e-01,-8.382915013290412887e-01,1.227722232670965391e-01
5.483333333333333393e+00,1.644630892630715609e+09,-3.698171997613868833e-01,1.661465387152840645e+00,1.556990848838878838e+00,1.765939925466802229e+00,-7.922512137830883816e-01,-8.361421986733218459e-01,1.351098235008729165e-01
5.500000000000000000e+00,1.644630892646672249e+09,-3.769805610823252495e-01,1.657304465172894536e+00,1.548669004878987066e+00,1.765939925466802229e+00,-8.044488755153649251e-01,-8.337912328782846050e-01,1.469731175334611784e-01
5.516666666666666607e+00,1.644630892665622711e+09,-3.838167700278458105e-01,1.660846562440559504e+00,1.523703472999312192e+00,1.797989651881807038e+00,-8.085131059944026255e-01,-8.312442561974284772e-01,1.586316984600409929e-01
5.533333333333333215e+00,1.644630892682574987e+09,-3.902672051085748772e-01,1.600993300113647599e+00,1.403996948345488160e+00,1.797989651881807038e+00,-8.043634487190526317e-01,-8.285122739332018149e-01,1.691768803857242043e-01
5.549999999999999822e+00,1.644630892699531317e+09,-3.962742451143510536e-01,1.717200361761384020e+00,1.604361345225953528e+00,1.830039378296814512e+00,-7.919965919939189192e-01,-8.255882364489093295e-01,1.816729057308895112e-01
5.566666666666666430e+00,1.644630892716483831e+09,-4.017817536750283858e-01,1.650625610082251615e+00,1.471211841867688719e+00,1.830039378296814512e+00,-7.714862642983950636e-01,-8.224640202740121087e-01,1.932010119857231756e-01
5.583333333333333037e+00,1.644630892734437466e+09,-4.067355559461157122e-01,1.663428446943623351e+00,1.496817515590432413e+00,1.830039378296814512e+00,-7.429824757703807903e-01,-8.191435559709461245e-01,2.052213138688779026e-01
5.599999999999999645e+00,1.644630892749395847e+09,-4.110839030502753677e-01,1.649985468239183239e+00,1.469931558181551967e+00,1.830039378296814512e+00,-7.067101125193853139e-01,-8.156212603472700051e-01,2.174202741738650857e-01
5.616666666666666252e+00,1.644630892766352654e+09,-4.147779199999347410e-01,1.571568092463282218e+00,1.313096806629749924e+00,1.830039378296814512e+00,-6.629668957538178420e-01,-8.119021228571389193e-01,2.288444899622250894e-01
5.633333333333332860e+00,1.644630892783305168e+09,-4.177720329613779926e-01,1.633661851240934659e+00,1.437284324185054585e+00,1.830039378296814512e+00,-6.121207228797703737e-01,-8.079785603692066775e-01,2.419466129469789728e-01
5.650000000000000355e+00,1.644630892801259995e+09,-4.200243718953851069e-01,1.686153482372558132e+00,1.542267586448301753e+00,1.830039378296814512e+00,-5.546064127617185147e-01,-8.038232447611309839e-01,2.566504151657505450e-01
5.666666666666666963e+00,1.644630892818187714e+09,-4.214971448222387118e-01,1.726503735616666591e+00,1.590918366521513416e+00,1.862089104711819321e+00,-4.909218821890604101e-01,-7.994105273429904512e-01,2.728307286380701746e-01
5.683333333333333570e+00,1.644630892835170507e+09,-4.221569802077417832e-01,1.701858274658526238e+00,1.541627444605232711e+00,1.862089104711819321e+00,-4.216237852278218456e-01,-7.947242054222498631e-01,2.894816482078412800e-01
5.700000000000000178e+00,1.644630892852121592e+09,-4.219752342494114128e-01,1.732307646465859552e+00,1.538426735389889943e+00,1.926188557541829161e+00,-3.473226515159520966e-01,-7.897481998165758466e-01,3.075887258513324007e-01
5.716666666666666785e+00,1.644630892869077682e+09,-4.209282601556815773e-01,1.719483492473699915e+00,1.544828153820575700e+00,1.894138831126824352e+00,-2.686775636501558262e-01,-7.844638193218800293e-01,3.264844441703622646e-01
5.733333333333333393e+00,1.644630892886032104e+09,-4.189976368526946437e-01,1.864518254190310254e+00,1.770798224423783873e+00,1.958238283956836412e+00,-1.863904175769421911e-01,-7.788357222592453555e-01,3.488251443846170363e-01
5.750000000000000000e+00,1.644630892902986526e+09,-4.161703549199484709e-01,1.863280604765748638e+00,1.704223472744651469e+00,2.022337736786846030e+00,-1.011998133128731436e-01,-7.728267702776880910e-01,3.721842055939411087e-01
5.766666666666666607e+00,1.644630892919939995e+09,-4.124389579441773424e-01,2.012454971331516074e+00,1.970522479461180865e+00,2.054387463201851283e+00,-1.387462634941155626e-02,-7.663990615381586213e-01,3.990661692707800356e-01
5.783333333333333215e+00,1.644630892936862469e+09,-4.078016378866777258e-01,2.085175021912164528e+00,2.019813401377461126e+00,2.150536642446868374e+00,7.479268727688290208e-02,-7.595047421176462921e-01,4.281713116700851529e-01
5.799999999999999822e+00,1.644630892953849554e+09,-4.022622834790489099e-01,2.150170736114413117e+00,2.117755103366953495e+00,2.182586368861873183e+00,1.639929970690220951e-01,-7.521080593754961852e-01,4.593440244809923190e-01
5.816666666666666430e+00,1.644630892971801281e+09,-3.958304810919323069e-01,2.202726318638402070e+00,2.126717089169913422e+00,2.278735548106890274e+00,2.529075583750470257e-01,-7.441765970836233812e-01,4.923397934726770342e-01
5.833333333333333037e+00,1.644630892986763000e+09,-3.885214679567589591e-01,2.181302884026392608e+00,2.051820493530889689e+00,2.310785274521895083e+00,3.407151686835270255e-01,-7.356905936851619865e-01,5.258874242860476222e-01
5.849999999999999645e+00,1.644630893003716469e+09,-3.803560380575860544e-01,2.351964636596534319e+00,2.296994819426156464e+00,2.406934453766912174e+00,4.265993608514414004e-01,-7.266146624680887012e-01,5.631208930264406387e-01
5.866666666666666252e+00,1.644630893020671606e+09,-3.713604014446210688e-01,2.221397017741332025e+00,2.003809855300746623e+00,2.438984180181916983e+00,5.097555738546359905e-01,-7.169298646309896217e-01,5.989553050492743003e-01
5.883333333333332860e+00,1.644630893039622068e+09,-3.615659981489077190e-01,2.274272671186854833e+00,2.013411982946775591e+00,2.535133359426934074e+00,5.893982417782961392e-01,-7.066344725637084823e-01,6.363877615314124103e-01
5.900000000000000355e+00,1.644630893056577444e+09,-3.510092682947112408e-01,2.262109976168551917e+00,1.989086592910169538e+00,2.535133359426934074e+00,6.647677423695044219e-01,-6.957116462557679792e-01,6.742462305324395944e-01
5.916666666666666963e+00,1.644630893073529482e+09,-3.397313804085028699e-01,2.321344413783183125e+00,2.075505741724427811e+00,2.567183085841938883e+00,7.351371475518538867e-01,-6.841451735476700158e-01,7.136211171799256014e-01
5.933333333333333570e+00,1.644630893089487314e+09,-3.277779203071476410e-01,2.311464849477197436e+00,1.991647160282443707e+00,2.631282538671951166e+00,7.998187198447311852e-01,-6.719203219270836192e-01,7.532509917147046652e-01
5.950000000000000178e+00,1.644630893106409311e+09,-3.151985433094340872e-01,2.277579966056138883e+00,1.859777940610316538e+00,2.695381991501961227e+00,8.581701006252231423e-01,-6.590370667708057573e-01,7.926302376697828000e-01
5.966666666666666785e+00,1.644630893125357389e+09,-3.020465928507972686e-01,2.211026531507794601e+00,1.694621345098623166e+00,2.727431717916966036e+00,9.096001386027162683e-01,-6.455050187807908069e-01,8.311086341816097400e-01
5.983333333333333393e+00,1.644630893139320374e+09,-2.883786888879984467e-01,2.264179621613275462e+00,1.768877798894578302e+00,2.759481444331973066e+00,9.535743097257947110e-01,-6.313235635717866501e-01,8.705564111615901046e-01
6.000000000000000000e+00,1.644630893159266949e+09,-2.742542897555213521e-01,2.265822610482523203e+00,1.708064323803063278e+00,2.823580897161983128e+00,9.896196829864323252e-01,-6.164848884243732119e-01,9.099751075719925142e-01
6.016666666666666607e+00,1.644630893175225019e+09,-2.597352313760152298e-01,2.265843927613310882e+00,1.676057231649634272e+00,2.855630623576987936e+00,1.017329390199947614e+00,-6.009908493105505789e-01,9.492006237550575376e-01
6.033333333333333215e+00,1.644630893192178726e+09,-2.448852479309687469e-01,2.219454961121628322e+00,1.551229572251261235e+00,2.887680349991995410e+00,1.036366561794804131e+00,-5.848522472851034326e-01,9.873257137782175397e-01
6.049999999999999822e+00,1.644630893209133625e+09,-2.297694782629553512e-01,2.097529257147852100e+00,1.275328437888703981e+00,2.919730076407000219e+00,1.046467694909737345e+00,-5.680989382145851252e-01,1.022972353908659038e+00
6.066666666666666430e+00,1.644630893226088524e+09,-2.144539624057396343e-01,2.033515072840994087e+00,1.147300069274988177e+00,2.919730076407000219e+00,1.047445424635812472e+00,-5.507651486335076729e-01,1.056987905952195161e+00
6.083333333333333037e+00,1.644630893242045879e+09,-1.990051327221096789e-01,2.006629115432113863e+00,1.093528154457227286e+00,2.919730076407000219e+00,1.039190674019446758e+00,-5.328739850821856416e-01,1.089860405558399137e+00
6.099999999999999645e+00,1.644630893259000540e+09,-1.834893041706944228e-01,2.012070321098196501e+00,1.104410565789393228e+00,2.919730076407000219e+00,1.021674163422585213e+00,-5.144411547506172466e-01,1.121989983302177141e+00
6.116666666666666252e+00,1.644630893276952505e+09,-1.679721682219308398e-01,1.944855427575995943e+00,9.699807787449915564e-01,2.919730076407000219e+00,9.949472649780328748e-01,-4.954902444971429065e-01,1.152035784591269874e+00
6.133333333333332860e+00,1.644630893292909622e+09,-1.525182948997738652e-01,1.804322975891654801e+00,7.209656017913145254e-01,2.887680349991995410e+00,9.591421931402439593e-01,-4.760670766566525991e-01,1.178670369567977882e+00
6.150000000000000355e+00,1.644630893309864044e+09,-1.371906473401664772e-01,1.783219612201179860e+00,6.467091479953593902e-01,2.919730076407000219e+00,9.144715276731422149e-01,-4.562127625904439654e-01,1.203777574499674596e+00
6.166666666666666963e+00,1.644630893329813242e+09,-1.220501131305972570e-01,1.744469713564742896e+00,6.012590771374902721e-01,2.887680349991995410e+00,8.612270707939428949e-01,-4.359561692346663464e-01,1.226949260883208437e+00
6.183333333333333570e+00,1.644630893345803022e+09,-1.071550565284530160e-01,1.427815311788493968e+00,0.000000000000000000e+00,2.855630623576987936e+00,7.997780455625990159e-01,-4.153688054247161587e-01,1.243488453029109708e+00
6.200000000000000178e+00,1.644630893364717960e+09,-9.256089545111192973e-02,1.427815311788493968e+00,0.000000000000000000e+00,2.855630623576987936e+00,7.305686479278690193e-01,-3.945176320503408496e-01,1.258610345650007067e+00
6.216666666666666785e+00,1.644630893379679918e+09,-7.831970688964785821e-02,1.817424566543771602e+00,7.792185095105552683e-01,2.855630623576987936e+00,6.541149700699944169e-01,-3.733732625711014275e-01,1.278658301780997153e+00
6.233333333333333393e+00,1.644630893395635605e+09,-6.447986412316276950e-02,1.776114100535060247e+00,7.286473039081373670e-01,2.823580897161983128e+00,5.710013177755306479e-01,-3.519147150446870764e-01,1.296318344559759250e+00
6.250000000000000000e+00,1.644630893413619995e+09,-5.108570880470503228e-02,1.766191901967497424e+00,7.088029067730114985e-01,2.823580897161983128e+00,4.818759495007078897e-01,-3.301779531852346294e-01,1.312049380224776796e+00
6.266666666666666607e+00,1.644630893431574583e+09,-3.817726065549206793e-02,1.738644485584760480e+00,6.857578004225427515e-01,2.791531170746978319e+00,3.874462694867137902e-01,-3.081980277139446667e-01,1.325504300671344726e+00
6.283333333333333215e+00,1.644630893446499825e+09,-2.578996714499925957e-02,1.738324414663226181e+00,6.851176585794739315e-01,2.791531170746978319e+00,2.884735117456865838e-01,-2.860094263439100781e-01,1.337095664741458689e+00
6.299999999999999822e+00,1.644630893464453459e+09,-1.395449515386535527e-02,1.661166005442674232e+00,5.628505665533753977e-01,2.759481444331973066e+00,1.857669559043297891e-01,-2.636540796164178468e-01,1.345522534036416529e+00
6.316666666666666430e+00,1.644630893481446028e+09,-2.696566218208684695e-03,1.660205792678071557e+00,5.609301410241698260e-01,2.759481444331973066e+00,8.017771973942400265e-02,-2.411741656537859935e-01,1.352049011947409562e+00
6.333333333333333037e+00,1.644630893499357700e+09,7.963163458287091101e-03,1.379740722165986533e+00,0.000000000000000000e+00,2.759481444331973066e+00,-2.740782326484897391e-02,-2.186399762440547900e-01,1.352053704186030769e+00
6.349999999999999645e+00,1.644630893517311573e+09,1.800917746032194150e-02,1.363715858958483018e+00,0.000000000000000000e+00,2.727431717916966036e+00,-1.360749498920532652e-01,-1.961229317982945974e-01,1.349997341558044406e+00
6.366666666666666252e+00,1.644630893534266472e+09,2.743112774870861553e-02,1.347690995750980614e+00,0.000000000000000000e+00,2.695381991501961227e+00,-2.448877625445649020e-01,-1.736571186792487953e-01,1.345911582325772127e+00
6.383333333333332860e+00,1.644630893551219463e+09,3.622381747332318463e-02,1.347690995750980614e+00,0.000000000000000000e+00,2.695381991501961227e+00,-3.528965775302072005e-01,-1.512737554517227800e-01,1.340108126068592309e+00
6.400000000000000355e+00,1.644630893567177773e+09,4.438713853191408876e-02,1.315641269335975583e+00,0.000000000000000000e+00,2.631282538671951166e+00,-4.591454680057793225e-01,-1.290054167928477158e-01,1.332114717431887252e+00
6.416666666666666963e+00,1.644630893585128069e+09,5.192596481609768749e-02,9.603640395552510700e-01,-6.464550067314369652e-01,2.567183085841938883e+00,-5.626799019211733421e-01,-1.069325688535852081e-01,1.316669938453192801e+00
6.433333333333333570e+00,1.644630893604079485e+09,5.885000249596205463e-02,8.072931102021986272e-01,-8.884974126075320111e-01,2.503083633011929265e+00,-6.625544144020559800e-01,-8.514993760736050410e-02,1.297299618803637200e+00
6.450000000000000178e+00,1.644630893617044449e+09,6.517359909027731213e-02,6.753799989997268938e-01,-1.152323635012475478e+00,2.503083633011929265e+00,-7.578402535834036780e-01,-6.371885041613924161e-02,1.274494194036021266e+00
6.466666666666666785e+00,1.644630893635994434e+09,7.091551344662326561e-02,5.586154305280875976e-01,-1.321753319125741788e+00,2.438984180181916983e+00,-8.476329389633235900e-01,-4.269323353203152011e-02,1.248651618677993014e+00
6.483333333333333393e+00,1.644630893651949406e+09,7.609864911116445696e-02,4.236976816157423942e-01,-1.527489364120422577e+00,2.374884727351907365e+00,-9.310596718886053891e-01,-2.212491469660013768e-02,1.219627266671347243e+00
6.500000000000000000e+00,1.644630893669902802e+09,8.074975389798511038e-02,3.441575792293414815e-01,-1.590420389648207200e+00,2.278735548106890274e+00,-1.007286538804033516e+00,-2.057840814821240011e-03,1.188508043463323505e+00
6.516666666666666607e+00,1.644630893686856747e+09,8.489908876971222207e-02,2.694374325968859618e-01,-1.707810956498113431e+00,2.246685821691885465e+00,-1.075525449391195210e+00,1.747513197314539204e-02,1.155540270395451818e+00
6.533333333333333215e+00,1.644630893703811407e+09,8.858006941177050397e-02,1.245249882603628178e-01,-1.965586118756154743e+00,2.214636095276880212e+00,-1.135040753677039049e+00,3.643495973927031450e-02,1.119738513205715602e+00
6.549999999999999822e+00,1.644630893720765591e+09,9.182888411949483021e-02,1.042643829500275593e-01,-1.974057602961817981e+00,2.182586368861873183e+00,-1.185155484592296915e+00,5.479331623224531489e-02,1.083365305018702873e+00
6.566666666666666430e+00,1.644630893737721682e+09,9.468409181830134136e-02,-5.032975762153927418e-02,-2.251196157689946631e+00,2.150536642446868374e+00,-1.225257175288382516e+00,7.252358498907178486e-02,1.044375254046711055e+00
6.583333333333333037e+00,1.644630893754676104e+09,9.718620420034047858e-02,-1.389673425918699634e-01,-2.396421601215603214e+00,2.118486916031863121e+00,-1.254803203753746210e+00,8.959308130866892872e-02,1.004076248621353695e+00
6.599999999999999645e+00,1.644630893772628784e+09,9.937725608504410779e-02,-2.294202456062719164e-01,-2.545277680829402200e+00,2.086437189616858312e+00,-1.273325620885115583e+00,1.059814419309867695e-01,9.626421235575127744e-01
6.616666666666666252e+00,1.644630893788585663e+09,1.013003681947132056e-01,-3.053506042681086718e-01,-2.665088671738068626e+00,2.054387463201851283e+00,-1.280435422133919587e+00,1.216734871559473352e-01,9.205203112258517617e-01
6.633333333333332860e+00,1.644630893807567596e+09,1.029993065790111295e-01,-1.970366276385561721e-01,-2.448460718478963294e+00,2.054387463201851283e+00,-1.275826227135842261e+00,1.366849170659276691e-01,8.809611670696314567e-01
6.649999999999999467e+00,1.644630893822528839e+09,1.045180429237412278e-01,-1.008247713028086329e-01,-2.256037005807468354e+00,2.054387463201851283e+00,-1.259277336305329342e+00,1.510580664060303391e-01,8.439196492693931129e-01
6.666666666666666963e+00,1.644630893839487314e+09,1.059003199396620631e-01,-1.779653419940249726e-01,-2.378268420774896086e+00,2.022337736786846030e+00,-1.230656138203530814e+00,1.648122717890984357e-01,8.066884192163656930e-01
6.683333333333333570e+00,1.644630893857433319e+09,1.071892259468738562e-01,-1.156185301173531244e-01,-2.189475344191542661e+00,1.958238283956836412e+00,-1.189919846528148417e+00,1.779653369570531052e-01,7.717763811043193423e-01
6.700000000000000178e+00,1.644630893873390198e+09,1.084267826504603793e-01,-9.383471358850417610e-02,-2.145907711133844931e+00,1.958238283956836412e+00,-1.137116550788283886e+00,1.905516589004278283e-01,7.386742047546648315e-01
6.716666666666666785e+00,1.644630893891309500e+09,1.096535499448388074e-01,-8.565533620839850537e-02,-2.097499229958626366e+00,1.926188557541829161e+00,-1.072385570075181871e+00,2.026009204087960980e-01,7.073242614749035706e-01
6.733333333333333393e+00,1.644630893908298492e+09,1.109082513894213140e-01,-3.511853779997466118e-02,-1.964375906726773646e+00,1.894138831126824352e+00,-9.959571047790555243e-01,2.141495494378850839e-01,6.785910384028307485e-01
6.750000000000000000e+00,1.644630893925272226e+09,1.122274237686937820e-01,-2.604194757962128084e-02,-1.946222726286066740e+00,1.894138831126824352e+00,-9.081511865898173053e-01,2.252366415232837371e-01,6.519340607479414684e-01
6.766666666666666607e+00,1.644630893942229509e+09,1.136450938881387873e-01,8.348224107931155602e-02,-1.727174348968201212e+00,1.894138831126824352e+00,-8.093759326126426235e-01,2.359119029457746319e-01,6.291605711332284301e-01
6.783333333333333215e+00,1.644630893960125685e+09,1.151924854661457720e-01,4.627866735765091832e-02,-1.769531769996517401e+00,1.862089104711819321e+00,-7.001251148842091432e-01,2.462207028950609278e-01,6.079543303918327757e-01
6.799999999999999822e+00,1.644630893976083040e+09,1.168977586642869215e-01,-2.328763196814993483e-02,-1.844564915818106998e+00,1.797989651881807038e+00,-5.809750619495356316e-01,2.561858430479991289e-01,5.879181453402664292e-01
6.816666666666666430e+00,1.644630893993037462e+09,1.187857844571540977e-01,-5.898888683487388956e-02,-1.915967425551554859e+00,1.797989651881807038e+00,-4.525809144100095827e-01,2.658326169798750915e-01,5.697452080543090602e-01
6.833333333333333037e+00,1.644630894009992361e+09,1.208779556819751105e-01,-4.052270720503286378e-02,-1.846985339876868082e+00,1.765939925466802229e+00,-3.156722614390349291e-01,2.752004791282238738e-01,5.544407630952258303e-01
6.849999999999999645e+00,1.644630894026946783e+09,1.231920362309421590e-01,-3.113311779554536404e-02,-1.796156434642887989e+00,1.733890199051797421e+00,-1.710481901423902551e-01,2.843366534951605740e-01,5.419349002626568934e-01
6.866666666666666252e+00,1.644630894043901682e+09,1.257420494594991001e-01,-6.199352454474740121e-02,-1.857877248141292181e+00,1.733890199051797421e+00,-1.957178427781813834e-02,2.932827836728840176e-01,5.316293482712239893e-01
6.883333333333332860e+00,1.644630894061864138e+09,1.285382064855843942e-01,-1.200628095914337556e-01,-1.909916365404652705e+00,1.669790746221785138e+00,1.378358867947432342e-01,3.020722987261783565e-01,5.231360511713181172e-01
6.899999999999999467e+00,1.644630894078867674e+09,1.315868746520293397e-01,-1.158270674886019980e-01,-1.901444881198989245e+00,1.669790746221785138e+00,3.002022440186032926e-01,3.107444430913295919e-01,5.175368264150002062e-01
6.916666666666666963e+00,1.644630894096796036e+09,1.348905860209459462e-01,-1.723940336803506390e-01,-1.982529087167481441e+00,1.637741019806780329e+00,4.665100907923540596e-01,3.193391978767762818e-01,5.138440059147535433e-01
6.933333333333333570e+00,1.644630894114714146e+09,1.384480853690806257e-01,-3.197269020756342561e-01,-2.245145097543043811e+00,1.605691293391775298e+00,6.357048694396529864e-01,3.278759352860480814e-01,5.105735679615487355e-01
6.950000000000000178e+00,1.644630894130704403e+09,1.422544167606154542e-01,-4.876333749703865572e-01,-2.548908316917543715e+00,1.573641566976770489e+00,8.067022271514954213e-01,3.363590440251749691e-01,5.074082734254403704e-01
6.966666666666666785e+00,1.644630894148656368e+09,1.463010473928052502e-01,-5.892911854383461323e-01,-2.752223937853462754e+00,1.573641566976770489e+00,9.783958340636083051e-01,3.447995084265781385e-01,5.054528865011248540e-01
6.983333333333333393e+00,1.644630894167573690e+09,1.505760270437160042e-01,-5.690096877644358342e-01,-2.679611216090634684e+00,1.541591840561763238e+00,1.149665394086501147e+00,3.532341102525946019e-01,5.066958797804761438e-01
7.000000000000000000e+00,1.644630894185524702e+09,1.550641811039842888e-01,-4.249944562681590710e-01,-2.391580753098081491e+00,1.541591840561763238e+00,1.319384787520701652e+00,3.617325901333549032e-01,5.131039054205915884e-01
7.016666666666666607e+00,1.644630894199523449e+09,1.597473348491617595e-01,-5.027401329740660563e-01,-2.515022380094890320e+00,1.509542114146758207e+00,1.486430283381384942e+00,3.703493194973312974e-01,5.208820118967372181e-01
7.033333333333333215e+00,1.644630894216475487e+09,1.646045663091863231e-01,-5.190779953707022054e-01,-2.547698104888162618e+00,1.509542114146758207e+00,1.649688758729472848e+00,3.791149024016659541e-01,5.309599417150487888e-01
7.049999999999999822e+00,1.644630894233396053e+09,1.696124848196061408e-01,-5.695939014155481095e-01,-2.616680190562849617e+00,1.477492387731753398e+00,1.808065862170340710e+00,3.880619566766813078e-01,5.426540867859466211e-01
7.066666666666666430e+00,1.644630894250351667e+09,1.747455320981464444e-01,-3.199981165376140635e-01,-2.149538347221986445e+00,1.509542114146758207e+00,1.960494059033182523e+00,3.972578259213491725e-01,5.607998165828715909e-01
7.083333333333333037e+00,1.644630894268302202e+09,1.799763024822208513e-01,-4.013744293316624523e-01,-2.280241246395078303e+00,1.477492387731753398e+00,2.105940496585650745e+00,4.067624670963128075e-01,5.797046098621411181e-01
7.099999999999999645e+00,1.644630894283932209e+09,1.852758787901746806e-01,-4.437318503599788633e-01,-2.364956088451711125e+00,1.477492387731753398e+00,2.243414628959651935e+00,4.165927145874151472e-01,5.998690753476999538e-01
7.116666666666666252e+00,1.644630894302238226e+09,1.906141801329102325e-01,-3.562835850554507133e-01,-2.158009831427649683e+00,1.445442661316748589e+00,2.371975543257559327e+00,4.267860866729115132e-01,6.232705692322387803e-01
7.133333333333332860e+00,1.644630894317557096e+09,1.959603179044049071e-01,-2.416055490898631752e-01,-1.896604033081467522e+00,1.413392934901741116e+00,2.490738930558484387e+00,4.373984944763336102e-01,6.501437177866270511e-01
7.149999999999999467e+00,1.644630894334675550e+09,2.012829561203580697e-01,-6.280716793068553960e-02,-1.571056997178119641e+00,1.445442661316748589e+00,2.598883648234400212e+00,4.484947090802957059e-01,6.813154445210601873e-01
7.166666666666666963e+00,1.644630894352857590e+09,2.065506722542244100e-01,-2.558270184544833223e-02,-1.464558338592637732e+00,1.413392934901741116e+00,2.695657823095281014e+00,4.601246549678635889e-01,7.141867506543227995e-01
7.183333333333333570e+00,1.644630894369184494e+09,2.117323147393611882e-01,-1.160356048598499695e-01,-1.613414418206436274e+00,1.381343208486736307e+00,2.780384448386479690e+00,4.722971248401112154e-01,7.464200948408523661e-01
7.200000000000000178e+00,1.644630894387173414e+09,2.167973533645566331e-01,6.155256426994590996e-02,-1.290287806361849254e+00,1.413392934901741116e+00,2.852466431532921121e+00,4.850368495958957138e-01,7.822473533484489705e-01
7.216666666666666785e+00,1.644630894403761625e+09,2.217162188871448225e-01,5.823492737093828586e-02,-1.264873353744859763e+00,1.381343208486736307e+00,2.911391053733711320e+00,4.983764273125411703e-01,8.184015419835477534e-01
7.233333333333333393e+00,1.644630894421501398e+09,2.264606283221762273e-01,1.199557408693425059e-01,-1.141431726748051156e+00,1.381343208486736307e+00,2.956733807023645078e+00,5.123283688784638912e-01,8.557277595491749045e-01
7.250000000000000000e+00,1.644630894437257290e+09,2.310038925361721784e-01,2.073831138102929517e-01,-9.986267072811553236e-01,1.413392934901741116e+00,2.988161579200679707e+00,5.269136748866344311e-01,8.944015317578538626e-01
7.266666666666666607e+00,1.644630894453457117e+09,2.353212029781191483e-01,1.285197626917055844e-02,-1.355639255948395183e+00,1.381343208486736307e+00,3.005435162032323859e+00,5.421137192223322021e-01,9.295062730605143653e-01
7.283333333333333215e+00,1.644630894469413519e+09,2.393898946163034447e-01,-6.944244172870168985e-02,-1.520228091944139548e+00,1.381343208486736307e+00,3.008411063360608928e+00,5.578830383822559469e-01,9.627197642611223793e-01
7.299999999999999822e+00,1.644630894488363028e+09,2.431896824149199499e-01,-1.039334845660453144e-01,-1.589210177618826991e+00,1.381343208486736307e+00,2.997042609083741205e+00,5.741949941282552539e-01,9.946262939237513478e-01
7.316666666666666430e+00,1.644630894505299091e+09,2.467028689763635929e-01,-1.196662409479914146e-01,-1.620675690382719081e+00,1.381343208486736307e+00,2.971380326460856480e+00,5.910286009193920220e-01,1.025321255224495687e+00
7.333333333333333037e+00,1.644630894521299839e+09,2.499145212905874991e-01,-2.679172145470996580e-01,-1.917177637580935512e+00,1.381343208486736307e+00,2.931571605721786433e+00,6.083435758966854179e-01,1.052400520100113646e+00
7.349999999999999645e+00,1.644630894537253618e+09,2.528126148687792618e-01,-2.316108536656853734e-01,-1.844564915818106998e+00,1.381343208486736307e+00,2.877859642523031170e+00,6.261037276831857845e-01,1.078744514794569120e+00
7.366666666666666252e+00,1.644630894555214405e+09,2.553881438912361523e-01,-2.579225191229216896e-01,-1.865138520317574766e+00,1.349293482071731276e+00,2.810581669330578514e+00,6.442863807546461707e-01,1.103106180893236310e+00
7.383333333333332860e+00,1.644630894573103189e+09,2.576351963652004917e-01,-2.914954567564411736e-01,-1.900234669169608814e+00,1.317243755656726467e+00,2.730166489286915965e+00,6.628559526532499246e-01,1.125181126203473658e+00
7.399999999999999467e+00,1.644630894589117289e+09,2.595509936637096504e-01,-3.973890093272328672e-01,-2.112021774311192424e+00,1.317243755656726467e+00,2.637131331489799280e+00,6.817629151718276326e-01,1.143603202387605489e+00
7.416666666666666963e+00,1.644630894605112076e+09,2.611358941974065151e-01,-4.333823710195130463e-01,-2.151958771280747751e+00,1.285194029241721658e+00,2.532078051833460908e+00,7.009548863946383213e-01,1.159389492511693875e+00
7.433333333333333570e+00,1.644630894622082710e+09,2.623933613538166898e-01,-5.341220762836498270e-01,-2.321388455394013839e+00,1.253144302826714185e+00,2.415688708596219314e+00,7.203777920700614734e-01,1.171326030708147004e+00
7.450000000000000178e+00,1.644630894640101433e+09,2.633298962189393744e-01,-3.431797901035134046e-01,-1.843354703788726345e+00,1.156995123581699536e+00,2.288720546764737573e+00,7.400068275061234546e-01,1.184122674549772158e+00
7.466666666666666785e+00,1.644630894656024933e+09,2.639549359701732212e-01,-2.260813300791648939e-01,-1.577108057325022017e+00,1.124945397166692285e+00,2.152000429624487676e+00,7.598446627076417270e-01,1.196383491007342537e+00
7.483333333333333393e+00,1.644630894672505617e+09,2.642807191938532085e-01,-2.230349076421360155e-01,-1.506915759620954587e+00,1.060845944336682445e+00,2.006418760385306754e+00,7.798654643406233156e-01,1.206085753586747078e+00
7.500000000000000000e+00,1.644630894689757824e+09,2.643221197312199955e-01,-2.808120858632648376e-01,-1.590420389648207200e+00,1.028796217921677636e+00,1.852922940514915240e+00,8.000174491366641716e-01,1.212135616368233748e+00
7.516666666666666607e+00,1.644630894707561016e+09,2.640964509899423884e-01,-6.387009550071748309e-01,-2.210048948691010207e+00,9.326470386766605447e-01,1.692510414993039447e+00,8.201978413217483332e-01,1.209518715182914095e+00
7.533333333333333215e+00,1.644630894724180937e+09,2.636232429709275404e-01,-8.429137887833410003e-01,-2.586424889828337736e+00,9.005973122616556248e-01,1.526221357846031745e+00,8.402838060287305399e-01,1.200821209960309943e+00
7.549999999999999822e+00,1.644630894741449118e+09,2.629239945489422192e-01,-8.205039738762259782e-01,-2.477505807184095410e+00,8.364978594316434535e-01,1.355131054052119310e+00,8.602054777957848231e-01,1.189809989529520440e+00
7.566666666666666430e+00,1.644630894759440184e+09,2.620219038075042861e-01,-9.499757686563590209e-01,-2.672349943914351655e+00,7.723984066016336136e-01,1.180342036199550249e+00,8.799031254423279602e-01,1.173951779675363793e+00
7.583333333333333037e+00,1.644630894777386427e+09,2.609415794610064898e-01,-9.829436002751894552e-01,-2.706235880737005051e+00,7.403486801866263622e-01,1.002976036116284053e+00,8.993096085213744262e-01,1.154879170527002286e+00
7.599999999999999645e+00,1.644630894793343782e+09,2.597087365976367690e-01,-1.220729371684875053e+00,-3.117707970726366629e+00,6.762492273566165224e-01,8.241658130558638939e-01,9.183433086529482203e-01,1.129236077751611722e+00
7.616666666666666252e+00,1.644630894809988022e+09,2.583498801433806169e-01,-2.269065095953922473e+00,-5.182329692849457103e+00,6.441995009416116025e-01,6.450469209097129397e-01,9.367836290976176983e-01,1.083728787722872067e+00
7.633333333333332860e+00,1.644630894826325655e+09,2.568919795784816995e-01,-2.359204999779191514e+00,-5.298510047669982903e+00,5.801000481115994312e-01,4.667494773143496811e-01,9.544347034977122002e-01,1.034536787948363568e+00
7.649999999999999467e+00,1.644630894844080448e+09,2.553621385318760595e-01,-2.667183068892944320e+00,-5.850366733067478897e+00,5.160005952815897023e-01,2.903899974299998243e-01,9.712058087145143404e-01,9.781524648738456618e-01
7.666666666666666963e+00,1.644630894861311197e+09,2.537872629353069565e-01,-2.746138957628232458e+00,-5.976228784123047255e+00,4.839508688665823399e-01,1.170633545859268709e-01,9.870101176551016042e-01,9.185302292158865622e-01
7.683333333333333570e+00,1.644630894879309893e+09,2.521937314365312321e-01,-2.554299458607849793e+00,-5.528450333252272308e+00,4.198514160365725556e-01,-5.216507107763312945e-02,1.001832080773729317e+00,8.602671906025006754e-01
7.700000000000000178e+00,1.644630894895901918e+09,2.506070717499779832e-01,-2.482583949685267743e+00,-5.352969588992102956e+00,3.878016896215676357e-01,-2.162669963824734864e-01,1.015678280110836607e+00,8.014401421642642909e-01
7.716666666666666785e+00,1.644630894913565874e+09,2.490516465637137855e-01,-3.030789106631046614e+00,-6.385280450053648416e+00,3.237022367915554644e-01,-3.742585337164403558e-01,1.028454613622137526e+00,7.319130146471718446e-01
7.733333333333333393e+00,1.644630894929916382e+09,2.475503525240827229e-01,-3.133657129128386565e+00,-6.591016495048329205e+00,3.237022367915554644e-01,-5.252071293364697357e-01,1.040046707518423430e+00,6.593398497764716426e-01
7.750000000000000000e+00,1.644630894947848797e+09,2.461243356849981412e-01,-3.244975743467812812e+00,-6.749554270897171193e+00,2.596027839615456800e-01,-6.682380891185808469e-01,1.050404141618517473e+00,5.837621851332710499e-01
7.766666666666666607e+00,1.644630894964801788e+09,2.447927266388611189e-01,-2.683729468660829287e+00,-5.595011994868198890e+00,2.275530575465407879e-01,-8.025406427872258108e-01,1.059571356479106052e+00,5.164904684152149539e-01
7.783333333333333215e+00,1.644630894982013226e+09,2.435723983421870242e-01,-2.653766274751874654e+00,-5.503035880635282595e+00,1.955033311315334810e-01,-9.273735013203867616e-01,1.067613564218724997e+00,4.487625977410584222e-01
7.799999999999999822e+00,1.644630894998286009e+09,2.424777494133155686e-01,-2.661924759768403703e+00,-5.487303124253336328e+00,1.634536047165285888e-01,-1.042069866239475839e+00,1.074519359947892161e+00,3.801235582450932515e-01
7.816666666666666430e+00,1.644630895016916752e+09,2.415205154144094979e-01,-2.621361764420580442e+00,-5.342077680727680189e+00,9.935415188651879059e-02,-1.146041853825411128e+00,1.080281894062196768e+00,3.115709638266886961e-01
7.833333333333333037e+00,1.644630895033064127e+09,2.407096103380473584e-01,-2.688215532862063828e+00,-5.443735491195639931e+00,6.730442547151148369e-02,-1.238784301916508124e+00,1.084889309945680225e+00,2.415135506968957846e-01
7.849999999999999645e+00,1.644630895051051855e+09,2.400510002029638268e-01,-2.922078561358051996e+00,-5.879411821772610125e+00,3.525469905650659153e-02,-1.319877931807078797e+00,1.088295276671047862e+00,1.674083090854426303e-01
7.866666666666666252e+00,1.644630895068080902e+09,2.395476103271767798e-01,-3.113584168825723086e+00,-6.230373310292947941e+00,3.204972641501691987e-03,-1.388991842836439394e+00,1.090440394591235984e+00,9.022025763755185668e-02
7.883333333333332860e+00,1.644630895084586143e+09,2.391992674932134910e-01,-2.810113056276780430e+00,-5.591381358780056487e+00,-2.884475377350440711e-02,-1.445885322498535297e+00,1.091343763665162614e+00,1.838358225070331475e-02
7.899999999999999467e+00,1.644630895101455688e+09,2.390026778530043305e-01,-2.511169792656226196e+00,-4.929395378708937514e+00,-9.294420660351540575e-02,-1.490408960269910876e+00,1.091094917499094263e+00,-4.806055079866398960e-02
7.916666666666666963e+00,1.644630895118431330e+09,2.389514410430461089e-01,-2.614642921168256695e+00,-5.136341635732998512e+00,-9.294420660351540575e-02,-1.522505058806721934e+00,1.089729121523061783e+00,-1.156472211555478885e-01
7.933333333333333570e+00,1.644630895137377739e+09,2.390361005973823116e-01,-2.367738774811062985e+00,-4.578433890188599698e+00,-1.570436594335263836e-01,-1.542207341656387953e+00,1.087277597380469585e+00,-1.783614656207466176e-01
7.950000000000000178e+00,1.644630895154329538e+09,2.392442303608137144e-01,-2.496021249925393093e+00,-4.834998840417259913e+00,-1.570436594335263836e-01,-1.549639962123570580e+00,1.083770752916142666e+00,-2.422823080239024096e-01
7.966666666666666785e+00,1.644630895169431448e+09,2.395605562213962147e-01,-2.232195027520449404e+00,-4.307346395607372536e+00,-1.570436594335263836e-01,-1.545015823379721098e+00,1.079244468354908060e+00,-3.007095376443372770e-01
7.983333333333333393e+00,1.644630895186499357e+09,2.399671121036554000e-01,-2.186186078040414760e+00,-4.151229043817291853e+00,-2.211431122635373892e-01,-1.528634225267790914e+00,1.073761084045006031e+00,-3.571398250562386467e-01
8.000000000000000000e+00,1.644630895205543995e+09,2.404434287959269778e-01,-2.543198626707654508e+00,-4.865254141151772238e+00,-2.211431122635373892e-01,-1.500877858486811878e+00,1.067299512096228531e+00,-4.180795278607022936e-01
8.016666666666665719e+00,1.644630895223500967e+09,2.409667538305512724e-01,-2.266352178805082662e+00,-4.279511518931622405e+00,-2.531928386785423091e-01,-1.462209171903574578e+00,1.059874274564009955e+00,-4.727969795069613679e-01
8.033333333333333215e+00,1.644630895239495039e+09,2.415123002980097411e-01,-2.262116436702250599e+00,-4.271040034725959167e+00,-2.531928386785423091e-01,-1.413166143591030544e+00,1.051551995996431899e+00,-5.257294106109380305e-01
8.050000000000000711e+00,1.644630895256353855e+09,2.420535221589395214e-01,-2.272403238951984594e+00,-4.291613639225427157e+00,-2.531928386785423091e-01,-1.354357490797032604e+00,1.042361523159791581e+00,-5.769849499367813994e-01
8.066666666666666430e+00,1.644630895274312019e+09,2.425624133245989911e-01,-2.042755060195251104e+00,-3.800267555296954036e+00,-2.852425650935483947e-01,-1.286457358366872361e+00,1.032364968296263230e+00,-6.224752687159550435e-01
8.083333333333333925e+00,1.644630895290099859e+09,2.430098275098105387e-01,-2.089953329341089905e+00,-3.894664093588631193e+00,-2.852425650935483947e-01,-1.210199529144774910e+00,1.021620538319547578e+00,-6.667333863806705896e-01
8.099999999999999645e+00,1.644630895307382345e+09,2.433658156255032734e-01,-2.113552463914009305e+00,-3.941862362734470437e+00,-2.852425650935483947e-01,-1.126371203531438603e+00,1.010152904887634540e+00,-7.092644807395150908e-01
8.116666666666667140e+00,1.644630895323399782e+09,2.435999772731571311e-01,-2.210661533090003239e+00,-4.104030774671453052e+00,-3.172922915085532591e-01,-1.035806398649666171e+00,9.979813904019990689e-01,-7.512007651162073696e-01
8.133333333333332860e+00,1.644630895342047691e+09,2.436818227329234920e-01,-2.231527244415028033e+00,-4.113712470906497387e+00,-3.493420179235594003e-01,-9.393790204404282029e-01,9.851271667190749648e-01,-7.911949791808742249e-01
8.150000000000000355e+00,1.644630895359112978e+09,2.435811417028037607e-01,-2.194907884344480031e+00,-4.008424024350395243e+00,-3.813917443385642647e-01,-8.379956644580142111e-01,9.716309578265429625e-01,-8.282471627683837267e-01
8.166666666666666075e+00,1.644630895375703096e+09,2.432683749494266023e-01,-1.915348905557590520e+00,-3.449306066776616664e+00,-3.813917443385642647e-01,-7.325882031329391531e-01,9.575755019637662846e-01,-8.583239920504491804e-01
8.183333333333333570e+00,1.644630895393837452e+09,2.427149849728727771e-01,-1.873283591354830691e+00,-3.333125711956091308e+00,-4.134414707535703504e-01,-6.241062188134112176e-01,9.430437135076137345e-01,-8.854153670971006695e-01
8.199999999999999289e+00,1.644630895410313606e+09,2.418938217692623849e-01,-1.699618165138732540e+00,-2.985794859523895006e+00,-4.134414707535703504e-01,-5.135093429646692131e-01,9.281034064592561528e-01,-9.073605185171331744e-01
8.216666666666666785e+00,1.644630895428132296e+09,2.407794797958570654e-01,-1.724427511741032149e+00,-3.035413552728493780e+00,-4.134414707535703504e-01,-4.017595624966600609e-01,9.128123862186018345e-01,-9.275059495137737420e-01
8.233333333333332504e+00,1.644630895444721460e+09,2.393486423040974143e-01,-1.843320397445875169e+00,-3.241149597723175457e+00,-4.454911971685752703e-01,-2.898135542957585575e-01,8.971874317854642289e-01,-9.474332276096634198e-01
8.250000000000000000e+00,1.644630895460919619e+09,2.375804093058654920e-01,-1.543792920174207772e+00,-2.642094643179839775e+00,-4.454911971685752703e-01,-1.786151086597819182e-01,8.812898380857345781e-01,-9.602424343905002768e-01
8.266666666666665719e+00,1.644630895479905367e+09,2.354566055764309718e-01,-1.505066135234032210e+00,-2.564641073299489538e+00,-4.454911971685752703e-01,-6.908770147617393498e-02,8.652010037633470763e-01,-9.703894973466161700e-01
8.283333333333333215e+00,1.644630895495966196e+09,2.329620652727999175e-01,-1.484179531545431141e+00,-2.490818139507280371e+00,-4.775409235835813559e-01,3.787272634688054751e-02,8.489621115382072203e-01,-9.782557185414522127e-01
8.300000000000000711e+00,1.644630895514158010e+09,2.300848899568715134e-01,-1.324431543667208278e+00,-2.171322163750835088e+00,-4.775409235835813559e-01,1.414047254813800558e-01,8.326295664760585691e-01,-9.816402871157340337e-01
8.316666666666666430e+00,1.644630895531057358e+09,2.268166770569383373e-01,-1.269366896330396788e+00,-2.061192869077212109e+00,-4.775409235835813559e-01,2.406879763372620218e-01,8.162623980246856981e-01,-9.824177673309134606e-01
8.333333333333333925e+00,1.644630895546670437e+09,2.231527160763942530e-01,-1.219748203125797348e+00,-1.961955482668013229e+00,-4.775409235835813559e-01,3.349495569729490363e-01,7.999022517708966884e-01,-9.808042651796718969e-01
8.349999999999999645e+00,1.644630895562369108e+09,2.190921501622685452e-01,-1.145028056493341051e+00,-1.844564915818106998e+00,-4.454911971685752703e-01,4.234697920316684572e-01,7.835913212048776222e-01,-9.765193056880140388e-01
8.366666666666667140e+00,1.644630895580076218e+09,2.146381009756040403e-01,-1.061523426466088438e+00,-1.677555655763601550e+00,-4.454911971685752703e-01,5.055876374372826332e-01,7.673740906485907454e-01,-9.695676716155405828e-01
8.383333333333332860e+00,1.644630895596115828e+09,2.097977551574311261e-01,-9.332409513517579969e-01,-1.420990705534940890e+00,-4.454911971685752703e-01,5.807055593989109976e-01,7.512998542613467112e-01,-9.593690250941773190e-01
8.400000000000000355e+00,1.644630895612733126e+09,2.045824110548309371e-01,-5.907509470370836402e-01,-7.360106969055919546e-01,-4.454911971685752703e-01,6.482938704124923124e-01,7.354508268955094463e-01,-9.425609490054166484e-01
8.416666666666666075e+00,1.644630895628515244e+09,1.990074847576395467e-01,-6.046683853749590387e-01,-7.638455735813428626e-01,-4.454911971685752703e-01,7.078944893786565107e-01,7.198859223749983771e-01,-9.252756094181773250e-01
8.433333333333333570e+00,1.644630895646774292e+09,1.930924748939936986e-01,-2.227455985842876351e-01,0.000000000000000000e+00,-4.454911971685752703e-01,7.591240976414450614e-01,7.046665466128146926e-01,-9.011165920050410172e-01
8.449999999999999289e+00,1.644630895663374662e+09,1.868608860382436343e-01,-2.387704617917906780e-01,0.000000000000000000e+00,-4.775409235835813559e-01,8.016766676568166661e-01,6.898501483054110262e-01,-8.769184235998869203e-01
8.466666666666666785e+00,1.644630895681490898e+09,1.803401109937136093e-01,-2.227455985842876351e-01,0.000000000000000000e+00,-4.454911971685752703e-01,8.353253460819112242e-01,6.754405714760215451e-01,-8.522991843122037503e-01
8.483333333333332504e+00,1.644630895697629929e+09,1.735612726214811885e-01,-2.227455985842876351e-01,0.000000000000000000e+00,-4.454911971685752703e-01,8.599236782969978954e-01,6.614413124137314970e-01,-8.276802905880352723e-01
8.500000000000000000e+00,1.644630895716578007e+09,1.665590262905186081e-01,-2.387704617917906780e-01,0.000000000000000000e+00,-4.775409235835813559e-01,8.754061666887023030e-01,6.478488929598787971e-01,-8.034772760525673574e-01
8.516666666666665719e+00,1.644630895731558800e+09,1.593713244204278123e-01,-2.387704617917906780e-01,0.000000000000000000e+00,-4.775409235835813559e-01,8.817881603942177016e-01,6.346573956333280142e-01,-7.795688170826428065e-01
8.533333333333333215e+00,1.644630895748048306e+09,1.520391449714257326e-01,-2.067207353767851752e-01,0.000000000000000000e+00,-4.134414707535703504e-01,8.791650795880336933e-01,6.218651347976346111e-01,-7.555691505100952110e-01
8.550000000000000711e+00,1.644630895765172005e+09,1.446061861036052054e-01,-1.906958721692821324e-01,0.000000000000000000e+00,-3.813917443385642647e-01,8.677109827430338207e-01,6.094701848754255913e-01,-7.318906154116568974e-01
8.566666666666666430e+00,1.644630895783186197e+09,1.371185295749219601e-01,-1.906958721692821324e-01,0.000000000000000000e+00,-3.813917443385642647e-01,8.476764905734468503e-01,5.974638395397193769e-01,-7.089345931025479164e-01
8.583333333333333925e+00,1.644630895799344301e+09,1.296242757715158067e-01,-1.746710089617797002e-01,0.000000000000000000e+00,-3.493420179235594003e-01,8.193860855265657772e-01,5.858352297558169219e-01,-6.865607320425656246e-01
8.599999999999999645e+00,1.644630895816385508e+09,1.221731535615300374e-01,-1.746710089617797002e-01,0.000000000000000000e+00,-3.493420179235594003e-01,7.832348106918310959e-01,5.745714341352753385e-01,-6.651542063931898952e-01
8.616666666666667140e+00,1.644630895832933903e+09,1.148161084314633373e-01,-1.746710089617797002e-01,0.000000000000000000e+00,-3.493420179235594003e-01,7.396843968003286030e-01,5.636554420573223201e-01,-6.448213245179277298e-01
8.633333333333332860e+00,1.644630895847602606e+09,1.076048725997665600e-01,-1.746710089617797002e-01,0.000000000000000000e+00,-3.493420179235594003e-01,6.892588505568988388e-01,5.530685581545587981e-01,-6.256579765885789124e-01
8.650000000000000355e+00,1.644630895866609097e+09,1.005915210030957768e-01,-1.746710089617797002e-01,0.000000000000000000e+00,-3.493420179235594003e-01,6.325395418438927164e-01,5.427905824335523821e-01,-6.077488586528706493e-01
8.666666666666666075e+00,1.644630895882283688e+09,9.382801721476249912e-02,-1.746710089617797002e-01,0.000000000000000000e+00,-3.493420179235594003e-01,5.701598313271714069e-01,5.328000024784268485e-01,-5.911667983249885294e-01
8.683333333333333570e+00,1.644630895899256229e+09,8.736575348016904774e-02,-1.746710089617797002e-01,0.000000000000000000e+00,-3.493420179235594003e-01,5.027992836480825734e-01,5.230741960005297342e-01,-5.759721872689864686e-01
8.699999999999999289e+00,1.644630895917775393e+09,8.125508913968232383e-02,-1.586461457542766296e-01,0.000000000000000000e+00,-3.172922915085532591e-01,4.311775146726446462e-01,5.135918552806060244e-01,-5.619476570670900450e-01
8.716666666666666785e+00,1.644630895933010817e+09,7.554489175382225752e-02,1.051539197072365595e-01,5.596498573380325192e-01,-3.493420179235594003e-01,3.560477241629382839e-01,5.043673788881219977e-01,-5.450364866101030659e-01
8.733333333333332504e+00,1.644630895950586319e+09,7.028208524895018794e-02,-1.746710089617797002e-01,0.000000000000000000e+00,-3.493420179235594003e-01,2.781899677149472505e-01,4.953730162463443332e-01,-5.343168079891059685e-01
