# 
# 
# 
# 
# 
# 
# 
# 
# 
# 
# time,realtime,ref,inp,dis,state...
0.000000000000000000e+00,1.643393033168090105e+09,0.000000000000000000e+00,-6.073423155643535853e-01,0.000000000000000000e+00,-5.913174523568505148e-01
1.666666666666666644e-02,1.643393033170087099e+09,0.000000000000000000e+00,-5.913174523568505148e-01,0.000000000000000000e+00,-5.913174523568505148e-01
3.333333333333333287e-02,1.643393033171087503e+09,0.000000000000000000e+00,-6.233671787718561008e-01,0.000000000000000000e+00,-6.233671787718561008e-01
5.000000000000000278e-02,1.643393033188011885e+09,0.000000000000000000e+00,-6.393920419793590604e-01,0.000000000000000000e+00,-6.393920419793590604e-01
6.666666666666666574e-02,1.643393033204356670e+09,0.000000000000000000e+00,-6.233671787718561008e-01,0.000000000000000000e+00,-6.233671787718561008e-01
8.333333333333332871e-02,1.643393033221839190e+09,0.000000000000000000e+00,-6.233671787718561008e-01,0.000000000000000000e+00,-6.233671787718561008e-01
1.000000000000000056e-01,1.643393033238201141e+09,0.000000000000000000e+00,-6.393920419793590604e-01,0.000000000000000000e+00,-6.393920419793590604e-01
1.166666666666666685e-01,1.643393033254879951e+09,0.000000000000000000e+00,-6.393920419793590604e-01,0.000000000000000000e+00,-6.393920419793590604e-01
1.333333333333333315e-01,1.643393033272106171e+09,0.000000000000000000e+00,-6.393920419793590604e-01,0.000000000000000000e+00,-6.393920419793590604e-01
1.499999999999999944e-01,1.643393033288981676e+09,0.000000000000000000e+00,-6.233671787718561008e-01,0.000000000000000000e+00,-6.233671787718561008e-01
1.666666666666666574e-01,1.643393033306876898e+09,0.000000000000000000e+00,-6.393920419793590604e-01,0.000000000000000000e+00,-6.393920419793590604e-01
1.833333333333333204e-01,1.643393033322394133e+09,0.000000000000000000e+00,-6.393920419793590604e-01,0.000000000000000000e+00,-6.393920419793590604e-01
2.000000000000000111e-01,1.643393033338088512e+09,0.000000000000000000e+00,-6.233671787718561008e-01,0.000000000000000000e+00,-6.233671787718561008e-01
2.166666666666666741e-01,1.643393033355941057e+09,0.000000000000000000e+00,-6.233671787718561008e-01,0.000000000000000000e+00,-6.233671787718561008e-01
2.333333333333333370e-01,1.643393033373378277e+09,0.000000000000000000e+00,-6.233671787718561008e-01,0.000000000000000000e+00,-6.233671787718561008e-01
2.500000000000000000e-01,1.643393033390338659e+09,0.000000000000000000e+00,-6.233671787718561008e-01,0.000000000000000000e+00,-6.233671787718561008e-01
2.666666666666666630e-01,1.643393033405894518e+09,0.000000000000000000e+00,-6.233671787718561008e-01,0.000000000000000000e+00,-6.233671787718561008e-01
2.833333333333333259e-01,1.643393033423339128e+09,0.000000000000000000e+00,-6.393920419793590604e-01,0.000000000000000000e+00,-6.393920419793590604e-01
2.999999999999999889e-01,1.643393033441792011e+09,0.000000000000000000e+00,-6.393920419793590604e-01,0.000000000000000000e+00,-6.393920419793590604e-01
3.166666666666666519e-01,1.643393033457771540e+09,0.000000000000000000e+00,-6.393920419793590604e-01,0.000000000000000000e+00,-6.393920419793590604e-01
3.333333333333333148e-01,1.643393033475675821e+09,0.000000000000000000e+00,-6.233671787718561008e-01,0.000000000000000000e+00,-6.233671787718561008e-01
3.499999999999999778e-01,1.643393033490685225e+09,0.000000000000000000e+00,-6.393920419793590604e-01,0.000000000000000000e+00,-6.393920419793590604e-01
3.666666666666666408e-01,1.643393033509631872e+09,0.000000000000000000e+00,-6.233671787718561008e-01,0.000000000000000000e+00,-6.233671787718561008e-01
3.833333333333333037e-01,1.643393033527562857e+09,0.000000000000000000e+00,-6.393920419793590604e-01,0.000000000000000000e+00,-6.393920419793590604e-01
4.000000000000000222e-01,1.643393033544517756e+09,0.000000000000000000e+00,-6.233671787718561008e-01,0.000000000000000000e+00,-6.233671787718561008e-01
4.166666666666666852e-01,1.643393033560475588e+09,0.000000000000000000e+00,-6.393920419793590604e-01,0.000000000000000000e+00,-6.393920419793590604e-01
4.333333333333333481e-01,1.643393033578110933e+09,0.000000000000000000e+00,-6.393920419793590604e-01,0.000000000000000000e+00,-6.393920419793590604e-01
4.500000000000000111e-01,1.643393033594068050e+09,0.000000000000000000e+00,-6.233671787718561008e-01,0.000000000000000000e+00,-6.233671787718561008e-01
4.666666666666666741e-01,1.643393033612023830e+09,0.000000000000000000e+00,-6.073423155643535853e-01,0.000000000000000000e+00,-6.073423155643535853e-01
4.833333333333333370e-01,1.643393033628317595e+09,0.000000000000000000e+00,-6.073423155643535853e-01,0.000000000000000000e+00,-6.073423155643535853e-01
5.000000000000000000e-01,1.643393033644814014e+09,0.000000000000000000e+00,-5.752925891493481103e-01,0.000000000000000000e+00,-5.752925891493481103e-01
5.166666666666666075e-01,1.643393033662851334e+09,0.000000000000000000e+00,-5.432428627343426353e-01,0.000000000000000000e+00,-5.432428627343426353e-01
5.333333333333333259e-01,1.643393033679378271e+09,0.000000000000000000e+00,-5.592677259418450397e-01,0.000000000000000000e+00,-5.592677259418450397e-01
5.500000000000000444e-01,1.643393033695333719e+09,0.000000000000000000e+00,-5.592677259418450397e-01,0.000000000000000000e+00,-5.592677259418450397e-01
5.666666666666666519e-01,1.643393033713940859e+09,0.000000000000000000e+00,-5.432428627343426353e-01,0.000000000000000000e+00,-5.432428627343426353e-01
5.833333333333333703e-01,1.643393033731192112e+09,0.000000000000000000e+00,-5.592677259418450397e-01,0.000000000000000000e+00,-5.592677259418450397e-01
5.999999999999999778e-01,1.643393033747560263e+09,0.000000000000000000e+00,-5.592677259418450397e-01,0.000000000000000000e+00,-5.592677259418450397e-01
6.166666666666666963e-01,1.643393033762495756e+09,0.000000000000000000e+00,-5.432428627343426353e-01,0.000000000000000000e+00,-5.432428627343426353e-01
6.333333333333333037e-01,1.643393033779081106e+09,0.000000000000000000e+00,-5.592677259418450397e-01,0.000000000000000000e+00,-5.592677259418450397e-01
6.500000000000000222e-01,1.643393033795627356e+09,0.000000000000000000e+00,-5.432428627343426353e-01,0.000000000000000000e+00,-5.432428627343426353e-01
6.666666666666666297e-01,1.643393033814008236e+09,0.000000000000000000e+00,-5.432428627343426353e-01,0.000000000000000000e+00,-5.432428627343426353e-01
6.833333333333333481e-01,1.643393033831271887e+09,0.000000000000000000e+00,-5.432428627343426353e-01,0.000000000000000000e+00,-5.432428627343426353e-01
6.999999999999999556e-01,1.643393033849483728e+09,0.000000000000000000e+00,-5.432428627343426353e-01,0.000000000000000000e+00,-5.432428627343426353e-01
7.166666666666666741e-01,1.643393033866629124e+09,0.000000000000000000e+00,-5.432428627343426353e-01,0.000000000000000000e+00,-5.432428627343426353e-01
7.333333333333332815e-01,1.643393033882828712e+09,0.000000000000000000e+00,-5.111931363193371602e-01,0.000000000000000000e+00,-5.111931363193371602e-01
7.500000000000000000e-01,1.643393033899921417e+09,0.000000000000000000e+00,-4.791434099043316297e-01,0.000000000000000000e+00,-4.791434099043316297e-01
7.666666666666666075e-01,1.643393033914152384e+09,0.000000000000000000e+00,-4.470936834893260992e-01,0.000000000000000000e+00,-4.470936834893260992e-01
7.833333333333333259e-01,1.643393033932075262e+09,0.000000000000000000e+00,-3.990190938668175535e-01,0.000000000000000000e+00,-3.990190938668175535e-01
8.000000000000000444e-01,1.643393033948032618e+09,0.000000000000000000e+00,-3.509445042443096185e-01,0.000000000000000000e+00,-3.509445042443096185e-01
8.166666666666666519e-01,1.643393033966249704e+09,0.000000000000000000e+00,-2.708201882067962085e-01,0.000000000000000000e+00,-2.708201882067962085e-01
8.333333333333333703e-01,1.643393033983253717e+09,0.000000000000000000e+00,-2.067207353767851752e-01,0.000000000000000000e+00,-2.067207353767851752e-01
8.499999999999999778e-01,1.643393033999190569e+09,0.000000000000000000e+00,-1.586461457542766296e-01,0.000000000000000000e+00,-1.586461457542766296e-01
8.666666666666666963e-01,1.643393034016144514e+09,0.000000000000000000e+00,-1.426212825467741974e-01,0.000000000000000000e+00,-1.426212825467741974e-01
8.833333333333333037e-01,1.643393034034356833e+09,0.000000000000000000e+00,-1.105715561317686946e-01,0.000000000000000000e+00,-1.105715561317686946e-01
9.000000000000000222e-01,1.643393034051812649e+09,0.000000000000000000e+00,-1.105715561317686946e-01,0.000000000000000000e+00,-1.105715561317686946e-01
9.166666666666666297e-01,1.643393034067257643e+09,0.000000000000000000e+00,-7.852182971676319179e-02,0.000000000000000000e+00,-7.852182971676319179e-02
9.333333333333333481e-01,1.643393034086300611e+09,0.000000000000000000e+00,-6.249696650926014896e-02,0.000000000000000000e+00,-6.249696650926014896e-02
9.499999999999999556e-01,1.643393034103191614e+09,0.000000000000000000e+00,-3.044724009425465311e-02,0.000000000000000000e+00,-3.044724009425465311e-02
9.666666666666666741e-01,1.643393034118318558e+09,0.000000000000000000e+00,-1.442237688675220356e-02,0.000000000000000000e+00,-1.442237688675220356e-02
9.833333333333332815e-01,1.643393034136656761e+09,0.000000000000000000e+00,1.602486320750845994e-03,0.000000000000000000e+00,1.602486320750845994e-03
1.000000000000000000e+00,1.643393034153586864e+09,0.000000000000000000e+00,1.602486320750845994e-03,0.000000000000000000e+00,1.602486320750845994e-03
1.016666666666666607e+00,1.643393034169575691e+09,0.000000000000000000e+00,1.762734952825329576e-02,0.000000000000000000e+00,1.762734952825329576e-02
1.033333333333333215e+00,1.643393034186526299e+09,0.000000000000000000e+00,1.762734952825329576e-02,0.000000000000000000e+00,1.762734952825329576e-02
1.050000000000000044e+00,1.643393034202881813e+09,0.000000000000000000e+00,1.762734952825329576e-02,0.000000000000000000e+00,1.762734952825329576e-02
1.066666666666666652e+00,1.643393034219153166e+09,0.000000000000000000e+00,1.762734952825329576e-02,0.000000000000000000e+00,1.762734952825329576e-02
1.083333333333333259e+00,1.643393034235699892e+09,0.000000000000000000e+00,1.762734952825329576e-02,0.000000000000000000e+00,1.762734952825329576e-02
1.100000000000000089e+00,1.643393034252192259e+09,0.000000000000000000e+00,1.762734952825329576e-02,0.000000000000000000e+00,1.762734952825329576e-02
1.116666666666666696e+00,1.643393034269149303e+09,0.000000000000000000e+00,1.762734952825329576e-02,0.000000000000000000e+00,1.762734952825329576e-02
1.133333333333333304e+00,1.643393034286079884e+09,0.000000000000000000e+00,1.762734952825329576e-02,0.000000000000000000e+00,1.762734952825329576e-02
1.149999999999999911e+00,1.643393034305027723e+09,0.000000000000000000e+00,1.762734952825329576e-02,0.000000000000000000e+00,1.762734952825329576e-02
1.166666666666666741e+00,1.643393034319335461e+09,0.000000000000000000e+00,1.762734952825329576e-02,0.000000000000000000e+00,1.762734952825329576e-02
1.183333333333333348e+00,1.643393034337006807e+09,0.000000000000000000e+00,1.762734952825329576e-02,0.000000000000000000e+00,1.762734952825329576e-02
1.199999999999999956e+00,1.643393034353094816e+09,0.000000000000000000e+00,1.762734952825329576e-02,0.000000000000000000e+00,1.762734952825329576e-02
1.216666666666666563e+00,1.643393034370519400e+09,0.000000000000000000e+00,1.762734952825329576e-02,0.000000000000000000e+00,1.762734952825329576e-02
1.233333333333333393e+00,1.643393034386006117e+09,0.000000000000000000e+00,1.762734952825329576e-02,0.000000000000000000e+00,1.762734952825329576e-02
1.250000000000000000e+00,1.643393034404013634e+09,0.000000000000000000e+00,1.762734952825329576e-02,0.000000000000000000e+00,1.762734952825329576e-02
1.266666666666666607e+00,1.643393034420268059e+09,0.000000000000000000e+00,1.762734952825329576e-02,0.000000000000000000e+00,1.762734952825329576e-02
1.283333333333333215e+00,1.643393034438853025e+09,0.000000000000000000e+00,1.762734952825329576e-02,0.000000000000000000e+00,1.762734952825329576e-02
1.300000000000000044e+00,1.643393034455455780e+09,0.000000000000000000e+00,1.762734952825329576e-02,0.000000000000000000e+00,1.762734952825329576e-02
1.316666666666666652e+00,1.643393034472670317e+09,0.000000000000000000e+00,1.762734952825329576e-02,0.000000000000000000e+00,1.762734952825329576e-02
1.333333333333333259e+00,1.643393034488627195e+09,0.000000000000000000e+00,1.762734952825329576e-02,0.000000000000000000e+00,1.762734952825329576e-02
1.350000000000000089e+00,1.643393034507579088e+09,0.000000000000000000e+00,1.762734952825329576e-02,0.000000000000000000e+00,1.762734952825329576e-02
1.366666666666666696e+00,1.643393034524507523e+09,0.000000000000000000e+00,1.762734952825329576e-02,0.000000000000000000e+00,1.762734952825329576e-02
1.383333333333333304e+00,1.643393034540484428e+09,0.000000000000000000e+00,1.762734952825329576e-02,0.000000000000000000e+00,1.762734952825329576e-02
1.399999999999999911e+00,1.643393034558039665e+09,0.000000000000000000e+00,1.762734952825329576e-02,0.000000000000000000e+00,1.762734952825329576e-02
1.416666666666666741e+00,1.643393034575253963e+09,0.000000000000000000e+00,1.762734952825329576e-02,0.000000000000000000e+00,1.762734952825329576e-02
1.433333333333333348e+00,1.643393034593376875e+09,0.000000000000000000e+00,1.762734952825329576e-02,0.000000000000000000e+00,1.762734952825329576e-02
1.449999999999999956e+00,1.643393034608821392e+09,0.000000000000000000e+00,1.762734952825329576e-02,0.000000000000000000e+00,1.762734952825329576e-02
1.466666666666666563e+00,1.643393034625075340e+09,0.000000000000000000e+00,1.762734952825329576e-02,0.000000000000000000e+00,1.762734952825329576e-02
1.483333333333333393e+00,1.643393034643745422e+09,0.000000000000000000e+00,1.762734952825329576e-02,0.000000000000000000e+00,1.762734952825329576e-02
1.500000000000000000e+00,1.643393034660751104e+09,0.000000000000000000e+00,1.762734952825329576e-02,0.000000000000000000e+00,1.762734952825329576e-02
1.516666666666666607e+00,1.643393034676706314e+09,0.000000000000000000e+00,1.602486320750845994e-03,0.000000000000000000e+00,1.602486320750845994e-03
1.533333333333333215e+00,1.643393034694655895e+09,0.000000000000000000e+00,1.602486320750845994e-03,0.000000000000000000e+00,1.602486320750845994e-03
1.550000000000000044e+00,1.643393034711961031e+09,0.000000000000000000e+00,1.602486320750845994e-03,0.000000000000000000e+00,1.602486320750845994e-03
1.566666666666666652e+00,1.643393034727209568e+09,0.000000000000000000e+00,-1.442237688675220356e-02,0.000000000000000000e+00,-1.442237688675220356e-02
1.583333333333333259e+00,1.643393034742530107e+09,0.000000000000000000e+00,-1.442237688675220356e-02,0.000000000000000000e+00,-1.442237688675220356e-02
1.600000000000000089e+00,1.643393034761676550e+09,0.000000000000000000e+00,1.602486320750845994e-03,0.000000000000000000e+00,1.602486320750845994e-03
1.616666666666666696e+00,1.643393034776652575e+09,0.000000000000000000e+00,1.602486320750845994e-03,0.000000000000000000e+00,1.602486320750845994e-03
1.633333333333333304e+00,1.643393034795023203e+09,0.000000000000000000e+00,-1.442237688675220356e-02,0.000000000000000000e+00,-1.442237688675220356e-02
1.649999999999999911e+00,1.643393034811626434e+09,0.000000000000000000e+00,-1.442237688675220356e-02,0.000000000000000000e+00,-1.442237688675220356e-02
1.666666666666666741e+00,1.643393034830601692e+09,0.000000000000000000e+00,1.602486320750845994e-03,0.000000000000000000e+00,1.602486320750845994e-03
1.683333333333333348e+00,1.643393034847217083e+09,0.000000000000000000e+00,-1.442237688675220356e-02,0.000000000000000000e+00,-1.442237688675220356e-02
1.699999999999999956e+00,1.643393034864175558e+09,0.000000000000000000e+00,-3.044724009425465311e-02,0.000000000000000000e+00,-3.044724009425465311e-02
1.716666666666666563e+00,1.643393034882124424e+09,0.000000000000000000e+00,-1.442237688675220356e-02,0.000000000000000000e+00,-1.442237688675220356e-02
1.733333333333333393e+00,1.643393034898295403e+09,0.000000000000000000e+00,-1.442237688675220356e-02,0.000000000000000000e+00,-1.442237688675220356e-02
1.750000000000000000e+00,1.643393034915246725e+09,0.000000000000000000e+00,-1.442237688675220356e-02,0.000000000000000000e+00,-1.442237688675220356e-02
1.766666666666666607e+00,1.643393034930433512e+09,0.000000000000000000e+00,-1.442237688675220356e-02,0.000000000000000000e+00,-1.442237688675220356e-02
