2022-01-28-10:04:41.480452,10.0,34.0,378.0
2022-01-28-10:04:41.481419,7.0,17.0,378.0
2022-01-28-10:04:41.482444,0.0,8.0,378.0
2022-01-28-10:04:41.482444,6.0,13.0,378.0
2022-01-28-10:04:41.483410,2.0,11.0,378.0
2022-01-28-10:04:41.484432,4.0,18.0,378.0
2022-01-28-10:04:41.485428,3.0,19.0,378.0
2022-01-28-10:04:41.486431,4.0,2.0,378.0
2022-01-28-10:04:41.487425,6.0,7.0,378.0
2022-01-28-10:04:41.490422,4.0,5.0,378.0
2022-01-28-10:04:41.490422,8.0,4.0,379.0
2022-01-28-10:04:41.491431,12.0,2.0,378.0
2022-01-28-10:04:41.492386,8.0,13.0,378.0
2022-01-28-10:04:41.493431,5.0,14.0,378.0
2022-01-28-10:04:41.494428,5.0,13.0,378.0
2022-01-28-10:04:41.495426,2.0,14.0,378.0
2022-01-28-10:04:41.496375,5.0,6.0,378.0
2022-01-28-10:04:41.497401,3.0,3.0,378.0
2022-01-28-10:04:41.498386,6.0,7.0,378.0
2022-01-28-10:04:41.499367,11.0,36.0,378.0
2022-01-28-10:04:41.500392,11.0,10.0,378.0
2022-01-28-10:04:41.501388,1.0,8.0,378.0
2022-01-28-10:04:41.502391,5.0,0.0,378.0
2022-01-28-10:04:41.503384,5.0,7.0,378.0
2022-01-28-10:04:41.504381,5.0,3.0,378.0
2022-01-28-10:04:41.505357,9.0,6.0,378.0
2022-01-28-10:04:41.506375,8.0,34.0,379.0
2022-01-28-10:04:41.507372,5.0,10.0,378.0
2022-01-28-10:04:41.508371,2.0,2.0,379.0
2022-01-28-10:04:41.509368,5.0,4.0,378.0
2022-01-28-10:04:41.510340,0.0,1.0,379.0
2022-01-28-10:04:41.511362,1.0,3.0,379.0
2022-01-28-10:04:41.512360,10.0,2.0,378.0
2022-01-28-10:04:41.513355,8.0,1.0,378.0
2022-01-28-10:04:41.514351,12.0,1.0,379.0
2022-01-28-10:04:41.515343,7.0,0.0,378.0
2022-01-28-10:04:41.516323,2.0,14.0,378.0
2022-01-28-10:04:41.517321,1.0,15.0,379.0
2022-01-28-10:04:41.518348,2.0,7.0,378.0
2022-01-28-10:04:41.519341,9.0,9.0,378.0
2022-01-28-10:04:41.520338,9.0,9.0,378.0
2022-01-28-10:04:41.521308,8.0,2.0,378.0
2022-01-28-10:04:41.523303,11.0,16.0,378.0
2022-01-28-10:04:41.523303,2.0,8.0,378.0
2022-01-28-10:04:41.524300,6.0,7.0,378.0
2022-01-28-10:04:41.525320,9.0,3.0,379.0
2022-01-28-10:04:41.526298,11.0,9.0,378.0
2022-01-28-10:04:41.527296,3.0,10.0,378.0
2022-01-28-10:04:41.528325,4.0,15.0,378.0
2022-01-28-10:04:41.529287,2.0,1.0,378.0
2022-01-28-10:04:41.530317,6.0,2.0,378.0
2022-01-28-10:04:41.531316,8.0,25.0,378.0
2022-01-28-10:04:41.532311,3.0,8.0,378.0
2022-01-28-10:04:41.533278,1.0,10.0,378.0
2022-01-28-10:04:41.534311,2.0,24.0,379.0
2022-01-28-10:04:41.535296,2.0,27.0,378.0
2022-01-28-10:04:41.536295,10.0,11.0,377.0
2022-01-28-10:04:41.537267,9.0,10.0,378.0
2022-01-28-10:04:41.538263,5.0,15.0,377.0
2022-01-28-10:04:41.539293,10.0,9.0,377.0
2022-01-28-10:04:41.540285,5.0,2.0,377.0
2022-01-28-10:04:41.541282,3.0,7.0,377.0
2022-01-28-10:04:41.542442,6.0,14.0,377.0
2022-01-28-10:04:41.542442,1.0,9.0,378.0
2022-01-28-10:04:41.543249,11.0,2.0,377.0
2022-01-28-10:04:41.544247,4.0,16.0,377.0
2022-01-28-10:04:41.545274,2.0,9.0,376.0
2022-01-28-10:04:41.546271,8.0,17.0,376.0
2022-01-28-10:04:41.547267,10.0,16.0,376.0
2022-01-28-10:04:41.548269,0.0,28.0,376.0
2022-01-28-10:04:41.549261,7.0,6.0,376.0
2022-01-28-10:04:41.550257,5.0,0.0,376.0
2022-01-28-10:04:41.551253,10.0,7.0,375.0
2022-01-28-10:04:41.552252,3.0,16.0,375.0
2022-01-28-10:04:41.553248,6.0,7.0,376.0
2022-01-28-10:04:41.554245,2.0,3.0,376.0
2022-01-28-10:04:41.556240,9.0,1.0,376.0
2022-01-28-10:04:41.556240,4.0,5.0,376.0
2022-01-28-10:04:41.557212,4.0,3.0,375.0
2022-01-28-10:04:41.558238,4.0,12.0,375.0
2022-01-28-10:04:41.559232,9.0,16.0,375.0
2022-01-28-10:04:41.560231,1.0,7.0,376.0
2022-01-28-10:04:41.561226,5.0,1.0,376.0
2022-01-28-10:04:41.562229,3.0,8.0,375.0
2022-01-28-10:04:41.563223,9.0,4.0,376.0
2022-01-28-10:04:41.564219,0.0,21.0,375.0
2022-01-28-10:04:41.565216,5.0,11.0,376.0
2022-01-28-10:04:41.566188,2.0,4.0,375.0
2022-01-28-10:04:41.567211,12.0,16.0,376.0
2022-01-28-10:04:41.568182,4.0,12.0,375.0
2022-01-28-10:04:41.569205,1.0,9.0,376.0
2022-01-28-10:04:41.570178,5.0,3.0,376.0
2022-01-28-10:04:41.571201,8.0,19.0,376.0
2022-01-28-10:04:41.572197,1.0,19.0,375.0
2022-01-28-10:04:41.573194,0.0,4.0,376.0
2022-01-28-10:04:41.574167,3.0,7.0,376.0
2022-01-28-10:04:41.575189,11.0,2.0,376.0
2022-01-28-10:04:41.576162,3.0,1.0,375.0
2022-01-28-10:04:41.577184,3.0,8.0,375.0
2022-01-28-10:04:41.578185,2.0,3.0,376.0
2022-01-28-10:04:41.579182,9.0,1.0,376.0
2022-01-28-10:04:41.580176,1.0,6.0,376.0
2022-01-28-10:04:41.581172,1.0,6.0,376.0
2022-01-28-10:04:41.582175,1.0,6.0,376.0
2022-01-28-10:04:41.583167,1.0,6.0,376.0
2022-01-28-10:04:41.584168,2.0,14.0,376.0
2022-01-28-10:04:41.585163,2.0,14.0,376.0
2022-01-28-10:04:41.586159,2.0,14.0,376.0
2022-01-28-10:04:41.587160,2.0,14.0,376.0
2022-01-28-10:04:41.589173,5.0,14.0,376.0
2022-01-28-10:04:41.589173,5.0,14.0,376.0
2022-01-28-10:04:41.590153,5.0,14.0,376.0
2022-01-28-10:04:41.591169,5.0,14.0,376.0
2022-01-28-10:04:41.592165,9.0,6.0,376.0
2022-01-28-10:04:41.593116,11.0,0.0,376.0
2022-01-28-10:04:41.594161,11.0,0.0,376.0
2022-01-28-10:04:41.595158,11.0,0.0,376.0
2022-01-28-10:04:41.596157,8.0,10.0,376.0
2022-01-28-10:04:41.597152,0.0,0.0,376.0
2022-01-28-10:04:41.598154,1.0,0.0,376.0
2022-01-28-10:04:41.599152,1.0,0.0,376.0
2022-01-28-10:04:41.600144,3.0,22.0,376.0
2022-01-28-10:04:41.601142,3.0,21.0,376.0
2022-01-28-10:04:41.602139,0.0,6.0,376.0
2022-01-28-10:04:41.603090,0.0,6.0,376.0
2022-01-28-10:04:41.604135,3.0,4.0,376.0
2022-01-28-10:04:41.605131,3.0,4.0,376.0
2022-01-28-10:04:41.606133,4.0,3.0,375.0
2022-01-28-10:04:41.607079,12.0,4.0,375.0
2022-01-28-10:04:41.608123,9.0,6.0,376.0
2022-01-28-10:04:41.609121,12.0,6.0,376.0
2022-01-28-10:04:41.610118,9.0,0.0,376.0
2022-01-28-10:04:41.611068,9.0,0.0,376.0
2022-01-28-10:04:41.612114,2.0,2.0,376.0
2022-01-28-10:04:41.613109,5.0,21.0,376.0
2022-01-28-10:04:41.614107,3.0,26.0,376.0
2022-01-28-10:04:41.615084,3.0,26.0,376.0
2022-01-28-10:04:41.616103,3.0,26.0,376.0
2022-01-28-10:04:41.617099,4.0,31.0,376.0
2022-01-28-10:04:41.618200,2.0,11.0,376.0
2022-01-28-10:04:41.618200,2.0,11.0,376.0
2022-01-28-10:04:41.619246,2.0,11.0,376.0
2022-01-28-10:04:41.620243,6.0,3.0,376.0
2022-01-28-10:04:41.621243,5.0,23.0,376.0
2022-01-28-10:04:41.623237,4.0,28.0,376.0
2022-01-28-10:04:41.623237,4.0,28.0,376.0
2022-01-28-10:04:41.624236,9.0,10.0,376.0
2022-01-28-10:04:41.625230,13.0,10.0,376.0
2022-01-28-10:04:41.626208,13.0,10.0,376.0
2022-01-28-10:04:41.627205,13.0,10.0,376.0
2022-01-28-10:04:41.628222,13.0,10.0,376.0
2022-01-28-10:04:41.629219,8.0,3.0,376.0
2022-01-28-10:04:41.630418,4.0,1.0,375.0
2022-01-28-10:04:41.630418,3.0,7.0,376.0
2022-01-28-10:04:41.631464,4.0,8.0,376.0
2022-01-28-10:04:41.632462,4.0,8.0,376.0
2022-01-28-10:04:41.633459,0.0,16.0,375.0
2022-01-28-10:04:41.634550,2.0,16.0,376.0
2022-01-28-10:04:41.634550,2.0,16.0,376.0
2022-01-28-10:04:41.635779,2.0,16.0,376.0
2022-01-28-10:04:41.635779,0.0,12.0,375.0
2022-01-28-10:04:41.636825,3.0,3.0,376.0
2022-01-28-10:04:41.637823,3.0,3.0,376.0
2022-01-28-10:04:41.638822,3.0,3.0,376.0
2022-01-28-10:04:41.639771,3.0,3.0,376.0
2022-01-28-10:04:41.640793,3.0,3.0,376.0
2022-01-28-10:04:41.641815,8.0,8.0,376.0
2022-01-28-10:04:41.642810,13.0,15.0,376.0
2022-01-28-10:04:41.643809,13.0,15.0,376.0
2022-01-28-10:04:41.644783,5.0,2.0,376.0
2022-01-28-10:04:41.645895,5.0,7.0,376.0
2022-01-28-10:04:41.645895,5.0,7.0,376.0
2022-01-28-10:04:41.646941,5.0,7.0,376.0
2022-01-28-10:04:41.648097,5.0,7.0,376.0
2022-01-28-10:04:41.648097,2.0,15.0,376.0
2022-01-28-10:04:41.649258,5.0,0.0,376.0
2022-01-28-10:04:41.649258,5.0,0.0,376.0
2022-01-28-10:04:41.650305,5.0,0.0,376.0
2022-01-28-10:04:41.651302,5.0,0.0,376.0
2022-01-28-10:04:41.652466,5.0,0.0,376.0
2022-01-28-10:04:41.652466,0.0,14.0,376.0
2022-01-28-10:04:41.653512,1.0,15.0,376.0
2022-01-28-10:04:41.654509,5.0,22.0,376.0
2022-01-28-10:04:41.655511,5.0,22.0,376.0
2022-01-28-10:04:41.657503,5.0,22.0,376.0
2022-01-28-10:04:41.657503,10.0,5.0,376.0
2022-01-28-10:04:41.658500,10.0,5.0,376.0
2022-01-28-10:04:41.659499,11.0,19.0,376.0
2022-01-28-10:04:41.660447,11.0,19.0,376.0
2022-01-28-10:04:41.661491,5.0,21.0,376.0
2022-01-28-10:04:41.662488,1.0,22.0,376.0
2022-01-28-10:04:41.663588,2.0,25.0,376.0
2022-01-28-10:04:41.663588,2.0,25.0,376.0
2022-01-28-10:04:41.664636,2.0,25.0,376.0
2022-01-28-10:04:41.665685,2.0,28.0,376.0
2022-01-28-10:04:41.665685,3.0,26.0,376.0
2022-01-28-10:04:41.666732,1.0,23.0,376.0
2022-01-28-10:04:41.667729,1.0,23.0,376.0
2022-01-28-10:04:41.668726,1.0,23.0,376.0
2022-01-28-10:04:41.669724,2.0,4.0,376.0
2022-01-28-10:04:41.670722,1.0,17.0,375.0
2022-01-28-10:04:41.671719,5.0,16.0,376.0
2022-01-28-10:04:41.672669,5.0,16.0,376.0
2022-01-28-10:04:41.673716,8.0,11.0,376.0
2022-01-28-10:04:41.674710,10.0,7.0,376.0
2022-01-28-10:04:41.675661,10.0,7.0,376.0
2022-01-28-10:04:41.676659,10.0,7.0,376.0
2022-01-28-10:04:41.677702,14.0,8.0,376.0
2022-01-28-10:04:41.678700,1.0,14.0,376.0
2022-01-28-10:04:41.679698,1.0,14.0,376.0
2022-01-28-10:04:41.680695,1.0,14.0,376.0
2022-01-28-10:04:41.681695,1.0,15.0,376.0
2022-01-28-10:04:41.682689,1.0,15.0,376.0
2022-01-28-10:04:41.683686,3.0,10.0,376.0
2022-01-28-10:04:41.684683,3.0,10.0,376.0
2022-01-28-10:04:41.685686,3.0,10.0,376.0
2022-01-28-10:04:41.686678,3.0,8.0,376.0
2022-01-28-10:04:41.687676,3.0,30.0,376.0
2022-01-28-10:04:41.688673,3.0,30.0,376.0
2022-01-28-10:04:41.690672,3.0,30.0,376.0
2022-01-28-10:04:41.690672,11.0,3.0,376.0
2022-01-28-10:04:41.691665,11.0,3.0,376.0
2022-01-28-10:04:41.692641,11.0,3.0,376.0
2022-01-28-10:04:41.693660,11.0,3.0,376.0
2022-01-28-10:04:41.694657,11.0,9.0,376.0
2022-01-28-10:04:41.695655,2.0,8.0,376.0
2022-01-28-10:04:41.696652,1.0,19.0,376.0
2022-01-28-10:04:41.697652,1.0,19.0,376.0
2022-01-28-10:04:41.698646,5.0,4.0,376.0
2022-01-28-10:04:41.699645,4.0,10.0,376.0
2022-01-28-10:04:41.700641,5.0,4.0,375.0
2022-01-28-10:04:41.701639,5.0,4.0,375.0
2022-01-28-10:04:41.702636,2.0,3.0,376.0
2022-01-28-10:04:41.703724,4.0,11.0,376.0
2022-01-28-10:04:41.703724,4.0,11.0,376.0
2022-01-28-10:04:41.704771,4.0,11.0,376.0
2022-01-28-10:04:41.705722,4.0,11.0,376.0
2022-01-28-10:04:41.706719,2.0,8.0,376.0
2022-01-28-10:04:41.707764,2.0,8.0,376.0
2022-01-28-10:04:41.708953,7.0,1.0,376.0
2022-01-28-10:04:41.708953,11.0,11.0,376.0
2022-01-28-10:04:41.709953,10.0,25.0,376.0
2022-01-28-10:04:41.710996,11.0,32.0,376.0
2022-01-28-10:04:41.711996,6.0,20.0,376.0
2022-01-28-10:04:41.712990,2.0,9.0,376.0
2022-01-28-10:04:41.713993,2.0,9.0,376.0
2022-01-28-10:04:41.714987,0.0,1.0,375.0
2022-01-28-10:04:41.715983,3.0,6.0,376.0
2022-01-28-10:04:41.716980,4.0,3.0,376.0
2022-01-28-10:04:41.717978,4.0,3.0,376.0
2022-01-28-10:04:41.718978,1.0,6.0,375.0
2022-01-28-10:04:41.719974,5.0,2.0,375.0
2022-01-28-10:04:41.720970,1.0,1.0,376.0
2022-01-28-10:04:41.722966,1.0,1.0,376.0
2022-01-28-10:04:41.722966,11.0,6.0,375.0
2022-01-28-10:04:41.723916,11.0,6.0,375.0
2022-01-28-10:04:41.724959,11.0,6.0,375.0
2022-01-28-10:04:41.725910,11.0,6.0,375.0
2022-01-28-10:04:41.726954,10.0,4.0,376.0
2022-01-28-10:04:41.727952,8.0,11.0,376.0
2022-01-28-10:04:41.728949,3.0,9.0,376.0
2022-01-28-10:04:41.729899,3.0,9.0,376.0
2022-01-28-10:04:41.730945,2.0,15.0,376.0
2022-01-28-10:04:41.732056,3.0,19.0,376.0
2022-01-28-10:04:41.732056,1.0,17.0,376.0
2022-01-28-10:04:41.733103,1.0,17.0,376.0
2022-01-28-10:04:41.734258,1.0,17.0,376.0
2022-01-28-10:04:41.734258,5.0,19.0,375.0
2022-01-28-10:04:41.735303,2.0,4.0,376.0
2022-01-28-10:04:41.736308,2.0,4.0,376.0
2022-01-28-10:04:41.737302,2.0,4.0,376.0
2022-01-28-10:04:41.738249,2.0,4.0,376.0
2022-01-28-10:04:41.739294,12.0,10.0,376.0
2022-01-28-10:04:41.740291,12.0,10.0,376.0
2022-01-28-10:04:41.741288,12.0,10.0,376.0
2022-01-28-10:04:41.742239,12.0,10.0,376.0
2022-01-28-10:04:41.743236,7.0,8.0,376.0
2022-01-28-10:04:41.744282,10.0,9.0,376.0
2022-01-28-10:04:41.745281,5.0,5.0,376.0
2022-01-28-10:04:41.746237,5.0,5.0,376.0
2022-01-28-10:04:41.747273,4.0,8.0,375.0
2022-01-28-10:04:41.748270,4.0,5.0,376.0
2022-01-28-10:04:41.749274,4.0,10.0,376.0
2022-01-28-10:04:41.750263,4.0,10.0,376.0
2022-01-28-10:04:41.751261,2.0,8.0,375.0
2022-01-28-10:04:41.752360,4.0,12.0,376.0
2022-01-28-10:04:41.752360,4.0,12.0,376.0
2022-01-28-10:04:41.753406,4.0,12.0,376.0
2022-01-28-10:04:41.754403,4.0,12.0,376.0
2022-01-28-10:04:41.755789,1.0,3.0,376.0
2022-01-28-10:04:41.756838,8.0,3.0,376.0
2022-01-28-10:04:41.756838,12.0,0.0,375.0
2022-01-28-10:04:41.757813,12.0,0.0,375.0
2022-01-28-10:04:41.758831,12.0,0.0,375.0
2022-01-28-10:04:41.759781,12.0,3.0,376.0
2022-01-28-10:04:41.760825,10.0,4.0,376.0
2022-01-28-10:04:41.761823,3.0,0.0,376.0
2022-01-28-10:04:41.762773,3.0,0.0,376.0
2022-01-28-10:04:41.763817,2.0,3.0,376.0
2022-01-28-10:04:41.764814,1.0,9.0,376.0
2022-01-28-10:04:41.765811,3.0,10.0,376.0
2022-01-28-10:04:41.766763,3.0,10.0,376.0
2022-01-28-10:04:41.767809,5.0,4.0,376.0
2022-01-28-10:04:41.768804,6.0,11.0,376.0
2022-01-28-10:04:41.769882,1.0,16.0,376.0
2022-01-28-10:04:41.769882,1.0,16.0,376.0
2022-01-28-10:04:41.770918,1.0,16.0,376.0
2022-01-28-10:04:41.771927,0.0,10.0,376.0
2022-01-28-10:04:41.772981,8.0,2.0,376.0
2022-01-28-10:04:41.772981,8.0,2.0,376.0
2022-01-28-10:04:41.774036,8.0,2.0,376.0
2022-01-28-10:04:41.775011,8.0,2.0,376.0
2022-01-28-10:04:41.776039,6.0,12.0,376.0
2022-01-28-10:04:41.777095,6.0,7.0,376.0
2022-01-28-10:04:41.777095,6.0,7.0,376.0
2022-01-28-10:04:41.778121,6.0,7.0,376.0
2022-01-28-10:04:41.779274,6.0,7.0,376.0
2022-01-28-10:04:41.779274,2.0,5.0,376.0
2022-01-28-10:04:41.780299,2.0,3.0,376.0
2022-01-28-10:04:41.781300,1.0,5.0,376.0
2022-01-28-10:04:41.782294,1.0,5.0,376.0
2022-01-28-10:04:41.783265,1.0,5.0,376.0
2022-01-28-10:04:41.784288,3.0,15.0,376.0
2022-01-28-10:04:41.785285,5.0,16.0,376.0
2022-01-28-10:04:41.786303,4.0,14.0,376.0
2022-01-28-10:04:41.787256,4.0,14.0,376.0
2022-01-28-10:04:41.788299,4.0,3.0,375.0
2022-01-28-10:04:41.789295,10.0,3.0,375.0
2022-01-28-10:04:41.790294,10.0,3.0,375.0
2022-01-28-10:04:41.792241,10.0,3.0,375.0
2022-01-28-10:04:41.792241,8.0,3.0,376.0
2022-01-28-10:04:41.793281,7.0,7.0,376.0
2022-01-28-10:04:41.794282,7.0,13.0,376.0
2022-01-28-10:04:41.795282,7.0,13.0,376.0
2022-01-28-10:04:41.796277,5.0,17.0,376.0
2022-01-28-10:04:41.797279,1.0,6.0,376.0
2022-01-28-10:04:41.798273,6.0,5.0,376.0
2022-01-28-10:04:41.799269,6.0,5.0,376.0
2022-01-28-10:04:41.800267,6.0,5.0,376.0
2022-01-28-10:04:41.801243,1.0,3.0,375.0
2022-01-28-10:04:41.802241,6.0,2.0,376.0
2022-01-28-10:04:41.803237,6.0,2.0,376.0
2022-01-28-10:04:41.804241,6.0,2.0,376.0
2022-01-28-10:04:41.805232,2.0,4.0,376.0
2022-01-28-10:04:41.806229,5.0,8.0,376.0
2022-01-28-10:04:41.807514,11.0,6.0,376.0
2022-01-28-10:04:41.807514,11.0,6.0,376.0
2022-01-28-10:04:41.808539,7.0,7.0,376.0
2022-01-28-10:04:41.809628,8.0,10.0,376.0
2022-01-28-10:04:41.809821,8.0,10.0,376.0
2022-01-28-10:04:41.809821,8.0,10.0,376.0
2022-01-28-10:04:41.810854,8.0,10.0,376.0
2022-01-28-10:04:41.811839,8.0,10.0,376.0
2022-01-28-10:04:41.812849,6.0,11.0,376.0
2022-01-28-10:04:41.813848,3.0,7.0,376.0
2022-01-28-10:04:41.814844,0.0,5.0,376.0
2022-01-28-10:04:41.816084,0.0,5.0,376.0
2022-01-28-10:04:41.816084,2.0,6.0,376.0
2022-01-28-10:04:41.817110,6.0,0.0,376.0
2022-01-28-10:04:41.818108,3.0,1.0,375.0
2022-01-28-10:04:41.819104,3.0,1.0,375.0
2022-01-28-10:04:41.820077,3.0,1.0,375.0
2022-01-28-10:04:41.821102,1.0,2.0,376.0
2022-01-28-10:04:41.822098,12.0,5.0,376.0
2022-01-28-10:04:41.823094,8.0,3.0,375.0
2022-01-28-10:04:41.825149,8.0,3.0,375.0
2022-01-28-10:04:41.825149,6.0,14.0,375.0
2022-01-28-10:04:41.826147,6.0,14.0,375.0
2022-01-28-10:04:41.827117,6.0,14.0,375.0
2022-01-28-10:04:41.828344,6.0,14.0,375.0
2022-01-28-10:04:41.828344,2.0,7.0,376.0
2022-01-28-10:04:41.829372,2.0,6.0,375.0
2022-01-28-10:04:41.830372,2.0,6.0,375.0
2022-01-28-10:04:41.831364,2.0,6.0,375.0
2022-01-28-10:04:41.832335,2.0,6.0,375.0
2022-01-28-10:04:41.833359,5.0,4.0,376.0
2022-01-28-10:04:41.834441,3.0,1.0,376.0
2022-01-28-10:04:41.834441,3.0,1.0,376.0
2022-01-28-10:04:41.835467,3.0,1.0,376.0
2022-01-28-10:04:41.836466,3.0,1.0,376.0
2022-01-28-10:04:41.837632,5.0,1.0,376.0
2022-01-28-10:04:41.837632,4.0,1.0,376.0
2022-01-28-10:04:41.838657,8.0,2.0,376.0
2022-01-28-10:04:41.839656,8.0,2.0,376.0
2022-01-28-10:04:41.840626,8.0,2.0,376.0
2022-01-28-10:04:41.841650,8.0,11.0,376.0
2022-01-28-10:04:41.842735,6.0,1.0,376.0
2022-01-28-10:04:41.842735,6.0,1.0,376.0
2022-01-28-10:04:41.843766,6.0,1.0,376.0
2022-01-28-10:04:41.844934,6.0,1.0,376.0
2022-01-28-10:04:41.844934,6.0,3.0,376.0
2022-01-28-10:04:41.845960,1.0,2.0,376.0
2022-01-28-10:04:41.846958,4.0,0.0,376.0
2022-01-28-10:04:41.847954,4.0,0.0,376.0
2022-01-28-10:04:41.848951,4.0,0.0,376.0
2022-01-28-10:04:41.849951,4.0,3.0,375.0
2022-01-28-10:04:41.850947,5.0,5.0,376.0
2022-01-28-10:04:41.851944,5.0,1.0,376.0
2022-01-28-10:04:41.852915,5.0,1.0,376.0
2022-01-28-10:04:41.853938,4.0,5.0,375.0
2022-01-28-10:04:41.854936,4.0,18.0,376.0
2022-01-28-10:04:41.855933,10.0,14.0,376.0
2022-01-28-10:04:41.857930,10.0,14.0,376.0
2022-01-28-10:04:41.857930,5.0,7.0,376.0
2022-01-28-10:04:41.858972,5.0,7.0,376.0
2022-01-28-10:04:41.858972,5.0,7.0,376.0
2022-01-28-10:04:41.860020,5.0,7.0,376.0
2022-01-28-10:04:41.861016,5.0,7.0,376.0
2022-01-28-10:04:41.862000,7.0,4.0,375.0
2022-01-28-10:04:41.862997,1.0,1.0,376.0
2022-01-28-10:04:41.864081,1.0,4.0,376.0
2022-01-28-10:04:41.864081,1.0,4.0,376.0
2022-01-28-10:04:41.865261,1.0,4.0,376.0
2022-01-28-10:04:41.865261,4.0,8.0,376.0
2022-01-28-10:04:41.866286,3.0,13.0,375.0
2022-01-28-10:04:41.867284,3.0,13.0,375.0
2022-01-28-10:04:41.868281,3.0,13.0,375.0
2022-01-28-10:04:41.869252,3.0,13.0,375.0
2022-01-28-10:04:41.870276,5.0,8.0,375.0
2022-01-28-10:04:41.871274,9.0,2.0,376.0
2022-01-28-10:04:41.872273,9.0,2.0,376.0
2022-01-28-10:04:41.873242,9.0,2.0,376.0
2022-01-28-10:04:41.874264,10.0,12.0,376.0
2022-01-28-10:04:41.875262,10.0,12.0,376.0
2022-01-28-10:04:41.876280,10.0,12.0,376.0
2022-01-28-10:04:41.877258,10.0,12.0,376.0
2022-01-28-10:04:41.878275,1.0,16.0,375.0
2022-01-28-10:04:41.879372,2.0,6.0,376.0
2022-01-28-10:04:41.879372,2.0,6.0,376.0
2022-01-28-10:04:41.880420,2.0,6.0,376.0
2022-01-28-10:04:41.881429,2.0,6.0,376.0
2022-01-28-10:04:41.882625,1.0,13.0,375.0
2022-01-28-10:04:41.882625,6.0,16.0,376.0
2022-01-28-10:04:41.883778,2.0,2.0,375.0
2022-01-28-10:04:41.883778,2.0,2.0,375.0
2022-01-28-10:04:41.884825,2.0,2.0,375.0
2022-01-28-10:04:41.885825,2.0,2.0,375.0
2022-01-28-10:04:41.886870,4.0,0.0,375.0
2022-01-28-10:04:41.887184,4.0,11.0,376.0
2022-01-28-10:04:41.887184,4.0,11.0,376.0
2022-01-28-10:04:41.888230,4.0,11.0,376.0
2022-01-28-10:04:41.889228,4.0,11.0,376.0
2022-01-28-10:04:41.890226,4.0,11.0,376.0
2022-01-28-10:04:41.892213,7.0,4.0,376.0
2022-01-28-10:04:41.892213,9.0,14.0,376.0
2022-01-28-10:04:41.893171,9.0,14.0,376.0
2022-01-28-10:04:41.894217,9.0,14.0,376.0
2022-01-28-10:04:41.895165,7.0,15.0,376.0
2022-01-28-10:04:41.896283,4.0,9.0,375.0
2022-01-28-10:04:41.896283,2.0,5.0,376.0
2022-01-28-10:04:41.897340,2.0,5.0,376.0
2022-01-28-10:04:41.898338,2.0,5.0,376.0
2022-01-28-10:04:41.899323,2.0,5.0,376.0
2022-01-28-10:04:41.900321,2.0,6.0,376.0
2022-01-28-10:04:41.901318,6.0,7.0,376.0
2022-01-28-10:04:41.902316,6.0,7.0,376.0
2022-01-28-10:04:41.903313,6.0,3.0,376.0
2022-01-28-10:04:41.904311,5.0,5.0,375.0
2022-01-28-10:04:41.905310,5.0,5.0,375.0
2022-01-28-10:04:41.906304,5.0,5.0,375.0
2022-01-28-10:04:41.907308,13.0,2.0,376.0
2022-01-28-10:04:41.908300,10.0,1.0,376.0
2022-01-28-10:04:41.909299,10.0,1.0,376.0
2022-01-28-10:04:41.910248,6.0,4.0,376.0
2022-01-28-10:04:41.911297,6.0,4.0,376.0
2022-01-28-10:04:41.912289,10.0,15.0,376.0
2022-01-28-10:04:41.913289,2.0,3.0,376.0
2022-01-28-10:04:41.914237,2.0,3.0,376.0
2022-01-28-10:04:41.915280,2.0,4.0,376.0
2022-01-28-10:04:41.916278,1.0,7.0,376.0
2022-01-28-10:04:41.917277,1.0,6.0,376.0
2022-01-28-10:04:41.918273,1.0,6.0,376.0
2022-01-28-10:04:41.919271,3.0,2.0,376.0
2022-01-28-10:04:41.920267,1.0,2.0,376.0
2022-01-28-10:04:41.921268,1.0,7.0,376.0
2022-01-28-10:04:41.922262,1.0,7.0,376.0
2022-01-28-10:04:41.923259,1.0,7.0,376.0
2022-01-28-10:04:41.924258,9.0,1.0,376.0
2022-01-28-10:04:41.925255,9.0,4.0,376.0
2022-01-28-10:04:41.927254,9.0,4.0,376.0
2022-01-28-10:04:41.927254,10.0,15.0,376.0
2022-01-28-10:04:41.928246,2.0,10.0,376.0
2022-01-28-10:04:41.929247,2.0,10.0,376.0
2022-01-28-10:04:41.930241,2.0,10.0,376.0
2022-01-28-10:04:41.931239,2.0,10.0,376.0
2022-01-28-10:04:41.932235,0.0,10.0,376.0
2022-01-28-10:04:41.933236,3.0,7.0,376.0
2022-01-28-10:04:41.934230,3.0,1.0,376.0
2022-01-28-10:04:41.935229,3.0,1.0,376.0
2022-01-28-10:04:41.936225,5.0,6.0,376.0
2022-01-28-10:04:41.937331,2.0,5.0,376.0
2022-01-28-10:04:41.937331,2.0,5.0,376.0
2022-01-28-10:04:41.938378,2.0,5.0,376.0
2022-01-28-10:04:41.939375,2.0,5.0,376.0
2022-01-28-10:04:41.940373,4.0,9.0,376.0
2022-01-28-10:04:41.941372,8.0,5.0,376.0
2022-01-28-10:04:41.942321,8.0,5.0,376.0
2022-01-28-10:04:41.943319,8.0,5.0,376.0
2022-01-28-10:04:41.944372,7.0,23.0,376.0
2022-01-28-10:04:41.944372,3.0,21.0,376.0
2022-01-28-10:04:41.945398,3.0,21.0,376.0
2022-01-28-10:04:41.946395,3.0,21.0,376.0
2022-01-28-10:04:41.947393,3.0,21.0,376.0
2022-01-28-10:04:41.948390,4.0,15.0,376.0
2022-01-28-10:04:41.949387,2.0,1.0,376.0
2022-01-28-10:04:41.950388,2.0,4.0,376.0
2022-01-28-10:04:41.951382,2.0,4.0,376.0
2022-01-28-10:04:41.952380,2.0,2.0,376.0
2022-01-28-10:04:41.953376,5.0,11.0,376.0
2022-01-28-10:04:41.954374,3.0,19.0,376.0
2022-01-28-10:04:41.955346,3.0,19.0,376.0
2022-01-28-10:04:41.956369,7.0,31.0,376.0
2022-01-28-10:04:41.957351,11.0,9.0,375.0
2022-01-28-10:04:41.958337,11.0,9.0,375.0
2022-01-28-10:04:41.960359,11.0,9.0,375.0
2022-01-28-10:04:41.960359,1.0,21.0,376.0
2022-01-28-10:04:41.961330,1.0,21.0,376.0
2022-01-28-10:04:41.962352,1.0,21.0,376.0
2022-01-28-10:04:41.963324,1.0,21.0,376.0
2022-01-28-10:04:41.964347,1.0,21.0,375.0
2022-01-28-10:04:41.965435,5.0,3.0,375.0
2022-01-28-10:04:41.965435,5.0,3.0,375.0
2022-01-28-10:04:41.966461,5.0,3.0,375.0
2022-01-28-10:04:41.967457,5.0,3.0,375.0
2022-01-28-10:04:41.968494,4.0,1.0,376.0
2022-01-28-10:04:41.968494,3.0,7.0,376.0
2022-01-28-10:04:41.969521,2.0,7.0,375.0
2022-01-28-10:04:41.970518,2.0,7.0,375.0
2022-01-28-10:04:41.971515,2.0,7.0,375.0
2022-01-28-10:04:41.972513,3.0,13.0,376.0
2022-01-28-10:04:41.973593,13.0,6.0,376.0
2022-01-28-10:04:41.973593,13.0,6.0,376.0
2022-01-28-10:04:41.974619,13.0,6.0,376.0
2022-01-28-10:04:41.975591,13.0,6.0,376.0
2022-01-28-10:04:41.977111,11.0,12.0,376.0
2022-01-28-10:04:41.977111,7.0,19.0,376.0
2022-01-28-10:04:41.978137,7.0,19.0,376.0
2022-01-28-10:04:41.979134,7.0,19.0,376.0
2022-01-28-10:04:41.980132,7.0,19.0,376.0
2022-01-28-10:04:41.981137,4.0,20.0,376.0
2022-01-28-10:04:41.982128,1.0,10.0,376.0
2022-01-28-10:04:41.983124,1.0,5.0,375.0
2022-01-28-10:04:41.984123,1.0,5.0,375.0
2022-01-28-10:04:41.985119,2.0,6.0,375.0
2022-01-28-10:04:41.986116,5.0,0.0,376.0
2022-01-28-10:04:41.987113,1.0,1.0,376.0
2022-01-28-10:04:41.988084,1.0,1.0,376.0
2022-01-28-10:04:41.989107,3.0,5.0,376.0
2022-01-28-10:04:41.990106,9.0,5.0,376.0
2022-01-28-10:04:41.991103,7.0,4.0,376.0
2022-01-28-10:04:41.992074,7.0,4.0,376.0
2022-01-28-10:04:41.993098,8.0,3.0,376.0
2022-01-28-10:04:41.995091,8.0,3.0,376.0
2022-01-28-10:04:41.995091,5.0,13.0,376.0
2022-01-28-10:04:41.996089,5.0,13.0,376.0
2022-01-28-10:04:41.997087,1.0,8.0,376.0
2022-01-28-10:04:41.998085,4.0,5.0,376.0
2022-01-28-10:04:41.999084,2.0,8.0,375.0
2022-01-28-10:04:42.000077,2.0,8.0,375.0
2022-01-28-10:04:42.001078,2.0,8.0,375.0
2022-01-28-10:04:42.002073,4.0,7.0,376.0
2022-01-28-10:04:42.003070,4.0,5.0,376.0
2022-01-28-10:04:42.004068,4.0,5.0,376.0
2022-01-28-10:04:42.005065,4.0,5.0,376.0
2022-01-28-10:04:42.006037,6.0,1.0,375.0
2022-01-28-10:04:42.007062,9.0,2.0,375.0
2022-01-28-10:04:42.008060,9.0,2.0,375.0
2022-01-28-10:04:42.009028,9.0,2.0,375.0
2022-01-28-10:04:42.010025,8.0,0.0,376.0
2022-01-28-10:04:42.011053,6.0,7.0,376.0
2022-01-28-10:04:42.012020,6.0,7.0,376.0
2022-01-28-10:04:42.013043,6.0,7.0,376.0
2022-01-28-10:04:42.014060,2.0,3.0,376.0
2022-01-28-10:04:42.015158,3.0,2.0,376.0
2022-01-28-10:04:42.015158,3.0,2.0,376.0
2022-01-28-10:04:42.016206,3.0,2.0,376.0
2022-01-28-10:04:42.017204,3.0,2.0,376.0
2022-01-28-10:04:42.018199,3.0,0.0,376.0
2022-01-28-10:04:42.019187,3.0,7.0,376.0
2022-01-28-10:04:42.020194,3.0,7.0,376.0
2022-01-28-10:04:42.021193,3.0,7.0,376.0
2022-01-28-10:04:42.022189,4.0,1.0,376.0
2022-01-28-10:04:42.023187,6.0,0.0,376.0
2022-01-28-10:04:42.024183,12.0,0.0,376.0
2022-01-28-10:04:42.025180,12.0,0.0,376.0
2022-01-28-10:04:42.026177,11.0,4.0,376.0
2022-01-28-10:04:42.027129,8.0,20.0,375.0
2022-01-28-10:04:42.028127,8.0,20.0,375.0
2022-01-28-10:04:42.030168,8.0,20.0,375.0
2022-01-28-10:04:42.030168,0.0,13.0,375.0
2022-01-28-10:04:42.031165,3.0,8.0,376.0
2022-01-28-10:04:42.032163,3.0,6.0,376.0
2022-01-28-10:04:42.033159,3.0,6.0,376.0
2022-01-28-10:04:42.034159,1.0,3.0,376.0
2022-01-28-10:04:42.035106,2.0,2.0,376.0
2022-01-28-10:04:42.036104,4.0,1.0,376.0
2022-01-28-10:04:42.037103,4.0,2.0,376.0
2022-01-28-10:04:42.038098,7.0,1.0,376.0
2022-01-28-10:04:42.039096,2.0,1.0,376.0
2022-01-28-10:04:42.040385,3.0,5.0,376.0
2022-01-28-10:04:42.040385,7.0,4.0,375.0
2022-01-28-10:04:42.041385,7.0,4.0,375.0
2022-01-28-10:04:42.042383,8.0,14.0,375.0
2022-01-28-10:04:42.043418,9.0,24.0,375.0
2022-01-28-10:04:42.044431,3.0,6.0,375.0
2022-01-28-10:04:42.045375,3.0,6.0,375.0
2022-01-28-10:04:42.046422,2.0,9.0,376.0
2022-01-28-10:04:42.047395,2.0,9.0,376.0
2022-01-28-10:04:42.048414,3.0,13.0,375.0
2022-01-28-10:04:42.049364,6.0,13.0,375.0
2022-01-28-10:04:42.050408,0.0,1.0,375.0
2022-01-28-10:04:42.051406,8.0,4.0,376.0
2022-01-28-10:04:42.052403,3.0,3.0,376.0
2022-01-28-10:04:42.053402,3.0,3.0,376.0
2022-01-28-10:04:42.054403,7.0,1.0,376.0
2022-01-28-10:04:42.055395,13.0,3.0,376.0
2022-01-28-10:04:42.056393,13.0,3.0,376.0
2022-01-28-10:04:42.057391,13.0,3.0,376.0
2022-01-28-10:04:42.058389,12.0,1.0,376.0
2022-01-28-10:04:42.059488,8.0,1.0,376.0
2022-01-28-10:04:42.059488,8.0,1.0,376.0
2022-01-28-10:04:42.060535,8.0,1.0,376.0
2022-01-28-10:04:42.061532,8.0,1.0,376.0
2022-01-28-10:04:42.063592,8.0,1.0,376.0
2022-01-28-10:04:42.063592,0.0,10.0,376.0
2022-01-28-10:04:42.064589,0.0,10.0,376.0
2022-01-28-10:04:42.065566,0.0,10.0,376.0
2022-01-28-10:04:42.066590,0.0,10.0,376.0
2022-01-28-10:04:42.067585,5.0,6.0,375.0
2022-01-28-10:04:42.068701,3.0,6.0,376.0
2022-01-28-10:04:42.068701,3.0,6.0,376.0
2022-01-28-10:04:42.069748,3.0,6.0,376.0
2022-01-28-10:04:42.070744,3.0,6.0,376.0
2022-01-28-10:04:42.071933,11.0,2.0,376.0
2022-01-28-10:04:42.072073,9.0,2.0,376.0
2022-01-28-10:04:42.072073,9.0,2.0,376.0
2022-01-28-10:04:42.073119,9.0,2.0,376.0
2022-01-28-10:04:42.074117,9.0,2.0,376.0
2022-01-28-10:04:42.075151,10.0,3.0,376.0
2022-01-28-10:04:42.075151,6.0,7.0,376.0
2022-01-28-10:04:42.076198,5.0,12.0,376.0
2022-01-28-10:04:42.077198,5.0,12.0,376.0
2022-01-28-10:04:42.078146,5.0,12.0,376.0
2022-01-28-10:04:42.079168,1.0,10.0,376.0
2022-01-28-10:04:42.080188,3.0,6.0,376.0
2022-01-28-10:04:42.081137,3.0,6.0,376.0
2022-01-28-10:04:42.082135,3.0,6.0,376.0
2022-01-28-10:04:42.083132,1.0,4.0,376.0
2022-01-28-10:04:42.084130,4.0,6.0,376.0
2022-01-28-10:04:42.085127,3.0,4.0,376.0
2022-01-28-10:04:42.086165,2.0,4.0,376.0
2022-01-28-10:04:42.086165,7.0,1.0,375.0
2022-01-28-10:04:42.087196,2.0,0.0,375.0
2022-01-28-10:04:42.088303,9.0,1.0,375.0
2022-01-28-10:04:42.088303,9.0,1.0,375.0
2022-01-28-10:04:42.089328,9.0,1.0,375.0
2022-01-28-10:04:42.090483,9.0,1.0,375.0
2022-01-28-10:04:42.090483,8.0,3.0,376.0
2022-01-28-10:04:42.091504,10.0,11.0,376.0
2022-01-28-10:04:42.092626,9.0,11.0,376.0
2022-01-28-10:04:42.092626,9.0,11.0,376.0
2022-01-28-10:04:42.093653,9.0,11.0,376.0
2022-01-28-10:04:42.094648,9.0,11.0,376.0
2022-01-28-10:04:42.096643,5.0,9.0,376.0
2022-01-28-10:04:42.097615,3.0,5.0,376.0
2022-01-28-10:04:42.097820,3.0,5.0,376.0
2022-01-28-10:04:42.097820,3.0,5.0,376.0
2022-01-28-10:04:42.098851,3.0,5.0,376.0
2022-01-28-10:04:42.099851,5.0,7.0,376.0
2022-01-28-10:04:42.100846,6.0,1.0,376.0
2022-01-28-10:04:42.101845,4.0,5.0,376.0
2022-01-28-10:04:42.102842,4.0,5.0,376.0
2022-01-28-10:04:42.103838,6.0,5.0,376.0
2022-01-28-10:04:42.104838,4.0,6.0,376.0
2022-01-28-10:04:42.105932,10.0,8.0,376.0
2022-01-28-10:04:42.105932,10.0,8.0,376.0
2022-01-28-10:04:42.107109,10.0,8.0,376.0
2022-01-28-10:04:42.107109,13.0,6.0,376.0
2022-01-28-10:04:42.108141,9.0,10.0,376.0
2022-01-28-10:04:42.109106,7.0,15.0,376.0
2022-01-28-10:04:42.110138,7.0,15.0,376.0
2022-01-28-10:04:42.111133,7.0,15.0,376.0
2022-01-28-10:04:42.112101,1.0,11.0,376.0
2022-01-28-10:04:42.113096,0.0,3.0,376.0
2022-01-28-10:04:42.114127,0.0,3.0,376.0
2022-01-28-10:04:42.115090,0.0,3.0,376.0
2022-01-28-10:04:42.116119,0.0,3.0,376.0
2022-01-28-10:04:42.117248,3.0,5.0,376.0
2022-01-28-10:04:42.117248,3.0,6.0,376.0
2022-01-28-10:04:42.118295,3.0,6.0,376.0
2022-01-28-10:04:42.119464,3.0,6.0,376.0
2022-01-28-10:04:42.119464,5.0,1.0,376.0
2022-01-28-10:04:42.120497,5.0,1.0,376.0
2022-01-28-10:04:42.121613,5.0,14.0,376.0
2022-01-28-10:04:42.121613,5.0,14.0,376.0
2022-01-28-10:04:42.122662,5.0,14.0,376.0
2022-01-28-10:04:42.123846,5.0,14.0,376.0
2022-01-28-10:04:42.123846,8.0,12.0,376.0
2022-01-28-10:04:42.124878,8.0,12.0,376.0
2022-01-28-10:04:42.125877,9.0,11.0,375.0
2022-01-28-10:04:42.126877,9.0,11.0,375.0
2022-01-28-10:04:42.127869,9.0,11.0,375.0
2022-01-28-10:04:42.128869,10.0,16.0,376.0
2022-01-28-10:04:42.129865,0.0,13.0,376.0
2022-01-28-10:04:42.131855,0.0,13.0,376.0
2022-01-28-10:04:42.131855,0.0,13.0,376.0
2022-01-28-10:04:42.132848,4.0,17.0,376.0
2022-01-28-10:04:42.133848,6.0,10.0,375.0
2022-01-28-10:04:42.134842,6.0,10.0,375.0
2022-01-28-10:04:42.135841,6.0,10.0,375.0
2022-01-28-10:04:42.136841,4.0,6.0,375.0
2022-01-28-10:04:42.137954,6.0,6.0,375.0
2022-01-28-10:04:42.137954,6.0,6.0,375.0
2022-01-28-10:04:42.139003,6.0,6.0,375.0
2022-01-28-10:04:42.140168,6.0,6.0,375.0
2022-01-28-10:04:42.140168,11.0,2.0,375.0
2022-01-28-10:04:42.141192,11.0,2.0,375.0
2022-01-28-10:04:42.142166,8.0,5.0,376.0
2022-01-28-10:04:42.143167,8.0,5.0,376.0
2022-01-28-10:04:42.144171,8.0,5.0,376.0
2022-01-28-10:04:42.145190,11.0,1.0,375.0
2022-01-28-10:04:42.146187,0.0,23.0,376.0
2022-01-28-10:04:42.147176,2.0,18.0,376.0
2022-01-28-10:04:42.148173,2.0,18.0,376.0
2022-01-28-10:04:42.149171,2.0,11.0,376.0
2022-01-28-10:04:42.150168,0.0,1.0,376.0
2022-01-28-10:04:42.151172,3.0,4.0,375.0
2022-01-28-10:04:42.152155,3.0,4.0,375.0
2022-01-28-10:04:42.153155,1.0,15.0,376.0
2022-01-28-10:04:42.154158,3.0,20.0,376.0
2022-01-28-10:04:42.155154,2.0,9.0,376.0
2022-01-28-10:04:42.156146,2.0,9.0,376.0
2022-01-28-10:04:42.157162,9.0,3.0,376.0
2022-01-28-10:04:42.158141,11.0,3.0,376.0
2022-01-28-10:04:42.159138,7.0,1.0,375.0
2022-01-28-10:04:42.160117,6.0,6.0,376.0
2022-01-28-10:04:42.161133,8.0,14.0,376.0
2022-01-28-10:04:42.162130,8.0,19.0,376.0
2022-01-28-10:04:42.163127,0.0,18.0,376.0
2022-01-28-10:04:42.164106,2.0,10.0,376.0
2022-01-28-10:04:42.165129,1.0,7.0,376.0
2022-01-28-10:04:42.167124,1.0,7.0,376.0
2022-01-28-10:04:42.167608,3.0,4.0,376.0
2022-01-28-10:04:42.167716,3.0,2.0,376.0
2022-01-28-10:04:42.167716,3.0,2.0,376.0
2022-01-28-10:04:42.168749,3.0,2.0,376.0
2022-01-28-10:04:42.169746,5.0,5.0,375.0
2022-01-28-10:04:42.170742,0.0,3.0,376.0
2022-01-28-10:04:42.171741,4.0,2.0,376.0
2022-01-28-10:04:42.172736,4.0,2.0,376.0
2022-01-28-10:04:42.173734,9.0,5.0,376.0
2022-01-28-10:04:42.174730,10.0,2.0,376.0
2022-01-28-10:04:42.175697,10.0,5.0,376.0
2022-01-28-10:04:42.176735,10.0,5.0,376.0
2022-01-28-10:04:42.177730,1.0,9.0,375.0
2022-01-28-10:04:42.178720,1.0,9.0,375.0
2022-01-28-10:04:42.179720,1.0,9.0,375.0
2022-01-28-10:04:42.180717,1.0,9.0,375.0
2022-01-28-10:04:42.181713,1.0,9.0,375.0
2022-01-28-10:04:42.182714,5.0,8.0,376.0
2022-01-28-10:04:42.183707,5.0,8.0,376.0
2022-01-28-10:04:42.184926,5.0,8.0,376.0
2022-01-28-10:04:42.184926,3.0,1.0,376.0
2022-01-28-10:04:42.185958,3.0,1.0,376.0
2022-01-28-10:04:42.187077,3.0,3.0,376.0
2022-01-28-10:04:42.187077,3.0,3.0,376.0
2022-01-28-10:04:42.188135,3.0,3.0,376.0
2022-01-28-10:04:42.189128,3.0,3.0,376.0
2022-01-28-10:04:42.190142,8.0,2.0,376.0
2022-01-28-10:04:42.190471,9.0,9.0,376.0
2022-01-28-10:04:42.190471,9.0,9.0,376.0
2022-01-28-10:04:42.191527,9.0,9.0,376.0
2022-01-28-10:04:42.192524,9.0,9.0,376.0
2022-01-28-10:04:42.193466,9.0,9.0,376.0
2022-01-28-10:04:42.194721,7.0,18.0,376.0
2022-01-28-10:04:42.194721,7.0,22.0,376.0
2022-01-28-10:04:42.195775,0.0,14.0,376.0
2022-01-28-10:04:42.196774,0.0,14.0,376.0
2022-01-28-10:04:42.198767,1.0,10.0,375.0
2022-01-28-10:04:42.198767,2.0,2.0,376.0
2022-01-28-10:04:42.199764,2.0,2.0,376.0
2022-01-28-10:04:42.200762,2.0,2.0,376.0
2022-01-28-10:04:42.201751,2.0,2.0,376.0
2022-01-28-10:04:42.202752,7.0,6.0,376.0
2022-01-28-10:04:42.203746,4.0,3.0,376.0
2022-01-28-10:04:42.204745,4.0,3.0,376.0
2022-01-28-10:04:42.205741,4.0,3.0,376.0
2022-01-28-10:04:42.206738,9.0,13.0,376.0
2022-01-28-10:04:42.207736,10.0,1.0,376.0
2022-01-28-10:04:42.208733,10.0,1.0,376.0
2022-01-28-10:04:42.209684,10.0,1.0,376.0
2022-01-28-10:04:42.210732,9.0,7.0,376.0
2022-01-28-10:04:42.211725,4.0,18.0,376.0
2022-01-28-10:04:42.212724,4.0,19.0,376.0
2022-01-28-10:04:42.213719,4.0,19.0,376.0
2022-01-28-10:04:42.214716,2.0,12.0,376.0
2022-01-28-10:04:42.215694,0.0,8.0,376.0
2022-01-28-10:04:42.216711,0.0,8.0,376.0
2022-01-28-10:04:42.217708,0.0,8.0,376.0
2022-01-28-10:04:42.218710,3.0,9.0,376.0
2022-01-28-10:04:42.219705,4.0,11.0,375.0
2022-01-28-10:04:42.220702,4.0,11.0,375.0
2022-01-28-10:04:42.221699,4.0,11.0,375.0
2022-01-28-10:04:42.222695,6.0,19.0,376.0
2022-01-28-10:04:42.223692,8.0,13.0,376.0
2022-01-28-10:04:42.224689,9.0,2.0,376.0
2022-01-28-10:04:42.225641,9.0,2.0,376.0
2022-01-28-10:04:42.226676,12.0,7.0,376.0
2022-01-28-10:04:42.227683,7.0,22.0,376.0
2022-01-28-10:04:42.228681,1.0,23.0,375.0
2022-01-28-10:04:42.229631,1.0,23.0,375.0
2022-01-28-10:04:42.230673,1.0,9.0,376.0
2022-01-28-10:04:42.232669,1.0,9.0,376.0
2022-01-28-10:04:42.232669,1.0,16.0,375.0
2022-01-28-10:04:42.233666,1.0,16.0,375.0
2022-01-28-10:04:42.234667,4.0,7.0,375.0
2022-01-28-10:04:42.235660,4.0,1.0,376.0
2022-01-28-10:04:42.236769,8.0,7.0,376.0
2022-01-28-10:04:42.236769,8.0,7.0,376.0
2022-01-28-10:04:42.238007,8.0,7.0,376.0
2022-01-28-10:04:42.238007,3.0,6.0,376.0
2022-01-28-10:04:42.239057,6.0,6.0,376.0
2022-01-28-10:04:42.240051,8.0,4.0,376.0
2022-01-28-10:04:42.241049,8.0,4.0,376.0
2022-01-28-10:04:42.241999,8.0,4.0,376.0
2022-01-28-10:04:42.243003,10.0,8.0,376.0
2022-01-28-10:04:42.244044,5.0,19.0,376.0
2022-01-28-10:04:42.245038,5.0,19.0,376.0
2022-01-28-10:04:42.245989,5.0,19.0,376.0
2022-01-28-10:04:42.247035,2.0,19.0,376.0
2022-01-28-10:04:42.248030,2.0,9.0,375.0
2022-01-28-10:04:42.249012,2.0,6.0,376.0
2022-01-28-10:04:42.250004,2.0,6.0,376.0
2022-01-28-10:04:42.251021,1.0,6.0,376.0
2022-01-28-10:04:42.252019,6.0,4.0,376.0
2022-01-28-10:04:42.253017,4.0,4.0,376.0
2022-01-28-10:04:42.254020,4.0,4.0,376.0
2022-01-28-10:04:42.255010,1.0,11.0,376.0
2022-01-28-10:04:42.256123,5.0,5.0,376.0
2022-01-28-10:04:42.256123,8.0,1.0,375.0
2022-01-28-10:04:42.257178,8.0,1.0,375.0
2022-01-28-10:04:42.258392,8.0,1.0,375.0
2022-01-28-10:04:42.258392,10.0,6.0,375.0
2022-01-28-10:04:42.259439,7.0,4.0,376.0
2022-01-28-10:04:42.260437,7.0,10.0,376.0
2022-01-28-10:04:42.261432,7.0,10.0,376.0
2022-01-28-10:04:42.262587,7.0,10.0,376.0
2022-01-28-10:04:42.262587,1.0,6.0,376.0
2022-01-28-10:04:42.263638,1.0,9.0,376.0
2022-01-28-10:04:42.264635,4.0,3.0,376.0
2022-01-28-10:04:42.266579,4.0,3.0,376.0
2022-01-28-10:04:42.266579,4.0,3.0,376.0
2022-01-28-10:04:42.267623,3.0,10.0,375.0
2022-01-28-10:04:42.268620,3.0,10.0,375.0
2022-01-28-10:04:42.269618,3.0,10.0,375.0
2022-01-28-10:04:42.270568,3.0,10.0,375.0
2022-01-28-10:04:42.271616,4.0,13.0,375.0
2022-01-28-10:04:42.272609,10.0,2.0,376.0
2022-01-28-10:04:42.273609,7.0,3.0,375.0
2022-01-28-10:04:42.274603,7.0,3.0,375.0
2022-01-28-10:04:42.275555,4.0,22.0,375.0
2022-01-28-10:04:42.276552,3.0,19.0,376.0
2022-01-28-10:04:42.277568,3.0,19.0,376.0
2022-01-28-10:04:42.278593,3.0,19.0,376.0
2022-01-28-10:04:42.279590,3.0,19.0,376.0
2022-01-28-10:04:42.280593,2.0,22.0,376.0
2022-01-28-10:04:42.281588,1.0,12.0,376.0
2022-01-28-10:04:42.282583,1.0,12.0,376.0
2022-01-28-10:04:42.283580,4.0,7.0,376.0
2022-01-28-10:04:42.284577,7.0,1.0,376.0
2022-01-28-10:04:42.285574,7.0,1.0,376.0
2022-01-28-10:04:42.286572,7.0,1.0,376.0
2022-01-28-10:04:42.287568,7.0,1.0,376.0
2022-01-28-10:04:42.288571,4.0,4.0,376.0
2022-01-28-10:04:42.289566,4.0,13.0,376.0
2022-01-28-10:04:42.290563,10.0,6.0,375.0
2022-01-28-10:04:42.291560,10.0,6.0,375.0
2022-01-28-10:04:42.292556,7.0,3.0,376.0
2022-01-28-10:04:42.293507,12.0,3.0,376.0
2022-01-28-10:04:42.294551,5.0,8.0,376.0
2022-01-28-10:04:42.295547,5.0,8.0,376.0
2022-01-28-10:04:42.296546,1.0,13.0,376.0
2022-01-28-10:04:42.297544,2.0,3.0,376.0
2022-01-28-10:04:42.298540,3.0,1.0,376.0
2022-01-28-10:04:42.300534,3.0,1.0,376.0
2022-01-28-10:04:42.300534,1.0,9.0,376.0
2022-01-28-10:04:42.301485,1.0,9.0,376.0
2022-01-28-10:04:42.302531,1.0,9.0,376.0
2022-01-28-10:04:42.303480,1.0,9.0,376.0
2022-01-28-10:04:42.304523,2.0,11.0,376.0
2022-01-28-10:04:42.305523,6.0,2.0,375.0
2022-01-28-10:04:42.306525,11.0,2.0,376.0
2022-01-28-10:04:42.307470,11.0,2.0,376.0
2022-01-28-10:04:42.308513,10.0,11.0,376.0
2022-01-28-10:04:42.309511,6.0,3.0,376.0
2022-01-28-10:04:42.310461,8.0,10.0,376.0
2022-01-28-10:04:42.311546,8.0,10.0,376.0
2022-01-28-10:04:42.311546,8.0,11.0,376.0
2022-01-28-10:04:42.312600,0.0,18.0,376.0
2022-01-28-10:04:42.313603,3.0,17.0,376.0
2022-01-28-10:04:42.314600,3.0,17.0,376.0
2022-01-28-10:04:42.315572,3.0,17.0,376.0
2022-01-28-10:04:42.316568,5.0,8.0,375.0
2022-01-28-10:04:42.317566,4.0,6.0,376.0
2022-01-28-10:04:42.318566,4.0,6.0,376.0
2022-01-28-10:04:42.319583,4.0,6.0,376.0
2022-01-28-10:04:42.320559,8.0,6.0,376.0
2022-01-28-10:04:42.321575,8.0,6.0,376.0
2022-01-28-10:04:42.322573,8.0,6.0,376.0
2022-01-28-10:04:42.323571,8.0,6.0,376.0
2022-01-28-10:04:42.324568,8.0,6.0,376.0
2022-01-28-10:04:42.325575,6.0,0.0,376.0
2022-01-28-10:04:42.326566,11.0,4.0,376.0
2022-01-28-10:04:42.327574,5.0,0.0,376.0
2022-01-28-10:04:42.327574,5.0,0.0,376.0
2022-01-28-10:04:42.328621,5.0,0.0,376.0
2022-01-28-10:04:42.329595,6.0,8.0,376.0
2022-01-28-10:04:42.330570,2.0,15.0,375.0
2022-01-28-10:04:42.331622,2.0,15.0,375.0
2022-01-28-10:04:42.332610,2.0,15.0,375.0
2022-01-28-10:04:42.333611,1.0,14.0,376.0
2022-01-28-10:04:42.334606,1.0,9.0,376.0
2022-01-28-10:04:42.336599,4.0,6.0,376.0
2022-01-28-10:04:42.336599,10.0,4.0,376.0
2022-01-28-10:04:42.337597,5.0,2.0,376.0
2022-01-28-10:04:42.338594,5.0,2.0,376.0
2022-01-28-10:04:42.339591,5.0,2.0,376.0
2022-01-28-10:04:42.340588,5.0,2.0,376.0
2022-01-28-10:04:42.341829,7.0,3.0,376.0
2022-01-28-10:04:42.341829,12.0,5.0,376.0
2022-01-28-10:04:42.342979,12.0,5.0,376.0
2022-01-28-10:04:42.342979,8.0,10.0,376.0
2022-01-28-10:04:42.343979,8.0,10.0,376.0
2022-01-28-10:04:42.345023,8.0,10.0,376.0
2022-01-28-10:04:42.345974,1.0,8.0,375.0
2022-01-28-10:04:42.347017,1.0,8.0,375.0
2022-01-28-10:04:42.348015,1.0,8.0,375.0
2022-01-28-10:04:42.349014,1.0,8.0,375.0
2022-01-28-10:04:42.350010,4.0,7.0,375.0
2022-01-28-10:04:42.351007,7.0,3.0,376.0
2022-01-28-10:04:42.352004,4.0,4.0,375.0
2022-01-28-10:04:42.352955,4.0,4.0,375.0
2022-01-28-10:04:42.353953,4.0,4.0,375.0
2022-01-28-10:04:42.355054,7.0,5.0,375.0
2022-01-28-10:04:42.355054,7.0,5.0,375.0
2022-01-28-10:04:42.356109,7.0,5.0,375.0
2022-01-28-10:04:42.357107,7.0,5.0,375.0
2022-01-28-10:04:42.358104,5.0,4.0,376.0
2022-01-28-10:04:42.359101,10.0,5.0,376.0
2022-01-28-10:04:42.360101,10.0,16.0,375.0
2022-01-28-10:04:42.361075,10.0,16.0,375.0
2022-01-28-10:04:42.362094,0.0,7.0,375.0
2022-01-28-10:04:42.363092,2.0,3.0,376.0
2022-01-28-10:04:42.364089,2.0,3.0,376.0
2022-01-28-10:04:42.365085,2.0,3.0,376.0
2022-01-28-10:04:42.366083,2.0,3.0,376.0
2022-01-28-10:04:42.367081,4.0,4.0,376.0
2022-01-28-10:04:42.368081,1.0,4.0,376.0
2022-01-28-10:04:42.369078,1.0,4.0,376.0
2022-01-28-10:04:42.371069,2.0,1.0,376.0
2022-01-28-10:04:42.371069,9.0,0.0,376.0
2022-01-28-10:04:42.372065,9.0,0.0,376.0
2022-01-28-10:04:42.373065,9.0,0.0,376.0
2022-01-28-10:04:42.374066,6.0,12.0,376.0
2022-01-28-10:04:42.375060,5.0,7.0,376.0
2022-01-28-10:04:42.376060,12.0,1.0,376.0
2022-01-28-10:04:42.377044,12.0,1.0,376.0
2022-01-28-10:04:42.378055,9.0,17.0,376.0
2022-01-28-10:04:42.379049,3.0,24.0,376.0
2022-01-28-10:04:42.380047,3.0,24.0,376.0
2022-01-28-10:04:42.381042,3.0,24.0,376.0
2022-01-28-10:04:42.382040,3.0,24.0,376.0
2022-01-28-10:04:42.383036,1.0,7.0,376.0
2022-01-28-10:04:42.384153,6.0,14.0,376.0
2022-01-28-10:04:42.384153,6.0,14.0,376.0
2022-01-28-10:04:42.385200,6.0,14.0,376.0
2022-01-28-10:04:42.386576,5.0,8.0,376.0
2022-01-28-10:04:42.386576,4.0,1.0,376.0
2022-01-28-10:04:42.387608,6.0,25.0,376.0
2022-01-28-10:04:42.388605,6.0,25.0,376.0
2022-01-28-10:04:42.389570,6.0,25.0,376.0
2022-01-28-10:04:42.390601,10.0,15.0,376.0
2022-01-28-10:04:42.391601,10.0,10.0,376.0
2022-01-28-10:04:42.392594,10.0,10.0,376.0
2022-01-28-10:04:42.393560,10.0,10.0,376.0
2022-01-28-10:04:42.394591,5.0,11.0,376.0
2022-01-28-10:04:42.395579,0.0,15.0,376.0
2022-01-28-10:04:42.396582,0.0,15.0,376.0
2022-01-28-10:04:42.397549,0.0,15.0,376.0
2022-01-28-10:04:42.398571,4.0,20.0,376.0
2022-01-28-10:04:42.399570,2.0,7.0,376.0
2022-01-28-10:04:42.400566,4.0,5.0,376.0
2022-01-28-10:04:42.401561,4.0,5.0,376.0
2022-01-28-10:04:42.402562,4.0,5.0,376.0
2022-01-28-10:04:42.403557,1.0,1.0,376.0
2022-01-28-10:04:42.405554,5.0,1.0,376.0
2022-01-28-10:04:42.405554,9.0,1.0,375.0
2022-01-28-10:04:42.406549,9.0,1.0,375.0
2022-01-28-10:04:42.407548,9.0,1.0,375.0
2022-01-28-10:04:42.408593,9.0,1.0,375.0
2022-01-28-10:04:42.408593,9.0,1.0,375.0
2022-01-28-10:04:42.409622,9.0,1.0,375.0
2022-01-28-10:04:42.410590,9.0,1.0,375.0
2022-01-28-10:04:42.411636,14.0,5.0,376.0
2022-01-28-10:04:42.412632,11.0,6.0,376.0
2022-01-28-10:04:42.413628,0.0,8.0,375.0
2022-01-28-10:04:42.414781,0.0,8.0,375.0
2022-01-28-10:04:42.414781,2.0,1.0,376.0
2022-01-28-10:04:42.415805,2.0,1.0,376.0
2022-01-28-10:04:42.416920,1.0,12.0,376.0
2022-01-28-10:04:42.416920,1.0,12.0,376.0
2022-01-28-10:04:42.418178,1.0,12.0,376.0
2022-01-28-10:04:42.418178,5.0,13.0,376.0
2022-01-28-10:04:42.419203,5.0,13.0,376.0
2022-01-28-10:04:42.420201,3.0,11.0,376.0
2022-01-28-10:04:42.421196,3.0,11.0,376.0
2022-01-28-10:04:42.422170,3.0,11.0,376.0
2022-01-28-10:04:42.423192,7.0,7.0,376.0
2022-01-28-10:04:42.424191,10.0,2.0,376.0
2022-01-28-10:04:42.425162,10.0,2.0,376.0
2022-01-28-10:04:42.426184,10.0,2.0,376.0
2022-01-28-10:04:42.427181,10.0,9.0,376.0
2022-01-28-10:04:42.428178,8.0,11.0,376.0
2022-01-28-10:04:42.429176,0.0,9.0,375.0
2022-01-28-10:04:42.430173,0.0,9.0,375.0
2022-01-28-10:04:42.431170,0.0,9.0,375.0
2022-01-28-10:04:42.432170,0.0,1.0,376.0
2022-01-28-10:04:42.433164,4.0,7.0,375.0
2022-01-28-10:04:42.434162,4.0,7.0,375.0
2022-01-28-10:04:42.435160,4.0,7.0,375.0
2022-01-28-10:04:42.436156,4.0,5.0,376.0
2022-01-28-10:04:42.437154,0.0,10.0,376.0
2022-01-28-10:04:42.438151,0.0,10.0,376.0
2022-01-28-10:04:42.440148,0.0,10.0,376.0
2022-01-28-10:04:42.440148,9.0,11.0,376.0
2022-01-28-10:04:42.441143,8.0,5.0,376.0
2022-01-28-10:04:42.442141,8.0,5.0,376.0
2022-01-28-10:04:42.443114,8.0,5.0,376.0
2022-01-28-10:04:42.444136,13.0,4.0,376.0
2022-01-28-10:04:42.445134,4.0,19.0,376.0
2022-01-28-10:04:42.446129,4.0,19.0,376.0
2022-01-28-10:04:42.447127,4.0,19.0,376.0
2022-01-28-10:04:42.448128,3.0,16.0,376.0
2022-01-28-10:04:42.449121,2.0,4.0,375.0
2022-01-28-10:04:42.450119,2.0,4.0,375.0
2022-01-28-10:04:42.451117,2.0,4.0,375.0
2022-01-28-10:04:42.452114,1.0,0.0,375.0
2022-01-28-10:04:42.453111,0.0,1.0,376.0
2022-01-28-10:04:42.454109,0.0,1.0,376.0
2022-01-28-10:04:42.455082,0.0,1.0,376.0
2022-01-28-10:04:42.456107,5.0,7.0,375.0
2022-01-28-10:04:42.457218,9.0,4.0,376.0
2022-01-28-10:04:42.457218,9.0,4.0,376.0
2022-01-28-10:04:42.458273,9.0,4.0,376.0
2022-01-28-10:04:42.459272,9.0,4.0,376.0
2022-01-28-10:04:42.460241,8.0,3.0,376.0
2022-01-28-10:04:42.461264,3.0,15.0,375.0
2022-01-28-10:04:42.462253,3.0,15.0,375.0
2022-01-28-10:04:42.463251,3.0,15.0,375.0
2022-01-28-10:04:42.464248,1.0,27.0,375.0
2022-01-28-10:04:42.465245,1.0,35.0,376.0
2022-01-28-10:04:42.466298,2.0,26.0,376.0
2022-01-28-10:04:42.466298,2.0,26.0,376.0
2022-01-28-10:04:42.467352,2.0,26.0,376.0
2022-01-28-10:04:42.468355,1.0,13.0,376.0
2022-01-28-10:04:42.469346,5.0,13.0,375.0
2022-01-28-10:04:42.470344,2.0,22.0,376.0
2022-01-28-10:04:42.471352,2.0,22.0,376.0
2022-01-28-10:04:42.472284,7.0,6.0,375.0
2022-01-28-10:04:42.473306,8.0,3.0,376.0
2022-01-28-10:04:42.474313,8.0,3.0,376.0
2022-01-28-10:04:42.475276,8.0,3.0,376.0
2022-01-28-10:04:42.477271,11.0,8.0,376.0
2022-01-28-10:04:42.477271,10.0,2.0,376.0
2022-01-28-10:04:42.478270,4.0,6.0,376.0
2022-01-28-10:04:42.479326,4.0,6.0,376.0
2022-01-28-10:04:42.480297,4.0,6.0,376.0
2022-01-28-10:04:42.481318,0.0,7.0,376.0
2022-01-28-10:04:42.482291,3.0,12.0,376.0
2022-01-28-10:04:42.483290,3.0,12.0,376.0
2022-01-28-10:04:42.484486,3.0,12.0,376.0
2022-01-28-10:04:42.484486,7.0,2.0,376.0
2022-01-28-10:04:42.485521,5.0,13.0,376.0
2022-01-28-10:04:42.486521,6.0,16.0,376.0
2022-01-28-10:04:42.487481,6.0,16.0,376.0
2022-01-28-10:04:42.488480,6.0,16.0,376.0
2022-01-28-10:04:42.489485,6.0,3.0,376.0
2022-01-28-10:04:42.490508,7.0,6.0,376.0
2022-01-28-10:04:42.491504,7.0,6.0,376.0
2022-01-28-10:04:42.492537,7.0,6.0,376.0
2022-01-28-10:04:42.493499,7.0,9.0,376.0
2022-01-28-10:04:42.494490,6.0,3.0,376.0
2022-01-28-10:04:42.495493,6.0,3.0,376.0
2022-01-28-10:04:42.496458,6.0,3.0,376.0
2022-01-28-10:04:42.497481,1.0,2.0,376.0
2022-01-28-10:04:42.497886,4.0,4.0,376.0
2022-01-28-10:04:42.498500,4.0,4.0,376.0
2022-01-28-10:04:42.499498,4.0,4.0,376.0
2022-01-28-10:04:42.500495,4.0,4.0,376.0
2022-01-28-10:04:42.501494,1.0,3.0,376.0
2022-01-28-10:04:42.502475,5.0,11.0,375.0
2022-01-28-10:04:42.502475,2.0,5.0,376.0
2022-01-28-10:04:42.503516,2.0,5.0,376.0
2022-01-28-10:04:42.504514,2.0,5.0,376.0
2022-01-28-10:04:42.505514,6.0,5.0,376.0
2022-01-28-10:04:42.507507,6.0,5.0,376.0
2022-01-28-10:04:42.507507,6.0,3.0,376.0
2022-01-28-10:04:42.508456,5.0,0.0,375.0
2022-01-28-10:04:42.509500,7.0,3.0,376.0
2022-01-28-10:04:42.510479,7.0,3.0,376.0
2022-01-28-10:04:42.511476,7.0,3.0,376.0
2022-01-28-10:04:42.512445,7.0,3.0,376.0
2022-01-28-10:04:42.513443,7.0,3.0,376.0
2022-01-28-10:04:42.514488,2.0,21.0,376.0
2022-01-28-10:04:42.515489,3.0,16.0,376.0
2022-01-28-10:04:42.516434,3.0,16.0,376.0
2022-01-28-10:04:42.517478,4.0,2.0,376.0
2022-01-28-10:04:42.518453,5.0,5.0,376.0
2022-01-28-10:04:42.519473,6.0,23.0,376.0
2022-01-28-10:04:42.520436,6.0,23.0,376.0
2022-01-28-10:04:42.521472,4.0,20.0,376.0
2022-01-28-10:04:42.522464,4.0,3.0,376.0
2022-01-28-10:04:42.523444,4.0,2.0,376.0
2022-01-28-10:04:42.524442,4.0,2.0,376.0
2022-01-28-10:04:42.525459,8.0,9.0,376.0
2022-01-28-10:04:42.526454,1.0,18.0,376.0
2022-01-28-10:04:42.527431,1.0,18.0,376.0
2022-01-28-10:04:42.528403,1.0,18.0,376.0
2022-01-28-10:04:42.529453,1.0,18.0,376.0
2022-01-28-10:04:42.530447,1.0,3.0,376.0
2022-01-28-10:04:42.531445,0.0,7.0,376.0
2022-01-28-10:04:42.531642,0.0,7.0,376.0
2022-01-28-10:04:42.532438,0.0,7.0,376.0
2022-01-28-10:04:42.533436,0.0,7.0,376.0
2022-01-28-10:04:42.534434,1.0,12.0,376.0
2022-01-28-10:04:42.535431,2.0,8.0,376.0
2022-01-28-10:04:42.536427,5.0,6.0,376.0
2022-01-28-10:04:42.537403,5.0,6.0,376.0
2022-01-28-10:04:42.538402,8.0,1.0,376.0
2022-01-28-10:04:42.539402,10.0,3.0,376.0
2022-01-28-10:04:42.540396,10.0,3.0,376.0
2022-01-28-10:04:42.542411,10.0,3.0,376.0
2022-01-28-10:04:42.542411,10.0,3.0,376.0
2022-01-28-10:04:42.543388,9.0,8.0,375.0
2022-01-28-10:04:42.544359,4.0,19.0,376.0
2022-01-28-10:04:42.545408,4.0,19.0,376.0
2022-01-28-10:04:42.546401,5.0,12.0,376.0
2022-01-28-10:04:42.547400,0.0,24.0,376.0
2022-01-28-10:04:42.548395,1.0,20.0,376.0
2022-01-28-10:04:42.549346,1.0,20.0,376.0
2022-01-28-10:04:42.550344,2.0,4.0,375.0
2022-01-28-10:04:42.551359,7.0,4.0,376.0
2022-01-28-10:04:42.552365,7.0,4.0,376.0
2022-01-28-10:04:42.553335,7.0,4.0,376.0
2022-01-28-10:04:42.554337,3.0,7.0,376.0
2022-01-28-10:04:42.555358,5.0,23.0,376.0
2022-01-28-10:04:42.556355,5.0,23.0,376.0
2022-01-28-10:04:42.557325,5.0,23.0,376.0
2022-01-28-10:04:42.558322,8.0,27.0,376.0
2022-01-28-10:04:42.559331,6.0,9.0,376.0
2022-01-28-10:04:42.560320,6.0,9.0,376.0
2022-01-28-10:04:42.561315,6.0,9.0,376.0
2022-01-28-10:04:42.562312,6.0,9.0,376.0
2022-01-28-10:04:42.563311,1.0,1.0,376.0
2022-01-28-10:04:42.564308,0.0,10.0,375.0
2022-01-28-10:04:42.565305,0.0,10.0,375.0
2022-01-28-10:04:42.566303,0.0,10.0,375.0
2022-01-28-10:04:42.567301,7.0,22.0,375.0
2022-01-28-10:04:42.568296,6.0,27.0,375.0
2022-01-28-10:04:42.569327,6.0,27.0,375.0
2022-01-28-10:04:42.570323,6.0,27.0,375.0
2022-01-28-10:04:42.571321,2.0,22.0,376.0
2022-01-28-10:04:42.572316,4.0,7.0,375.0
2022-01-28-10:04:42.573317,9.0,4.0,376.0
2022-01-28-10:04:42.574315,9.0,4.0,376.0
2022-01-28-10:04:42.575277,13.0,1.0,375.0
2022-01-28-10:04:42.576275,13.0,1.0,375.0
2022-01-28-10:04:42.578294,11.0,2.0,376.0
2022-01-28-10:04:42.578294,3.0,5.0,376.0
2022-01-28-10:04:42.579294,0.0,3.0,376.0
2022-01-28-10:04:42.580289,0.0,3.0,376.0
2022-01-28-10:04:42.581261,0.0,3.0,376.0
2022-01-28-10:04:42.582283,0.0,3.0,376.0
2022-01-28-10:04:42.583258,4.0,0.0,376.0
2022-01-28-10:04:42.584254,4.0,3.0,376.0
2022-01-28-10:04:42.585276,4.0,3.0,376.0
2022-01-28-10:04:42.586252,4.0,3.0,376.0
2022-01-28-10:04:42.587246,5.0,8.0,376.0
2022-01-28-10:04:42.588269,4.0,12.0,376.0
2022-01-28-10:04:42.589240,8.0,1.0,376.0
2022-01-28-10:04:42.590237,8.0,1.0,376.0
2022-01-28-10:04:42.591252,9.0,7.0,376.0
2022-01-28-10:04:42.592251,9.0,7.0,376.0
2022-01-28-10:04:42.593229,9.0,16.0,376.0
2022-01-28-10:04:42.594227,9.0,16.0,376.0
2022-01-28-10:04:42.595223,7.0,13.0,376.0
2022-01-28-10:04:42.596220,2.0,8.0,376.0
2022-01-28-10:04:42.597218,2.0,15.0,376.0
2022-01-28-10:04:42.598215,2.0,15.0,376.0
2022-01-28-10:04:42.599214,6.0,6.0,376.0
2022-01-28-10:04:42.600237,6.0,6.0,376.0
2022-01-28-10:04:42.601233,6.0,6.0,376.0
2022-01-28-10:04:42.602229,6.0,6.0,376.0
2022-01-28-10:04:42.603230,6.0,6.0,376.0
2022-01-28-10:04:42.604225,7.0,11.0,376.0
2022-01-28-10:04:42.605224,6.0,16.0,376.0
2022-01-28-10:04:42.606194,6.0,16.0,376.0
2022-01-28-10:04:42.607219,6.0,16.0,376.0
2022-01-28-10:04:42.608216,11.0,2.0,376.0
2022-01-28-10:04:42.610208,12.0,8.0,375.0
2022-01-28-10:04:42.610208,12.0,8.0,375.0
2022-01-28-10:04:42.611208,3.0,4.0,376.0
2022-01-28-10:04:42.612178,1.0,2.0,376.0
2022-01-28-10:04:42.613176,1.0,2.0,376.0
2022-01-28-10:04:42.614198,1.0,2.0,376.0
2022-01-28-10:04:42.615170,1.0,2.0,376.0
2022-01-28-10:04:42.616195,1.0,8.0,375.0
2022-01-28-10:04:42.617191,2.0,14.0,375.0
2022-01-28-10:04:42.618163,2.0,14.0,375.0
2022-01-28-10:04:42.619170,2.0,14.0,375.0
2022-01-28-10:04:42.620183,5.0,5.0,376.0
2022-01-28-10:04:42.621175,3.0,1.0,376.0
2022-01-28-10:04:42.622153,3.0,5.0,376.0
2022-01-28-10:04:42.623176,3.0,5.0,376.0
2022-01-28-10:04:42.624148,10.0,4.0,376.0
2022-01-28-10:04:42.625170,9.0,3.0,375.0
2022-01-28-10:04:42.626166,9.0,3.0,375.0
2022-01-28-10:04:42.627138,9.0,3.0,375.0
2022-01-28-10:04:42.628136,6.0,6.0,376.0
2022-01-28-10:04:42.629133,6.0,6.0,376.0
2022-01-28-10:04:42.630131,5.0,12.0,376.0
2022-01-28-10:04:42.631138,2.0,7.0,376.0
2022-01-28-10:04:42.632152,3.0,2.0,376.0
2022-01-28-10:04:42.633148,2.0,8.0,375.0
2022-01-28-10:04:42.634145,8.0,11.0,376.0
2022-01-28-10:04:42.635117,1.0,12.0,376.0
2022-01-28-10:04:42.636140,0.0,14.0,376.0
2022-01-28-10:04:42.637139,3.0,0.0,376.0
2022-01-28-10:04:42.638135,1.0,1.0,376.0
2022-01-28-10:04:42.639108,1.0,1.0,376.0
2022-01-28-10:04:42.640132,10.0,3.0,376.0
2022-01-28-10:04:42.641119,10.0,3.0,376.0
2022-01-28-10:04:42.642125,10.0,3.0,376.0
2022-01-28-10:04:42.643122,10.0,3.0,376.0
2022-01-28-10:04:42.644093,2.0,6.0,376.0
2022-01-28-10:04:42.646089,2.0,5.0,376.0
2022-01-28-10:04:42.646089,2.0,5.0,376.0
2022-01-28-10:04:42.647111,2.0,5.0,376.0
2022-01-28-10:04:42.648109,2.0,5.0,376.0
2022-01-28-10:04:42.649081,0.0,5.0,376.0
2022-01-28-10:04:42.650078,4.0,5.0,376.0
2022-01-28-10:04:42.651102,1.0,5.0,376.0
2022-01-28-10:04:42.652098,1.0,5.0,376.0
2022-01-28-10:04:42.653095,5.0,8.0,376.0
2022-01-28-10:04:42.654080,5.0,0.0,375.0
2022-01-28-10:04:42.655090,6.0,4.0,376.0
2022-01-28-10:04:42.656087,6.0,4.0,376.0
2022-01-28-10:04:42.657083,6.0,4.0,375.0
2022-01-28-10:04:42.658056,8.0,0.0,376.0
2022-01-28-10:04:42.659053,8.0,1.0,376.0
2022-01-28-10:04:42.660050,8.0,1.0,376.0
2022-01-28-10:04:42.661076,6.0,13.0,376.0
2022-01-28-10:04:42.662045,2.0,6.0,376.0
2022-01-28-10:04:42.663042,2.0,6.0,376.0
2022-01-28-10:04:42.664040,2.0,6.0,376.0
2022-01-28-10:04:42.665064,2.0,9.0,376.0
2022-01-28-10:04:42.666035,1.0,6.0,375.0
2022-01-28-10:04:42.667032,1.0,6.0,375.0
2022-01-28-10:04:42.668092,1.0,6.0,375.0
2022-01-28-10:04:42.669026,4.0,5.0,376.0
2022-01-28-10:04:42.670024,4.0,3.0,376.0
2022-01-28-10:04:42.671021,1.0,1.0,376.0
2022-01-28-10:04:42.672019,1.0,1.0,376.0
2022-01-28-10:04:42.673015,3.0,7.0,376.0
2022-01-28-10:04:42.674013,7.0,5.0,376.0
2022-01-28-10:04:42.675012,10.0,5.0,375.0
2022-01-28-10:04:42.676010,10.0,5.0,375.0
2022-01-28-10:04:42.677005,8.0,12.0,376.0
2022-01-28-10:04:42.678004,3.0,11.0,376.0
2022-01-28-10:04:42.679000,3.0,11.0,376.0
2022-01-28-10:04:42.680996,3.0,11.0,376.0
2022-01-28-10:04:42.680996,1.0,7.0,376.0
2022-01-28-10:04:42.682032,4.0,5.0,376.0
2022-01-28-10:04:42.683028,4.0,5.0,376.0
2022-01-28-10:04:42.684019,4.0,5.0,376.0
2022-01-28-10:04:42.685018,4.0,5.0,376.0
2022-01-28-10:04:42.685983,3.0,2.0,376.0
2022-01-28-10:04:42.687022,3.0,5.0,376.0
2022-01-28-10:04:42.688010,3.0,5.0,376.0
2022-01-28-10:04:42.689016,3.0,5.0,376.0
2022-01-28-10:04:42.689971,7.0,2.0,376.0
2022-01-28-10:04:42.691003,7.0,2.0,376.0
2022-01-28-10:04:42.691966,9.0,1.0,376.0
2022-01-28-10:04:42.692962,9.0,1.0,376.0
2022-01-28-10:04:42.693960,8.0,12.0,376.0
2022-01-28-10:04:42.694982,8.0,12.0,376.0
2022-01-28-10:04:42.695983,6.0,10.0,376.0
2022-01-28-10:04:42.696976,6.0,10.0,376.0
2022-01-28-10:04:42.697974,2.0,11.0,376.0
2022-01-28-10:04:42.698973,1.0,7.0,376.0
2022-01-28-10:04:42.699974,1.0,7.0,376.0
2022-01-28-10:04:42.700967,1.0,7.0,376.0
2022-01-28-10:04:42.701964,4.0,5.0,376.0
2022-01-28-10:04:42.702935,1.0,8.0,376.0
2022-01-28-10:04:42.703959,1.0,8.0,376.0
2022-01-28-10:04:42.704930,1.0,8.0,376.0
2022-01-28-10:04:42.705928,5.0,13.0,376.0
2022-01-28-10:04:42.706952,12.0,8.0,376.0
2022-01-28-10:04:42.707948,12.0,9.0,376.0
2022-01-28-10:04:42.708921,12.0,9.0,376.0
2022-01-28-10:04:42.709918,12.0,7.0,375.0
2022-01-28-10:04:42.710916,1.0,15.0,376.0
2022-01-28-10:04:42.711912,1.0,15.0,376.0
2022-01-28-10:04:42.713907,1.0,15.0,376.0
2022-01-28-10:04:42.714904,2.0,13.0,376.0
2022-01-28-10:04:42.714904,2.0,2.0,376.0
2022-01-28-10:04:42.715902,2.0,2.0,376.0
2022-01-28-10:04:42.716899,2.0,2.0,376.0
2022-01-28-10:04:42.717896,2.0,2.0,376.0
2022-01-28-10:04:42.718893,6.0,11.0,376.0
2022-01-28-10:04:42.719891,3.0,2.0,376.0
2022-01-28-10:04:42.720888,3.0,2.0,376.0
2022-01-28-10:04:42.721886,3.0,2.0,376.0
2022-01-28-10:04:42.722883,6.0,13.0,376.0
2022-01-28-10:04:42.723881,8.0,2.0,375.0
2022-01-28-10:04:42.724878,8.0,2.0,375.0
2022-01-28-10:04:42.725875,8.0,2.0,375.0
2022-01-28-10:04:42.726873,7.0,9.0,375.0
2022-01-28-10:04:42.727874,5.0,6.0,376.0
2022-01-28-10:04:42.728867,5.0,6.0,376.0
2022-01-28-10:04:42.729865,5.0,6.0,376.0
2022-01-28-10:04:42.730861,1.0,8.0,376.0
2022-01-28-10:04:42.731862,4.0,6.0,375.0
2022-01-28-10:04:42.732856,4.0,6.0,375.0
2022-01-28-10:04:42.733877,4.0,6.0,375.0
2022-01-28-10:04:42.734851,1.0,1.0,376.0
2022-01-28-10:04:42.735849,2.0,3.0,375.0
2022-01-28-10:04:42.736847,2.0,3.0,375.0
2022-01-28-10:04:42.737843,2.0,3.0,375.0
2022-01-28-10:04:42.738839,3.0,6.0,376.0
2022-01-28-10:04:42.739836,8.0,0.0,376.0
2022-01-28-10:04:42.740834,9.0,5.0,375.0
2022-01-28-10:04:42.741833,9.0,5.0,375.0
2022-01-28-10:04:42.742862,13.0,6.0,376.0
2022-01-28-10:04:42.743826,0.0,8.0,376.0
2022-01-28-10:04:42.744849,0.0,8.0,376.0
2022-01-28-10:04:42.745821,0.0,8.0,376.0
2022-01-28-10:04:42.746845,4.0,11.0,375.0
2022-01-28-10:04:42.748813,4.0,3.0,376.0
2022-01-28-10:04:42.748813,4.0,3.0,376.0
2022-01-28-10:04:42.749809,4.0,3.0,376.0
2022-01-28-10:04:42.750809,0.0,2.0,376.0
2022-01-28-10:04:42.751806,5.0,2.0,376.0
2022-01-28-10:04:42.752828,5.0,2.0,376.0
2022-01-28-10:04:42.753799,5.0,2.0,376.0
2022-01-28-10:04:42.754828,5.0,2.0,376.0
2022-01-28-10:04:42.755818,6.0,7.0,376.0
2022-01-28-10:04:42.756818,8.0,2.0,376.0
2022-01-28-10:04:42.757816,5.0,5.0,376.0
2022-01-28-10:04:42.758788,10.0,7.0,376.0
2022-01-28-10:04:42.759783,5.0,3.0,376.0
2022-01-28-10:04:42.760793,4.0,5.0,375.0
2022-01-28-10:04:42.761804,4.0,5.0,375.0
2022-01-28-10:04:42.762803,4.0,5.0,375.0
2022-01-28-10:04:42.763798,4.0,8.0,376.0
2022-01-28-10:04:42.764797,4.0,8.0,376.0
2022-01-28-10:04:42.765794,4.0,8.0,376.0
2022-01-28-10:04:42.766791,4.0,8.0,376.0
2022-01-28-10:04:42.767763,7.0,5.0,375.0
2022-01-28-10:04:42.768759,5.0,4.0,376.0
2022-01-28-10:04:42.769783,5.0,4.0,376.0
2022-01-28-10:04:42.770755,5.0,4.0,376.0
2022-01-28-10:04:42.771753,5.0,4.0,376.0
2022-01-28-10:04:42.772751,8.0,13.0,376.0
2022-01-28-10:04:42.773747,8.0,9.0,375.0
2022-01-28-10:04:42.774747,8.0,9.0,375.0
2022-01-28-10:04:42.775767,8.0,1.0,376.0
2022-01-28-10:04:42.776740,7.0,2.0,376.0
2022-01-28-10:04:42.777737,8.0,10.0,376.0
2022-01-28-10:04:42.778735,11.0,13.0,376.0
2022-01-28-10:04:42.779733,1.0,3.0,377.0
2022-01-28-10:04:42.780756,1.0,8.0,376.0
2022-01-28-10:04:42.781751,1.0,8.0,376.0
2022-01-28-10:04:42.782722,1.0,8.0,376.0
2022-01-28-10:04:42.784742,5.0,7.0,375.0
2022-01-28-10:04:42.784742,2.0,8.0,376.0
2022-01-28-10:04:42.785739,3.0,8.0,376.0
2022-01-28-10:04:42.786711,3.0,8.0,376.0
2022-01-28-10:04:42.787733,3.0,15.0,376.0
2022-01-28-10:04:42.788706,9.0,12.0,376.0
2022-01-28-10:04:42.789730,9.0,12.0,376.0
2022-01-28-10:04:42.790727,9.0,12.0,376.0
2022-01-28-10:04:42.791698,9.0,12.0,376.0
2022-01-28-10:04:42.792726,11.0,10.0,376.0
2022-01-28-10:04:42.793720,6.0,13.0,375.0
2022-01-28-10:04:42.794691,6.0,13.0,375.0
2022-01-28-10:04:42.795689,6.0,13.0,375.0
2022-01-28-10:04:42.796685,4.0,13.0,376.0
2022-01-28-10:04:42.797684,2.0,3.0,376.0
2022-01-28-10:04:42.798680,2.0,3.0,376.0
2022-01-28-10:04:42.799703,2.0,3.0,376.0
2022-01-28-10:04:42.800673,1.0,3.0,376.0
2022-01-28-10:04:42.801692,6.0,2.0,375.0
2022-01-28-10:04:42.802669,8.0,1.0,376.0
2022-01-28-10:04:42.803696,8.0,1.0,376.0
2022-01-28-10:04:42.804690,6.0,0.0,376.0
2022-01-28-10:04:42.805661,7.0,6.0,376.0
2022-01-28-10:04:42.806658,8.0,6.0,376.0
2022-01-28-10:04:42.807657,8.0,1.0,376.0
2022-01-28-10:04:42.808677,12.0,3.0,376.0
2022-01-28-10:04:42.809675,9.0,2.0,375.0
2022-01-28-10:04:42.810647,8.0,8.0,375.0
2022-01-28-10:04:42.811674,8.0,2.0,376.0
2022-01-28-10:04:42.812669,4.0,6.0,376.0
2022-01-28-10:04:42.813665,4.0,8.0,376.0
2022-01-28-10:04:42.814682,3.0,10.0,376.0
2022-01-28-10:04:42.816678,5.0,0.0,376.0
2022-01-28-10:04:42.816678,6.0,2.0,376.0
2022-01-28-10:04:42.817674,6.0,3.0,376.0
2022-01-28-10:04:42.818673,3.0,12.0,376.0
2022-01-28-10:04:42.819623,3.0,12.0,376.0
2022-01-28-10:04:42.820666,5.0,10.0,375.0
2022-01-28-10:04:42.821665,2.0,7.0,376.0
2022-01-28-10:04:42.822661,6.0,9.0,376.0
2022-01-28-10:04:42.823613,5.0,2.0,376.0
2022-01-28-10:04:42.824657,10.0,6.0,375.0
2022-01-28-10:04:42.825607,7.0,10.0,376.0
2022-01-28-10:04:42.826653,11.0,12.0,376.0
2022-01-28-10:04:42.827602,8.0,9.0,376.0
2022-01-28-10:04:42.828645,7.0,11.0,376.0
2022-01-28-10:04:42.829642,1.0,7.0,375.0
2022-01-28-10:04:42.830639,4.0,7.0,376.0
2022-01-28-10:04:42.831636,2.0,1.0,376.0
2022-01-28-10:04:42.832635,5.0,2.0,376.0
2022-01-28-10:04:42.833632,5.0,0.0,376.0
2022-01-28-10:04:42.834631,2.0,1.0,375.0
2022-01-28-10:04:42.835626,2.0,1.0,375.0
2022-01-28-10:04:42.836624,2.0,1.0,375.0
2022-01-28-10:04:42.837627,1.0,2.0,376.0
2022-01-28-10:04:42.838618,1.0,1.0,376.0
2022-01-28-10:04:42.839615,5.0,6.0,376.0
2022-01-28-10:04:42.840618,6.0,6.0,376.0
2022-01-28-10:04:42.841610,8.0,1.0,376.0
2022-01-28-10:04:42.842610,10.0,1.0,375.0
2022-01-28-10:04:42.843605,10.0,4.0,376.0
2022-01-28-10:04:42.844610,8.0,10.0,376.0
2022-01-28-10:04:42.845599,5.0,18.0,375.0
2022-01-28-10:04:42.846597,4.0,22.0,376.0
2022-01-28-10:04:42.847595,2.0,9.0,376.0
2022-01-28-10:04:42.848592,2.0,9.0,376.0
2022-01-28-10:04:42.850588,5.0,4.0,376.0
2022-01-28-10:04:42.850588,0.0,12.0,376.0
2022-01-28-10:04:42.851586,4.0,11.0,375.0
2022-01-28-10:04:42.852580,5.0,6.0,376.0
2022-01-28-10:04:42.853578,3.0,2.0,375.0
2022-01-28-10:04:42.854576,2.0,3.0,376.0
2022-01-28-10:04:42.855689,4.0,1.0,376.0
2022-01-28-10:04:42.855689,4.0,1.0,376.0
2022-01-28-10:04:42.856925,4.0,1.0,376.0
2022-01-28-10:04:42.856925,5.0,8.0,375.0
2022-01-28-10:04:42.857969,9.0,13.0,376.0
2022-01-28-10:04:42.858922,12.0,20.0,376.0
2022-01-28-10:04:42.859964,12.0,20.0,376.0
2022-01-28-10:04:42.860917,12.0,20.0,376.0
2022-01-28-10:04:42.861958,11.0,19.0,375.0
2022-01-28-10:04:42.862936,1.0,0.0,376.0
2022-01-28-10:04:42.863909,1.0,0.0,376.0
2022-01-28-10:04:42.864933,1.0,0.0,376.0
2022-01-28-10:04:42.865905,1.0,5.0,376.0
2022-01-28-10:04:42.866926,1.0,2.0,375.0
2022-01-28-10:04:42.867933,1.0,2.0,375.0
2022-01-28-10:04:42.868920,2.0,3.0,376.0
2022-01-28-10:04:42.869919,4.0,5.0,376.0
2022-01-28-10:04:42.870915,5.0,9.0,376.0
2022-01-28-10:04:42.871912,4.0,15.0,376.0
2022-01-28-10:04:42.872885,4.0,15.0,376.0
2022-01-28-10:04:42.873909,8.0,9.0,376.0
2022-01-28-10:04:42.874918,8.0,12.0,376.0
2022-01-28-10:04:42.875903,10.0,19.0,376.0
2022-01-28-10:04:42.876874,10.0,19.0,376.0
2022-01-28-10:04:42.877871,7.0,21.0,375.0
2022-01-28-10:04:42.878898,4.0,7.0,376.0
2022-01-28-10:04:42.879891,4.0,5.0,376.0
2022-01-28-10:04:42.880865,4.0,5.0,376.0
2022-01-28-10:04:42.881862,4.0,11.0,376.0
2022-01-28-10:04:42.882884,4.0,11.0,376.0
2022-01-28-10:04:42.884878,4.0,11.0,376.0
2022-01-28-10:04:42.884878,5.0,7.0,376.0
2022-01-28-10:04:42.885875,0.0,6.0,375.0
2022-01-28-10:04:42.886872,4.0,7.0,376.0
2022-01-28-10:04:42.887872,4.0,7.0,376.0
2022-01-28-10:04:42.888869,4.0,7.0,376.0
2022-01-28-10:04:42.889864,4.0,7.0,376.0
2022-01-28-10:04:42.890864,2.0,1.0,376.0
2022-01-28-10:04:42.891861,9.0,11.0,375.0
2022-01-28-10:04:42.892856,10.0,11.0,376.0
2022-01-28-10:04:42.893862,10.0,11.0,376.0
2022-01-28-10:04:42.894826,10.0,11.0,376.0
2022-01-28-10:04:42.895849,10.0,16.0,376.0
2022-01-28-10:04:42.896848,1.0,13.0,376.0
2022-01-28-10:04:42.897843,1.0,13.0,376.0
2022-01-28-10:04:42.898841,2.0,7.0,376.0
2022-01-28-10:04:42.899839,2.0,7.0,376.0
2022-01-28-10:04:42.900834,2.0,7.0,376.0
2022-01-28-10:04:42.901832,2.0,7.0,376.0
2022-01-28-10:04:42.902829,2.0,17.0,376.0
2022-01-28-10:04:42.903826,8.0,3.0,376.0
2022-01-28-10:04:42.904830,8.0,3.0,376.0
2022-01-28-10:04:42.905821,8.0,3.0,376.0
2022-01-28-10:04:42.906818,13.0,7.0,376.0
2022-01-28-10:04:42.907818,6.0,9.0,376.0
2022-01-28-10:04:42.908789,9.0,16.0,376.0
2022-01-28-10:04:42.909786,9.0,16.0,376.0
2022-01-28-10:04:42.910784,10.0,20.0,376.0
2022-01-28-10:04:42.911805,6.0,15.0,375.0
2022-01-28-10:04:42.912805,2.0,5.0,376.0
2022-01-28-10:04:42.913775,2.0,5.0,376.0
2022-01-28-10:04:42.914797,0.0,11.0,376.0
2022-01-28-10:04:42.915796,0.0,11.0,376.0
2022-01-28-10:04:42.917765,0.0,3.0,375.0
2022-01-28-10:04:42.917765,0.0,3.0,375.0
2022-01-28-10:04:42.918792,6.0,6.0,375.0
2022-01-28-10:04:42.919784,2.0,4.0,376.0
2022-01-28-10:04:42.920788,2.0,4.0,376.0
2022-01-28-10:04:42.921779,2.0,4.0,376.0
2022-01-28-10:04:42.922776,8.0,6.0,376.0
2022-01-28-10:04:42.923775,7.0,7.0,376.0
2022-01-28-10:04:42.924770,7.0,7.0,376.0
2022-01-28-10:04:42.925768,7.0,7.0,376.0
2022-01-28-10:04:42.926765,7.0,7.0,376.0
2022-01-28-10:04:42.927739,8.0,9.0,376.0
2022-01-28-10:04:42.928763,2.0,5.0,376.0
2022-01-28-10:04:42.929757,2.0,5.0,376.0
2022-01-28-10:04:42.930755,2.0,5.0,376.0
2022-01-28-10:04:42.931753,0.0,11.0,376.0
2022-01-28-10:04:42.932753,0.0,11.0,376.0
2022-01-28-10:04:42.933747,6.0,6.0,375.0
2022-01-28-10:04:42.934749,4.0,8.0,376.0
2022-01-28-10:04:42.935741,3.0,3.0,376.0
2022-01-28-10:04:42.936741,0.0,3.0,376.0
2022-01-28-10:04:42.937736,0.0,3.0,376.0
2022-01-28-10:04:42.938737,0.0,3.0,376.0
2022-01-28-10:04:42.939732,7.0,7.0,376.0
2022-01-28-10:04:42.940728,11.0,15.0,376.0
2022-01-28-10:04:42.941727,8.0,15.0,375.0
2022-01-28-10:04:42.942722,8.0,15.0,375.0
2022-01-28-10:04:42.943720,10.0,15.0,376.0
2022-01-28-10:04:42.944720,1.0,6.0,376.0
2022-01-28-10:04:42.945714,1.0,6.0,376.0
2022-01-28-10:04:42.946719,1.0,6.0,376.0
2022-01-28-10:04:42.947711,2.0,6.0,376.0
2022-01-28-10:04:42.948708,5.0,2.0,376.0
2022-01-28-10:04:42.950676,4.0,3.0,376.0
2022-01-28-10:04:42.950676,4.0,3.0,376.0
2022-01-28-10:04:42.951700,3.0,2.0,376.0
2022-01-28-10:04:42.952717,3.0,2.0,376.0
2022-01-28-10:04:42.953715,3.0,2.0,376.0
2022-01-28-10:04:42.954666,3.0,2.0,376.0
2022-01-28-10:04:42.955694,9.0,3.0,376.0
2022-01-28-10:04:42.956687,7.0,3.0,376.0
2022-01-28-10:04:42.957713,7.0,3.0,376.0
2022-01-28-10:04:42.958679,7.0,3.0,376.0
2022-01-28-10:04:42.959653,10.0,5.0,375.0
2022-01-28-10:04:42.960661,0.0,12.0,376.0
2022-01-28-10:04:42.961670,0.0,12.0,376.0
2022-01-28-10:04:42.962671,0.0,12.0,376.0
2022-01-28-10:04:42.963649,0.0,12.0,376.0
2022-01-28-10:04:42.964664,0.0,7.0,376.0
2022-01-28-10:04:42.965662,3.0,4.0,376.0
2022-01-28-10:04:42.966658,3.0,4.0,376.0
2022-01-28-10:04:42.967657,2.0,0.0,376.0
2022-01-28-10:04:42.968655,3.0,4.0,376.0
2022-01-28-10:04:42.969650,2.0,5.0,376.0
2022-01-28-10:04:42.970648,2.0,5.0,376.0
2022-01-28-10:04:42.971647,2.0,5.0,376.0
2022-01-28-10:04:42.972643,2.0,0.0,376.0
2022-01-28-10:04:42.973640,9.0,1.0,375.0
2022-01-28-10:04:42.974637,5.0,0.0,376.0
2022-01-28-10:04:42.975610,5.0,0.0,376.0
2022-01-28-10:04:42.976636,7.0,5.0,375.0
2022-01-28-10:04:42.977605,8.0,6.0,376.0
2022-01-28-10:04:42.978627,4.0,0.0,376.0
2022-01-28-10:04:42.979634,4.0,0.0,376.0
2022-01-28-10:04:42.980621,1.0,7.0,376.0
2022-01-28-10:04:42.981621,2.0,6.0,376.0
2022-01-28-10:04:42.982615,0.0,5.0,376.0
2022-01-28-10:04:42.983613,0.0,5.0,376.0
2022-01-28-10:04:42.985607,0.0,5.0,376.0
2022-01-28-10:04:42.985607,4.0,6.0,376.0
2022-01-28-10:04:42.986627,4.0,6.0,376.0
2022-01-28-10:04:42.987578,4.0,6.0,376.0
2022-01-28-10:04:42.988624,4.0,1.0,376.0
2022-01-28-10:04:42.989713,8.0,6.0,376.0
2022-01-28-10:04:42.989713,8.0,6.0,376.0
2022-01-28-10:04:42.990770,8.0,6.0,376.0
2022-01-28-10:04:42.991764,8.0,6.0,376.0
2022-01-28-10:04:42.992762,9.0,4.0,376.0
2022-01-28-10:04:42.993758,10.0,9.0,376.0
2022-01-28-10:04:42.994702,3.0,11.0,376.0
2022-01-28-10:04:42.995747,3.0,11.0,376.0
2022-01-28-10:04:42.996745,1.0,9.0,375.0
2022-01-28-10:04:42.997797,4.0,4.0,376.0
2022-01-28-10:04:42.998098,1.0,4.0,376.0
2022-01-28-10:04:42.998098,1.0,4.0,376.0
2022-01-28-10:04:42.999145,1.0,4.0,376.0
2022-01-28-10:04:43.000143,1.0,4.0,376.0
2022-01-28-10:04:43.001094,5.0,3.0,376.0
2022-01-28-10:04:43.002141,5.0,1.0,376.0
2022-01-28-10:04:43.003090,5.0,1.0,376.0
2022-01-28-10:04:43.004281,5.0,1.0,376.0
2022-01-28-10:04:43.004281,2.0,7.0,376.0
2022-01-28-10:04:43.005328,9.0,6.0,376.0
2022-01-28-10:04:43.006325,12.0,3.0,376.0
2022-01-28-10:04:43.007322,12.0,3.0,376.0
2022-01-28-10:04:43.008320,12.0,3.0,376.0
2022-01-28-10:04:43.009317,9.0,5.0,376.0
2022-01-28-10:04:43.010318,6.0,11.0,376.0
2022-01-28-10:04:43.011293,3.0,8.0,376.0
2022-01-28-10:04:43.012288,3.0,8.0,376.0
2022-01-28-10:04:43.013260,0.0,10.0,376.0
2022-01-28-10:04:43.014283,4.0,7.0,376.0
2022-01-28-10:04:43.015278,4.0,4.0,376.0
2022-01-28-10:04:43.016252,4.0,4.0,376.0
2022-01-28-10:04:43.017274,0.0,2.0,376.0
2022-01-28-10:04:43.019271,0.0,2.0,376.0
2022-01-28-10:04:43.019271,3.0,1.0,376.0
2022-01-28-10:04:43.020241,3.0,1.0,376.0
2022-01-28-10:04:43.021265,4.0,1.0,375.0
2022-01-28-10:04:43.022261,5.0,2.0,376.0
2022-01-28-10:04:43.023259,9.0,0.0,376.0
2022-01-28-10:04:43.024239,9.0,0.0,376.0
2022-01-28-10:04:43.025253,8.0,7.0,376.0
2022-01-28-10:04:43.026249,6.0,14.0,376.0
2022-01-28-10:04:43.027271,6.0,14.0,376.0
2022-01-28-10:04:43.028251,6.0,14.0,376.0
2022-01-28-10:04:43.029244,6.0,14.0,376.0
2022-01-28-10:04:43.030245,1.0,10.0,376.0
2022-01-28-10:04:43.031237,1.0,8.0,375.0
2022-01-28-10:04:43.032236,1.0,8.0,375.0
2022-01-28-10:04:43.033233,1.0,8.0,375.0
2022-01-28-10:04:43.034204,1.0,3.0,375.0
2022-01-28-10:04:43.035228,7.0,6.0,376.0
2022-01-28-10:04:43.036245,7.0,6.0,376.0
2022-01-28-10:04:43.037243,7.0,6.0,376.0
2022-01-28-10:04:43.038222,7.0,18.0,375.0
2022-01-28-10:04:43.039237,11.0,7.0,375.0
2022-01-28-10:04:43.040234,11.0,7.0,375.0
2022-01-28-10:04:43.041231,11.0,7.0,375.0
2022-01-28-10:04:43.042183,6.0,1.0,376.0
2022-01-28-10:04:43.043229,9.0,7.0,376.0
2022-01-28-10:04:43.044177,10.0,6.0,375.0
2022-01-28-10:04:43.045221,10.0,6.0,375.0
2022-01-28-10:04:43.046218,5.0,10.0,375.0
2022-01-28-10:04:43.047216,0.0,9.0,376.0
2022-01-28-10:04:43.048213,0.0,9.0,376.0
2022-01-28-10:04:43.049215,0.0,9.0,376.0
2022-01-28-10:04:43.050186,4.0,12.0,376.0
2022-01-28-10:04:43.051186,6.0,2.0,376.0
2022-01-28-10:04:43.052180,6.0,2.0,376.0
2022-01-28-10:04:43.054197,6.0,2.0,376.0
2022-01-28-10:04:43.054197,11.0,1.0,376.0
2022-01-28-10:04:43.055173,11.0,1.0,376.0
2022-01-28-10:04:43.056191,11.0,1.0,376.0
2022-01-28-10:04:43.057142,11.0,1.0,376.0
2022-01-28-10:04:43.058186,8.0,2.0,376.0
2022-01-28-10:04:43.059188,8.0,15.0,376.0
2022-01-28-10:04:43.060182,4.0,18.0,376.0
2022-01-28-10:04:43.061132,4.0,18.0,376.0
2022-01-28-10:04:43.062175,3.0,16.0,376.0
2022-01-28-10:04:43.063173,1.0,6.0,376.0
2022-01-28-10:04:43.064170,1.0,1.0,376.0
2022-01-28-10:04:43.065167,1.0,1.0,376.0
2022-01-28-10:04:43.066241,13.0,3.0,376.0
2022-01-28-10:04:43.066241,13.0,3.0,376.0
2022-01-28-10:04:43.067275,13.0,3.0,376.0
2022-01-28-10:04:43.068271,13.0,3.0,376.0
2022-01-28-10:04:43.069645,13.0,3.0,376.0
2022-01-28-10:04:43.069645,7.0,12.0,376.0
2022-01-28-10:04:43.070672,3.0,6.0,376.0
2022-01-28-10:04:43.071667,7.0,9.0,376.0
2022-01-28-10:04:43.072663,7.0,9.0,376.0
2022-01-28-10:04:43.073637,7.0,9.0,376.0
2022-01-28-10:04:43.074659,9.0,15.0,376.0
2022-01-28-10:04:43.075657,11.0,14.0,376.0
2022-01-28-10:04:43.076653,8.0,15.0,376.0
2022-01-28-10:04:43.077626,8.0,15.0,376.0
2022-01-28-10:04:43.078650,3.0,19.0,375.0
2022-01-28-10:04:43.079646,0.0,11.0,375.0
2022-01-28-10:04:43.080643,0.0,11.0,375.0
2022-01-28-10:04:43.081616,0.0,11.0,375.0
2022-01-28-10:04:43.082637,2.0,7.0,376.0
2022-01-28-10:04:43.083739,1.0,3.0,375.0
2022-01-28-10:04:43.083739,3.0,2.0,376.0
2022-01-28-10:04:43.084778,3.0,2.0,376.0
2022-01-28-10:04:43.085949,3.0,2.0,376.0
2022-01-28-10:04:43.086975,4.0,11.0,376.0
2022-01-28-10:04:43.086975,6.0,15.0,376.0
2022-01-28-10:04:43.087971,6.0,15.0,376.0
2022-01-28-10:04:43.088968,6.0,15.0,376.0
2022-01-28-10:04:43.089941,6.0,15.0,376.0
2022-01-28-10:04:43.090963,6.0,0.0,375.0
2022-01-28-10:04:43.091962,10.0,8.0,375.0
2022-01-28-10:04:43.092933,11.0,9.0,376.0
2022-01-28-10:04:43.093931,11.0,9.0,376.0
2022-01-28-10:04:43.094929,3.0,10.0,376.0
2022-01-28-10:04:43.095973,3.0,4.0,376.0
2022-01-28-10:04:43.096969,3.0,4.0,376.0
2022-01-28-10:04:43.098142,3.0,4.0,376.0
2022-01-28-10:04:43.098142,4.0,10.0,376.0
2022-01-28-10:04:43.099188,3.0,4.0,376.0
2022-01-28-10:04:43.100189,4.0,3.0,375.0
2022-01-28-10:04:43.101183,4.0,3.0,375.0
2022-01-28-10:04:43.102134,4.0,3.0,375.0
2022-01-28-10:04:43.103178,4.0,5.0,376.0
2022-01-28-10:04:43.104174,4.0,5.0,376.0
2022-01-28-10:04:43.105173,8.0,6.0,376.0
2022-01-28-10:04:43.106205,8.0,6.0,376.0
2022-01-28-10:04:43.106455,7.0,9.0,376.0
2022-01-28-10:04:43.106455,11.0,7.0,376.0
2022-01-28-10:04:43.107505,12.0,14.0,376.0
2022-01-28-10:04:43.108498,12.0,14.0,376.0
2022-01-28-10:04:43.109498,12.0,14.0,376.0
2022-01-28-10:04:43.110446,12.0,14.0,376.0
2022-01-28-10:04:43.111496,12.0,18.0,376.0
2022-01-28-10:04:43.112490,3.0,7.0,376.0
2022-01-28-10:04:43.113486,0.0,1.0,376.0
2022-01-28-10:04:43.114436,0.0,1.0,376.0
2022-01-28-10:04:43.115479,3.0,6.0,375.0
2022-01-28-10:04:43.116477,2.0,5.0,376.0
2022-01-28-10:04:43.117476,2.0,7.0,376.0
2022-01-28-10:04:43.118472,2.0,7.0,376.0
2022-01-28-10:04:43.119474,1.0,7.0,376.0
2022-01-28-10:04:43.120468,3.0,0.0,376.0
2022-01-28-10:04:43.121464,7.0,7.0,376.0
2022-01-28-10:04:43.123455,7.0,7.0,376.0
2022-01-28-10:04:43.123455,11.0,5.0,376.0
2022-01-28-10:04:43.124456,11.0,7.0,376.0
2022-01-28-10:04:43.125456,11.0,7.0,376.0
2022-01-28-10:04:43.126404,11.0,7.0,376.0
2022-01-28-10:04:43.127424,11.0,7.0,376.0
2022-01-28-10:04:43.128400,4.0,4.0,376.0
2022-01-28-10:04:43.129420,2.0,0.0,376.0
2022-01-28-10:04:43.130417,2.0,0.0,376.0
2022-01-28-10:04:43.131415,2.0,0.0,376.0
2022-01-28-10:04:43.132414,1.0,3.0,376.0
2022-01-28-10:04:43.133411,4.0,2.0,376.0
2022-01-28-10:04:43.134408,4.0,7.0,376.0
2022-01-28-10:04:43.135405,4.0,7.0,376.0
2022-01-28-10:04:43.136403,5.0,16.0,376.0
2022-01-28-10:04:43.137399,2.0,9.0,376.0
2022-01-28-10:04:43.138398,0.0,1.0,376.0
2022-01-28-10:04:43.139395,0.0,1.0,376.0
2022-01-28-10:04:43.140413,5.0,5.0,376.0
2022-01-28-10:04:43.141413,10.0,1.0,375.0
2022-01-28-10:04:43.142407,10.0,1.0,375.0
2022-01-28-10:04:43.143406,10.0,1.0,375.0
2022-01-28-10:04:43.144381,8.0,10.0,376.0
2022-01-28-10:04:43.145483,2.0,8.0,376.0
2022-01-28-10:04:43.145483,2.0,8.0,376.0
2022-01-28-10:04:43.146540,2.0,8.0,376.0
2022-01-28-10:04:43.147729,2.0,8.0,376.0
2022-01-28-10:04:43.147729,0.0,8.0,375.0
2022-01-28-10:04:43.148775,1.0,10.0,375.0
2022-01-28-10:04:43.149775,1.0,3.0,376.0
2022-01-28-10:04:43.150770,1.0,3.0,376.0
2022-01-28-10:04:43.151768,1.0,3.0,376.0
2022-01-28-10:04:43.152770,0.0,5.0,376.0
2022-01-28-10:04:43.153767,3.0,3.0,376.0
2022-01-28-10:04:43.154760,3.0,3.0,376.0
2022-01-28-10:04:43.156754,3.0,3.0,376.0
2022-01-28-10:04:43.156754,10.0,2.0,375.0
2022-01-28-10:04:43.157754,11.0,2.0,376.0
2022-01-28-10:04:43.158749,11.0,2.0,376.0
2022-01-28-10:04:43.159748,11.0,2.0,376.0
2022-01-28-10:04:43.160746,10.0,6.0,376.0
2022-01-28-10:04:43.161695,2.0,17.0,376.0
2022-01-28-10:04:43.162738,1.0,15.0,375.0
2022-01-28-10:04:43.163689,1.0,15.0,375.0
2022-01-28-10:04:43.164733,3.0,10.0,376.0
2022-01-28-10:04:43.165847,1.0,3.0,376.0
2022-01-28-10:04:43.165847,1.0,3.0,376.0
2022-01-28-10:04:43.166901,1.0,3.0,376.0
2022-01-28-10:04:43.167898,1.0,3.0,376.0
2022-01-28-10:04:43.168946,2.0,3.0,376.0
2022-01-28-10:04:43.169275,3.0,12.0,376.0
2022-01-28-10:04:43.169275,3.0,12.0,376.0
2022-01-28-10:04:43.170320,3.0,12.0,376.0
2022-01-28-10:04:43.171322,3.0,12.0,376.0
2022-01-28-10:04:43.172270,3.0,12.0,376.0
2022-01-28-10:04:43.173267,10.0,0.0,376.0
2022-01-28-10:04:43.174313,10.0,0.0,376.0
2022-01-28-10:04:43.175288,7.0,7.0,376.0
2022-01-28-10:04:43.176285,10.0,11.0,376.0
2022-01-28-10:04:43.177255,8.0,9.0,376.0
2022-01-28-10:04:43.178255,2.0,5.0,376.0
2022-01-28-10:04:43.179277,2.0,5.0,376.0
2022-01-28-10:04:43.180430,2.0,5.0,376.0
2022-01-28-10:04:43.180430,1.0,22.0,376.0
2022-01-28-10:04:43.181457,2.0,19.0,375.0
2022-01-28-10:04:43.182453,2.0,17.0,376.0
2022-01-28-10:04:43.183454,2.0,17.0,376.0
2022-01-28-10:04:43.184448,2.0,17.0,376.0
2022-01-28-10:04:43.185446,1.0,8.0,376.0
2022-01-28-10:04:43.186444,3.0,8.0,376.0
2022-01-28-10:04:43.187440,3.0,8.0,376.0
2022-01-28-10:04:43.188438,3.0,8.0,376.0
2022-01-28-10:04:43.190456,9.0,4.0,376.0
2022-01-28-10:04:43.190456,10.0,3.0,376.0
2022-01-28-10:04:43.191435,10.0,3.0,376.0
2022-01-28-10:04:43.192401,10.0,3.0,376.0
2022-01-28-10:04:43.193445,9.0,2.0,376.0
2022-01-28-10:04:43.194404,7.0,7.0,375.0
2022-01-28-10:04:43.195442,4.0,7.0,376.0
2022-01-28-10:04:43.196390,4.0,7.0,376.0
2022-01-28-10:04:43.197434,1.0,11.0,376.0
2022-01-28-10:04:43.198434,5.0,1.0,376.0
2022-01-28-10:04:43.199431,1.0,7.0,376.0
2022-01-28-10:04:43.200412,1.0,7.0,376.0
2022-01-28-10:04:43.201424,6.0,10.0,376.0
2022-01-28-10:04:43.202421,3.0,1.0,376.0
2022-01-28-10:04:43.203421,1.0,1.0,376.0
2022-01-28-10:04:43.204415,1.0,1.0,376.0
2022-01-28-10:04:43.205413,3.0,2.0,376.0
2022-01-28-10:04:43.206390,7.0,1.0,375.0
2022-01-28-10:04:43.207390,9.0,0.0,376.0
2022-01-28-10:04:43.208408,13.0,3.0,376.0
2022-01-28-10:04:43.209403,13.0,3.0,376.0
2022-01-28-10:04:43.210399,10.0,18.0,376.0
2022-01-28-10:04:43.211378,6.0,21.0,375.0
2022-01-28-10:04:43.212402,6.0,21.0,375.0
2022-01-28-10:04:43.213391,6.0,21.0,375.0
2022-01-28-10:04:43.214390,1.0,16.0,376.0
2022-01-28-10:04:43.215389,2.0,8.0,375.0
2022-01-28-10:04:43.216384,1.0,1.0,376.0
2022-01-28-10:04:43.217380,1.0,1.0,376.0
2022-01-28-10:04:43.218378,3.0,1.0,376.0
2022-01-28-10:04:43.219376,0.0,5.0,376.0
2022-01-28-10:04:43.220373,4.0,1.0,376.0
2022-01-28-10:04:43.221370,4.0,1.0,376.0
2022-01-28-10:04:43.222368,7.0,2.0,376.0
2022-01-28-10:04:43.224341,9.0,1.0,376.0
2022-01-28-10:04:43.224341,11.0,0.0,376.0
2022-01-28-10:04:43.225340,11.0,0.0,376.0
2022-01-28-10:04:43.226310,5.0,13.0,376.0
2022-01-28-10:04:43.227334,3.0,10.0,376.0
2022-01-28-10:04:43.228333,3.0,10.0,376.0
2022-01-28-10:04:43.229302,3.0,10.0,376.0
2022-01-28-10:04:43.230326,2.0,9.0,376.0
2022-01-28-10:04:43.231325,3.0,8.0,376.0
2022-01-28-10:04:43.232320,3.0,8.0,376.0
2022-01-28-10:04:43.233291,3.0,8.0,376.0
2022-01-28-10:04:43.234314,4.0,7.0,376.0
2022-01-28-10:04:43.235314,3.0,6.0,376.0
2022-01-28-10:04:43.236311,4.0,0.0,376.0
2022-01-28-10:04:43.237284,4.0,0.0,376.0
2022-01-28-10:04:43.238309,1.0,2.0,375.0
2022-01-28-10:04:43.239304,9.0,5.0,376.0
2022-01-28-10:04:43.240299,9.0,2.0,376.0
2022-01-28-10:04:43.241296,9.0,2.0,376.0
2022-01-28-10:04:43.242268,9.0,1.0,375.0
2022-01-28-10:04:43.243291,9.0,11.0,376.0
2022-01-28-10:04:43.244280,5.0,10.0,376.0
2022-01-28-10:04:43.245290,5.0,10.0,376.0
2022-01-28-10:04:43.246283,5.0,10.0,376.0
2022-01-28-10:04:43.247284,3.0,8.0,375.0
2022-01-28-10:04:43.248278,0.0,6.0,375.0
2022-01-28-10:04:43.249275,0.0,6.0,375.0
2022-01-28-10:04:43.250272,0.0,6.0,375.0
2022-01-28-10:04:43.251269,7.0,3.0,376.0
2022-01-28-10:04:43.252268,5.0,4.0,376.0
2022-01-28-10:04:43.253377,4.0,1.0,376.0
2022-01-28-10:04:43.253377,4.0,1.0,376.0
2022-01-28-10:04:43.254593,4.0,1.0,376.0
2022-01-28-10:04:43.254593,0.0,8.0,376.0
2022-01-28-10:04:43.255618,6.0,7.0,376.0
2022-01-28-10:04:43.256616,10.0,1.0,375.0
2022-01-28-10:04:43.258631,10.0,1.0,375.0
2022-01-28-10:04:43.259248,11.0,9.0,376.0
2022-01-28-10:04:43.259248,7.0,16.0,376.0
2022-01-28-10:04:43.260302,7.0,16.0,376.0
2022-01-28-10:04:43.261301,7.0,16.0,376.0
2022-01-28-10:04:43.262508,7.0,16.0,376.0
2022-01-28-10:04:43.262508,5.0,8.0,376.0
2022-01-28-10:04:43.263554,0.0,4.0,376.0
2022-01-28-10:04:43.264557,1.0,5.0,376.0
2022-01-28-10:04:43.265548,1.0,5.0,376.0
2022-01-28-10:04:43.266546,1.0,5.0,376.0
2022-01-28-10:04:43.267543,2.0,7.0,376.0
2022-01-28-10:04:43.268521,5.0,8.0,375.0
2022-01-28-10:04:43.269516,4.0,7.0,376.0
2022-01-28-10:04:43.270513,4.0,7.0,376.0
2022-01-28-10:04:43.271511,6.0,1.0,376.0
2022-01-28-10:04:43.272508,3.0,7.0,375.0
2022-01-28-10:04:43.273508,6.0,16.0,376.0
2022-01-28-10:04:43.274504,9.0,18.0,375.0
2022-01-28-10:04:43.275476,11.0,6.0,376.0
2022-01-28-10:04:43.276499,7.0,5.0,376.0
2022-01-28-10:04:43.277495,8.0,8.0,375.0
2022-01-28-10:04:43.278468,8.0,8.0,375.0
2022-01-28-10:04:43.279490,2.0,8.0,376.0
2022-01-28-10:04:43.280488,4.0,16.0,376.0
2022-01-28-10:04:43.281490,2.0,13.0,376.0
2022-01-28-10:04:43.282457,2.0,13.0,376.0
2022-01-28-10:04:43.283479,2.0,13.0,376.0
2022-01-28-10:04:43.284478,0.0,8.0,375.0
2022-01-28-10:04:43.285474,4.0,13.0,375.0
2022-01-28-10:04:43.286446,2.0,17.0,375.0
2022-01-28-10:04:43.287469,2.0,7.0,376.0
2022-01-28-10:04:43.288467,4.0,2.0,376.0
2022-01-28-10:04:43.289466,6.0,2.0,376.0
2022-01-28-10:04:43.290463,6.0,2.0,376.0
2022-01-28-10:04:43.292477,15.0,9.0,376.0
2022-01-28-10:04:43.292477,5.0,22.0,376.0
2022-01-28-10:04:43.293476,5.0,22.0,376.0
2022-01-28-10:04:43.294450,5.0,22.0,376.0
2022-01-28-10:04:43.295469,5.0,22.0,376.0
2022-01-28-10:04:43.296468,1.0,6.0,376.0
2022-01-28-10:04:43.297464,1.0,1.0,376.0
2022-01-28-10:04:43.298460,1.0,1.0,376.0
2022-01-28-10:04:43.299411,1.0,1.0,376.0
2022-01-28-10:04:43.300435,1.0,2.0,376.0
2022-01-28-10:04:43.301430,3.0,5.0,376.0
2022-01-28-10:04:43.302428,6.0,12.0,375.0
2022-01-28-10:04:43.303426,6.0,12.0,375.0
2022-01-28-10:04:43.304422,6.0,10.0,376.0
2022-01-28-10:04:43.305423,6.0,9.0,376.0
2022-01-28-10:04:43.306417,6.0,11.0,376.0
2022-01-28-10:04:43.307414,6.0,11.0,376.0
2022-01-28-10:04:43.308414,8.0,5.0,375.0
2022-01-28-10:04:43.309410,10.0,3.0,376.0
2022-01-28-10:04:43.310406,10.0,3.0,376.0
2022-01-28-10:04:43.311379,10.0,3.0,376.0
2022-01-28-10:04:43.312401,7.0,9.0,376.0
2022-01-28-10:04:43.313402,0.0,4.0,376.0
2022-01-28-10:04:43.314372,0.0,4.0,376.0
2022-01-28-10:04:43.315415,0.0,4.0,376.0
2022-01-28-10:04:43.316413,1.0,2.0,376.0
2022-01-28-10:04:43.317412,3.0,3.0,376.0
2022-01-28-10:04:43.318407,6.0,5.0,376.0
2022-01-28-10:04:43.319358,6.0,5.0,376.0
2022-01-28-10:04:43.320404,4.0,5.0,375.0
2022-01-28-10:04:43.321399,3.0,7.0,376.0
2022-01-28-10:04:43.322396,3.0,7.0,376.0
2022-01-28-10:04:43.323348,3.0,7.0,376.0
2022-01-28-10:04:43.324391,8.0,4.0,376.0
2022-01-28-10:04:43.326386,13.0,10.0,376.0
2022-01-28-10:04:43.326386,13.0,10.0,376.0
2022-01-28-10:04:43.327383,13.0,10.0,376.0
2022-01-28-10:04:43.328358,5.0,10.0,375.0
2022-01-28-10:04:43.329490,4.0,11.0,376.0
2022-01-28-10:04:43.329490,2.0,12.0,376.0
2022-01-28-10:04:43.330545,2.0,12.0,376.0
2022-01-28-10:04:43.331698,2.0,12.0,376.0
2022-01-28-10:04:43.331698,2.0,8.0,375.0
2022-01-28-10:04:43.332744,1.0,5.0,376.0
2022-01-28-10:04:43.333741,1.0,4.0,376.0
2022-01-28-10:04:43.334739,1.0,4.0,376.0
2022-01-28-10:04:43.335690,1.0,4.0,376.0
2022-01-28-10:04:43.336734,3.0,2.0,376.0
2022-01-28-10:04:43.337731,5.0,7.0,376.0
2022-01-28-10:04:43.338728,9.0,6.0,376.0
2022-01-28-10:04:43.339684,9.0,6.0,376.0
2022-01-28-10:04:43.340723,11.0,0.0,376.0
2022-01-28-10:04:43.341724,9.0,8.0,376.0
2022-01-28-10:04:43.342718,9.0,8.0,376.0
2022-01-28-10:04:43.343715,9.0,8.0,376.0
2022-01-28-10:04:43.344667,0.0,8.0,376.0
2022-01-28-10:04:43.345687,0.0,8.0,376.0
2022-01-28-10:04:43.346688,0.0,8.0,376.0
2022-01-28-10:04:43.347681,0.0,8.0,376.0
2022-01-28-10:04:43.348679,0.0,8.0,376.0
2022-01-28-10:04:43.349790,1.0,4.0,376.0
2022-01-28-10:04:43.349790,2.0,6.0,376.0
2022-01-28-10:04:43.350844,2.0,6.0,376.0
2022-01-28-10:04:43.351844,2.0,6.0,376.0
2022-01-28-10:04:43.352882,2.0,6.0,376.0
2022-01-28-10:04:43.352882,1.0,4.0,376.0
2022-01-28-10:04:43.354027,1.0,4.0,376.0
2022-01-28-10:04:43.354027,4.0,3.0,376.0
2022-01-28-10:04:43.355082,4.0,3.0,376.0
2022-01-28-10:04:43.356084,4.0,3.0,376.0
2022-01-28-10:04:43.357076,7.0,3.0,376.0
2022-01-28-10:04:43.358075,7.0,3.0,376.0
2022-01-28-10:04:43.360068,9.0,3.0,376.0
2022-01-28-10:04:43.360068,7.0,4.0,376.0
2022-01-28-10:04:43.361012,3.0,8.0,376.0
2022-01-28-10:04:43.362121,1.0,9.0,376.0
2022-01-28-10:04:43.362121,1.0,9.0,376.0
2022-01-28-10:04:43.363176,1.0,9.0,376.0
2022-01-28-10:04:43.364176,1.0,9.0,376.0
2022-01-28-10:04:43.365170,1.0,9.0,376.0
2022-01-28-10:04:43.366167,6.0,10.0,376.0
2022-01-28-10:04:43.367288,6.0,9.0,376.0
2022-01-28-10:04:43.367288,6.0,9.0,376.0
2022-01-28-10:04:43.368536,6.0,9.0,376.0
2022-01-28-10:04:43.368536,3.0,2.0,375.0
2022-01-28-10:04:43.369571,3.0,2.0,375.0
2022-01-28-10:04:43.370564,0.0,2.0,376.0
2022-01-28-10:04:43.371564,0.0,2.0,376.0
2022-01-28-10:04:43.372528,0.0,2.0,376.0
2022-01-28-10:04:43.373556,3.0,1.0,375.0
2022-01-28-10:04:43.374556,3.0,1.0,375.0
2022-01-28-10:04:43.375519,8.0,3.0,376.0
2022-01-28-10:04:43.376521,9.0,3.0,376.0
2022-01-28-10:04:43.377550,4.0,0.0,376.0
2022-01-28-10:04:43.378512,2.0,1.0,376.0
2022-01-28-10:04:43.379543,2.0,1.0,376.0
2022-01-28-10:04:43.380540,2.0,1.0,376.0
2022-01-28-10:04:43.381504,2.0,1.0,376.0
2022-01-28-10:04:43.382527,1.0,1.0,375.0
2022-01-28-10:04:43.383522,4.0,9.0,376.0
2022-01-28-10:04:43.384519,2.0,5.0,376.0
2022-01-28-10:04:43.385520,2.0,5.0,376.0
2022-01-28-10:04:43.386514,2.0,6.0,376.0
2022-01-28-10:04:43.387513,6.0,1.0,376.0
2022-01-28-10:04:43.388509,6.0,1.0,376.0
2022-01-28-10:04:43.389507,6.0,1.0,376.0
2022-01-28-10:04:43.390505,9.0,0.0,375.0
2022-01-28-10:04:43.391501,9.0,0.0,375.0
2022-01-28-10:04:43.393499,8.0,3.0,376.0
2022-01-28-10:04:43.393499,3.0,11.0,376.0
2022-01-28-10:04:43.394565,3.0,11.0,376.0
2022-01-28-10:04:43.394565,2.0,7.0,376.0
2022-01-28-10:04:43.395620,2.0,7.0,376.0
2022-01-28-10:04:43.396617,2.0,7.0,376.0
2022-01-28-10:04:43.397799,2.0,7.0,376.0
2022-01-28-10:04:43.397799,4.0,10.0,376.0
2022-01-28-10:04:43.398826,4.0,10.0,376.0
2022-01-28-10:04:43.399820,5.0,5.0,376.0
2022-01-28-10:04:43.400817,5.0,5.0,376.0
2022-01-28-10:04:43.401814,5.0,5.0,376.0
2022-01-28-10:04:43.402813,1.0,0.0,376.0
2022-01-28-10:04:43.403812,4.0,1.0,376.0
2022-01-28-10:04:43.404806,4.0,1.0,376.0
2022-01-28-10:04:43.405804,4.0,1.0,376.0
2022-01-28-10:04:43.406804,9.0,2.0,376.0
2022-01-28-10:04:43.407880,9.0,5.0,376.0
2022-01-28-10:04:43.407880,9.0,5.0,376.0
2022-01-28-10:04:43.408880,9.0,5.0,376.0
2022-01-28-10:04:43.409877,9.0,5.0,376.0
2022-01-28-10:04:43.410920,5.0,7.0,376.0
2022-01-28-10:04:43.411872,5.0,9.0,376.0
2022-01-28-10:04:43.412894,5.0,9.0,376.0
2022-01-28-10:04:43.413896,5.0,9.0,376.0
2022-01-28-10:04:43.414889,0.0,8.0,376.0
2022-01-28-10:04:43.415929,1.0,3.0,376.0
2022-01-28-10:04:43.416200,2.0,6.0,375.0
2022-01-28-10:04:43.416200,2.0,6.0,375.0
2022-01-28-10:04:43.417225,2.0,6.0,375.0
2022-01-28-10:04:43.418375,2.0,6.0,375.0
2022-01-28-10:04:43.418375,4.0,6.0,375.0
2022-01-28-10:04:43.419399,5.0,0.0,376.0
2022-01-28-10:04:43.420397,6.0,3.0,376.0
2022-01-28-10:04:43.421396,6.0,3.0,376.0
2022-01-28-10:04:43.422391,6.0,3.0,376.0
2022-01-28-10:04:43.423389,9.0,2.0,376.0
2022-01-28-10:04:43.424385,9.0,5.0,375.0
2022-01-28-10:04:43.425382,9.0,5.0,375.0
2022-01-28-10:04:43.427378,9.0,5.0,375.0
2022-01-28-10:04:43.427378,2.0,11.0,376.0
2022-01-28-10:04:43.428375,2.0,11.0,376.0
2022-01-28-10:04:43.429375,2.0,11.0,376.0
2022-01-28-10:04:43.430369,2.0,11.0,376.0
2022-01-28-10:04:43.431367,1.0,12.0,376.0
2022-01-28-10:04:43.432363,3.0,6.0,375.0
2022-01-28-10:04:43.433361,1.0,6.0,376.0
2022-01-28-10:04:43.434361,1.0,6.0,376.0
2022-01-28-10:04:43.435356,1.0,3.0,376.0
2022-01-28-10:04:43.436357,2.0,2.0,376.0
2022-01-28-10:04:43.437353,2.0,8.0,376.0
2022-01-28-10:04:43.438324,2.0,8.0,376.0
2022-01-28-10:04:43.439345,5.0,8.0,376.0
2022-01-28-10:04:43.440342,11.0,3.0,376.0
2022-01-28-10:04:43.441341,8.0,12.0,376.0
2022-01-28-10:04:43.442313,8.0,12.0,376.0
2022-01-28-10:04:43.443335,14.0,4.0,376.0
2022-01-28-10:04:43.444326,8.0,0.0,376.0
2022-01-28-10:04:43.445306,4.0,2.0,376.0
2022-01-28-10:04:43.446303,4.0,2.0,376.0
2022-01-28-10:04:43.447328,2.0,7.0,376.0
2022-01-28-10:04:43.448326,0.0,19.0,376.0
2022-01-28-10:04:43.449319,0.0,19.0,376.0
2022-01-28-10:04:43.450473,0.0,19.0,376.0
2022-01-28-10:04:43.450473,2.0,21.0,376.0
2022-01-28-10:04:43.451496,2.0,21.0,376.0
2022-01-28-10:04:43.452497,1.0,10.0,376.0
2022-01-28-10:04:43.453514,1.0,10.0,376.0
2022-01-28-10:04:43.454465,1.0,10.0,376.0
2022-01-28-10:04:43.455508,5.0,6.0,376.0
2022-01-28-10:04:43.456505,6.0,4.0,376.0
2022-01-28-10:04:43.457504,8.0,5.0,376.0
2022-01-28-10:04:43.458460,8.0,5.0,376.0
2022-01-28-10:04:43.460495,3.0,17.0,376.0
2022-01-28-10:04:43.460495,3.0,17.0,376.0
2022-01-28-10:04:43.461471,3.0,17.0,376.0
2022-01-28-10:04:43.462489,3.0,17.0,376.0
2022-01-28-10:04:43.463487,3.0,20.0,376.0
2022-01-28-10:04:43.464489,0.0,4.0,376.0
2022-01-28-10:04:43.465481,1.0,0.0,376.0
2022-01-28-10:04:43.466481,1.0,0.0,376.0
2022-01-28-10:04:43.467476,1.0,0.0,376.0
2022-01-28-10:04:43.468473,4.0,10.0,376.0
2022-01-28-10:04:43.469471,1.0,9.0,376.0
2022-01-28-10:04:43.470469,1.0,9.0,376.0
2022-01-28-10:04:43.471466,1.0,9.0,376.0
2022-01-28-10:04:43.472463,0.0,11.0,376.0
2022-01-28-10:04:43.473460,12.0,9.0,376.0
2022-01-28-10:04:43.474460,12.0,4.0,376.0
2022-01-28-10:04:43.475442,12.0,4.0,376.0
2022-01-28-10:04:43.476411,8.0,23.0,376.0
2022-01-28-10:04:43.477450,7.0,13.0,376.0
2022-01-28-10:04:43.478449,7.0,13.0,376.0
2022-01-28-10:04:43.479445,7.0,13.0,376.0
2022-01-28-10:04:43.480446,3.0,4.0,376.0
2022-01-28-10:04:43.481440,0.0,3.0,376.0
2022-01-28-10:04:43.482439,0.0,0.0,375.0
2022-01-28-10:04:43.483434,0.0,0.0,375.0
2022-01-28-10:04:43.484431,4.0,2.0,376.0
2022-01-28-10:04:43.485383,3.0,0.0,376.0
2022-01-28-10:04:43.486426,3.0,0.0,376.0
2022-01-28-10:04:43.487376,3.0,0.0,376.0
2022-01-28-10:04:43.488420,0.0,5.0,376.0
2022-01-28-10:04:43.489417,8.0,5.0,376.0
2022-01-28-10:04:43.490419,10.0,26.0,376.0
2022-01-28-10:04:43.491365,10.0,26.0,376.0
2022-01-28-10:04:43.492409,8.0,25.0,375.0
2022-01-28-10:04:43.493404,8.0,25.0,375.0
2022-01-28-10:04:43.494369,7.0,6.0,376.0
2022-01-28-10:04:43.496377,7.0,6.0,376.0
2022-01-28-10:04:43.496377,0.0,14.0,376.0
2022-01-28-10:04:43.497394,5.0,14.0,376.0
2022-01-28-10:04:43.498347,3.0,3.0,376.0
2022-01-28-10:04:43.499371,3.0,3.0,376.0
2022-01-28-10:04:43.500372,3.0,3.0,376.0
2022-01-28-10:04:43.501339,0.0,5.0,376.0
2022-01-28-10:04:43.502342,6.0,6.0,376.0
2022-01-28-10:04:43.503337,2.0,1.0,376.0
2022-01-28-10:04:43.504386,2.0,1.0,376.0
2022-01-28-10:04:43.505385,2.0,2.0,375.0
2022-01-28-10:04:43.506383,4.0,1.0,376.0
2022-01-28-10:04:43.507379,8.0,0.0,376.0
2022-01-28-10:04:43.508369,8.0,0.0,376.0
2022-01-28-10:04:43.509365,11.0,0.0,376.0
2022-01-28-10:04:43.510363,11.0,0.0,376.0
2022-01-28-10:04:43.511357,7.0,10.0,376.0
2022-01-28-10:04:43.512361,8.0,12.0,376.0
2022-01-28-10:04:43.513355,6.0,14.0,376.0
2022-01-28-10:04:43.514355,6.0,8.0,376.0
2022-01-28-10:04:43.515350,2.0,9.0,376.0
2022-01-28-10:04:43.516351,2.0,9.0,376.0
2022-01-28-10:04:43.517296,4.0,6.0,376.0
2022-01-28-10:04:43.518340,4.0,9.0,376.0
2022-01-28-10:04:43.519317,2.0,1.0,376.0
2022-01-28-10:04:43.520313,2.0,1.0,376.0
2022-01-28-10:04:43.521311,3.0,1.0,376.0
2022-01-28-10:04:43.522325,2.0,1.0,376.0
2022-01-28-10:04:43.523312,6.0,2.0,376.0
2022-01-28-10:04:43.524278,6.0,2.0,376.0
2022-01-28-10:04:43.525300,10.0,7.0,376.0
2022-01-28-10:04:43.526300,6.0,6.0,376.0
2022-01-28-10:04:43.527297,6.0,6.0,376.0
2022-01-28-10:04:43.529291,6.0,6.0,376.0
2022-01-28-10:04:43.529291,1.0,12.0,375.0
2022-01-28-10:04:43.530262,1.0,12.0,375.0
2022-01-28-10:04:43.531292,1.0,12.0,375.0
2022-01-28-10:04:43.532257,1.0,12.0,375.0
2022-01-28-10:04:43.533280,5.0,8.0,376.0
2022-01-28-10:04:43.534277,3.0,8.0,376.0
2022-01-28-10:04:43.535275,3.0,12.0,376.0
2022-01-28-10:04:43.536272,3.0,12.0,376.0
2022-01-28-10:04:43.537243,5.0,17.0,376.0
2022-01-28-10:04:43.538240,8.0,3.0,376.0
2022-01-28-10:04:43.539237,8.0,3.0,376.0
2022-01-28-10:04:43.540234,8.0,3.0,376.0
2022-01-28-10:04:43.541232,8.0,3.0,376.0
2022-01-28-10:04:43.542230,13.0,7.0,376.0
2022-01-28-10:04:43.543262,9.0,13.0,376.0
2022-01-28-10:04:43.544258,9.0,13.0,376.0
2022-01-28-10:04:43.545234,9.0,13.0,376.0
2022-01-28-10:04:43.546256,1.0,3.0,376.0
2022-01-28-10:04:43.547548,3.0,4.0,376.0
2022-01-28-10:04:43.547548,3.0,4.0,376.0
2022-01-28-10:04:43.548214,3.0,4.0,376.0
2022-01-28-10:04:43.549247,3.0,4.0,376.0
2022-01-28-10:04:43.550242,4.0,6.0,376.0
2022-01-28-10:04:43.551260,3.0,4.0,376.0
2022-01-28-10:04:43.552257,3.0,4.0,376.0
2022-01-28-10:04:43.553247,3.0,4.0,376.0
2022-01-28-10:04:43.554247,2.0,2.0,376.0
2022-01-28-10:04:43.555241,0.0,1.0,376.0
2022-01-28-10:04:43.556239,3.0,2.0,376.0
2022-01-28-10:04:43.557236,3.0,2.0,376.0
2022-01-28-10:04:43.558234,6.0,2.0,376.0
2022-01-28-10:04:43.559231,9.0,10.0,376.0
2022-01-28-10:04:43.560228,9.0,10.0,376.0
2022-01-28-10:04:43.561179,9.0,10.0,376.0
2022-01-28-10:04:43.563202,4.0,5.0,376.0
2022-01-28-10:04:43.564172,3.0,19.0,376.0
2022-01-28-10:04:43.564172,3.0,19.0,376.0
2022-01-28-10:04:43.565169,3.0,19.0,376.0
2022-01-28-10:04:43.566166,3.0,19.0,376.0
2022-01-28-10:04:43.567190,2.0,12.0,376.0
2022-01-28-10:04:43.568185,5.0,17.0,376.0
2022-01-28-10:04:43.569158,3.0,16.0,376.0
2022-01-28-10:04:43.570182,1.0,16.0,375.0
2022-01-28-10:04:43.571177,6.0,15.0,376.0
2022-01-28-10:04:43.572176,6.0,7.0,376.0
2022-01-28-10:04:43.573146,6.0,7.0,376.0
2022-01-28-10:04:43.574169,10.0,17.0,376.0
2022-01-28-10:04:43.575168,10.0,12.0,376.0
2022-01-28-10:04:43.576164,11.0,3.0,376.0
2022-01-28-10:04:43.577161,11.0,3.0,376.0
2022-01-28-10:04:43.578134,12.0,4.0,376.0
2022-01-28-10:04:43.579162,3.0,6.0,376.0
2022-01-28-10:04:43.580155,3.0,6.0,376.0
2022-01-28-10:04:43.581150,3.0,6.0,376.0
2022-01-28-10:04:43.582148,3.0,6.0,376.0
2022-01-28-10:04:43.583147,4.0,2.0,376.0
2022-01-28-10:04:43.584142,2.0,4.0,376.0
2022-01-28-10:04:43.585139,2.0,4.0,376.0
2022-01-28-10:04:43.586139,2.0,4.0,376.0
2022-01-28-10:04:43.587134,1.0,3.0,376.0
2022-01-28-10:04:43.588230,5.0,6.0,376.0
2022-01-28-10:04:43.588230,5.0,6.0,376.0
2022-01-28-10:04:43.589262,5.0,6.0,376.0
2022-01-28-10:04:43.590259,5.0,6.0,376.0
2022-01-28-10:04:43.591258,9.0,2.0,376.0
2022-01-28-10:04:43.592222,11.0,1.0,376.0
2022-01-28-10:04:43.593251,9.0,6.0,376.0
2022-01-28-10:04:43.594250,9.0,6.0,376.0
2022-01-28-10:04:43.595247,2.0,5.0,375.0
2022-01-28-10:04:43.597262,2.0,5.0,375.0
2022-01-28-10:04:43.597262,2.0,5.0,375.0
2022-01-28-10:04:43.598264,2.0,5.0,375.0
2022-01-28-10:04:43.598264,4.0,8.0,375.0
2022-01-28-10:04:43.599296,4.0,8.0,375.0
2022-01-28-10:04:43.600294,2.0,12.0,376.0
2022-01-28-10:04:43.601293,2.0,12.0,376.0
2022-01-28-10:04:43.602288,2.0,12.0,376.0
2022-01-28-10:04:43.603288,5.0,9.0,376.0
2022-01-28-10:04:43.604282,5.0,5.0,376.0
2022-01-28-10:04:43.605280,8.0,5.0,376.0
2022-01-28-10:04:43.606279,8.0,5.0,376.0
2022-01-28-10:04:43.607275,10.0,2.0,376.0
2022-01-28-10:04:43.608264,9.0,3.0,376.0
2022-01-28-10:04:43.609264,9.0,3.0,376.0
2022-01-28-10:04:43.610235,9.0,3.0,376.0
2022-01-28-10:04:43.611232,6.0,6.0,376.0
2022-01-28-10:04:43.612699,3.0,10.0,376.0
2022-01-28-10:04:43.612809,3.0,10.0,376.0
2022-01-28-10:04:43.612809,3.0,10.0,376.0
2022-01-28-10:04:43.613863,3.0,10.0,376.0
2022-01-28-10:04:43.615050,3.0,10.0,376.0
2022-01-28-10:04:43.615050,4.0,10.0,376.0
2022-01-28-10:04:43.616083,4.0,10.0,376.0
2022-01-28-10:04:43.617177,4.0,3.0,376.0
2022-01-28-10:04:43.617177,4.0,3.0,376.0
2022-01-28-10:04:43.618231,4.0,3.0,376.0
2022-01-28-10:04:43.619274,4.0,2.0,376.0
2022-01-28-10:04:43.619274,4.0,0.0,376.0
2022-01-28-10:04:43.620401,4.0,0.0,376.0
2022-01-28-10:04:43.620401,4.0,0.0,376.0
2022-01-28-10:04:43.621455,4.0,0.0,376.0
2022-01-28-10:04:43.622452,4.0,0.0,376.0
2022-01-28-10:04:43.623451,5.0,1.0,376.0
2022-01-28-10:04:43.624486,11.0,6.0,376.0
2022-01-28-10:04:43.624486,11.0,6.0,376.0
2022-01-28-10:04:43.625511,11.0,6.0,376.0
2022-01-28-10:04:43.626545,11.0,6.0,376.0
2022-01-28-10:04:43.627535,10.0,9.0,376.0
2022-01-28-10:04:43.629532,2.0,1.0,376.0
2022-01-28-10:04:43.629532,3.0,2.0,376.0
2022-01-28-10:04:43.630473,3.0,2.0,376.0
2022-01-28-10:04:43.631524,2.0,4.0,376.0
2022-01-28-10:04:43.632522,3.0,4.0,376.0
2022-01-28-10:04:43.633519,3.0,4.0,376.0
2022-01-28-10:04:43.634519,3.0,4.0,376.0
2022-01-28-10:04:43.635514,3.0,4.0,376.0
2022-01-28-10:04:43.636511,8.0,6.0,376.0
2022-01-28-10:04:43.637608,10.0,1.0,376.0
2022-01-28-10:04:43.637608,10.0,1.0,376.0
2022-01-28-10:04:43.638655,10.0,1.0,376.0
2022-01-28-10:04:43.639857,11.0,2.0,376.0
2022-01-28-10:04:43.639857,7.0,2.0,376.0
2022-01-28-10:04:43.640888,7.0,2.0,376.0
2022-01-28-10:04:43.641886,11.0,0.0,376.0
2022-01-28-10:04:43.642853,11.0,0.0,376.0
2022-01-28-10:04:43.643883,10.0,0.0,376.0
2022-01-28-10:04:43.644846,1.0,2.0,376.0
2022-01-28-10:04:43.645875,1.0,2.0,376.0
2022-01-28-10:04:43.647127,1.0,2.0,376.0
2022-01-28-10:04:43.647127,3.0,10.0,375.0
2022-01-28-10:04:43.648151,3.0,3.0,375.0
2022-01-28-10:04:43.649151,3.0,3.0,375.0
2022-01-28-10:04:43.650146,3.0,3.0,375.0
2022-01-28-10:04:43.651119,3.0,3.0,375.0
2022-01-28-10:04:43.652145,3.0,6.0,376.0
2022-01-28-10:04:43.653252,0.0,12.0,376.0
2022-01-28-10:04:43.653252,4.0,5.0,376.0
2022-01-28-10:04:43.654300,4.0,5.0,376.0
2022-01-28-10:04:43.655297,4.0,5.0,376.0
2022-01-28-10:04:43.656293,6.0,7.0,376.0
2022-01-28-10:04:43.656293,10.0,14.0,375.0
2022-01-28-10:04:43.657444,10.0,14.0,375.0
2022-01-28-10:04:43.657444,13.0,16.0,376.0
2022-01-28-10:04:43.658494,13.0,16.0,376.0
2022-01-28-10:04:43.659625,13.0,16.0,376.0
2022-01-28-10:04:43.659625,10.0,18.0,376.0
2022-01-28-10:04:43.660657,10.0,18.0,376.0
2022-01-28-10:04:43.661656,3.0,11.0,376.0
2022-01-28-10:04:43.662652,3.0,11.0,376.0
2022-01-28-10:04:43.664640,3.0,11.0,376.0
2022-01-28-10:04:43.664640,6.0,1.0,376.0
2022-01-28-10:04:43.665637,3.0,5.0,375.0
2022-01-28-10:04:43.666632,3.0,5.0,375.0
2022-01-28-10:04:43.667633,3.0,5.0,375.0
2022-01-28-10:04:43.668628,1.0,4.0,376.0
2022-01-28-10:04:43.669627,2.0,4.0,376.0
2022-01-28-10:04:43.670623,0.0,5.0,375.0
2022-01-28-10:04:43.671595,0.0,5.0,375.0
2022-01-28-10:04:43.672619,2.0,0.0,376.0
2022-01-28-10:04:43.673731,8.0,5.0,376.0
2022-01-28-10:04:43.673731,8.0,5.0,376.0
2022-01-28-10:04:43.674780,8.0,5.0,376.0
2022-01-28-10:04:43.675943,8.0,5.0,376.0
2022-01-28-10:04:43.675943,8.0,7.0,376.0
2022-01-28-10:04:43.676969,8.0,7.0,376.0
2022-01-28-10:04:43.677940,2.0,11.0,376.0
2022-01-28-10:04:43.678937,2.0,11.0,376.0
2022-01-28-10:04:43.679965,2.0,11.0,376.0
2022-01-28-10:04:43.680957,2.0,8.0,376.0
2022-01-28-10:04:43.681956,2.0,8.0,376.0
2022-01-28-10:04:43.682950,2.0,8.0,376.0
2022-01-28-10:04:43.683924,2.0,8.0,376.0
2022-01-28-10:04:43.684948,4.0,10.0,376.0
2022-01-28-10:04:43.685944,2.0,3.0,376.0
2022-01-28-10:04:43.686940,2.0,3.0,376.0
2022-01-28-10:04:43.687913,2.0,3.0,376.0
2022-01-28-10:04:43.688934,1.0,8.0,376.0
2022-01-28-10:04:43.689935,12.0,1.0,376.0
2022-01-28-10:04:43.690929,12.0,1.0,376.0
2022-01-28-10:04:43.691927,12.0,1.0,376.0
2022-01-28-10:04:43.692926,12.0,1.0,376.0
2022-01-28-10:04:43.694030,3.0,9.0,376.0
2022-01-28-10:04:43.694030,3.0,9.0,376.0
2022-01-28-10:04:43.695076,3.0,9.0,376.0
2022-01-28-10:04:43.696242,3.0,9.0,376.0
2022-01-28-10:04:43.697266,2.0,6.0,376.0
2022-01-28-10:04:43.697266,3.0,6.0,375.0
2022-01-28-10:04:43.698389,3.0,6.0,375.0
2022-01-28-10:04:43.698389,3.0,6.0,375.0
2022-01-28-10:04:43.699450,3.0,6.0,375.0
2022-01-28-10:04:43.700443,3.0,6.0,375.0
2022-01-28-10:04:43.701438,4.0,6.0,376.0
2022-01-28-10:04:43.702437,5.0,6.0,375.0
2022-01-28-10:04:43.703434,4.0,5.0,376.0
2022-01-28-10:04:43.704431,4.0,5.0,376.0
2022-01-28-10:04:43.705431,3.0,2.0,376.0
2022-01-28-10:04:43.706533,8.0,2.0,376.0
2022-01-28-10:04:43.706533,8.0,2.0,376.0
2022-01-28-10:04:43.707580,8.0,2.0,376.0
2022-01-28-10:04:43.708580,8.0,2.0,376.0
2022-01-28-10:04:43.709529,5.0,9.0,376.0
2022-01-28-10:04:43.710573,1.0,5.0,376.0
2022-01-28-10:04:43.711524,1.0,5.0,376.0
2022-01-28-10:04:43.712567,1.0,5.0,376.0
2022-01-28-10:04:43.713612,4.0,4.0,376.0
2022-01-28-10:04:43.713612,2.0,6.0,376.0
2022-01-28-10:04:43.714612,4.0,7.0,376.0
2022-01-28-10:04:43.715665,4.0,7.0,376.0
2022-01-28-10:04:43.716660,4.0,7.0,376.0
2022-01-28-10:04:43.717659,1.0,4.0,376.0
2022-01-28-10:04:43.718657,1.0,4.0,376.0
2022-01-28-10:04:43.719654,1.0,4.0,376.0
2022-01-28-10:04:43.720662,1.0,4.0,376.0
2022-01-28-10:04:43.721649,0.0,1.0,376.0
2022-01-28-10:04:43.722645,9.0,3.0,376.0
2022-01-28-10:04:43.723642,13.0,4.0,376.0
2022-01-28-10:04:43.724642,13.0,4.0,376.0
2022-01-28-10:04:43.725638,9.0,7.0,376.0
2022-01-28-10:04:43.726636,7.0,15.0,376.0
2022-01-28-10:04:43.727638,7.0,15.0,376.0
2022-01-28-10:04:43.728633,7.0,15.0,376.0
2022-01-28-10:04:43.729627,7.0,15.0,376.0
2022-01-28-10:04:43.730623,4.0,10.0,376.0
2022-01-28-10:04:43.732618,1.0,7.0,376.0
2022-01-28-10:04:43.732618,6.0,5.0,376.0
2022-01-28-10:04:43.733561,1.0,6.0,375.0
2022-01-28-10:04:43.734614,1.0,6.0,375.0
2022-01-28-10:04:43.735610,1.0,6.0,375.0
2022-01-28-10:04:43.736607,1.0,6.0,375.0
2022-01-28-10:04:43.737794,1.0,6.0,375.0
2022-01-28-10:04:43.737794,6.0,0.0,376.0
2022-01-28-10:04:43.738847,6.0,4.0,376.0
2022-01-28-10:04:43.739845,9.0,3.0,376.0
2022-01-28-10:04:43.740843,9.0,3.0,376.0
2022-01-28-10:04:43.741839,9.0,3.0,376.0
2022-01-28-10:04:43.742842,13.0,2.0,376.0
2022-01-28-10:04:43.743835,7.0,4.0,376.0
2022-01-28-10:04:43.744782,6.0,14.0,376.0
2022-01-28-10:04:43.745823,6.0,14.0,376.0
2022-01-28-10:04:43.746819,2.0,12.0,375.0
2022-01-28-10:04:43.747817,5.0,5.0,376.0
2022-01-28-10:04:43.748800,6.0,4.0,376.0
2022-01-28-10:04:43.749791,6.0,4.0,376.0
2022-01-28-10:04:43.750807,6.0,8.0,376.0
2022-01-28-10:04:43.751807,3.0,3.0,376.0
2022-01-28-10:04:43.752802,4.0,7.0,376.0
2022-01-28-10:04:43.753801,4.0,7.0,376.0
2022-01-28-10:04:43.754797,1.0,0.0,375.0
2022-01-28-10:04:43.755794,6.0,6.0,376.0
2022-01-28-10:04:43.756793,9.0,3.0,376.0
2022-01-28-10:04:43.757789,9.0,3.0,376.0
2022-01-28-10:04:43.758761,8.0,1.0,375.0
2022-01-28-10:04:43.759787,12.0,9.0,375.0
2022-01-28-10:04:43.760781,6.0,13.0,376.0
2022-01-28-10:04:43.761746,6.0,13.0,376.0
2022-01-28-10:04:43.762776,5.0,4.0,376.0
2022-01-28-10:04:43.763778,1.0,6.0,376.0
2022-01-28-10:04:43.764772,1.0,6.0,376.0
2022-01-28-10:04:43.766769,1.0,6.0,376.0
2022-01-28-10:04:43.766769,4.0,1.0,376.0
2022-01-28-10:04:43.767741,5.0,5.0,376.0
2022-01-28-10:04:43.768761,5.0,5.0,376.0
2022-01-28-10:04:43.769756,5.0,5.0,376.0
2022-01-28-10:04:43.770755,6.0,4.0,376.0
2022-01-28-10:04:43.771753,1.0,2.0,376.0
2022-01-28-10:04:43.772856,7.0,14.0,376.0
2022-01-28-10:04:43.772856,7.0,14.0,376.0
2022-01-28-10:04:43.774101,7.0,14.0,376.0
2022-01-28-10:04:43.774101,8.0,8.0,376.0
2022-01-28-10:04:43.775147,14.0,26.0,376.0
2022-01-28-10:04:43.776149,12.0,30.0,376.0
2022-01-28-10:04:43.777120,12.0,30.0,376.0
2022-01-28-10:04:43.778093,12.0,30.0,376.0
2022-01-28-10:04:43.779090,4.0,23.0,376.0
2022-01-28-10:04:43.780137,2.0,18.0,376.0
2022-01-28-10:04:43.781131,1.0,14.0,376.0
2022-01-28-10:04:43.782086,1.0,14.0,376.0
2022-01-28-10:04:43.783105,4.0,12.0,375.0
2022-01-28-10:04:43.784105,4.0,12.0,375.0
2022-01-28-10:04:43.785120,4.0,12.0,375.0
2022-01-28-10:04:43.786117,4.0,12.0,375.0
2022-01-28-10:04:43.787122,2.0,2.0,376.0
2022-01-28-10:04:43.788225,9.0,6.0,375.0
2022-01-28-10:04:43.788225,9.0,6.0,375.0
2022-01-28-10:04:43.789280,9.0,6.0,375.0
2022-01-28-10:04:43.790470,9.0,6.0,375.0
2022-01-28-10:04:43.790470,12.0,2.0,376.0
2022-01-28-10:04:43.791625,5.0,4.0,376.0
2022-01-28-10:04:43.791625,9.0,7.0,376.0
2022-01-28-10:04:43.792689,9.0,7.0,376.0
2022-01-28-10:04:43.793680,9.0,7.0,376.0
2022-01-28-10:04:43.794663,9.0,7.0,376.0
2022-01-28-10:04:43.795874,5.0,16.0,376.0
2022-01-28-10:04:43.795874,4.0,9.0,376.0
2022-01-28-10:04:43.797030,1.0,2.0,376.0
2022-01-28-10:04:43.797030,1.0,2.0,376.0
2022-01-28-10:04:43.798089,1.0,2.0,376.0
2022-01-28-10:04:43.800175,1.0,2.0,376.0
2022-01-28-10:04:43.800175,1.0,5.0,376.0
2022-01-28-10:04:43.801174,1.0,5.0,376.0
2022-01-28-10:04:43.802170,1.0,5.0,376.0
2022-01-28-10:04:43.803358,1.0,5.0,376.0
2022-01-28-10:04:43.803358,5.0,20.0,376.0
2022-01-28-10:04:43.804404,2.0,1.0,376.0
2022-01-28-10:04:43.805410,4.0,15.0,376.0
2022-01-28-10:04:43.806407,4.0,15.0,376.0
2022-01-28-10:04:43.807396,4.0,15.0,376.0
2022-01-28-10:04:43.808394,12.0,2.0,376.0
2022-01-28-10:04:43.809395,10.0,3.0,376.0
2022-01-28-10:04:43.810388,10.0,5.0,376.0
2022-01-28-10:04:43.811339,10.0,5.0,376.0
2022-01-28-10:04:43.812337,8.0,10.0,376.0
2022-01-28-10:04:43.813493,0.0,4.0,376.0
2022-01-28-10:04:43.813493,0.0,4.0,376.0
2022-01-28-10:04:43.814548,0.0,4.0,376.0
2022-01-28-10:04:43.815550,0.0,4.0,376.0
2022-01-28-10:04:43.816545,4.0,6.0,376.0
2022-01-28-10:04:43.816545,4.0,7.0,376.0
2022-01-28-10:04:43.817593,4.0,7.0,376.0
2022-01-28-10:04:43.818589,4.0,7.0,376.0
2022-01-28-10:04:43.819591,4.0,7.0,376.0
2022-01-28-10:04:43.820585,4.0,1.0,376.0
2022-01-28-10:04:43.821581,2.0,5.0,376.0
2022-01-28-10:04:43.822577,7.0,1.0,376.0
2022-01-28-10:04:43.823575,7.0,1.0,376.0
2022-01-28-10:04:43.824573,5.0,3.0,376.0
2022-01-28-10:04:43.825523,10.0,5.0,376.0
2022-01-28-10:04:43.826667,6.0,5.0,376.0
2022-01-28-10:04:43.826667,6.0,5.0,376.0
2022-01-28-10:04:43.827878,6.0,5.0,376.0
2022-01-28-10:04:43.827878,5.0,7.0,376.0
2022-01-28-10:04:43.828929,1.0,5.0,376.0
2022-01-28-10:04:43.829924,1.0,21.0,376.0
2022-01-28-10:04:43.830919,1.0,21.0,376.0
2022-01-28-10:04:43.831917,1.0,21.0,376.0
2022-01-28-10:04:43.832916,4.0,19.0,376.0
2022-01-28-10:04:43.834909,4.0,19.0,376.0
2022-01-28-10:04:43.834909,5.0,25.0,376.0
2022-01-28-10:04:43.835910,3.0,15.0,376.0
2022-01-28-10:04:43.836902,3.0,2.0,376.0
2022-01-28-10:04:43.837902,3.0,2.0,376.0
2022-01-28-10:04:43.838897,3.0,2.0,376.0
2022-01-28-10:04:43.839895,3.0,2.0,376.0
2022-01-28-10:04:43.840894,9.0,4.0,376.0
2022-01-28-10:04:43.841889,7.0,10.0,375.0
2022-01-28-10:04:43.842889,8.0,12.0,375.0
2022-01-28-10:04:43.843884,8.0,12.0,375.0
2022-01-28-10:04:43.844835,6.0,10.0,376.0
2022-01-28-10:04:43.845937,3.0,6.0,376.0
2022-01-28-10:04:43.845937,3.0,6.0,376.0
2022-01-28-10:04:43.846984,3.0,6.0,376.0
2022-01-28-10:04:43.847980,3.0,6.0,376.0
2022-01-28-10:04:43.848983,2.0,9.0,376.0
2022-01-28-10:04:43.849977,1.0,2.0,376.0
2022-01-28-10:04:43.850927,1.0,2.0,376.0
2022-01-28-10:04:43.851924,1.0,2.0,376.0
2022-01-28-10:04:43.852969,4.0,2.0,376.0
2022-01-28-10:04:43.854157,1.0,2.0,376.0
2022-01-28-10:04:43.854157,4.0,3.0,376.0
2022-01-28-10:04:43.855203,7.0,1.0,376.0
2022-01-28-10:04:43.856200,7.0,1.0,376.0
2022-01-28-10:04:43.857178,11.0,6.0,376.0
2022-01-28-10:04:43.858289,12.0,10.0,376.0
2022-01-28-10:04:43.858289,12.0,10.0,376.0
2022-01-28-10:04:43.859335,12.0,10.0,376.0
2022-01-28-10:04:43.860333,12.0,10.0,376.0
2022-01-28-10:04:43.861332,10.0,10.0,376.0
2022-01-28-10:04:43.862542,2.0,8.0,376.0
2022-01-28-10:04:43.862696,1.0,7.0,376.0
2022-01-28-10:04:43.862696,1.0,7.0,376.0
2022-01-28-10:04:43.863743,1.0,7.0,376.0
2022-01-28-10:04:43.864931,1.0,7.0,376.0
2022-01-28-10:04:43.864931,0.0,12.0,376.0
2022-01-28-10:04:43.865985,2.0,2.0,376.0
2022-01-28-10:04:43.866977,1.0,1.0,376.0
2022-01-28-10:04:43.867982,1.0,1.0,376.0
2022-01-28-10:04:43.869974,5.0,5.0,376.0
2022-01-28-10:04:43.869974,1.0,14.0,376.0
2022-01-28-10:04:43.870964,4.0,6.0,376.0
2022-01-28-10:04:43.871961,4.0,6.0,376.0
2022-01-28-10:04:43.872959,4.0,6.0,376.0
2022-01-28-10:04:43.873956,6.0,6.0,376.0
2022-01-28-10:04:43.874953,10.0,4.0,376.0
2022-01-28-10:04:43.875954,10.0,4.0,376.0
2022-01-28-10:04:43.876949,10.0,4.0,376.0
2022-01-28-10:04:43.877945,9.0,7.0,376.0
2022-01-28-10:04:43.878922,2.0,5.0,376.0
2022-01-28-10:04:43.879919,2.0,5.0,376.0
2022-01-28-10:04:43.880917,2.0,5.0,376.0
2022-01-28-10:04:43.881913,2.0,7.0,375.0
2022-01-28-10:04:43.882911,5.0,5.0,376.0
2022-01-28-10:04:43.883911,3.0,5.0,376.0
2022-01-28-10:04:43.884907,3.0,5.0,376.0
2022-01-28-10:04:43.885903,4.0,5.0,376.0
2022-01-28-10:04:43.886900,3.0,8.0,376.0
2022-01-28-10:04:43.887898,3.0,8.0,376.0
2022-01-28-10:04:43.888899,3.0,8.0,376.0
2022-01-28-10:04:43.889914,7.0,8.0,375.0
2022-01-28-10:04:43.890911,10.0,5.0,376.0
2022-01-28-10:04:43.891910,8.0,6.0,375.0
2022-01-28-10:04:43.892859,8.0,6.0,375.0
2022-01-28-10:04:43.893902,8.0,0.0,376.0
2022-01-28-10:04:43.894853,0.0,7.0,376.0
2022-01-28-10:04:43.895897,0.0,7.0,376.0
2022-01-28-10:04:43.896849,0.0,7.0,376.0
2022-01-28-10:04:43.897891,0.0,6.0,376.0
2022-01-28-10:04:43.898889,4.0,1.0,376.0
2022-01-28-10:04:43.899889,4.0,3.0,376.0
2022-01-28-10:04:43.900860,4.0,3.0,376.0
2022-01-28-10:04:43.902878,6.0,8.0,375.0
2022-01-28-10:04:43.902878,5.0,3.0,375.0
2022-01-28-10:04:43.903855,5.0,3.0,375.0
2022-01-28-10:04:43.904886,5.0,3.0,375.0
2022-01-28-10:04:43.905870,6.0,1.0,376.0
2022-01-28-10:04:43.906821,8.0,5.0,375.0
2022-01-28-10:04:43.907868,6.0,2.0,376.0
2022-01-28-10:04:43.908815,6.0,2.0,376.0
2022-01-28-10:04:43.909813,6.0,2.0,376.0
2022-01-28-10:04:43.910836,10.0,14.0,376.0
2022-01-28-10:04:43.911809,1.0,1.0,375.0
2022-01-28-10:04:43.912852,1.0,1.0,375.0
2022-01-28-10:04:43.913849,1.0,1.0,375.0
2022-01-28-10:04:43.914846,1.0,1.0,376.0
2022-01-28-10:04:43.915847,6.0,10.0,376.0
2022-01-28-10:04:43.916840,3.0,11.0,375.0
2022-01-28-10:04:43.917838,3.0,11.0,375.0
2022-01-28-10:04:43.918836,3.0,15.0,376.0
2022-01-28-10:04:43.919836,3.0,15.0,376.0
2022-01-28-10:04:43.920830,3.0,15.0,376.0
2022-01-28-10:04:43.921828,3.0,15.0,376.0
2022-01-28-10:04:43.922825,4.0,6.0,376.0
2022-01-28-10:04:43.923917,6.0,3.0,376.0
2022-01-28-10:04:43.923917,6.0,3.0,376.0
2022-01-28-10:04:43.924966,6.0,3.0,376.0
2022-01-28-10:04:43.926150,6.0,3.0,376.0
2022-01-28-10:04:43.926150,9.0,1.0,375.0
2022-01-28-10:04:43.927204,2.0,15.0,375.0
2022-01-28-10:04:43.928147,3.0,17.0,375.0
2022-01-28-10:04:43.929192,3.0,17.0,375.0
2022-01-28-10:04:43.930191,3.0,17.0,375.0
2022-01-28-10:04:43.931187,3.0,22.0,376.0
2022-01-28-10:04:43.932182,5.0,12.0,376.0
2022-01-28-10:04:43.933182,2.0,1.0,376.0
2022-01-28-10:04:43.934178,2.0,1.0,376.0
2022-01-28-10:04:43.935175,2.0,4.0,376.0
2022-01-28-10:04:43.937169,5.0,6.0,376.0
2022-01-28-10:04:43.937169,3.0,3.0,376.0
2022-01-28-10:04:43.938169,3.0,3.0,376.0
2022-01-28-10:04:43.939165,8.0,1.0,376.0
2022-01-28-10:04:43.940162,5.0,5.0,375.0
2022-01-28-10:04:43.941160,5.0,5.0,375.0
2022-01-28-10:04:43.942110,5.0,5.0,375.0
2022-01-28-10:04:43.943107,9.0,7.0,376.0
2022-01-28-10:04:43.944150,8.0,19.0,376.0
2022-01-28-10:04:43.945101,2.0,9.0,376.0
2022-01-28-10:04:43.946099,2.0,9.0,376.0
2022-01-28-10:04:43.947143,1.0,7.0,375.0
2022-01-28-10:04:43.948140,1.0,0.0,376.0
2022-01-28-10:04:43.949139,0.0,2.0,376.0
2022-01-28-10:04:43.950088,0.0,2.0,376.0
2022-01-28-10:04:43.951132,1.0,3.0,376.0
2022-01-28-10:04:43.952129,4.0,7.0,376.0
2022-01-28-10:04:43.953357,10.0,3.0,376.0
2022-01-28-10:04:43.953357,10.0,3.0,376.0
2022-01-28-10:04:43.954554,10.0,3.0,376.0
2022-01-28-10:04:43.954554,6.0,1.0,376.0
2022-01-28-10:04:43.955600,11.0,6.0,375.0
2022-01-28-10:04:43.956598,10.0,3.0,376.0
2022-01-28-10:04:43.957595,10.0,3.0,376.0
2022-01-28-10:04:43.958592,10.0,3.0,376.0
2022-01-28-10:04:43.959592,7.0,12.0,376.0
2022-01-28-10:04:43.960588,10.0,11.0,376.0
2022-01-28-10:04:43.961537,3.0,12.0,376.0
2022-01-28-10:04:43.962535,3.0,12.0,376.0
2022-01-28-10:04:43.963579,2.0,7.0,376.0
2022-01-28-10:04:43.964576,0.0,1.0,376.0
2022-01-28-10:04:43.965573,2.0,6.0,375.0
2022-01-28-10:04:43.966669,2.0,6.0,375.0
2022-01-28-10:04:43.966669,3.0,7.0,376.0
2022-01-28-10:04:43.967715,6.0,4.0,375.0
2022-01-28-10:04:43.968713,3.0,3.0,376.0
2022-01-28-10:04:43.969689,3.0,3.0,376.0
2022-01-28-10:04:43.971705,3.0,3.0,376.0
2022-01-28-10:04:43.971705,8.0,2.0,376.0
2022-01-28-10:04:43.972681,12.0,2.0,376.0
2022-01-28-10:04:43.973702,12.0,2.0,376.0
2022-01-28-10:04:43.974650,12.0,2.0,376.0
2022-01-28-10:04:43.975647,9.0,2.0,376.0
2022-01-28-10:04:43.976691,9.0,12.0,376.0
2022-01-28-10:04:43.977689,7.0,21.0,376.0
2022-01-28-10:04:43.978686,7.0,21.0,376.0
2022-01-28-10:04:43.979684,4.0,17.0,376.0
2022-01-28-10:04:43.980680,2.0,0.0,376.0
2022-01-28-10:04:43.981681,1.0,0.0,376.0
2022-01-28-10:04:43.982655,1.0,0.0,376.0
2022-01-28-10:04:43.983672,1.0,0.0,376.0
2022-01-28-10:04:43.984669,4.0,2.0,376.0
2022-01-28-10:04:43.985667,3.0,2.0,376.0
2022-01-28-10:04:43.986673,3.0,2.0,376.0
2022-01-28-10:04:43.987641,4.0,2.0,376.0
2022-01-28-10:04:43.988665,5.0,23.0,376.0
2022-01-28-10:04:43.989659,10.0,9.0,376.0
2022-01-28-10:04:43.990654,10.0,9.0,376.0
2022-01-28-10:04:43.991651,10.0,9.0,376.0
2022-01-28-10:04:43.992648,7.0,1.0,376.0
2022-01-28-10:04:43.993646,8.0,1.0,376.0
2022-01-28-10:04:43.994643,6.0,11.0,376.0
2022-01-28-10:04:43.995641,6.0,11.0,376.0
2022-01-28-10:04:43.996618,4.0,20.0,376.0
2022-01-28-10:04:43.997612,0.0,17.0,376.0
2022-01-28-10:04:43.998586,2.0,20.0,376.0
2022-01-28-10:04:43.999584,2.0,20.0,376.0
2022-01-28-10:04:44.000628,1.0,21.0,376.0
2022-01-28-10:04:44.001624,3.0,17.0,376.0
2022-01-28-10:04:44.002622,1.0,11.0,376.0
2022-01-28-10:04:44.004616,1.0,11.0,376.0
2022-01-28-10:04:44.004616,1.0,11.0,376.0
2022-01-28-10:04:44.005596,1.0,4.0,376.0
2022-01-28-10:04:44.006611,9.0,8.0,376.0
2022-01-28-10:04:44.007562,9.0,8.0,376.0
2022-01-28-10:04:44.008605,7.0,9.0,376.0
2022-01-28-10:04:44.009557,8.0,4.0,376.0
2022-01-28-10:04:44.010600,9.0,8.0,376.0
2022-01-28-10:04:44.011560,9.0,8.0,376.0
2022-01-28-10:04:44.012604,3.0,9.0,376.0
2022-01-28-10:04:44.013598,2.0,1.0,375.0
2022-01-28-10:04:44.014688,4.0,2.0,376.0
2022-01-28-10:04:44.014688,4.0,2.0,376.0
2022-01-28-10:04:44.015742,4.0,2.0,376.0
2022-01-28-10:04:44.016782,1.0,10.0,376.0
2022-01-28-10:04:44.016782,1.0,6.0,376.0
2022-01-28-10:04:44.017832,1.0,6.0,376.0
2022-01-28-10:04:44.018826,1.0,6.0,376.0
2022-01-28-10:04:44.019777,1.0,6.0,376.0
2022-01-28-10:04:44.020800,5.0,23.0,376.0
2022-01-28-10:04:44.021817,5.0,23.0,376.0
2022-01-28-10:04:44.022824,5.0,23.0,376.0
2022-01-28-10:04:44.023766,5.0,23.0,376.0
2022-01-28-10:04:44.024810,8.0,3.0,376.0
2022-01-28-10:04:44.025811,9.0,14.0,376.0
2022-01-28-10:04:44.026805,10.0,8.0,376.0
2022-01-28-10:04:44.027803,10.0,8.0,376.0
2022-01-28-10:04:44.028753,3.0,3.0,376.0
2022-01-28-10:04:44.029777,5.0,15.0,376.0
2022-01-28-10:04:44.030773,5.0,15.0,376.0
2022-01-28-10:04:44.031791,5.0,15.0,376.0
2022-01-28-10:04:44.032788,5.0,15.0,376.0
2022-01-28-10:04:44.033790,5.0,5.0,376.0
2022-01-28-10:04:44.034881,0.0,7.0,376.0
2022-01-28-10:04:44.034881,0.0,7.0,376.0
2022-01-28-10:04:44.035928,0.0,7.0,376.0
2022-01-28-10:04:44.036925,0.0,7.0,376.0
2022-01-28-10:04:44.038995,0.0,2.0,376.0
2022-01-28-10:04:44.038995,9.0,7.0,376.0
2022-01-28-10:04:44.039971,9.0,7.0,376.0
2022-01-28-10:04:44.040987,9.0,6.0,376.0
2022-01-28-10:04:44.041986,10.0,11.0,376.0
2022-01-28-10:04:44.042937,10.0,11.0,376.0
2022-01-28-10:04:44.043982,10.0,11.0,376.0
2022-01-28-10:04:44.044931,10.0,11.0,376.0
2022-01-28-10:04:44.045928,3.0,5.0,376.0
2022-01-28-10:04:44.046973,4.0,7.0,376.0
2022-01-28-10:04:44.048049,2.0,8.0,376.0
2022-01-28-10:04:44.048049,2.0,8.0,376.0
2022-01-28-10:04:44.049281,2.0,8.0,376.0
2022-01-28-10:04:44.049281,1.0,6.0,376.0
2022-01-28-10:04:44.050331,3.0,5.0,376.0
2022-01-28-10:04:44.051326,5.0,9.0,376.0
2022-01-28-10:04:44.052323,5.0,9.0,376.0
2022-01-28-10:04:44.053319,1.0,3.0,376.0
2022-01-28-10:04:44.054317,8.0,12.0,376.0
2022-01-28-10:04:44.055295,9.0,7.0,376.0
2022-01-28-10:04:44.056313,9.0,7.0,376.0
2022-01-28-10:04:44.057315,9.0,7.0,376.0
2022-01-28-10:04:44.058310,7.0,1.0,376.0
2022-01-28-10:04:44.059309,11.0,0.0,376.0
2022-01-28-10:04:44.060280,9.0,5.0,376.0
2022-01-28-10:04:44.061277,9.0,5.0,376.0
2022-01-28-10:04:44.062268,5.0,19.0,376.0
2022-01-28-10:04:44.063273,0.0,19.0,376.0
2022-01-28-10:04:44.064291,1.0,21.0,376.0
2022-01-28-10:04:44.065287,3.0,17.0,376.0
2022-01-28-10:04:44.066284,4.0,13.0,376.0
2022-01-28-10:04:44.067283,4.0,3.0,376.0
2022-01-28-10:04:44.068370,2.0,1.0,376.0
2022-01-28-10:04:44.068370,2.0,1.0,376.0
2022-01-28-10:04:44.069429,2.0,1.0,376.0
2022-01-28-10:04:44.070421,4.0,6.0,376.0
2022-01-28-10:04:44.071419,5.0,7.0,376.0
2022-01-28-10:04:44.073460,3.0,7.0,376.0
2022-01-28-10:04:44.073460,7.0,4.0,376.0
2022-01-28-10:04:44.074458,10.0,1.0,376.0
2022-01-28-10:04:44.075409,10.0,1.0,376.0
2022-01-28-10:04:44.076485,10.0,1.0,376.0
2022-01-28-10:04:44.076485,10.0,1.0,376.0
2022-01-28-10:04:44.077541,10.0,1.0,376.0
2022-01-28-10:04:44.078516,8.0,2.0,376.0
2022-01-28-10:04:44.079536,3.0,15.0,376.0
2022-01-28-10:04:44.080531,3.0,8.0,376.0
2022-01-28-10:04:44.081529,3.0,8.0,376.0
2022-01-28-10:04:44.082527,0.0,9.0,376.0
2022-01-28-10:04:44.083524,2.0,9.0,376.0
2022-01-28-10:04:44.084523,1.0,4.0,376.0
2022-01-28-10:04:44.085518,1.0,4.0,376.0
2022-01-28-10:04:44.086516,5.0,7.0,375.0
2022-01-28-10:04:44.087515,4.0,0.0,376.0
2022-01-28-10:04:44.088510,6.0,6.0,376.0
2022-01-28-10:04:44.089508,6.0,6.0,376.0
2022-01-28-10:04:44.090506,8.0,4.0,376.0
2022-01-28-10:04:44.091502,8.0,11.0,376.0
2022-01-28-10:04:44.092507,11.0,13.0,375.0
2022-01-28-10:04:44.093483,11.0,13.0,375.0
2022-01-28-10:04:44.094494,9.0,2.0,376.0
2022-01-28-10:04:44.095493,1.0,5.0,376.0
2022-01-28-10:04:44.096488,2.0,5.0,376.0
2022-01-28-10:04:44.097486,2.0,5.0,376.0
2022-01-28-10:04:44.098483,1.0,3.0,376.0
2022-01-28-10:04:44.099480,4.0,1.0,376.0
2022-01-28-10:04:44.100480,6.0,9.0,376.0
2022-01-28-10:04:44.101476,6.0,9.0,376.0
2022-01-28-10:04:44.102473,6.0,9.0,376.0
2022-01-28-10:04:44.103472,4.0,8.0,376.0
2022-01-28-10:04:44.104468,8.0,1.0,376.0
2022-01-28-10:04:44.105465,8.0,1.0,376.0
2022-01-28-10:04:44.106441,8.0,1.0,376.0
2022-01-28-10:04:44.108459,9.0,0.0,376.0
2022-01-28-10:04:44.108459,10.0,2.0,376.0
2022-01-28-10:04:44.109434,10.0,2.0,376.0
2022-01-28-10:04:44.110453,10.0,2.0,376.0
2022-01-28-10:04:44.111451,6.0,3.0,376.0
2022-01-28-10:04:44.112427,3.0,16.0,376.0
2022-01-28-10:04:44.113426,3.0,16.0,376.0
2022-01-28-10:04:44.114420,3.0,16.0,376.0
2022-01-28-10:04:44.115418,1.0,8.0,376.0
2022-01-28-10:04:44.116415,3.0,9.0,376.0
2022-01-28-10:04:44.117412,4.0,3.0,375.0
2022-01-28-10:04:44.118410,4.0,3.0,375.0
2022-01-28-10:04:44.119407,2.0,1.0,376.0
2022-01-28-10:04:44.120406,4.0,5.0,376.0
2022-01-28-10:04:44.121401,1.0,10.0,375.0
2022-01-28-10:04:44.122399,1.0,10.0,375.0
2022-01-28-10:04:44.123406,12.0,2.0,376.0
2022-01-28-10:04:44.124393,13.0,2.0,376.0
2022-01-28-10:04:44.125407,6.0,3.0,375.0
2022-01-28-10:04:44.126388,6.0,3.0,375.0
2022-01-28-10:04:44.127385,6.0,5.0,376.0
2022-01-28-10:04:44.128384,3.0,10.0,376.0
2022-01-28-10:04:44.129380,1.0,20.0,376.0
2022-01-28-10:04:44.130367,1.0,20.0,376.0
2022-01-28-10:04:44.131375,2.0,26.0,376.0
2022-01-28-10:04:44.132374,1.0,2.0,376.0
2022-01-28-10:04:44.133369,2.0,7.0,376.0
2022-01-28-10:04:44.134367,2.0,7.0,376.0
2022-01-28-10:04:44.135364,6.0,0.0,376.0
2022-01-28-10:04:44.136363,2.0,0.0,376.0
2022-01-28-10:04:44.137358,2.0,0.0,376.0
2022-01-28-10:04:44.138361,2.0,0.0,376.0
2022-01-28-10:04:44.140374,11.0,4.0,376.0
2022-01-28-10:04:44.140374,9.0,2.0,375.0
2022-01-28-10:04:44.141368,9.0,2.0,375.0
2022-01-28-10:04:44.142373,9.0,2.0,375.0
2022-01-28-10:04:44.143366,9.0,2.0,375.0
2022-01-28-10:04:44.144361,1.0,14.0,376.0
2022-01-28-10:04:44.145338,1.0,8.0,376.0
2022-01-28-10:04:44.146356,1.0,8.0,376.0
2022-01-28-10:04:44.147352,1.0,8.0,376.0
2022-01-28-10:04:44.148353,1.0,7.0,376.0
2022-01-28-10:04:44.149347,1.0,12.0,375.0
2022-01-28-10:04:44.150345,4.0,12.0,375.0
2022-01-28-10:04:44.151344,4.0,12.0,375.0
2022-01-28-10:04:44.152339,5.0,11.0,376.0
2022-01-28-10:04:44.153337,2.0,1.0,376.0
2022-01-28-10:04:44.154337,4.0,5.0,375.0
2022-01-28-10:04:44.155338,4.0,5.0,375.0
2022-01-28-10:04:44.156331,2.0,3.0,376.0
2022-01-28-10:04:44.157326,2.0,3.0,376.0
2022-01-28-10:04:44.158303,5.0,2.0,376.0
2022-01-28-10:04:44.159323,10.0,0.0,376.0
2022-01-28-10:04:44.160318,6.0,5.0,376.0
2022-01-28-10:04:44.161316,7.0,8.0,376.0
2022-01-28-10:04:44.162407,2.0,8.0,376.0
2022-01-28-10:04:44.162407,2.0,8.0,376.0
2022-01-28-10:04:44.163651,2.0,8.0,376.0
2022-01-28-10:04:44.163651,3.0,11.0,376.0
2022-01-28-10:04:44.164682,3.0,11.0,376.0
2022-01-28-10:04:44.165828,3.0,1.0,376.0
2022-01-28-10:04:44.165828,3.0,1.0,376.0
2022-01-28-10:04:44.166882,3.0,1.0,376.0
2022-01-28-10:04:44.167878,3.0,1.0,376.0
2022-01-28-10:04:44.168880,2.0,11.0,376.0
2022-01-28-10:04:44.169888,5.0,5.0,376.0
2022-01-28-10:04:44.169888,5.0,5.0,376.0
2022-01-28-10:04:44.170943,5.0,5.0,376.0
2022-01-28-10:04:44.171941,5.0,5.0,376.0
2022-01-28-10:04:44.172936,2.0,3.0,376.0
2022-01-28-10:04:44.174933,2.0,3.0,376.0
2022-01-28-10:04:44.174933,2.0,3.0,376.0
2022-01-28-10:04:44.175928,10.0,7.0,376.0
2022-01-28-10:04:44.176931,6.0,2.0,376.0
2022-01-28-10:04:44.177925,5.0,5.0,376.0
2022-01-28-10:04:44.178867,5.0,5.0,376.0
2022-01-28-10:04:44.179920,5.0,5.0,376.0
2022-01-28-10:04:44.180922,1.0,14.0,376.0
2022-01-28-10:04:44.181913,4.0,10.0,376.0
2022-01-28-10:04:44.182912,2.0,14.0,376.0
2022-01-28-10:04:44.183907,2.0,14.0,376.0
2022-01-28-10:04:44.184905,4.0,7.0,376.0
2022-01-28-10:04:44.185904,3.0,2.0,376.0
2022-01-28-10:04:44.186898,3.0,2.0,376.0
2022-01-28-10:04:44.188098,3.0,2.0,376.0
2022-01-28-10:04:44.188098,2.0,1.0,375.0
2022-01-28-10:04:44.189132,2.0,1.0,375.0
2022-01-28-10:04:44.190130,10.0,2.0,376.0
2022-01-28-10:04:44.191125,10.0,2.0,376.0
2022-01-28-10:04:44.192091,10.0,2.0,376.0
2022-01-28-10:04:44.193122,10.0,3.0,376.0
2022-01-28-10:04:44.194254,4.0,12.0,375.0
2022-01-28-10:04:44.194254,4.0,12.0,375.0
2022-01-28-10:04:44.195254,4.0,12.0,375.0
2022-01-28-10:04:44.196305,4.0,12.0,375.0
2022-01-28-10:04:44.197526,1.0,9.0,376.0
2022-01-28-10:04:44.197526,2.0,7.0,376.0
2022-01-28-10:04:44.198557,2.0,7.0,376.0
2022-01-28-10:04:44.199556,2.0,6.0,376.0
2022-01-28-10:04:44.200552,2.0,6.0,376.0
2022-01-28-10:04:44.201684,4.0,18.0,376.0
2022-01-28-10:04:44.201684,4.0,8.0,376.0
2022-01-28-10:04:44.202740,4.0,8.0,376.0
2022-01-28-10:04:44.203739,4.0,8.0,376.0
2022-01-28-10:04:44.204913,4.0,8.0,376.0
2022-01-28-10:04:44.204913,4.0,3.0,376.0
2022-01-28-10:04:44.205954,4.0,3.0,376.0
2022-01-28-10:04:44.206947,7.0,3.0,376.0
2022-01-28-10:04:44.208939,7.0,3.0,376.0
2022-01-28-10:04:44.209520,9.0,5.0,376.0
