# 
# 
# 
# 
# 
# 
# 
# 
# 
# 
# time,realtime,ref,inp,inp0,inp1,dis,state...
0.000000000000000000e+00,1.684344309110750437e+09,0.000000000000000000e+00,-3.044724009425465311e-02,0.000000000000000000e+00,-6.089448018850930622e-02,0.000000000000000000e+00,0.000000000000000000e+00,0.000000000000000000e+00
1.666666666666666644e-02,1.684344309112750530e+09,0.000000000000000000e+00,-3.827221243092291947e-01,-7.045497684299490970e-01,-6.089448018850930622e-02,0.000000000000000000e+00,-5.286177077690584330e-05,-6.325840301043579930e-03
3.333333333333333287e-02,1.684344309115789890e+09,0.000000000000000000e+00,-3.044724009425465311e-02,0.000000000000000000e+00,-6.089448018850930622e-02,1.450888308386703209e-05,-1.616220982621163987e-04,-6.724292160411216197e-03
5.000000000000000278e-02,1.684344309132787704e+09,0.000000000000000000e+00,-3.044724009425465311e-02,0.000000000000000000e+00,-6.089448018850930622e-02,4.969105002834098300e-05,-2.769633963220358153e-04,-7.115576679755068398e-03
6.666666666666666574e-02,1.684344309149787903e+09,0.000000000000000000e+00,-3.044724009425465311e-02,0.000000000000000000e+00,-6.089448018850930622e-02,9.149067102954748607e-05,-3.987662852401250820e-04,-7.499702947890730768e-03
8.333333333333332871e-02,1.684344309167787552e+09,0.000000000000000000e+00,-3.044724009425465311e-02,0.000000000000000000e+00,-6.089448018850930622e-02,1.239889262543131916e-04,-5.269137342400918508e-04,-7.876943018357436196e-03
1.000000000000000056e-01,1.684344309185805798e+09,0.000000000000000000e+00,-3.044724009425465311e-02,0.000000000000000000e+00,-6.089448018850930622e-02,1.296833793372278738e-04,-6.612956266403711069e-04,-8.247853737872446606e-03
1.166666666666666685e-01,1.684344309201805353e+09,0.000000000000000000e+00,-3.044724009425465311e-02,0.000000000000000000e+00,-6.089448018850930622e-02,8.981594255629006378e-05,-8.018136405025081976e-04,-8.613292793205282530e-03
1.333333333333333315e-01,1.684344309219786644e+09,0.000000000000000000e+00,-3.044724009425465311e-02,0.000000000000000000e+00,-6.089448018850930622e-02,-1.525479557613418196e-05,-9.483863430849713040e-04,-8.974428338786666695e-03
1.499999999999999944e-01,1.684344309238807201e+09,0.000000000000000000e+00,-3.044724009425465311e-02,0.000000000000000000e+00,-6.089448018850930622e-02,-2.056419948838395417e-04,-1.100954387580338392e-03,-9.332741662443607214e-03
1.666666666666666574e-01,1.684344309255787849e+09,0.000000000000000000e+00,-3.044724009425465311e-02,0.000000000000000000e+00,-6.089448018850930622e-02,-5.014856788657840901e-04,-1.259485692465518595e-03,-9.690022453777100489e-03
1.833333333333333204e-01,1.684344309271814585e+09,0.000000000000000000e+00,-3.044724009425465311e-02,0.000000000000000000e+00,-6.089448018850930622e-02,-9.224812284032526434e-04,-1.423980477520452037e-03,-1.004835635743313305e-02
2.000000000000000111e-01,1.684344309287785530e+09,0.000000000000000000e+00,-3.044724009425465311e-02,0.000000000000000000e+00,-6.089448018850930622e-02,-1.487388602520718075e-03,-1.594476026333800211e-03,-1.041010462023270709e-02
2.166666666666666741e-01,1.684344309303785324e+09,0.000000000000000000e+00,-3.044724009425465311e-02,0.000000000000000000e+00,-6.089448018850930622e-02,-2.213530196275014048e-03,-1.771051043049168012e-03,-1.077787577502616750e-02
2.333333333333333370e-01,1.684344309321807623e+09,0.000000000000000000e+00,-3.044724009425465311e-02,0.000000000000000000e+00,-6.089448018850930622e-02,-3.116285697010623152e-03,-1.953829471315896710e-03,-1.115448944328052694e-02
2.500000000000000000e-01,1.684344309339807510e+09,0.000000000000000000e+00,-1.442237688675220356e-02,0.000000000000000000e+00,-2.884475377350440711e-02,-4.208592632054330464e-03,-2.140770283862485340e-03,-1.127806478938071441e-02
2.666666666666666630e-01,1.684344309357751369e+09,0.000000000000000000e+00,-1.442237688675220356e-02,0.000000000000000000e+00,-2.884475377350440711e-02,-5.500461505904510016e-03,-2.329932050795741581e-03,-1.142095032899173752e-02
2.833333333333333259e-01,1.684344309373787165e+09,0.000000000000000000e+00,-1.442237688675220356e-02,0.000000000000000000e+00,-2.884475377350440711e-02,-6.998514497277816097e-03,-2.521662419793808257e-03,-1.158623481639417183e-02
2.999999999999999889e-01,1.684344309392789841e+09,0.000000000000000000e+00,-1.442237688675220356e-02,0.000000000000000000e+00,-2.884475377350440711e-02,-8.705556622000116054e-03,-2.716360478582741274e-03,-1.177700231608444330e-02
3.166666666666666519e-01,1.684344309409771681e+09,0.000000000000000000e+00,1.602486320750845994e-03,0.000000000000000000e+00,3.204972641501691987e-03,-1.062018806455587543e-02,-2.912262734545627112e-03,-1.173139508918497401e-02
3.333333333333333148e-01,1.684344309426810503e+09,0.000000000000000000e+00,1.602486320750845994e-03,0.000000000000000000e+00,3.204972641501691987e-03,-1.273646603898170686e-02,-3.107703470722914061e-03,-1.172152068164486818e-02
3.499999999999999778e-01,1.684344309442753792e+09,0.000000000000000000e+00,1.602486320750845994e-03,0.000000000000000000e+00,3.204972641501691987e-03,-1.504362406053440758e-02,-3.303299663116438054e-03,-1.174994345158106995e-02
3.666666666666666408e-01,1.684344309461791039e+09,0.000000000000000000e+00,1.602486320750845994e-03,0.000000000000000000e+00,3.204972641501691987e-03,-1.752585589700288160e-02,-3.499708489674881618e-03,-1.181892411796016049e-02
3.833333333333333037e-01,1.684344309476788044e+09,0.000000000000000000e+00,1.602486320750845994e-03,0.000000000000000000e+00,3.204972641501691987e-03,-2.016217072846378244e-02,-3.697621595482216816e-03,-1.193033908561470791e-02
4.000000000000000222e-01,1.684344309495785475e+09,0.000000000000000000e+00,1.602486320750845994e-03,0.000000000000000000e+00,3.204972641501691987e-03,-2.292632518442071568e-02,-3.897758015118892548e-03,-1.208559998037253037e-02
4.166666666666666852e-01,1.684344309510787725e+09,0.000000000000000000e+00,1.602486320750845994e-03,0.000000000000000000e+00,3.204972641501691987e-03,-2.578683695719109423e-02,-4.100855766935978738e-03,-1.228557473916278182e-02
4.333333333333333481e-01,1.684344309528785706e+09,0.000000000000000000e+00,1.602486320750845994e-03,0.000000000000000000e+00,3.204972641501691987e-03,-2.870708362143114395e-02,-4.307662156712487034e-03,-1.253051163773094556e-02
4.500000000000000111e-01,1.684344309545786142e+09,0.000000000000000000e+00,1.602486320750845994e-03,0.000000000000000000e+00,3.204972641501691987e-03,-3.164548913476861874e-02,-4.518922851360833264e-03,-1.281996765664956267e-02
4.666666666666666741e-01,1.684344309562786579e+09,0.000000000000000000e+00,1.602486320750845994e-03,0.000000000000000000e+00,3.204972641501691987e-03,-3.455579926806228580e-02,-4.735369806669165182e-03,-1.315274258379642118e-02
4.833333333333333370e-01,1.684344309578786373e+09,0.000000000000000000e+00,1.602486320750845994e-03,0.000000000000000000e+00,3.204972641501691987e-03,-3.738744593155500506e-02,-4.957708156174366748e-03,-1.352682022780462255e-02
5.000000000000000000e-01,1.684344309597787619e+09,0.000000000000000000e+00,1.602486320750845994e-03,0.000000000000000000e+00,3.204972641501691987e-03,-4.008599904196973734e-02,-5.186602190790971789e-03,-1.393931807187499990e-02
5.166666666666666075e-01,1.684344309615786076e+09,0.000000000000000000e+00,1.602486320750845994e-03,0.000000000000000000e+00,3.204972641501691987e-03,-4.259370323315544299e-02,-5.422660580421526967e-03,-1.438644663078452075e-02
5.333333333333333259e-01,1.684344309632786751e+09,0.000000000000000000e+00,1.602486320750845994e-03,0.000000000000000000e+00,3.204972641501691987e-03,-4.485009536764018867e-02,-5.666421009088403252e-03,-1.486347968623246731e-02
5.500000000000000444e-01,1.684344309650789261e+09,0.000000000000000000e+00,1.602486320750845994e-03,0.000000000000000000e+00,3.204972641501691987e-03,-4.679269747725255113e-02,-5.918334413808450101e-03,-1.536473646745411571e-02
5.666666666666666519e-01,1.684344309667807817e+09,0.000000000000000000e+00,1.602486320750845994e-03,0.000000000000000000e+00,3.204972641501691987e-03,-4.835777846687951825e-02,-6.178749034146007076e-03,-1.588357671621870235e-02
5.833333333333333703e-01,1.684344309683786154e+09,0.000000000000000000e+00,1.602486320750845994e-03,0.000000000000000000e+00,3.204972641501691987e-03,-4.948117667543420334e-02,-6.447894493810037153e-03,-1.641240942913272868e-02
5.999999999999999778e-01,1.684344309701786757e+09,0.000000000000000000e+00,1.602486320750845994e-03,0.000000000000000000e+00,3.204972641501691987e-03,-5.009917422088577127e-02,-6.725866147513795065e-03,-1.694271590709788694e-02
6.166666666666666963e-01,1.684344309718788624e+09,0.000000000000000000e+00,1.602486320750845994e-03,0.000000000000000000e+00,3.204972641501691987e-03,-5.014941297985615193e-02,-7.012609935324084186e-03,-1.746508756360602016e-02
6.333333333333333037e-01,1.684344309734793901e+09,0.000000000000000000e+00,1.602486320750845994e-03,0.000000000000000000e+00,3.204972641501691987e-03,-4.957184108409306428e-02,-7.307907992657229623e-03,-1.796927875232857963e-02
6.500000000000000222e-01,1.684344309754808187e+09,0.000000000000000000e+00,1.602486320750845994e-03,0.000000000000000000e+00,3.204972641501691987e-03,-4.830967797228201410e-02,-7.611365266731734067e-03,-1.844427467244626195e-02
6.666666666666666297e-01,1.684344309770807505e+09,0.000000000000000000e+00,1.602486320750845994e-03,0.000000000000000000e+00,3.204972641501691987e-03,-4.631038533105183430e-02,-7.922397389504174867e-03,-1.887837419984550458e-02
6.833333333333333481e-01,1.684344309790808678e+09,0.000000000000000000e+00,1.602486320750845994e-03,0.000000000000000000e+00,3.204972641501691987e-03,-4.352663070701500575e-02,-8.240220052778923082e-03,-1.925928727634182436e-02
6.999999999999999556e-01,1.684344309805787086e+09,0.000000000000000000e+00,1.602486320750845994e-03,0.000000000000000000e+00,3.204972641501691987e-03,-3.991723018386963279e-02,-8.563840123223176101e-03,-1.957424627028288289e-02
7.166666666666666741e-01,1.684344309825773954e+09,0.000000000000000000e+00,1.602486320750845994e-03,0.000000000000000000e+00,3.204972641501691987e-03,-3.544805630466003193e-02,-8.892048723413530087e-03,-1.981013050315768090e-02
7.333333333333332815e-01,1.684344309840807915e+09,0.000000000000000000e+00,1.602486320750845994e-03,0.000000000000000000e+00,3.204972641501691987e-03,-3.009289738682116230e-02,-9.223416489815384339e-03,-1.995360292119033319e-02
7.500000000000000000e-01,1.684344309859807730e+09,0.000000000000000000e+00,1.602486320750845994e-03,0.000000000000000000e+00,3.204972641501691987e-03,-2.383425453196697658e-02,-9.556291199828486835e-03,-1.999125768136416487e-02
7.666666666666666075e-01,1.684344309874812603e+09,0.000000000000000000e+00,1.602486320750845994e-03,0.000000000000000000e+00,3.204972641501691987e-03,-1.666406297649504487e-02,-9.888797937848196190e-03,-1.990977722094019325e-02
7.833333333333333259e-01,1.684344309893811464e+09,0.000000000000000000e+00,1.602486320750845994e-03,0.000000000000000000e+00,3.204972641501691987e-03,-8.584324963527735844e-03,-1.021884194487011378e-02,-1.969609719129788994e-02
8.000000000000000444e-01,1.684344309911785841e+09,0.000000000000000000e+00,1.602486320750845994e-03,0.000000000000000000e+00,3.204972641501691987e-03,3.923579604859778864e-04,-1.054411426773240422e-02,-1.933757746374831915e-02
8.166666666666666519e-01,1.684344309927785873e+09,0.000000000000000000e+00,1.602486320750845994e-03,0.000000000000000000e+00,3.204972641501691987e-03,1.024236441449251009e-02,-1.086210029291956487e-02,-1.882217725964043659e-02
8.333333333333333703e-01,1.684344309944808483e+09,0.000000000000000000e+00,1.602486320750845994e-03,0.000000000000000000e+00,3.204972641501691987e-03,2.093075452330763961e-02,-1.117009121626326082e-02,-1.813863232222909933e-02
8.499999999999999778e-01,1.684344309963809967e+09,0.000000000000000000e+00,-3.324739921965586542e-01,-6.681529570346189661e-01,3.204972641501691987e-03,3.241110198532515252e-02,-1.151134127413879112e-02,-2.279843043454079371e-02
8.666666666666666963e-01,1.684344309979807615e+09,0.000000000000000000e+00,-2.839449103361174065e-01,-5.710947933137364707e-01,3.204972641501691987e-03,4.462546431651612938e-02,-1.192122110542482953e-02,-2.637720803691477600e-02
8.833333333333333037e-01,1.684344309996786118e+09,0.000000000000000000e+00,-3.870692092895548497e-01,-7.773433912206114682e-01,3.204972641501691987e-03,5.750449717207246902e-02,-1.240271764871884834e-02,-3.138845669557879803e-02
9.000000000000000222e-01,1.684344310012809038e+09,0.000000000000000000e+00,-2.778787751035624032e-01,-5.589625228486264641e-01,3.204972641501691987e-03,7.096771697444352600e-02,-1.295010186293588453e-02,-3.428959011684707542e-02
9.166666666666666297e-01,1.684344310032807112e+09,0.000000000000000000e+00,1.602486320750845994e-03,0.000000000000000000e+00,3.204972641501691987e-03,8.492391429740479836e-02,-1.350490786662598454e-02,-3.229267743618771669e-02
9.333333333333333481e-01,1.684344310049809694e+09,0.000000000000000000e+00,1.602486320750845994e-03,0.000000000000000000e+00,3.204972641501691987e-03,9.927171859037402235e-02,-1.402472608099286470e-02,-3.009162247330209039e-02
9.499999999999999556e-01,1.684344310065808535e+09,0.000000000000000000e+00,1.602486320750845994e-03,0.000000000000000000e+00,3.204972641501691987e-03,1.139003128972595064e-01,-1.450614354804313950e-02,-2.768515835261831093e-02
9.666666666666666741e-01,1.684344310082807541e+09,0.000000000000000000e+00,1.602486320750845994e-03,0.000000000000000000e+00,3.204972641501691987e-03,1.286902952528179156e-01,-1.494574286203106603e-02,-2.507401267907090683e-02
9.833333333333332815e-01,1.684344310101811886e+09,0.000000000000000000e+00,1.602486320750845994e-03,0.000000000000000000e+00,3.204972641501691987e-03,1.435146814510703528e-01,-1.534013618258454024e-02,-2.226099989565374568e-02
1.000000000000000000e+00,1.684344310120787621e+09,0.000000000000000000e+00,1.602486320750845994e-03,0.000000000000000000e+00,3.204972641501691987e-03,1.582400418997647329e-01,-1.568600061734428189e-02,-1.925109332388540845e-02
1.016666666666666607e+00,1.684344310135807753e+09,0.000000000000000000e+00,1.602486320750845994e-03,0.000000000000000000e+00,3.204972641501691987e-03,1.727277633277541358e-01,-1.598011462105951297e-02,-1.605147515936176245e-02
1.033333333333333215e+00,1.684344310151793480e+09,0.000000000000000000e+00,1.602486320750845994e-03,0.000000000000000000e+00,3.204972641501691987e-03,1.868354242241522245e-01,-1.621939503106108876e-02,-1.267156290694513437e-02
1.050000000000000044e+00,1.684344310169788361e+09,0.000000000000000000e+00,1.602486320750845994e-03,0.000000000000000000e+00,3.204972641501691987e-03,2.004182710848469440e-01,-1.640093433576999063e-02,-9.123010978809603655e-03
1.066666666666666652e+00,1.684344310188785791e+09,0.000000000000000000e+00,1.602486320750845994e-03,0.000000000000000000e+00,3.204972641501691987e-03,2.133307808484856682e-01,-1.652203775381471534e-02,-5.419686441277604683e-03
1.083333333333333259e+00,1.684344310205787897e+09,0.000000000000000000e+00,1.602486320750845994e-03,0.000000000000000000e+00,3.204972641501691987e-03,2.254282933447658566e-01,-1.658025968680458540e-02,-1.577618180529123150e-03
1.100000000000000089e+00,1.684344310224794149e+09,0.000000000000000000e+00,1.602486320750845994e-03,0.000000000000000000e+00,3.204972641501691987e-03,2.365686961759624063e-01,-1.657343909916945274e-02,2.385080940114297533e-03
1.116666666666666696e+00,1.684344310242808342e+09,0.000000000000000000e+00,1.602486320750845994e-03,0.000000000000000000e+00,3.204972641501691987e-03,2.466141432299334413e-01,-1.649973337401059587e-02,6.448319040800177572e-03
1.133333333333333304e+00,1.684344310258752108e+09,0.000000000000000000e+00,1.602486320750845994e-03,0.000000000000000000e+00,3.204972641501691987e-03,2.554327869994501010e-01,-1.635765019483651633e-02,1.059015708362944647e-02
1.149999999999999911e+00,1.684344310278808117e+09,0.000000000000000000e+00,1.602486320750845994e-03,0.000000000000000000e+00,3.204972641501691987e-03,2.629005040766601020e-01,-1.614607700954353783e-02,1.478696707162664714e-02
1.166666666666666741e+00,1.684344310295807838e+09,0.000000000000000000e+00,1.602486320750845994e-03,0.000000000000000000e+00,3.204972641501691987e-03,2.689025926186139892e-01,-1.586430764514261751e-02,1.901361568954847148e-02
1.183333333333333348e+00,1.684344310312786818e+09,0.000000000000000000e+00,1.602486320750845994e-03,0.000000000000000000e+00,3.204972641501691987e-03,2.733354202533535560e-01,-1.551206565956098592e-02,2.324367214686857974e-02
1.199999999999999956e+00,1.684344310328786135e+09,0.000000000000000000e+00,1.602486320750845994e-03,0.000000000000000000e+00,3.204972641501691987e-03,2.761080008265711094e-01,-1.508952404032037030e-02,2.744963864674999574e-02
1.216666666666666563e+00,1.684344310345810890e+09,0.000000000000000000e+00,-2.718126398710073999e-01,-5.468302523835164575e-01,3.204972641501691987e-03,2.771434785839496651e-01,-1.463508512255803917e-02,2.708404704087003650e-02
1.233333333333333393e+00,1.684344310364787340e+09,0.000000000000000000e+00,-3.931353445221099085e-01,-7.894756616857214748e-01,3.204972641501691987e-03,2.763804988484424019e-01,-1.420355143817673450e-02,2.470659926192760730e-02
1.250000000000000000e+00,1.684344310381807804e+09,0.000000000000000000e+00,-3.567385331267797777e-01,-7.166820388950613241e-01,3.204972641501691987e-03,2.737744449863011575e-01,-1.380664631287986666e-02,2.292695933428942970e-02
1.266666666666666607e+00,1.684344310399788857e+09,0.000000000000000000e+00,-3.142755864988935888e-01,-6.317561456392888353e-01,3.204972641501691987e-03,2.692985224585835446e-01,-1.343390926156569354e-02,2.180460454897008987e-02
1.283333333333333215e+00,1.684344310413811684e+09,0.000000000000000000e+00,-2.778787751035624032e-01,-5.589625228486264641e-01,3.204972641501691987e-03,2.629446720208438171e-01,-1.307557355437917110e-02,2.119736712373825743e-02
1.300000000000000044e+00,1.684344310434786558e+09,0.000000000000000000e+00,-3.446062626616686608e-01,-6.924174979648389794e-01,3.204972641501691987e-03,2.547242956540717307e-01,-1.273762643537247434e-02,1.936138722127161288e-02
1.316666666666666652e+00,1.684344310450809240e+09,0.000000000000000000e+00,-3.082094512663385855e-01,-6.196238751741788287e-01,3.204972641501691987e-03,2.446687805726483200e-01,-1.242638712195623385e-02,1.799113672962720026e-02
1.333333333333333259e+00,1.684344310469787359e+09,0.000000000000000000e+00,1.602486320750845994e-03,0.000000000000000000e+00,3.204972641501691987e-03,2.328298086449759607e-01,-1.209663988235564099e-02,2.156859440612205261e-02
1.350000000000000089e+00,1.684344310485808849e+09,0.000000000000000000e+00,1.602486320750845994e-03,0.000000000000000000e+00,3.204972641501691987e-03,2.192794407610677565e-01,-1.170963405195949401e-02,2.486295402708954896e-02
1.366666666666666696e+00,1.684344310502790928e+09,0.000000000000000000e+00,1.602486320750845994e-03,0.000000000000000000e+00,3.204972641501691987e-03,2.041099680675138583e-01,-1.127027246161275802e-02,2.785213334321389247e-02
1.383333333333333304e+00,1.684344310520808697e+09,0.000000000000000000e+00,1.602486320750845994e-03,0.000000000000000000e+00,3.204972641501691987e-03,1.874335245397107941e-01,-1.078380744163706662e-02,3.051626850424589421e-02
1.399999999999999911e+00,1.684344310537812471e+09,0.000000000000000000e+00,1.602486320750845994e-03,0.000000000000000000e+00,3.204972641501691987e-03,1.693814580474408971e-01,-1.025580150108664976e-02,3.283799496983200866e-02
1.416666666666666741e+00,1.684344310553807497e+09,0.000000000000000000e+00,1.602486320750845994e-03,0.000000000000000000e+00,3.204972641501691987e-03,1.501034598639217066e-01,-9.692083484189305612e-03,3.480270938934587610e-02
1.433333333333333348e+00,1.684344310571789503e+09,0.000000000000000000e+00,1.602486320750845994e-03,0.000000000000000000e+00,3.204972641501691987e-03,1.297664554393984093e-01,-9.098700551501383987e-03,3.639880881932711088e-02
1.449999999999999956e+00,1.684344310587808609e+09,0.000000000000000000e+00,1.602486320750845994e-03,0.000000000000000000e+00,3.204972641501691987e-03,1.085532621757062527e-01,-8.481866392535139174e-03,3.761790380196848582e-02
1.466666666666666563e+00,1.684344310605787516e+09,0.000000000000000000e+00,1.602486320750845994e-03,0.000000000000000000e+00,3.204972641501691987e-03,8.666102286417561029e-02,-7.847906132882805433e-03,3.845500202873159551e-02
1.483333333333333393e+00,1.684344310622811317e+09,0.000000000000000000e+00,1.602486320750845994e-03,0.000000000000000000e+00,3.204972641501691987e-03,6.429942635105356796e-02,-7.203198451410706624e-03,3.890865955845623780e-02
1.500000000000000000e+00,1.684344310639808416e+09,0.000000000000000000e+00,1.602486320750845994e-03,0.000000000000000000e+00,3.204972641501691987e-03,4.168872983701206458e-02,-6.554115471198837008e-03,3.898109684754041959e-02
1.516666666666666607e+00,1.684344310655786276e+09,0.000000000000000000e+00,1.602486320750845994e-03,0.000000000000000000e+00,3.204972641501691987e-03,1.905759996497390779e-02,-5.906961030860284449e-03,3.867827717863061426e-02
1.533333333333333215e+00,1.684344310672788620e+09,0.000000000000000000e+00,1.602486320750845994e-03,0.000000000000000000e+00,3.204972641501691987e-03,-3.359207531647331098e-03,-5.267907980036568016e-03,3.800994544095862016e-02
1.550000000000000044e+00,1.684344310690787315e+09,0.000000000000000000e+00,1.602486320750845994e-03,0.000000000000000000e+00,3.204972641501691987e-03,-2.532330739440820030e-02,-4.642935173626797779e-03,3.698962561665455895e-02
1.566666666666666652e+00,1.684344310708752871e+09,0.000000000000000000e+00,1.602486320750845994e-03,0.000000000000000000e+00,3.204972641501691987e-03,-4.659525913657766583e-02,-4.037764863127571262e-03,3.563457575922488602e-02
1.583333333333333259e+00,1.684344310725809574e+09,0.000000000000000000e+00,1.602486320750845994e-03,0.000000000000000000e+00,3.204972641501691987e-03,-6.693722956098269172e-02,-3.457801199861476257e-03,3.396569970862159393e-02
1.600000000000000089e+00,1.684344310742787361e+09,0.000000000000000000e+00,1.602486320750845994e-03,0.000000000000000000e+00,3.204972641501691987e-03,-8.611571521944018370e-02,-2.908070573454597189e-03,3.200741526723655667e-02
1.616666666666666696e+00,1.684344310758752823e+09,0.000000000000000000e+00,-2.778787751035624032e-01,-5.589625228486264641e-01,3.204972641501691987e-03,-1.039042950504649593e-01,-2.431766600649905383e-03,2.516806012519807664e-02
1.633333333333333304e+00,1.684344310775752306e+09,0.000000000000000000e+00,-3.324739921965586542e-01,-6.681529570346189661e-01,3.204972641501691987e-03,-1.200863822582547841e-01,-2.078283021653522505e-03,1.727190363862146985e-02
1.649999999999999911e+00,1.684344310793807507e+09,0.000000000000000000e+00,-4.234660206848860353e-01,-8.501370140112737284e-01,3.204972641501691987e-03,-1.344579436536519901e-01,-1.869864301301005357e-03,7.764752179293319539e-03
1.666666666666666741e+00,1.684344310811807156e+09,0.000000000000000000e+00,-3.082094512663385855e-01,-6.196238751741788287e-01,3.204972641501691987e-03,-1.468301541848766323e-01,-1.804374533781418453e-03,1.152689875868126435e-04
1.683333333333333348e+00,1.684344310828749895e+09,0.000000000000000000e+00,-3.870692092895548497e-01,-7.773433912206114682e-01,3.204972641501691987e-03,-1.570319542565753179e-01,-1.877620829198184708e-03,-8.879837442765256550e-03
1.699999999999999956e+00,1.684344310845790386e+09,0.000000000000000000e+00,-2.960771808012274686e-01,-5.953593342439565950e-01,3.204972641501691987e-03,-1.649124776804623271e-01,-2.088063753982612267e-03,-1.635255549267565847e-02
1.716666666666666563e+00,1.684344310859754562e+09,0.000000000000000000e+00,-3.264078569640036509e-01,-6.560206865695089595e-01,3.204972641501691987e-03,-1.703433187257501202e-01,-2.426959242653899812e-03,-2.429284626550026749e-02
1.733333333333333393e+00,1.684344310876752377e+09,0.000000000000000000e+00,-3.628046683593348365e-01,-7.288143093601713307e-01,3.204972641501691987e-03,-1.732206077445465897e-01,-2.902520752294589484e-03,-3.275103935759093171e-02
1.750000000000000000e+00,1.684344310895797253e+09,0.000000000000000000e+00,-3.870692092895548497e-01,-7.773433912206114682e-01,3.204972641501691987e-03,-1.734668662339714229e-01,-3.521269340799206612e-03,-4.147455869447841392e-02
1.766666666666666607e+00,1.684344310913813353e+09,0.000000000000000000e+00,-3.810030740569997909e-01,-7.652111207555013506e-01,3.204972641501691987e-03,-1.710326139558683567e-01,-4.283030943643932262e-03,-4.991339189184815922e-02
1.783333333333333215e+00,1.684344310931786299e+09,0.000000000000000000e+00,-3.931353445221099085e-01,-7.894756616857214748e-01,3.204972641501691987e-03,-1.658977028552527100e-01,-5.185240669359769683e-03,-5.832839962242170051e-02
1.800000000000000044e+00,1.684344310947784901e+09,0.000000000000000000e+00,-3.142755864988935888e-01,-6.317561456392888353e-01,3.204972641501691987e-03,-1.580723549840655218e-01,-6.214565248772400269e-03,-6.517154073439172801e-02
1.816666666666666652e+00,1.684344310963751316e+09,0.000000000000000000e+00,-3.082094512663385855e-01,-6.196238751741788287e-01,3.204972641501691987e-03,-1.475978844272114177e-01,-7.354712405261363758e-03,-7.162818250612859594e-02
1.833333333333333259e+00,1.684344310982807875e+09,0.000000000000000000e+00,1.602486320750845994e-03,0.000000000000000000e+00,3.204972641501691987e-03,-1.345470863186848942e-01,-8.556984501209268651e-03,-7.264165374347959780e-02
1.849999999999999867e+00,1.684344311000807285e+09,0.000000000000000000e+00,1.602486320750845994e-03,0.000000000000000000e+00,3.204972641501691987e-03,-1.190242793984241376e-01,-9.773863785456100156e-03,-7.338180434386065709e-02
1.866666666666666696e+00,1.684344311017808676e+09,0.000000000000000000e+00,-2.960771808012274686e-01,-5.953593342439565950e-01,3.204972641501691987e-03,-1.011649921631075921e-01,-1.104162561356463249e-02,-7.873474539849104059e-02
1.883333333333333304e+00,1.684344311033786535e+09,0.000000000000000000e+00,1.602486320750845994e-03,0.000000000000000000e+00,3.204972641501691987e-03,-8.113528647067363986e-02,-1.235398159792662487e-02,-7.874793608329443140e-02
1.899999999999999911e+00,1.684344311049752474e+09,0.000000000000000000e+00,1.602486320750845994e-03,0.000000000000000000e+00,3.204972641501691987e-03,-5.913071643010643641e-02,-1.366351632293772225e-02,-7.839720519343926219e-02
1.916666666666666741e+00,1.684344311068808317e+09,0.000000000000000000e+00,1.602486320750845994e-03,0.000000000000000000e+00,3.204972641501691987e-03,-3.537492450337736960e-02,-1.496397281440903573e-02,-7.765962267167839106e-02
1.933333333333333348e+00,1.684344311086808443e+09,0.000000000000000000e+00,1.602486320750845994e-03,0.000000000000000000e+00,3.204972641501691987e-03,-1.011788092137044966e-02,-1.624874962365485676e-02,-7.651676910577623336e-02
1.949999999999999956e+00,1.684344311103807449e+09,0.000000000000000000e+00,1.602486320750845994e-03,0.000000000000000000e+00,3.204972641501691987e-03,1.636622327549322117e-02,-1.751097872728727203e-02,-7.495506150887308594e-02
1.966666666666666563e+00,1.684344311122808218e+09,0.000000000000000000e+00,1.602486320750845994e-03,0.000000000000000000e+00,3.204972641501691987e-03,4.378141506574156905e-02,-1.874360847483437162e-02,-7.296603340488444500e-02
1.983333333333333393e+00,1.684344311139786243e+09,0.000000000000000000e+00,1.602486320750845994e-03,0.000000000000000000e+00,3.204972641501691987e-03,7.181269150411753732e-02,-1.993949078564738464e-02,-7.054656479699028537e-02
2.000000000000000000e+00,1.684344311158787012e+09,0.000000000000000000e+00,1.602486320750845994e-03,0.000000000000000000e+00,3.204972641501691987e-03,1.001290623429407362e-01,-2.109147172660421829e-02,-6.769905804497192148e-02
2.016666666666666607e+00,1.684344311173786402e+09,0.000000000000000000e+00,1.602486320750845994e-03,0.000000000000000000e+00,3.204972641501691987e-03,1.283868566865270233e-01,-2.219248454009293062e-02,-6.443155618136191254e-02
2.033333333333333215e+00,1.684344311190786839e+09,0.000000000000000000e+00,1.602486320750845994e-03,0.000000000000000000e+00,3.204972641501691987e-03,1.562332634867010794e-01,-2.323564413857413802e-02,-6.075780075275650366e-02
2.049999999999999822e+00,1.684344311207787991e+09,0.000000000000000000e+00,1.602486320750845994e-03,0.000000000000000000e+00,3.204972641501691987e-03,1.833100722780745262e-01,-2.421434203850400535e-02,-5.669722687617954893e-02
2.066666666666666430e+00,1.684344311223788023e+09,0.000000000000000000e+00,1.602486320750845994e-03,0.000000000000000000e+00,3.204972641501691987e-03,2.092575774382949005e-01,-2.512234067328774495e-02,-5.227489384541171569e-02
2.083333333333333481e+00,1.684344311240787268e+09,0.000000000000000000e+00,1.602486320750845994e-03,0.000000000000000000e+00,3.204972641501691987e-03,2.337186064827050103e-01,-2.595386600286655326e-02,-4.752135030244197811e-02
2.100000000000000089e+00,1.684344311258785963e+09,0.000000000000000000e+00,1.602486320750845994e-03,0.000000000000000000e+00,3.204972641501691987e-03,2.563426305038961073e-01,-2.670369732704869215e-02,-4.247243369784906020e-02
2.116666666666666696e+00,1.684344311273807049e+09,0.000000000000000000e+00,1.602486320750845994e-03,0.000000000000000000e+00,3.204972641501691987e-03,2.767899128798875785e-01,-2.736725321119059390e-02,-3.716900449369651971e-02
2.133333333333333304e+00,1.684344311294808626e+09,0.000000000000000000e+00,1.602486320750845994e-03,0.000000000000000000e+00,3.204972641501691987e-03,2.947356508319640689e-01,-2.794067244660421168e-02,-3.165661630573765595e-02
2.149999999999999911e+00,1.684344311311807394e+09,0.000000000000000000e+00,1.602486320750845994e-03,0.000000000000000000e+00,3.204972641501691987e-03,3.098740633417528256e-01,-2.842088899426940818e-02,-2.598512393036406590e-02
2.166666666666666519e+00,1.684344311327807665e+09,0.000000000000000000e+00,-1.442237688675220356e-02,0.000000000000000000e+00,-2.884475377350440711e-02,3.219223783597077726e-01,-2.880791326118863072e-02,-2.047309963889558382e-02
2.183333333333333126e+00,1.684344311349776983e+09,0.000000000000000000e+00,-3.082094512663385855e-01,-6.196238751741788287e-01,3.204972641501691987e-03,3.306246721712665093e-01,-2.914320783227000722e-02,-1.976421805273207571e-02
2.200000000000000178e+00,1.684344311362787247e+09,0.000000000000000000e+00,1.602486320750845994e-03,0.000000000000000000e+00,3.204972641501691987e-03,3.357555142448558905e-01,-2.942328556745294268e-02,-1.386150697478902641e-02
2.216666666666666785e+00,1.684344311380807400e+09,0.000000000000000000e+00,1.602486320750845994e-03,0.000000000000000000e+00,3.204972641501691987e-03,3.371233718742320251e-01,-2.960561114089124007e-02,-8.033750431434349276e-03
2.233333333333333393e+00,1.684344311398807287e+09,0.000000000000000000e+00,1.602486320750845994e-03,0.000000000000000000e+00,3.204972641501691987e-03,3.345737304472364282e-01,-2.969196452899470345e-02,-2.344460097197765928e-03
2.250000000000000000e+00,1.684344311417807817e+09,0.000000000000000000e+00,1.602486320750845994e-03,0.000000000000000000e+00,3.204972641501691987e-03,3.279918872188212764e-01,-2.968519130661817149e-02,3.142006239418571913e-03
2.266666666666666607e+00,1.684344311432807446e+09,0.000000000000000000e+00,1.602486320750845994e-03,0.000000000000000000e+00,3.204972641501691987e-03,3.173053790271779806e-01,-2.958921079794306006e-02,8.361156819875606439e-03
2.283333333333333215e+00,1.684344311451807737e+09,0.000000000000000000e+00,1.602486320750845994e-03,0.000000000000000000e+00,3.204972641501691987e-03,3.024860074509662100e-01,-2.940901217693925665e-02,1.324909976173375276e-02
2.299999999999999822e+00,1.684344311468809605e+09,0.000000000000000000e+00,1.602486320750845994e-03,0.000000000000000000e+00,3.204972641501691987e-03,2.835514284401525198e-01,-2.915063821885667192e-02,1.774329104966622384e-02
2.316666666666666430e+00,1.684344311484809637e+09,0.000000000000000000e+00,1.602486320750845994e-03,0.000000000000000000e+00,3.204972641501691987e-03,2.605662774341703791e-01,-2.882115653311091361e-02,2.178328875983582061e-02
2.333333333333333481e+00,1.684344311505807161e+09,0.000000000000000000e+00,1.602486320750845994e-03,0.000000000000000000e+00,3.204972641501691987e-03,2.336428053749258216e-01,-2.842861824209009375e-02,2.531150533040961437e-02
2.350000000000000089e+00,1.684344311520813465e+09,0.000000000000000000e+00,1.602486320750845994e-03,0.000000000000000000e+00,3.204972641501691987e-03,2.029410057891279096e-01,-2.798200420847102299e-02,2.827394949862185522e-02
2.366666666666666696e+00,1.684344311538814306e+09,0.000000000000000000e+00,1.602486320750845994e-03,0.000000000000000000e+00,3.204972641501691987e-03,1.686682182101879035e-01,-2.749115905416997171e-02,3.062094941983644833e-02
2.383333333333333304e+00,1.684344311554808617e+09,0.000000000000000000e+00,1.602486320750845994e-03,0.000000000000000000e+00,3.204972641501691987e-03,1.310781985856151188e-01,-2.696671335558243135e-02,3.230784846968833696e-02
2.399999999999999911e+00,1.684344311573808670e+09,0.000000000000000000e+00,1.602486320750845994e-03,0.000000000000000000e+00,3.204972641501691987e-03,9.046965291853741042e-02,-2.641999454075920351e-02,3.329566530885324366e-02
2.416666666666666519e+00,1.684344311588807583e+09,0.000000000000000000e+00,1.602486320750845994e-03,0.000000000000000000e+00,3.204972641501691987e-03,4.718423616508984897e-02,-2.586292715306477349e-02,3.355170996258949323e-02
2.433333333333333126e+00,1.684344311609752893e+09,0.000000000000000000e+00,1.602486320750845994e-03,0.000000000000000000e+00,3.204972641501691987e-03,1.604024293387475673e-03,-2.530792328109700284e-02,3.305014793419069896e-02
2.450000000000000178e+00,1.684344311626787663e+09,0.000000000000000000e+00,1.602486320750845994e-03,0.000000000000000000e+00,3.204972641501691987e-03,-4.585152665726216492e-02,-2.476776408464784196e-02,3.177250473213301396e-02
2.466666666666666785e+00,1.684344311642752409e+09,0.000000000000000000e+00,1.602486320750845994e-03,0.000000000000000000e+00,3.204972641501691987e-03,-9.472911476018376631e-02,-2.425547346970701942e-02,2.970810364320164085e-02
2.483333333333333393e+00,1.684344311659800291e+09,0.000000000000000000e+00,1.602486320750845994e-03,0.000000000000000000e+00,3.204972641501691987e-03,-1.445455940331189792e-01,-2.378418508044740504e-02,2.685443012540255497e-02
2.500000000000000000e+00,1.684344311676751852e+09,0.000000000000000000e+00,-2.900110455686724098e-01,-5.832270637788464773e-01,3.204972641501691987e-03,-1.947924126296019243e-01,-2.340728168786184241e-02,1.839746909617908863e-02
2.516666666666666607e+00,1.684344311693799496e+09,0.000000000000000000e+00,-4.355982911499960419e-01,-8.744015549414937416e-01,3.204972641501691987e-03,-2.449404506182293606e-01,-2.319719462111915001e-02,6.845069666632640215e-03
2.533333333333333215e+00,1.684344311711790323e+09,0.000000000000000000e+00,-4.598628320802172209e-01,-9.229306368019360995e-01,3.204972641501691987e-03,-2.944452153689862128e-01,-2.318824097500479103e-02,-5.735684770301775065e-03
2.549999999999999822e+00,1.684344311728786707e+09,0.000000000000000000e+00,-4.962596434755472963e-01,-9.957242595925963613e-01,3.204972641501691987e-03,-3.427523476929293378e-01,-2.339892826039707482e-02,-1.950853067105076666e-02
2.566666666666666430e+00,1.684344311746808052e+09,0.000000000000000000e+00,-4.901935082429922930e-01,-9.835919891274862437e-01,3.204972641501691987e-03,-3.893033874050615961e-01,-2.384285246032796443e-02,-3.372288806525410715e-02
2.583333333333333481e+00,1.684344311763813019e+09,0.000000000000000000e+00,-3.931353445221099085e-01,-7.894756616857214748e-01,3.204972641501691987e-03,-4.335417429566906788e-01,-2.451442382443316803e-02,-4.682926815912891172e-02
2.600000000000000089e+00,1.684344311779808044e+09,0.000000000000000000e+00,-4.173998854523310875e-01,-8.380047435461638328e-01,3.204972641501691987e-03,-4.749188062661148790e-01,-2.541169104814219523e-02,-6.080397913072731891e-02
2.616666666666666696e+00,1.684344311796785831e+09,0.000000000000000000e+00,-4.477305616151061596e-01,-8.986660958717139769e-01,3.204972641501691987e-03,-5.129001509135060477e-01,-2.654937521772551823e-02,-7.567680683662086905e-02
2.633333333333333304e+00,1.684344311815811872e+09,0.000000000000000000e+00,-4.962596434755472963e-01,-9.957242595925963613e-01,3.204972641501691987e-03,-5.469717495008765695e-01,-2.794429445388869546e-02,-9.166907748339808704e-02
2.649999999999999911e+00,1.684344311831788301e+09,0.000000000000000000e+00,-4.537966968476622176e-01,-9.107983663368262039e-01,3.204972641501691987e-03,-5.766461442488766131e-01,-2.960177631259664280e-02,-1.071856429762991225e-01
2.666666666666666519e+00,1.684344311849786997e+09,0.000000000000000000e+00,-4.173998854523310875e-01,-8.380047435461638328e-01,3.204972641501691987e-03,-6.014685038405421791e-01,-3.151412577135963289e-02,-1.222544333390840204e-01
2.683333333333333126e+00,1.684344311865808725e+09,0.000000000000000000e+00,-3.628046683593348365e-01,-7.288143093601713307e-01,3.204972641501691987e-03,-6.210224991532272698e-01,-3.367070051628838490e-02,-1.364949780526979739e-01
2.700000000000000178e+00,1.684344311882813692e+09,0.000000000000000000e+00,-2.900110455686724098e-01,-5.832270637788464773e-01,3.204972641501691987e-03,-6.349359308617782416e-01,-3.605451820059745599e-02,-1.495269433088964317e-01
2.716666666666666785e+00,1.684344311900786400e+09,0.000000000000000000e+00,1.602486320750845994e-03,0.000000000000000000e+00,3.204972641501691987e-03,-6.428860429596942039e-01,-3.861455559121793057e-02,-1.576549651955916898e-01
2.733333333333333393e+00,1.684344311917807817e+09,0.000000000000000000e+00,1.602486320750845994e-03,0.000000000000000000e+00,3.204972641501691987e-03,-6.446044580335283936e-01,-4.130917471519211792e-02,-1.656770456001638026e-01
2.750000000000000000e+00,1.684344311935791492e+09,0.000000000000000000e+00,1.602486320750845994e-03,0.000000000000000000e+00,3.204972641501691987e-03,-6.398816726350753381e-01,-4.413573485201847252e-02,-1.734884719019095245e-01
2.766666666666666607e+00,1.684344311951787472e+09,0.000000000000000000e+00,1.602486320750845994e-03,0.000000000000000000e+00,3.204972641501691987e-03,-6.285710543134405137e-01,-4.708984428086252644e-02,-1.809838386062769533e-01
2.783333333333333215e+00,1.684344311969786406e+09,0.000000000000000000e+00,1.602486320750845994e-03,0.000000000000000000e+00,3.204972641501691987e-03,-6.105922857751571176e-01,-5.016535798784212824e-02,-1.880581548902041100e-01
2.799999999999999822e+00,1.684344311987813711e+09,0.000000000000000000e+00,1.602486320750845994e-03,0.000000000000000000e+00,3.204972641501691987e-03,-5.859342062071688506e-01,-5.335439407187189675e-02,-1.946079808042812942e-01
2.816666666666666430e+00,1.684344312003808737e+09,0.000000000000000000e+00,1.602486320750845994e-03,0.000000000000000000e+00,3.204972641501691987e-03,-5.546570049894949950e-01,-5.664736923327425705e-02,-2.005325809540246806e-01
2.833333333333333481e+00,1.684344312020808220e+09,0.000000000000000000e+00,1.602486320750845994e-03,0.000000000000000000e+00,3.204972641501691987e-03,-5.168937287990897911e-01,-6.003305353922657600e-02,-2.057350840227113453e-01
2.850000000000000089e+00,1.684344312036808491e+09,0.000000000000000000e+00,1.602486320750845994e-03,0.000000000000000000e+00,3.204972641501691987e-03,-4.728510694141924708e-01,-6.349864446324700318e-02,-2.101236361502482886e-01
2.866666666666666696e+00,1.684344312055807829e+09,0.000000000000000000e+00,1.602486320750845994e-03,0.000000000000000000e+00,3.204972641501691987e-03,-4.228094063130057312e-01,-6.702985999423988206e-02,-2.136125359524596590e-01
2.883333333333333304e+00,1.684344312072786331e+09,0.000000000000000000e+00,1.602486320750845994e-03,0.000000000000000000e+00,3.204972641501691987e-03,-3.671220853596387501e-01,-7.061105040613162298e-02,-2.161233388578827075e-01
2.899999999999999911e+00,1.684344312090786219e+09,0.000000000000000000e+00,1.602486320750845994e-03,0.000000000000000000e+00,3.204972641501691987e-03,-3.062139224160053130e-01,-7.422532807390644360e-02,-2.175859184583621431e-01
2.916666666666666519e+00,1.684344312106811523e+09,0.000000000000000000e+00,-2.900110455686724098e-01,-5.832270637788464773e-01,3.204972641501691987e-03,-2.405789285378981401e-01,-7.789499232455861233e-02,-2.227594204428194891e-01
2.933333333333333126e+00,1.684344312125807524e+09,0.000000000000000000e+00,-2.839449103361174065e-01,-5.710947933137364707e-01,3.204972641501691987e-03,-1.707772614299696012e-01,-8.163968814289443432e-02,-2.265934274872517806e-01
2.950000000000000178e+00,1.684344312142809629e+09,0.000000000000000000e+00,-3.142755864988935888e-01,-6.317561456392888353e-01,3.204972641501691987e-03,-9.743141596716911601e-02,-8.544181324702437852e-02,-2.296530857575562190e-01
2.966666666666666785e+00,1.684344312159776449e+09,0.000000000000000000e+00,1.602486320750845994e-03,0.000000000000000000e+00,3.204972641501691987e-03,-2.122167475628028779e-02,-8.924035468961799555e-02,-2.261815307888880855e-01
2.983333333333333393e+00,1.684344312176811695e+09,0.000000000000000000e+00,1.602486320750845994e-03,0.000000000000000000e+00,3.204972641501691987e-03,5.711915217437376485e-02,-9.297069590153281271e-02,-2.214724956020545088e-01
3.000000000000000000e+00,1.684344312195787668e+09,0.000000000000000000e+00,1.602486320750845994e-03,0.000000000000000000e+00,3.204972641501691987e-03,1.368116614923453322e-01,-9.661219643880548935e-02,-2.155240926012302327e-01
3.016666666666666607e+00,1.684344312210793972e+09,0.000000000000000000e+00,1.602486320750845994e-03,0.000000000000000000e+00,3.204972641501691987e-03,2.170364196678844504e-01,-1.001442978388259325e-01,-2.083480094347325284e-01
3.033333333333333215e+00,1.684344312231786966e+09,0.000000000000000000e+00,1.602486320750845994e-03,0.000000000000000000e+00,3.204972641501691987e-03,2.969411028083431270e-01,-1.035467525422202051e-01,-1.999698282458533538e-01
3.049999999999999822e+00,1.684344312245788813e+09,0.000000000000000000e+00,1.602486320750845994e-03,0.000000000000000000e+00,3.204972641501691987e-03,3.756481539065522068e-01,-1.067998570338625358e-01,-1.904292130837559882e-01
3.066666666666666430e+00,1.684344312265763283e+09,0.000000000000000000e+00,1.602486320750845994e-03,0.000000000000000000e+00,3.204972641501691987e-03,4.522628916110008612e-01,-1.098846869615296290e-01,-1.797799601905596956e-01
3.083333333333333481e+00,1.684344312278754234e+09,0.000000000000000000e+00,1.602486320750845994e-03,0.000000000000000000e+00,3.204972641501691987e-03,5.258819985971504574e-01,-1.127833319133093315e-01,-1.680899071568149883e-01
3.100000000000000089e+00,1.684344312298807621e+09,0.000000000000000000e+00,1.602486320750845994e-03,0.000000000000000000e+00,3.204972641501691987e-03,5.956023122141850257e-01,-1.154791274793127570e-01,-1.554406982818959670e-01
3.116666666666666696e+00,1.684344312316805840e+09,0.000000000000000000e+00,1.762734952825329576e-02,0.000000000000000000e+00,3.525469905650659153e-02,6.605298353667804490e-01,-1.179546688284452971e-01,-1.416625371845128545e-01
3.133333333333333304e+00,1.684344312332805634e+09,0.000000000000000000e+00,1.762734952825329576e-02,0.000000000000000000e+00,3.525469905650659153e-02,7.197888816291383440e-01,-1.201942923167354793e-01,-1.271326431769328191e-01
3.149999999999999911e+00,1.684344312352805614e+09,0.000000000000000000e+00,3.365221273575574185e-02,0.000000000000000000e+00,6.730442547151148369e-02,7.725312654327201045e-01,-1.221842596146396065e-01,-1.117062845762207685e-01
3.166666666666666519e+00,1.684344312368788242e+09,0.000000000000000000e+00,3.365221273575574185e-02,0.000000000000000000e+00,6.730442547151148369e-02,8.179454458674253470e-01,-1.239129790029504241e-01,-9.578427087785693073e-02
3.183333333333333126e+00,1.684344312387787104e+09,0.000000000000000000e+00,3.365221273575574185e-02,0.000000000000000000e+00,6.730442547151148369e-02,8.552655312271657539e-01,-1.253733759839536221e-01,-7.950857816413836598e-02
3.200000000000000178e+00,1.684344312402787447e+09,0.000000000000000000e+00,3.365221273575574185e-02,0.000000000000000000e+00,6.730442547151148369e-02,8.837800509453890285e-01,-1.265608209868354928e-01,-6.303059543323741298e-02
3.216666666666666785e+00,1.684344312419785738e+09,0.000000000000000000e+00,3.365221273575574185e-02,0.000000000000000000e+00,6.730442547151148369e-02,9.028404020255490492e-01,-1.274732762661974217e-01,-4.650992990785374204e-02
3.233333333333333393e+00,1.684344312438786268e+09,0.000000000000000000e+00,4.967707594325939530e-02,0.000000000000000000e+00,9.935415188651879059e-02,9.118688784874725561e-01,-1.281092085829259597e-01,-2.984823168394633991e-02
3.250000000000000000e+00,1.684344312454808474e+09,0.000000000000000000e+00,4.967707594325939530e-02,0.000000000000000000e+00,9.935415188651879059e-02,9.103661947254029219e-01,-1.284699548027594396e-01,-1.348676428630181390e-02
3.266666666666666607e+00,1.684344312470786572e+09,0.000000000000000000e+00,4.967707594325939530e-02,0.000000000000000000e+00,9.935415188651879059e-02,8.979184169991555331e-01,-1.285619890466103421e-01,2.398528173256007229e-03
3.283333333333333215e+00,1.684344312490785837e+09,0.000000000000000000e+00,4.967707594325939530e-02,0.000000000000000000e+00,9.935415188651879059e-02,8.742032215389352601e-01,-1.283947380552862561e-01,1.762928213996850860e-02
3.299999999999999822e+00,1.684344312507790565e+09,0.000000000000000000e+00,4.967707594325939530e-02,0.000000000000000000e+00,9.935415188651879059e-02,8.389954029088192433e-01,-1.279806077653314333e-01,3.202635983088167326e-02
3.316666666666666430e+00,1.684344312525786638e+09,0.000000000000000000e+00,4.967707594325939530e-02,0.000000000000000000e+00,9.935415188651879059e-02,7.921715623066444278e-01,-1.273349820443101799e-01,4.541154474735881880e-02
3.333333333333333481e+00,1.684344312541786194e+09,0.000000000000000000e+00,4.967707594325939530e-02,0.000000000000000000e+00,9.935415188651879059e-02,7.337139123316476219e-01,-1.264761928762170307e-01,5.760927205051410982e-02
3.350000000000000089e+00,1.684344312559800148e+09,0.000000000000000000e+00,4.967707594325939530e-02,0.000000000000000000e+00,9.935415188651879059e-02,6.637131423696202015e-01,-1.254254615505282500e-01,6.844837769670664152e-02
3.366666666666666696e+00,1.684344312576788425e+09,0.000000000000000000e+00,4.967707594325939530e-02,0.000000000000000000e+00,9.935415188651879059e-02,5.823702970635300513e-01,-1.242068106811312495e-01,7.776384971075613051e-02
3.383333333333333304e+00,1.684344312593752861e+09,0.000000000000000000e+00,4.967707594325939530e-02,0.000000000000000000e+00,9.935415188651879059e-02,4.899976292819824830e-01,-1.228469471614414416e-01,8.539856461148702393e-02
3.399999999999999911e+00,1.684344312609810591e+09,0.000000000000000000e+00,-2.419364559461638642e-01,-5.832270637788464773e-01,9.935415188651879059e-02,3.870183984882427097e-01,-1.214153942533099384e-01,8.638504407905682470e-02
3.416666666666666519e+00,1.684344312628807545e+09,0.000000000000000000e+00,-2.843994025740501086e-01,-6.681529570346189661e-01,9.935415188651879059e-02,2.739655953603424288e-01,-1.199890161867093602e-01,8.478476922556112128e-02
3.433333333333333126e+00,1.684344312645794630e+09,0.000000000000000000e+00,-2.298041854810538576e-01,-5.589625228486264641e-01,9.935415188651879059e-02,1.514795838250612425e-01,-1.185984654473097172e-01,8.208880845856159070e-02
3.449999999999999734e+00,1.684344312664786816e+09,0.000000000000000000e+00,-2.662009968763850432e-01,-6.317561456392888353e-01,9.935415188651879059e-02,2.030466224580536674e-02,-1.172756201112856306e-01,7.666769087869451660e-02
3.466666666666666785e+00,1.684344312681795359e+09,0.000000000000000000e+00,-2.662009968763850432e-01,-6.317561456392888353e-01,9.935415188651879059e-02,-1.187154437563981979e-01,-1.160615794938689438e-01,6.903837625073143414e-02
3.483333333333333393e+00,1.684344312697787762e+09,0.000000000000000000e+00,4.967707594325939530e-02,0.000000000000000000e+00,9.935415188651879059e-02,-2.646431335745038083e-01,-1.149501667238078950e-01,6.434419585348298554e-02
3.500000000000000000e+00,1.684344312715794086e+09,0.000000000000000000e+00,-3.147300787368262909e-01,-7.288143093601713307e-01,9.935415188651879059e-02,-4.164534949634330352e-01,-1.139876421520593791e-01,5.119527838673015169e-02
3.516666666666666607e+00,1.684344312733807325e+09,0.000000000000000000e+00,-3.875237015274874963e-01,-8.744015549414937416e-01,9.935415188651879059e-02,-5.730418338688071378e-01,-1.132741324207197503e-01,3.447234306545228499e-02
3.533333333333333215e+00,1.684344312750806570e+09,0.000000000000000000e+00,-4.421189186204837474e-01,-9.835919891274862437e-01,9.935415188651879059e-02,-7.332321158330823430e-01,-1.128666947781988145e-01,1.447572151537192264e-02
3.549999999999999822e+00,1.684344312766790628e+09,0.000000000000000000e+00,-2.783332673414951053e-01,-6.560206865695089595e-01,9.935415188651879059e-02,-8.957862541490484443e-01,-1.127896021209813804e-01,-5.170029833354568977e-03
3.566666666666666430e+00,1.684344312784787416e+09,0.000000000000000000e+00,-2.237380502484988543e-01,-5.468302523835164575e-01,9.935415188651879059e-02,-1.059414170489949347e+00,-1.130522848227547283e-01,-2.629321747722201952e-02
3.583333333333333481e+00,1.684344312802808523e+09,0.000000000000000000e+00,4.967707594325939530e-02,0.000000000000000000e+00,9.935415188651879059e-02,-1.222784544894347292e+00,-1.136489036706826022e-01,-4.524838977847893406e-02
3.600000000000000089e+00,1.684344312819811583e+09,0.000000000000000000e+00,3.591897637756958916e-01,6.190253756648729233e-01,9.935415188651879059e-02,-1.384536163819824361e+00,-1.145384151265424894e-01,-6.144798499002119413e-02
3.616666666666666696e+00,1.684344312835753202e+09,0.000000000000000000e+00,4.967707594325939530e-02,0.000000000000000000e+00,9.935415188651879059e-02,-1.543289767595385831e+00,-1.157603595136026120e-01,-8.511958546382984714e-02
3.633333333333333304e+00,1.684344312854808092e+09,0.000000000000000000e+00,4.967707594325939530e-02,0.000000000000000000e+00,9.935415188651879059e-02,-1.697660292084213429e+00,-1.173948827758261593e-01,-1.109514491372888545e-01
3.649999999999999911e+00,1.684344312873787165e+09,0.000000000000000000e+00,4.967707594325939530e-02,0.000000000000000000e+00,9.935415188651879059e-02,-1.846269393793624758e+00,-1.194768951526538614e-01,-1.388126420579672560e-01
3.666666666666666519e+00,1.684344312889809370e+09,0.000000000000000000e+00,4.967707594325939530e-02,0.000000000000000000e+00,9.935415188651879059e-02,-1.987758143108759645e+00,-1.220389550396122763e-01,-1.685519332904338308e-01
3.683333333333333126e+00,1.684344312908814669e+09,0.000000000000000000e+00,4.967707594325939530e-02,0.000000000000000000e+00,9.935415188651879059e-02,-2.120799766839912781e+00,-1.251109379501547381e-01,-1.999986618948355888e-01
3.699999999999999734e+00,1.684344312925751448e+09,0.000000000000000000e+00,4.967707594325939530e-02,0.000000000000000000e+00,9.935415188651879059e-02,-2.244112318911654302e+00,-1.287197215574795994e-01,-2.329637990036506345e-01
3.716666666666666785e+00,1.684344312940807343e+09,0.000000000000000000e+00,4.967707594325939530e-02,0.000000000000000000e+00,9.935415188651879059e-02,-2.356471156824391233e+00,-1.328888900141882712e-01,-2.672411985616275354e-01
3.733333333333333393e+00,1.684344312958808422e+09,0.000000000000000000e+00,4.967707594325939530e-02,0.000000000000000000e+00,9.935415188651879059e-02,-2.456721101514187211e+00,-1.376384606243818975e-01,-3.026090283776160517e-01
3.750000000000000000e+00,1.684344312976791859e+09,0.000000000000000000e+00,4.967707594325939530e-02,0.000000000000000000e+00,9.935415188651879059e-02,-2.543788159441150665e+00,-1.429846357880251162e-01,-3.388313712722710314e-01
3.766666666666666607e+00,1.684344312996786833e+09,0.000000000000000000e+00,4.967707594325939530e-02,0.000000000000000000e+00,9.935415188651879059e-02,-2.616690688155307143e+00,-1.489395829521469872e-01,-3.756599843116832926e-01
3.783333333333333215e+00,1.684344313011807680e+09,0.000000000000000000e+00,4.967707594325939530e-02,0.000000000000000000e+00,9.935415188651879059e-02,-2.674549890213929970e+00,-1.555112450890413778e-01,-4.128362024126334129e-01
3.799999999999999822e+00,1.684344313030787706e+09,0.000000000000000000e+00,4.967707594325939530e-02,0.000000000000000000e+00,9.935415188651879059e-02,-2.716599525136020876e+00,-1.627031839797146440e-01,-4.500929710085062041e-01
3.816666666666666430e+00,1.684344313049807549e+09,0.000000000000000000e+00,4.967707594325939530e-02,0.000000000000000000e+00,9.935415188651879059e-02,-2.742194735046012077e+00,-1.705144583133479941e-01,-4.871569909932520481e-01
3.833333333333333481e+00,1.684344313062810898e+09,0.000000000000000000e+00,4.967707594325939530e-02,0.000000000000000000e+00,9.935415188651879059e-02,-2.750819886735275333e+00,-1.789395383227146141e-01,-5.237509578304190283e-01
3.850000000000000089e+00,1.684344313080809593e+09,0.000000000000000000e+00,4.967707594325939530e-02,0.000000000000000000e+00,9.935415188651879059e-02,-2.742095341001383968e+00,-1.879682583637984072e-01,-5.595958755403039886e-01
3.866666666666666696e+00,1.684344313098786116e+09,0.000000000000000000e+00,4.967707594325939530e-02,0.000000000000000000e+00,9.935415188651879059e-02,-2.715783069243210779e+00,-1.975858085180229595e-01,-5.944134252744119884e-01
3.883333333333333304e+00,1.684344313113807440e+09,0.000000000000000000e+00,4.967707594325939530e-02,0.000000000000000000e+00,9.935415188651879059e-02,-2.671791047317542578e+00,-2.077727659504546298e-01,-6.279283673648849984e-01
3.899999999999999911e+00,1.684344313132815599e+09,0.000000000000000000e+00,4.967707594325939530e-02,0.000000000000000000e+00,9.935415188651879059e-02,-2.610176367511118034e+00,-2.185051664002175265e-01,-6.598709551079197100e-01
3.916666666666666519e+00,1.684344313149807930e+09,0.000000000000000000e+00,4.967707594325939530e-02,0.000000000000000000e+00,9.935415188651879059e-02,-2.531147021053670620e+00,-2.297546158134407546e-01,-6.899793381132033332e-01
3.933333333333333126e+00,1.684344313167787790e+09,0.000000000000000000e+00,4.967707594325939530e-02,0.000000000000000000e+00,9.935415188651879059e-02,-2.435062315786586495e+00,-2.414884417577664866e-01,-7.180019328329330097e-01
3.949999999999999734e+00,1.684344313184809685e+09,0.000000000000000000e+00,4.967707594325939530e-02,0.000000000000000000e+00,9.935415188651879059e-02,-2.322431906294490478e+00,-2.536698838842975090e-01,-7.436997378789225177e-01
3.966666666666666785e+00,1.684344313202788830e+09,0.000000000000000000e+00,4.967707594325939530e-02,0.000000000000000000e+00,9.935415188651879059e-02,-2.193913426883500328e+00,-2.662583223314363146e-01,-7.668485719474543716e-01
3.983333333333333393e+00,1.684344313219786406e+09,0.000000000000000000e+00,4.967707594325939530e-02,0.000000000000000000e+00,9.935415188651879059e-02,-2.050308731125280559e+00,-2.792095425989724600e-01,-7.872412125996185450e-01
4.000000000000000000e+00,1.684344313239788294e+09,0.000000000000000000e+00,4.967707594325939530e-02,0.000000000000000000e+00,9.935415188651879059e-02,-1.892558755150096417e+00,-2.924760350636147477e-01,-8.046894147884235959e-01
4.016666666666666607e+00,1.684344313255786896e+09,0.000000000000000000e+00,4.967707594325939530e-02,0.000000000000000000e+00,9.935415188651879059e-02,-1.721737035333795962e+00,-3.060073269625018244e-01,-8.190257888793788243e-01
4.033333333333333215e+00,1.684344313274816036e+09,0.000000000000000000e+00,4.967707594325939530e-02,0.000000000000000000e+00,9.935415188651879059e-02,-1.539041924348608426e+00,-3.197503443425397385e-01,-8.301055189727634120e-01
4.049999999999999822e+00,1.684344313289808512e+09,0.000000000000000000e+00,4.967707594325939530e-02,0.000000000000000000e+00,9.935415188651879059e-02,-1.345787562602563936e+00,-3.336498011640790518e-01,-8.378079035955457998e-01
4.066666666666666430e+00,1.684344313305791616e+09,0.000000000000000000e+00,-2.358703207136088609e-01,-5.710947933137364707e-01,9.935415188651879059e-02,-1.143393674744149990e+00,-3.476880524095838365e-01,-8.467573856076703320e-01
4.083333333333333037e+00,1.684344313323807955e+09,0.000000000000000000e+00,-3.875237015274874963e-01,-8.744015549414937416e-01,9.935415188651879059e-02,-9.333742730281912037e-01,-3.618661640377729971e-01,-8.545942402220758627e-01
4.099999999999999645e+00,1.684344313342787266e+09,0.000000000000000000e+00,-2.662009968763850432e-01,-6.317561456392888353e-01,9.935415188651879059e-02,-7.173253607989530378e-01,-3.761272095432036666e-01,-8.567253006779008695e-01
4.116666666666666252e+00,1.684344313359809637e+09,0.000000000000000000e+00,-2.722671321089400465e-01,-6.438884161043988419e-01,9.935415188651879059e-02,-4.969117400269542628e-01,-3.903938725981086488e-01,-8.552782854919274147e-01
4.133333333333332860e+00,1.684344313376807928e+09,0.000000000000000000e+00,-3.693252958298225419e-01,-8.380047435461638328e-01,9.935415188651879059e-02,-2.738530366218567824e-01,-4.046192153382950907e-01,-8.517725816259356098e-01
4.150000000000000355e+00,1.684344313391787291e+09,0.000000000000000000e+00,3.895062975797772831e-01,6.796584432730357062e-01,9.935415188651879059e-02,-4.990906602912539847e-02,-4.186508724390055058e-01,-8.320809706660476923e-01
4.166666666666666963e+00,1.684344313409808636e+09,0.000000000000000000e+00,4.008749977563075273e-01,7.023958436260961946e-01,9.935415188651879059e-02,1.731353306958007821e-01,-4.323246785849397256e-01,-8.088403257125783563e-01
4.183333333333333570e+00,1.684344313429812670e+09,0.000000000000000000e+00,4.539289319134499623e-01,8.085037119403811756e-01,9.935415188651879059e-02,3.934858436418857686e-01,-4.455765878991386764e-01,-7.814648368057904859e-01
4.200000000000000178e+00,1.684344313444752693e+09,0.000000000000000000e+00,5.486681000512041440e-01,9.979820482158895389e-01,9.935415188651879059e-02,6.093545016958362703e-01,-4.583331188731405992e-01,-7.494079291360046247e-01
4.216666666666666785e+00,1.684344313462808609e+09,0.000000000000000000e+00,3.819271641287570462e-01,6.645001763709953435e-01,9.935415188651879059e-02,8.189755852560646199e-01,-4.705538731413412279e-01,-7.171721290447237163e-01
4.233333333333333393e+00,1.684344313482811451e+09,0.000000000000000000e+00,4.084541312073283192e-01,7.175541105281377785e-01,9.935415188651879059e-02,1.020621495642826559e+00,-4.822103011477932855e-01,-6.816977739241023571e-01
4.250000000000000000e+00,1.684344313498807669e+09,0.000000000000000000e+00,4.539289319134499623e-01,8.085037119403811756e-01,9.935415188651879059e-02,1.212618431732498836e+00,-4.932475899230871486e-01,-6.428846957547094121e-01
4.266666666666666607e+00,1.684344313514789104e+09,0.000000000000000000e+00,4.967707594325939530e-02,0.000000000000000000e+00,9.935415188651879059e-02,1.393361724682423475e+00,-5.036742260581965613e-01,-6.084074129425053323e-01
4.283333333333333215e+00,1.684344313534788847e+09,0.000000000000000000e+00,4.967707594325939530e-02,0.000000000000000000e+00,9.935415188651879059e-02,1.561330683407549547e+00,-5.135078028762168900e-01,-5.717237068019714874e-01
4.299999999999999822e+00,1.684344313552809000e+09,0.000000000000000000e+00,4.967707594325939530e-02,0.000000000000000000e+00,9.935415188651879059e-02,1.715102806717386796e+00,-5.227138122812918786e-01,-5.331046993525524469e-01
4.316666666666666430e+00,1.684344313569809198e+09,0.000000000000000000e+00,4.967707594325939530e-02,0.000000000000000000e+00,9.935415188651879059e-02,1.853367222704996875e+00,-5.312624084886623521e-01,-4.928386981677110312e-01
4.333333333333333037e+00,1.684344313588787556e+09,0.000000000000000000e+00,3.932958643052872905e-01,6.872375767240558320e-01,9.935415188651879059e-02,1.974937222065031417e+00,-5.390812141289846871e-01,-4.455493410878833549e-01
4.349999999999999645e+00,1.684344313605813026e+09,0.000000000000000000e+00,3.781375974032469833e-01,6.569210429199751067e-01,9.935415188651879059e-02,2.078761759459267111e+00,-5.461061488180501966e-01,-3.975760837844425910e-01
4.366666666666666252e+00,1.684344313622809649e+09,0.000000000000000000e+00,3.857167308542671091e-01,6.720793098220155803e-01,9.935415188651879059e-02,2.163935805784762856e+00,-5.523253441934892205e-01,-3.488626794650198093e-01
4.383333333333332860e+00,1.684344313641788244e+09,0.000000000000000000e+00,4.198228313838585635e-01,7.402915108811983780e-01,9.935415188651879059e-02,2.229709444157465636e+00,-5.577255823772746535e-01,-2.993035700222122508e-01
4.400000000000000355e+00,1.684344313660797119e+09,0.000000000000000000e+00,4.274019648348787448e-01,7.554497777832387406e-01,9.935415188651879059e-02,2.275495613515179816e+00,-5.622993096903531329e-01,-2.496815497366328129e-01
4.416666666666666963e+00,1.684344313675787449e+09,0.000000000000000000e+00,5.789846338552854244e-01,1.058615115824052211e+00,9.935415188651879059e-02,2.300876415870260594e+00,-5.660284148672409810e-01,-1.979547603976524739e-01
4.433333333333333570e+00,1.684344313693751812e+09,0.000000000000000000e+00,5.638263669532451727e-01,1.028298582019971485e+00,9.935415188651879059e-02,2.305607916291961157e+00,-5.689039915686218141e-01,-1.472552789755182112e-01
4.450000000000000178e+00,1.684344313712781668e+09,0.000000000000000000e+00,-4.117882424577086753e-01,-9.229306368019360995e-01,9.935415188651879059e-02,2.289623378552279043e+00,-5.710785397196225244e-01,-1.137834785562746587e-01
4.466666666666666785e+00,1.684344313727784634e+09,0.000000000000000000e+00,5.562472335022242698e-01,1.013140315117929680e+00,9.935415188651879059e-02,2.253034893895839552e+00,-5.725711957488738291e-01,-6.546945373705563564e-02
4.483333333333333393e+00,1.684344313745752573e+09,0.000000000000000000e+00,5.941429007573265642e-01,1.088931649628134268e+00,9.935415188651879059e-02,2.196133375457639758e+00,-5.732679162860022659e-01,-1.826812859634444064e-02
4.500000000000000000e+00,1.684344313764785767e+09,0.000000000000000000e+00,6.585655350909992434e-01,1.217776918295479849e+00,9.935415188651879059e-02,2.119386906307255458e+00,-5.731861697155801183e-01,2.794933218987103590e-02
4.516666666666666607e+00,1.684344313781807899e+09,0.000000000000000000e+00,7.495151365032427515e-01,1.399676121119966643e+00,9.935415188651879059e-02,2.023437444795328499e+00,-5.723412062939711165e-01,7.332024512323825904e-02
4.533333333333333215e+00,1.684344313797807932e+09,0.000000000000000000e+00,6.813029354440597318e-01,1.263251719001600826e+00,9.935415188651879059e-02,1.909095906665104092e+00,-5.707715420568184594e-01,1.149238949212382649e-01
4.549999999999999822e+00,1.684344313815788269e+09,0.000000000000000000e+00,6.282490012869179630e-01,1.157143850687317066e+00,9.935415188651879059e-02,1.777335659112851518e+00,-5.685397566002294845e-01,1.527851871379788395e-01
4.566666666666666430e+00,1.684344313830807447e+09,0.000000000000000000e+00,5.979324674828365715e-01,1.096510783079154505e+00,9.935415188651879059e-02,1.629284477480600568e+00,-5.657068152651240078e-01,1.870725282189306116e-01
4.583333333333333037e+00,1.684344313849788904e+09,0.000000000000000000e+00,8.328856044644665779e-01,1.566417057042414296e+00,9.935415188651879059e-02,1.466215030388251517e+00,-5.622972254188790542e-01,2.219812822868976188e-01
4.599999999999999645e+00,1.684344313864807606e+09,0.000000000000000000e+00,7.760421035818139135e-01,1.452730055277108967e+00,9.935415188651879059e-02,1.289533973706707970e+00,-5.583428991477777936e-01,2.524532239706050452e-01
4.616666666666666252e+00,1.684344313884789467e+09,0.000000000000000000e+00,7.238547657301336313e-01,1.316305653158743372e+00,1.314038783015236689e-01,1.100769747691816569e+00,-5.539181963319671498e-01,2.784389297118269324e-01
4.633333333333332860e+00,1.684344313900810719e+09,0.000000000000000000e+00,7.465921660831946749e-01,1.361780453864865681e+00,1.314038783015236689e-01,9.015591846975464785e-01,-5.490883621403915837e-01,3.010782846999304208e-01
4.650000000000000355e+00,1.684344313915809155e+09,0.000000000000000000e+00,7.626170292906971904e-01,1.361780453864865681e+00,1.634536047165285888e-01,6.936330470302346507e-01,-5.439108378244699171e-01,3.201715949893576552e-01
4.666666666666666963e+00,1.684344313935790062e+09,0.000000000000000000e+00,6.308487902033029782e-01,1.066194249275072448e+00,1.955033311315334810e-01,4.788006255674008282e-01,-5.384656015041142663e-01,3.332205155985137335e-01
4.683333333333333570e+00,1.684344313953810215e+09,0.000000000000000000e+00,5.323200553400386781e-01,8.691367795485439585e-01,1.955033311315334810e-01,2.589335396270578404e-01,-5.328486624866712873e-01,3.407911364971890622e-01
4.700000000000000178e+00,1.684344313969807386e+09,0.000000000000000000e+00,3.958956532216729718e-01,5.962879753118124349e-01,1.955033311315334810e-01,3.594888713025003180e-02,-5.271562338701446526e-01,3.422961168865278347e-01
4.716666666666666785e+00,1.684344313988786221e+09,0.000000000000000000e+00,4.498161836842781147e-01,6.720793098220155803e-01,2.275530575465407879e-01,-1.882080987419737506e-01,-5.214624432599356263e-01,3.409624610253572663e-01
4.733333333333333393e+00,1.684344314006797791e+09,0.000000000000000000e+00,-3.294903839300315496e-01,-8.865338254066038592e-01,2.275530575465407879e-01,-4.115817245180226069e-01,-5.159291867308194446e-01,3.230780026887735135e-01
4.750000000000000000e+00,1.684344314022786856e+09,0.000000000000000000e+00,4.696306136172906931e-01,6.796584432730357062e-01,2.596027839615456800e-01,-6.322236770192867228e-01,-5.106116344826575615e-01,3.150505660505783512e-01
4.766666666666666607e+00,1.684344314038791895e+09,0.000000000000000000e+00,7.197420175009617838e-01,1.179881251040377554e+00,2.596027839615456800e-01,-8.482108610102950808e-01,-5.054220508372997411e-01,3.077198350133983351e-01
4.783333333333333215e+00,1.684344314057789087e+09,0.000000000000000000e+00,9.205890539530001693e-01,1.581575323944454547e+00,2.596027839615456800e-01,-1.057663064464867908e+00,-5.003548220682930703e-01,3.003680394025271538e-01
4.799999999999999822e+00,1.684344314073792696e+09,0.000000000000000000e+00,9.736429881101426043e-01,1.687683192258739640e+00,2.596027839615456800e-01,-1.258760282747373838e+00,-4.954295556047288440e-01,2.906908180283424015e-01
4.816666666666666430e+00,1.684344314092812300e+09,0.000000000000000000e+00,1.007749088639734003e+00,1.755895393317922437e+00,2.596027839615456800e-01,-1.449759535412891598e+00,-4.906859097018810290e-01,2.785803313459419561e-01
4.833333333333333037e+00,1.684344314109808445e+09,0.000000000000000000e+00,1.003959521914223885e+00,1.748316259866902200e+00,2.596027839615456800e-01,-1.629011013377477779e+00,-4.861677142577013333e-01,2.636446110440413548e-01
4.849999999999999645e+00,1.684344314125808477e+09,0.000000000000000000e+00,1.223754391993813639e+00,2.187906000026081266e+00,2.596027839615456800e-01,-1.794973399868387443e+00,-4.818889491865852581e-01,2.498455291750157070e-01
4.866666666666666252e+00,1.684344314142787218e+09,0.000000000000000000e+00,1.363968360837689575e+00,2.468333937713833137e+00,2.596027839615456800e-01,-1.946228215789846949e+00,-4.778397878445205804e-01,2.360920369170817490e-01
4.883333333333332860e+00,1.684344314159810781e+09,0.000000000000000000e+00,1.693660665957074096e+00,3.127718547952602623e+00,2.596027839615456800e-01,-2.081493048868001239e+00,-4.739910973147561934e-01,2.257794733388018837e-01
4.900000000000000355e+00,1.684344314179788113e+09,0.000000000000000000e+00,1.780820700643807930e+00,3.302038617326070291e+00,2.596027839615456800e-01,-2.199633536093995367e+00,-4.703171375037657476e-01,2.151252996036416565e-01
4.916666666666666963e+00,1.684344314196787357e+09,0.000000000000000000e+00,1.769452000467277131e+00,3.279301216973008692e+00,2.596027839615456800e-01,-2.299673980471739654e+00,-4.668346635818713675e-01,2.028057926816728695e-01
4.933333333333333570e+00,1.684344314215787411e+09,0.000000000000000000e+00,1.671789861909475094e+00,3.051927213442399367e+00,2.916525103765505444e-01,-2.380806495792250566e+00,-4.635805084057070258e-01,1.877346936074622552e-01
4.950000000000000178e+00,1.684344314233786583e+09,0.000000000000000000e+00,1.626315061203352785e+00,2.960977612030155193e+00,2.916525103765505444e-01,-2.442398586979449782e+00,-4.605902447189202942e-01,1.711430378244072348e-01
4.966666666666666785e+00,1.684344314251786709e+09,0.000000000000000000e+00,1.466286662426464549e+00,2.672970540891383084e+00,2.596027839615456800e-01,-2.483999088350838047e+00,-4.579020660650378050e-01,1.514929854051184910e-01
4.983333333333333393e+00,1.684344314265808582e+09,0.000000000000000000e+00,1.185858724738712011e+00,2.112114665515878453e+00,2.596027839615456800e-01,-2.505342397770939922e+00,-4.555803550049908335e-01,1.271798797945344062e-01
5.000000000000000000e+00,1.684344314285750389e+09,0.000000000000000000e+00,1.122302686710500819e+00,1.952952863044450815e+00,2.916525103765505444e-01,-2.506350960992172805e+00,-4.536694219284488905e-01,1.022014754799646236e-01
5.016666666666666607e+00,1.684344314301786661e+09,0.000000000000000000e+00,1.079750856424427141e+00,1.899898928887308491e+00,2.596027839615456800e-01,-2.487135977320407143e+00,-4.521745688577145095e-01,7.725020372763055643e-02
5.033333333333333215e+00,1.684344314318787336e+09,0.000000000000000000e+00,1.023773951847236408e+00,1.755895393317922437e+00,2.916525103765505444e-01,-2.431757578227466965e+00,-4.510922066999574209e-01,5.270144779686960351e-02
5.049999999999999822e+00,1.684344314333807468e+09,0.000000000000000000e+00,9.669304509645839651e-01,1.642208391552617330e+00,2.916525103765505444e-01,-2.357872546702127092e+00,-4.504132460032457819e-01,2.884011883786557345e-02
5.066666666666666430e+00,1.684344314352787971e+09,0.000000000000000000e+00,8.494538824737692950e-01,1.407255254570987990e+00,2.916525103765505444e-01,-2.266501121591367518e+00,-4.501322840392849578e-01,4.941702888611461397e-03
5.083333333333333037e+00,1.684344314372785330e+09,0.000000000000000000e+00,8.797704162778506864e-01,1.467888322179150773e+00,2.916525103765505444e-01,-2.158808413581888352e+00,-4.502272662413342452e-01,-1.628061486440653127e-02
5.099999999999999645e+00,1.684344314387789011e+09,0.000000000000000000e+00,8.001895150421368674e-01,1.308726519707723135e+00,2.916525103765505444e-01,-2.036091688853682857e+00,-4.506670645606855041e-01,-3.643918610858105228e-02
5.116666666666666252e+00,1.684344314405787230e+09,0.000000000000000000e+00,6.940816467278524415e-01,1.096510783079154505e+00,2.916525103765505444e-01,-1.899766575939457969e+00,-4.514358811346191880e-01,-5.576511835484079804e-02
5.133333333333332860e+00,1.684344314424810410e+09,0.000000000000000000e+00,8.275830784261696271e-01,1.331463920060783623e+00,3.237022367915554644e-01,-1.751352335963355600e+00,-4.524851889386794501e-01,-7.011196484306696231e-02
5.150000000000000355e+00,1.684344314440814972e+09,0.000000000000000000e+00,9.867448808975964880e-01,1.649787525003637345e+00,3.237022367915554644e-01,-1.592456343970630073e+00,-4.537276989560081186e-01,-7.896464587695549431e-02
5.166666666666666963e+00,1.684344314457807779e+09,0.000000000000000000e+00,8.768474458578020547e-01,1.429992654924048701e+00,3.237022367915554644e-01,-1.424757935132031861e+00,-4.551085474211711834e-01,-8.671563889969623184e-02
5.183333333333333570e+00,1.684344314473752499e+09,0.000000000000000000e+00,8.503204787792306707e-01,1.376938720766905933e+00,3.237022367915554644e-01,-1.249991774165201353e+00,-4.565970336609291857e-01,-9.188834091637106127e-02
5.200000000000000178e+00,1.684344314492807865e+09,0.000000000000000000e+00,8.768474458578020547e-01,1.429992654924048701e+00,3.237022367915554644e-01,-1.069930909327715174e+00,-4.581424831303559375e-01,-9.356094917144287815e-02
5.216666666666666785e+00,1.684344314512788773e+09,0.000000000000000000e+00,1.039798815054739034e+00,1.755895393317922437e+00,3.237022367915554644e-01,-8.863696737859094732e-01,-4.596677178886807713e-01,-8.947856205863755075e-02
5.233333333333333393e+00,1.684344314528767347e+09,0.000000000000000000e+00,1.241512447812239683e+00,2.127272932417918927e+00,3.557519632065603843e-01,-7.011065970466239250e-01,-4.610720273069312536e-01,-7.906748846096012251e-02
5.250000000000000000e+00,1.684344314544788837e+09,0.000000000000000000e+00,1.298355948694892126e+00,2.240959934183224256e+00,3.557519632065603843e-01,-5.159274874705148672e-01,-4.622708285308483878e-01,-6.482821288330337106e-02
5.266666666666666607e+00,1.684344314562787294e+09,0.000000000000000000e+00,1.324882915773463621e+00,2.294013868340366802e+00,3.557519632065603843e-01,-3.325888436916855651e-01,-4.632052884880971666e-01,-4.735551839135829222e-02
5.283333333333333215e+00,1.684344314581808805e+09,0.000000000000000000e+00,1.389305550107136300e+00,2.422859137007712160e+00,3.557519632065603843e-01,-1.528017480924375171e-01,-4.638172198380098310e-01,-2.613519034120064671e-02
5.299999999999999822e+00,1.684344314595752478e+09,0.000000000000000000e+00,1.454594780746271576e+00,2.521387871870975683e+00,3.878016896215676357e-01,2.178361061975447877e-02,-4.640452784180801316e-01,-1.300825238363268604e-03
5.316666666666666430e+00,1.684344314612753153e+09,0.000000000000000000e+00,1.432723976698672574e+00,2.445596537360772871e+00,4.198514160365725556e-01,1.895926461437327237e-01,-4.638427039866522827e-01,2.553521071091561720e-02
5.333333333333333037e+00,1.684344314630810022e+09,0.000000000000000000e+00,1.311457841482347231e+00,2.203064266928122183e+00,4.198514160365725556e-01,3.491401837662222452e-01,-4.631912814496771946e-01,5.256042192808332847e-02
5.349999999999999645e+00,1.684344314648809910e+09,0.000000000000000000e+00,1.460117540082705334e+00,2.468333937713833137e+00,4.519011424515774755e-01,4.990432490455987691e-01,-4.620519338234861384e-01,8.407375412069731380e-02
5.366666666666666252e+00,1.684344314665786743e+09,0.000000000000000000e+00,1.486644507161276607e+00,2.521387871870975683e+00,4.519011424515774755e-01,6.380327260340076245e-01,-4.603688554174090730e-01,1.178019629345416208e-01
5.383333333333332860e+00,1.684344314682786942e+09,0.000000000000000000e+00,1.703516406820818396e+00,2.923081944775054453e+00,4.839508688665823399e-01,7.649637870176377863e-01,-4.580808125183268853e-01,1.566552565994336899e-01
5.400000000000000355e+00,1.684344314699808359e+09,0.000000000000000000e+00,1.601198105232043201e+00,2.718445341597504061e+00,4.839508688665823399e-01,8.788250085345549190e-01,-4.551489868472774480e-01,1.950571494911608750e-01
5.416666666666666963e+00,1.684344314715784550e+09,0.000000000000000000e+00,1.570881571427961809e+00,2.657812273989341278e+00,4.839508688665823399e-01,9.787461019142974505e-01,-4.515728199001409204e-01,2.339747770997286647e-01
5.433333333333333570e+00,1.684344314736792564e+09,0.000000000000000000e+00,1.651329068969138225e+00,2.786657542656686637e+00,5.160005952815897023e-01,1.064004200637733932e+00,-4.473305138087005917e-01,2.749880255017362329e-01
5.450000000000000178e+00,1.684344314751786232e+09,0.000000000000000000e+00,1.704383003126280771e+00,2.892765410970972173e+00,5.160005952815897023e-01,1.134028661297493690e+00,-4.423933186982558774e-01,3.173576914650210745e-01
5.466666666666666785e+00,1.684344314767753363e+09,0.000000000000000000e+00,1.632381235341588077e+00,2.748761875401586341e+00,5.160005952815897023e-01,1.188404349704986540e+00,-4.367582491307056558e-01,3.587357149815804114e-01
5.483333333333333393e+00,1.684344314784789085e+09,0.000000000000000000e+00,1.416375931987508441e+00,2.316751268693427068e+00,5.160005952815897023e-01,1.226873398593814279e+00,-4.304637823871861890e-01,3.964954037477496640e-01
5.500000000000000000e+00,1.684344314801809311e+09,0.000000000000000000e+00,1.454271599242610069e+00,2.392542603203629881e+00,5.160005952815897023e-01,1.249335438264584708e+00,-4.235368662480199498e-01,4.346286049003699747e-01
5.516666666666666607e+00,1.684344314820807695e+09,0.000000000000000000e+00,1.575537734458935413e+00,2.635074873636281012e+00,5.160005952815897023e-01,1.255846316257854145e+00,-4.159620151082590311e-01,4.742434879392222191e-01
5.533333333333333215e+00,1.684344314835811377e+09,0.000000000000000000e+00,1.757436937283423539e+00,2.998873279285257265e+00,5.160005952815897023e-01,1.246615336588108303e+00,-4.077085385241239757e-01,5.160575492529460018e-01
5.549999999999999822e+00,1.684344314854810953e+09,0.000000000000000000e+00,1.605854268263016582e+00,2.695707941244443351e+00,5.160005952815897023e-01,1.222001063083371308e+00,-3.987882727067249555e-01,5.542682056246535094e-01
5.566666666666666430e+00,1.684344314872808218e+09,0.000000000000000000e+00,1.746068237106892518e+00,2.976135878932195222e+00,5.160005952815897023e-01,1.182505744818061810e+00,-3.892225289811145905e-01,5.935120282644590350e-01
5.583333333333333037e+00,1.684344314889813423e+09,0.000000000000000000e+00,1.674933065627661755e+00,2.801815809558728887e+00,5.480503216965945112e-01,1.128768434377270591e+00,-3.790253893707159483e-01,6.300432469874759356e-01
5.599999999999999645e+00,1.684344314906810045e+09,0.000000000000000000e+00,1.648406098549090482e+00,2.748761875401586341e+00,5.480503216965945112e-01,1.061556881625213222e+00,-3.682373890362235502e-01,6.644212963225553104e-01
5.616666666666666252e+00,1.684344314923792362e+09,0.000000000000000000e+00,1.693880899255212125e+00,2.839711476813829627e+00,5.480503216965945112e-01,9.817582966644460285e-01,-3.568859103443488001e-01,6.976638042293414887e-01
5.633333333333332860e+00,1.684344314941786766e+09,0.000000000000000000e+00,1.504402562979703761e+00,2.460754804262812900e+00,5.480503216965945112e-01,8.903690856596238046e-01,-3.450237748915819247e-01,7.257145295872300395e-01
5.650000000000000355e+00,1.684344314959808826e+09,0.000000000000000000e+00,1.523350396607254797e+00,2.498650471517915417e+00,5.480503216965945112e-01,7.884836720768353402e-01,-3.327094571096267384e-01,7.519307796166763147e-01
5.666666666666666963e+00,1.684344314977809906e+09,0.000000000000000000e+00,1.462717328999092015e+00,2.377384336301589851e+00,5.480503216965945112e-01,6.772825235731660953e-01,-3.199855566563856724e-01,7.748735433729728728e-01
5.683333333333333570e+00,1.684344314993808985e+09,0.000000000000000000e+00,1.583116867909955428e+00,2.650233140538321486e+00,5.160005952815897023e-01,5.580195112005630342e-01,-3.068822886955716034e-01,7.974558817306673930e-01
5.700000000000000178e+00,1.684344315011812925e+09,0.000000000000000000e+00,1.670276902596689483e+00,2.824553209911789597e+00,5.160005952815897023e-01,4.320087327078871997e-01,-2.934111335967577450e-01,8.190228205535964312e-01
5.716666666666666785e+00,1.684344315030811548e+09,0.000000000000000000e+00,1.693880899255212125e+00,2.839711476813829627e+00,5.480503216965945112e-01,3.006109354971713277e-01,-2.795983968874314884e-01,8.384516144234765989e-01
5.733333333333333393e+00,1.684344315048816919e+09,0.000000000000000000e+00,1.485454729352153391e+00,2.422859137007712160e+00,5.480503216965945112e-01,1.652196771889537508e-01,-2.655120186963838003e-01,8.518764763414473640e-01
5.750000000000000000e+00,1.684344315064811230e+09,0.000000000000000000e+00,1.511981696430724220e+00,2.475913071164853374e+00,5.480503216965945112e-01,2.724736276486122710e-02,-2.512191399423133742e-01,8.632374152406366852e-01
5.766666666666666607e+00,1.684344315082788467e+09,0.000000000000000000e+00,-7.819214103430743856e-01,-2.111893142382743171e+00,5.480503216965945112e-01,-1.118887031138747767e-01,-2.370745339696825882e-01,8.341959740437233650e-01
5.783333333333333215e+00,1.684344315100808382e+09,0.000000000000000000e+00,-7.394584637151891959e-01,-2.026967249126972792e+00,5.480503216965945112e-01,-2.507801117503281052e-01,-2.234232595459390291e-01,8.040407233622212102e-01
5.799999999999999822e+00,1.684344315117789507e+09,0.000000000000000000e+00,-7.554833269226916004e-01,-2.026967249126972792e+00,5.160005952815897023e-01,-3.880408602321787637e-01,-2.102915794604547362e-01,7.718503068241557852e-01
5.816666666666666430e+00,1.684344315135809422e+09,0.000000000000000000e+00,1.144393724056238293e+00,1.740737126415882186e+00,5.480503216965945112e-01,-5.223204460132163662e-01,-1.974480949580018074e-01,7.693747102890865497e-01
5.833333333333333037e+00,1.684344315154808283e+09,0.000000000000000000e+00,1.128368860848735888e+00,1.740737126415882186e+00,5.160005952815897023e-01,-6.523164224538207101e-01,-1.846656969384037617e-01,7.645265195760704291e-01
5.849999999999999645e+00,1.684344315172808647e+09,0.000000000000000000e+00,9.616279249262887907e-01,1.407255254570987990e+00,5.160005952815897023e-01,-7.767862983045119574e-01,-1.720036546454634940e-01,7.549451710601597920e-01
5.866666666666666252e+00,1.684344315186809063e+09,0.000000000000000000e+00,9.426800912987377545e-01,1.369359587315885918e+00,5.160005952815897023e-01,-8.945586720003472214e-01,-1.595188619770721850e-01,7.432624020467416548e-01
5.883333333333332860e+00,1.684344315204807997e+09,0.000000000000000000e+00,7.532017550232293912e-01,9.904029147648693021e-01,5.160005952815897023e-01,-1.004543500525053146e+00,-1.472685304974313825e-01,7.268230414754037749e-01
5.900000000000000355e+00,1.684344315223807812e+09,0.000000000000000000e+00,8.147014189368535497e-01,1.081352516177112699e+00,5.480503216965945112e-01,-1.105741412405758961e+00,-1.352954008897788163e-01,7.099992453099361889e-01
5.916666666666666963e+00,1.684344315240785599e+09,0.000000000000000000e+00,6.433043199834344028e-01,7.706080446852791033e-01,5.160005952815897023e-01,-1.197251985005465702e+00,-1.236366571125413621e-01,6.891080404489982048e-01
5.933333333333333570e+00,1.684344315260807514e+09,0.000000000000000000e+00,9.662840879572602848e-01,1.384517854217926169e+00,5.480503216965945112e-01,-1.278280917577820253e+00,-1.122897962092345575e-01,6.725612323853487062e-01
5.950000000000000178e+00,1.684344315276807308e+09,0.000000000000000000e+00,1.004179755212361913e+00,1.460309188728128982e+00,5.480503216965945112e-01,-1.348146043417959739e+00,-1.012208456245073801e-01,6.557595103305282613e-01
5.966666666666666785e+00,1.684344315292807579e+09,0.000000000000000000e+00,1.091339789899095969e+00,1.634629258101597316e+00,5.480503216965945112e-01,-1.406282136760489410e+00,-9.042559427719952525e-02,6.397152198688638158e-01
5.983333333333333393e+00,1.684344315310787678e+09,0.000000000000000000e+00,1.227764192017461564e+00,1.907478062338328728e+00,5.480503216965945112e-01,-1.452244482712034879e+00,-7.988303706117948211e-02,6.254313244746009248e-01
6.000000000000000000e+00,1.684344315330751657e+09,0.000000000000000000e+00,1.216395491840931209e+00,1.884740661985268018e+00,5.480503216965945112e-01,-1.485711191333910719e+00,-6.958276455867286325e-02,6.106424569805446456e-01
6.016666666666666607e+00,1.684344315346754074e+09,0.000000000000000000e+00,1.207949762084449041e+00,1.899898928887308491e+00,5.160005952815897023e-01,-1.506484249875641446e+00,-5.953096624892876415e-02,5.956150838742806375e-01
6.033333333333333215e+00,1.684344315361787081e+09,0.000000000000000000e+00,1.185212361731388553e+00,1.854424128181187514e+00,5.160005952815897023e-01,-1.514489319976618953e+00,-4.973179473470945577e-02,5.803279630559741165e-01
6.049999999999999822e+00,1.684344315380765915e+09,0.000000000000000000e+00,1.261003696241591587e+00,2.006006797201593361e+00,5.160005952815897023e-01,-1.509774299267247599e+00,-4.017417752475338499e-02,5.666241691289237714e-01
6.066666666666666430e+00,1.684344315394786596e+09,0.000000000000000000e+00,1.359532431104855998e+00,2.203064266928122183e+00,5.160005952815897023e-01,-1.492506679091772037e+00,-3.082707025505615483e-02,5.550608243927779295e-01
6.083333333333333037e+00,1.684344315415806770e+09,0.000000000000000000e+00,1.519560829881744679e+00,2.491071338066894736e+00,5.480503216965945112e-01,-1.462969741916904542e+00,-2.164490540389399018e-02,5.468218443410297613e-01
6.099999999999999645e+00,1.684344315431789875e+09,0.000000000000000000e+00,1.496823429528683524e+00,2.445596537360772871e+00,5.480503216965945112e-01,-1.421557653269988064e+00,-1.259633955762658533e-02,5.390277080990739655e-01
6.116666666666666252e+00,1.684344315448805332e+09,0.000000000000000000e+00,1.436190361920520964e+00,2.324330402144447305e+00,5.480503216965945112e-01,-1.368769513657879244e+00,-3.677682997440864104e-03,5.312327323432656234e-01
6.133333333333332860e+00,1.684344315464805126e+09,0.000000000000000000e+00,1.162474961378327398e+00,1.808949327475064983e+00,5.160005952815897023e-01,-1.305202445748852247e+00,5.083108153527653508e-03,5.200931497861216446e-01
6.150000000000000355e+00,1.684344315483805895e+09,0.000000000000000000e+00,1.219318462260980063e+00,1.922636329240370312e+00,5.160005952815897023e-01,-1.231543801066258048e+00,1.367780322137384513e-02,5.112946990715208084e-01
6.166666666666666963e+00,1.684344315499787092e+09,0.000000000000000000e+00,1.291320230045672979e+00,2.066639864809756144e+00,5.160005952815897023e-01,-1.148562578454064953e+00,2.214847901834522681e-02,5.052033174677429406e-01
6.183333333333333570e+00,1.684344315518807650e+09,0.000000000000000000e+00,1.412586365261998322e+00,2.309172135242406831e+00,5.160005952815897023e-01,-1.057100153564687783e+00,3.054785530812073949e-02,5.027287113729226320e-01
6.200000000000000178e+00,1.684344315534791946e+09,0.000000000000000000e+00,1.359532431104855998e+00,2.203064266928122183e+00,5.160005952815897023e-01,-9.580604245190214030e-01,3.891268153774674055e-02,5.010550852530605281e-01
6.216666666666666785e+00,1.684344315550808907e+09,0.000000000000000000e+00,1.287530663320162860e+00,2.059060731358736351e+00,5.160005952815897023e-01,-8.523994836526104235e-01,4.725449418256415235e-02,4.999654589360356671e-01
6.233333333333333393e+00,1.684344315569791317e+09,0.000000000000000000e+00,1.397428098359957405e+00,2.278855601438324996e+00,5.160005952815897023e-01,-7.411149288471058361e-01,5.560884665529595289e-02,5.025496592885180247e-01
6.250000000000000000e+00,1.684344315587788105e+09,0.000000000000000000e+00,1.374690698006896916e+00,2.233380800732204019e+00,5.160005952815897023e-01,-6.252349303277401349e-01,6.401877710499453977e-02,5.066306583001387587e-01
6.266666666666666607e+00,1.684344315603803396e+09,0.000000000000000000e+00,1.362455401524903298e+00,2.240959934183224256e+00,4.839508688665823399e-01,-5.058071699716985004e-01,7.251096601186325652e-02,5.124159399191567932e-01
6.283333333333333215e+00,1.684344315621787071e+09,0.000000000000000000e+00,1.354876268073883061e+00,2.225801667281183782e+00,4.839508688665823399e-01,-3.838877701159241207e-01,8.111456994771334972e-02,5.199954776159393388e-01
6.299999999999999822e+00,1.684344315636808634e+09,0.000000000000000000e+00,1.328349300995311788e+00,2.172747733124041236e+00,4.839508688665823399e-01,-2.605303275880333502e-01,8.985682689589918892e-02,5.290502035578747986e-01
6.316666666666666430e+00,1.684344315656786919e+09,0.000000000000000000e+00,1.263926666661638887e+00,2.043902464456695434e+00,4.839508688665823399e-01,-1.367751662336479657e-01,9.875694033808946060e-02,5.389359484561510039e-01
6.333333333333333037e+00,1.684344315673786879e+09,0.000000000000000000e+00,1.267716233387149005e+00,2.051481597907715670e+00,4.839508688665823399e-01,-1.363891761200175523e-02,1.078379818281810232e-01,5.507561955623119232e-01
6.349999999999999645e+00,1.684344315690812826e+09,0.000000000000000000e+00,1.180556198700415171e+00,1.877161528534248003e+00,4.839508688665823399e-01,1.078954651730893721e-01,1.171191426203914837e-01,5.629492291679931704e-01
6.366666666666666252e+00,1.684344315706790924e+09,0.000000000000000000e+00,9.872882956993968007e-01,1.490625722532211261e+00,4.839508688665823399e-01,2.268881612912780621e-01,1.265915776028418704e-01,5.737130684687207216e-01
6.383333333333332860e+00,1.684344315724787235e+09,0.000000000000000000e+00,6.529398275490404524e-01,8.539785126465035958e-01,4.519011424515774755e-01,3.424513111662359499e-01,1.362117044627882134e-01,5.806827939206956612e-01
6.400000000000000355e+00,1.684344315740787029e+09,0.000000000000000000e+00,6.823897650476596910e-01,9.449281140587468819e-01,4.198514160365725556e-01,4.537571357623312318e-01,1.459664720077372690e-01,5.898638080559130970e-01
6.416666666666666963e+00,1.684344315760807514e+09,0.000000000000000000e+00,8.975284720962778406e-01,1.407255254570987990e+00,3.878016896215676357e-01,5.600452697647868572e-01,1.559173840043552584e-01,6.042057917569795267e-01
6.433333333333333570e+00,1.684344315775786877e+09,0.000000000000000000e+00,9.193992761438756212e-01,1.483046589081191025e+00,3.557519632065603843e-01,6.606292414047199024e-01,1.661222616554320075e-01,6.203347227317126400e-01
6.450000000000000178e+00,1.684344315793810606e+09,0.000000000000000000e+00,1.070981945164282578e+00,1.786211927122004717e+00,3.557519632065603843e-01,7.549020414635660980e-01,1.766276847668242500e-01,6.402606993974512273e-01
6.466666666666666785e+00,1.684344315809809685e+09,0.000000000000000000e+00,9.421366764969361096e-01,1.528521389787312001e+00,3.557519632065603843e-01,8.423407342863569180e-01,1.874567362065562293e-01,6.591729381374408225e-01
6.483333333333333393e+00,1.684344315825809479e+09,0.000000000000000000e+00,9.526387803680049782e-01,1.581575323944454547e+00,3.237022367915554644e-01,9.225100743300703732e-01,1.986109030425125543e-01,6.792712522131191255e-01
6.500000000000000000e+00,1.684344315845794678e+09,0.000000000000000000e+00,1.066325782133310307e+00,1.808949327475064983e+00,3.237022367915554644e-01,9.950651027558419237e-01,2.101229896327009850e-01,7.021156803710832950e-01
6.516666666666666607e+00,1.684344315864808321e+09,0.000000000000000000e+00,1.095775719631929546e+00,1.899898928887308491e+00,2.916525103765505444e-01,1.059752709726520248e+00,2.220256637329869331e-01,7.261384800934381767e-01
6.533333333333333215e+00,1.684344315878787756e+09,0.000000000000000000e+00,1.349676690241110588e+00,2.407700870105670798e+00,2.916525103765505444e-01,1.116412159275097071e+00,2.343682945477540136e-01,7.548973301039412220e-01
6.549999999999999822e+00,1.684344315898807764e+09,0.000000000000000000e+00,1.535365459791108833e+00,2.779078409205666844e+00,2.916525103765505444e-01,1.164974584747583197e+00,2.472186222345906237e-01,7.870526698260827958e-01
6.566666666666666430e+00,1.684344315916787863e+09,0.000000000000000000e+00,1.444415858378864659e+00,2.597179206381178496e+00,2.916525103765505444e-01,1.205461473781093140e+00,2.605934610035494092e-01,8.178424532597899921e-01
6.583333333333333037e+00,1.684344315931787014e+09,0.000000000000000000e+00,1.606500631270340262e+00,2.953398478579134512e+00,2.596027839615456800e-01,1.237982172437007033e+00,2.745040891343182299e-01,8.513398718574769486e-01
6.599999999999999645e+00,1.684344315949786901e+09,0.000000000000000000e+00,1.746714600114216198e+00,3.233826416266886827e+00,2.596027839615456800e-01,1.262730448366201630e+00,2.889911655624369802e-01,8.870102129040318140e-01
6.616666666666666252e+00,1.684344315967785835e+09,0.000000000000000000e+00,1.716398066310135473e+00,3.173193348658724933e+00,2.596027839615456800e-01,1.279980162626536133e+00,3.040660160737257978e-01,9.218749995416875009e-01
6.633333333333332860e+00,1.684344315984807730e+09,0.000000000000000000e+00,1.677635802749571692e+00,3.127718547952602623e+00,2.275530575465407879e-01,1.290080108910519163e+00,3.197131719670180394e-01,9.556897755093967106e-01
6.649999999999999467e+00,1.684344316003808975e+09,0.000000000000000000e+00,1.517607403972681457e+00,2.839711476813829627e+00,1.955033311315334810e-01,1.293448087374419853e+00,3.358975989306202115e-01,9.863562734015796085e-01
6.666666666666666963e+00,1.684344316018808365e+09,0.000000000000000000e+00,1.707085740248189598e+00,3.218668149364845910e+00,1.955033311315334810e-01,1.290564287911181163e+00,3.526146710509646676e-01,1.019600035083891409e+00
6.683333333333333570e+00,1.684344316036786318e+09,0.000000000000000000e+00,1.698640010491707653e+00,3.233826416266886827e+00,1.634536047165285888e-01,1.281964064498215539e+00,3.698788598255058901e-01,1.052012580892515592e+00
6.700000000000000178e+00,1.684344316053808689e+09,0.000000000000000000e+00,1.557559445342370452e+00,2.983715012383216791e+00,1.314038783015236689e-01,1.268230188114301882e+00,3.876573978119449704e-01,1.081330536797020958e+00
6.716666666666666785e+00,1.684344316072808743e+09,0.000000000000000000e+00,1.484691081252215161e+00,2.870028010617911463e+00,9.935415188651879059e-02,1.249984670600867931e+00,4.059079342913038402e-01,1.108657929515213469e+00
6.733333333333333393e+00,1.684344316088787794e+09,0.000000000000000000e+00,1.575640682664459113e+00,3.051927213442399367e+00,9.935415188651879059e-02,1.227880255696203182e+00,4.246196617743602797e-01,1.136671551004834635e+00
6.750000000000000000e+00,1.684344316106786013e+09,0.000000000000000000e+00,1.609746783194050845e+00,3.120139414501582831e+00,9.935415188651879059e-02,1.202591676262928289e+00,4.437956315739458035e-01,1.164367888862865463e+00
6.766666666666666607e+00,1.684344316123786688e+09,0.000000000000000000e+00,1.529299285652874207e+00,2.991294145834237028e+00,6.730442547151148369e-02,1.174806778436474186e+00,4.634144324600408260e-01,1.189817522378259662e+00
6.783333333333333215e+00,1.684344316142788887e+09,0.000000000000000000e+00,1.524643122621901936e+00,3.014031546187297295e+00,3.525469905650659153e-02,1.145217614033695153e+00,4.834491488069334042e-01,1.214280484975627017e+00
6.799999999999999822e+00,1.684344316157786369e+09,0.000000000000000000e+00,1.365481320150474964e+00,2.695707941244443351e+00,3.525469905650659153e-02,1.114511602076509345e+00,5.038619777232477004e-01,1.235200871429762426e+00
6.816666666666666430e+00,1.684344316174808264e+09,0.000000000000000000e+00,1.372193857296033936e+00,2.741182741950566104e+00,3.204972641501691987e-03,1.083362858717362265e+00,5.246172150719200511e-01,1.255371579347980049e+00
6.833333333333333037e+00,1.684344316192809105e+09,0.000000000000000000e+00,1.125872020137872909e+00,2.248539067634244049e+00,3.204972641501691987e-03,1.052423792224129295e+00,5.456675494832962103e-01,1.270626175142637315e+00
6.849999999999999645e+00,1.684344316210807800e+09,0.000000000000000000e+00,1.275721496547355560e+00,2.612337473283220302e+00,-6.089448018850930622e-02,1.022317056026696980e+00,5.669865591125601290e-01,1.287607808056274283e+00
6.866666666666666252e+00,1.684344316228810787e+09,0.000000000000000000e+00,8.740274236432779009e-01,1.808949327475064983e+00,-6.089448018850930622e-02,9.936279481891923115e-01,5.885268057057672086e-01,1.297195150993608381e+00
6.883333333333332860e+00,1.684344316243787766e+09,0.000000000000000000e+00,8.807399607888360960e-01,1.854424128181187514e+00,-9.294420660351540575e-02,9.668973401076822460e-01,6.102227522333933951e-01,1.306293159480924171e+00
6.899999999999999467e+00,1.684344316262785912e+09,0.000000000000000000e+00,1.004929066425209516e+00,2.134852065868939164e+00,-1.249939330185202979e-01,9.426152108051912837e-01,6.320828748157582000e-01,1.316892108185732768e+00
6.916666666666666963e+00,1.684344316279807568e+09,0.000000000000000000e+00,9.274045393040821761e-01,2.043902464456695434e+00,-1.890933858485313035e-01,9.212148559792940894e-01,6.541045190570642376e-01,1.325680787199149613e+00
6.933333333333333570e+00,1.684344316295787334e+09,0.000000000000000000e+00,-9.784679351139314862e-01,-1.735792757964325528e+00,-2.211431122635373892e-01,9.030678330324903857e-01,6.760056808521902605e-01,1.302522957035999518e+00
6.950000000000000178e+00,1.684344316314786434e+09,0.000000000000000000e+00,-1.299973102439353934e+00,-2.378803092615170645e+00,-2.211431122635373892e-01,8.884796947701962821e-01,6.974776560072524223e-01,1.274192758419784743e+00
6.966666666666666785e+00,1.684344316329813480e+09,0.000000000000000000e+00,-1.637503132972278674e+00,-3.021813427266015317e+00,-2.531928386785423091e-01,8.776865553813363308e-01,7.184332635965136049e-01,1.240573541204007757e+00
6.983333333333333393e+00,1.684344316349808693e+09,0.000000000000000000e+00,-1.453345533505462139e+00,-2.621448501917375218e+00,-2.852425650935483947e-01,8.708525228196370982e-01,7.388576864214423390e-01,1.210440901534315161e+00
7.000000000000000000e+00,1.684344316368751526e+09,0.000000000000000000e+00,-1.517899478573405458e+00,-2.718506665638257491e+00,-3.172922915085532591e-01,8.680680218861398512e-01,7.587747597006744282e-01,1.179693303976961927e+00
7.016666666666666607e+00,1.684344316382750273e+09,0.000000000000000000e+00,-1.475436531945520491e+00,-2.633580772382487556e+00,-3.172922915085532591e-01,8.693490222790087874e-01,7.781896618299235513e-01,1.150176943353270920e+00
7.033333333333333215e+00,1.684344316401790857e+09,0.000000000000000000e+00,-1.697709993059898226e+00,-3.046077968196237329e+00,-3.493420179235594003e-01,8.746371757370177136e-01,7.970867313109386565e-01,1.117561993583541025e+00
7.049999999999999822e+00,1.684344316420811176e+09,0.000000000000000000e+00,-1.988884484222544602e+00,-3.628426950521530081e+00,-3.493420179235594003e-01,8.838008562639838583e-01,8.154057716150474588e-01,1.080824892813456284e+00
7.066666666666666430e+00,1.684344316436811686e+09,0.000000000000000000e+00,-2.010975482662602953e+00,-3.640559220986641975e+00,-3.813917443385642647e-01,8.966370873955608056e-01,8.331163227799320836e-01,1.044542035060787466e+00
7.083333333333333037e+00,1.684344316452811718e+09,0.000000000000000000e+00,-2.091554290938049121e+00,-3.737617384707522472e+00,-4.454911971685752703e-01,9.128743306599301777e-01,8.502182841662919710e-01,1.007795407669792365e+00
7.099999999999999645e+00,1.684344316469791889e+09,0.000000000000000000e+00,-2.253166399726875380e+00,-4.028791875870169292e+00,-4.775409235835813559e-01,9.321760998993205982e-01,8.666932212502053146e-01,9.693039655887530914e-01
7.116666666666666252e+00,1.684344316487807751e+09,0.000000000000000000e+00,-2.402646238050591521e+00,-4.295701826102597209e+00,-5.095906499985862759e-01,9.541453570562246078e-01,8.825143389315261988e-01,9.293411665575260772e-01
7.133333333333332860e+00,1.684344316505787611e+09,0.000000000000000000e+00,-2.491464724048755741e+00,-4.441289071683919509e+00,-5.416403764135924170e-01,9.783296364854452420e-01,8.976660023352072137e-01,8.889705850277899168e-01
7.149999999999999467e+00,1.684344316523809195e+09,0.000000000000000000e+00,-2.994953948350832729e+00,-5.448267520288073484e+00,-5.416403764135924170e-01,1.004226836919861920e+00,9.120844334696159850e-01,8.413733687028649433e-01
7.166666666666666963e+00,1.684344316539787292e+09,0.000000000000000000e+00,-3.546972254513351519e+00,-6.552304132613111065e+00,-5.416403764135924170e-01,1.031291612976145800e+00,9.256436449730294225e-01,7.858861465071647068e-01
7.183333333333333570e+00,1.684344316557787418e+09,0.000000000000000000e+00,-3.720716633767287451e+00,-6.867743164705977676e+00,-5.736901028285972259e-01,1.058942291614126452e+00,9.382655548278384661e-01,7.289013309498029169e-01
7.200000000000000178e+00,1.684344316576792717e+09,0.000000000000000000e+00,-3.933031366906718507e+00,-7.292372630984839788e+00,-5.736901028285972259e-01,1.086568233325629906e+00,9.499200792198236876e-01,6.698057543314662743e-01
7.216666666666666785e+00,1.684344316593785524e+09,0.000000000000000000e+00,-4.296999480860026921e+00,-8.020308858891457504e+00,-5.736901028285972259e-01,1.113537553084199772e+00,9.605512932037592044e-01,6.061168415512669938e-01
7.233333333333333393e+00,1.684344316612786531e+09,0.000000000000000000e+00,-4.145346100046148230e+00,-7.717002097263700122e+00,-5.736901028285972259e-01,1.139205112284716881e+00,9.701543137091497293e-01,5.464114712498526760e-01
7.250000000000000000e+00,1.684344316628807306e+09,0.000000000000000000e+00,-4.357660833185578397e+00,-8.141631563542560457e+00,-5.736901028285972259e-01,1.162920690078977026e+00,9.787444418356121556e-01,4.845756740716135602e-01
7.266666666666666607e+00,1.684344316646786928e+09,0.000000000000000000e+00,-4.460785132139015730e+00,-8.347880161449433345e+00,-5.736901028285972259e-01,1.184037240698688986e+00,9.863011871824783894e-01,4.224064638674084882e-01
7.283333333333333215e+00,1.684344316664752960e+09,0.000000000000000000e+00,-4.588173972022675073e+00,-8.602657841216752033e+00,-5.736901028285972259e-01,1.201919142566913123e+00,9.928152407153557624e-01,3.594548298436017197e-01
7.299999999999999822e+00,1.684344316681807995e+09,0.000000000000000000e+00,-4.634529511392952550e+00,-8.663319193542301733e+00,-6.057398292436033671e-01,1.215950345238810071e+00,9.982843306054250965e-01,2.970094205176300184e-01
7.316666666666666430e+00,1.684344316698787689e+09,0.000000000000000000e+00,-4.452545454416299009e+00,-8.299351079588994651e+00,-6.057398292436033671e-01,1.225542321478786834e+00,1.002747749241788222e+00,2.387626163323082751e-01
7.333333333333333037e+00,1.684344316713752508e+09,0.000000000000000000e+00,-4.695190863718504026e+00,-8.784641898193404685e+00,-6.057398292436033671e-01,1.230141734055584246e+00,1.006215553854207689e+00,1.775439928921733745e-01
7.349999999999999645e+00,1.684344316733810186e+09,0.000000000000000000e+00,-4.231991043554150345e+00,-7.826192531449692069e+00,-6.377895556586082870e-01,1.229237730095009917e+00,1.008735356151580609e+00,1.249783020371481312e-01
7.366666666666666252e+00,1.684344316750787497e+09,0.000000000000000000e+00,-3.473724139484756890e+00,-6.309658723310905160e+00,-6.377895556586082870e-01,1.222368780033342706e+00,1.010490107461152975e+00,8.570096140338560875e-02
7.383333333333332860e+00,1.684344316768808603e+09,0.000000000000000000e+00,-3.477616732227149843e+00,-6.285394182380684924e+00,-6.698392820736143172e-01,1.209128983316502648e+00,1.011593295098535128e+00,4.678964461749265252e-02
7.399999999999999467e+00,1.684344316785787106e+09,0.000000000000000000e+00,-3.730220869504302428e+00,-6.758552730519985730e+00,-7.018890084886192371e-01,1.189173768933516229e+00,1.012015689206325231e+00,4.016465500189400628e-03
7.416666666666666963e+00,1.684344316804807663e+09,0.000000000000000000e+00,-3.497534188177044090e+00,-6.261129641450463801e+00,-7.339387349036241570e-01,1.162224925593282165e+00,1.011759521461175870e+00,-3.464918779772401675e-02
7.433333333333333570e+00,1.684344316820807695e+09,0.000000000000000000e+00,-3.497534188177044090e+00,-6.261129641450463801e+00,-7.339387349036241570e-01,1.128074903776136395e+00,1.010859549862334728e+00,-7.324020427223126850e-02
7.450000000000000178e+00,1.684344316837808609e+09,0.000000000000000000e+00,-3.719807649291422713e+00,-6.673626837264215794e+00,-7.659884613186302982e-01,1.086590339936114535e+00,1.009285294476021999e+00,-1.155529040418403069e-01
7.466666666666666785e+00,1.684344316852807760e+09,0.000000000000000000e+00,-3.580286538942654584e+00,-6.394584616566678648e+00,-7.659884613186302982e-01,1.037714761708198097e+00,1.007024191684213532e+00,-1.556679975372727009e-01
7.483333333333333393e+00,1.684344316870807409e+09,0.000000000000000000e+00,-3.547782320289715408e+00,-6.297526452845795042e+00,-7.980381877336351071e-01,9.814704419941836511e-01,1.004096765722940043e+00,-1.955124362142581784e-01
7.500000000000000000e+00,1.684344316889808416e+09,0.000000000000000000e+00,-3.420393480406056952e+00,-6.042748773078479019e+00,-7.980381877336351071e-01,9.179593791632222333e-01,1.000519591947907960e+00,-2.336424974599399240e-01
7.516666666666666607e+00,1.684344316906808853e+09,0.000000000000000000e+00,-3.430352208381004964e+00,-6.030616502613368901e+00,-8.300879141486412482e-01,8.473633902074427793e-01,9.963010574375025241e-01,-2.724737765857604965e-01
7.533333333333333215e+00,1.684344316923810244e+09,0.000000000000000000e+00,-4.043031866869074342e+00,-7.255975819589507658e+00,-8.300879141486412482e-01,7.699433134359798814e-01,9.913453814175413603e-01,-3.220695764563509256e-01
7.549999999999999822e+00,1.684344316939810514e+09,0.000000000000000000e+00,-4.362363491704334351e+00,-7.862589342845022422e+00,-8.621376405636461682e-01,6.860373270662871725e-01,9.855142635496317860e-01,-3.775105613324087894e-01
7.566666666666666430e+00,1.684344316957787037e+09,0.000000000000000000e+00,-3.968064701588249754e+00,-7.073991762612853229e+00,-8.621376405636461682e-01,5.960583997755501962e-01,9.788088196149160591e-01,-4.270052224279047293e-01
7.583333333333333037e+00,1.684344316976808786e+09,0.000000000000000000e+00,-4.441223249727551448e+00,-8.020308858891457504e+00,-8.621376405636461682e-01,5.004908988020275729e-01,9.712067481635475730e-01,-4.850820234919616669e-01
7.599999999999999645e+00,1.684344316992808819e+09,0.000000000000000000e+00,-5.144894936703948929e+00,-9.427652232844250690e+00,-8.621376405636461682e-01,3.998863904341436459e-01,9.625336645951081405e-01,-5.554924156946856595e-01
7.616666666666666252e+00,1.684344317010787725e+09,0.000000000000000000e+00,-5.636251890540914466e+00,-1.041036614051818354e+01,-8.621376405636461682e-01,2.948586765948559840e-01,9.526144266605822697e-01,-6.345963979925940412e-01
7.633333333333332860e+00,1.684344317028787136e+09,0.000000000000000000e+00,-5.634078348050754137e+00,-1.037396932912285585e+01,-8.941873669786521983e-01,1.860781196244472580e-01,9.413729902885630274e-01,-7.141549654276798664e-01
7.649999999999999467e+00,1.684344317045814753e+09,0.000000000000000000e+00,-5.039597095260347714e+00,-9.185006823542043009e+00,-8.941873669786521983e-01,7.426531519683743365e-02,9.288832328685827644e-01,-7.844207376754247507e-01
7.666666666666666963e+00,1.684344317062808514e+09,0.000000000000000000e+00,-4.657430575609375012e+00,-8.420673784240097604e+00,-8.941873669786521983e-01,-3.981581951215079629e-02,9.152691124751319851e-01,-8.490940572006659970e-01
7.683333333333333570e+00,1.684344317080752611e+09,0.000000000000000000e+00,-5.318639315957884861e+00,-9.743091264937117302e+00,-8.941873669786521983e-01,-1.553654688274478946e-01,9.004787498777296895e-01,-9.255371076830192223e-01
7.700000000000000178e+00,1.684344317096790791e+09,0.000000000000000000e+00,-6.337750035027151618e+00,-1.178131270307565082e+01,-8.941873669786521983e-01,-2.715557735076686297e-01,8.842680864473475566e-01,-1.019481541061550756e+00
7.716666666666666785e+00,1.684344317115785122e+09,0.000000000000000000e+00,-6.780577907003675797e+00,-1.266696844702869917e+01,-8.941873669786521983e-01,-3.875390335598362657e-01,8.664274748402839288e-01,-1.121109545130545726e+00
7.733333333333333393e+00,1.684344317133787155e+09,0.000000000000000000e+00,-5.943451244911065245e+00,-1.099271512284347807e+01,-8.941873669786521983e-01,-5.024561709866763870e-01,8.470068520159437231e-01,-1.209120712571167822e+00
7.750000000000000000e+00,1.684344317148808956e+09,0.000000000000000000e+00,-5.348969992120661487e+00,-9.803752617262670555e+00,-8.941873669786521983e-01,-6.154453615658840304e-01,8.261980364711717373e-01,-1.287718819587838182e+00
7.766666666666666607e+00,1.684344317169793844e+09,0.000000000000000000e+00,-5.336837721655551370e+00,-9.779488076332450319e+00,-8.941873669786521983e-01,-7.256507427915506181e-01,8.040765625788872661e-01,-1.366638820103005525e+00
7.783333333333333215e+00,1.684344317184807301e+09,0.000000000000000000e+00,-5.306507045492774743e+00,-9.718826724006897066e+00,-8.941873669786521983e-01,-8.322311041404734100e-01,7.806401241699689741e-01,-1.445514684187974686e+00
7.799999999999999822e+00,1.684344317201787233e+09,0.000000000000000000e+00,-4.493644924330386203e+00,-8.093102481682119986e+00,-8.941873669786521983e-01,-9.343684658734195958e-01,7.559981480584090363e-01,-1.511339597913144761e+00
7.816666666666666430e+00,1.684344317219787598e+09,0.000000000000000000e+00,-3.395674447237904126e+00,-5.897161527497156719e+00,-8.941873669786521983e-01,-1.031276453641309265e+00,7.304064490718849001e-01,-1.559530413941274229e+00
7.833333333333333037e+00,1.684344317235808611e+09,0.000000000000000000e+00,-3.395674447237904126e+00,-5.897161527497156719e+00,-8.941873669786521983e-01,-1.122208378229918591e+00,7.040056663949842974e-01,-1.608427678355504042e+00
7.849999999999999645e+00,1.684344317252809286e+09,0.000000000000000000e+00,-3.504864881423896517e+00,-6.115542395869140613e+00,-8.941873669786521983e-01,-1.206464932820683345e+00,6.767699640311247711e-01,-1.659714139562387558e+00
7.866666666666666252e+00,1.684344317271786690e+09,0.000000000000000000e+00,-3.783907102121433663e+00,-6.673626837264215794e+00,-8.941873669786521983e-01,-1.283401424138965741e+00,6.486374030681028025e-01,-1.716036720703705498e+00
7.883333333333332860e+00,1.684344317290787458e+09,0.000000000000000000e+00,-3.250087201656580049e+00,-5.605987036334508566e+00,-8.941873669786521983e-01,-1.352434458761394565e+00,6.196381083162282311e-01,-1.763746120292130515e+00
7.899999999999999467e+00,1.684344317307811499e+09,0.000000000000000000e+00,-2.097521507471102442e+00,-3.300855647963552908e+00,-8.941873669786521983e-01,-1.413048011609830512e+00,5.900010675252373993e-01,-1.792618571485822043e+00
7.916666666666666963e+00,1.684344317324808359e+09,0.000000000000000000e+00,-1.933735856192113634e+00,-2.973284345405574847e+00,-8.941873669786521983e-01,-1.464798810208505664e+00,5.599022814014715799e-01,-1.819162029802066538e+00
7.933333333333333570e+00,1.684344317341808558e+09,0.000000000000000000e+00,-2.012595614215329842e+00,-3.131003861452007708e+00,-8.941873669786521983e-01,-1.507320975555862308e+00,5.293480051696533017e-01,-1.847273030066434840e+00
7.950000000000000178e+00,1.684344317358808517e+09,0.000000000000000000e+00,-2.067190831308327148e+00,-3.240194295638002320e+00,-8.941873669786521983e-01,-1.540329868383153000e+00,4.983169950487712496e-01,-1.876367364940410676e+00
7.966666666666666785e+00,1.684344317376786947e+09,0.000000000000000000e+00,-2.200645806424539774e+00,-3.507104245870427128e+00,-8.941873669786521983e-01,-1.563625098056407481e+00,4.667834474542069123e-01,-1.907571665753862167e+00
7.983333333333333393e+00,1.684344317394809484e+09,0.000000000000000000e+00,-1.976198802819999711e+00,-3.058210238661347447e+00,-8.941873669786521983e-01,-1.577092660334765029e+00,4.347632787187254433e-01,-1.934773021404293525e+00
8.000000000000000000e+00,1.684344317416808128e+09,0.000000000000000000e+00,9.045498538584058057e-01,2.703287074695464032e+00,-8.941873669786521983e-01,-1.580706179531812250e+00,4.026909024613483656e-01,-1.913969917241473251e+00
8.016666666666665719e+00,1.684344317427787304e+09,0.000000000000000000e+00,1.097817756859424065e+00,3.089822880697500551e+00,-8.941873669786521983e-01,-1.574527240237240333e+00,3.709899189689339627e-01,-1.890214091805355823e+00
8.033333333333333215e+00,1.684344317444809914e+09,0.000000000000000000e+00,9.992890219961598763e-01,2.892765410970972173e+00,-8.941873669786521983e-01,-1.558704803541214767e+00,3.396701612988212160e-01,-1.868217930494327383e+00
8.050000000000000711e+00,1.684344317464778423e+09,0.000000000000000000e+00,1.112976023761465205e+00,3.120139414501582831e+00,-8.941873669786521983e-01,-1.533473712559396684e+00,3.087331556327362336e-01,-1.844289219641541244e+00
8.066666666666666430e+00,1.684344317481765032e+09,0.000000000000000000e+00,9.462350878390172193e-01,2.786657542656686637e+00,-8.941873669786521983e-01,-1.499152301875241067e+00,2.781733669178155233e-01,-1.822944717827224226e+00
8.083333333333333925e+00,1.684344317496787071e+09,0.000000000000000000e+00,1.121421753517947373e+00,3.104981147599540581e+00,-8.621376405636461682e-01,-1.456139135194791434e+00,2.479965096562801175e-01,-1.798346483593636247e+00
8.099999999999999645e+00,1.684344317516789198e+09,0.000000000000000000e+00,1.209448384510143359e+00,3.248984683168928189e+00,-8.300879141486412482e-01,-1.404908904941422509e+00,2.182454596720787565e-01,-1.771853108949956290e+00
8.116666666666667140e+00,1.684344317533786774e+09,0.000000000000000000e+00,1.241498110925148834e+00,3.248984683168928189e+00,-7.659884613186302982e-01,-1.346007536604666655e+00,1.889448688644025931e-01,-1.744294341903605439e+00
8.133333333333332860e+00,1.684344317551789284e+09,0.000000000000000000e+00,1.375866138928928839e+00,3.453621286346476804e+00,-7.018890084886192371e-01,-1.280046549297768399e+00,1.601274539537299313e-01,-1.713879933832413327e+00
8.150000000000000355e+00,1.684344317566785574e+09,0.000000000000000000e+00,1.555708967638830931e+00,3.749207490936270482e+00,-6.377895556586082870e-01,-1.207696732081690261e+00,1.318475779651172575e-01,-1.679799853917848251e+00
8.166666666666666075e+00,1.684344317583789110e+09,0.000000000000000000e+00,1.628577331728985333e+00,3.862894492701574034e+00,-6.057398292436033671e-01,-1.129681203089779373e+00,1.041518363093704436e-01,-1.643789176784781425e+00
8.183333333333333570e+00,1.684344317601787329e+09,0.000000000000000000e+00,1.778103626634806256e+00,4.097847629683204929e+00,-5.416403764135924170e-01,-1.046767925255816856e+00,7.708340346291496503e-02,-1.604531815582009413e+00
8.199999999999999289e+00,1.684344317620786905e+09,0.000000000000000000e+00,1.675785325046031726e+00,3.893211026505655870e+00,-5.416403764135924170e-01,-9.597617584356328280e-01,5.066172280382685161e-02,-1.566176408812747889e+00
8.216666666666666785e+00,1.684344317637786388e+09,0.000000000000000000e+00,1.668206191595011711e+00,3.878052759603615396e+00,-5.416403764135924170e-01,-8.694961328512875731e-01,2.488542195585684291e-02,-1.527088273652382533e+00
8.233333333333332504e+00,1.684344317654787540e+09,0.000000000000000000e+00,1.630310524339909417e+00,3.802261425093411251e+00,-5.416403764135924170e-01,-7.768244330225037020e-01,-2.372431525552026743e-04,-1.487740840355347149e+00
8.250000000000000000e+00,1.684344317673786163e+09,0.000000000000000000e+00,1.626520957614399299e+00,3.794682291642391014e+00,-5.416403764135924170e-01,-6.826111846320919163e-01,-2.469706302910651408e-02,-1.447549190929090734e+00
8.266666666666665719e+00,1.684344317690789223e+09,0.000000000000000000e+00,1.975161096361334412e+00,4.491962569136260797e+00,-5.416403764135924170e-01,-5.877231390660722088e-01,-4.843131303843502267e-02,-1.400690974964841296e+00
8.283333333333333215e+00,1.684344317706787109e+09,0.000000000000000000e+00,2.346538635461330902e+00,5.234717647336254664e+00,-5.416403764135924170e-01,-4.930203516460857083e-01,-7.132668961460299217e-02,-1.346903626991752478e+00
8.300000000000000711e+00,1.684344317724789619e+09,0.000000000000000000e+00,2.380644735990922189e+00,5.302929848395437240e+00,-5.416403764135924170e-01,-3.993473498155548640e-01,-9.331539061318377959e-02,-1.291893302890248840e+00
8.316666666666666430e+00,1.684344317741807222e+09,0.000000000000000000e+00,2.668651807129695630e+00,5.878943990672983233e+00,-5.416403764135924170e-01,-3.075244867483598599e-01,-1.143423886301162540e-01,-1.231514182866960683e+00
8.333333333333333925e+00,1.684344317759790659e+09,0.000000000000000000e+00,3.075002043064744672e+00,6.659594736128075176e+00,-5.095906499985862759e-01,-2.183395740219066239e-01,-1.343029640121881085e-01,-1.163942566334174922e+00
8.349999999999999645e+00,1.684344317778785706e+09,0.000000000000000000e+00,3.188689044830049557e+00,6.886968739658685834e+00,-5.095906499985862759e-01,-1.325398841560616603e-01,-1.531191256093857866e-01,-1.094190585392410764e+00
8.366666666666667140e+00,1.684344317795807838e+09,0.000000000000000000e+00,3.231240875116123679e+00,6.940022673815828824e+00,-4.775409235835813559e-01,-5.082460999038107552e-02,-1.707652245348267317e-01,-1.023537548714874124e+00
8.383333333333332860e+00,1.684344317812791586e+09,0.000000000000000000e+00,3.109974739899798113e+00,6.697490403383177693e+00,-4.775409235835813559e-01,2.616213690735003095e-02,-1.872496473728638144e-01,-9.547841779300512144e-01
8.400000000000000355e+00,1.684344317828787565e+09,0.000000000000000000e+00,3.167684837087912708e+00,6.780860871344400742e+00,-4.454911971685752703e-01,9.783771228675286480e-02,-2.025798061340445266e-01,-8.850286433459594315e-01
8.416666666666666075e+00,1.684344317847807407e+09,0.000000000000000000e+00,3.176130566844395098e+00,6.765702604442360268e+00,-4.134414707535703504e-01,1.636866397244683968e-01,-2.167467457062772496e-01,-8.151980836642456207e-01
8.433333333333333570e+00,1.684344317864787102e+09,0.000000000000000000e+00,3.009389630921948555e+00,6.432220732597468071e+00,-4.134414707535703504e-01,2.232655629048467816e-01,-2.297742889195654448e-01,-7.482929538871775366e-01
8.449999999999999289e+00,1.684344317881787539e+09,0.000000000000000000e+00,2.952546130039295669e+00,6.318533730832161410e+00,-4.134414707535703504e-01,2.762073949786780780e-01,-2.416965265069203894e-01,-6.825581575495229814e-01
8.466666666666666785e+00,1.684344317898787975e+09,0.000000000000000000e+00,2.676774355382516291e+00,5.734940455103596513e+00,-3.813917443385642647e-01,3.222246189213331391e-01,-2.525639972913699127e-01,-6.217073705266760175e-01
8.483333333333332504e+00,1.684344317915752649e+09,0.000000000000000000e+00,2.411504684596804449e+00,5.204401113532172829e+00,-3.813917443385642647e-01,3.611117019538099271e-01,-2.624569611091505661e-01,-5.656041335997185060e-01
8.500000000000000000e+00,1.684344317936807632e+09,0.000000000000000000e+00,2.563087353617210518e+00,5.507566451572984967e+00,-3.813917443385642647e-01,3.927465966620148352e-01,-2.713973138839043675e-01,-5.073998816536442469e-01
8.516666666666665719e+00,1.684344317951812267e+09,0.000000000000000000e+00,2.028758445320277826e+00,4.438908634979119583e+00,-3.813917443385642647e-01,4.170913113504040037e-01,-2.794460742644999107e-01,-4.585869586618706584e-01
8.533333333333333215e+00,1.684344317968808889e+09,0.000000000000000000e+00,1.506664833505336976e+00,3.362671684934233074e+00,-3.493420179235594003e-01,4.341915422914475187e-01,-2.867577779315892417e-01,-4.189276487315016229e-01
8.550000000000000711e+00,1.684344317987809181e+09,0.000000000000000000e+00,-1.782635886315669937e+00,-3.215929754707780308e+00,-3.493420179235594003e-01,4.441753707743067991e-01,-2.938669117488317828e-01,-4.341261901732818007e-01
8.566666666666666430e+00,1.684344318004788399e+09,0.000000000000000000e+00,-2.413513950501405603e+00,-4.477685883079251639e+00,-3.493420179235594003e-01,4.472510381048042660e-01,-3.013139677402854044e-01,-4.594501827217715717e-01
8.583333333333333925e+00,1.684344318022788763e+09,0.000000000000000000e+00,-2.316455786780523329e+00,-4.283569555637487092e+00,-3.493420179235594003e-01,4.437038218554786306e-01,-3.091666767330030763e-01,-4.828100064778046430e-01
8.599999999999999645e+00,1.684344318037808418e+09,0.000000000000000000e+00,2.215313811175737779e+00,4.779969640275034237e+00,-3.493420179235594003e-01,4.338920465993159059e-01,-3.167809145803435200e-01,-4.310423376675466267e-01
8.616666666666667140e+00,1.684344318057786942e+09,0.000000000000000000e+00,2.177418143920636151e+00,4.704178305764831869e+00,-3.493420179235594003e-01,4.182422719761320629e-01,-3.235469038469094838e-01,-3.810153414693678298e-01
8.633333333333332860e+00,1.684344318072816133e+09,0.000000000000000000e+00,2.435108681255326868e+00,5.219559380434213303e+00,-3.493420179235594003e-01,3.972437101331127707e-01,-3.294533275834253816e-01,-3.279030445430446417e-01
8.650000000000000355e+00,1.684344318092808723e+09,0.000000000000000000e+00,2.470081378090381641e+00,5.257455047689315819e+00,-3.172922915085532591e-01,3.714419332496984305e-01,-3.344806155760824407e-01,-2.755170346947196092e-01
8.666666666666666075e+00,1.684344318107809782e+09,0.000000000000000000e+00,2.283526012234921243e+00,4.916394042393401165e+00,-3.493420179235594003e-01,3.414319399061429561e-01,-3.386719511018925211e-01,-2.275763999665584569e-01
8.683333333333333570e+00,1.684344318123809814e+09,0.000000000000000000e+00,2.193443007128139222e+00,4.704178305764831869e+00,-3.172922915085532591e-01,3.078506563972992494e-01,-3.420879782065380792e-01,-1.824721451364889058e-01
8.699999999999999289e+00,1.684344318141786814e+09,0.000000000000000000e+00,2.223759540932220613e+00,4.764811373372994652e+00,-3.172922915085532591e-01,2.713689556442018258e-01,-3.447593490888005707e-01,-1.382152993112860107e-01
8.716666666666666785e+00,1.684344318158808470e+09,0.000000000000000000e+00,2.280603041814873055e+00,4.878498375138299537e+00,-3.172922915085532591e-01,2.326832820447051198e-01,-3.466967106834400458e-01,-9.438983231898689930e-02
8.733333333333332504e+00,1.684344318177788019e+09,0.000000000000000000e+00,2.371552643227116342e+00,5.060397577962786109e+00,-3.172922915085532591e-01,1.925069753625360258e-01,-3.479026881907739677e-01,-5.044952783515876948e-02
8.750000000000000000e+00,1.684344318194812298e+09,0.000000000000000000e+00,2.323154872100946733e+00,4.931552309295441638e+00,-2.852425650935483947e-01,1.515613905287521712e-01,-3.483947364957292736e-01,-8.712208486375133676e-03
