2021-12-17-16:16:26.689213,4.0,25.0,393.0
2021-12-17-16:16:26.689213,9.0,13.0,393.0
2021-12-17-16:16:26.690211,17.0,23.0,393.0
2021-12-17-16:16:26.691226,2.0,28.0,393.0
2021-12-17-16:16:26.692224,1.0,23.0,393.0
2021-12-17-16:16:26.695205,1.0,11.0,393.0
2021-12-17-16:16:26.695205,5.0,0.0,393.0
2021-12-17-16:16:26.696195,16.0,24.0,393.0
2021-12-17-16:16:26.697200,9.0,3.0,393.0
2021-12-17-16:16:26.698189,5.0,25.0,393.0
2021-12-17-16:16:26.699188,1.0,7.0,393.0
2021-12-17-16:16:26.700184,10.0,18.0,393.0
2021-12-17-16:16:26.701181,10.0,7.0,393.0
2021-12-17-16:16:26.702179,3.0,38.0,392.0
2021-12-17-16:16:26.703176,3.0,2.0,393.0
2021-12-17-16:16:26.704173,7.0,15.0,393.0
2021-12-17-16:16:26.705171,17.0,5.0,393.0
2021-12-17-16:16:26.706168,1.0,33.0,393.0
2021-12-17-16:16:26.707165,4.0,7.0,393.0
2021-12-17-16:16:26.708163,8.0,0.0,393.0
2021-12-17-16:16:26.709160,14.0,21.0,393.0
2021-12-17-16:16:26.711155,10.0,18.0,393.0
2021-12-17-16:16:26.712152,0.0,10.0,393.0
2021-12-17-16:16:26.713150,2.0,8.0,393.0
2021-12-17-16:16:26.714147,12.0,20.0,393.0
2021-12-17-16:16:26.715144,2.0,15.0,392.0
2021-12-17-16:16:26.716142,1.0,3.0,393.0
2021-12-17-16:16:26.717139,5.0,9.0,393.0
2021-12-17-16:16:26.718147,18.0,14.0,393.0
2021-12-17-16:16:26.719133,4.0,25.0,393.0
2021-12-17-16:16:26.720131,0.0,25.0,393.0
2021-12-17-16:16:26.721129,6.0,11.0,393.0
2021-12-17-16:16:26.722126,17.0,16.0,392.0
2021-12-17-16:16:26.723123,5.0,40.0,393.0
2021-12-17-16:16:26.724120,4.0,12.0,392.0
2021-12-17-16:16:26.725392,11.0,13.0,393.0
2021-12-17-16:16:26.725392,15.0,21.0,393.0
2021-12-17-16:16:26.726394,2.0,20.0,393.0
2021-12-17-16:16:26.727391,2.0,16.0,393.0
2021-12-17-16:16:26.729384,1.0,1.0,393.0
2021-12-17-16:16:26.730381,4.0,33.0,393.0
2021-12-17-16:16:26.730381,2.0,13.0,393.0
2021-12-17-16:16:26.731380,3.0,1.0,392.0
2021-12-17-16:16:26.732378,18.0,18.0,393.0
2021-12-17-16:16:26.733375,4.0,24.0,393.0
2021-12-17-16:16:26.734372,3.0,5.0,393.0
2021-12-17-16:16:26.735370,2.0,8.0,393.0
2021-12-17-16:16:26.736367,9.0,8.0,393.0
2021-12-17-16:16:26.737364,16.0,14.0,393.0
2021-12-17-16:16:26.738362,6.0,35.0,393.0
2021-12-17-16:16:26.739359,4.0,5.0,393.0
2021-12-17-16:16:26.740356,11.0,15.0,393.0
2021-12-17-16:16:26.741354,16.0,21.0,393.0
2021-12-17-16:16:26.742351,3.0,12.0,393.0
2021-12-17-16:16:26.743348,7.0,31.0,393.0
2021-12-17-16:16:26.744381,2.0,1.0,393.0
2021-12-17-16:16:26.745206,9.0,0.0,393.0
2021-12-17-16:16:26.745206,18.0,24.0,393.0
2021-12-17-16:16:26.746207,5.0,26.0,393.0
2021-12-17-16:16:26.747204,5.0,4.0,393.0
2021-12-17-16:16:26.748237,3.0,20.0,393.0
2021-12-17-16:16:26.749242,14.0,46.0,393.0
2021-12-17-16:16:26.749242,5.0,13.0,393.0
2021-12-17-16:16:26.750271,1.0,47.0,392.0
2021-12-17-16:16:26.751265,2.0,15.0,393.0
2021-12-17-16:16:26.752263,4.0,4.0,392.0
2021-12-17-16:16:26.753261,14.0,33.0,393.0
2021-12-17-16:16:26.754258,4.0,19.0,392.0
2021-12-17-16:16:26.755255,2.0,20.0,393.0
2021-12-17-16:16:26.756253,2.0,13.0,393.0
2021-12-17-16:16:26.757250,4.0,1.0,393.0
2021-12-17-16:16:26.758249,16.0,29.0,393.0
2021-12-17-16:16:26.759245,2.0,17.0,393.0
2021-12-17-16:16:26.760242,2.0,26.0,393.0
2021-12-17-16:16:26.761240,2.0,26.0,393.0
2021-12-17-16:16:26.762235,0.0,31.0,393.0
2021-12-17-16:16:26.764253,0.0,31.0,393.0
2021-12-17-16:16:26.764253,0.0,31.0,393.0
2021-12-17-16:16:26.765251,0.0,31.0,393.0
2021-12-17-16:16:26.766246,5.0,11.0,393.0
2021-12-17-16:16:26.767244,12.0,22.0,393.0
2021-12-17-16:16:26.768240,12.0,22.0,393.0
2021-12-17-16:16:26.769192,12.0,22.0,393.0
2021-12-17-16:16:26.770238,16.0,15.0,393.0
2021-12-17-16:16:26.771232,13.0,7.0,393.0
2021-12-17-16:16:26.772211,13.0,7.0,393.0
2021-12-17-16:16:26.773181,13.0,7.0,393.0
2021-12-17-16:16:26.774226,4.0,40.0,393.0
2021-12-17-16:16:26.775226,5.0,33.0,393.0
2021-12-17-16:16:26.776220,5.0,33.0,393.0
2021-12-17-16:16:26.777241,5.0,33.0,393.0
2021-12-17-16:16:26.778235,1.0,3.0,394.0
2021-12-17-16:16:26.778235,0.0,6.0,393.0
2021-12-17-16:16:26.779552,0.0,6.0,393.0
2021-12-17-16:16:26.779552,0.0,6.0,393.0
2021-12-17-16:16:26.780718,0.0,6.0,393.0
2021-12-17-16:16:26.780934,0.0,6.0,393.0
2021-12-17-16:16:26.780934,0.0,6.0,393.0
2021-12-17-16:16:26.782099,0.0,6.0,393.0
2021-12-17-16:16:26.782099,4.0,13.0,392.0
2021-12-17-16:16:26.783146,5.0,7.0,393.0
2021-12-17-16:16:26.784142,5.0,7.0,393.0
2021-12-17-16:16:26.785315,5.0,7.0,393.0
2021-12-17-16:16:26.785315,5.0,7.0,393.0
2021-12-17-16:16:26.786315,16.0,35.0,393.0
2021-12-17-16:16:26.787312,14.0,39.0,392.0
2021-12-17-16:16:26.788366,14.0,39.0,392.0
2021-12-17-16:16:26.788366,14.0,39.0,392.0
2021-12-17-16:16:26.789420,14.0,39.0,392.0
2021-12-17-16:16:26.790660,6.0,8.0,392.0
2021-12-17-16:16:26.790845,7.0,37.0,393.0
2021-12-17-16:16:26.790845,7.0,37.0,393.0
2021-12-17-16:16:26.791844,7.0,37.0,393.0
2021-12-17-16:16:26.792898,7.0,37.0,393.0
2021-12-17-16:16:26.792898,7.0,37.0,393.0
2021-12-17-16:16:26.793952,7.0,37.0,393.0
2021-12-17-16:16:26.794951,1.0,42.0,393.0
2021-12-17-16:16:26.795946,4.0,29.0,393.0
2021-12-17-16:16:26.797942,2.0,22.0,393.0
2021-12-17-16:16:26.797942,2.0,22.0,393.0
2021-12-17-16:16:26.799202,2.0,22.0,393.0
2021-12-17-16:16:26.799202,6.0,3.0,393.0
2021-12-17-16:16:26.800368,6.0,3.0,393.0
2021-12-17-16:16:26.800368,6.0,3.0,393.0
2021-12-17-16:16:26.801367,6.0,3.0,393.0
2021-12-17-16:16:26.802364,6.0,3.0,393.0
2021-12-17-16:16:26.803704,17.0,15.0,392.0
2021-12-17-16:16:26.803811,15.0,17.0,393.0
2021-12-17-16:16:26.803811,15.0,17.0,393.0
2021-12-17-16:16:26.804835,15.0,17.0,393.0
2021-12-17-16:16:26.805835,15.0,17.0,393.0
2021-12-17-16:16:26.806842,8.0,9.0,393.0
2021-12-17-16:16:26.806842,6.0,25.0,393.0
2021-12-17-16:16:26.807874,6.0,25.0,393.0
2021-12-17-16:16:26.808873,6.0,25.0,393.0
2021-12-17-16:16:26.809870,6.0,25.0,393.0
2021-12-17-16:16:26.810869,6.0,25.0,393.0
2021-12-17-16:16:26.811865,2.0,22.0,393.0
2021-12-17-16:16:26.812862,0.0,18.0,393.0
2021-12-17-16:16:26.813827,0.0,18.0,393.0
2021-12-17-16:16:26.814859,0.0,18.0,393.0
2021-12-17-16:16:26.815913,4.0,15.0,393.0
2021-12-17-16:16:26.815913,4.0,1.0,393.0
2021-12-17-16:16:26.816947,6.0,1.0,393.0
2021-12-17-16:16:26.817948,6.0,1.0,393.0
2021-12-17-16:16:26.818943,6.0,1.0,393.0
2021-12-17-16:16:26.819943,14.0,32.0,393.0
2021-12-17-16:16:26.821063,17.0,28.0,393.0
2021-12-17-16:16:26.821063,17.0,28.0,393.0
2021-12-17-16:16:26.822109,17.0,28.0,393.0
2021-12-17-16:16:26.823108,17.0,28.0,393.0
2021-12-17-16:16:26.824304,13.0,22.0,392.0
2021-12-17-16:16:26.824304,10.0,3.0,393.0
2021-12-17-16:16:26.825463,4.0,31.0,393.0
2021-12-17-16:16:26.825463,4.0,31.0,393.0
2021-12-17-16:16:26.826651,4.0,31.0,393.0
2021-12-17-16:16:26.826651,0.0,27.0,393.0
2021-12-17-16:16:26.827705,1.0,22.0,393.0
2021-12-17-16:16:26.828705,0.0,12.0,393.0
2021-12-17-16:16:26.829699,0.0,12.0,393.0
2021-12-17-16:16:26.830643,0.0,12.0,393.0
2021-12-17-16:16:26.832638,1.0,1.0,392.0
2021-12-17-16:16:26.832638,6.0,1.0,393.0
2021-12-17-16:16:26.833684,6.0,1.0,393.0
2021-12-17-16:16:26.834632,6.0,1.0,393.0
2021-12-17-16:16:26.835676,5.0,3.0,393.0
2021-12-17-16:16:26.836676,14.0,34.0,393.0
2021-12-17-16:16:26.837670,14.0,27.0,393.0
2021-12-17-16:16:26.838668,14.0,27.0,393.0
2021-12-17-16:16:26.839665,11.0,18.0,393.0
2021-12-17-16:16:26.840662,6.0,24.0,392.0
2021-12-17-16:16:26.841663,0.0,34.0,393.0
2021-12-17-16:16:26.842656,0.0,34.0,393.0
2021-12-17-16:16:26.843655,2.0,41.0,393.0
2021-12-17-16:16:26.844654,4.0,35.0,393.0
2021-12-17-16:16:26.845649,0.0,18.0,393.0
2021-12-17-16:16:26.846599,0.0,18.0,393.0
2021-12-17-16:16:26.847643,0.0,18.0,393.0
2021-12-17-16:16:26.848725,6.0,6.0,393.0
2021-12-17-16:16:26.848725,6.0,6.0,393.0
2021-12-17-16:16:26.849775,6.0,6.0,393.0
2021-12-17-16:16:26.850772,6.0,6.0,393.0
2021-12-17-16:16:26.851767,6.0,6.0,393.0
2021-12-17-16:16:26.852943,5.0,8.0,393.0
2021-12-17-16:16:26.852943,14.0,23.0,393.0
2021-12-17-16:16:26.854066,18.0,21.0,393.0
2021-12-17-16:16:26.854066,18.0,21.0,393.0
2021-12-17-16:16:26.855113,18.0,21.0,393.0
2021-12-17-16:16:26.856110,18.0,21.0,393.0
2021-12-17-16:16:26.857108,13.0,15.0,393.0
2021-12-17-16:16:26.858284,13.0,4.0,393.0
2021-12-17-16:16:26.858284,6.0,7.0,393.0
2021-12-17-16:16:26.859283,1.0,24.0,393.0
2021-12-17-16:16:26.860329,7.0,32.0,393.0
2021-12-17-16:16:26.861324,4.0,27.0,393.0
2021-12-17-16:16:26.862321,3.0,16.0,393.0
2021-12-17-16:16:26.863273,3.0,16.0,393.0
2021-12-17-16:16:26.865268,2.0,5.0,393.0
2021-12-17-16:16:26.865268,4.0,7.0,393.0
2021-12-17-16:16:26.866316,4.0,7.0,393.0
2021-12-17-16:16:26.867310,4.0,7.0,393.0
2021-12-17-16:16:26.868306,4.0,7.0,393.0
2021-12-17-16:16:26.869303,8.0,8.0,393.0
2021-12-17-16:16:26.870303,17.0,27.0,393.0
2021-12-17-16:16:26.871299,17.0,27.0,393.0
2021-12-17-16:16:26.872297,17.0,27.0,393.0
2021-12-17-16:16:26.873293,13.0,14.0,393.0
2021-12-17-16:16:26.874290,7.0,9.0,393.0
2021-12-17-16:16:26.875289,0.0,18.0,393.0
2021-12-17-16:16:26.876284,0.0,18.0,393.0
2021-12-17-16:16:26.877236,0.0,31.0,393.0
2021-12-17-16:16:26.878233,2.0,25.0,393.0
2021-12-17-16:16:26.879279,4.0,18.0,393.0
2021-12-17-16:16:26.880266,4.0,18.0,393.0
2021-12-17-16:16:26.881250,2.0,8.0,393.0
2021-12-17-16:16:26.882248,3.0,2.0,393.0
2021-12-17-16:16:26.883268,3.0,2.0,393.0
2021-12-17-16:16:26.884263,3.0,2.0,393.0
2021-12-17-16:16:26.885260,6.0,3.0,393.0
2021-12-17-16:16:26.886258,9.0,3.0,393.0
2021-12-17-16:16:26.887255,16.0,38.0,393.0
2021-12-17-16:16:26.888255,16.0,38.0,393.0
2021-12-17-16:16:26.889250,13.0,34.0,393.0
2021-12-17-16:16:26.890247,12.0,10.0,393.0
2021-12-17-16:16:26.891351,7.0,8.0,393.0
2021-12-17-16:16:26.891351,7.0,8.0,393.0
2021-12-17-16:16:26.892585,7.0,8.0,393.0
2021-12-17-16:16:26.892585,2.0,24.0,393.0
2021-12-17-16:16:26.893631,5.0,41.0,393.0
2021-12-17-16:16:26.894629,5.0,41.0,393.0
2021-12-17-16:16:26.895628,5.0,41.0,393.0
2021-12-17-16:16:26.896623,5.0,41.0,393.0
2021-12-17-16:16:26.897601,2.0,39.0,393.0
2021-12-17-16:16:26.899616,3.0,20.0,393.0
2021-12-17-16:16:26.899616,3.0,6.0,393.0
2021-12-17-16:16:26.900613,3.0,6.0,393.0
2021-12-17-16:16:26.901614,9.0,20.0,393.0
2021-12-17-16:16:26.902608,10.0,35.0,393.0
2021-12-17-16:16:26.903606,10.0,35.0,393.0
2021-12-17-16:16:26.904602,10.0,35.0,393.0
2021-12-17-16:16:26.905599,14.0,27.0,393.0
2021-12-17-16:16:26.906606,13.0,18.0,393.0
2021-12-17-16:16:26.907595,7.0,11.0,393.0
2021-12-17-16:16:26.908591,7.0,11.0,393.0
2021-12-17-16:16:26.909588,0.0,35.0,392.0
2021-12-17-16:16:26.910566,2.0,35.0,393.0
2021-12-17-16:16:26.911537,2.0,29.0,393.0
2021-12-17-16:16:26.912534,2.0,29.0,393.0
2021-12-17-16:16:26.913558,1.0,14.0,393.0
2021-12-17-16:16:26.914555,6.0,9.0,393.0
2021-12-17-16:16:26.915573,6.0,9.0,393.0
2021-12-17-16:16:26.916564,6.0,9.0,393.0
2021-12-17-16:16:26.917572,1.0,7.0,393.0
2021-12-17-16:16:26.918565,9.0,8.0,393.0
2021-12-17-16:16:26.919564,13.0,18.0,392.0
2021-12-17-16:16:26.920559,13.0,18.0,392.0
2021-12-17-16:16:26.921556,17.0,27.0,393.0
2021-12-17-16:16:26.922554,12.0,15.0,392.0
2021-12-17-16:16:26.923551,8.0,4.0,393.0
2021-12-17-16:16:26.924548,8.0,4.0,393.0
2021-12-17-16:16:26.925550,8.0,4.0,393.0
2021-12-17-16:16:26.926549,1.0,23.0,393.0
2021-12-17-16:16:26.927543,3.0,27.0,393.0
2021-12-17-16:16:26.928537,3.0,27.0,393.0
2021-12-17-16:16:26.929536,3.0,27.0,393.0
2021-12-17-16:16:26.931485,2.0,10.0,393.0
2021-12-17-16:16:26.931485,1.0,4.0,393.0
2021-12-17-16:16:26.932507,1.0,4.0,393.0
2021-12-17-16:16:26.933502,1.0,4.0,393.0
2021-12-17-16:16:26.934500,1.0,9.0,393.0
2021-12-17-16:16:26.935499,2.0,15.0,393.0
2021-12-17-16:16:26.936494,11.0,41.0,393.0
2021-12-17-16:16:26.937494,11.0,41.0,393.0
2021-12-17-16:16:26.938489,15.0,46.0,393.0
2021-12-17-16:16:26.939486,11.0,6.0,393.0
2021-12-17-16:16:26.940486,8.0,16.0,392.0
2021-12-17-16:16:26.941481,8.0,16.0,392.0
2021-12-17-16:16:26.942479,0.0,39.0,393.0
2021-12-17-16:16:26.943477,3.0,30.0,393.0
2021-12-17-16:16:26.944474,2.0,22.0,393.0
2021-12-17-16:16:26.945447,2.0,22.0,393.0
2021-12-17-16:16:26.946445,1.0,7.0,393.0
2021-12-17-16:16:26.947443,0.0,5.0,393.0
2021-12-17-16:16:26.948440,0.0,5.0,393.0
2021-12-17-16:16:26.949447,0.0,5.0,393.0
2021-12-17-16:16:26.950440,0.0,5.0,393.0
2021-12-17-16:16:26.951432,4.0,5.0,393.0
2021-12-17-16:16:26.952442,15.0,30.0,393.0
2021-12-17-16:16:26.953433,15.0,30.0,393.0
2021-12-17-16:16:26.954424,12.0,10.0,393.0
2021-12-17-16:16:26.955421,8.0,5.0,393.0
2021-12-17-16:16:26.956418,8.0,5.0,393.0
2021-12-17-16:16:26.957416,8.0,5.0,393.0
2021-12-17-16:16:26.958413,3.0,37.0,393.0
2021-12-17-16:16:26.959410,4.0,29.0,393.0
2021-12-17-16:16:26.960408,4.0,29.0,393.0
2021-12-17-16:16:26.961405,4.0,29.0,393.0
2021-12-17-16:16:26.962455,4.0,29.0,393.0
2021-12-17-16:16:26.963417,2.0,7.0,392.0
2021-12-17-16:16:26.964431,2.0,9.0,393.0
2021-12-17-16:16:26.965426,2.0,9.0,393.0
2021-12-17-16:16:26.967389,5.0,1.0,393.0
2021-12-17-16:16:26.967389,14.0,26.0,392.0
2021-12-17-16:16:26.968418,14.0,26.0,392.0
2021-12-17-16:16:26.969417,14.0,26.0,392.0
2021-12-17-16:16:26.970412,14.0,26.0,392.0
2021-12-17-16:16:26.971410,17.0,30.0,393.0
2021-12-17-16:16:26.972374,17.0,20.0,392.0
2021-12-17-16:16:26.973374,10.0,7.0,393.0
2021-12-17-16:16:26.974370,10.0,7.0,393.0
2021-12-17-16:16:26.975402,3.0,31.0,393.0
2021-12-17-16:16:26.976398,2.0,22.0,392.0
2021-12-17-16:16:26.977363,2.0,22.0,392.0
2021-12-17-16:16:26.978394,2.0,22.0,392.0
2021-12-17-16:16:26.979390,1.0,8.0,392.0
2021-12-17-16:16:26.980354,0.0,27.0,392.0
2021-12-17-16:16:26.981384,3.0,19.0,392.0
2021-12-17-16:16:26.982381,3.0,19.0,392.0
2021-12-17-16:16:26.983383,2.0,4.0,392.0
2021-12-17-16:16:26.984397,13.0,4.0,392.0
2021-12-17-16:16:26.985394,13.0,4.0,392.0
2021-12-17-16:16:26.986337,13.0,4.0,392.0
2021-12-17-16:16:26.987390,15.0,5.0,392.0
2021-12-17-16:16:26.988382,17.0,23.0,393.0
2021-12-17-16:16:26.989379,10.0,12.0,393.0
2021-12-17-16:16:26.990327,10.0,12.0,393.0
2021-12-17-16:16:26.991373,1.0,11.0,393.0
2021-12-17-16:16:26.992369,7.0,24.0,393.0
2021-12-17-16:16:26.993352,1.0,19.0,393.0
2021-12-17-16:16:26.994368,1.0,19.0,393.0
2021-12-17-16:16:26.995369,0.0,19.0,393.0
2021-12-17-16:16:26.996364,1.0,23.0,393.0
2021-12-17-16:16:26.997308,0.0,17.0,393.0
2021-12-17-16:16:26.998304,0.0,17.0,393.0
2021-12-17-16:16:27.000301,2.0,10.0,393.0
2021-12-17-16:16:27.000301,11.0,22.0,393.0
2021-12-17-16:16:27.001298,11.0,22.0,393.0
2021-12-17-16:16:27.002352,11.0,22.0,393.0
2021-12-17-16:16:27.003339,11.0,22.0,393.0
2021-12-17-16:16:27.004338,13.0,34.0,393.0
2021-12-17-16:16:27.005337,14.0,19.0,393.0
2021-12-17-16:16:27.006331,12.0,13.0,393.0
2021-12-17-16:16:27.007329,12.0,13.0,393.0
2021-12-17-16:16:27.008325,9.0,0.0,393.0
2021-12-17-16:16:27.009325,6.0,27.0,393.0
2021-12-17-16:16:27.010320,5.0,14.0,393.0
2021-12-17-16:16:27.011321,5.0,14.0,393.0
2021-12-17-16:16:27.012317,1.0,15.0,393.0
2021-12-17-16:16:27.013315,2.0,15.0,393.0
2021-12-17-16:16:27.014292,0.0,8.0,392.0
2021-12-17-16:16:27.015337,0.0,8.0,392.0
2021-12-17-16:16:27.015337,6.0,16.0,392.0
2021-12-17-16:16:27.016396,6.0,16.0,392.0
2021-12-17-16:16:27.017390,6.0,16.0,392.0
2021-12-17-16:16:27.018390,6.0,16.0,392.0
2021-12-17-16:16:27.019567,6.0,16.0,392.0
2021-12-17-16:16:27.019567,11.0,27.0,393.0
2021-12-17-16:16:27.020721,11.0,17.0,393.0
2021-12-17-16:16:27.020721,11.0,17.0,393.0
2021-12-17-16:16:27.021777,11.0,17.0,393.0
2021-12-17-16:16:27.022773,11.0,17.0,393.0
2021-12-17-16:16:27.023772,11.0,17.0,393.0
2021-12-17-16:16:27.024958,12.0,8.0,392.0
2021-12-17-16:16:27.024958,9.0,17.0,392.0
2021-12-17-16:16:27.026005,3.0,32.0,393.0
2021-12-17-16:16:27.027003,3.0,32.0,393.0
2021-12-17-16:16:27.028000,3.0,32.0,393.0
2021-12-17-16:16:27.029093,2.0,14.0,393.0
2021-12-17-16:16:27.029093,3.0,13.0,393.0
2021-12-17-16:16:27.030109,3.0,13.0,393.0
2021-12-17-16:16:27.031091,3.0,13.0,393.0
2021-12-17-16:16:27.032496,3.0,13.0,393.0
2021-12-17-16:16:27.032496,0.0,12.0,392.0
2021-12-17-16:16:27.033530,4.0,5.0,393.0
2021-12-17-16:16:27.035492,3.0,7.0,392.0
2021-12-17-16:16:27.035492,13.0,19.0,393.0
2021-12-17-16:16:27.036687,14.0,8.0,393.0
2021-12-17-16:16:27.036687,16.0,10.0,393.0
2021-12-17-16:16:27.037742,16.0,10.0,393.0
2021-12-17-16:16:27.038740,16.0,10.0,393.0
2021-12-17-16:16:27.039735,16.0,10.0,393.0
2021-12-17-16:16:27.040713,10.0,3.0,393.0
2021-12-17-16:16:27.041730,1.0,23.0,392.0
2021-12-17-16:16:27.042729,2.0,29.0,392.0
2021-12-17-16:16:27.043732,2.0,29.0,392.0
2021-12-17-16:16:27.044726,4.0,21.0,393.0
2021-12-17-16:16:27.045721,3.0,2.0,392.0
2021-12-17-16:16:27.046731,0.0,9.0,392.0
2021-12-17-16:16:27.047713,0.0,9.0,392.0
2021-12-17-16:16:27.048719,2.0,10.0,392.0
2021-12-17-16:16:27.049912,2.0,10.0,392.0
2021-12-17-16:16:27.049912,4.0,12.0,392.0
2021-12-17-16:16:27.050944,4.0,12.0,392.0
2021-12-17-16:16:27.051944,4.0,12.0,392.0
2021-12-17-16:16:27.052938,9.0,23.0,392.0
2021-12-17-16:16:27.053938,12.0,21.0,392.0
2021-12-17-16:16:27.055024,12.0,21.0,392.0
2021-12-17-16:16:27.055024,12.0,21.0,392.0
2021-12-17-16:16:27.056081,12.0,21.0,392.0
2021-12-17-16:16:27.057076,16.0,7.0,393.0
2021-12-17-16:16:27.058075,2.0,36.0,392.0
2021-12-17-16:16:27.059070,4.0,44.0,393.0
2021-12-17-16:16:27.060068,4.0,44.0,393.0
2021-12-17-16:16:27.061067,3.0,29.0,392.0
2021-12-17-16:16:27.062062,3.0,20.0,392.0
2021-12-17-16:16:27.063060,3.0,16.0,392.0
2021-12-17-16:16:27.064061,3.0,16.0,392.0
2021-12-17-16:16:27.065053,2.0,17.0,393.0
2021-12-17-16:16:27.067048,4.0,6.0,393.0
2021-12-17-16:16:27.067048,1.0,11.0,393.0
2021-12-17-16:16:27.068052,1.0,11.0,393.0
2021-12-17-16:16:27.069046,1.0,11.0,393.0
2021-12-17-16:16:27.070041,15.0,34.0,392.0
2021-12-17-16:16:27.071039,15.0,12.0,392.0
2021-12-17-16:16:27.071981,15.0,12.0,392.0
2021-12-17-16:16:27.073012,15.0,12.0,392.0
2021-12-17-16:16:27.074008,17.0,6.0,393.0
2021-12-17-16:16:27.075005,3.0,52.0,392.0
2021-12-17-16:16:27.076004,7.0,41.0,393.0
2021-12-17-16:16:27.077000,7.0,41.0,393.0
2021-12-17-16:16:27.078001,6.0,37.0,392.0
2021-12-17-16:16:27.078995,1.0,11.0,392.0
2021-12-17-16:16:27.079992,1.0,11.0,392.0
2021-12-17-16:16:27.080992,1.0,11.0,392.0
2021-12-17-16:16:27.081986,0.0,9.0,392.0
2021-12-17-16:16:27.082976,6.0,10.0,392.0
2021-12-17-16:16:27.083974,6.0,10.0,392.0
2021-12-17-16:16:27.084972,9.0,11.0,392.0
2021-12-17-16:16:27.085990,9.0,11.0,392.0
2021-12-17-16:16:27.086988,12.0,37.0,392.0
2021-12-17-16:16:27.087964,15.0,27.0,392.0
2021-12-17-16:16:27.088981,15.0,27.0,392.0
2021-12-17-16:16:27.089979,15.0,16.0,393.0
2021-12-17-16:16:27.090976,7.0,13.0,393.0
2021-12-17-16:16:27.091975,3.0,24.0,392.0
2021-12-17-16:16:27.092978,3.0,24.0,392.0
2021-12-17-16:16:27.093968,2.0,28.0,392.0
2021-12-17-16:16:27.094966,2.0,24.0,392.0
2021-12-17-16:16:27.095962,1.0,13.0,392.0
2021-12-17-16:16:27.096913,1.0,13.0,392.0
2021-12-17-16:16:27.097961,1.0,17.0,393.0
2021-12-17-16:16:27.098955,2.0,17.0,393.0
2021-12-17-16:16:27.099953,5.0,6.0,392.0
2021-12-17-16:16:27.100947,5.0,6.0,392.0
2021-12-17-16:16:27.101947,6.0,7.0,392.0
2021-12-17-16:16:27.103941,14.0,31.0,392.0
2021-12-17-16:16:27.103941,18.0,28.0,392.0
2021-12-17-16:16:27.104937,18.0,28.0,392.0
2021-12-17-16:16:27.105936,4.0,23.0,392.0
2021-12-17-16:16:27.106934,4.0,23.0,392.0
2021-12-17-16:16:27.107932,4.0,23.0,392.0
2021-12-17-16:16:27.108931,4.0,23.0,392.0
2021-12-17-16:16:27.109925,4.0,23.0,392.0
2021-12-17-16:16:27.110924,5.0,25.0,393.0
2021-12-17-16:16:27.111920,2.0,16.0,392.0
2021-12-17-16:16:27.112917,2.0,16.0,392.0
2021-12-17-16:16:27.114055,2.0,16.0,392.0
2021-12-17-16:16:27.114055,2.0,11.0,392.0
2021-12-17-16:16:27.115113,2.0,4.0,393.0
2021-12-17-16:16:27.116085,2.0,9.0,392.0
2021-12-17-16:16:27.117104,2.0,9.0,392.0
2021-12-17-16:16:27.118080,2.0,9.0,392.0
2021-12-17-16:16:27.119098,3.0,1.0,392.0
2021-12-17-16:16:27.120080,5.0,5.0,392.0
2021-12-17-16:16:27.121094,14.0,31.0,392.0
2021-12-17-16:16:27.122082,14.0,31.0,392.0
2021-12-17-16:16:27.123085,15.0,20.0,392.0
2021-12-17-16:16:27.124078,11.0,3.0,392.0
2021-12-17-16:16:27.125177,1.0,30.0,392.0
2021-12-17-16:16:27.125177,1.0,30.0,392.0
2021-12-17-16:16:27.126234,1.0,30.0,392.0
2021-12-17-16:16:27.127227,0.0,37.0,392.0
2021-12-17-16:16:27.128433,4.0,23.0,393.0
2021-12-17-16:16:27.128433,0.0,15.0,392.0
2021-12-17-16:16:27.129479,4.0,7.0,392.0
2021-12-17-16:16:27.130482,1.0,4.0,392.0
2021-12-17-16:16:27.131474,1.0,1.0,392.0
2021-12-17-16:16:27.132470,5.0,19.0,393.0
2021-12-17-16:16:27.133538,5.0,19.0,393.0
2021-12-17-16:16:27.133776,5.0,19.0,393.0
2021-12-17-16:16:27.133776,5.0,8.0,393.0
2021-12-17-16:16:27.134802,14.0,5.0,393.0
2021-12-17-16:16:27.136772,14.0,5.0,393.0
2021-12-17-16:16:27.136772,14.0,5.0,393.0
2021-12-17-16:16:27.137768,14.0,5.0,393.0
2021-12-17-16:16:27.138789,5.0,23.0,392.0
2021-12-17-16:16:27.139789,5.0,23.0,392.0
2021-12-17-16:16:27.140783,5.0,23.0,392.0
2021-12-17-16:16:27.141814,5.0,23.0,392.0
2021-12-17-16:16:27.142778,3.0,37.0,392.0
2021-12-17-16:16:27.143794,2.0,38.0,392.0
2021-12-17-16:16:27.144778,2.0,38.0,392.0
2021-12-17-16:16:27.145770,2.0,38.0,392.0
2021-12-17-16:16:27.146840,2.0,38.0,392.0
2021-12-17-16:16:27.146840,3.0,8.0,392.0
2021-12-17-16:16:27.147890,4.0,0.0,392.0
2021-12-17-16:16:27.148892,4.0,0.0,392.0
2021-12-17-16:16:27.150221,4.0,0.0,392.0
2021-12-17-16:16:27.150221,5.0,3.0,392.0
2021-12-17-16:16:27.151245,12.0,61.0,392.0
2021-12-17-16:16:27.152246,12.0,61.0,392.0
2021-12-17-16:16:27.153240,12.0,61.0,392.0
2021-12-17-16:16:27.154213,12.0,61.0,392.0
2021-12-17-16:16:27.155257,16.0,57.0,392.0
2021-12-17-16:16:27.156254,15.0,0.0,393.0
2021-12-17-16:16:27.157252,12.0,16.0,392.0
2021-12-17-16:16:27.158229,12.0,16.0,392.0
2021-12-17-16:16:27.159246,5.0,38.0,392.0
2021-12-17-16:16:27.160246,4.0,40.0,392.0
2021-12-17-16:16:27.161241,3.0,42.0,392.0
2021-12-17-16:16:27.162239,3.0,42.0,392.0
2021-12-17-16:16:27.163235,2.0,23.0,393.0
2021-12-17-16:16:27.164211,7.0,4.0,392.0
2021-12-17-16:16:27.165210,7.0,4.0,392.0
2021-12-17-16:16:27.166205,7.0,4.0,392.0
2021-12-17-16:16:27.167205,7.0,16.0,393.0
2021-12-17-16:16:27.169174,17.0,32.0,392.0
2021-12-17-16:16:27.169174,17.0,32.0,392.0
2021-12-17-16:16:27.170197,17.0,32.0,392.0
2021-12-17-16:16:27.171192,17.0,32.0,392.0
2021-12-17-16:16:27.172189,16.0,25.0,393.0
2021-12-17-16:16:27.173189,14.0,14.0,392.0
2021-12-17-16:16:27.174183,4.0,20.0,392.0
2021-12-17-16:16:27.175181,4.0,20.0,392.0
2021-12-17-16:16:27.176181,1.0,39.0,392.0
2021-12-17-16:16:27.177176,1.0,12.0,392.0
2021-12-17-16:16:27.178155,1.0,12.0,392.0
2021-12-17-16:16:27.179170,1.0,12.0,392.0
2021-12-17-16:16:27.180172,0.0,2.0,392.0
2021-12-17-16:16:27.181168,2.0,7.0,392.0
2021-12-17-16:16:27.182185,2.0,4.0,392.0
2021-12-17-16:16:27.183182,2.0,4.0,392.0
2021-12-17-16:16:27.184183,2.0,3.0,392.0
2021-12-17-16:16:27.185156,12.0,35.0,393.0
2021-12-17-16:16:27.186173,12.0,35.0,393.0
2021-12-17-16:16:27.187171,12.0,35.0,393.0
2021-12-17-16:16:27.188168,16.0,25.0,392.0
2021-12-17-16:16:27.189166,8.0,7.0,392.0
2021-12-17-16:16:27.190164,5.0,6.0,393.0
2021-12-17-16:16:27.191114,5.0,6.0,393.0
2021-12-17-16:16:27.192161,1.0,27.0,392.0
2021-12-17-16:16:27.193260,0.0,34.0,393.0
2021-12-17-16:16:27.193260,0.0,34.0,393.0
2021-12-17-16:16:27.194317,0.0,34.0,393.0
2021-12-17-16:16:27.195292,0.0,34.0,393.0
2021-12-17-16:16:27.196505,0.0,35.0,392.0
2021-12-17-16:16:27.196505,1.0,20.0,392.0
2021-12-17-16:16:27.197551,1.0,3.0,393.0
2021-12-17-16:16:27.198548,1.0,3.0,393.0
2021-12-17-16:16:27.199546,1.0,3.0,393.0
2021-12-17-16:16:27.200547,3.0,0.0,392.0
2021-12-17-16:16:27.201540,4.0,5.0,393.0
2021-12-17-16:16:27.203490,13.0,28.0,393.0
2021-12-17-16:16:27.203490,11.0,21.0,392.0
2021-12-17-16:16:27.204512,10.0,1.0,392.0
2021-12-17-16:16:27.205507,10.0,1.0,392.0
2021-12-17-16:16:27.206509,10.0,1.0,392.0
2021-12-17-16:16:27.207478,10.0,1.0,392.0
2021-12-17-16:16:27.208500,1.0,11.0,392.0
2021-12-17-16:16:27.209499,3.0,22.0,393.0
2021-12-17-16:16:27.210590,4.0,13.0,393.0
2021-12-17-16:16:27.210590,4.0,13.0,393.0
2021-12-17-16:16:27.211768,4.0,13.0,393.0
2021-12-17-16:16:27.211768,1.0,9.0,392.0
2021-12-17-16:16:27.212794,1.0,9.0,392.0
2021-12-17-16:16:27.213765,3.0,17.0,392.0
2021-12-17-16:16:27.214789,3.0,17.0,392.0
2021-12-17-16:16:27.215784,3.0,17.0,392.0
2021-12-17-16:16:27.216781,6.0,23.0,392.0
2021-12-17-16:16:27.217781,12.0,15.0,393.0
2021-12-17-16:16:27.218775,12.0,15.0,393.0
2021-12-17-16:16:27.219749,12.0,15.0,393.0
2021-12-17-16:16:27.220770,9.0,13.0,392.0
2021-12-17-16:16:27.221768,9.0,13.0,392.0
2021-12-17-16:16:27.222767,9.0,13.0,392.0
2021-12-17-16:16:27.223757,9.0,13.0,392.0
2021-12-17-16:16:27.224761,0.0,13.0,392.0
2021-12-17-16:16:27.225760,4.0,41.0,393.0
2021-12-17-16:16:27.226856,1.0,31.0,392.0
2021-12-17-16:16:27.226856,1.0,31.0,392.0
2021-12-17-16:16:27.227899,1.0,31.0,392.0
2021-12-17-16:16:27.229099,2.0,18.0,392.0
2021-12-17-16:16:27.229099,3.0,17.0,392.0
2021-12-17-16:16:27.230123,3.0,17.0,392.0
2021-12-17-16:16:27.231120,4.0,12.0,392.0
2021-12-17-16:16:27.232094,4.0,12.0,392.0
2021-12-17-16:16:27.233116,7.0,1.0,393.0
2021-12-17-16:16:27.234232,3.0,17.0,393.0
2021-12-17-16:16:27.234232,13.0,30.0,392.0
2021-12-17-16:16:27.235286,13.0,30.0,392.0
2021-12-17-16:16:27.236286,13.0,30.0,392.0
2021-12-17-16:16:27.238278,13.0,30.0,392.0
2021-12-17-16:16:27.238278,13.0,8.0,392.0
2021-12-17-16:16:27.239275,13.0,8.0,392.0
2021-12-17-16:16:27.240251,13.0,8.0,392.0
2021-12-17-16:16:27.241263,6.0,5.0,392.0
2021-12-17-16:16:27.242446,5.0,25.0,392.0
2021-12-17-16:16:27.242446,1.0,25.0,392.0
2021-12-17-16:16:27.243560,1.0,25.0,392.0
2021-12-17-16:16:27.243560,1.0,25.0,392.0
2021-12-17-16:16:27.244607,1.0,25.0,392.0
2021-12-17-16:16:27.245558,2.0,9.0,393.0
2021-12-17-16:16:27.246604,1.0,10.0,392.0
2021-12-17-16:16:27.247598,1.0,10.0,392.0
2021-12-17-16:16:27.248769,1.0,10.0,392.0
2021-12-17-16:16:27.248769,0.0,10.0,392.0
2021-12-17-16:16:27.249805,0.0,10.0,392.0
2021-12-17-16:16:27.250800,11.0,3.0,392.0
2021-12-17-16:16:27.251795,11.0,3.0,392.0
2021-12-17-16:16:27.252793,11.0,3.0,392.0
2021-12-17-16:16:27.253792,15.0,11.0,393.0
2021-12-17-16:16:27.254788,14.0,8.0,392.0
2021-12-17-16:16:27.255777,14.0,8.0,392.0
2021-12-17-16:16:27.256774,14.0,8.0,392.0
2021-12-17-16:16:27.257771,10.0,1.0,392.0
2021-12-17-16:16:27.258769,6.0,27.0,393.0
2021-12-17-16:16:27.259765,6.0,27.0,393.0
2021-12-17-16:16:27.260739,6.0,27.0,393.0
2021-12-17-16:16:27.261763,4.0,24.0,393.0
2021-12-17-16:16:27.262854,3.0,11.0,392.0
2021-12-17-16:16:27.262854,3.0,11.0,392.0
2021-12-17-16:16:27.263854,3.0,11.0,392.0
2021-12-17-16:16:27.265075,3.0,11.0,392.0
2021-12-17-16:16:27.265075,2.0,1.0,392.0
2021-12-17-16:16:27.266098,2.0,1.0,392.0
2021-12-17-16:16:27.267098,6.0,8.0,393.0
2021-12-17-16:16:27.268093,6.0,8.0,393.0
2021-12-17-16:16:27.269090,6.0,8.0,393.0
2021-12-17-16:16:27.270091,14.0,26.0,393.0
2021-12-17-16:16:27.271175,13.0,15.0,392.0
2021-12-17-16:16:27.271175,13.0,15.0,392.0
2021-12-17-16:16:27.273227,13.0,15.0,392.0
2021-12-17-16:16:27.273227,2.0,5.0,392.0
2021-12-17-16:16:27.274339,2.0,22.0,392.0
2021-12-17-16:16:27.274339,2.0,22.0,392.0
2021-12-17-16:16:27.275385,2.0,22.0,392.0
2021-12-17-16:16:27.276385,2.0,22.0,392.0
2021-12-17-16:16:27.277333,2.0,22.0,392.0
2021-12-17-16:16:27.278563,4.0,34.0,392.0
2021-12-17-16:16:27.278563,5.0,25.0,393.0
2021-12-17-16:16:27.279595,5.0,25.0,393.0
2021-12-17-16:16:27.280561,0.0,14.0,392.0
2021-12-17-16:16:27.281589,0.0,14.0,392.0
2021-12-17-16:16:27.282581,1.0,27.0,392.0
2021-12-17-16:16:27.283673,4.0,1.0,393.0
2021-12-17-16:16:27.283673,4.0,1.0,393.0
2021-12-17-16:16:27.284726,4.0,1.0,393.0
2021-12-17-16:16:27.285716,4.0,1.0,393.0
2021-12-17-16:16:27.286785,11.0,18.0,392.0
2021-12-17-16:16:27.286785,14.0,28.0,393.0
2021-12-17-16:16:27.287841,14.0,28.0,393.0
2021-12-17-16:16:27.288895,14.0,28.0,393.0
2021-12-17-16:16:27.289892,17.0,20.0,392.0
2021-12-17-16:16:27.290890,12.0,7.0,393.0
2021-12-17-16:16:27.291889,3.0,22.0,392.0
2021-12-17-16:16:27.292884,2.0,36.0,392.0
2021-12-17-16:16:27.293827,2.0,36.0,392.0
2021-12-17-16:16:27.294876,4.0,38.0,392.0
2021-12-17-16:16:27.295869,4.0,32.0,392.0
2021-12-17-16:16:27.296865,2.0,16.0,392.0
2021-12-17-16:16:27.297842,2.0,16.0,392.0
2021-12-17-16:16:27.298860,0.0,4.0,392.0
2021-12-17-16:16:27.299859,2.0,9.0,393.0
2021-12-17-16:16:27.300855,5.0,7.0,393.0
2021-12-17-16:16:27.302044,5.0,7.0,393.0
2021-12-17-16:16:27.302044,7.0,19.0,392.0
2021-12-17-16:16:27.303080,7.0,19.0,392.0
2021-12-17-16:16:27.304073,13.0,24.0,392.0
2021-12-17-16:16:27.305073,13.0,24.0,392.0
2021-12-17-16:16:27.306068,13.0,24.0,392.0
2021-12-17-16:16:27.308032,13.0,2.0,392.0
2021-12-17-16:16:27.308032,2.0,43.0,393.0
2021-12-17-16:16:27.309311,2.0,43.0,393.0
2021-12-17-16:16:27.309311,2.0,43.0,393.0
2021-12-17-16:16:27.310545,2.0,43.0,393.0
2021-12-17-16:16:27.310545,3.0,37.0,392.0
2021-12-17-16:16:27.311602,1.0,10.0,392.0
2021-12-17-16:16:27.312596,4.0,13.0,392.0
2021-12-17-16:16:27.313593,4.0,13.0,392.0
2021-12-17-16:16:27.314586,4.0,13.0,392.0
2021-12-17-16:16:27.314586,0.0,4.0,392.0
2021-12-17-16:16:27.315702,5.0,6.0,393.0
2021-12-17-16:16:27.315702,5.0,6.0,393.0
2021-12-17-16:16:27.316727,5.0,6.0,393.0
2021-12-17-16:16:27.317724,5.0,6.0,393.0
2021-12-17-16:16:27.318896,5.0,6.0,393.0
2021-12-17-16:16:27.318896,9.0,6.0,392.0
2021-12-17-16:16:27.319928,13.0,28.0,392.0
2021-12-17-16:16:27.320925,18.0,31.0,393.0
2021-12-17-16:16:27.321919,18.0,31.0,393.0
2021-12-17-16:16:27.322912,18.0,31.0,393.0
2021-12-17-16:16:27.323908,6.0,44.0,392.0
2021-12-17-16:16:27.324911,6.0,44.0,392.0
2021-12-17-16:16:27.325903,6.0,44.0,392.0
2021-12-17-16:16:27.326901,6.0,44.0,392.0
2021-12-17-16:16:27.327899,4.0,42.0,392.0
2021-12-17-16:16:27.329000,0.0,12.0,392.0
2021-12-17-16:16:27.329000,1.0,2.0,392.0
2021-12-17-16:16:27.330047,1.0,2.0,392.0
2021-12-17-16:16:27.331203,1.0,2.0,392.0
2021-12-17-16:16:27.331203,3.0,3.0,392.0
2021-12-17-16:16:27.332228,3.0,3.0,392.0
2021-12-17-16:16:27.333354,4.0,11.0,392.0
2021-12-17-16:16:27.333354,4.0,11.0,392.0
2021-12-17-16:16:27.334372,4.0,11.0,392.0
2021-12-17-16:16:27.335578,2.0,7.0,392.0
2021-12-17-16:16:27.335578,11.0,30.0,392.0
2021-12-17-16:16:27.336603,11.0,30.0,392.0
2021-12-17-16:16:27.337599,13.0,47.0,392.0
2021-12-17-16:16:27.339595,13.0,47.0,392.0
2021-12-17-16:16:27.340343,14.0,23.0,392.0
2021-12-17-16:16:27.340343,0.0,48.0,392.0
2021-12-17-16:16:27.341390,0.0,48.0,392.0
2021-12-17-16:16:27.342387,0.0,48.0,392.0
2021-12-17-16:16:27.343386,0.0,48.0,392.0
2021-12-17-16:16:27.344565,2.0,56.0,393.0
2021-12-17-16:16:27.344565,4.0,53.0,393.0
2021-12-17-16:16:27.345710,4.0,53.0,393.0
2021-12-17-16:16:27.345710,2.0,39.0,393.0
2021-12-17-16:16:27.346888,2.0,39.0,393.0
2021-12-17-16:16:27.346888,5.0,10.0,392.0
2021-12-17-16:16:27.347923,5.0,10.0,392.0
2021-12-17-16:16:27.348976,1.0,4.0,392.0
2021-12-17-16:16:27.349305,2.0,6.0,392.0
2021-12-17-16:16:27.349305,2.0,6.0,392.0
2021-12-17-16:16:27.350352,2.0,6.0,392.0
2021-12-17-16:16:27.351505,2.0,6.0,392.0
2021-12-17-16:16:27.351505,4.0,2.0,393.0
2021-12-17-16:16:27.352537,4.0,2.0,393.0
2021-12-17-16:16:27.353534,19.0,30.0,392.0
2021-12-17-16:16:27.354531,19.0,30.0,392.0
2021-12-17-16:16:27.355528,19.0,30.0,392.0
2021-12-17-16:16:27.356529,1.0,13.0,392.0
2021-12-17-16:16:27.357516,1.0,13.0,392.0
2021-12-17-16:16:27.358513,1.0,13.0,392.0
2021-12-17-16:16:27.359512,1.0,13.0,392.0
2021-12-17-16:16:27.360520,5.0,29.0,392.0
2021-12-17-16:16:27.361505,3.0,20.0,392.0
2021-12-17-16:16:27.362507,3.0,20.0,392.0
2021-12-17-16:16:27.363499,3.0,20.0,392.0
2021-12-17-16:16:27.364500,3.0,14.0,392.0
2021-12-17-16:16:27.365495,0.0,9.0,393.0
2021-12-17-16:16:27.366491,6.0,2.0,392.0
2021-12-17-16:16:27.367491,6.0,2.0,392.0
2021-12-17-16:16:27.368490,5.0,6.0,392.0
2021-12-17-16:16:27.369585,14.0,18.0,393.0
2021-12-17-16:16:27.369585,16.0,18.0,393.0
2021-12-17-16:16:27.370632,16.0,18.0,393.0
2021-12-17-16:16:27.372627,16.0,18.0,393.0
2021-12-17-16:16:27.372627,2.0,9.0,393.0
2021-12-17-16:16:27.373624,2.0,9.0,393.0
2021-12-17-16:16:27.374621,2.0,9.0,393.0
2021-12-17-16:16:27.375618,2.0,9.0,393.0
2021-12-17-16:16:27.376617,3.0,17.0,393.0
2021-12-17-16:16:27.377614,3.0,20.0,393.0
2021-12-17-16:16:27.378609,5.0,10.0,392.0
2021-12-17-16:16:27.379811,5.0,10.0,392.0
2021-12-17-16:16:27.379811,2.0,10.0,393.0
2021-12-17-16:16:27.380811,2.0,10.0,393.0
2021-12-17-16:16:27.381986,0.0,12.0,392.0
2021-12-17-16:16:27.381986,0.0,12.0,392.0
2021-12-17-16:16:27.383031,0.0,12.0,392.0
2021-12-17-16:16:27.384205,0.0,12.0,392.0
2021-12-17-16:16:27.384205,5.0,2.0,392.0
2021-12-17-16:16:27.385237,5.0,2.0,392.0
2021-12-17-16:16:27.386237,15.0,31.0,392.0
2021-12-17-16:16:27.387231,17.0,29.0,393.0
2021-12-17-16:16:27.388231,17.0,29.0,393.0
2021-12-17-16:16:27.389194,3.0,14.0,392.0
2021-12-17-16:16:27.390223,3.0,14.0,392.0
2021-12-17-16:16:27.391223,3.0,14.0,392.0
2021-12-17-16:16:27.392218,3.0,14.0,392.0
2021-12-17-16:16:27.393215,2.0,24.0,393.0
2021-12-17-16:16:27.394216,1.0,31.0,392.0
2021-12-17-16:16:27.395210,1.0,31.0,392.0
2021-12-17-16:16:27.396221,1.0,31.0,392.0
2021-12-17-16:16:27.397173,3.0,22.0,392.0
2021-12-17-16:16:27.398201,3.0,14.0,393.0
2021-12-17-16:16:27.399195,8.0,6.0,392.0
2021-12-17-16:16:27.400196,8.0,6.0,392.0
2021-12-17-16:16:27.401186,5.0,15.0,393.0
2021-12-17-16:16:27.402307,12.0,27.0,392.0
2021-12-17-16:16:27.402307,14.0,31.0,393.0
2021-12-17-16:16:27.403357,14.0,31.0,393.0
2021-12-17-16:16:27.404351,14.0,31.0,393.0
2021-12-17-16:16:27.406743,13.0,17.0,392.0
2021-12-17-16:16:27.406743,11.0,4.0,393.0
2021-12-17-16:16:27.407741,3.0,23.0,392.0
2021-12-17-16:16:27.408730,3.0,23.0,392.0
2021-12-17-16:16:27.409729,2.0,34.0,393.0
2021-12-17-16:16:27.410700,2.0,21.0,392.0
2021-12-17-16:16:27.411799,1.0,18.0,392.0
2021-12-17-16:16:27.411799,1.0,18.0,392.0
2021-12-17-16:16:27.412846,1.0,18.0,392.0
2021-12-17-16:16:27.413816,1.0,13.0,393.0
2021-12-17-16:16:27.414842,4.0,3.0,392.0
2021-12-17-16:16:27.415845,4.0,3.0,392.0
2021-12-17-16:16:27.416836,4.0,3.0,392.0
2021-12-17-16:16:27.417838,3.0,7.0,392.0
2021-12-17-16:16:27.418998,3.0,10.0,392.0
2021-12-17-16:16:27.418998,10.0,23.0,392.0
2021-12-17-16:16:27.420120,10.0,23.0,392.0
2021-12-17-16:16:27.420120,14.0,29.0,393.0
2021-12-17-16:16:27.421168,14.0,29.0,393.0
2021-12-17-16:16:27.422535,14.0,16.0,392.0
2021-12-17-16:16:27.422535,12.0,9.0,392.0
2021-12-17-16:16:27.423867,5.0,5.0,392.0
2021-12-17-16:16:27.423867,5.0,5.0,392.0
2021-12-17-16:16:27.424912,5.0,5.0,392.0
2021-12-17-16:16:27.425910,1.0,22.0,393.0
2021-12-17-16:16:27.426908,6.0,30.0,393.0
2021-12-17-16:16:27.427907,6.0,31.0,393.0
2021-12-17-16:16:27.429057,1.0,26.0,392.0
2021-12-17-16:16:27.429057,1.0,28.0,392.0
2021-12-17-16:16:27.430090,1.0,28.0,392.0
2021-12-17-16:16:27.431223,5.0,15.0,392.0
2021-12-17-16:16:27.431223,5.0,15.0,392.0
2021-12-17-16:16:27.432269,5.0,15.0,392.0
2021-12-17-16:16:27.433431,5.0,15.0,392.0
2021-12-17-16:16:27.433431,6.0,8.0,392.0
2021-12-17-16:16:27.434462,6.0,8.0,392.0
2021-12-17-16:16:27.435603,12.0,20.0,393.0
2021-12-17-16:16:27.435603,12.0,20.0,393.0
2021-12-17-16:16:27.436649,12.0,20.0,393.0
2021-12-17-16:16:27.437646,12.0,20.0,393.0
2021-12-17-16:16:27.438647,18.0,20.0,393.0
2021-12-17-16:16:27.439596,15.0,11.0,392.0
2021-12-17-16:16:27.440639,12.0,3.0,392.0
2021-12-17-16:16:27.442588,12.0,3.0,392.0
2021-12-17-16:16:27.442588,5.0,12.0,393.0
2021-12-17-16:16:27.443610,5.0,12.0,393.0
2021-12-17-16:16:27.444606,5.0,12.0,393.0
2021-12-17-16:16:27.445751,5.0,12.0,393.0
2021-12-17-16:16:27.445751,0.0,4.0,392.0
2021-12-17-16:16:27.446782,3.0,12.0,392.0
2021-12-17-16:16:27.447781,4.0,11.0,393.0
2021-12-17-16:16:27.448780,4.0,11.0,393.0
2021-12-17-16:16:27.449775,4.0,11.0,393.0
2021-12-17-16:16:27.450772,6.0,3.0,393.0
2021-12-17-16:16:27.451773,12.0,4.0,392.0
2021-12-17-16:16:27.452767,12.0,4.0,392.0
2021-12-17-16:16:27.453766,12.0,4.0,392.0
2021-12-17-16:16:27.454762,19.0,17.0,392.0
2021-12-17-16:16:27.455764,12.0,24.0,392.0
2021-12-17-16:16:27.456753,11.0,15.0,392.0
2021-12-17-16:16:27.457745,11.0,15.0,392.0
2021-12-17-16:16:27.458743,11.0,15.0,392.0
2021-12-17-16:16:27.459744,3.0,14.0,393.0
2021-12-17-16:16:27.460738,2.0,15.0,392.0
2021-12-17-16:16:27.461737,2.0,15.0,392.0
2021-12-17-16:16:27.462732,4.0,15.0,393.0
2021-12-17-16:16:27.463733,1.0,22.0,392.0
2021-12-17-16:16:27.464729,1.0,9.0,393.0
2021-12-17-16:16:27.465724,1.0,9.0,393.0
2021-12-17-16:16:27.466721,5.0,8.0,393.0
2021-12-17-16:16:27.467723,5.0,8.0,393.0
2021-12-17-16:16:27.468844,12.0,12.0,392.0
2021-12-17-16:16:27.468844,12.0,12.0,392.0
2021-12-17-16:16:27.470026,12.0,12.0,392.0
2021-12-17-16:16:27.470026,16.0,27.0,392.0
2021-12-17-16:16:27.471052,10.0,27.0,393.0
2021-12-17-16:16:27.472047,9.0,14.0,393.0
2021-12-17-16:16:27.473046,9.0,14.0,393.0
2021-12-17-16:16:27.474042,9.0,14.0,393.0
2021-12-17-16:16:27.475039,3.0,9.0,392.0
2021-12-17-16:16:27.476038,6.0,24.0,393.0
2021-12-17-16:16:27.478008,6.0,24.0,393.0
2021-12-17-16:16:27.478008,3.0,19.0,392.0
2021-12-17-16:16:27.479029,3.0,19.0,392.0
2021-12-17-16:16:27.480025,2.0,31.0,393.0
2021-12-17-16:16:27.481025,2.0,31.0,393.0
2021-12-17-16:16:27.482020,2.0,31.0,393.0
2021-12-17-16:16:27.483018,7.0,9.0,392.0
2021-12-17-16:16:27.484101,9.0,10.0,392.0
2021-12-17-16:16:27.484101,9.0,10.0,392.0
2021-12-17-16:16:27.485126,9.0,10.0,392.0
2021-12-17-16:16:27.486314,9.0,10.0,392.0
2021-12-17-16:16:27.486314,15.0,19.0,392.0
2021-12-17-16:16:27.487342,13.0,21.0,392.0
2021-12-17-16:16:27.488335,16.0,13.0,392.0
2021-12-17-16:16:27.489333,16.0,13.0,392.0
2021-12-17-16:16:27.490331,16.0,13.0,392.0
2021-12-17-16:16:27.491328,2.0,18.0,393.0
2021-12-17-16:16:27.492329,3.0,29.0,392.0
2021-12-17-16:16:27.493325,3.0,29.0,392.0
2021-12-17-16:16:27.494295,3.0,29.0,392.0
2021-12-17-16:16:27.495319,1.0,21.0,393.0
2021-12-17-16:16:27.496314,3.0,10.0,392.0
2021-12-17-16:16:27.497287,3.0,10.0,392.0
2021-12-17-16:16:27.498285,3.0,10.0,392.0
2021-12-17-16:16:27.499306,3.0,7.0,393.0
2021-12-17-16:16:27.500304,10.0,9.0,392.0
2021-12-17-16:16:27.501301,10.0,9.0,392.0
2021-12-17-16:16:27.502300,10.0,9.0,392.0
2021-12-17-16:16:27.503297,16.0,25.0,393.0
2021-12-17-16:16:27.504295,11.0,27.0,392.0
2021-12-17-16:16:27.505290,11.0,27.0,392.0
2021-12-17-16:16:27.506288,11.0,27.0,392.0
2021-12-17-16:16:27.508259,2.0,25.0,392.0
2021-12-17-16:16:27.508259,4.0,41.0,393.0
2021-12-17-16:16:27.509280,4.0,41.0,393.0
2021-12-17-16:16:27.510277,4.0,41.0,393.0
2021-12-17-16:16:27.511277,4.0,41.0,393.0
2021-12-17-16:16:27.512381,2.0,36.0,392.0
2021-12-17-16:16:27.512381,0.0,21.0,392.0
2021-12-17-16:16:27.513436,0.0,21.0,392.0
2021-12-17-16:16:27.514379,0.0,21.0,392.0
2021-12-17-16:16:27.515650,0.0,21.0,392.0
2021-12-17-16:16:27.515650,6.0,7.0,392.0
2021-12-17-16:16:27.516789,6.0,7.0,392.0
2021-12-17-16:16:27.516789,9.0,13.0,393.0
2021-12-17-16:16:27.517844,9.0,13.0,393.0
2021-12-17-16:16:27.518844,9.0,13.0,393.0
2021-12-17-16:16:27.520104,12.0,28.0,392.0
2021-12-17-16:16:27.520104,13.0,37.0,393.0
2021-12-17-16:16:27.521130,13.0,37.0,393.0
2021-12-17-16:16:27.522138,15.0,21.0,393.0
2021-12-17-16:16:27.523130,15.0,21.0,393.0
2021-12-17-16:16:27.524122,12.0,15.0,392.0
2021-12-17-16:16:27.525352,6.0,31.0,393.0
2021-12-17-16:16:27.525352,6.0,31.0,393.0
2021-12-17-16:16:27.526406,6.0,31.0,393.0
2021-12-17-16:16:27.527403,6.0,31.0,393.0
2021-12-17-16:16:27.528596,4.0,37.0,392.0
2021-12-17-16:16:27.528596,5.0,30.0,393.0
2021-12-17-16:16:27.529623,5.0,30.0,393.0
2021-12-17-16:16:27.530606,2.0,7.0,393.0
2021-12-17-16:16:27.531622,2.0,7.0,393.0
2021-12-17-16:16:27.532621,2.0,10.0,392.0
2021-12-17-16:16:27.533747,3.0,14.0,392.0
2021-12-17-16:16:27.533747,3.0,14.0,392.0
2021-12-17-16:16:27.534802,3.0,14.0,392.0
2021-12-17-16:16:27.535798,3.0,14.0,392.0
2021-12-17-16:16:27.536802,6.0,8.0,392.0
2021-12-17-16:16:27.536802,18.0,28.0,392.0
2021-12-17-16:16:27.537833,18.0,28.0,392.0
2021-12-17-16:16:27.538831,18.0,28.0,392.0
2021-12-17-16:16:27.539831,18.0,28.0,392.0
2021-12-17-16:16:27.540825,9.0,18.0,392.0
2021-12-17-16:16:27.542790,4.0,26.0,392.0
2021-12-17-16:16:27.542790,4.0,26.0,392.0
2021-12-17-16:16:27.543818,4.0,26.0,392.0
2021-12-17-16:16:27.545098,2.0,21.0,393.0
2021-12-17-16:16:27.545098,3.0,27.0,393.0
2021-12-17-16:16:27.546255,3.0,27.0,393.0
2021-12-17-16:16:27.546255,2.0,21.0,393.0
2021-12-17-16:16:27.547271,2.0,21.0,393.0
2021-12-17-16:16:27.548309,2.0,8.0,392.0
2021-12-17-16:16:27.549512,1.0,2.0,392.0
2021-12-17-16:16:27.549512,6.0,2.0,392.0
2021-12-17-16:16:27.550549,6.0,2.0,392.0
2021-12-17-16:16:27.551510,6.0,2.0,392.0
2021-12-17-16:16:27.552541,7.0,10.0,392.0
2021-12-17-16:16:27.553674,13.0,19.0,392.0
2021-12-17-16:16:27.553674,13.0,19.0,392.0
2021-12-17-16:16:27.554727,13.0,19.0,392.0
2021-12-17-16:16:27.555727,13.0,19.0,392.0
2021-12-17-16:16:27.556726,14.0,18.0,392.0
2021-12-17-16:16:27.557719,3.0,38.0,392.0
2021-12-17-16:16:27.558973,3.0,38.0,392.0
2021-12-17-16:16:27.558973,3.0,38.0,392.0
2021-12-17-16:16:27.560006,3.0,38.0,392.0
2021-12-17-16:16:27.561001,1.0,16.0,393.0
2021-12-17-16:16:27.562000,1.0,16.0,393.0
2021-12-17-16:16:27.562998,1.0,16.0,393.0
2021-12-17-16:16:27.563969,1.0,16.0,393.0
2021-12-17-16:16:27.564990,2.0,11.0,392.0
2021-12-17-16:16:27.565992,7.0,0.0,392.0
2021-12-17-16:16:27.566986,7.0,0.0,392.0
2021-12-17-16:16:27.567951,7.0,0.0,392.0
2021-12-17-16:16:27.568980,6.0,2.0,392.0
2021-12-17-16:16:27.569977,15.0,28.0,392.0
2021-12-17-16:16:27.570977,15.0,28.0,392.0
2021-12-17-16:16:27.571941,15.0,28.0,392.0
2021-12-17-16:16:27.572972,14.0,21.0,393.0
2021-12-17-16:16:27.573970,3.0,18.0,392.0
2021-12-17-16:16:27.574964,3.0,18.0,392.0
2021-12-17-16:16:27.575964,3.0,18.0,392.0
2021-12-17-16:16:27.577926,1.0,15.0,393.0
2021-12-17-16:16:27.577926,1.0,15.0,393.0
2021-12-17-16:16:27.578957,1.0,15.0,393.0
2021-12-17-16:16:27.579951,1.0,15.0,393.0
2021-12-17-16:16:27.580921,1.0,15.0,393.0
2021-12-17-16:16:27.581950,2.0,3.0,392.0
2021-12-17-16:16:27.583002,1.0,14.0,392.0
2021-12-17-16:16:27.583002,1.0,14.0,392.0
2021-12-17-16:16:27.584057,1.0,14.0,392.0
2021-12-17-16:16:27.585264,1.0,14.0,392.0
2021-12-17-16:16:27.585264,3.0,6.0,393.0
2021-12-17-16:16:27.586296,3.0,6.0,393.0
2021-12-17-16:16:27.587292,16.0,28.0,392.0
2021-12-17-16:16:27.588317,16.0,28.0,392.0
2021-12-17-16:16:27.589289,16.0,18.0,392.0
2021-12-17-16:16:27.590285,4.0,27.0,393.0
2021-12-17-16:16:27.591285,4.0,27.0,393.0
2021-12-17-16:16:27.592279,4.0,27.0,393.0
2021-12-17-16:16:27.593277,2.0,33.0,392.0
2021-12-17-16:16:27.594275,1.0,20.0,393.0
2021-12-17-16:16:27.595271,1.0,20.0,393.0
2021-12-17-16:16:27.596268,1.0,20.0,393.0
2021-12-17-16:16:27.597234,1.0,20.0,393.0
2021-12-17-16:16:27.598265,3.0,17.0,392.0
2021-12-17-16:16:27.599263,2.0,10.0,392.0
2021-12-17-16:16:27.600258,2.0,10.0,392.0
2021-12-17-16:16:27.601255,2.0,10.0,392.0
2021-12-17-16:16:27.602254,4.0,6.0,392.0
2021-12-17-16:16:27.603250,17.0,31.0,393.0
2021-12-17-16:16:27.604247,17.0,31.0,393.0
2021-12-17-16:16:27.605245,17.0,31.0,393.0
2021-12-17-16:16:27.606242,14.0,15.0,392.0
2021-12-17-16:16:27.607234,4.0,8.0,392.0
2021-12-17-16:16:27.608230,4.0,8.0,392.0
2021-12-17-16:16:27.609227,4.0,8.0,392.0
2021-12-17-16:16:27.611198,2.0,27.0,392.0
2021-12-17-16:16:27.611198,0.0,16.0,392.0
2021-12-17-16:16:27.612219,0.0,16.0,392.0
2021-12-17-16:16:27.613216,0.0,16.0,392.0
2021-12-17-16:16:27.614205,0.0,15.0,392.0
2021-12-17-16:16:27.615323,5.0,8.0,392.0
2021-12-17-16:16:27.615323,3.0,8.0,392.0
2021-12-17-16:16:27.616379,3.0,8.0,392.0
2021-12-17-16:16:27.617376,3.0,8.0,392.0
2021-12-17-16:16:27.618613,5.0,9.0,393.0
2021-12-17-16:16:27.618613,11.0,23.0,392.0
2021-12-17-16:16:27.619750,11.0,23.0,392.0
2021-12-17-16:16:27.619750,16.0,29.0,392.0
2021-12-17-16:16:27.620806,16.0,29.0,392.0
2021-12-17-16:16:27.621802,16.0,29.0,392.0
2021-12-17-16:16:27.622806,15.0,21.0,392.0
2021-12-17-16:16:27.623798,10.0,13.0,392.0
2021-12-17-16:16:27.624795,0.0,8.0,392.0
2021-12-17-16:16:27.625791,0.0,8.0,392.0
2021-12-17-16:16:27.626735,6.0,37.0,393.0
2021-12-17-16:16:27.627778,6.0,37.0,393.0
2021-12-17-16:16:27.628777,6.0,37.0,393.0
2021-12-17-16:16:27.629948,6.0,37.0,393.0
2021-12-17-16:16:27.629948,0.0,31.0,393.0
2021-12-17-16:16:27.630969,0.0,31.0,393.0
2021-12-17-16:16:27.631977,1.0,15.0,392.0
2021-12-17-16:16:27.632978,5.0,4.0,393.0
2021-12-17-16:16:27.633977,5.0,4.0,393.0
2021-12-17-16:16:27.634971,7.0,7.0,392.0
2021-12-17-16:16:27.635967,16.0,31.0,393.0
2021-12-17-16:16:27.636967,16.0,31.0,393.0
2021-12-17-16:16:27.637964,16.0,31.0,393.0
2021-12-17-16:16:27.638959,20.0,24.0,392.0
2021-12-17-16:16:27.639956,2.0,19.0,392.0
2021-12-17-16:16:27.640957,2.0,19.0,392.0
2021-12-17-16:16:27.641950,2.0,19.0,392.0
2021-12-17-16:16:27.642954,7.0,28.0,393.0
2021-12-17-16:16:27.644912,3.0,17.0,392.0
2021-12-17-16:16:27.644912,3.0,17.0,392.0
2021-12-17-16:16:27.645942,3.0,17.0,392.0
2021-12-17-16:16:27.646938,2.0,8.0,393.0
2021-12-17-16:16:27.647934,5.0,4.0,393.0
2021-12-17-16:16:27.648927,5.0,4.0,393.0
2021-12-17-16:16:27.649898,5.0,4.0,393.0
2021-12-17-16:16:27.650921,5.0,3.0,392.0
2021-12-17-16:16:27.651916,14.0,24.0,392.0
2021-12-17-16:16:27.652913,18.0,31.0,393.0
2021-12-17-16:16:27.653887,18.0,31.0,393.0
2021-12-17-16:16:27.654908,15.0,25.0,392.0
2021-12-17-16:16:27.655906,4.0,3.0,393.0
2021-12-17-16:16:27.656906,4.0,3.0,393.0
2021-12-17-16:16:27.657937,4.0,3.0,393.0
2021-12-17-16:16:27.658900,3.0,14.0,392.0
2021-12-17-16:16:27.659894,3.0,24.0,392.0
2021-12-17-16:16:27.660899,3.0,24.0,392.0
2021-12-17-16:16:27.661891,3.0,24.0,392.0
2021-12-17-16:16:27.662886,2.0,6.0,392.0
2021-12-17-16:16:27.663902,0.0,9.0,392.0
2021-12-17-16:16:27.664885,0.0,9.0,392.0
2021-12-17-16:16:27.665878,0.0,9.0,392.0
2021-12-17-16:16:27.666878,0.0,9.0,392.0
2021-12-17-16:16:27.667877,4.0,8.0,393.0
2021-12-17-16:16:27.668990,14.0,21.0,392.0
2021-12-17-16:16:27.668990,14.0,21.0,392.0
2021-12-17-16:16:27.670048,14.0,21.0,392.0
2021-12-17-16:16:27.671250,14.0,21.0,392.0
2021-12-17-16:16:27.671250,13.0,1.0,392.0
2021-12-17-16:16:27.672384,13.0,1.0,392.0
2021-12-17-16:16:27.672384,6.0,14.0,392.0
2021-12-17-16:16:27.673441,6.0,14.0,392.0
2021-12-17-16:16:27.674421,6.0,14.0,392.0
2021-12-17-16:16:27.675434,0.0,29.0,393.0
2021-12-17-16:16:27.676432,6.0,34.0,392.0
2021-12-17-16:16:27.677375,4.0,19.0,393.0
2021-12-17-16:16:27.678410,3.0,9.0,393.0
2021-12-17-16:16:27.680421,3.0,4.0,392.0
2021-12-17-16:16:27.680421,3.0,0.0,392.0
2021-12-17-16:16:27.681364,3.0,0.0,392.0
2021-12-17-16:16:27.682361,3.0,0.0,392.0
2021-12-17-16:16:27.683358,3.0,0.0,392.0
2021-12-17-16:16:27.684386,13.0,23.0,393.0
2021-12-17-16:16:27.685379,13.0,23.0,393.0
2021-12-17-16:16:27.686349,13.0,23.0,393.0
2021-12-17-16:16:27.687372,13.0,23.0,393.0
2021-12-17-16:16:27.688370,18.0,26.0,392.0
2021-12-17-16:16:27.689367,8.0,4.0,392.0
2021-12-17-16:16:27.690365,8.0,4.0,392.0
2021-12-17-16:16:27.691362,8.0,4.0,392.0
2021-12-17-16:16:27.692359,2.0,23.0,393.0
2021-12-17-16:16:27.693332,3.0,16.0,392.0
2021-12-17-16:16:27.694356,3.0,16.0,392.0
2021-12-17-16:16:27.695523,3.0,16.0,392.0
2021-12-17-16:16:27.695523,0.0,15.0,392.0
2021-12-17-16:16:27.696557,0.0,12.0,392.0
2021-12-17-16:16:27.697526,0.0,12.0,392.0
2021-12-17-16:16:27.698554,0.0,12.0,392.0
2021-12-17-16:16:27.699551,0.0,12.0,392.0
2021-12-17-16:16:27.700550,2.0,3.0,392.0
2021-12-17-16:16:27.701511,3.0,14.0,392.0
2021-12-17-16:16:27.702507,14.0,11.0,393.0
2021-12-17-16:16:27.703539,14.0,11.0,393.0
2021-12-17-16:16:27.704536,19.0,25.0,392.0
2021-12-17-16:16:27.705525,15.0,17.0,393.0
2021-12-17-16:16:27.706523,13.0,11.0,392.0
2021-12-17-16:16:27.707520,13.0,11.0,392.0
2021-12-17-16:16:27.708516,1.0,8.0,392.0
2021-12-17-16:16:27.709516,6.0,25.0,392.0
2021-12-17-16:16:27.710513,6.0,25.0,392.0
2021-12-17-16:16:27.711510,6.0,25.0,392.0
2021-12-17-16:16:27.712507,1.0,13.0,392.0
2021-12-17-16:16:27.714476,3.0,7.0,392.0
2021-12-17-16:16:27.714476,3.0,7.0,392.0
2021-12-17-16:16:27.715659,3.0,7.0,392.0
2021-12-17-16:16:27.715659,4.0,9.0,392.0
2021-12-17-16:16:27.716691,4.0,5.0,392.0
2021-12-17-16:16:27.717682,13.0,10.0,392.0
2021-12-17-16:16:27.718680,13.0,10.0,392.0
2021-12-17-16:16:27.719676,13.0,10.0,392.0
2021-12-17-16:16:27.720674,14.0,23.0,392.0
2021-12-17-16:16:27.721671,12.0,16.0,392.0
2021-12-17-16:16:27.722671,10.0,14.0,392.0
2021-12-17-16:16:27.723640,10.0,14.0,392.0
2021-12-17-16:16:27.724685,8.0,1.0,393.0
2021-12-17-16:16:27.725682,6.0,24.0,392.0
2021-12-17-16:16:27.726680,3.0,25.0,392.0
2021-12-17-16:16:27.727630,3.0,25.0,392.0
2021-12-17-16:16:27.728653,0.0,23.0,392.0
2021-12-17-16:16:27.729677,4.0,11.0,392.0
2021-12-17-16:16:27.730675,4.0,11.0,392.0
2021-12-17-16:16:27.731645,4.0,11.0,392.0
2021-12-17-16:16:27.732643,2.0,11.0,393.0
2021-12-17-16:16:27.733640,5.0,4.0,392.0
2021-12-17-16:16:27.734637,10.0,13.0,392.0
2021-12-17-16:16:27.735633,10.0,13.0,392.0
2021-12-17-16:16:27.736630,10.0,13.0,392.0
2021-12-17-16:16:27.737627,15.0,31.0,392.0
2021-12-17-16:16:27.738665,14.0,18.0,393.0
2021-12-17-16:16:27.738665,14.0,18.0,393.0
2021-12-17-16:16:27.739700,14.0,18.0,393.0
2021-12-17-16:16:27.740696,14.0,18.0,393.0
2021-12-17-16:16:27.741695,0.0,34.0,392.0
2021-12-17-16:16:27.742691,5.0,40.0,392.0
2021-12-17-16:16:27.743688,5.0,40.0,392.0
2021-12-17-16:16:27.744686,5.0,40.0,392.0
2021-12-17-16:16:27.746700,1.0,39.0,392.0
2021-12-17-16:16:27.746700,2.0,15.0,392.0
2021-12-17-16:16:27.747647,2.0,15.0,392.0
2021-12-17-16:16:27.748696,2.0,15.0,392.0
2021-12-17-16:16:27.749694,1.0,6.0,392.0
2021-12-17-16:16:27.750690,2.0,3.0,393.0
2021-12-17-16:16:27.751687,5.0,11.0,392.0
2021-12-17-16:16:27.752685,5.0,11.0,392.0
2021-12-17-16:16:27.753682,8.0,24.0,392.0
2021-12-17-16:16:27.754679,17.0,16.0,392.0
2021-12-17-16:16:27.755672,13.0,12.0,392.0
2021-12-17-16:16:27.756666,13.0,12.0,392.0
2021-12-17-16:16:27.757665,12.0,7.0,392.0
2021-12-17-16:16:27.758664,0.0,23.0,392.0
2021-12-17-16:16:27.759658,4.0,26.0,393.0
2021-12-17-16:16:27.760609,4.0,26.0,393.0
2021-12-17-16:16:27.761633,0.0,12.0,392.0
2021-12-17-16:16:27.762649,1.0,10.0,392.0
2021-12-17-16:16:27.763651,1.0,10.0,392.0
2021-12-17-16:16:27.764598,1.0,10.0,392.0
2021-12-17-16:16:27.765643,1.0,1.0,393.0
2021-12-17-16:16:27.766639,2.0,10.0,392.0
2021-12-17-16:16:27.767639,5.0,8.0,392.0
2021-12-17-16:16:27.768664,5.0,8.0,392.0
2021-12-17-16:16:27.768664,12.0,13.0,392.0
2021-12-17-16:16:27.769697,18.0,0.0,392.0
2021-12-17-16:16:27.770782,16.0,13.0,392.0
2021-12-17-16:16:27.770782,16.0,13.0,392.0
2021-12-17-16:16:27.771838,16.0,13.0,392.0
2021-12-17-16:16:27.772833,16.0,13.0,392.0
2021-12-17-16:16:27.774028,12.0,9.0,392.0
2021-12-17-16:16:27.774028,10.0,16.0,392.0
2021-12-17-16:16:27.775175,5.0,41.0,393.0
2021-12-17-16:16:27.775175,5.0,41.0,393.0
2021-12-17-16:16:27.776222,5.0,41.0,393.0
2021-12-17-16:16:27.777171,5.0,41.0,393.0
2021-12-17-16:16:27.779538,2.0,22.0,392.0
2021-12-17-16:16:27.779538,2.0,6.0,392.0
2021-12-17-16:16:27.780627,2.0,6.0,392.0
2021-12-17-16:16:27.780627,2.0,6.0,392.0
2021-12-17-16:16:27.781673,2.0,8.0,392.0
2021-12-17-16:16:27.782670,2.0,5.0,392.0
2021-12-17-16:16:27.783668,7.0,11.0,392.0
2021-12-17-16:16:27.784673,7.0,11.0,392.0
2021-12-17-16:16:27.785667,7.0,11.0,392.0
2021-12-17-16:16:27.786659,7.0,19.0,392.0
2021-12-17-16:16:27.787612,15.0,25.0,392.0
2021-12-17-16:16:27.788655,17.0,28.0,392.0
2021-12-17-16:16:27.789829,17.0,28.0,392.0
2021-12-17-16:16:27.789829,13.0,12.0,392.0
2021-12-17-16:16:27.790883,2.0,15.0,392.0
2021-12-17-16:16:27.791880,5.0,31.0,393.0
2021-12-17-16:16:27.792877,5.0,31.0,393.0
2021-12-17-16:16:27.793849,5.0,31.0,393.0
2021-12-17-16:16:27.794818,3.0,34.0,392.0
2021-12-17-16:16:27.795872,5.0,19.0,393.0
2021-12-17-16:16:27.796867,5.0,19.0,393.0
2021-12-17-16:16:27.797810,5.0,19.0,393.0
2021-12-17-16:16:27.798854,2.0,11.0,393.0
2021-12-17-16:16:27.799851,5.0,5.0,392.0
2021-12-17-16:16:27.800851,4.0,4.0,392.0
2021-12-17-16:16:27.801846,4.0,4.0,392.0
2021-12-17-16:16:27.802824,15.0,15.0,392.0
2021-12-17-16:16:27.803947,17.0,16.0,392.0
2021-12-17-16:16:27.803947,17.0,16.0,392.0
2021-12-17-16:16:27.804995,17.0,16.0,392.0
2021-12-17-16:16:27.806159,17.0,16.0,392.0
2021-12-17-16:16:27.806159,18.0,10.0,393.0
2021-12-17-16:16:27.807205,8.0,14.0,393.0
2021-12-17-16:16:27.808203,2.0,21.0,392.0
2021-12-17-16:16:27.809201,2.0,21.0,392.0
2021-12-17-16:16:27.810201,2.0,21.0,392.0
2021-12-17-16:16:27.811184,3.0,20.0,393.0
2021-12-17-16:16:27.812202,0.0,10.0,393.0
2021-12-17-16:16:27.813197,0.0,10.0,393.0
2021-12-17-16:16:27.814140,0.0,10.0,393.0
2021-12-17-16:16:27.816136,5.0,5.0,392.0
2021-12-17-16:16:27.816136,1.0,11.0,393.0
2021-12-17-16:16:27.817166,1.0,11.0,393.0
2021-12-17-16:16:27.818131,1.0,11.0,393.0
2021-12-17-16:16:27.819127,10.0,9.0,392.0
2021-12-17-16:16:27.820124,16.0,26.0,392.0
2021-12-17-16:16:27.821154,16.0,26.0,392.0
2021-12-17-16:16:27.822125,16.0,26.0,392.0
2021-12-17-16:16:27.823118,16.0,28.0,392.0
2021-12-17-16:16:27.824147,2.0,8.0,393.0
2021-12-17-16:16:27.825110,2.0,8.0,393.0
2021-12-17-16:16:27.826108,2.0,8.0,393.0
2021-12-17-16:16:27.827105,5.0,13.0,392.0
2021-12-17-16:16:27.828103,1.0,11.0,392.0
2021-12-17-16:16:27.829132,1.0,11.0,392.0
2021-12-17-16:16:27.830098,1.0,11.0,392.0
2021-12-17-16:16:27.831094,2.0,23.0,392.0
2021-12-17-16:16:27.832131,0.0,21.0,392.0
2021-12-17-16:16:27.833125,3.0,14.0,392.0
2021-12-17-16:16:27.834087,3.0,14.0,392.0
2021-12-17-16:16:27.835084,3.0,14.0,392.0
2021-12-17-16:16:27.836109,14.0,34.0,392.0
2021-12-17-16:16:27.837105,15.0,3.0,392.0
2021-12-17-16:16:27.838103,15.0,3.0,392.0
2021-12-17-16:16:27.839099,11.0,3.0,392.0
2021-12-17-16:16:27.840096,1.0,22.0,392.0
2021-12-17-16:16:27.841094,2.0,35.0,392.0
2021-12-17-16:16:27.842067,2.0,35.0,392.0
2021-12-17-16:16:27.843088,2.0,35.0,392.0
2021-12-17-16:16:27.844060,0.0,7.0,392.0
2021-12-17-16:16:27.845061,1.0,11.0,392.0
2021-12-17-16:16:27.846056,1.0,11.0,392.0
2021-12-17-16:16:27.847054,1.0,11.0,392.0
2021-12-17-16:16:27.848051,1.0,6.0,393.0
2021-12-17-16:16:27.849048,4.0,7.0,393.0
2021-12-17-16:16:27.851044,4.0,7.0,393.0
2021-12-17-16:16:27.851044,4.0,7.0,393.0
2021-12-17-16:16:27.852040,12.0,3.0,392.0
2021-12-17-16:16:27.853037,14.0,27.0,393.0
2021-12-17-16:16:27.854035,14.0,27.0,393.0
2021-12-17-16:16:27.855030,14.0,27.0,393.0
2021-12-17-16:16:27.856030,14.0,14.0,392.0
2021-12-17-16:16:27.857028,1.0,6.0,392.0
2021-12-17-16:16:27.858024,1.0,6.0,392.0
2021-12-17-16:16:27.859032,1.0,6.0,392.0
2021-12-17-16:16:27.860020,7.0,18.0,392.0
2021-12-17-16:16:27.861016,4.0,30.0,392.0
2021-12-17-16:16:27.862014,1.0,23.0,392.0
2021-12-17-16:16:27.863012,1.0,23.0,392.0
2021-12-17-16:16:27.864008,1.0,24.0,392.0
2021-12-17-16:16:27.865004,5.0,21.0,392.0
2021-12-17-16:16:27.866001,5.0,21.0,392.0
2021-12-17-16:16:27.867001,4.0,13.0,392.0
2021-12-17-16:16:27.867997,17.0,31.0,392.0
2021-12-17-16:16:27.868995,17.0,31.0,392.0
2021-12-17-16:16:27.869992,17.0,31.0,392.0
2021-12-17-16:16:27.870988,17.0,31.0,392.0
2021-12-17-16:16:27.871985,13.0,20.0,392.0
2021-12-17-16:16:27.872983,0.0,11.0,392.0
2021-12-17-16:16:27.873980,0.0,11.0,392.0
2021-12-17-16:16:27.874979,0.0,11.0,392.0
2021-12-17-16:16:27.875976,5.0,18.0,392.0
2021-12-17-16:16:27.876973,3.0,16.0,392.0
2021-12-17-16:16:27.877971,3.0,16.0,392.0
2021-12-17-16:16:27.878968,3.0,16.0,392.0
2021-12-17-16:16:27.879965,3.0,16.0,392.0
2021-12-17-16:16:27.880963,0.0,10.0,392.0
2021-12-17-16:16:27.881960,0.0,5.0,392.0
2021-12-17-16:16:27.882956,5.0,14.0,392.0
2021-12-17-16:16:27.883954,5.0,14.0,392.0
2021-12-17-16:16:27.885950,16.0,23.0,392.0
2021-12-17-16:16:27.885950,16.0,23.0,392.0
2021-12-17-16:16:27.886945,16.0,23.0,392.0
2021-12-17-16:16:27.887942,16.0,23.0,392.0
2021-12-17-16:16:27.888941,19.0,22.0,392.0
2021-12-17-16:16:27.889939,8.0,18.0,392.0
2021-12-17-16:16:27.890971,3.0,1.0,392.0
2021-12-17-16:16:27.891932,3.0,1.0,392.0
2021-12-17-16:16:27.892929,5.0,31.0,392.0
2021-12-17-16:16:27.893926,3.0,25.0,392.0
2021-12-17-16:16:27.894924,3.0,25.0,392.0
2021-12-17-16:16:27.895923,3.0,25.0,392.0
2021-12-17-16:16:27.896920,2.0,8.0,393.0
2021-12-17-16:16:27.897925,5.0,11.0,392.0
2021-12-17-16:16:27.898947,5.0,11.0,392.0
2021-12-17-16:16:27.899945,5.0,11.0,392.0
2021-12-17-16:16:27.900934,3.0,0.0,392.0
2021-12-17-16:16:27.901932,17.0,19.0,392.0
2021-12-17-16:16:27.902927,17.0,19.0,392.0
2021-12-17-16:16:27.903927,17.0,19.0,392.0
2021-12-17-16:16:27.904925,17.0,18.0,392.0
2021-12-17-16:16:27.905922,12.0,6.0,392.0
2021-12-17-16:16:27.906925,8.0,6.0,392.0
2021-12-17-16:16:27.907890,8.0,6.0,392.0
2021-12-17-16:16:27.908888,4.0,21.0,392.0
2021-12-17-16:16:27.909886,2.0,16.0,392.0
2021-12-17-16:16:27.910883,2.0,16.0,392.0
2021-12-17-16:16:27.911881,2.0,16.0,392.0
2021-12-17-16:16:27.912882,2.0,16.0,392.0
2021-12-17-16:16:27.913875,2.0,12.0,392.0
2021-12-17-16:16:27.914873,2.0,12.0,392.0
2021-12-17-16:16:27.915886,2.0,12.0,392.0
2021-12-17-16:16:27.917864,5.0,2.0,392.0
2021-12-17-16:16:27.917864,14.0,16.0,392.0
2021-12-17-16:16:27.918860,14.0,16.0,392.0
2021-12-17-16:16:27.919891,14.0,16.0,392.0
2021-12-17-16:16:27.920856,14.0,16.0,392.0
2021-12-17-16:16:27.921852,13.0,20.0,392.0
2021-12-17-16:16:27.922851,8.0,0.0,392.0
2021-12-17-16:16:27.923848,8.0,0.0,392.0
2021-12-17-16:16:27.924844,8.0,0.0,392.0
2021-12-17-16:16:27.925853,1.0,22.0,392.0
2021-12-17-16:16:27.926840,6.0,29.0,392.0
2021-12-17-16:16:27.927838,4.0,30.0,392.0
2021-12-17-16:16:27.928835,6.0,21.0,392.0
2021-12-17-16:16:27.929832,3.0,19.0,392.0
2021-12-17-16:16:27.930849,2.0,9.0,392.0
2021-12-17-16:16:27.931827,2.0,9.0,392.0
2021-12-17-16:16:27.932825,2.0,9.0,392.0
2021-12-17-16:16:27.933822,14.0,40.0,392.0
2021-12-17-16:16:27.934819,14.0,40.0,392.0
2021-12-17-16:16:27.935816,14.0,40.0,392.0
2021-12-17-16:16:27.936814,14.0,40.0,392.0
2021-12-17-16:16:27.937809,17.0,40.0,392.0
2021-12-17-16:16:27.938839,11.0,9.0,393.0
2021-12-17-16:16:27.939837,11.0,9.0,393.0
2021-12-17-16:16:27.940803,11.0,9.0,393.0
2021-12-17-16:16:27.941800,2.0,37.0,392.0
2021-12-17-16:16:27.942797,2.0,39.0,392.0
2021-12-17-16:16:27.943795,2.0,39.0,392.0
2021-12-17-16:16:27.944792,2.0,39.0,392.0
2021-12-17-16:16:27.945790,1.0,28.0,392.0
2021-12-17-16:16:27.946819,1.0,6.0,392.0
2021-12-17-16:16:27.947784,1.0,6.0,392.0
2021-12-17-16:16:27.948780,1.0,6.0,392.0
2021-12-17-16:16:27.949809,5.0,2.0,392.0
2021-12-17-16:16:27.950775,11.0,14.0,392.0
2021-12-17-16:16:27.951772,11.0,14.0,392.0
2021-12-17-16:16:27.953768,11.0,14.0,392.0
2021-12-17-16:16:27.953768,12.0,11.0,392.0
2021-12-17-16:16:27.954765,12.0,11.0,392.0
2021-12-17-16:16:27.955761,12.0,11.0,392.0
2021-12-17-16:16:27.956759,12.0,11.0,392.0
2021-12-17-16:16:27.957794,12.0,11.0,392.0
2021-12-17-16:16:27.958788,4.0,7.0,392.0
2021-12-17-16:16:27.959782,5.0,40.0,392.0
2021-12-17-16:16:27.960750,4.0,35.0,392.0
2021-12-17-16:16:27.961747,4.0,35.0,392.0
2021-12-17-16:16:27.962744,3.0,19.0,392.0
2021-12-17-16:16:27.963741,5.0,6.0,392.0
2021-12-17-16:16:27.964739,5.0,6.0,392.0
2021-12-17-16:16:27.965737,5.0,6.0,392.0
2021-12-17-16:16:27.966733,4.0,1.0,392.0
2021-12-17-16:16:27.967731,11.0,16.0,393.0
2021-12-17-16:16:27.968728,11.0,16.0,393.0
2021-12-17-16:16:27.969726,11.0,16.0,393.0
2021-12-17-16:16:27.970723,13.0,28.0,392.0
2021-12-17-16:16:27.971720,17.0,10.0,392.0
2021-12-17-16:16:27.972716,13.0,2.0,392.0
2021-12-17-16:16:27.973715,13.0,2.0,392.0
2021-12-17-16:16:27.974713,2.0,21.0,392.0
2021-12-17-16:16:27.975709,2.0,21.0,392.0
2021-12-17-16:16:27.976705,2.0,21.0,392.0
2021-12-17-16:16:27.977704,2.0,21.0,392.0
2021-12-17-16:16:27.978702,0.0,7.0,392.0
2021-12-17-16:16:27.979699,0.0,7.0,392.0
2021-12-17-16:16:27.980696,0.0,7.0,392.0
2021-12-17-16:16:27.981694,0.0,7.0,392.0
2021-12-17-16:16:27.982691,4.0,8.0,392.0
2021-12-17-16:16:27.983689,4.0,0.0,392.0
2021-12-17-16:16:27.984685,4.0,0.0,392.0
2021-12-17-16:16:27.986680,4.0,0.0,392.0
2021-12-17-16:16:27.986680,15.0,24.0,392.0
2021-12-17-16:16:27.987678,13.0,5.0,392.0
2021-12-17-16:16:27.988675,13.0,5.0,392.0
2021-12-17-16:16:27.989672,13.0,5.0,392.0
2021-12-17-16:16:27.990669,4.0,17.0,393.0
2021-12-17-16:16:27.991667,3.0,35.0,392.0
2021-12-17-16:16:27.992664,3.0,35.0,392.0
2021-12-17-16:16:27.993660,3.0,35.0,392.0
2021-12-17-16:16:27.994657,3.0,35.0,392.0
2021-12-17-16:16:27.995654,0.0,18.0,393.0
2021-12-17-16:16:27.996685,0.0,18.0,393.0
2021-12-17-16:16:27.997651,0.0,18.0,393.0
2021-12-17-16:16:27.998649,0.0,18.0,393.0
2021-12-17-16:16:27.999646,1.0,13.0,392.0
2021-12-17-16:16:28.000642,2.0,6.0,392.0
2021-12-17-16:16:28.001638,4.0,3.0,392.0
2021-12-17-16:16:28.002636,4.0,3.0,392.0
2021-12-17-16:16:28.003636,17.0,34.0,392.0
2021-12-17-16:16:28.004631,17.0,36.0,392.0
2021-12-17-16:16:28.005628,17.0,36.0,392.0
2021-12-17-16:16:28.006625,17.0,36.0,392.0
2021-12-17-16:16:28.007623,14.0,23.0,392.0
2021-12-17-16:16:28.008620,6.0,33.0,392.0
2021-12-17-16:16:28.009619,6.0,33.0,392.0
2021-12-17-16:16:28.010648,6.0,33.0,392.0
2021-12-17-16:16:28.011613,3.0,30.0,392.0
2021-12-17-16:16:28.012611,1.0,22.0,392.0
2021-12-17-16:16:28.013609,1.0,22.0,392.0
2021-12-17-16:16:28.014604,1.0,22.0,392.0
2021-12-17-16:16:28.015629,3.0,3.0,391.0
2021-12-17-16:16:28.016626,2.0,3.0,392.0
2021-12-17-16:16:28.017597,2.0,3.0,392.0
2021-12-17-16:16:28.019592,2.0,3.0,392.0
2021-12-17-16:16:28.019592,16.0,29.0,392.0
2021-12-17-16:16:28.020590,16.0,29.0,392.0
2021-12-17-16:16:28.021587,16.0,29.0,392.0
2021-12-17-16:16:28.022584,16.0,29.0,392.0
2021-12-17-16:16:28.023581,7.0,6.0,392.0
2021-12-17-16:16:28.024580,5.0,46.0,392.0
2021-12-17-16:16:28.025577,5.0,46.0,392.0
2021-12-17-16:16:28.026574,5.0,46.0,392.0
2021-12-17-16:16:28.027571,2.0,22.0,392.0
2021-12-17-16:16:28.028569,2.0,21.0,392.0
2021-12-17-16:16:28.029566,2.0,21.0,392.0
2021-12-17-16:16:28.030563,2.0,21.0,392.0
2021-12-17-16:16:28.031560,0.0,11.0,392.0
2021-12-17-16:16:28.032557,4.0,3.0,392.0
2021-12-17-16:16:28.033555,4.0,3.0,392.0
2021-12-17-16:16:28.034554,4.0,3.0,392.0
2021-12-17-16:16:28.035548,4.0,3.0,392.0
2021-12-17-16:16:28.036545,17.0,30.0,392.0
2021-12-17-16:16:28.037542,15.0,28.0,392.0
2021-12-17-16:16:28.038539,15.0,28.0,392.0
2021-12-17-16:16:28.039539,15.0,28.0,392.0
2021-12-17-16:16:28.040537,9.0,10.0,392.0
2021-12-17-16:16:28.041534,1.0,40.0,392.0
2021-12-17-16:16:28.042531,1.0,40.0,392.0
2021-12-17-16:16:28.043528,1.0,40.0,392.0
2021-12-17-16:16:28.044526,4.0,47.0,392.0
2021-12-17-16:16:28.045523,7.0,44.0,392.0
2021-12-17-16:16:28.046520,9.0,33.0,392.0
2021-12-17-16:16:28.047518,1.0,23.0,391.0
2021-12-17-16:16:28.048513,0.0,1.0,392.0
2021-12-17-16:16:28.049511,4.0,16.0,392.0
2021-12-17-16:16:28.050509,4.0,16.0,392.0
2021-12-17-16:16:28.051507,4.0,16.0,392.0
2021-12-17-16:16:28.052504,15.0,33.0,392.0
2021-12-17-16:16:28.055497,18.0,35.0,392.0
2021-12-17-16:16:28.055497,10.0,1.0,392.0
2021-12-17-16:16:28.056494,2.0,35.0,392.0
2021-12-17-16:16:28.057490,5.0,49.0,392.0
2021-12-17-16:16:28.058488,5.0,49.0,392.0
2021-12-17-16:16:28.059485,5.0,49.0,392.0
2021-12-17-16:16:28.060482,6.0,39.0,392.0
2021-12-17-16:16:28.061479,3.0,9.0,392.0
2021-12-17-16:16:28.062476,4.0,3.0,392.0
2021-12-17-16:16:28.063474,4.0,3.0,392.0
2021-12-17-16:16:28.064472,3.0,2.0,392.0
2021-12-17-16:16:28.065470,5.0,6.0,392.0
2021-12-17-16:16:28.066468,5.0,6.0,392.0
2021-12-17-16:16:28.067464,5.0,6.0,392.0
2021-12-17-16:16:28.068462,5.0,6.0,392.0
2021-12-17-16:16:28.069459,11.0,18.0,392.0
2021-12-17-16:16:28.070454,18.0,20.0,392.0
2021-12-17-16:16:28.071454,18.0,20.0,392.0
2021-12-17-16:16:28.072450,12.0,2.0,392.0
2021-12-17-16:16:28.073447,3.0,25.0,392.0
2021-12-17-16:16:28.074444,2.0,36.0,392.0
2021-12-17-16:16:28.075443,2.0,36.0,392.0
2021-12-17-16:16:28.076440,2.0,36.0,392.0
2021-12-17-16:16:28.077437,4.0,25.0,392.0
2021-12-17-16:16:28.078434,0.0,14.0,392.0
2021-12-17-16:16:28.079432,0.0,14.0,392.0
2021-12-17-16:16:28.080429,0.0,14.0,392.0
2021-12-17-16:16:28.081426,1.0,10.0,392.0
2021-12-17-16:16:28.082423,4.0,2.0,392.0
2021-12-17-16:16:28.083420,4.0,2.0,392.0
2021-12-17-16:16:28.084418,4.0,2.0,392.0
2021-12-17-16:16:28.085415,15.0,26.0,392.0
2021-12-17-16:16:28.086413,15.0,22.0,392.0
2021-12-17-16:16:28.088408,15.0,22.0,392.0
2021-12-17-16:16:28.088408,15.0,22.0,392.0
2021-12-17-16:16:28.089405,5.0,13.0,392.0
2021-12-17-16:16:28.090402,2.0,29.0,392.0
2021-12-17-16:16:28.091400,2.0,29.0,392.0
2021-12-17-16:16:28.092397,2.0,29.0,392.0
2021-12-17-16:16:28.093395,6.0,25.0,392.0
2021-12-17-16:16:28.094392,1.0,11.0,392.0
2021-12-17-16:16:28.095390,1.0,11.0,392.0
2021-12-17-16:16:28.096387,1.0,11.0,392.0
2021-12-17-16:16:28.097384,1.0,11.0,392.0
2021-12-17-16:16:28.098382,5.0,5.0,392.0
2021-12-17-16:16:28.099379,5.0,5.0,392.0
2021-12-17-16:16:28.100375,5.0,5.0,392.0
2021-12-17-16:16:28.101374,14.0,16.0,392.0
2021-12-17-16:16:28.102371,14.0,24.0,392.0
2021-12-17-16:16:28.103368,14.0,24.0,392.0
2021-12-17-16:16:28.104365,14.0,24.0,392.0
2021-12-17-16:16:28.105361,13.0,15.0,392.0
2021-12-17-16:16:28.106359,1.0,20.0,392.0
2021-12-17-16:16:28.107356,1.0,20.0,392.0
2021-12-17-16:16:28.108355,1.0,20.0,392.0
2021-12-17-16:16:28.109353,1.0,20.0,392.0
2021-12-17-16:16:28.110349,2.0,32.0,392.0
2021-12-17-16:16:28.111347,0.0,23.0,392.0
2021-12-17-16:16:28.112344,0.0,23.0,392.0
2021-12-17-16:16:28.113342,0.0,23.0,392.0
2021-12-17-16:16:28.114338,1.0,2.0,392.0
2021-12-17-16:16:28.115336,1.0,2.0,392.0
2021-12-17-16:16:28.116333,1.0,2.0,392.0
2021-12-17-16:16:28.117330,1.0,2.0,392.0
2021-12-17-16:16:28.118547,9.0,20.0,392.0
2021-12-17-16:16:28.118744,20.0,44.0,392.0
2021-12-17-16:16:28.118828,20.0,44.0,392.0
2021-12-17-16:16:28.118828,20.0,44.0,392.0
2021-12-17-16:16:28.119854,20.0,44.0,392.0
2021-12-17-16:16:28.120858,20.0,44.0,392.0
2021-12-17-16:16:28.121824,11.0,8.0,393.0
2021-12-17-16:16:28.123863,3.0,15.0,392.0
2021-12-17-16:16:28.123863,3.0,15.0,392.0
2021-12-17-16:16:28.124839,3.0,15.0,392.0
2021-12-17-16:16:28.125813,4.0,43.0,393.0
2021-12-17-16:16:28.126838,0.0,34.0,392.0
2021-12-17-16:16:28.127832,0.0,34.0,392.0
2021-12-17-16:16:28.128805,0.0,34.0,392.0
2021-12-17-16:16:28.129826,0.0,22.0,393.0
2021-12-17-16:16:28.130824,2.0,34.0,392.0
2021-12-17-16:16:28.131832,2.0,34.0,392.0
2021-12-17-16:16:28.132794,2.0,34.0,392.0
2021-12-17-16:16:28.133791,2.0,34.0,392.0
2021-12-17-16:16:28.134788,9.0,24.0,393.0
2021-12-17-16:16:28.135818,15.0,20.0,392.0
2021-12-17-16:16:28.136809,15.0,20.0,392.0
2021-12-17-16:16:28.137804,15.0,20.0,392.0
2021-12-17-16:16:28.138779,5.0,25.0,392.0
2021-12-17-16:16:28.140131,5.0,25.0,392.0
2021-12-17-16:16:28.140351,5.0,25.0,392.0
2021-12-17-16:16:28.140565,5.0,25.0,392.0
2021-12-17-16:16:28.140779,5.0,25.0,392.0
2021-12-17-16:16:28.140984,5.0,25.0,392.0
2021-12-17-16:16:28.140984,5.0,25.0,392.0
2021-12-17-16:16:28.141984,5.0,25.0,392.0
2021-12-17-16:16:28.142981,5.0,17.0,392.0
2021-12-17-16:16:28.143978,2.0,14.0,392.0
2021-12-17-16:16:28.145127,2.0,14.0,392.0
2021-12-17-16:16:28.145339,2.0,14.0,392.0
2021-12-17-16:16:28.145339,2.0,14.0,392.0
2021-12-17-16:16:28.146381,0.0,4.0,392.0
2021-12-17-16:16:28.146381,0.0,4.0,392.0
2021-12-17-16:16:28.147405,0.0,4.0,392.0
2021-12-17-16:16:28.148403,0.0,4.0,392.0
2021-12-17-16:16:28.149402,0.0,4.0,392.0
2021-12-17-16:16:28.150404,4.0,2.0,393.0
2021-12-17-16:16:28.151394,18.0,17.0,392.0
2021-12-17-16:16:28.152395,18.0,17.0,392.0
2021-12-17-16:16:28.153574,18.0,17.0,392.0
2021-12-17-16:16:28.153574,18.0,17.0,392.0
2021-12-17-16:16:28.154613,6.0,3.0,393.0
2021-12-17-16:16:28.155604,6.0,3.0,393.0
2021-12-17-16:16:28.156601,6.0,3.0,393.0
2021-12-17-16:16:28.158616,6.0,3.0,393.0
2021-12-17-16:16:28.158616,4.0,32.0,392.0
2021-12-17-16:16:28.159600,4.0,21.0,392.0
2021-12-17-16:16:28.160558,4.0,21.0,392.0
2021-12-17-16:16:28.161588,4.0,21.0,392.0
2021-12-17-16:16:28.162587,4.0,21.0,392.0
2021-12-17-16:16:28.163583,2.0,7.0,393.0
2021-12-17-16:16:28.164547,2.0,7.0,393.0
2021-12-17-16:16:28.165579,2.0,7.0,393.0
2021-12-17-16:16:28.166575,2.0,7.0,393.0
2021-12-17-16:16:28.167572,0.0,3.0,393.0
2021-12-17-16:16:28.168570,12.0,23.0,393.0
2021-12-17-16:16:28.169566,12.0,23.0,393.0
2021-12-17-16:16:28.170566,12.0,23.0,393.0
2021-12-17-16:16:28.171562,17.0,23.0,393.0
2021-12-17-16:16:28.172559,9.0,2.0,393.0
2021-12-17-16:16:28.173557,9.0,2.0,393.0
2021-12-17-16:16:28.174555,9.0,2.0,393.0
2021-12-17-16:16:28.175552,2.0,33.0,392.0
2021-12-17-16:16:28.176553,3.0,26.0,392.0
2021-12-17-16:16:28.177546,3.0,26.0,392.0
2021-12-17-16:16:28.178545,3.0,26.0,392.0
2021-12-17-16:16:28.179548,0.0,14.0,392.0
2021-12-17-16:16:28.180540,1.0,8.0,392.0
2021-12-17-16:16:28.181502,1.0,8.0,392.0
2021-12-17-16:16:28.182531,1.0,8.0,392.0
2021-12-17-16:16:28.183530,5.0,4.0,392.0
2021-12-17-16:16:28.184532,11.0,20.0,392.0
2021-12-17-16:16:28.185525,11.0,20.0,392.0
2021-12-17-16:16:28.186489,11.0,20.0,392.0
2021-12-17-16:16:28.187520,16.0,28.0,392.0
2021-12-17-16:16:28.188517,12.0,17.0,392.0
2021-12-17-16:16:28.189481,12.0,17.0,392.0
2021-12-17-16:16:28.191501,12.0,17.0,392.0
2021-12-17-16:16:28.191501,5.0,28.0,393.0
2021-12-17-16:16:28.192497,4.0,26.0,392.0
2021-12-17-16:16:28.193495,4.0,26.0,392.0
2021-12-17-16:16:28.194494,4.0,26.0,392.0
2021-12-17-16:16:28.195490,0.0,16.0,393.0
2021-12-17-16:16:28.196461,1.0,6.0,392.0
2021-12-17-16:16:28.197485,0.0,16.0,392.0
2021-12-17-16:16:28.198470,0.0,16.0,392.0
2021-12-17-16:16:28.199479,0.0,16.0,392.0
2021-12-17-16:16:28.200476,13.0,20.0,392.0
2021-12-17-16:16:28.201473,13.0,20.0,392.0
2021-12-17-16:16:28.202472,13.0,20.0,392.0
2021-12-17-16:16:28.203467,13.0,20.0,392.0
2021-12-17-16:16:28.204465,16.0,18.0,392.0
2021-12-17-16:16:28.205472,13.0,13.0,392.0
2021-12-17-16:16:28.206459,13.0,13.0,392.0
2021-12-17-16:16:28.207458,13.0,13.0,392.0
2021-12-17-16:16:28.208454,4.0,18.0,392.0
2021-12-17-16:16:28.209451,5.0,16.0,392.0
2021-12-17-16:16:28.210425,5.0,16.0,392.0
2021-12-17-16:16:28.211455,5.0,16.0,392.0
2021-12-17-16:16:28.212453,5.0,16.0,392.0
2021-12-17-16:16:28.213451,1.0,8.0,392.0
2021-12-17-16:16:28.214414,1.0,8.0,392.0
2021-12-17-16:16:28.215447,1.0,8.0,392.0
2021-12-17-16:16:28.216447,3.0,12.0,392.0
2021-12-17-16:16:28.217439,6.0,2.0,392.0
2021-12-17-16:16:28.218438,6.0,2.0,392.0
2021-12-17-16:16:28.219435,6.0,2.0,392.0
2021-12-17-16:16:28.220432,14.0,39.0,392.0
2021-12-17-16:16:28.221434,10.0,26.0,392.0
2021-12-17-16:16:28.222427,10.0,26.0,392.0
2021-12-17-16:16:28.223390,10.0,26.0,392.0
2021-12-17-16:16:28.224419,2.0,31.0,392.0
2021-12-17-16:16:28.225418,2.0,35.0,392.0
2021-12-17-16:16:28.227379,2.0,35.0,392.0
2021-12-17-16:16:28.227379,1.0,25.0,392.0
2021-12-17-16:16:28.228410,1.0,13.0,392.0
2021-12-17-16:16:28.229374,1.0,13.0,392.0
2021-12-17-16:16:28.230405,1.0,13.0,392.0
2021-12-17-16:16:28.231368,1.0,13.0,392.0
2021-12-17-16:16:28.232366,3.0,3.0,392.0
2021-12-17-16:16:28.233364,4.0,3.0,392.0
2021-12-17-16:16:28.234395,4.0,3.0,392.0
2021-12-17-16:16:28.235390,4.0,3.0,392.0
2021-12-17-16:16:28.236393,4.0,3.0,392.0
2021-12-17-16:16:28.237386,14.0,17.0,392.0
2021-12-17-16:16:28.238383,14.0,17.0,392.0
2021-12-17-16:16:28.239380,14.0,17.0,392.0
2021-12-17-16:16:28.240383,14.0,17.0,392.0
2021-12-17-16:16:28.241375,1.0,27.0,392.0
2021-12-17-16:16:28.242440,6.0,33.0,392.0
2021-12-17-16:16:28.243101,6.0,33.0,392.0
2021-12-17-16:16:28.243334,6.0,33.0,392.0
2021-12-17-16:16:28.243564,6.0,33.0,392.0
2021-12-17-16:16:28.243667,6.0,33.0,392.0
2021-12-17-16:16:28.243667,6.0,33.0,392.0
2021-12-17-16:16:28.244694,1.0,8.0,392.0
2021-12-17-16:16:28.245851,1.0,8.0,392.0
2021-12-17-16:16:28.246041,1.0,8.0,392.0
2021-12-17-16:16:28.246229,1.0,8.0,392.0
2021-12-17-16:16:28.246314,1.0,8.0,392.0
2021-12-17-16:16:28.246314,1.0,8.0,392.0
2021-12-17-16:16:28.247314,1.0,8.0,392.0
2021-12-17-16:16:28.248313,1.0,8.0,392.0
2021-12-17-16:16:28.249310,0.0,12.0,392.0
2021-12-17-16:16:28.250354,4.0,5.0,392.0
2021-12-17-16:16:28.251352,4.0,5.0,392.0
2021-12-17-16:16:28.252350,4.0,5.0,392.0
2021-12-17-16:16:28.253344,9.0,16.0,392.0
2021-12-17-16:16:28.254343,17.0,20.0,393.0
2021-12-17-16:16:28.255494,17.0,20.0,393.0
2021-12-17-16:16:28.255494,17.0,20.0,393.0
2021-12-17-16:16:28.256493,17.0,20.0,393.0
2021-12-17-16:16:28.257491,1.0,27.0,393.0
2021-12-17-16:16:28.258488,4.0,38.0,392.0
2021-12-17-16:16:28.259485,4.0,38.0,392.0
2021-12-17-16:16:28.261513,4.0,38.0,392.0
2021-12-17-16:16:28.262017,1.0,18.0,392.0
2021-12-17-16:16:28.262017,1.0,13.0,392.0
2021-12-17-16:16:28.263016,1.0,13.0,392.0
2021-12-17-16:16:28.264013,1.0,13.0,392.0
2021-12-17-16:16:28.265011,2.0,11.0,392.0
2021-12-17-16:16:28.266008,3.0,1.0,392.0
2021-12-17-16:16:28.267005,3.0,1.0,392.0
2021-12-17-16:16:28.268003,3.0,1.0,392.0
2021-12-17-16:16:28.269056,3.0,1.0,392.0
2021-12-17-16:16:28.269056,16.0,28.0,393.0
2021-12-17-16:16:28.270113,18.0,28.0,392.0
2021-12-17-16:16:28.271107,18.0,28.0,392.0
2021-12-17-16:16:28.272105,18.0,28.0,392.0
2021-12-17-16:16:28.273103,18.0,28.0,392.0
2021-12-17-16:16:28.274099,2.0,20.0,393.0
2021-12-17-16:16:28.275099,4.0,36.0,393.0
2021-12-17-16:16:28.276094,4.0,36.0,393.0
2021-12-17-16:16:28.277065,4.0,36.0,393.0
2021-12-17-16:16:28.278068,2.0,26.0,392.0
2021-12-17-16:16:28.279078,1.0,19.0,392.0
2021-12-17-16:16:28.280074,1.0,19.0,392.0
2021-12-17-16:16:28.281081,1.0,19.0,392.0
2021-12-17-16:16:28.282070,1.0,18.0,393.0
2021-12-17-16:16:28.283047,4.0,4.0,393.0
2021-12-17-16:16:28.284243,4.0,14.0,392.0
2021-12-17-16:16:28.284453,4.0,14.0,392.0
2021-12-17-16:16:28.284551,4.0,14.0,392.0
2021-12-17-16:16:28.284935,4.0,14.0,392.0
2021-12-17-16:16:28.285254,16.0,11.0,392.0
2021-12-17-16:16:28.285455,16.0,11.0,392.0
2021-12-17-16:16:28.285653,16.0,11.0,392.0
2021-12-17-16:16:28.285653,16.0,11.0,392.0
2021-12-17-16:16:28.286653,16.0,11.0,392.0
2021-12-17-16:16:28.287650,16.0,11.0,392.0
2021-12-17-16:16:28.288647,16.0,11.0,392.0
2021-12-17-16:16:28.289645,16.0,11.0,392.0
2021-12-17-16:16:28.290696,7.0,26.0,392.0
2021-12-17-16:16:28.291639,7.0,26.0,392.0
2021-12-17-16:16:28.292637,7.0,26.0,392.0
2021-12-17-16:16:28.294726,7.0,26.0,392.0
2021-12-17-16:16:28.294726,1.0,5.0,392.0
2021-12-17-16:16:28.295724,1.0,5.0,392.0
2021-12-17-16:16:28.296724,1.0,5.0,392.0
2021-12-17-16:16:28.297719,1.0,5.0,392.0
2021-12-17-16:16:28.298716,3.0,3.0,392.0
2021-12-17-16:16:28.299713,5.0,1.0,392.0
2021-12-17-16:16:28.300713,5.0,1.0,392.0
2021-12-17-16:16:28.301708,5.0,1.0,392.0
2021-12-17-16:16:28.302955,20.0,30.0,392.0
2021-12-17-16:16:28.303165,17.0,13.0,392.0
2021-12-17-16:16:28.303378,17.0,13.0,392.0
2021-12-17-16:16:28.303586,17.0,13.0,392.0
2021-12-17-16:16:28.303792,17.0,13.0,392.0
2021-12-17-16:16:28.303792,17.0,13.0,392.0
2021-12-17-16:16:28.304890,17.0,13.0,392.0
2021-12-17-16:16:28.304890,17.0,13.0,392.0
2021-12-17-16:16:28.305943,17.0,13.0,392.0
2021-12-17-16:16:28.306941,4.0,34.0,392.0
2021-12-17-16:16:28.307937,4.0,34.0,392.0
2021-12-17-16:16:28.308939,4.0,34.0,392.0
2021-12-17-16:16:28.309933,4.0,34.0,392.0
2021-12-17-16:16:28.310922,3.0,32.0,393.0
2021-12-17-16:16:28.311920,1.0,9.0,393.0
2021-12-17-16:16:28.312917,1.0,9.0,393.0
2021-12-17-16:16:28.313914,1.0,9.0,393.0
2021-12-17-16:16:28.314866,1.0,1.0,392.0
2021-12-17-16:16:28.315910,5.0,1.0,393.0
2021-12-17-16:16:28.316909,5.0,1.0,393.0
2021-12-17-16:16:28.317909,5.0,1.0,393.0
2021-12-17-16:16:28.318902,22.0,15.0,392.0
2021-12-17-16:16:28.319898,17.0,12.0,392.0
2021-12-17-16:16:28.320877,17.0,12.0,392.0
2021-12-17-16:16:28.321871,17.0,12.0,392.0
2021-12-17-16:16:28.322870,1.0,35.0,393.0
2021-12-17-16:16:28.323880,2.0,21.0,392.0
2021-12-17-16:16:28.324863,2.0,21.0,392.0
2021-12-17-16:16:28.325861,2.0,21.0,392.0
2021-12-17-16:16:28.326860,0.0,3.0,392.0
2021-12-17-16:16:28.328874,0.0,3.0,392.0
2021-12-17-16:16:28.328874,2.0,3.0,392.0
2021-12-17-16:16:28.329825,2.0,3.0,392.0
2021-12-17-16:16:28.330868,1.0,4.0,393.0
2021-12-17-16:16:28.331868,3.0,9.0,392.0
2021-12-17-16:16:28.332867,4.0,3.0,392.0
2021-12-17-16:16:28.333815,4.0,3.0,392.0
2021-12-17-16:16:28.334858,13.0,16.0,392.0
2021-12-17-16:16:28.335854,19.0,26.0,392.0
2021-12-17-16:16:28.336833,19.0,26.0,392.0
2021-12-17-16:16:28.337831,19.0,26.0,392.0
2021-12-17-16:16:28.338827,19.0,26.0,392.0
2021-12-17-16:16:28.339825,12.0,9.0,392.0
2021-12-17-16:16:28.340821,1.0,26.0,393.0
2021-12-17-16:16:28.341821,1.0,26.0,393.0
2021-12-17-16:16:28.342816,3.0,29.0,392.0
2021-12-17-16:16:28.343788,1.0,16.0,392.0
2021-12-17-16:16:28.344785,1.0,16.0,392.0
2021-12-17-16:16:28.345808,1.0,16.0,392.0
2021-12-17-16:16:28.346806,1.0,16.0,392.0
2021-12-17-16:16:28.347778,0.0,12.0,393.0
2021-12-17-16:16:28.348801,2.0,5.0,392.0
2021-12-17-16:16:28.349804,4.0,2.0,393.0
2021-12-17-16:16:28.350796,4.0,2.0,393.0
2021-12-17-16:16:28.351792,4.0,1.0,392.0
2021-12-17-16:16:28.352790,13.0,25.0,393.0
2021-12-17-16:16:28.353787,18.0,27.0,392.0
2021-12-17-16:16:28.354792,18.0,27.0,392.0
2021-12-17-16:16:28.355781,18.0,21.0,393.0
2021-12-17-16:16:28.356779,15.0,14.0,393.0
2021-12-17-16:16:28.357776,4.0,20.0,392.0
2021-12-17-16:16:28.358774,4.0,20.0,392.0
2021-12-17-16:16:28.359777,3.0,31.0,392.0
2021-12-17-16:16:28.360768,1.0,20.0,392.0
2021-12-17-16:16:28.361766,1.0,20.0,392.0
2021-12-17-16:16:28.363782,1.0,20.0,392.0
2021-12-17-16:16:28.363782,2.0,9.0,393.0
2021-12-17-16:16:28.364732,5.0,7.0,392.0
2021-12-17-16:16:28.365776,5.0,7.0,392.0
2021-12-17-16:16:28.366727,5.0,7.0,392.0
2021-12-17-16:16:28.367769,3.0,5.0,392.0
2021-12-17-16:16:28.368766,13.0,22.0,392.0
2021-12-17-16:16:28.369764,21.0,26.0,392.0
2021-12-17-16:16:28.370716,21.0,26.0,392.0
2021-12-17-16:16:28.371760,19.0,28.0,392.0
2021-12-17-16:16:28.372755,11.0,9.0,393.0
2021-12-17-16:16:28.373753,5.0,11.0,393.0
2021-12-17-16:16:28.374751,5.0,11.0,393.0
2021-12-17-16:16:28.375748,1.0,25.0,392.0
2021-12-17-16:16:28.376726,4.0,24.0,392.0
2021-12-17-16:16:28.377744,4.0,24.0,392.0
2021-12-17-16:16:28.378741,4.0,24.0,392.0
2021-12-17-16:16:28.379744,4.0,24.0,392.0
2021-12-17-16:16:28.380741,2.0,9.0,393.0
2021-12-17-16:16:28.381687,6.0,2.0,392.0
2021-12-17-16:16:28.382731,6.0,2.0,392.0
2021-12-17-16:16:28.383732,6.0,2.0,392.0
2021-12-17-16:16:28.384705,4.0,9.0,392.0
2021-12-17-16:16:28.385722,12.0,27.0,393.0
2021-12-17-16:16:28.386719,18.0,34.0,393.0
2021-12-17-16:16:28.387718,18.0,34.0,393.0
2021-12-17-16:16:28.388717,19.0,31.0,392.0
2021-12-17-16:16:28.389711,10.0,7.0,392.0
2021-12-17-16:16:28.390710,3.0,15.0,392.0
2021-12-17-16:16:28.391706,3.0,15.0,392.0
2021-12-17-16:16:28.392703,1.0,36.0,392.0
2021-12-17-16:16:28.393704,1.0,36.0,392.0
2021-12-17-16:16:28.395697,0.0,27.0,392.0
2021-12-17-16:16:28.395697,0.0,27.0,392.0
2021-12-17-16:16:28.396696,0.0,27.0,392.0
2021-12-17-16:16:28.397690,2.0,14.0,392.0
2021-12-17-16:16:28.398668,5.0,12.0,392.0
2021-12-17-16:16:28.399685,5.0,12.0,392.0
2021-12-17-16:16:28.400635,5.0,12.0,392.0
2021-12-17-16:16:28.401658,13.0,17.0,392.0
2021-12-17-16:16:28.402654,16.0,29.0,392.0
2021-12-17-16:16:28.403628,16.0,29.0,392.0
2021-12-17-16:16:28.404649,16.0,34.0,393.0
2021-12-17-16:16:28.405648,7.0,9.0,392.0
2021-12-17-16:16:28.406644,7.0,9.0,392.0
2021-12-17-16:16:28.407617,7.0,9.0,392.0
2021-12-17-16:16:28.408641,2.0,16.0,392.0
2021-12-17-16:16:28.409636,6.0,29.0,393.0
2021-12-17-16:16:28.410634,6.0,29.0,393.0
2021-12-17-16:16:28.411624,5.0,27.0,392.0
2021-12-17-16:16:28.412627,2.0,14.0,392.0
2021-12-17-16:16:28.413625,4.0,8.0,392.0
2021-12-17-16:16:28.414612,4.0,8.0,392.0
2021-12-17-16:16:28.415617,4.0,8.0,392.0
2021-12-17-16:16:28.416619,4.0,8.0,392.0
2021-12-17-16:16:28.417615,5.0,3.0,393.0
2021-12-17-16:16:28.418588,13.0,34.0,393.0
2021-12-17-16:16:28.419616,13.0,34.0,393.0
2021-12-17-16:16:28.420606,13.0,34.0,393.0
2021-12-17-16:16:28.421605,17.0,35.0,392.0
2021-12-17-16:16:28.422602,12.0,1.0,393.0
2021-12-17-16:16:28.423599,12.0,1.0,393.0
2021-12-17-16:16:28.424598,12.0,1.0,393.0
2021-12-17-16:16:28.425593,1.0,22.0,392.0
2021-12-17-16:16:28.426590,3.0,36.0,392.0
2021-12-17-16:16:28.427589,3.0,36.0,392.0
2021-12-17-16:16:28.429587,3.0,36.0,392.0
2021-12-17-16:16:28.429587,1.0,7.0,393.0
2021-12-17-16:16:28.430581,1.0,7.0,393.0
2021-12-17-16:16:28.431603,1.0,7.0,393.0
2021-12-17-16:16:28.432554,1.0,7.0,393.0
2021-12-17-16:16:28.433574,5.0,1.0,392.0
2021-12-17-16:16:28.434571,12.0,20.0,392.0
2021-12-17-16:16:28.435554,12.0,20.0,392.0
2021-12-17-16:16:28.436540,12.0,20.0,392.0
2021-12-17-16:16:28.437562,16.0,26.0,393.0
2021-12-17-16:16:28.438561,13.0,13.0,392.0
2021-12-17-16:16:28.439578,13.0,13.0,392.0
2021-12-17-16:16:28.440529,13.0,13.0,392.0
2021-12-17-16:16:28.441572,4.0,8.0,393.0
2021-12-17-16:16:28.442570,7.0,37.0,392.0
2021-12-17-16:16:28.443569,1.0,29.0,392.0
2021-12-17-16:16:28.444519,1.0,29.0,392.0
2021-12-17-16:16:28.445544,1.0,21.0,392.0
2021-12-17-16:16:28.446568,2.0,13.0,392.0
2021-12-17-16:16:28.447557,2.0,13.0,392.0
2021-12-17-16:16:28.448517,2.0,13.0,392.0
2021-12-17-16:16:28.449506,6.0,3.0,392.0
2021-12-17-16:16:28.450529,14.0,19.0,392.0
2021-12-17-16:16:28.451565,14.0,19.0,392.0
2021-12-17-16:16:28.452523,14.0,19.0,392.0
2021-12-17-16:16:28.453522,14.0,19.0,392.0
2021-12-17-16:16:28.454518,17.0,8.0,392.0
2021-12-17-16:16:28.455515,17.0,8.0,392.0
2021-12-17-16:16:28.456513,17.0,8.0,392.0
2021-12-17-16:16:28.457509,17.0,8.0,392.0
2021-12-17-16:16:28.458506,11.0,6.0,392.0
2021-12-17-16:16:28.459505,1.0,42.0,392.0
2021-12-17-16:16:28.460476,2.0,29.0,393.0
2021-12-17-16:16:28.461504,2.0,29.0,393.0
2021-12-17-16:16:28.463514,1.0,20.0,393.0
2021-12-17-16:16:28.463514,2.0,14.0,392.0
2021-12-17-16:16:28.464511,2.0,14.0,392.0
2021-12-17-16:16:28.465489,2.0,14.0,392.0
2021-12-17-16:16:28.466485,4.0,9.0,392.0
2021-12-17-16:16:28.467483,4.0,3.0,392.0
2021-12-17-16:16:28.468480,10.0,8.0,392.0
2021-12-17-16:16:28.469480,10.0,8.0,392.0
2021-12-17-16:16:28.470476,17.0,21.0,392.0
2021-12-17-16:16:28.471472,19.0,27.0,393.0
2021-12-17-16:16:28.472470,14.0,18.0,393.0
2021-12-17-16:16:28.473467,14.0,18.0,393.0
2021-12-17-16:16:28.474465,8.0,10.0,393.0
2021-12-17-16:16:28.475463,0.0,9.0,392.0
2021-12-17-16:16:28.476459,8.0,27.0,392.0
2021-12-17-16:16:28.477459,8.0,27.0,392.0
2021-12-17-16:16:28.478454,1.0,21.0,393.0
2021-12-17-16:16:28.479451,1.0,16.0,393.0
2021-12-17-16:16:28.480449,1.0,16.0,393.0
2021-12-17-16:16:28.481426,1.0,16.0,393.0
2021-12-17-16:16:28.482417,3.0,11.0,392.0
2021-12-17-16:16:28.483414,6.0,2.0,392.0
2021-12-17-16:16:28.484411,7.0,7.0,392.0
2021-12-17-16:16:28.485409,7.0,7.0,392.0
2021-12-17-16:16:28.486406,15.0,25.0,392.0
2021-12-17-16:16:28.487436,19.0,29.0,392.0
2021-12-17-16:16:28.488436,16.0,20.0,392.0
2021-12-17-16:16:28.489429,16.0,20.0,392.0
2021-12-17-16:16:28.490428,6.0,36.0,392.0
2021-12-17-16:16:28.491427,6.0,36.0,392.0
2021-12-17-16:16:28.492427,6.0,36.0,392.0
2021-12-17-16:16:28.493419,6.0,36.0,392.0
2021-12-17-16:16:28.494418,6.0,36.0,392.0
2021-12-17-16:16:28.495414,4.0,33.0,393.0
2021-12-17-16:16:28.497409,3.0,30.0,392.0
2021-12-17-16:16:28.497409,0.0,6.0,392.0
2021-12-17-16:16:28.498375,2.0,5.0,392.0
2021-12-17-16:16:28.499463,2.0,5.0,392.0
2021-12-17-16:16:28.499463,2.0,5.0,392.0
2021-12-17-16:16:28.500519,2.0,5.0,392.0
2021-12-17-16:16:28.501516,2.0,5.0,392.0
2021-12-17-16:16:28.502513,2.0,5.0,392.0
2021-12-17-16:16:28.503558,12.0,16.0,392.0
2021-12-17-16:16:28.503558,16.0,30.0,392.0
2021-12-17-16:16:28.504590,16.0,30.0,392.0
2021-12-17-16:16:28.505589,15.0,12.0,393.0
2021-12-17-16:16:28.506584,15.0,12.0,393.0
2021-12-17-16:16:28.507584,9.0,0.0,392.0
2021-12-17-16:16:28.508733,3.0,30.0,393.0
2021-12-17-16:16:28.508733,3.0,31.0,393.0
2021-12-17-16:16:28.509780,3.0,31.0,393.0
2021-12-17-16:16:28.510786,3.0,31.0,393.0
2021-12-17-16:16:28.512086,1.0,27.0,392.0
2021-12-17-16:16:28.512086,1.0,27.0,392.0
2021-12-17-16:16:28.513117,2.0,15.0,392.0
2021-12-17-16:16:28.514488,4.0,8.0,392.0
2021-12-17-16:16:28.514488,0.0,3.0,393.0
2021-12-17-16:16:28.515529,0.0,3.0,393.0
2021-12-17-16:16:28.516512,10.0,10.0,393.0
2021-12-17-16:16:28.517506,10.0,10.0,393.0
2021-12-17-16:16:28.518506,10.0,10.0,393.0
2021-12-17-16:16:28.519500,15.0,22.0,392.0
2021-12-17-16:16:28.520498,13.0,15.0,393.0
2021-12-17-16:16:28.521498,13.0,15.0,393.0
2021-12-17-16:16:28.522493,13.0,15.0,393.0
2021-12-17-16:16:28.523489,10.0,9.0,392.0
2021-12-17-16:16:28.524490,4.0,49.0,392.0
2021-12-17-16:16:28.525485,4.0,49.0,392.0
2021-12-17-16:16:28.526514,4.0,49.0,392.0
2021-12-17-16:16:28.526514,3.0,43.0,392.0
2021-12-17-16:16:28.527572,2.0,9.0,393.0
2021-12-17-16:16:28.528566,2.0,9.0,393.0
2021-12-17-16:16:28.529563,2.0,9.0,393.0
2021-12-17-16:16:28.531506,2.0,9.0,393.0
2021-12-17-16:16:28.531506,5.0,1.0,393.0
2021-12-17-16:16:28.532555,5.0,1.0,393.0
2021-12-17-16:16:28.533552,5.0,1.0,393.0
2021-12-17-16:16:28.534551,5.0,1.0,393.0
2021-12-17-16:16:28.535586,15.0,28.0,392.0
2021-12-17-16:16:28.535586,15.0,22.0,392.0
2021-12-17-16:16:28.536715,15.0,22.0,392.0
2021-12-17-16:16:28.536715,15.0,22.0,392.0
2021-12-17-16:16:28.537761,15.0,22.0,392.0
2021-12-17-16:16:28.538761,15.0,22.0,392.0
2021-12-17-16:16:28.539935,14.0,11.0,392.0
2021-12-17-16:16:28.539935,8.0,3.0,392.0
2021-12-17-16:16:28.540967,8.0,3.0,392.0
2021-12-17-16:16:28.541965,6.0,36.0,392.0
2021-12-17-16:16:28.542964,6.0,36.0,392.0
2021-12-17-16:16:28.543927,5.0,29.0,392.0
2021-12-17-16:16:28.544957,1.0,16.0,392.0
2021-12-17-16:16:28.545954,0.0,12.0,392.0
2021-12-17-16:16:28.546919,0.0,12.0,392.0
2021-12-17-16:16:28.547949,3.0,9.0,392.0
2021-12-17-16:16:28.549031,6.0,3.0,392.0
2021-12-17-16:16:28.549031,6.0,3.0,392.0
2021-12-17-16:16:28.550057,6.0,3.0,392.0
2021-12-17-16:16:28.551054,6.0,3.0,392.0
2021-12-17-16:16:28.552230,13.0,9.0,392.0
2021-12-17-16:16:28.552230,16.0,15.0,392.0
2021-12-17-16:16:28.553329,17.0,22.0,392.0
2021-12-17-16:16:28.553329,17.0,22.0,392.0
2021-12-17-16:16:28.554354,17.0,22.0,392.0
2021-12-17-16:16:28.555355,17.0,22.0,392.0
2021-12-17-16:16:28.556350,17.0,12.0,393.0
2021-12-17-16:16:28.557348,13.0,0.0,392.0
2021-12-17-16:16:28.558344,4.0,20.0,392.0
2021-12-17-16:16:28.559351,4.0,30.0,393.0
2021-12-17-16:16:28.560338,3.0,30.0,393.0
2021-12-17-16:16:28.561642,1.0,13.0,393.0
2021-12-17-16:16:28.561642,3.0,11.0,392.0
2021-12-17-16:16:28.563640,3.0,11.0,392.0
2021-12-17-16:16:28.563640,3.0,11.0,392.0
2021-12-17-16:16:28.564663,3.0,11.0,392.0
2021-12-17-16:16:28.565808,5.0,3.0,392.0
2021-12-17-16:16:28.565808,5.0,3.0,392.0
2021-12-17-16:16:28.566855,5.0,3.0,392.0
2021-12-17-16:16:28.567852,5.0,3.0,392.0
2021-12-17-16:16:28.568852,7.0,5.0,392.0
2021-12-17-16:16:28.570031,16.0,21.0,393.0
2021-12-17-16:16:28.570031,21.0,28.0,392.0
2021-12-17-16:16:28.571178,21.0,28.0,392.0
2021-12-17-16:16:28.571178,17.0,24.0,392.0
2021-12-17-16:16:28.572227,17.0,24.0,392.0
2021-12-17-16:16:28.573221,13.0,4.0,392.0
2021-12-17-16:16:28.574198,5.0,15.0,393.0
2021-12-17-16:16:28.575194,2.0,26.0,392.0
2021-12-17-16:16:28.576350,2.0,26.0,392.0
2021-12-17-16:16:28.576350,2.0,29.0,392.0
2021-12-17-16:16:28.577398,2.0,22.0,393.0
2021-12-17-16:16:28.578381,3.0,16.0,393.0
2021-12-17-16:16:28.579376,3.0,16.0,393.0
2021-12-17-16:16:28.580383,3.0,16.0,393.0
2021-12-17-16:16:28.581343,2.0,5.0,393.0
2021-12-17-16:16:28.582371,5.0,4.0,393.0
2021-12-17-16:16:28.583368,5.0,4.0,393.0
2021-12-17-16:16:28.584524,5.0,4.0,393.0
2021-12-17-16:16:28.584524,4.0,2.0,392.0
2021-12-17-16:16:28.585555,17.0,25.0,392.0
2021-12-17-16:16:28.586544,20.0,23.0,392.0
2021-12-17-16:16:28.587544,20.0,23.0,392.0
2021-12-17-16:16:28.588540,20.0,23.0,392.0
2021-12-17-16:16:28.589537,15.0,19.0,392.0
2021-12-17-16:16:28.590533,10.0,8.0,393.0
2021-12-17-16:16:28.591531,3.0,22.0,393.0
2021-12-17-16:16:28.592532,3.0,22.0,393.0
2021-12-17-16:16:28.593526,7.0,38.0,392.0
2021-12-17-16:16:28.594524,1.0,20.0,392.0
2021-12-17-16:16:28.595524,0.0,15.0,393.0
2021-12-17-16:16:28.596518,0.0,15.0,393.0
2021-12-17-16:16:28.598490,0.0,10.0,393.0
2021-12-17-16:16:28.598490,4.0,3.0,392.0
2021-12-17-16:16:28.599510,4.0,3.0,392.0
2021-12-17-16:16:28.600513,4.0,3.0,392.0
2021-12-17-16:16:28.601505,5.0,3.0,393.0
2021-12-17-16:16:28.602614,18.0,30.0,392.0
2021-12-17-16:16:28.602614,18.0,30.0,392.0
2021-12-17-16:16:28.603660,18.0,30.0,392.0
2021-12-17-16:16:28.604658,18.0,30.0,392.0
2021-12-17-16:16:28.605609,17.0,20.0,392.0
2021-12-17-16:16:28.606825,10.0,4.0,392.0
2021-12-17-16:16:28.606825,0.0,20.0,393.0
2021-12-17-16:16:28.607856,0.0,20.0,393.0
2021-12-17-16:16:28.608845,0.0,20.0,393.0
2021-12-17-16:16:28.609843,2.0,31.0,392.0
2021-12-17-16:16:28.610843,0.0,20.0,393.0
2021-12-17-16:16:28.611838,0.0,20.0,393.0
2021-12-17-16:16:28.612841,0.0,20.0,393.0
2021-12-17-16:16:28.613834,5.0,1.0,392.0
2021-12-17-16:16:28.614823,5.0,1.0,392.0
2021-12-17-16:16:28.615836,5.0,1.0,392.0
2021-12-17-16:16:28.616825,5.0,1.0,392.0
2021-12-17-16:16:28.617822,3.0,3.0,392.0
2021-12-17-16:16:28.618821,19.0,31.0,392.0
2021-12-17-16:16:28.619817,19.0,31.0,392.0
2021-12-17-16:16:28.620814,19.0,31.0,392.0
2021-12-17-16:16:28.621813,20.0,25.0,393.0
2021-12-17-16:16:28.622918,6.0,17.0,392.0
2021-12-17-16:16:28.622918,6.0,17.0,392.0
2021-12-17-16:16:28.623969,6.0,17.0,392.0
2021-12-17-16:16:28.625130,6.0,17.0,392.0
2021-12-17-16:16:28.625130,3.0,29.0,392.0
2021-12-17-16:16:28.626155,3.0,29.0,392.0
2021-12-17-16:16:28.627151,1.0,27.0,392.0
2021-12-17-16:16:28.628148,1.0,27.0,392.0
2021-12-17-16:16:28.629147,1.0,27.0,392.0
2021-12-17-16:16:28.631140,3.0,6.0,392.0
2021-12-17-16:16:28.631140,4.0,12.0,392.0
2021-12-17-16:16:28.632114,4.0,12.0,392.0
2021-12-17-16:16:28.633135,4.0,12.0,392.0
2021-12-17-16:16:28.634135,2.0,11.0,393.0
2021-12-17-16:16:28.635129,10.0,9.0,393.0
2021-12-17-16:16:28.636127,18.0,16.0,393.0
2021-12-17-16:16:28.637100,18.0,16.0,393.0
2021-12-17-16:16:28.638121,19.0,23.0,392.0
2021-12-17-16:16:28.639119,14.0,13.0,392.0
2021-12-17-16:16:28.640228,11.0,1.0,392.0
2021-12-17-16:16:28.640228,11.0,1.0,392.0
2021-12-17-16:16:28.641474,11.0,1.0,392.0
2021-12-17-16:16:28.641474,3.0,22.0,393.0
2021-12-17-16:16:28.642506,3.0,22.0,393.0
2021-12-17-16:16:28.643496,1.0,19.0,392.0
2021-12-17-16:16:28.644499,1.0,19.0,392.0
2021-12-17-16:16:28.645493,1.0,19.0,392.0
2021-12-17-16:16:28.646487,2.0,12.0,392.0
2021-12-17-16:16:28.647487,2.0,12.0,392.0
2021-12-17-16:16:28.648458,2.0,12.0,392.0
2021-12-17-16:16:28.649483,2.0,12.0,392.0
2021-12-17-16:16:28.650479,4.0,14.0,393.0
2021-12-17-16:16:28.651474,4.0,7.0,393.0
2021-12-17-16:16:28.652471,13.0,23.0,392.0
2021-12-17-16:16:28.653445,13.0,23.0,392.0
2021-12-17-16:16:28.654466,19.0,40.0,392.0
2021-12-17-16:16:28.655465,11.0,35.0,393.0
2021-12-17-16:16:28.656460,11.0,35.0,393.0
2021-12-17-16:16:28.657434,11.0,35.0,393.0
2021-12-17-16:16:28.658457,1.0,0.0,393.0
2021-12-17-16:16:28.659567,2.0,36.0,392.0
2021-12-17-16:16:28.659567,2.0,36.0,392.0
2021-12-17-16:16:28.660624,2.0,36.0,392.0
2021-12-17-16:16:28.661621,2.0,36.0,392.0
2021-12-17-16:16:28.662617,4.0,38.0,392.0
2021-12-17-16:16:28.663889,4.0,38.0,392.0
2021-12-17-16:16:28.664890,3.0,33.0,392.0
2021-12-17-16:16:28.664890,3.0,33.0,392.0
2021-12-17-16:16:28.665910,3.0,33.0,392.0
2021-12-17-16:16:28.666912,9.0,11.0,393.0
2021-12-17-16:16:28.667904,16.0,26.0,392.0
2021-12-17-16:16:28.668905,16.0,26.0,392.0
2021-12-17-16:16:28.669876,16.0,26.0,392.0
2021-12-17-16:16:28.670897,16.0,30.0,392.0
2021-12-17-16:16:28.671903,12.0,9.0,392.0
2021-12-17-16:16:28.672891,12.0,9.0,392.0
2021-12-17-16:16:28.673865,12.0,9.0,392.0
2021-12-17-16:16:28.674885,6.0,14.0,393.0
2021-12-17-16:16:28.676003,1.0,25.0,392.0
2021-12-17-16:16:28.676003,1.0,25.0,392.0
2021-12-17-16:16:28.677057,1.0,25.0,392.0
2021-12-17-16:16:28.678031,1.0,25.0,392.0
2021-12-17-16:16:28.679052,0.0,19.0,392.0
2021-12-17-16:16:28.680053,0.0,19.0,392.0
2021-12-17-16:16:28.680993,3.0,10.0,393.0
2021-12-17-16:16:28.682281,3.0,9.0,392.0
2021-12-17-16:16:28.682281,6.0,7.0,392.0
2021-12-17-16:16:28.683305,6.0,7.0,392.0
2021-12-17-16:16:28.684310,13.0,16.0,392.0
2021-12-17-16:16:28.685312,13.0,16.0,392.0
2021-12-17-16:16:28.686463,13.0,16.0,392.0
2021-12-17-16:16:28.686463,17.0,25.0,392.0
2021-12-17-16:16:28.687494,17.0,25.0,392.0
2021-12-17-16:16:28.688492,15.0,10.0,392.0
2021-12-17-16:16:28.689490,15.0,10.0,392.0
2021-12-17-16:16:28.690486,15.0,10.0,392.0
2021-12-17-16:16:28.691486,11.0,6.0,392.0
2021-12-17-16:16:28.692481,2.0,37.0,392.0
2021-12-17-16:16:28.693478,2.0,37.0,392.0
2021-12-17-16:16:28.694445,2.0,37.0,392.0
2021-12-17-16:16:28.695475,4.0,25.0,392.0
2021-12-17-16:16:28.696439,3.0,4.0,392.0
2021-12-17-16:16:28.697485,3.0,4.0,392.0
2021-12-17-16:16:28.699431,3.0,4.0,392.0
2021-12-17-16:16:28.699431,1.0,3.0,392.0
2021-12-17-16:16:28.700428,8.0,16.0,392.0
2021-12-17-16:16:28.701427,8.0,16.0,392.0
2021-12-17-16:16:28.702489,8.0,16.0,392.0
2021-12-17-16:16:28.703471,12.0,31.0,392.0
2021-12-17-16:16:28.704466,16.0,13.0,392.0
2021-12-17-16:16:28.705440,16.0,13.0,392.0
2021-12-17-16:16:28.706459,16.0,13.0,392.0
2021-12-17-16:16:28.707457,16.0,13.0,392.0
2021-12-17-16:16:28.708457,1.0,19.0,392.0
2021-12-17-16:16:28.709545,4.0,35.0,392.0
2021-12-17-16:16:28.709545,4.0,35.0,392.0
2021-12-17-16:16:28.710546,4.0,35.0,392.0
2021-12-17-16:16:28.711542,4.0,35.0,392.0
2021-12-17-16:16:28.712588,0.0,33.0,393.0
2021-12-17-16:16:28.713538,2.0,21.0,392.0
2021-12-17-16:16:28.714534,1.0,8.0,392.0
2021-12-17-16:16:28.715533,1.0,8.0,392.0
2021-12-17-16:16:28.716530,7.0,6.0,392.0
2021-12-17-16:16:28.717554,7.0,6.0,392.0
2021-12-17-16:16:28.718549,7.0,6.0,392.0
2021-12-17-16:16:28.719531,7.0,6.0,392.0
2021-12-17-16:16:28.720519,14.0,32.0,393.0
2021-12-17-16:16:28.721542,13.0,17.0,392.0
2021-12-17-16:16:28.722567,13.0,17.0,392.0
2021-12-17-16:16:28.722567,13.0,17.0,392.0
2021-12-17-16:16:28.723623,13.0,17.0,392.0
2021-12-17-16:16:28.724621,11.0,12.0,393.0
2021-12-17-16:16:28.725621,1.0,17.0,392.0
2021-12-17-16:16:28.726616,7.0,25.0,392.0
2021-12-17-16:16:28.727615,7.0,25.0,392.0
2021-12-17-16:16:28.728610,5.0,29.0,392.0
2021-12-17-16:16:28.729607,0.0,20.0,392.0
2021-12-17-16:16:28.730548,1.0,15.0,392.0
2021-12-17-16:16:28.731547,1.0,15.0,392.0
2021-12-17-16:16:28.733600,4.0,23.0,393.0
2021-12-17-16:16:28.733600,12.0,14.0,392.0
2021-12-17-16:16:28.734592,12.0,14.0,392.0
2021-12-17-16:16:28.735592,12.0,14.0,392.0
2021-12-17-16:16:28.736588,16.0,26.0,392.0
2021-12-17-16:16:28.737584,16.0,28.0,392.0
2021-12-17-16:16:28.738583,12.0,17.0,392.0
2021-12-17-16:16:28.739525,12.0,17.0,392.0
2021-12-17-16:16:28.740568,7.0,4.0,393.0
2021-12-17-16:16:28.741566,7.0,33.0,392.0
2021-12-17-16:16:28.742562,5.0,25.0,392.0
2021-12-17-16:16:28.743514,5.0,25.0,392.0
2021-12-17-16:16:28.744558,3.0,23.0,393.0
2021-12-17-16:16:28.745555,2.0,11.0,393.0
2021-12-17-16:16:28.746553,2.0,11.0,393.0
2021-12-17-16:16:28.747519,2.0,11.0,393.0
2021-12-17-16:16:28.748508,7.0,2.0,392.0
2021-12-17-16:16:28.749545,12.0,8.0,392.0
2021-12-17-16:16:28.750543,12.0,8.0,392.0
2021-12-17-16:16:28.751541,12.0,8.0,392.0
2021-12-17-16:16:28.752539,12.0,8.0,392.0
2021-12-17-16:16:28.753533,18.0,27.0,393.0
2021-12-17-16:16:28.754530,12.0,16.0,392.0
2021-12-17-16:16:28.755528,12.0,16.0,392.0
2021-12-17-16:16:28.756525,12.0,16.0,392.0
2021-12-17-16:16:28.757523,11.0,4.0,392.0
2021-12-17-16:16:28.758520,1.0,30.0,392.0
2021-12-17-16:16:28.759520,2.0,27.0,393.0
2021-12-17-16:16:28.760469,2.0,27.0,393.0
2021-12-17-16:16:28.761548,1.0,26.0,392.0
2021-12-17-16:16:28.761548,1.0,17.0,393.0
2021-12-17-16:16:28.762603,1.0,8.0,392.0
2021-12-17-16:16:28.763600,1.0,8.0,392.0
2021-12-17-16:16:28.764601,1.0,8.0,392.0
2021-12-17-16:16:28.765573,1.0,9.0,392.0
2021-12-17-16:16:28.767593,8.0,2.0,392.0
2021-12-17-16:16:28.767593,16.0,20.0,393.0
2021-12-17-16:16:28.768587,17.0,26.0,393.0
2021-12-17-16:16:28.769574,16.0,21.0,392.0
2021-12-17-16:16:28.770572,16.0,21.0,392.0
2021-12-17-16:16:28.771570,16.0,21.0,392.0
2021-12-17-16:16:28.772743,16.0,21.0,392.0
2021-12-17-16:16:28.772743,10.0,7.0,393.0
2021-12-17-16:16:28.773798,3.0,30.0,392.0
2021-12-17-16:16:28.774795,6.0,40.0,392.0
2021-12-17-16:16:28.775792,6.0,40.0,392.0
2021-12-17-16:16:28.776788,6.0,40.0,392.0
2021-12-17-16:16:28.777790,4.0,30.0,392.0
2021-12-17-16:16:28.778784,0.0,18.0,392.0
2021-12-17-16:16:28.779780,4.0,10.0,392.0
2021-12-17-16:16:28.780780,4.0,10.0,392.0
2021-12-17-16:16:28.781721,5.0,2.0,393.0
2021-12-17-16:16:28.782773,3.0,3.0,393.0
2021-12-17-16:16:28.783776,3.0,3.0,392.0
2021-12-17-16:16:28.784767,3.0,3.0,392.0
2021-12-17-16:16:28.785764,17.0,25.0,392.0
2021-12-17-16:16:28.786763,15.0,15.0,392.0
2021-12-17-16:16:28.787760,15.0,15.0,392.0
2021-12-17-16:16:28.788702,15.0,15.0,392.0
2021-12-17-16:16:28.789753,14.0,7.0,393.0
2021-12-17-16:16:28.790752,0.0,21.0,393.0
2021-12-17-16:16:28.791750,5.0,33.0,393.0
2021-12-17-16:16:28.792692,5.0,33.0,393.0
2021-12-17-16:16:28.793725,3.0,15.0,393.0
2021-12-17-16:16:28.794741,1.0,14.0,392.0
2021-12-17-16:16:28.795738,1.0,14.0,392.0
2021-12-17-16:16:28.796715,1.0,14.0,392.0
2021-12-17-16:16:28.797733,2.0,6.0,392.0
2021-12-17-16:16:28.798730,3.0,0.0,393.0
2021-12-17-16:16:28.800721,3.0,4.0,392.0
2021-12-17-16:16:28.800721,14.0,18.0,392.0
2021-12-17-16:16:28.801718,17.0,22.0,392.0
2021-12-17-16:16:28.802712,17.0,22.0,392.0
2021-12-17-16:16:28.803708,17.0,22.0,392.0
2021-12-17-16:16:28.804706,17.0,22.0,392.0
2021-12-17-16:16:28.805703,17.0,22.0,392.0
2021-12-17-16:16:28.806700,3.0,6.0,393.0
2021-12-17-16:16:28.807699,0.0,19.0,393.0
2021-12-17-16:16:28.808695,0.0,19.0,393.0
2021-12-17-16:16:28.809697,0.0,19.0,393.0
2021-12-17-16:16:28.810693,0.0,19.0,392.0
2021-12-17-16:16:28.811687,3.0,15.0,392.0
2021-12-17-16:16:28.812797,1.0,14.0,393.0
2021-12-17-16:16:28.812797,1.0,14.0,393.0
2021-12-17-16:16:28.813851,1.0,14.0,393.0
2021-12-17-16:16:28.814864,1.0,10.0,392.0
2021-12-17-16:16:28.815828,4.0,22.0,392.0
2021-12-17-16:16:28.816846,4.0,22.0,392.0
2021-12-17-16:16:28.817841,4.0,22.0,392.0
2021-12-17-16:16:28.818830,17.0,29.0,393.0
2021-12-17-16:16:28.819832,17.0,29.0,393.0
2021-12-17-16:16:28.820825,17.0,29.0,393.0
2021-12-17-16:16:28.821822,17.0,29.0,393.0
2021-12-17-16:16:28.822820,16.0,14.0,392.0
2021-12-17-16:16:28.823819,1.0,29.0,392.0
2021-12-17-16:16:28.824814,1.0,29.0,392.0
2021-12-17-16:16:28.825992,1.0,29.0,392.0
2021-12-17-16:16:28.825992,6.0,39.0,392.0
2021-12-17-16:16:28.827046,4.0,35.0,393.0
2021-12-17-16:16:28.828043,0.0,23.0,392.0
2021-12-17-16:16:28.829045,0.0,23.0,392.0
2021-12-17-16:16:28.830038,0.0,23.0,392.0
2021-12-17-16:16:28.831038,2.0,12.0,392.0
2021-12-17-16:16:28.831979,2.0,13.0,392.0
2021-12-17-16:16:28.833022,5.0,6.0,392.0
2021-12-17-16:16:28.834019,5.0,6.0,392.0
2021-12-17-16:16:28.834996,11.0,20.0,392.0
2021-12-17-16:16:28.836195,18.0,32.0,393.0
2021-12-17-16:16:28.837195,18.0,32.0,393.0
2021-12-17-16:16:28.837195,18.0,32.0,393.0
2021-12-17-16:16:28.838219,18.0,32.0,393.0
2021-12-17-16:16:28.839213,17.0,26.0,392.0
2021-12-17-16:16:28.840315,10.0,6.0,392.0
2021-12-17-16:16:28.840315,1.0,19.0,393.0
2021-12-17-16:16:28.841363,1.0,19.0,393.0
2021-12-17-16:16:28.842531,1.0,19.0,393.0
2021-12-17-16:16:28.842531,4.0,32.0,392.0
2021-12-17-16:16:28.843554,4.0,32.0,392.0
2021-12-17-16:16:28.844552,1.0,20.0,392.0
2021-12-17-16:16:28.845551,1.0,20.0,392.0
2021-12-17-16:16:28.846547,1.0,20.0,392.0
2021-12-17-16:16:28.847544,1.0,16.0,393.0
2021-12-17-16:16:28.848517,1.0,3.0,392.0
2021-12-17-16:16:28.849545,1.0,3.0,392.0
2021-12-17-16:16:28.850543,1.0,3.0,392.0
2021-12-17-16:16:28.851533,11.0,13.0,392.0
2021-12-17-16:16:28.852530,18.0,31.0,392.0
2021-12-17-16:16:28.853530,18.0,31.0,392.0
2021-12-17-16:16:28.854525,18.0,31.0,392.0
2021-12-17-16:16:28.855523,15.0,28.0,393.0
2021-12-17-16:16:28.856627,4.0,17.0,393.0
2021-12-17-16:16:28.856627,4.0,17.0,393.0
2021-12-17-16:16:28.857674,4.0,17.0,393.0
2021-12-17-16:16:28.858841,4.0,17.0,393.0
2021-12-17-16:16:28.858841,1.0,31.0,393.0
2021-12-17-16:16:28.859865,1.0,31.0,393.0
2021-12-17-16:16:28.860977,2.0,23.0,393.0
2021-12-17-16:16:28.860977,2.0,23.0,393.0
2021-12-17-16:16:28.862023,2.0,23.0,393.0
2021-12-17-16:16:28.863187,2.0,23.0,393.0
2021-12-17-16:16:28.863187,2.0,18.0,392.0
2021-12-17-16:16:28.864210,2.0,18.0,392.0
2021-12-17-16:16:28.865207,6.0,1.0,392.0
2021-12-17-16:16:28.866208,6.0,1.0,392.0
2021-12-17-16:16:28.868177,6.0,1.0,392.0
2021-12-17-16:16:28.868177,15.0,27.0,392.0
2021-12-17-16:16:28.869197,15.0,27.0,392.0
2021-12-17-16:16:28.870194,15.0,27.0,392.0
2021-12-17-16:16:28.871194,15.0,27.0,392.0
2021-12-17-16:16:28.872193,19.0,24.0,392.0
2021-12-17-16:16:28.873187,6.0,12.0,393.0
2021-12-17-16:16:28.874186,6.0,12.0,393.0
2021-12-17-16:16:28.875181,6.0,12.0,393.0
2021-12-17-16:16:28.876181,5.0,24.0,392.0
2021-12-17-16:16:28.877152,1.0,18.0,392.0
2021-12-17-16:16:28.878149,1.0,18.0,392.0
2021-12-17-16:16:28.879172,1.0,18.0,392.0
2021-12-17-16:16:28.880167,1.0,16.0,393.0
2021-12-17-16:16:28.881164,0.0,11.0,392.0
2021-12-17-16:16:28.882185,5.0,1.0,393.0
2021-12-17-16:16:28.883160,5.0,1.0,393.0
2021-12-17-16:16:28.884159,14.0,14.0,393.0
2021-12-17-16:16:28.885155,12.0,23.0,393.0
2021-12-17-16:16:28.886153,12.0,23.0,393.0
2021-12-17-16:16:28.887151,12.0,23.0,393.0
2021-12-17-16:16:28.888146,18.0,29.0,393.0
2021-12-17-16:16:28.889144,7.0,2.0,392.0
2021-12-17-16:16:28.890143,7.0,2.0,392.0
2021-12-17-16:16:28.891138,7.0,2.0,392.0
2021-12-17-16:16:28.892138,3.0,22.0,392.0
2021-12-17-16:16:28.893133,2.0,18.0,392.0
2021-12-17-16:16:28.894130,2.0,18.0,392.0
2021-12-17-16:16:28.895104,2.0,18.0,392.0
2021-12-17-16:16:28.896124,2.0,14.0,393.0
2021-12-17-16:16:28.897122,2.0,19.0,392.0
2021-12-17-16:16:28.898122,2.0,19.0,392.0
2021-12-17-16:16:28.899117,2.0,19.0,392.0
2021-12-17-16:16:28.901112,3.0,17.0,392.0
2021-12-17-16:16:28.901112,17.0,22.0,392.0
2021-12-17-16:16:28.902108,17.0,22.0,392.0
2021-12-17-16:16:28.903108,17.0,22.0,392.0
2021-12-17-16:16:28.904104,17.0,22.0,392.0
2021-12-17-16:16:28.905220,16.0,22.0,392.0
2021-12-17-16:16:28.905220,11.0,8.0,392.0
2021-12-17-16:16:28.906275,11.0,8.0,392.0
2021-12-17-16:16:28.907273,11.0,8.0,392.0
2021-12-17-16:16:28.908473,5.0,17.0,392.0
2021-12-17-16:16:28.908473,4.0,28.0,392.0
2021-12-17-16:16:28.909611,4.0,28.0,392.0
2021-12-17-16:16:28.909611,6.0,28.0,392.0
2021-12-17-16:16:28.910669,6.0,28.0,392.0
2021-12-17-16:16:28.911662,6.0,28.0,392.0
2021-12-17-16:16:28.912884,1.0,20.0,392.0
2021-12-17-16:16:28.912884,3.0,10.0,392.0
2021-12-17-16:16:28.914025,3.0,10.0,392.0
2021-12-17-16:16:28.914025,3.0,3.0,393.0
2021-12-17-16:16:28.915026,3.0,3.0,393.0
2021-12-17-16:16:28.916055,3.0,3.0,393.0
2021-12-17-16:16:28.917073,1.0,4.0,392.0
2021-12-17-16:16:28.918070,1.0,4.0,392.0
2021-12-17-16:16:28.919015,16.0,21.0,392.0
2021-12-17-16:16:28.920013,16.0,21.0,392.0
2021-12-17-16:16:28.921010,15.0,28.0,392.0
2021-12-17-16:16:28.922038,14.0,6.0,393.0
2021-12-17-16:16:28.923037,14.0,6.0,393.0
2021-12-17-16:16:28.924217,14.0,6.0,393.0
2021-12-17-16:16:28.924217,10.0,15.0,392.0
2021-12-17-16:16:28.925251,5.0,37.0,393.0
2021-12-17-16:16:28.926247,2.0,31.0,392.0
2021-12-17-16:16:28.927244,2.0,31.0,392.0
2021-12-17-16:16:28.928243,2.0,31.0,392.0
2021-12-17-16:16:28.929239,1.0,23.0,392.0
2021-12-17-16:16:28.930237,0.0,10.0,392.0
2021-12-17-16:16:28.931234,1.0,7.0,393.0
2021-12-17-16:16:28.932230,1.0,7.0,393.0
2021-12-17-16:16:28.933228,3.0,1.0,392.0
2021-12-17-16:16:28.934226,1.0,2.0,393.0
2021-12-17-16:16:28.936189,1.0,2.0,393.0
2021-12-17-16:16:28.936189,9.0,6.0,393.0
2021-12-17-16:16:28.937186,11.0,12.0,392.0
2021-12-17-16:16:28.938215,11.0,12.0,392.0
2021-12-17-16:16:28.939213,11.0,12.0,392.0
2021-12-17-16:16:28.940177,11.0,12.0,392.0
2021-12-17-16:16:28.941206,9.0,1.0,393.0
2021-12-17-16:16:28.942205,5.0,31.0,392.0
2021-12-17-16:16:28.943201,3.0,28.0,392.0
2021-12-17-16:16:28.944169,3.0,28.0,392.0
2021-12-17-16:16:28.945196,4.0,22.0,393.0
2021-12-17-16:16:28.946339,0.0,15.0,393.0
2021-12-17-16:16:28.946339,0.0,12.0,392.0
2021-12-17-16:16:28.947370,0.0,12.0,392.0
2021-12-17-16:16:28.948337,0.0,12.0,392.0
2021-12-17-16:16:28.949334,4.0,4.0,393.0
2021-12-17-16:16:28.950331,6.0,5.0,392.0
2021-12-17-16:16:28.951359,6.0,5.0,392.0
2021-12-17-16:16:28.952716,6.0,5.0,392.0
2021-12-17-16:16:28.952716,14.0,23.0,392.0
2021-12-17-16:16:28.953747,14.0,23.0,392.0
2021-12-17-16:16:28.954894,8.0,9.0,392.0
2021-12-17-16:16:28.954894,8.0,9.0,392.0
2021-12-17-16:16:28.955925,8.0,9.0,392.0
2021-12-17-16:16:28.956925,8.0,9.0,392.0
2021-12-17-16:16:28.957925,5.0,14.0,392.0
2021-12-17-16:16:28.958919,1.0,24.0,392.0
2021-12-17-16:16:28.959915,1.0,27.0,392.0
2021-12-17-16:16:28.961094,1.0,27.0,392.0
2021-12-17-16:16:28.961094,2.0,19.0,392.0
2021-12-17-16:16:28.962125,4.0,11.0,392.0
2021-12-17-16:16:28.963123,1.0,8.0,392.0
2021-12-17-16:16:28.964187,1.0,8.0,392.0
2021-12-17-16:16:28.964187,1.0,8.0,392.0
2021-12-17-16:16:28.965186,1.0,8.0,392.0
2021-12-17-16:16:28.966238,2.0,5.0,392.0
2021-12-17-16:16:28.967238,5.0,3.0,392.0
2021-12-17-16:16:28.968268,10.0,19.0,392.0
2021-12-17-16:16:28.968268,10.0,19.0,392.0
2021-12-17-16:16:28.970297,10.0,19.0,392.0
2021-12-17-16:16:28.970297,16.0,17.0,392.0
2021-12-17-16:16:28.971297,16.0,17.0,392.0
2021-12-17-16:16:28.972297,13.0,10.0,392.0
2021-12-17-16:16:28.973289,13.0,10.0,392.0
2021-12-17-16:16:28.974290,5.0,9.0,393.0
2021-12-17-16:16:28.975286,3.0,33.0,392.0
2021-12-17-16:16:28.976286,4.0,30.0,393.0
2021-12-17-16:16:28.977247,4.0,30.0,393.0
2021-12-17-16:16:28.978270,4.0,24.0,392.0
2021-12-17-16:16:28.979267,0.0,2.0,392.0
2021-12-17-16:16:28.980263,0.0,2.0,392.0
2021-12-17-16:16:28.981260,0.0,2.0,392.0
2021-12-17-16:16:28.982233,1.0,8.0,392.0
2021-12-17-16:16:28.983362,9.0,13.0,392.0
2021-12-17-16:16:28.983362,9.0,13.0,392.0
2021-12-17-16:16:28.984425,9.0,13.0,392.0
2021-12-17-16:16:28.985631,9.0,13.0,392.0
2021-12-17-16:16:28.985631,14.0,25.0,392.0
2021-12-17-16:16:28.986767,14.0,25.0,392.0
2021-12-17-16:16:28.986767,16.0,7.0,392.0
2021-12-17-16:16:28.987813,16.0,7.0,392.0
2021-12-17-16:16:28.988811,16.0,7.0,392.0
2021-12-17-16:16:28.989973,16.0,7.0,392.0
2021-12-17-16:16:28.989973,13.0,3.0,392.0
2021-12-17-16:16:28.991000,13.0,3.0,392.0
2021-12-17-16:16:28.992098,4.0,17.0,392.0
2021-12-17-16:16:28.992098,4.0,17.0,392.0
2021-12-17-16:16:28.993143,4.0,17.0,392.0
2021-12-17-16:16:28.994145,4.0,17.0,392.0
2021-12-17-16:16:28.995139,4.0,12.0,393.0
2021-12-17-16:16:28.996090,2.0,23.0,393.0
2021-12-17-16:16:28.997133,5.0,17.0,393.0
2021-12-17-16:16:28.998133,5.0,17.0,393.0
2021-12-17-16:16:28.999311,2.0,7.0,393.0
2021-12-17-16:16:28.999311,3.0,7.0,393.0
2021-12-17-16:16:29.000343,3.0,7.0,393.0
2021-12-17-16:16:29.001341,8.0,12.0,393.0
2021-12-17-16:16:29.002338,8.0,12.0,393.0
2021-12-17-16:16:29.004301,16.0,27.0,392.0
2021-12-17-16:16:29.004301,14.0,15.0,393.0
2021-12-17-16:16:29.005440,14.0,15.0,393.0
2021-12-17-16:16:29.005440,14.0,15.0,393.0
2021-12-17-16:16:29.006488,14.0,15.0,393.0
2021-12-17-16:16:29.007484,11.0,4.0,392.0
2021-12-17-16:16:29.008699,0.0,30.0,393.0
2021-12-17-16:16:29.008699,8.0,40.0,392.0
2021-12-17-16:16:29.009698,8.0,40.0,392.0
2021-12-17-16:16:29.010728,4.0,29.0,393.0
2021-12-17-16:16:29.011725,4.0,29.0,393.0
2021-12-17-16:16:29.012846,1.0,17.0,392.0
2021-12-17-16:16:29.012846,1.0,9.0,393.0
2021-12-17-16:16:29.014038,1.0,9.0,393.0
2021-12-17-16:16:29.014038,2.0,2.0,392.0
2021-12-17-16:16:29.015037,2.0,2.0,392.0
2021-12-17-16:16:29.016067,4.0,9.0,393.0
2021-12-17-16:16:29.017064,4.0,9.0,393.0
2021-12-17-16:16:29.018030,4.0,9.0,393.0
2021-12-17-16:16:29.019058,13.0,24.0,392.0
2021-12-17-16:16:29.020055,15.0,26.0,392.0
2021-12-17-16:16:29.021275,15.0,26.0,392.0
2021-12-17-16:16:29.021275,15.0,26.0,392.0
2021-12-17-16:16:29.022491,15.0,26.0,392.0
2021-12-17-16:16:29.022491,11.0,10.0,393.0
2021-12-17-16:16:29.023522,11.0,10.0,393.0
2021-12-17-16:16:29.024520,6.0,33.0,393.0
2021-12-17-16:16:29.025521,6.0,33.0,393.0
2021-12-17-16:16:29.026657,6.0,33.0,393.0
2021-12-17-16:16:29.026657,1.0,27.0,392.0
2021-12-17-16:16:29.027711,5.0,21.0,393.0
2021-12-17-16:16:29.028708,1.0,15.0,392.0
2021-12-17-16:16:29.029707,1.0,15.0,392.0
2021-12-17-16:16:29.030703,1.0,15.0,392.0
2021-12-17-16:16:29.031712,0.0,10.0,392.0
2021-12-17-16:16:29.032697,2.0,10.0,392.0
2021-12-17-16:16:29.033695,2.0,1.0,393.0
2021-12-17-16:16:29.034694,2.0,1.0,393.0
2021-12-17-16:16:29.035690,9.0,12.0,392.0
2021-12-17-16:16:29.037677,9.0,12.0,392.0
2021-12-17-16:16:29.037677,15.0,23.0,392.0
2021-12-17-16:16:29.038675,15.0,19.0,392.0
2021-12-17-16:16:29.039672,15.0,15.0,392.0
2021-12-17-16:16:29.040669,12.0,3.0,393.0
2021-12-17-16:16:29.041667,7.0,31.0,393.0
2021-12-17-16:16:29.042669,7.0,31.0,393.0
2021-12-17-16:16:29.043664,3.0,26.0,392.0
2021-12-17-16:16:29.044663,4.0,25.0,392.0
2021-12-17-16:16:29.045656,3.0,14.0,393.0
2021-12-17-16:16:29.046645,3.0,14.0,393.0
2021-12-17-16:16:29.047650,0.0,10.0,392.0
2021-12-17-16:16:29.048600,4.0,3.0,392.0
2021-12-17-16:16:29.049635,5.0,4.0,392.0
2021-12-17-16:16:29.049635,5.0,4.0,392.0
2021-12-17-16:16:29.050673,5.0,4.0,392.0
2021-12-17-16:16:29.051688,9.0,7.0,392.0
2021-12-17-16:16:29.052685,19.0,28.0,393.0
2021-12-17-16:16:29.053913,16.0,19.0,392.0
2021-12-17-16:16:29.053913,16.0,19.0,392.0
2021-12-17-16:16:29.055163,16.0,19.0,392.0
2021-12-17-16:16:29.055163,15.0,17.0,392.0
2021-12-17-16:16:29.056194,15.0,17.0,392.0
2021-12-17-16:16:29.057191,1.0,21.0,392.0
2021-12-17-16:16:29.058192,1.0,21.0,392.0
2021-12-17-16:16:29.059188,1.0,21.0,392.0
2021-12-17-16:16:29.060184,4.0,27.0,392.0
2021-12-17-16:16:29.061180,3.0,11.0,392.0
2021-12-17-16:16:29.062178,3.0,11.0,392.0
2021-12-17-16:16:29.063144,3.0,11.0,392.0
2021-12-17-16:16:29.064172,1.0,5.0,392.0
2021-12-17-16:16:29.065139,4.0,7.0,393.0
2021-12-17-16:16:29.066167,4.0,7.0,393.0
2021-12-17-16:16:29.067133,4.0,7.0,393.0
2021-12-17-16:16:29.068162,4.0,3.0,393.0
2021-12-17-16:16:29.069159,12.0,20.0,392.0
2021-12-17-16:16:29.071123,15.0,22.0,392.0
2021-12-17-16:16:29.071123,3.0,3.0,392.0
2021-12-17-16:16:29.072151,1.0,27.0,392.0
2021-12-17-16:16:29.073155,1.0,27.0,392.0
2021-12-17-16:16:29.074138,1.0,27.0,392.0
2021-12-17-16:16:29.075137,1.0,27.0,392.0
2021-12-17-16:16:29.076133,1.0,27.0,392.0
2021-12-17-16:16:29.077111,2.0,19.0,392.0
2021-12-17-16:16:29.078104,2.0,19.0,392.0
2021-12-17-16:16:29.079125,2.0,19.0,392.0
2021-12-17-16:16:29.080122,2.0,19.0,392.0
2021-12-17-16:16:29.081120,3.0,4.0,392.0
2021-12-17-16:16:29.082138,2.0,1.0,392.0
2021-12-17-16:16:29.083120,2.0,1.0,392.0
2021-12-17-16:16:29.084111,2.0,1.0,392.0
2021-12-17-16:16:29.085109,4.0,4.0,392.0
2021-12-17-16:16:29.086106,18.0,27.0,393.0
2021-12-17-16:16:29.087104,18.0,27.0,393.0
2021-12-17-16:16:29.088100,18.0,27.0,393.0
2021-12-17-16:16:29.089099,12.0,1.0,393.0
2021-12-17-16:16:29.090202,12.0,1.0,393.0
2021-12-17-16:16:29.090202,3.0,14.0,393.0
2021-12-17-16:16:29.091258,3.0,14.0,393.0
2021-12-17-16:16:29.092256,3.0,14.0,393.0
2021-12-17-16:16:29.093252,2.0,25.0,393.0
2021-12-17-16:16:29.094473,4.0,24.0,392.0
2021-12-17-16:16:29.094473,3.0,10.0,393.0
2021-12-17-16:16:29.095498,3.0,10.0,393.0
2021-12-17-16:16:29.096497,3.0,10.0,393.0
2021-12-17-16:16:29.097494,1.0,8.0,393.0
2021-12-17-16:16:29.098467,6.0,3.0,392.0
2021-12-17-16:16:29.099486,6.0,3.0,392.0
2021-12-17-16:16:29.100485,6.0,3.0,392.0
2021-12-17-16:16:29.101481,3.0,12.0,393.0
2021-12-17-16:16:29.102478,18.0,24.0,392.0
2021-12-17-16:16:29.104450,18.0,24.0,392.0
2021-12-17-16:16:29.104450,15.0,6.0,392.0
2021-12-17-16:16:29.105473,15.0,6.0,392.0
2021-12-17-16:16:29.106468,4.0,15.0,393.0
2021-12-17-16:16:29.107465,4.0,15.0,393.0
2021-12-17-16:16:29.108464,4.0,15.0,393.0
2021-12-17-16:16:29.109459,3.0,36.0,393.0
2021-12-17-16:16:29.110444,0.0,22.0,392.0
2021-12-17-16:16:29.111430,0.0,22.0,392.0
2021-12-17-16:16:29.112451,0.0,22.0,392.0
2021-12-17-16:16:29.113452,3.0,18.0,392.0
2021-12-17-16:16:29.114446,6.0,7.0,393.0
2021-12-17-16:16:29.115445,6.0,7.0,393.0
2021-12-17-16:16:29.116417,6.0,7.0,393.0
2021-12-17-16:16:29.117438,5.0,4.0,392.0
2021-12-17-16:16:29.118436,16.0,15.0,393.0
2021-12-17-16:16:29.119434,18.0,21.0,392.0
2021-12-17-16:16:29.120406,18.0,21.0,392.0
2021-12-17-16:16:29.121430,10.0,9.0,392.0
2021-12-17-16:16:29.122426,9.0,3.0,392.0
2021-12-17-16:16:29.123422,9.0,3.0,392.0
2021-12-17-16:16:29.124409,9.0,3.0,392.0
2021-12-17-16:16:29.125417,2.0,19.0,392.0
2021-12-17-16:16:29.126414,2.0,16.0,393.0
2021-12-17-16:16:29.127412,2.0,16.0,393.0
2021-12-17-16:16:29.128409,2.0,16.0,393.0
2021-12-17-16:16:29.129409,1.0,12.0,392.0
2021-12-17-16:16:29.130404,2.0,3.0,392.0
2021-12-17-16:16:29.131400,2.0,3.0,392.0
2021-12-17-16:16:29.132400,2.0,3.0,392.0
2021-12-17-16:16:29.133395,2.0,3.0,392.0
2021-12-17-16:16:29.134516,14.0,17.0,392.0
2021-12-17-16:16:29.134516,14.0,17.0,392.0
2021-12-17-16:16:29.135572,14.0,17.0,392.0
2021-12-17-16:16:29.136876,14.0,17.0,392.0
2021-12-17-16:16:29.136876,12.0,16.0,392.0
2021-12-17-16:16:29.138874,7.0,6.0,392.0
2021-12-17-16:16:29.138874,7.0,6.0,392.0
2021-12-17-16:16:29.139894,7.0,6.0,392.0
2021-12-17-16:16:29.140867,7.0,6.0,392.0
2021-12-17-16:16:29.141889,1.0,16.0,393.0
2021-12-17-16:16:29.143002,1.0,21.0,393.0
2021-12-17-16:16:29.143002,1.0,21.0,393.0
2021-12-17-16:16:29.144057,1.0,21.0,393.0
2021-12-17-16:16:29.145247,1.0,21.0,393.0
2021-12-17-16:16:29.145247,1.0,14.0,392.0
2021-12-17-16:16:29.146271,1.0,14.0,392.0
2021-12-17-16:16:29.147268,5.0,6.0,392.0
2021-12-17-16:16:29.148267,5.0,6.0,392.0
2021-12-17-16:16:29.149264,5.0,6.0,392.0
2021-12-17-16:16:29.150260,4.0,1.0,392.0
2021-12-17-16:16:29.151258,9.0,19.0,392.0
2021-12-17-16:16:29.152254,9.0,19.0,392.0
2021-12-17-16:16:29.153228,9.0,19.0,392.0
2021-12-17-16:16:29.154250,9.0,8.0,393.0
2021-12-17-16:16:29.155246,9.0,8.0,393.0
2021-12-17-16:16:29.156245,9.0,8.0,393.0
2021-12-17-16:16:29.157217,9.0,8.0,393.0
2021-12-17-16:16:29.158239,4.0,10.0,393.0
2021-12-17-16:16:29.159375,4.0,31.0,392.0
2021-12-17-16:16:29.159375,4.0,31.0,392.0
2021-12-17-16:16:29.160399,4.0,31.0,392.0
2021-12-17-16:16:29.161596,4.0,31.0,392.0
2021-12-17-16:16:29.161596,3.0,24.0,392.0
2021-12-17-16:16:29.162619,3.0,24.0,392.0
2021-12-17-16:16:29.163617,2.0,6.0,393.0
2021-12-17-16:16:29.164618,2.0,6.0,393.0
2021-12-17-16:16:29.165612,2.0,6.0,393.0
2021-12-17-16:16:29.166611,0.0,2.0,393.0
2021-12-17-16:16:29.167605,4.0,6.0,392.0
2021-12-17-16:16:29.168603,13.0,30.0,392.0
2021-12-17-16:16:29.169577,13.0,30.0,392.0
2021-12-17-16:16:29.171572,15.0,33.0,392.0
2021-12-17-16:16:29.171572,14.0,21.0,393.0
2021-12-17-16:16:29.172592,14.0,21.0,393.0
2021-12-17-16:16:29.173583,14.0,21.0,393.0
2021-12-17-16:16:29.174589,6.0,0.0,393.0
2021-12-17-16:16:29.175699,1.0,40.0,393.0
2021-12-17-16:16:29.175699,1.0,40.0,393.0
2021-12-17-16:16:29.176755,1.0,40.0,393.0
2021-12-17-16:16:29.177730,1.0,40.0,393.0
2021-12-17-16:16:29.178947,4.0,29.0,392.0
2021-12-17-16:16:29.178947,1.0,21.0,392.0
2021-12-17-16:16:29.180081,1.0,21.0,392.0
2021-12-17-16:16:29.180081,2.0,15.0,393.0
2021-12-17-16:16:29.181137,2.0,15.0,393.0
2021-12-17-16:16:29.182080,2.0,15.0,393.0
2021-12-17-16:16:29.183350,2.0,15.0,393.0
2021-12-17-16:16:29.183350,8.0,18.0,392.0
2021-12-17-16:16:29.184489,8.0,18.0,392.0
2021-12-17-16:16:29.184489,14.0,25.0,392.0
2021-12-17-16:16:29.185544,14.0,25.0,392.0
2021-12-17-16:16:29.186544,14.0,25.0,392.0
2021-12-17-16:16:29.187485,10.0,1.0,393.0
2021-12-17-16:16:29.188543,10.0,1.0,393.0
2021-12-17-16:16:29.189528,10.0,1.0,393.0
2021-12-17-16:16:29.190522,10.0,1.0,393.0
2021-12-17-16:16:29.191720,2.0,14.0,392.0
2021-12-17-16:16:29.191720,3.0,23.0,393.0
2021-12-17-16:16:29.192750,3.0,23.0,393.0
2021-12-17-16:16:29.193755,6.0,21.0,393.0
2021-12-17-16:16:29.194748,6.0,21.0,393.0
2021-12-17-16:16:29.195744,0.0,19.0,393.0
2021-12-17-16:16:29.196743,1.0,8.0,392.0
2021-12-17-16:16:29.197738,1.0,8.0,392.0
2021-12-17-16:16:29.198704,1.0,8.0,392.0
2021-12-17-16:16:29.199734,4.0,9.0,392.0
2021-12-17-16:16:29.200729,13.0,21.0,392.0
2021-12-17-16:16:29.201727,13.0,21.0,392.0
2021-12-17-16:16:29.202727,13.0,21.0,392.0
2021-12-17-16:16:29.203722,13.0,27.0,392.0
2021-12-17-16:16:29.204722,15.0,23.0,392.0
2021-12-17-16:16:29.206683,10.0,5.0,392.0
2021-12-17-16:16:29.206683,4.0,33.0,393.0
2021-12-17-16:16:29.207714,5.0,23.0,392.0
2021-12-17-16:16:29.208709,5.0,23.0,392.0
2021-12-17-16:16:29.209706,5.0,23.0,392.0
2021-12-17-16:16:29.210710,5.0,23.0,392.0
2021-12-17-16:16:29.211700,0.0,20.0,392.0
2021-12-17-16:16:29.212692,1.0,7.0,392.0
2021-12-17-16:16:29.213687,1.0,7.0,392.0
2021-12-17-16:16:29.214661,1.0,7.0,392.0
2021-12-17-16:16:29.215659,3.0,8.0,392.0
2021-12-17-16:16:29.216787,7.0,8.0,393.0
2021-12-17-16:16:29.216787,7.0,8.0,393.0
2021-12-17-16:16:29.217843,7.0,8.0,393.0
2021-12-17-16:16:29.218839,7.0,8.0,393.0
2021-12-17-16:16:29.219836,15.0,16.0,392.0
2021-12-17-16:16:29.220840,15.0,14.0,392.0
2021-12-17-16:16:29.222064,15.0,14.0,392.0
2021-12-17-16:16:29.222064,10.0,7.0,392.0
2021-12-17-16:16:29.223095,10.0,7.0,392.0
2021-12-17-16:16:29.224087,8.0,12.0,392.0
2021-12-17-16:16:29.225180,5.0,31.0,393.0
2021-12-17-16:16:29.225180,4.0,22.0,392.0
2021-12-17-16:16:29.226227,4.0,22.0,392.0
2021-12-17-16:16:29.227225,4.0,22.0,392.0
2021-12-17-16:16:29.228222,5.0,16.0,392.0
2021-12-17-16:16:29.229219,3.0,11.0,392.0
2021-12-17-16:16:29.230221,2.0,7.0,392.0
2021-12-17-16:16:29.231168,2.0,7.0,392.0
2021-12-17-16:16:29.232165,2.0,4.0,393.0
2021-12-17-16:16:29.233162,9.0,11.0,392.0
2021-12-17-16:16:29.234184,9.0,11.0,392.0
2021-12-17-16:16:29.235156,9.0,11.0,392.0
2021-12-17-16:16:29.236154,12.0,29.0,393.0
2021-12-17-16:16:29.237150,14.0,22.0,392.0
2021-12-17-16:16:29.238148,14.0,22.0,392.0
2021-12-17-16:16:29.239165,14.0,22.0,392.0
2021-12-17-16:16:29.240143,2.0,17.0,392.0
2021-12-17-16:16:29.242138,2.0,17.0,392.0
2021-12-17-16:16:29.242138,3.0,35.0,392.0
2021-12-17-16:16:29.243148,3.0,35.0,392.0
2021-12-17-16:16:29.244133,3.0,35.0,392.0
2021-12-17-16:16:29.245130,3.0,27.0,392.0
2021-12-17-16:16:29.246141,3.0,27.0,392.0
2021-12-17-16:16:29.247124,2.0,20.0,392.0
2021-12-17-16:16:29.248122,0.0,27.0,392.0
2021-12-17-16:16:29.249119,3.0,16.0,392.0
2021-12-17-16:16:29.250116,3.0,10.0,392.0
2021-12-17-16:16:29.251113,3.0,2.0,392.0
2021-12-17-16:16:29.252110,2.0,14.0,392.0
2021-12-17-16:16:29.253108,12.0,30.0,392.0
2021-12-17-16:16:29.254105,11.0,33.0,393.0
2021-12-17-16:16:29.255434,16.0,26.0,392.0
2021-12-17-16:16:29.255434,14.0,8.0,392.0
2021-12-17-16:16:29.256475,4.0,6.0,392.0
2021-12-17-16:16:29.257464,3.0,22.0,392.0
2021-12-17-16:16:29.258460,10.0,32.0,393.0
2021-12-17-16:16:29.259458,10.0,32.0,393.0
2021-12-17-16:16:29.260424,10.0,32.0,393.0
2021-12-17-16:16:29.261452,2.0,28.0,392.0
2021-12-17-16:16:29.262453,3.0,19.0,392.0
2021-12-17-16:16:29.263643,0.0,15.0,392.0
2021-12-17-16:16:29.263643,0.0,11.0,392.0
2021-12-17-16:16:29.264674,2.0,5.0,392.0
2021-12-17-16:16:29.265640,7.0,3.0,393.0
2021-12-17-16:16:29.266669,2.0,1.0,393.0
2021-12-17-16:16:29.267667,7.0,2.0,392.0
2021-12-17-16:16:29.268660,7.0,2.0,392.0
2021-12-17-16:16:29.269658,12.0,16.0,393.0
2021-12-17-16:16:29.270651,12.0,25.0,393.0
2021-12-17-16:16:29.271648,19.0,28.0,392.0
2021-12-17-16:16:29.273642,15.0,14.0,392.0
2021-12-17-16:16:29.273642,3.0,39.0,393.0
2021-12-17-16:16:29.274639,3.0,39.0,393.0
2021-12-17-16:16:29.275636,3.0,39.0,393.0
2021-12-17-16:16:29.276634,3.0,39.0,393.0
2021-12-17-16:16:29.277634,6.0,33.0,392.0
2021-12-17-16:16:29.278761,3.0,15.0,392.0
2021-12-17-16:16:29.278761,3.0,15.0,392.0
2021-12-17-16:16:29.279793,3.0,15.0,392.0
2021-12-17-16:16:29.280789,3.0,15.0,392.0
2021-12-17-16:16:29.281790,1.0,7.0,392.0
2021-12-17-16:16:29.282753,3.0,3.0,393.0
2021-12-17-16:16:29.283788,3.0,3.0,393.0
2021-12-17-16:16:29.284780,3.0,3.0,393.0
2021-12-17-16:16:29.285963,10.0,3.0,392.0
2021-12-17-16:16:29.285963,14.0,12.0,392.0
2021-12-17-16:16:29.286989,15.0,25.0,392.0
2021-12-17-16:16:29.287986,15.0,25.0,392.0
2021-12-17-16:16:29.288984,15.0,25.0,392.0
2021-12-17-16:16:29.289981,13.0,3.0,392.0
2021-12-17-16:16:29.290999,3.0,33.0,393.0
2021-12-17-16:16:29.292192,3.0,33.0,393.0
2021-12-17-16:16:29.292192,3.0,33.0,393.0
2021-12-17-16:16:29.293215,3.0,33.0,393.0
2021-12-17-16:16:29.294434,3.0,35.0,393.0
2021-12-17-16:16:29.294434,4.0,22.0,392.0
2021-12-17-16:16:29.295564,2.0,12.0,392.0
2021-12-17-16:16:29.295564,2.0,12.0,392.0
2021-12-17-16:16:29.296770,2.0,12.0,392.0
2021-12-17-16:16:29.296770,3.0,7.0,392.0
2021-12-17-16:16:29.297817,3.0,3.0,392.0
2021-12-17-16:16:29.298768,5.0,5.0,393.0
2021-12-17-16:16:29.299812,5.0,5.0,393.0
2021-12-17-16:16:29.300808,5.0,5.0,393.0
2021-12-17-16:16:29.301806,9.0,0.0,392.0
2021-12-17-16:16:29.302803,13.0,14.0,392.0
2021-12-17-16:16:29.303800,17.0,13.0,393.0
2021-12-17-16:16:29.304751,17.0,13.0,393.0
2021-12-17-16:16:29.306792,13.0,8.0,393.0
2021-12-17-16:16:29.306792,3.0,25.0,393.0
2021-12-17-16:16:29.307790,3.0,25.0,393.0
2021-12-17-16:16:29.308740,3.0,25.0,393.0
2021-12-17-16:16:29.309785,4.0,29.0,392.0
2021-12-17-16:16:29.310782,4.0,17.0,392.0
2021-12-17-16:16:29.311779,0.0,9.0,393.0
2021-12-17-16:16:29.312779,0.0,9.0,393.0
2021-12-17-16:16:29.313775,2.0,3.0,393.0
2021-12-17-16:16:29.314771,4.0,1.0,393.0
2021-12-17-16:16:29.315723,1.0,2.0,393.0
2021-12-17-16:16:29.316765,1.0,2.0,393.0
2021-12-17-16:16:29.317763,1.0,2.0,393.0
2021-12-17-16:16:29.318760,13.0,17.0,392.0
2021-12-17-16:16:29.319757,14.0,23.0,393.0
2021-12-17-16:16:29.320757,14.0,23.0,393.0
2021-12-17-16:16:29.321752,14.0,23.0,393.0
2021-12-17-16:16:29.322749,12.0,20.0,392.0
2021-12-17-16:16:29.323726,1.0,19.0,392.0
2021-12-17-16:16:29.324744,1.0,19.0,392.0
2021-12-17-16:16:29.325742,1.0,19.0,392.0
2021-12-17-16:16:29.326739,3.0,23.0,392.0
2021-12-17-16:16:29.327737,7.0,20.0,392.0
2021-12-17-16:16:29.328837,2.0,17.0,393.0
