2021-12-17-16:27:54.624654,0.0,28.0,356.0
2021-12-17-16:27:54.625652,15.0,18.0,356.0
2021-12-17-16:27:54.626683,8.0,10.0,356.0
2021-12-17-16:27:54.627702,1.0,12.0,356.0
2021-12-17-16:27:54.628680,1.0,13.0,355.0
2021-12-17-16:27:54.630653,2.0,9.0,355.0
2021-12-17-16:27:54.630653,13.0,17.0,354.0
2021-12-17-16:27:54.631637,5.0,6.0,354.0
2021-12-17-16:27:54.632666,1.0,18.0,354.0
2021-12-17-16:27:54.633631,1.0,18.0,354.0
2021-12-17-16:27:54.634662,2.0,15.0,353.0
2021-12-17-16:27:54.635650,1.0,3.0,354.0
2021-12-17-16:27:54.636624,13.0,14.0,353.0
2021-12-17-16:27:54.637645,0.0,18.0,353.0
2021-12-17-16:27:54.639646,2.0,22.0,353.0
2021-12-17-16:27:54.639646,3.0,12.0,352.0
2021-12-17-16:27:54.640612,0.0,6.0,352.0
2021-12-17-16:27:54.641654,1.0,15.0,352.0
2021-12-17-16:27:54.642652,16.0,10.0,352.0
2021-12-17-16:27:54.643649,15.0,25.0,352.0
2021-12-17-16:27:54.644646,2.0,10.0,352.0
2021-12-17-16:27:54.645645,0.0,3.0,352.0
2021-12-17-16:27:54.646641,1.0,17.0,352.0
2021-12-17-16:27:54.647641,5.0,20.0,351.0
2021-12-17-16:27:54.648636,15.0,17.0,351.0
2021-12-17-16:27:54.649614,17.0,25.0,351.0
2021-12-17-16:27:54.650617,0.0,23.0,351.0
2021-12-17-16:27:54.651583,2.0,27.0,351.0
2021-12-17-16:27:54.652606,1.0,2.0,351.0
2021-12-17-16:27:54.653602,5.0,3.0,350.0
2021-12-17-16:27:54.654576,13.0,8.0,351.0
2021-12-17-16:27:54.655572,2.0,14.0,350.0
2021-12-17-16:27:54.656596,3.0,24.0,350.0
2021-12-17-16:27:54.657595,3.0,10.0,350.0
2021-12-17-16:27:54.658610,9.0,16.0,350.0
2021-12-17-16:27:54.659607,8.0,8.0,350.0
2021-12-17-16:27:54.660604,1.0,24.0,350.0
2021-12-17-16:27:54.661602,2.0,17.0,350.0
2021-12-17-16:27:54.662600,2.0,14.0,350.0
2021-12-17-16:27:54.663599,10.0,8.0,350.0
2021-12-17-16:27:54.664599,10.0,13.0,350.0
2021-12-17-16:27:54.665592,3.0,3.0,350.0
2021-12-17-16:27:54.666590,1.0,14.0,350.0
2021-12-17-16:27:54.667570,1.0,14.0,350.0
2021-12-17-16:27:54.668574,2.0,2.0,350.0
2021-12-17-16:27:54.669559,10.0,17.0,350.0
2021-12-17-16:27:54.671530,14.0,31.0,350.0
2021-12-17-16:27:54.671530,8.0,10.0,350.0
2021-12-17-16:27:54.672575,0.0,21.0,350.0
2021-12-17-16:27:54.673570,0.0,36.0,350.0
2021-12-17-16:27:54.674567,4.0,41.0,350.0
2021-12-17-16:27:54.675564,7.0,13.0,350.0
2021-12-17-16:27:54.676542,12.0,34.0,350.0
2021-12-17-16:27:54.677564,4.0,7.0,350.0
2021-12-17-16:27:54.678557,5.0,19.0,349.0
2021-12-17-16:27:54.679557,2.0,6.0,349.0
2021-12-17-16:27:54.680585,3.0,5.0,350.0
2021-12-17-16:27:54.680585,9.0,14.0,350.0
2021-12-17-16:27:54.681625,9.0,6.0,349.0
2021-12-17-16:27:54.682616,1.0,15.0,350.0
2021-12-17-16:27:54.683614,5.0,1.0,349.0
2021-12-17-16:27:54.684593,14.0,19.0,349.0
2021-12-17-16:27:54.685609,7.0,34.0,349.0
2021-12-17-16:27:54.686597,13.0,3.0,349.0
2021-12-17-16:27:54.687595,1.0,17.0,349.0
2021-12-17-16:27:54.688592,1.0,6.0,349.0
2021-12-17-16:27:54.689591,3.0,4.0,349.0
2021-12-17-16:27:54.690586,12.0,21.0,349.0
2021-12-17-16:27:54.691590,2.0,32.0,349.0
2021-12-17-16:27:54.692582,2.0,12.0,349.0
2021-12-17-16:27:54.693578,12.0,8.0,349.0
2021-12-17-16:27:54.694575,1.0,11.0,349.0
2021-12-17-16:27:54.695573,1.0,3.0,349.0
2021-12-17-16:27:54.696547,4.0,6.0,349.0
2021-12-17-16:27:54.697542,10.0,20.0,349.0
2021-12-17-16:27:54.698567,4.0,15.0,348.0
2021-12-17-16:27:54.699560,2.0,4.0,349.0
2021-12-17-16:27:54.700561,10.0,19.0,348.0
2021-12-17-16:27:54.701531,11.0,8.0,349.0
2021-12-17-16:27:54.703550,2.0,11.0,349.0
2021-12-17-16:27:54.704523,8.0,16.0,349.0
2021-12-17-16:27:54.704523,1.0,20.0,349.0
2021-12-17-16:27:54.705521,2.0,3.0,348.0
2021-12-17-16:27:54.706543,6.0,15.0,348.0
2021-12-17-16:27:54.707539,14.0,8.0,349.0
2021-12-17-16:27:54.708542,5.0,26.0,349.0
2021-12-17-16:27:54.709534,1.0,3.0,349.0
2021-12-17-16:27:54.710531,15.0,23.0,349.0
2021-12-17-16:27:54.711529,6.0,3.0,349.0
2021-12-17-16:27:54.712503,7.0,45.0,349.0
2021-12-17-16:27:54.713500,1.0,10.0,349.0
2021-12-17-16:27:54.714520,8.0,7.0,349.0
2021-12-17-16:27:54.715518,11.0,6.0,349.0
2021-12-17-16:27:54.716518,2.0,14.0,349.0
2021-12-17-16:27:54.717489,2.0,16.0,349.0
2021-12-17-16:27:54.718511,15.0,22.0,349.0
2021-12-17-16:27:54.719508,15.0,5.0,349.0
2021-12-17-16:27:54.720504,3.0,20.0,349.0
2021-12-17-16:27:54.721502,6.0,19.0,349.0
2021-12-17-16:27:54.722499,18.0,31.0,349.0
2021-12-17-16:27:54.723496,1.0,10.0,349.0
2021-12-17-16:27:54.724679,1.0,8.0,349.0
2021-12-17-16:27:54.724914,1.0,8.0,349.0
2021-12-17-16:27:54.725146,1.0,8.0,349.0
2021-12-17-16:27:54.725382,1.0,8.0,349.0
2021-12-17-16:27:54.725480,1.0,8.0,349.0
2021-12-17-16:27:54.725480,1.0,8.0,349.0
2021-12-17-16:27:54.726507,2.0,7.0,349.0
2021-12-17-16:27:54.727503,2.0,7.0,349.0
2021-12-17-16:27:54.728669,2.0,7.0,349.0
2021-12-17-16:27:54.728873,2.0,7.0,349.0
2021-12-17-16:27:54.729071,2.0,7.0,349.0
2021-12-17-16:27:54.729257,2.0,7.0,349.0
2021-12-17-16:27:54.729257,2.0,7.0,349.0
2021-12-17-16:27:54.730256,2.0,7.0,349.0
2021-12-17-16:27:54.731253,15.0,16.0,349.0
2021-12-17-16:27:54.732250,14.0,3.0,349.0
2021-12-17-16:27:54.733248,14.0,3.0,349.0
2021-12-17-16:27:54.734258,14.0,3.0,349.0
2021-12-17-16:27:54.735269,10.0,2.0,349.0
2021-12-17-16:27:54.737263,2.0,11.0,349.0
2021-12-17-16:27:54.737263,2.0,11.0,349.0
2021-12-17-16:27:54.738459,2.0,11.0,349.0
2021-12-17-16:27:54.738459,3.0,21.0,349.0
2021-12-17-16:27:54.739633,1.0,13.0,349.0
2021-12-17-16:27:54.739737,1.0,13.0,349.0
2021-12-17-16:27:54.739737,1.0,13.0,349.0
2021-12-17-16:27:54.740770,1.0,13.0,349.0
2021-12-17-16:27:54.741767,1.0,13.0,349.0
2021-12-17-16:27:54.742765,1.0,13.0,349.0
2021-12-17-16:27:54.743763,1.0,6.0,349.0
2021-12-17-16:27:54.744760,3.0,3.0,349.0
2021-12-17-16:27:54.745758,3.0,3.0,349.0
2021-12-17-16:27:54.746754,3.0,3.0,349.0
2021-12-17-16:27:54.747755,13.0,18.0,349.0
2021-12-17-16:27:54.748749,16.0,20.0,349.0
2021-12-17-16:27:54.749746,16.0,20.0,349.0
2021-12-17-16:27:54.750744,16.0,20.0,349.0
2021-12-17-16:27:54.751707,9.0,1.0,349.0
2021-12-17-16:27:54.752738,1.0,16.0,349.0
2021-12-17-16:27:54.753736,1.0,16.0,349.0
2021-12-17-16:27:54.754733,1.0,16.0,349.0
2021-12-17-16:27:54.755697,2.0,20.0,349.0
2021-12-17-16:27:54.756720,1.0,8.0,349.0
2021-12-17-16:27:54.757716,1.0,8.0,349.0
2021-12-17-16:27:54.758725,1.0,8.0,349.0
2021-12-17-16:27:54.759720,1.0,7.0,348.0
2021-12-17-16:27:54.760717,2.0,9.0,349.0
2021-12-17-16:27:54.761715,2.0,9.0,349.0
2021-12-17-16:27:54.762678,2.0,9.0,349.0
2021-12-17-16:27:54.763940,8.0,13.0,349.0
2021-12-17-16:27:54.764129,12.0,17.0,349.0
2021-12-17-16:27:54.764314,12.0,17.0,349.0
2021-12-17-16:27:54.764500,12.0,17.0,349.0
2021-12-17-16:27:54.764686,12.0,17.0,349.0
2021-12-17-16:27:54.764686,12.0,17.0,349.0
2021-12-17-16:27:54.765685,12.0,17.0,349.0
2021-12-17-16:27:54.766683,12.0,17.0,349.0
2021-12-17-16:27:54.767680,12.0,7.0,349.0
2021-12-17-16:27:54.768724,1.0,36.0,349.0
2021-12-17-16:27:54.769724,1.0,36.0,349.0
2021-12-17-16:27:54.769724,1.0,36.0,349.0
2021-12-17-16:27:54.770930,1.0,36.0,349.0
2021-12-17-16:27:54.770930,2.0,36.0,349.0
2021-12-17-16:27:54.771963,3.0,9.0,349.0
2021-12-17-16:27:54.772962,3.0,9.0,349.0
2021-12-17-16:27:54.773958,3.0,9.0,349.0
2021-12-17-16:27:54.774922,3.0,9.0,349.0
2021-12-17-16:27:54.775945,3.0,10.0,349.0
2021-12-17-16:27:54.776944,3.0,3.0,349.0
2021-12-17-16:27:54.777940,4.0,2.0,349.0
2021-12-17-16:27:54.778936,4.0,2.0,349.0
2021-12-17-16:27:54.779939,4.0,2.0,349.0
2021-12-17-16:27:54.780931,9.0,10.0,349.0
2021-12-17-16:27:54.781936,12.0,18.0,349.0
2021-12-17-16:27:54.782926,12.0,18.0,349.0
2021-12-17-16:27:54.783923,12.0,18.0,349.0
2021-12-17-16:27:54.784924,13.0,16.0,349.0
2021-12-17-16:27:54.785917,3.0,16.0,349.0
2021-12-17-16:27:54.786936,3.0,16.0,349.0
2021-12-17-16:27:54.787933,3.0,16.0,349.0
2021-12-17-16:27:54.788930,4.0,22.0,349.0
2021-12-17-16:27:54.789928,1.0,5.0,349.0
2021-12-17-16:27:54.790924,1.0,5.0,349.0
2021-12-17-16:27:54.791922,1.0,5.0,349.0
2021-12-17-16:27:54.792925,1.0,0.0,349.0
2021-12-17-16:27:54.794005,2.0,2.0,349.0
2021-12-17-16:27:54.794005,2.0,2.0,349.0
2021-12-17-16:27:54.795056,2.0,2.0,349.0
2021-12-17-16:27:54.796050,2.0,2.0,349.0
2021-12-17-16:27:54.797045,4.0,3.0,349.0
2021-12-17-16:27:54.798242,3.0,9.0,349.0
2021-12-17-16:27:54.798387,6.0,10.0,349.0
2021-12-17-16:27:54.798387,6.0,10.0,349.0
2021-12-17-16:27:54.799620,6.0,10.0,349.0
2021-12-17-16:27:54.799620,12.0,12.0,349.0
2021-12-17-16:27:54.800666,10.0,32.0,349.0
2021-12-17-16:27:54.801664,10.0,32.0,349.0
2021-12-17-16:27:54.802664,10.0,32.0,349.0
2021-12-17-16:27:54.803611,10.0,32.0,349.0
2021-12-17-16:27:54.805607,1.0,13.0,349.0
2021-12-17-16:27:54.805607,1.0,5.0,349.0
2021-12-17-16:27:54.806742,1.0,5.0,349.0
2021-12-17-16:27:54.806742,1.0,5.0,349.0
2021-12-17-16:27:54.807791,1.0,5.0,349.0
2021-12-17-16:27:54.809015,3.0,11.0,349.0
2021-12-17-16:27:54.809015,3.0,1.0,349.0
2021-12-17-16:27:54.810041,3.0,1.0,349.0
2021-12-17-16:27:54.811035,3.0,1.0,349.0
2021-12-17-16:27:54.812033,3.0,1.0,349.0
2021-12-17-16:27:54.813033,3.0,3.0,349.0
2021-12-17-16:27:54.814028,12.0,15.0,349.0
2021-12-17-16:27:54.815025,12.0,15.0,349.0
2021-12-17-16:27:54.816025,12.0,15.0,349.0
2021-12-17-16:27:54.817021,15.0,21.0,349.0
2021-12-17-16:27:54.818020,6.0,3.0,349.0
2021-12-17-16:27:54.819015,6.0,3.0,349.0
2021-12-17-16:27:54.819988,6.0,3.0,349.0
2021-12-17-16:27:54.821012,3.0,21.0,349.0
2021-12-17-16:27:54.822097,0.0,19.0,349.0
2021-12-17-16:27:54.822097,0.0,19.0,349.0
2021-12-17-16:27:54.823097,0.0,19.0,349.0
2021-12-17-16:27:54.824140,0.0,19.0,349.0
2021-12-17-16:27:54.825315,2.0,13.0,349.0
2021-12-17-16:27:54.825315,1.0,11.0,349.0
2021-12-17-16:27:54.826342,1.0,11.0,349.0
2021-12-17-16:27:54.827337,1.0,7.0,349.0
2021-12-17-16:27:54.828334,1.0,7.0,349.0
2021-12-17-16:27:54.829332,6.0,5.0,349.0
2021-12-17-16:27:54.830438,4.0,1.0,349.0
2021-12-17-16:27:54.830438,10.0,11.0,349.0
2021-12-17-16:27:54.831484,10.0,11.0,349.0
2021-12-17-16:27:54.832482,10.0,11.0,349.0
2021-12-17-16:27:54.833479,12.0,14.0,349.0
2021-12-17-16:27:54.834431,15.0,16.0,349.0
2021-12-17-16:27:54.835427,14.0,20.0,349.0
2021-12-17-16:27:54.837473,8.0,34.0,349.0
2021-12-17-16:27:54.837473,1.0,16.0,349.0
2021-12-17-16:27:54.838466,1.0,16.0,349.0
2021-12-17-16:27:54.839465,1.0,16.0,349.0
2021-12-17-16:27:54.840621,1.0,16.0,349.0
2021-12-17-16:27:54.840621,2.0,12.0,349.0
2021-12-17-16:27:54.841651,2.0,12.0,349.0
2021-12-17-16:27:54.842748,2.0,43.0,349.0
2021-12-17-16:27:54.842748,2.0,43.0,349.0
2021-12-17-16:27:54.843794,2.0,43.0,349.0
2021-12-17-16:27:54.844800,2.0,43.0,349.0
2021-12-17-16:27:54.845789,1.0,69.0,349.0
2021-12-17-16:27:54.846787,5.0,60.0,349.0
2021-12-17-16:27:54.847784,12.0,16.0,348.0
2021-12-17-16:27:54.848944,12.0,16.0,348.0
2021-12-17-16:27:54.848944,10.0,24.0,349.0
2021-12-17-16:27:54.849978,10.0,24.0,349.0
2021-12-17-16:27:54.850941,13.0,25.0,349.0
2021-12-17-16:27:54.851971,13.0,25.0,349.0
2021-12-17-16:27:54.852970,13.0,25.0,349.0
2021-12-17-16:27:54.853965,8.0,10.0,349.0
2021-12-17-16:27:54.854967,3.0,22.0,349.0
2021-12-17-16:27:54.855962,3.0,22.0,349.0
2021-12-17-16:27:54.856926,3.0,22.0,349.0
2021-12-17-16:27:54.857957,2.0,19.0,348.0
2021-12-17-16:27:54.859071,2.0,11.0,349.0
2021-12-17-16:27:54.859071,3.0,11.0,349.0
2021-12-17-16:27:54.860122,3.0,11.0,349.0
2021-12-17-16:27:54.861280,3.0,11.0,349.0
2021-12-17-16:27:54.861280,4.0,9.0,349.0
2021-12-17-16:27:54.862314,4.0,9.0,349.0
2021-12-17-16:27:54.863425,8.0,9.0,349.0
2021-12-17-16:27:54.863425,8.0,9.0,349.0
2021-12-17-16:27:54.864474,8.0,9.0,349.0
2021-12-17-16:27:54.865633,8.0,9.0,349.0
2021-12-17-16:27:54.865633,11.0,22.0,349.0
2021-12-17-16:27:54.866666,11.0,22.0,349.0
2021-12-17-16:27:54.867630,13.0,13.0,349.0
2021-12-17-16:27:54.868659,13.0,13.0,349.0
2021-12-17-16:27:54.869659,13.0,13.0,349.0
2021-12-17-16:27:54.871621,10.0,2.0,349.0
2021-12-17-16:27:54.871621,3.0,23.0,349.0
2021-12-17-16:27:54.872651,3.0,23.0,349.0
2021-12-17-16:27:54.873646,3.0,23.0,349.0
2021-12-17-16:27:54.874651,1.0,16.0,349.0
2021-12-17-16:27:54.875640,0.0,15.0,349.0
2021-12-17-16:27:54.876640,3.0,7.0,349.0
2021-12-17-16:27:54.877638,3.0,7.0,349.0
2021-12-17-16:27:54.878636,5.0,3.0,349.0
2021-12-17-16:27:54.879751,4.0,3.0,349.0
2021-12-17-16:27:54.879751,6.0,3.0,348.0
2021-12-17-16:27:54.880798,6.0,3.0,348.0
2021-12-17-16:27:54.881797,6.0,3.0,348.0
2021-12-17-16:27:54.882792,10.0,13.0,349.0
2021-12-17-16:27:54.883744,11.0,3.0,349.0
2021-12-17-16:27:54.884742,11.0,3.0,349.0
2021-12-17-16:27:54.885738,11.0,3.0,349.0
2021-12-17-16:27:54.886736,1.0,16.0,349.0
2021-12-17-16:27:54.887733,0.0,18.0,349.0
2021-12-17-16:27:54.888732,0.0,18.0,349.0
2021-12-17-16:27:54.889734,0.0,18.0,349.0
2021-12-17-16:27:54.890725,3.0,16.0,349.0
2021-12-17-16:27:54.891723,2.0,2.0,349.0
2021-12-17-16:27:54.892720,2.0,2.0,349.0
2021-12-17-16:27:54.893718,2.0,2.0,349.0
2021-12-17-16:27:54.894714,5.0,0.0,349.0
2021-12-17-16:27:54.895712,10.0,13.0,349.0
2021-12-17-16:27:54.896733,10.0,13.0,349.0
2021-12-17-16:27:54.897713,10.0,13.0,349.0
2021-12-17-16:27:54.898704,15.0,13.0,348.0
2021-12-17-16:27:54.899702,12.0,15.0,348.0
2021-12-17-16:27:54.900699,12.0,15.0,348.0
2021-12-17-16:27:54.901697,12.0,15.0,348.0
2021-12-17-16:27:54.902695,7.0,9.0,349.0
2021-12-17-16:27:54.903723,6.0,4.0,348.0
2021-12-17-16:27:54.904688,0.0,10.0,348.0
2021-12-17-16:27:54.906715,1.0,17.0,348.0
2021-12-17-16:27:54.906715,1.0,17.0,348.0
2021-12-17-16:27:54.907681,3.0,30.0,349.0
2021-12-17-16:27:54.908709,2.0,38.0,348.0
2021-12-17-16:27:54.909708,2.0,38.0,348.0
2021-12-17-16:27:54.910691,2.0,38.0,348.0
2021-12-17-16:27:54.911670,1.0,27.0,349.0
2021-12-17-16:27:54.912666,5.0,17.0,349.0
2021-12-17-16:27:54.913665,8.0,2.0,349.0
2021-12-17-16:27:54.915035,8.0,2.0,349.0
2021-12-17-16:27:54.915035,9.0,29.0,348.0
2021-12-17-16:27:54.916069,14.0,16.0,348.0
2021-12-17-16:27:54.917068,13.0,8.0,349.0
2021-12-17-16:27:54.918031,13.0,8.0,349.0
2021-12-17-16:27:54.919061,13.0,8.0,349.0
2021-12-17-16:27:54.920056,3.0,15.0,349.0
2021-12-17-16:27:54.921047,2.0,16.0,348.0
2021-12-17-16:27:54.922083,4.0,20.0,349.0
2021-12-17-16:27:54.922083,4.0,20.0,349.0
2021-12-17-16:27:54.923119,3.0,17.0,349.0
2021-12-17-16:27:54.924114,5.0,9.0,349.0
2021-12-17-16:27:54.925187,1.0,3.0,348.0
2021-12-17-16:27:54.925187,1.0,3.0,348.0
2021-12-17-16:27:54.926213,1.0,3.0,348.0
2021-12-17-16:27:54.927209,1.0,3.0,348.0
2021-12-17-16:27:54.928389,2.0,2.0,349.0
2021-12-17-16:27:54.928389,3.0,3.0,349.0
2021-12-17-16:27:54.929421,6.0,14.0,349.0
2021-12-17-16:27:54.930411,6.0,14.0,349.0
2021-12-17-16:27:54.931410,9.0,26.0,349.0
2021-12-17-16:27:54.932407,15.0,16.0,349.0
2021-12-17-16:27:54.933403,12.0,8.0,349.0
2021-12-17-16:27:54.934375,12.0,8.0,349.0
2021-12-17-16:27:54.935374,12.0,8.0,349.0
2021-12-17-16:27:54.936375,3.0,42.0,349.0
2021-12-17-16:27:54.937396,3.0,42.0,349.0
2021-12-17-16:27:54.938395,3.0,42.0,349.0
2021-12-17-16:27:54.939362,3.0,42.0,349.0
2021-12-17-16:27:54.940359,3.0,44.0,349.0
2021-12-17-16:27:54.940359,6.0,2.0,349.0
2021-12-17-16:27:54.941361,6.0,2.0,349.0
2021-12-17-16:27:54.942379,6.0,2.0,349.0
2021-12-17-16:27:54.943378,6.0,2.0,349.0
2021-12-17-16:27:54.944375,5.0,1.0,349.0
2021-12-17-16:27:54.945371,5.0,4.0,349.0
2021-12-17-16:27:54.946372,5.0,13.0,349.0
2021-12-17-16:27:54.947366,5.0,13.0,349.0
2021-12-17-16:27:54.948365,10.0,3.0,349.0
2021-12-17-16:27:54.949361,14.0,28.0,349.0
2021-12-17-16:27:54.950358,17.0,11.0,349.0
2021-12-17-16:27:54.951331,17.0,11.0,349.0
2021-12-17-16:27:54.952353,5.0,17.0,349.0
2021-12-17-16:27:54.953327,4.0,26.0,349.0
2021-12-17-16:27:54.954323,4.0,26.0,349.0
2021-12-17-16:27:54.955345,4.0,26.0,349.0
2021-12-17-16:27:54.956318,3.0,20.0,349.0
2021-12-17-16:27:54.957368,4.0,10.0,349.0
2021-12-17-16:27:54.958355,4.0,10.0,349.0
2021-12-17-16:27:54.959310,4.0,10.0,349.0
2021-12-17-16:27:54.960351,2.0,4.0,349.0
2021-12-17-16:27:54.961348,2.0,1.0,349.0
2021-12-17-16:27:54.962330,6.0,6.0,349.0
2021-12-17-16:27:54.963299,6.0,6.0,349.0
2021-12-17-16:27:54.964297,6.0,7.0,348.0
2021-12-17-16:27:54.965295,12.0,13.0,349.0
2021-12-17-16:27:54.966291,12.0,13.0,349.0
2021-12-17-16:27:54.967337,12.0,13.0,349.0
2021-12-17-16:27:54.968287,11.0,6.0,349.0
2021-12-17-16:27:54.969285,3.0,21.0,349.0
2021-12-17-16:27:54.970282,3.0,21.0,349.0
2021-12-17-16:27:54.971072,3.0,21.0,349.0
2021-12-17-16:27:54.971278,3.0,21.0,349.0
2021-12-17-16:27:54.973318,3.0,21.0,349.0
2021-12-17-16:27:54.973318,2.0,9.0,349.0
2021-12-17-16:27:54.974427,3.0,19.0,348.0
2021-12-17-16:27:54.974427,3.0,19.0,348.0
2021-12-17-16:27:54.975467,3.0,19.0,348.0
2021-12-17-16:27:54.976472,1.0,11.0,349.0
2021-12-17-16:27:54.977447,1.0,21.0,348.0
2021-12-17-16:27:54.978440,1.0,21.0,348.0
2021-12-17-16:27:54.979439,1.0,21.0,348.0
2021-12-17-16:27:54.980455,1.0,21.0,348.0
2021-12-17-16:27:54.981455,1.0,11.0,349.0
2021-12-17-16:27:54.982455,14.0,7.0,349.0
2021-12-17-16:27:54.983446,14.0,6.0,349.0
2021-12-17-16:27:54.984412,14.0,6.0,349.0
2021-12-17-16:27:54.985413,14.0,6.0,349.0
2021-12-17-16:27:54.986394,8.0,2.0,349.0
2021-12-17-16:27:54.987420,2.0,24.0,349.0
2021-12-17-16:27:54.988413,2.0,24.0,349.0
2021-12-17-16:27:54.989413,2.0,20.0,349.0
2021-12-17-16:27:54.990410,4.0,16.0,349.0
2021-12-17-16:27:54.991424,4.0,16.0,349.0
2021-12-17-16:27:54.992430,4.0,16.0,349.0
2021-12-17-16:27:54.993377,1.0,0.0,349.0
2021-12-17-16:27:54.994399,4.0,6.0,349.0
2021-12-17-16:27:54.995415,4.0,6.0,349.0
2021-12-17-16:27:54.996412,4.0,6.0,349.0
2021-12-17-16:27:54.997409,2.0,0.0,348.0
2021-12-17-16:27:54.998406,10.0,8.0,349.0
2021-12-17-16:27:54.999404,14.0,17.0,349.0
2021-12-17-16:27:55.000401,14.0,17.0,349.0
2021-12-17-16:27:55.001355,15.0,15.0,349.0
2021-12-17-16:27:55.002377,9.0,4.0,349.0
2021-12-17-16:27:55.003351,2.0,10.0,349.0
2021-12-17-16:27:55.004346,2.0,10.0,349.0
2021-12-17-16:27:55.005369,1.0,19.0,349.0
2021-12-17-16:27:55.007339,2.0,11.0,349.0
2021-12-17-16:27:55.007339,2.0,11.0,349.0
2021-12-17-16:27:55.008338,2.0,11.0,349.0
2021-12-17-16:27:55.009363,0.0,6.0,349.0
2021-12-17-16:27:55.010374,4.0,2.0,349.0
2021-12-17-16:27:55.011373,4.0,2.0,349.0
2021-12-17-16:27:55.012370,4.0,2.0,349.0
2021-12-17-16:27:55.013367,5.0,0.0,349.0
2021-12-17-16:27:55.014364,10.0,12.0,348.0
2021-12-17-16:27:55.015361,15.0,3.0,349.0
2021-12-17-16:27:55.016357,15.0,3.0,349.0
2021-12-17-16:27:55.017357,15.0,3.0,349.0
2021-12-17-16:27:55.018310,13.0,0.0,349.0
2021-12-17-16:27:55.019308,8.0,10.0,349.0
2021-12-17-16:27:55.020304,8.0,10.0,349.0
2021-12-17-16:27:55.021328,8.0,10.0,349.0
2021-12-17-16:27:55.022323,2.0,13.0,349.0
2021-12-17-16:27:55.023532,1.0,5.0,349.0
2021-12-17-16:27:55.023532,1.0,5.0,349.0
2021-12-17-16:27:55.024556,1.0,5.0,349.0
2021-12-17-16:27:55.025562,4.0,16.0,348.0
2021-12-17-16:27:55.026635,4.0,17.0,349.0
2021-12-17-16:27:55.026635,4.0,17.0,349.0
2021-12-17-16:27:55.027669,4.0,17.0,349.0
2021-12-17-16:27:55.028666,4.0,17.0,349.0
2021-12-17-16:27:55.029667,4.0,17.0,349.0
2021-12-17-16:27:55.030652,15.0,20.0,349.0
2021-12-17-16:27:55.031650,15.0,20.0,349.0
2021-12-17-16:27:55.032648,15.0,20.0,349.0
2021-12-17-16:27:55.033644,15.0,20.0,349.0
2021-12-17-16:27:55.034617,18.0,21.0,349.0
2021-12-17-16:27:55.035735,8.0,21.0,349.0
2021-12-17-16:27:55.035735,8.0,21.0,349.0
2021-12-17-16:27:55.036760,8.0,21.0,349.0
2021-12-17-16:27:55.037758,8.0,21.0,349.0
2021-12-17-16:27:55.039117,4.0,40.0,349.0
2021-12-17-16:27:55.039117,4.0,40.0,349.0
2021-12-17-16:27:55.041116,2.0,35.0,349.0
2021-12-17-16:27:55.041116,3.0,12.0,349.0
2021-12-17-16:27:55.042150,7.0,16.0,349.0
2021-12-17-16:27:55.043143,7.0,16.0,349.0
2021-12-17-16:27:55.044138,7.0,16.0,349.0
2021-12-17-16:27:55.045171,7.0,16.0,349.0
2021-12-17-16:27:55.046134,0.0,1.0,349.0
2021-12-17-16:27:55.047130,12.0,26.0,349.0
2021-12-17-16:27:55.048132,12.0,26.0,349.0
2021-12-17-16:27:55.049126,12.0,26.0,349.0
2021-12-17-16:27:55.050122,12.0,26.0,349.0
2021-12-17-16:27:55.051121,11.0,6.0,349.0
2021-12-17-16:27:55.052118,11.0,2.0,348.0
2021-12-17-16:27:55.053118,11.0,2.0,348.0
2021-12-17-16:27:55.054116,11.0,2.0,348.0
2021-12-17-16:27:55.055113,3.0,20.0,349.0
2021-12-17-16:27:55.056110,5.0,18.0,349.0
2021-12-17-16:27:55.057105,1.0,21.0,349.0
2021-12-17-16:27:55.058095,1.0,21.0,349.0
2021-12-17-16:27:55.059097,0.0,16.0,349.0
2021-12-17-16:27:55.060114,2.0,12.0,349.0
2021-12-17-16:27:55.061108,2.0,12.0,349.0
2021-12-17-16:27:55.062106,2.0,12.0,349.0
2021-12-17-16:27:55.063103,2.0,5.0,349.0
2021-12-17-16:27:55.064100,13.0,37.0,349.0
2021-12-17-16:27:55.065097,13.0,37.0,349.0
2021-12-17-16:27:55.066094,13.0,37.0,349.0
2021-12-17-16:27:55.067093,12.0,38.0,349.0
2021-12-17-16:27:55.068068,14.0,12.0,349.0
2021-12-17-16:27:55.069087,11.0,6.0,349.0
2021-12-17-16:27:55.070064,11.0,6.0,349.0
2021-12-17-16:27:55.071081,3.0,12.0,349.0
2021-12-17-16:27:55.072080,3.0,21.0,349.0
2021-12-17-16:27:55.073079,3.0,21.0,349.0
2021-12-17-16:27:55.074027,3.0,21.0,349.0
2021-12-17-16:27:55.075049,1.0,10.0,349.0
2021-12-17-16:27:55.076071,2.0,15.0,349.0
2021-12-17-16:27:55.078017,2.0,15.0,349.0
2021-12-17-16:27:55.078017,5.0,5.0,349.0
2021-12-17-16:27:55.079037,9.0,9.0,349.0
2021-12-17-16:27:55.080036,9.0,9.0,349.0
2021-12-17-16:27:55.081031,9.0,9.0,349.0
2021-12-17-16:27:55.082041,9.0,9.0,349.0
2021-12-17-16:27:55.083028,15.0,14.0,349.0
2021-12-17-16:27:55.084024,10.0,13.0,349.0
2021-12-17-16:27:55.085112,10.0,13.0,349.0
2021-12-17-16:27:55.085112,10.0,13.0,349.0
2021-12-17-16:27:55.086162,10.0,13.0,349.0
2021-12-17-16:27:55.086162,8.0,3.0,348.0
2021-12-17-16:27:55.087208,0.0,12.0,349.0
2021-12-17-16:27:55.088205,0.0,12.0,349.0
2021-12-17-16:27:55.089202,0.0,12.0,349.0
2021-12-17-16:27:55.090199,0.0,12.0,349.0
2021-12-17-16:27:55.091177,2.0,3.0,349.0
2021-12-17-16:27:55.092194,2.0,7.0,349.0
2021-12-17-16:27:55.093192,2.0,7.0,349.0
2021-12-17-16:27:55.094191,2.0,7.0,349.0
2021-12-17-16:27:55.095189,2.0,7.0,349.0
2021-12-17-16:27:55.096185,1.0,6.0,349.0
2021-12-17-16:27:55.097181,4.0,25.0,349.0
2021-12-17-16:27:55.098178,4.0,25.0,349.0
2021-12-17-16:27:55.099176,4.0,25.0,349.0
2021-12-17-16:27:55.100173,7.0,2.0,349.0
2021-12-17-16:27:55.101150,14.0,1.0,349.0
2021-12-17-16:27:55.102150,14.0,3.0,349.0
2021-12-17-16:27:55.103143,14.0,3.0,349.0
2021-12-17-16:27:55.104142,8.0,9.0,349.0
2021-12-17-16:27:55.105219,2.0,35.0,349.0
2021-12-17-16:27:55.105219,2.0,27.0,350.0
2021-12-17-16:27:55.106254,2.0,27.0,350.0
2021-12-17-16:27:55.108240,2.0,27.0,350.0
2021-12-17-16:27:55.108240,1.0,2.0,349.0
2021-12-17-16:27:55.109302,1.0,2.0,349.0
2021-12-17-16:27:55.109302,1.0,2.0,349.0
2021-12-17-16:27:55.110329,1.0,2.0,349.0
2021-12-17-16:27:55.111483,1.0,2.0,349.0
2021-12-17-16:27:55.111483,2.0,4.0,349.0
2021-12-17-16:27:55.112509,5.0,9.0,349.0
2021-12-17-16:27:55.113506,10.0,21.0,349.0
2021-12-17-16:27:55.114503,10.0,21.0,349.0
2021-12-17-16:27:55.115504,10.0,21.0,349.0
2021-12-17-16:27:55.116499,10.0,21.0,349.0
2021-12-17-16:27:55.117496,16.0,25.0,349.0
2021-12-17-16:27:55.118500,13.0,42.0,349.0
2021-12-17-16:27:55.119491,11.0,26.0,349.0
2021-12-17-16:27:55.120488,6.0,1.0,349.0
2021-12-17-16:27:55.121561,1.0,31.0,349.0
2021-12-17-16:27:55.121561,1.0,31.0,349.0
2021-12-17-16:27:55.122587,1.0,31.0,349.0
2021-12-17-16:27:55.123589,1.0,31.0,349.0
2021-12-17-16:27:55.124889,4.0,23.0,349.0
2021-12-17-16:27:55.124889,4.0,23.0,349.0
2021-12-17-16:27:55.125914,4.0,23.0,349.0
2021-12-17-16:27:55.126914,4.0,23.0,349.0
2021-12-17-16:27:55.127910,4.0,23.0,349.0
2021-12-17-16:27:55.128907,2.0,10.0,349.0
2021-12-17-16:27:55.129903,5.0,11.0,349.0
2021-12-17-16:27:55.130938,8.0,20.0,349.0
2021-12-17-16:27:55.130938,8.0,20.0,349.0
2021-12-17-16:27:55.131972,17.0,22.0,349.0
2021-12-17-16:27:55.132969,11.0,4.0,349.0
2021-12-17-16:27:55.133973,11.0,4.0,349.0
2021-12-17-16:27:55.134929,11.0,4.0,349.0
2021-12-17-16:27:55.135960,11.0,4.0,349.0
2021-12-17-16:27:55.136959,5.0,7.0,349.0
2021-12-17-16:27:55.137955,4.0,22.0,349.0
2021-12-17-16:27:55.138919,3.0,16.0,349.0
2021-12-17-16:27:55.139951,3.0,16.0,349.0
2021-12-17-16:27:55.140941,0.0,16.0,349.0
2021-12-17-16:27:55.142954,1.0,7.0,349.0
2021-12-17-16:27:55.142954,1.0,7.0,349.0
2021-12-17-16:27:55.144169,1.0,7.0,349.0
2021-12-17-16:27:55.144169,4.0,5.0,349.0
2021-12-17-16:27:55.145201,4.0,5.0,349.0
2021-12-17-16:27:55.146198,7.0,7.0,349.0
2021-12-17-16:27:55.147195,7.0,7.0,349.0
2021-12-17-16:27:55.148195,7.0,7.0,349.0
2021-12-17-16:27:55.149191,11.0,13.0,349.0
2021-12-17-16:27:55.150190,13.0,14.0,349.0
2021-12-17-16:27:55.151188,13.0,14.0,349.0
2021-12-17-16:27:55.152183,13.0,14.0,349.0
2021-12-17-16:27:55.153180,13.0,6.0,349.0
2021-12-17-16:27:55.154285,6.0,16.0,349.0
2021-12-17-16:27:55.154285,6.0,16.0,349.0
2021-12-17-16:27:55.155333,6.0,16.0,349.0
2021-12-17-16:27:55.156674,6.0,16.0,349.0
2021-12-17-16:27:55.156674,2.0,13.0,349.0
2021-12-17-16:27:55.157707,2.0,20.0,349.0
2021-12-17-16:27:55.158694,2.0,20.0,349.0
2021-12-17-16:27:55.159694,2.0,20.0,349.0
2021-12-17-16:27:55.160689,2.0,20.0,349.0
2021-12-17-16:27:55.161686,3.0,20.0,349.0
2021-12-17-16:27:55.162686,6.0,17.0,349.0
2021-12-17-16:27:55.163683,6.0,17.0,349.0
2021-12-17-16:27:55.164654,6.0,17.0,349.0
2021-12-17-16:27:55.165672,18.0,23.0,349.0
2021-12-17-16:27:55.166651,13.0,12.0,349.0
2021-12-17-16:27:55.167648,13.0,12.0,349.0
2021-12-17-16:27:55.168661,13.0,12.0,349.0
2021-12-17-16:27:55.169652,12.0,13.0,349.0
2021-12-17-16:27:55.170640,5.0,11.0,349.0
2021-12-17-16:27:55.171637,3.0,3.0,349.0
2021-12-17-16:27:55.172672,6.0,14.0,349.0
2021-12-17-16:27:55.173633,1.0,4.0,349.0
2021-12-17-16:27:55.174630,2.0,6.0,349.0
2021-12-17-16:27:55.176624,2.0,6.0,349.0
2021-12-17-16:27:55.176624,3.0,14.0,349.0
2021-12-17-16:27:55.177623,3.0,22.0,349.0
2021-12-17-16:27:55.178619,3.0,22.0,349.0
2021-12-17-16:27:55.179616,3.0,22.0,349.0
2021-12-17-16:27:55.180614,3.0,22.0,349.0
2021-12-17-16:27:55.181610,9.0,2.0,349.0
2021-12-17-16:27:55.182752,15.0,15.0,349.0
2021-12-17-16:27:55.182752,15.0,15.0,349.0
2021-12-17-16:27:55.183799,15.0,15.0,349.0
2021-12-17-16:27:55.184750,15.0,15.0,349.0
2021-12-17-16:27:55.185867,0.0,4.0,349.0
2021-12-17-16:27:55.185867,4.0,16.0,349.0
2021-12-17-16:27:55.186914,4.0,16.0,349.0
2021-12-17-16:27:55.187909,4.0,16.0,349.0
2021-12-17-16:27:55.188861,4.0,16.0,349.0
2021-12-17-16:27:55.189859,3.0,9.0,349.0
2021-12-17-16:27:55.191248,2.0,9.0,349.0
2021-12-17-16:27:55.191248,1.0,7.0,349.0
2021-12-17-16:27:55.192282,1.0,7.0,349.0
2021-12-17-16:27:55.193280,1.0,8.0,349.0
2021-12-17-16:27:55.194281,4.0,6.0,349.0
2021-12-17-16:27:55.195272,0.0,4.0,349.0
2021-12-17-16:27:55.196272,0.0,4.0,349.0
2021-12-17-16:27:55.197267,0.0,4.0,349.0
2021-12-17-16:27:55.198337,6.0,3.0,349.0
2021-12-17-16:27:55.198337,16.0,12.0,350.0
2021-12-17-16:27:55.199384,10.0,7.0,349.0
2021-12-17-16:27:55.200381,10.0,7.0,349.0
2021-12-17-16:27:55.201331,10.0,7.0,349.0
2021-12-17-16:27:55.202540,11.0,13.0,349.0
2021-12-17-16:27:55.202540,6.0,24.0,349.0
2021-12-17-16:27:55.203686,6.0,24.0,349.0
2021-12-17-16:27:55.203686,5.0,25.0,349.0
2021-12-17-16:27:55.204732,5.0,25.0,349.0
2021-12-17-16:27:55.205730,5.0,25.0,349.0
2021-12-17-16:27:55.206728,2.0,18.0,349.0
2021-12-17-16:27:55.207727,2.0,18.0,349.0
2021-12-17-16:27:55.208721,1.0,12.0,349.0
2021-12-17-16:27:55.210716,1.0,12.0,349.0
2021-12-17-16:27:55.210716,4.0,1.0,349.0
2021-12-17-16:27:55.211713,4.0,1.0,349.0
2021-12-17-16:27:55.212711,4.0,1.0,349.0
2021-12-17-16:27:55.213882,4.0,1.0,349.0
2021-12-17-16:27:55.213882,6.0,2.0,349.0
2021-12-17-16:27:55.214917,6.0,2.0,349.0
2021-12-17-16:27:55.216055,14.0,18.0,350.0
2021-12-17-16:27:55.216055,14.0,18.0,350.0
2021-12-17-16:27:55.217103,14.0,18.0,350.0
2021-12-17-16:27:55.218054,14.0,18.0,350.0
2021-12-17-16:27:55.219096,2.0,21.0,349.0
2021-12-17-16:27:55.220096,2.0,21.0,349.0
2021-12-17-16:27:55.221095,2.0,21.0,349.0
2021-12-17-16:27:55.222094,2.0,21.0,349.0
2021-12-17-16:27:55.223067,3.0,24.0,349.0
2021-12-17-16:27:55.224082,1.0,12.0,349.0
2021-12-17-16:27:55.225072,2.0,4.0,349.0
2021-12-17-16:27:55.225072,0.0,10.0,349.0
2021-12-17-16:27:55.226129,2.0,11.0,349.0
2021-12-17-16:27:55.227126,2.0,11.0,349.0
2021-12-17-16:27:55.228123,2.0,11.0,349.0
2021-12-17-16:27:55.229159,2.0,11.0,349.0
2021-12-17-16:27:55.229159,2.0,11.0,349.0
2021-12-17-16:27:55.230380,2.0,11.0,349.0
2021-12-17-16:27:55.230380,7.0,3.0,349.0
2021-12-17-16:27:55.231413,7.0,3.0,349.0
2021-12-17-16:27:55.232412,13.0,16.0,349.0
2021-12-17-16:27:55.233407,13.0,16.0,349.0
2021-12-17-16:27:55.234404,13.0,16.0,349.0
2021-12-17-16:27:55.235404,11.0,16.0,349.0
2021-12-17-16:27:55.236399,1.0,14.0,350.0
2021-12-17-16:27:55.237398,1.0,14.0,350.0
2021-12-17-16:27:55.238393,1.0,14.0,350.0
2021-12-17-16:27:55.239391,2.0,26.0,349.0
2021-12-17-16:27:55.240382,1.0,15.0,349.0
2021-12-17-16:27:55.241377,2.0,8.0,349.0
2021-12-17-16:27:55.242376,2.0,8.0,349.0
2021-12-17-16:27:55.244346,1.0,8.0,349.0
2021-12-17-16:27:55.244346,3.0,5.0,349.0
2021-12-17-16:27:55.245486,3.0,5.0,349.0
2021-12-17-16:27:55.245486,3.0,5.0,349.0
2021-12-17-16:27:55.246530,3.0,5.0,349.0
2021-12-17-16:27:55.247528,5.0,6.0,349.0
2021-12-17-16:27:55.248525,14.0,15.0,349.0
2021-12-17-16:27:55.249522,12.0,17.0,350.0
2021-12-17-16:27:55.250520,12.0,17.0,350.0
2021-12-17-16:27:55.251474,14.0,19.0,349.0
2021-12-17-16:27:55.252515,4.0,12.0,349.0
2021-12-17-16:27:55.253512,4.0,12.0,349.0
2021-12-17-16:27:55.254508,4.0,12.0,349.0
2021-12-17-16:27:55.255463,3.0,25.0,349.0
2021-12-17-16:27:55.256460,1.0,23.0,349.0
2021-12-17-16:27:55.257458,1.0,23.0,349.0
2021-12-17-16:27:55.258455,1.0,23.0,349.0
2021-12-17-16:27:55.259477,2.0,42.0,349.0
2021-12-17-16:27:55.260475,0.0,49.0,349.0
2021-12-17-16:27:55.261447,0.0,49.0,349.0
2021-12-17-16:27:55.262443,0.0,49.0,349.0
2021-12-17-16:27:55.263441,2.0,18.0,349.0
2021-12-17-16:27:55.264438,1.0,15.0,349.0
2021-12-17-16:27:55.265435,9.0,37.0,349.0
2021-12-17-16:27:55.266432,12.0,30.0,349.0
2021-12-17-16:27:55.267430,15.0,24.0,349.0
2021-12-17-16:27:55.268429,16.0,23.0,349.0
2021-12-17-16:27:55.269425,13.0,10.0,349.0
2021-12-17-16:27:55.270422,5.0,3.0,349.0
2021-12-17-16:27:55.271420,3.0,31.0,349.0
2021-12-17-16:27:55.272481,3.0,25.0,349.0
2021-12-17-16:27:55.272481,3.0,25.0,349.0
2021-12-17-16:27:55.273535,3.0,25.0,349.0
2021-12-17-16:27:55.274532,3.0,25.0,349.0
2021-12-17-16:27:55.275531,3.0,25.0,349.0
2021-12-17-16:27:55.277523,4.0,18.0,349.0
2021-12-17-16:27:55.277523,2.0,4.0,349.0
2021-12-17-16:27:55.278521,2.0,4.0,349.0
2021-12-17-16:27:55.279509,2.0,4.0,349.0
2021-12-17-16:27:55.280507,5.0,7.0,349.0
2021-12-17-16:27:55.281598,13.0,3.0,349.0
2021-12-17-16:27:55.281598,13.0,3.0,349.0
2021-12-17-16:27:55.282630,13.0,3.0,349.0
2021-12-17-16:27:55.283869,13.0,3.0,349.0
2021-12-17-16:27:55.283869,15.0,12.0,349.0
2021-12-17-16:27:55.284913,10.0,1.0,349.0
2021-12-17-16:27:55.285910,8.0,3.0,349.0
2021-12-17-16:27:55.286911,8.0,3.0,349.0
2021-12-17-16:27:55.287906,3.0,5.0,349.0
2021-12-17-16:27:55.288858,2.0,8.0,349.0
2021-12-17-16:27:55.289855,0.0,4.0,349.0
2021-12-17-16:27:55.290905,0.0,4.0,349.0
2021-12-17-16:27:55.291902,1.0,4.0,349.0
2021-12-17-16:27:55.293002,0.0,24.0,349.0
2021-12-17-16:27:55.293002,0.0,24.0,349.0
2021-12-17-16:27:55.294027,0.0,24.0,349.0
2021-12-17-16:27:55.295236,0.0,24.0,349.0
2021-12-17-16:27:55.295236,5.0,13.0,349.0
2021-12-17-16:27:55.296365,10.0,10.0,349.0
2021-12-17-16:27:55.296365,10.0,10.0,349.0
2021-12-17-16:27:55.297393,10.0,10.0,349.0
2021-12-17-16:27:55.298386,10.0,10.0,349.0
2021-12-17-16:27:55.299560,10.0,10.0,349.0
2021-12-17-16:27:55.299560,12.0,1.0,349.0
2021-12-17-16:27:55.300603,12.0,8.0,349.0
2021-12-17-16:27:55.301602,14.0,6.0,349.0
2021-12-17-16:27:55.302598,14.0,6.0,349.0
2021-12-17-16:27:55.303597,14.0,6.0,349.0
2021-12-17-16:27:55.304594,6.0,13.0,349.0
2021-12-17-16:27:55.305591,4.0,23.0,349.0
2021-12-17-16:27:55.306589,3.0,24.0,349.0
2021-12-17-16:27:55.307541,3.0,24.0,349.0
2021-12-17-16:27:55.308582,3.0,14.0,349.0
2021-12-17-16:27:55.309581,1.0,7.0,349.0
2021-12-17-16:27:55.310577,3.0,5.0,349.0
2021-12-17-16:27:55.312529,3.0,5.0,349.0
2021-12-17-16:27:55.312529,2.0,2.0,349.0
2021-12-17-16:27:55.313553,10.0,17.0,350.0
2021-12-17-16:27:55.314547,10.0,17.0,350.0
2021-12-17-16:27:55.315520,10.0,17.0,350.0
2021-12-17-16:27:55.316543,12.0,20.0,349.0
2021-12-17-16:27:55.317538,11.0,8.0,349.0
2021-12-17-16:27:55.318512,11.0,8.0,349.0
2021-12-17-16:27:55.319534,11.0,8.0,349.0
2021-12-17-16:27:55.320536,8.0,5.0,349.0
2021-12-17-16:27:55.321530,2.0,21.0,349.0
2021-12-17-16:27:55.322528,2.0,21.0,349.0
2021-12-17-16:27:55.323523,2.0,21.0,349.0
2021-12-17-16:27:55.324522,2.0,21.0,349.0
2021-12-17-16:27:55.325517,1.0,25.0,349.0
2021-12-17-16:27:55.326514,5.0,3.0,349.0
2021-12-17-16:27:55.327513,5.0,3.0,349.0
2021-12-17-16:27:55.328509,5.0,3.0,349.0
2021-12-17-16:27:55.329508,9.0,6.0,349.0
2021-12-17-16:27:55.330504,9.0,6.0,349.0
2021-12-17-16:27:55.331502,9.0,6.0,349.0
2021-12-17-16:27:55.332500,9.0,6.0,349.0
2021-12-17-16:27:55.333499,14.0,18.0,349.0
2021-12-17-16:27:55.334493,14.0,7.0,349.0
2021-12-17-16:27:55.335496,8.0,5.0,349.0
2021-12-17-16:27:55.336487,8.0,5.0,349.0
2021-12-17-16:27:55.337487,1.0,18.0,349.0
2021-12-17-16:27:55.338482,5.0,20.0,349.0
2021-12-17-16:27:55.339480,4.0,30.0,349.0
2021-12-17-16:27:55.340478,4.0,30.0,349.0
2021-12-17-16:27:55.341475,2.0,23.0,349.0
2021-12-17-16:27:55.342472,1.0,9.0,349.0
2021-12-17-16:27:55.343471,3.0,5.0,349.0
2021-12-17-16:27:55.344466,3.0,5.0,349.0
2021-12-17-16:27:55.346461,5.0,5.0,349.0
2021-12-17-16:27:55.346461,11.0,20.0,349.0
2021-12-17-16:27:55.347457,11.0,20.0,349.0
2021-12-17-16:27:55.348432,11.0,20.0,349.0
2021-12-17-16:27:55.349453,13.0,12.0,349.0
2021-12-17-16:27:55.350435,16.0,16.0,349.0
2021-12-17-16:27:55.351424,11.0,10.0,349.0
2021-12-17-16:27:55.352421,11.0,10.0,349.0
2021-12-17-16:27:55.353445,5.0,5.0,349.0
2021-12-17-16:27:55.354444,5.0,31.0,349.0
2021-12-17-16:27:55.355443,5.0,31.0,349.0
2021-12-17-16:27:55.356435,5.0,31.0,349.0
2021-12-17-16:27:55.357432,5.0,31.0,349.0
2021-12-17-16:27:55.358430,5.0,7.0,349.0
2021-12-17-16:27:55.359427,5.0,7.0,349.0
2021-12-17-16:27:55.360423,5.0,7.0,349.0
2021-12-17-16:27:55.361428,5.0,7.0,349.0
2021-12-17-16:27:55.362419,4.0,7.0,349.0
2021-12-17-16:27:55.363416,11.0,10.0,349.0
2021-12-17-16:27:55.364414,11.0,10.0,349.0
2021-12-17-16:27:55.365494,11.0,10.0,349.0
2021-12-17-16:27:55.365494,17.0,26.0,349.0
2021-12-17-16:27:55.366557,10.0,19.0,349.0
2021-12-17-16:27:55.367546,10.0,19.0,349.0
2021-12-17-16:27:55.368493,10.0,19.0,349.0
2021-12-17-16:27:55.369690,10.0,19.0,349.0
2021-12-17-16:27:55.369690,10.0,3.0,349.0
2021-12-17-16:27:55.370715,10.0,3.0,349.0
2021-12-17-16:27:55.371715,4.0,13.0,349.0
2021-12-17-16:27:55.372709,4.0,13.0,349.0
2021-12-17-16:27:55.373709,4.0,13.0,349.0
2021-12-17-16:27:55.374704,0.0,19.0,349.0
2021-12-17-16:27:55.375701,2.0,1.0,349.0
2021-12-17-16:27:55.376701,2.0,1.0,349.0
2021-12-17-16:27:55.377695,2.0,1.0,349.0
2021-12-17-16:27:55.379668,6.0,1.0,349.0
2021-12-17-16:27:55.379668,6.0,1.0,349.0
2021-12-17-16:27:55.380688,6.0,1.0,349.0
2021-12-17-16:27:55.381688,6.0,1.0,349.0
2021-12-17-16:27:55.382682,10.0,12.0,349.0
2021-12-17-16:27:55.383785,11.0,8.0,349.0
2021-12-17-16:27:55.383785,11.0,8.0,349.0
2021-12-17-16:27:55.384786,11.0,8.0,349.0
2021-12-17-16:27:55.385839,11.0,8.0,349.0
2021-12-17-16:27:55.386837,10.0,19.0,349.0
2021-12-17-16:27:55.387831,2.0,15.0,349.0
2021-12-17-16:27:55.388817,2.0,15.0,349.0
2021-12-17-16:27:55.389771,2.0,15.0,349.0
2021-12-17-16:27:55.390822,2.0,16.0,349.0
2021-12-17-16:27:55.391824,1.0,12.0,350.0
2021-12-17-16:27:55.392818,3.0,15.0,349.0
2021-12-17-16:27:55.394156,3.0,15.0,349.0
2021-12-17-16:27:55.394671,7.0,14.0,349.0
2021-12-17-16:27:55.394671,7.0,14.0,349.0
2021-12-17-16:27:55.395717,7.0,14.0,349.0
2021-12-17-16:27:55.396714,7.0,14.0,349.0
2021-12-17-16:27:55.397712,7.0,14.0,349.0
2021-12-17-16:27:55.398884,12.0,21.0,350.0
2021-12-17-16:27:55.398884,16.0,24.0,349.0
2021-12-17-16:27:55.399909,16.0,24.0,349.0
2021-12-17-16:27:55.400905,13.0,11.0,349.0
2021-12-17-16:27:55.401880,13.0,11.0,349.0
2021-12-17-16:27:55.402908,10.0,5.0,349.0
2021-12-17-16:27:55.403905,3.0,21.0,350.0
2021-12-17-16:27:55.404901,3.0,21.0,350.0
2021-12-17-16:27:55.405899,3.0,21.0,350.0
2021-12-17-16:27:55.406889,0.0,27.0,349.0
2021-12-17-16:27:55.407890,2.0,20.0,349.0
2021-12-17-16:27:55.408883,2.0,20.0,349.0
2021-12-17-16:27:55.409857,2.0,20.0,349.0
2021-12-17-16:27:55.411875,1.0,15.0,349.0
2021-12-17-16:27:55.412849,7.0,12.0,349.0
2021-12-17-16:27:55.412849,7.0,12.0,349.0
2021-12-17-16:27:55.413849,7.0,12.0,349.0
2021-12-17-16:27:55.414867,14.0,26.0,349.0
2021-12-17-16:27:55.415979,15.0,15.0,349.0
2021-12-17-16:27:55.415979,15.0,15.0,349.0
2021-12-17-16:27:55.417026,15.0,15.0,349.0
2021-12-17-16:27:55.418026,15.0,15.0,349.0
2021-12-17-16:27:55.419021,5.0,35.0,349.0
2021-12-17-16:27:55.420017,5.0,35.0,349.0
2021-12-17-16:27:55.421018,5.0,35.0,349.0
2021-12-17-16:27:55.422014,5.0,35.0,349.0
2021-12-17-16:27:55.423011,3.0,33.0,349.0
2021-12-17-16:27:55.424006,3.0,15.0,349.0
2021-12-17-16:27:55.425004,1.0,8.0,349.0
2021-12-17-16:27:55.426001,1.0,8.0,349.0
2021-12-17-16:27:55.426999,1.0,8.0,349.0
2021-12-17-16:27:55.428001,6.0,9.0,349.0
2021-12-17-16:27:55.428997,6.0,9.0,349.0
2021-12-17-16:27:55.430170,6.0,0.0,350.0
2021-12-17-16:27:55.430170,6.0,0.0,350.0
2021-12-17-16:27:55.431201,6.0,0.0,350.0
2021-12-17-16:27:55.432199,12.0,29.0,349.0
2021-12-17-16:27:55.433199,14.0,36.0,349.0
2021-12-17-16:27:55.434194,14.0,36.0,349.0
2021-12-17-16:27:55.435160,14.0,36.0,349.0
2021-12-17-16:27:55.436305,1.0,10.0,349.0
2021-12-17-16:27:55.436305,2.0,26.0,349.0
2021-12-17-16:27:55.437351,2.0,26.0,349.0
2021-12-17-16:27:55.438572,2.0,26.0,349.0
2021-12-17-16:27:55.438572,5.0,33.0,349.0
2021-12-17-16:27:55.439606,5.0,33.0,349.0
2021-12-17-16:27:55.440713,1.0,29.0,349.0
2021-12-17-16:27:55.440713,1.0,29.0,349.0
2021-12-17-16:27:55.441759,1.0,29.0,349.0
2021-12-17-16:27:55.442757,1.0,29.0,349.0
2021-12-17-16:27:55.444192,4.0,20.0,349.0
2021-12-17-16:27:55.445192,5.0,7.0,349.0
2021-12-17-16:27:55.445192,5.0,7.0,349.0
2021-12-17-16:27:55.446221,5.0,7.0,349.0
2021-12-17-16:27:55.447218,5.0,7.0,349.0
2021-12-17-16:27:55.448217,2.0,1.0,349.0
2021-12-17-16:27:55.449331,17.0,11.0,349.0
2021-12-17-16:27:55.449331,17.0,11.0,349.0
2021-12-17-16:27:55.450380,17.0,11.0,349.0
2021-12-17-16:27:55.451374,17.0,11.0,349.0
2021-12-17-16:27:55.452373,2.0,8.0,349.0
2021-12-17-16:27:55.453372,2.0,8.0,349.0
2021-12-17-16:27:55.454366,2.0,8.0,349.0
2021-12-17-16:27:55.455366,2.0,8.0,349.0
2021-12-17-16:27:55.456363,6.0,22.0,349.0
2021-12-17-16:27:55.457358,1.0,20.0,349.0
2021-12-17-16:27:55.458356,4.0,16.0,349.0
2021-12-17-16:27:55.459354,4.0,16.0,349.0
2021-12-17-16:27:55.460353,1.0,5.0,349.0
2021-12-17-16:27:55.461603,1.0,5.0,349.0
2021-12-17-16:27:55.461961,3.0,0.0,349.0
2021-12-17-16:27:55.461961,3.0,0.0,349.0
2021-12-17-16:27:55.463182,3.0,0.0,349.0
2021-12-17-16:27:55.463182,4.0,1.0,349.0
2021-12-17-16:27:55.464216,4.0,1.0,349.0
2021-12-17-16:27:55.465211,13.0,21.0,349.0
2021-12-17-16:27:55.466208,13.0,21.0,349.0
2021-12-17-16:27:55.467174,13.0,21.0,349.0
2021-12-17-16:27:55.468180,11.0,16.0,349.0
2021-12-17-16:27:55.469204,12.0,9.0,349.0
2021-12-17-16:27:55.470198,1.0,15.0,349.0
2021-12-17-16:27:55.471195,1.0,15.0,349.0
2021-12-17-16:27:55.472194,0.0,25.0,349.0
2021-12-17-16:27:55.473301,2.0,19.0,349.0
2021-12-17-16:27:55.473470,2.0,19.0,349.0
2021-12-17-16:27:55.473470,2.0,19.0,349.0
2021-12-17-16:27:55.474503,2.0,19.0,349.0
2021-12-17-16:27:55.475499,2.0,19.0,349.0
2021-12-17-16:27:55.476496,0.0,15.0,349.0
2021-12-17-16:27:55.477497,2.0,10.0,349.0
2021-12-17-16:27:55.478495,2.0,10.0,349.0
2021-12-17-16:27:55.480489,2.0,10.0,349.0
2021-12-17-16:27:55.480489,17.0,19.0,349.0
2021-12-17-16:27:55.481484,17.0,19.0,349.0
2021-12-17-16:27:55.482481,17.0,19.0,349.0
2021-12-17-16:27:55.483491,17.0,19.0,349.0
2021-12-17-16:27:55.484475,14.0,17.0,349.0
2021-12-17-16:27:55.485440,3.0,3.0,349.0
2021-12-17-16:27:55.486470,3.0,3.0,349.0
2021-12-17-16:27:55.487469,3.0,3.0,349.0
2021-12-17-16:27:55.488465,3.0,3.0,349.0
2021-12-17-16:27:55.489462,3.0,17.0,349.0
2021-12-17-16:27:55.490460,3.0,17.0,349.0
2021-12-17-16:27:55.491457,3.0,17.0,349.0
2021-12-17-16:27:55.492454,3.0,17.0,349.0
2021-12-17-16:27:55.493452,3.0,6.0,349.0
2021-12-17-16:27:55.494448,0.0,3.0,349.0
2021-12-17-16:27:55.495447,0.0,3.0,349.0
2021-12-17-16:27:55.496444,5.0,7.0,349.0
2021-12-17-16:27:55.497432,3.0,19.0,349.0
2021-12-17-16:27:55.498431,14.0,13.0,349.0
2021-12-17-16:27:55.499427,14.0,13.0,349.0
2021-12-17-16:27:55.500424,14.0,13.0,349.0
2021-12-17-16:27:55.501423,17.0,5.0,349.0
2021-12-17-16:27:55.502420,11.0,32.0,349.0
2021-12-17-16:27:55.503418,5.0,29.0,349.0
2021-12-17-16:27:55.504413,5.0,29.0,349.0
2021-12-17-16:27:55.505414,5.0,22.0,349.0
2021-12-17-16:27:55.506409,2.0,3.0,349.0
2021-12-17-16:27:55.507405,2.0,3.0,349.0
2021-12-17-16:27:55.508406,2.0,3.0,349.0
2021-12-17-16:27:55.509401,2.0,5.0,349.0
2021-12-17-16:27:55.510402,4.0,5.0,349.0
2021-12-17-16:27:55.511397,4.0,5.0,349.0
2021-12-17-16:27:55.512392,4.0,5.0,349.0
2021-12-17-16:27:55.514393,11.0,7.0,349.0
2021-12-17-16:27:55.514393,11.0,7.0,349.0
2021-12-17-16:27:55.515384,11.0,7.0,349.0
2021-12-17-16:27:55.516390,11.0,7.0,349.0
2021-12-17-16:27:55.517379,15.0,21.0,349.0
2021-12-17-16:27:55.518352,9.0,0.0,349.0
2021-12-17-16:27:55.519376,9.0,0.0,349.0
2021-12-17-16:27:55.520371,9.0,0.0,349.0
2021-12-17-16:27:55.521401,2.0,13.0,349.0
2021-12-17-16:27:55.521401,2.0,18.0,349.0
2021-12-17-16:27:55.522434,2.0,18.0,349.0
2021-12-17-16:27:55.523440,2.0,6.0,349.0
2021-12-17-16:27:55.524431,2.0,6.0,349.0
2021-12-17-16:27:55.525483,0.0,3.0,349.0
2021-12-17-16:27:55.525483,2.0,9.0,349.0
2021-12-17-16:27:55.526637,2.0,9.0,349.0
2021-12-17-16:27:55.526637,2.0,9.0,349.0
2021-12-17-16:27:55.527634,2.0,9.0,349.0
2021-12-17-16:27:55.528634,2.0,9.0,349.0
2021-12-17-16:27:55.529667,7.0,14.0,349.0
2021-12-17-16:27:55.530780,6.0,11.0,349.0
2021-12-17-16:27:55.530780,9.0,1.0,349.0
2021-12-17-16:27:55.531834,9.0,1.0,349.0
2021-12-17-16:27:55.532831,9.0,1.0,349.0
2021-12-17-16:27:55.534027,15.0,1.0,349.0
2021-12-17-16:27:55.534027,17.0,3.0,349.0
2021-12-17-16:27:55.535026,17.0,3.0,349.0
2021-12-17-16:27:55.536085,11.0,12.0,349.0
2021-12-17-16:27:55.537057,11.0,12.0,349.0
2021-12-17-16:27:55.538050,6.0,1.0,349.0
2021-12-17-16:27:55.539172,3.0,15.0,349.0
2021-12-17-16:27:55.539172,3.0,15.0,349.0
2021-12-17-16:27:55.540227,3.0,15.0,349.0
2021-12-17-16:27:55.541226,3.0,15.0,349.0
2021-12-17-16:27:55.542433,3.0,9.0,349.0
2021-12-17-16:27:55.542433,1.0,2.0,349.0
2021-12-17-16:27:55.543467,1.0,2.0,349.0
2021-12-17-16:27:55.544464,3.0,13.0,349.0
2021-12-17-16:27:55.546426,3.0,13.0,349.0
2021-12-17-16:27:55.546426,11.0,17.0,350.0
2021-12-17-16:27:55.547455,11.0,17.0,350.0
2021-12-17-16:27:55.548451,11.0,17.0,350.0
2021-12-17-16:27:55.549448,11.0,17.0,350.0
2021-12-17-16:27:55.550449,15.0,12.0,349.0
2021-12-17-16:27:55.551443,8.0,13.0,349.0
2021-12-17-16:27:55.552440,8.0,13.0,349.0
2021-12-17-16:27:55.553440,8.0,13.0,349.0
2021-12-17-16:27:55.554440,4.0,26.0,350.0
2021-12-17-16:27:55.555585,0.0,28.0,350.0
2021-12-17-16:27:55.555585,0.0,28.0,350.0
2021-12-17-16:27:55.556639,0.0,28.0,350.0
2021-12-17-16:27:55.557637,0.0,28.0,350.0
2021-12-17-16:27:55.558634,1.0,28.0,349.0
2021-12-17-16:27:55.559631,4.0,22.0,349.0
2021-12-17-16:27:55.560631,4.0,3.0,349.0
2021-12-17-16:27:55.561976,3.0,1.0,350.0
2021-12-17-16:27:55.561976,8.0,2.0,349.0
2021-12-17-16:27:55.563009,12.0,4.0,349.0
2021-12-17-16:27:55.564005,12.0,4.0,349.0
2021-12-17-16:27:55.565003,12.0,4.0,349.0
2021-12-17-16:27:55.566001,12.0,4.0,349.0
2021-12-17-16:27:55.567000,20.0,8.0,349.0
2021-12-17-16:27:55.567987,9.0,1.0,350.0
2021-12-17-16:27:55.568985,9.0,1.0,350.0
2021-12-17-16:27:55.569982,9.0,1.0,350.0
2021-12-17-16:27:55.570979,5.0,12.0,349.0
2021-12-17-16:27:55.571976,1.0,14.0,349.0
2021-12-17-16:27:55.572979,0.0,7.0,349.0
2021-12-17-16:27:55.573971,0.0,7.0,349.0
2021-12-17-16:27:55.574971,2.0,1.0,349.0
2021-12-17-16:27:55.575965,0.0,11.0,349.0
2021-12-17-16:27:55.576963,1.0,16.0,349.0
2021-12-17-16:27:55.577961,1.0,16.0,349.0
2021-12-17-16:27:55.578958,3.0,8.0,349.0
2021-12-17-16:27:55.580929,12.0,16.0,349.0
2021-12-17-16:27:55.580929,12.0,16.0,349.0
2021-12-17-16:27:55.581926,12.0,16.0,349.0
2021-12-17-16:27:55.582953,13.0,19.0,349.0
2021-12-17-16:27:55.583944,12.0,5.0,349.0
2021-12-17-16:27:55.584918,12.0,5.0,349.0
2021-12-17-16:27:55.585939,12.0,5.0,349.0
2021-12-17-16:27:55.586936,6.0,17.0,349.0
2021-12-17-16:27:55.587934,0.0,19.0,349.0
2021-12-17-16:27:55.588907,0.0,19.0,349.0
2021-12-17-16:27:55.589904,0.0,19.0,349.0
2021-12-17-16:27:55.590937,0.0,19.0,349.0
2021-12-17-16:27:55.591923,2.0,1.0,349.0
2021-12-17-16:27:55.592920,2.0,1.0,349.0
2021-12-17-16:27:55.593918,2.0,1.0,349.0
2021-12-17-16:27:55.594914,2.0,1.0,349.0
2021-12-17-16:27:55.595912,10.0,13.0,349.0
2021-12-17-16:27:55.596910,10.0,13.0,349.0
2021-12-17-16:27:55.597907,10.0,13.0,349.0
2021-12-17-16:27:55.598906,10.0,13.0,349.0
2021-12-17-16:27:55.599901,12.0,19.0,349.0
2021-12-17-16:27:55.600898,16.0,17.0,349.0
2021-12-17-16:27:55.601893,10.0,8.0,349.0
2021-12-17-16:27:55.602893,10.0,8.0,349.0
2021-12-17-16:27:55.603890,9.0,3.0,349.0
2021-12-17-16:27:55.604889,2.0,20.0,349.0
2021-12-17-16:27:55.605885,2.0,20.0,349.0
2021-12-17-16:27:55.606885,2.0,20.0,349.0
2021-12-17-16:27:55.607880,2.0,13.0,349.0
2021-12-17-16:27:55.609015,1.0,5.0,349.0
2021-12-17-16:27:55.609015,1.0,5.0,349.0
2021-12-17-16:27:55.610070,1.0,5.0,349.0
2021-12-17-16:27:55.611067,1.0,5.0,349.0
2021-12-17-16:27:55.612064,0.0,6.0,349.0
2021-12-17-16:27:55.613063,6.0,18.0,349.0
2021-12-17-16:27:55.614006,8.0,14.0,349.0
2021-12-17-16:27:55.615002,8.0,14.0,349.0
2021-12-17-16:27:55.616000,16.0,21.0,349.0
2021-12-17-16:27:55.618040,12.0,6.0,349.0
2021-12-17-16:27:55.618040,13.0,12.0,349.0
2021-12-17-16:27:55.618992,13.0,12.0,349.0
2021-12-17-16:27:55.619989,5.0,45.0,350.0
2021-12-17-16:27:55.621014,1.0,36.0,349.0
2021-12-17-16:27:55.622012,1.0,36.0,349.0
2021-12-17-16:27:55.623146,1.0,36.0,349.0
2021-12-17-16:27:55.623146,4.0,16.0,349.0
2021-12-17-16:27:55.624197,1.0,3.0,349.0
2021-12-17-16:27:55.625196,0.0,3.0,349.0
2021-12-17-16:27:55.626187,0.0,3.0,349.0
2021-12-17-16:27:55.627185,0.0,3.0,349.0
2021-12-17-16:27:55.628182,3.0,2.0,349.0
2021-12-17-16:27:55.629179,3.0,4.0,349.0
2021-12-17-16:27:55.630178,10.0,3.0,349.0
2021-12-17-16:27:55.631128,10.0,3.0,349.0
2021-12-17-16:27:55.632125,13.0,8.0,349.0
2021-12-17-16:27:55.633148,13.0,8.0,349.0
2021-12-17-16:27:55.634149,13.0,8.0,349.0
2021-12-17-16:27:55.635119,13.0,8.0,349.0
2021-12-17-16:27:55.636114,2.0,15.0,349.0
2021-12-17-16:27:55.637139,4.0,22.0,349.0
2021-12-17-16:27:55.638109,4.0,22.0,349.0
2021-12-17-16:27:55.639107,4.0,22.0,349.0
2021-12-17-16:27:55.640104,2.0,16.0,349.0
2021-12-17-16:27:55.641128,1.0,7.0,349.0
2021-12-17-16:27:55.642129,1.0,7.0,349.0
2021-12-17-16:27:55.643124,1.0,7.0,349.0
2021-12-17-16:27:55.644121,1.0,7.0,349.0
2021-12-17-16:27:55.645118,1.0,6.0,349.0
2021-12-17-16:27:55.646114,3.0,10.0,349.0
2021-12-17-16:27:55.647112,3.0,10.0,349.0
2021-12-17-16:27:55.648112,3.0,10.0,349.0
2021-12-17-16:27:55.649106,12.0,9.0,349.0
2021-12-17-16:27:55.651076,12.0,9.0,349.0
2021-12-17-16:27:55.651076,12.0,9.0,349.0
2021-12-17-16:27:55.652072,12.0,9.0,349.0
2021-12-17-16:27:55.653096,9.0,3.0,349.0
2021-12-17-16:27:55.654193,2.0,30.0,349.0
2021-12-17-16:27:55.654193,2.0,30.0,349.0
2021-12-17-16:27:55.655241,2.0,30.0,349.0
2021-12-17-16:27:55.656395,2.0,30.0,349.0
2021-12-17-16:27:55.656395,3.0,38.0,349.0
2021-12-17-16:27:55.657420,3.0,38.0,349.0
2021-12-17-16:27:55.658534,2.0,12.0,349.0
2021-12-17-16:27:55.658534,2.0,12.0,349.0
2021-12-17-16:27:55.659581,2.0,12.0,349.0
2021-12-17-16:27:55.660744,2.0,12.0,349.0
2021-12-17-16:27:55.660744,1.0,25.0,349.0
2021-12-17-16:27:55.661767,1.0,25.0,349.0
2021-12-17-16:27:55.662764,9.0,9.0,349.0
2021-12-17-16:27:55.663738,9.0,9.0,349.0
2021-12-17-16:27:55.664759,4.0,5.0,349.0
2021-12-17-16:27:55.665757,15.0,20.0,349.0
2021-12-17-16:27:55.666755,15.0,20.0,349.0
2021-12-17-16:27:55.667752,15.0,20.0,349.0
2021-12-17-16:27:55.668725,0.0,12.0,349.0
2021-12-17-16:27:55.669777,0.0,12.0,349.0
2021-12-17-16:27:55.670765,0.0,12.0,349.0
2021-12-17-16:27:55.671764,0.0,12.0,349.0
2021-12-17-16:27:55.672764,0.0,12.0,349.0
2021-12-17-16:27:55.673759,7.0,18.0,349.0
2021-12-17-16:27:55.674756,3.0,16.0,349.0
2021-12-17-16:27:55.675752,3.0,7.0,349.0
2021-12-17-16:27:55.676749,3.0,7.0,349.0
2021-12-17-16:27:55.677747,4.0,9.0,349.0
2021-12-17-16:27:55.678745,6.0,4.0,349.0
2021-12-17-16:27:55.679741,4.0,1.0,349.0
2021-12-17-16:27:55.680743,4.0,1.0,349.0
2021-12-17-16:27:55.681736,5.0,6.0,349.0
2021-12-17-16:27:55.683686,13.0,15.0,349.0
2021-12-17-16:27:55.683686,13.0,15.0,349.0
2021-12-17-16:27:55.684708,13.0,15.0,349.0
2021-12-17-16:27:55.685704,15.0,10.0,349.0
2021-12-17-16:27:55.686806,3.0,13.0,349.0
2021-12-17-16:27:55.686806,3.0,13.0,349.0
2021-12-17-16:27:55.687855,3.0,13.0,349.0
2021-12-17-16:27:55.688956,3.0,13.0,349.0
2021-12-17-16:27:55.688956,5.0,19.0,349.0
2021-12-17-16:27:55.689956,5.0,19.0,349.0
2021-12-17-16:27:55.691084,1.0,5.0,349.0
2021-12-17-16:27:55.691084,1.0,5.0,349.0
2021-12-17-16:27:55.692135,1.0,5.0,349.0
2021-12-17-16:27:55.693130,1.0,5.0,349.0
2021-12-17-16:27:55.694127,0.0,1.0,349.0
2021-12-17-16:27:55.695103,5.0,0.0,349.0
2021-12-17-16:27:55.696074,4.0,16.0,349.0
2021-12-17-16:27:55.697070,4.0,16.0,349.0
2021-12-17-16:27:55.698067,16.0,8.0,349.0
2021-12-17-16:27:55.699066,16.0,8.0,349.0
2021-12-17-16:27:55.700076,16.0,8.0,349.0
2021-12-17-16:27:55.701086,16.0,8.0,349.0
2021-12-17-16:27:55.702059,10.0,13.0,349.0
2021-12-17-16:27:55.703055,0.0,25.0,349.0
2021-12-17-16:27:55.704052,0.0,25.0,349.0
2021-12-17-16:27:55.705049,0.0,25.0,349.0
2021-12-17-16:27:55.706047,5.0,31.0,349.0
2021-12-17-16:27:55.707046,5.0,31.0,349.0
2021-12-17-16:27:55.708042,1.0,20.0,349.0
2021-12-17-16:27:55.709039,0.0,4.0,349.0
2021-12-17-16:27:55.710036,2.0,0.0,349.0
2021-12-17-16:27:55.711033,5.0,11.0,349.0
2021-12-17-16:27:55.712041,5.0,11.0,349.0
2021-12-17-16:27:55.713054,5.0,11.0,349.0
2021-12-17-16:27:55.714051,4.0,10.0,349.0
2021-12-17-16:27:55.715049,11.0,3.0,349.0
2021-12-17-16:27:55.716046,18.0,1.0,349.0
2021-12-17-16:27:55.717047,18.0,1.0,349.0
2021-12-17-16:27:55.718016,14.0,8.0,349.0
2021-12-17-16:27:55.720036,12.0,4.0,349.0
2021-12-17-16:27:55.720036,12.0,4.0,349.0
2021-12-17-16:27:55.721011,1.0,10.0,349.0
2021-12-17-16:27:55.722003,3.0,11.0,349.0
2021-12-17-16:27:55.723030,1.0,12.0,349.0
2021-12-17-16:27:55.723999,2.0,16.0,349.0
2021-12-17-16:27:55.725021,2.0,16.0,349.0
2021-12-17-16:27:55.725993,2.0,34.0,349.0
2021-12-17-16:27:55.727016,1.0,27.0,349.0
2021-12-17-16:27:55.727989,2.0,48.0,349.0
2021-12-17-16:27:55.728985,2.0,48.0,349.0
2021-12-17-16:27:55.730009,2.0,48.0,349.0
2021-12-17-16:27:55.730981,5.0,17.0,349.0
2021-12-17-16:27:55.731979,12.0,13.0,349.0
2021-12-17-16:27:55.732976,12.0,13.0,349.0
2021-12-17-16:27:55.733973,12.0,13.0,349.0
2021-12-17-16:27:55.734999,11.0,21.0,349.0
2021-12-17-16:27:55.735967,11.0,21.0,349.0
2021-12-17-16:27:55.736964,1.0,5.0,349.0
2021-12-17-16:27:55.737963,1.0,5.0,349.0
2021-12-17-16:27:55.738959,4.0,21.0,349.0
2021-12-17-16:27:55.739957,2.0,9.0,349.0
2021-12-17-16:27:55.740954,2.0,9.0,349.0
2021-12-17-16:27:55.741952,2.0,9.0,349.0
2021-12-17-16:27:55.742950,3.0,3.0,349.0
2021-12-17-16:27:55.743946,3.0,6.0,349.0
2021-12-17-16:27:55.744988,3.0,6.0,349.0
2021-12-17-16:27:55.745986,3.0,6.0,349.0
2021-12-17-16:27:55.746937,3.0,0.0,349.0
2021-12-17-16:27:55.747934,5.0,3.0,348.0
2021-12-17-16:27:55.748957,11.0,13.0,348.0
2021-12-17-16:27:55.749976,16.0,19.0,349.0
2021-12-17-16:27:55.751925,5.0,9.0,349.0
2021-12-17-16:27:55.751925,5.0,9.0,349.0
2021-12-17-16:27:55.752922,5.0,9.0,349.0
2021-12-17-16:27:55.753919,5.0,9.0,349.0
2021-12-17-16:27:55.754917,3.0,27.0,349.0
2021-12-17-16:27:55.755914,2.0,30.0,349.0
2021-12-17-16:27:55.756912,2.0,30.0,349.0
2021-12-17-16:27:55.757935,2.0,30.0,349.0
2021-12-17-16:27:55.758906,0.0,50.0,348.0
2021-12-17-16:27:55.759904,6.0,7.0,349.0
2021-12-17-16:27:55.760926,6.0,7.0,349.0
2021-12-17-16:27:55.761922,6.0,7.0,349.0
2021-12-17-16:27:55.764889,6.0,7.0,349.0
2021-12-17-16:27:55.764889,7.0,6.0,349.0
2021-12-17-16:27:55.765888,12.0,29.0,349.0
2021-12-17-16:27:55.766885,12.0,29.0,349.0
2021-12-17-16:27:55.767882,15.0,7.0,349.0
2021-12-17-16:27:55.768879,11.0,4.0,349.0
2021-12-17-16:27:55.769878,11.0,4.0,349.0
2021-12-17-16:27:55.770873,11.0,4.0,349.0
2021-12-17-16:27:55.771872,2.0,16.0,349.0
2021-12-17-16:27:55.772869,5.0,16.0,349.0
2021-12-17-16:27:55.773866,5.0,16.0,349.0
2021-12-17-16:27:55.774869,5.0,16.0,349.0
2021-12-17-16:27:55.775894,2.0,13.0,349.0
2021-12-17-16:27:55.776882,3.0,11.0,349.0
2021-12-17-16:27:55.777855,0.0,13.0,348.0
2021-12-17-16:27:55.778852,0.0,13.0,348.0
2021-12-17-16:27:55.779849,4.0,9.0,349.0
2021-12-17-16:27:55.780847,3.0,2.0,349.0
2021-12-17-16:27:55.781844,4.0,1.0,348.0
2021-12-17-16:27:55.782873,12.0,14.0,348.0
2021-12-17-16:27:55.783873,10.0,6.0,349.0
2021-12-17-16:27:55.784837,4.0,10.0,349.0
2021-12-17-16:27:55.785835,4.0,10.0,349.0
2021-12-17-16:27:55.787829,4.0,10.0,349.0
2021-12-17-16:27:55.787829,3.0,23.0,349.0
2021-12-17-16:27:55.788827,4.0,17.0,349.0
2021-12-17-16:27:55.789823,1.0,11.0,349.0
2021-12-17-16:27:55.790820,1.0,11.0,349.0
2021-12-17-16:27:55.791819,0.0,4.0,349.0
2021-12-17-16:27:55.792847,2.0,6.0,349.0
2021-12-17-16:27:55.793846,2.0,6.0,349.0
2021-12-17-16:27:55.794809,2.0,6.0,349.0
2021-12-17-16:27:55.795839,2.0,7.0,349.0
2021-12-17-16:27:55.796805,16.0,3.0,348.0
2021-12-17-16:27:55.797803,16.0,3.0,348.0
2021-12-17-16:27:55.798799,16.0,3.0,348.0
2021-12-17-16:27:55.799831,16.0,3.0,348.0
2021-12-17-16:27:55.800794,10.0,8.0,348.0
2021-12-17-16:27:55.801792,10.0,8.0,348.0
2021-12-17-16:27:55.802790,10.0,8.0,348.0
2021-12-17-16:27:55.803787,10.0,8.0,348.0
2021-12-17-16:27:55.804817,3.0,23.0,349.0
2021-12-17-16:27:55.805808,4.0,31.0,349.0
2021-12-17-16:27:55.806777,4.0,31.0,349.0
2021-12-17-16:27:55.807775,4.0,31.0,349.0
2021-12-17-16:27:55.808797,3.0,25.0,349.0
2021-12-17-16:27:55.809770,2.0,7.0,349.0
2021-12-17-16:27:55.810793,2.0,7.0,349.0
2021-12-17-16:27:55.811765,2.0,7.0,349.0
2021-12-17-16:27:55.812762,6.0,8.0,349.0
2021-12-17-16:27:55.813760,13.0,27.0,349.0
2021-12-17-16:27:55.814757,13.0,27.0,349.0
2021-12-17-16:27:55.815781,13.0,27.0,349.0
2021-12-17-16:27:55.816752,13.0,5.0,349.0
2021-12-17-16:27:55.817749,11.0,4.0,349.0
2021-12-17-16:27:55.819744,11.0,4.0,349.0
2021-12-17-16:27:55.819744,11.0,4.0,349.0
2021-12-17-16:27:55.820739,1.0,16.0,349.0
2021-12-17-16:27:55.821737,2.0,11.0,349.0
2021-12-17-16:27:55.822734,2.0,11.0,349.0
2021-12-17-16:27:55.823733,2.0,11.0,349.0
2021-12-17-16:27:55.824754,1.0,4.0,349.0
2021-12-17-16:27:55.825728,2.0,6.0,349.0
2021-12-17-16:27:55.826724,2.0,6.0,349.0
2021-12-17-16:27:55.827721,2.0,6.0,349.0
2021-12-17-16:27:55.828719,3.0,5.0,349.0
2021-12-17-16:27:55.829716,2.0,4.0,349.0
2021-12-17-16:27:55.830713,4.0,12.0,349.0
2021-12-17-16:27:55.831711,14.0,5.0,349.0
2021-12-17-16:27:55.832708,16.0,7.0,349.0
2021-12-17-16:27:55.833706,14.0,15.0,349.0
2021-12-17-16:27:55.834703,13.0,6.0,349.0
2021-12-17-16:27:55.835700,13.0,6.0,349.0
2021-12-17-16:27:55.836751,4.0,19.0,349.0
2021-12-17-16:27:55.837697,4.0,8.0,349.0
2021-12-17-16:27:55.838693,4.0,8.0,349.0
2021-12-17-16:27:55.839689,4.0,8.0,349.0
2021-12-17-16:27:55.840688,3.0,8.0,349.0
2021-12-17-16:27:55.841717,0.0,16.0,349.0
2021-12-17-16:27:55.842715,0.0,16.0,349.0
2021-12-17-16:27:55.843704,0.0,16.0,349.0
2021-12-17-16:27:55.844698,0.0,16.0,349.0
2021-12-17-16:27:55.845674,2.0,11.0,349.0
2021-12-17-16:27:55.846672,6.0,10.0,349.0
2021-12-17-16:27:55.847668,6.0,10.0,349.0
2021-12-17-16:27:55.848667,6.0,10.0,349.0
2021-12-17-16:27:55.849687,12.0,2.0,349.0
2021-12-17-16:27:55.850686,15.0,19.0,349.0
2021-12-17-16:27:55.851658,12.0,16.0,349.0
2021-12-17-16:27:55.852655,12.0,16.0,349.0
2021-12-17-16:27:55.854651,10.0,4.0,349.0
2021-12-17-16:27:55.854651,3.0,22.0,349.0
2021-12-17-16:27:55.855647,3.0,22.0,349.0
2021-12-17-16:27:55.856666,3.0,22.0,349.0
2021-12-17-16:27:55.857642,1.0,22.0,349.0
2021-12-17-16:27:55.858640,3.0,3.0,349.0
2021-12-17-16:27:55.859661,3.0,3.0,349.0
2021-12-17-16:27:55.860658,3.0,3.0,349.0
2021-12-17-16:27:55.861632,0.0,9.0,349.0
2021-12-17-16:27:55.862629,10.0,20.0,348.0
2021-12-17-16:27:55.863651,10.0,20.0,348.0
2021-12-17-16:27:55.864623,10.0,20.0,348.0
2021-12-17-16:27:55.865621,12.0,23.0,349.0
2021-12-17-16:27:55.866618,12.0,5.0,349.0
2021-12-17-16:27:55.867615,12.0,5.0,349.0
2021-12-17-16:27:55.868613,12.0,5.0,349.0
2021-12-17-16:27:55.869610,12.0,11.0,349.0
2021-12-17-16:27:55.870608,7.0,12.0,349.0
2021-12-17-16:27:55.871605,0.0,28.0,349.0
2021-12-17-16:27:55.872603,0.0,28.0,349.0
2021-12-17-16:27:55.873627,2.0,18.0,349.0
2021-12-17-16:27:55.874597,1.0,8.0,349.0
2021-12-17-16:27:55.875594,1.0,8.0,349.0
2021-12-17-16:27:55.876590,1.0,8.0,349.0
2021-12-17-16:27:55.877588,1.0,8.0,349.0
2021-12-17-16:27:55.878586,0.0,5.0,349.0
2021-12-17-16:27:55.879583,6.0,5.0,349.0
2021-12-17-16:27:55.880581,6.0,5.0,349.0
2021-12-17-16:27:55.881577,6.0,5.0,349.0
2021-12-17-16:27:55.882576,12.0,14.0,349.0
2021-12-17-16:27:55.883572,12.0,14.0,349.0
2021-12-17-16:27:55.884570,16.0,15.0,349.0
2021-12-17-16:27:55.885568,16.0,15.0,349.0
2021-12-17-16:27:55.886565,7.0,3.0,349.0
2021-12-17-16:27:55.888589,2.0,12.0,349.0
2021-12-17-16:27:55.888589,2.0,12.0,349.0
2021-12-17-16:27:55.889557,3.0,10.0,348.0
2021-12-17-16:27:55.890554,2.0,8.0,349.0
2021-12-17-16:27:55.891551,3.0,12.0,348.0
2021-12-17-16:27:55.892572,3.0,12.0,348.0
2021-12-17-16:27:55.893571,3.0,12.0,348.0
2021-12-17-16:27:55.894544,1.0,24.0,348.0
2021-12-17-16:27:55.895541,4.0,24.0,349.0
2021-12-17-16:27:55.896537,4.0,24.0,349.0
2021-12-17-16:27:55.897536,4.0,24.0,349.0
2021-12-17-16:27:55.898546,8.0,13.0,348.0
2021-12-17-16:27:55.899530,12.0,24.0,349.0
2021-12-17-16:27:55.900528,12.0,24.0,349.0
2021-12-17-16:27:55.901527,12.0,24.0,349.0
2021-12-17-16:27:55.902522,12.0,19.0,349.0
2021-12-17-16:27:55.903520,10.0,8.0,349.0
2021-12-17-16:27:55.904517,10.0,8.0,349.0
2021-12-17-16:27:55.905514,1.0,13.0,349.0
2021-12-17-16:27:55.906510,1.0,11.0,349.0
2021-12-17-16:27:55.907510,2.0,13.0,349.0
2021-12-17-16:27:55.908506,1.0,9.0,349.0
2021-12-17-16:27:55.909502,1.0,9.0,349.0
2021-12-17-16:27:55.910501,3.0,10.0,349.0
2021-12-17-16:27:55.911499,4.0,7.0,348.0
2021-12-17-16:27:55.912496,2.0,5.0,349.0
2021-12-17-16:27:55.913492,6.0,4.0,349.0
2021-12-17-16:27:55.914489,6.0,5.0,349.0
2021-12-17-16:27:55.915487,12.0,16.0,349.0
2021-12-17-16:27:55.916483,12.0,16.0,349.0
2021-12-17-16:27:55.917481,12.0,16.0,349.0
2021-12-17-16:27:55.918479,12.0,16.0,349.0
2021-12-17-16:27:55.919477,11.0,12.0,348.0
2021-12-17-16:27:55.920507,1.0,15.0,349.0
2021-12-17-16:27:55.921472,1.0,15.0,349.0
2021-12-17-16:27:55.923467,1.0,15.0,349.0
2021-12-17-16:27:55.923467,4.0,9.0,349.0
2021-12-17-16:27:55.924463,1.0,7.0,349.0
2021-12-17-16:27:55.925461,1.0,7.0,349.0
2021-12-17-16:27:55.926459,1.0,7.0,349.0
2021-12-17-16:27:55.927489,4.0,10.0,349.0
2021-12-17-16:27:55.928453,2.0,14.0,349.0
2021-12-17-16:27:55.929451,2.0,14.0,349.0
2021-12-17-16:27:55.930448,2.0,14.0,349.0
2021-12-17-16:27:55.931476,16.0,34.0,349.0
2021-12-17-16:27:55.932473,16.0,34.0,349.0
2021-12-17-16:27:55.933440,16.0,34.0,349.0
2021-12-17-16:27:55.934437,16.0,34.0,349.0
2021-12-17-16:27:55.935433,11.0,21.0,349.0
2021-12-17-16:27:55.936463,2.0,0.0,349.0
2021-12-17-16:27:55.937460,2.0,0.0,349.0
2021-12-17-16:27:55.938451,2.0,0.0,349.0
2021-12-17-16:27:55.939447,3.0,24.0,349.0
2021-12-17-16:27:55.940444,1.0,3.0,349.0
2021-12-17-16:27:55.941418,1.0,3.0,349.0
2021-12-17-16:27:55.942415,1.0,3.0,349.0
2021-12-17-16:27:55.943413,1.0,9.0,349.0
2021-12-17-16:27:55.944411,4.0,5.0,349.0
2021-12-17-16:27:55.945408,4.0,5.0,349.0
2021-12-17-16:27:55.946406,4.0,5.0,349.0
2021-12-17-16:27:55.947403,7.0,21.0,349.0
2021-12-17-16:27:55.948400,14.0,32.0,349.0
2021-12-17-16:27:55.949398,14.0,32.0,349.0
2021-12-17-16:27:55.950395,14.0,32.0,349.0
2021-12-17-16:27:55.951392,10.0,1.0,349.0
2021-12-17-16:27:55.952390,4.0,24.0,349.0
2021-12-17-16:27:55.953387,4.0,24.0,349.0
2021-12-17-16:27:55.954384,4.0,24.0,349.0
2021-12-17-16:27:55.955380,4.0,24.0,349.0
2021-12-17-16:27:55.956379,3.0,26.0,349.0
2021-12-17-16:27:55.958406,3.0,26.0,349.0
2021-12-17-16:27:55.958406,3.0,26.0,349.0
2021-12-17-16:27:55.959371,1.0,8.0,349.0
2021-12-17-16:27:55.960400,3.0,10.0,349.0
2021-12-17-16:27:55.961364,1.0,17.0,349.0
2021-12-17-16:27:55.962393,1.0,17.0,349.0
2021-12-17-16:27:55.963383,1.0,17.0,349.0
2021-12-17-16:27:55.964381,5.0,6.0,348.0
2021-12-17-16:27:55.965380,16.0,17.0,348.0
2021-12-17-16:27:55.966380,16.0,17.0,348.0
2021-12-17-16:27:55.967375,16.0,17.0,348.0
2021-12-17-16:27:55.968346,13.0,7.0,349.0
2021-12-17-16:27:55.969343,5.0,32.0,349.0
2021-12-17-16:27:55.970367,5.0,32.0,349.0
2021-12-17-16:27:55.971338,5.0,32.0,349.0
2021-12-17-16:27:55.972361,3.0,13.0,349.0
2021-12-17-16:27:55.973333,3.0,13.0,349.0
2021-12-17-16:27:55.974354,3.0,13.0,349.0
2021-12-17-16:27:55.975354,3.0,13.0,349.0
2021-12-17-16:27:55.976325,1.0,15.0,349.0
2021-12-17-16:27:55.977322,3.0,13.0,349.0
2021-12-17-16:27:55.978319,3.0,13.0,349.0
2021-12-17-16:27:55.979317,3.0,13.0,349.0
2021-12-17-16:27:55.980314,0.0,10.0,349.0
2021-12-17-16:27:55.981312,13.0,20.0,349.0
2021-12-17-16:27:55.982309,13.0,20.0,349.0
2021-12-17-16:27:55.983304,13.0,20.0,349.0
2021-12-17-16:27:55.984327,16.0,29.0,349.0
2021-12-17-16:27:55.985300,8.0,1.0,349.0
2021-12-17-16:27:55.986324,8.0,1.0,349.0
2021-12-17-16:27:55.987294,8.0,1.0,349.0
2021-12-17-16:27:55.988293,0.0,19.0,349.0
2021-12-17-16:27:55.989316,3.0,14.0,349.0
2021-12-17-16:27:55.991284,3.0,14.0,349.0
2021-12-17-16:27:55.991284,3.0,14.0,349.0
2021-12-17-16:27:55.992282,1.0,8.0,349.0
2021-12-17-16:27:55.993280,6.0,1.0,348.0
2021-12-17-16:27:55.994276,6.0,1.0,348.0
2021-12-17-16:27:55.995298,6.0,1.0,348.0
2021-12-17-16:27:55.996296,6.0,1.0,348.0
2021-12-17-16:27:55.997295,13.0,17.0,349.0
2021-12-17-16:27:55.998446,13.0,17.0,349.0
2021-12-17-16:27:55.998659,13.0,17.0,349.0
2021-12-17-16:27:55.998867,13.0,17.0,349.0
2021-12-17-16:27:55.999074,13.0,17.0,349.0
2021-12-17-16:27:55.999281,13.0,17.0,349.0
2021-12-17-16:27:55.999281,13.0,17.0,349.0
2021-12-17-16:27:56.000280,13.0,17.0,349.0
2021-12-17-16:27:56.001278,6.0,2.0,349.0
2021-12-17-16:27:56.002276,6.0,2.0,349.0
2021-12-17-16:27:56.003272,6.0,2.0,349.0
2021-12-17-16:27:56.004270,6.0,2.0,349.0
2021-12-17-16:27:56.005267,3.0,17.0,349.0
2021-12-17-16:27:56.006266,0.0,11.0,349.0
2021-12-17-16:27:56.007262,0.0,11.0,349.0
2021-12-17-16:27:56.008259,0.0,11.0,349.0
2021-12-17-16:27:56.009256,6.0,22.0,349.0
2021-12-17-16:27:56.010254,5.0,23.0,349.0
2021-12-17-16:27:56.011251,5.0,23.0,349.0
2021-12-17-16:27:56.012282,5.0,23.0,349.0
2021-12-17-16:27:56.012282,7.0,10.0,349.0
2021-12-17-16:27:56.013316,7.0,15.0,349.0
2021-12-17-16:27:56.014315,7.0,15.0,349.0
2021-12-17-16:27:56.015311,7.0,15.0,349.0
2021-12-17-16:27:56.016360,7.0,15.0,349.0
2021-12-17-16:27:56.016707,14.0,3.0,349.0
2021-12-17-16:27:56.016900,6.0,4.0,349.0
2021-12-17-16:27:56.016900,6.0,4.0,349.0
2021-12-17-16:27:56.017921,6.0,4.0,349.0
2021-12-17-16:27:56.018923,6.0,4.0,349.0
2021-12-17-16:27:56.019951,6.0,4.0,349.0
2021-12-17-16:27:56.020940,6.0,4.0,349.0
2021-12-17-16:27:56.021938,0.0,19.0,349.0
2021-12-17-16:27:56.022937,0.0,19.0,349.0
2021-12-17-16:27:56.024950,0.0,19.0,349.0
2021-12-17-16:27:56.024950,2.0,9.0,349.0
2021-12-17-16:27:56.026071,1.0,1.0,349.0
2021-12-17-16:27:56.026258,1.0,1.0,349.0
2021-12-17-16:27:56.026446,1.0,1.0,349.0
2021-12-17-16:27:56.026630,1.0,1.0,349.0
2021-12-17-16:27:56.026814,1.0,1.0,349.0
2021-12-17-16:27:56.026814,1.0,1.0,349.0
2021-12-17-16:27:56.027814,1.0,1.0,349.0
2021-12-17-16:27:56.028811,1.0,1.0,349.0
2021-12-17-16:27:56.029808,14.0,24.0,349.0
2021-12-17-16:27:56.030957,14.0,24.0,349.0
2021-12-17-16:27:56.031163,14.0,24.0,349.0
2021-12-17-16:27:56.031365,14.0,24.0,349.0
2021-12-17-16:27:56.031563,14.0,24.0,349.0
2021-12-17-16:27:56.031642,14.0,24.0,349.0
2021-12-17-16:27:56.031642,14.0,24.0,349.0
2021-12-17-16:27:56.032667,14.0,24.0,349.0
2021-12-17-16:27:56.033664,10.0,3.0,349.0
2021-12-17-16:27:56.034663,9.0,5.0,349.0
2021-12-17-16:27:56.035801,9.0,5.0,349.0
2021-12-17-16:27:56.035987,9.0,5.0,349.0
2021-12-17-16:27:56.036172,9.0,5.0,349.0
2021-12-17-16:27:56.036350,9.0,5.0,349.0
2021-12-17-16:27:56.036350,9.0,5.0,349.0
2021-12-17-16:27:56.037349,9.0,5.0,349.0
2021-12-17-16:27:56.038346,3.0,27.0,349.0
2021-12-17-16:27:56.039343,3.0,27.0,349.0
2021-12-17-16:27:56.040366,3.0,27.0,349.0
2021-12-17-16:27:56.041338,3.0,27.0,349.0
2021-12-17-16:27:56.042361,1.0,1.0,349.0
2021-12-17-16:27:56.043333,3.0,3.0,349.0
2021-12-17-16:27:56.044330,3.0,3.0,349.0
2021-12-17-16:27:56.045327,3.0,3.0,349.0
2021-12-17-16:27:56.046352,5.0,9.0,349.0
2021-12-17-16:27:56.047348,14.0,18.0,349.0
2021-12-17-16:27:56.048319,14.0,18.0,349.0
2021-12-17-16:27:56.049317,14.0,18.0,349.0
2021-12-17-16:27:56.050340,13.0,11.0,349.0
2021-12-17-16:27:56.051337,11.0,9.0,349.0
2021-12-17-16:27:56.052309,11.0,9.0,349.0
2021-12-17-16:27:56.053306,11.0,9.0,349.0
2021-12-17-16:27:56.054340,3.0,29.0,349.0
2021-12-17-16:27:56.055326,3.0,22.0,349.0
2021-12-17-16:27:56.056298,3.0,22.0,349.0
2021-12-17-16:27:56.058295,3.0,22.0,349.0
2021-12-17-16:27:56.058295,0.0,7.0,349.0
2021-12-17-16:27:56.059315,1.0,6.0,349.0
2021-12-17-16:27:56.060287,1.0,6.0,349.0
2021-12-17-16:27:56.061285,1.0,6.0,349.0
2021-12-17-16:27:56.062309,1.0,16.0,349.0
2021-12-17-16:27:56.063281,9.0,24.0,349.0
2021-12-17-16:27:56.064278,9.0,24.0,349.0
2021-12-17-16:27:56.065277,9.0,24.0,349.0
2021-12-17-16:27:56.066305,13.0,7.0,349.0
2021-12-17-16:27:56.067297,9.0,6.0,349.0
2021-12-17-16:27:56.068266,9.0,6.0,349.0
2021-12-17-16:27:56.069264,9.0,6.0,349.0
2021-12-17-16:27:56.070288,3.0,20.0,349.0
2021-12-17-16:27:56.071284,1.0,27.0,349.0
2021-12-17-16:27:56.072255,1.0,27.0,349.0
2021-12-17-16:27:56.073253,1.0,27.0,349.0
2021-12-17-16:27:56.074250,0.0,0.0,349.0
2021-12-17-16:27:56.075247,3.0,1.0,349.0
2021-12-17-16:27:56.076245,3.0,1.0,349.0
2021-12-17-16:27:56.077242,3.0,1.0,349.0
2021-12-17-16:27:56.078239,3.0,1.0,349.0
2021-12-17-16:27:56.079262,4.0,1.0,349.0
2021-12-17-16:27:56.080259,13.0,0.0,349.0
2021-12-17-16:27:56.081231,13.0,0.0,349.0
2021-12-17-16:27:56.082229,13.0,0.0,349.0
2021-12-17-16:27:56.083256,17.0,15.0,349.0
2021-12-17-16:27:56.084254,15.0,10.0,349.0
2021-12-17-16:27:56.085221,15.0,10.0,349.0
2021-12-17-16:27:56.086218,15.0,10.0,349.0
2021-12-17-16:27:56.087242,2.0,5.0,349.0
2021-12-17-16:27:56.088240,1.0,18.0,349.0
2021-12-17-16:27:56.089210,1.0,18.0,349.0
2021-12-17-16:27:56.090207,1.0,18.0,349.0
2021-12-17-16:27:56.091230,1.0,22.0,349.0
2021-12-17-16:27:56.093225,1.0,22.0,349.0
2021-12-17-16:27:56.093225,1.0,35.0,349.0
2021-12-17-16:27:56.094225,1.0,35.0,349.0
2021-12-17-16:27:56.095220,2.0,49.0,349.0
2021-12-17-16:27:56.096217,8.0,8.0,349.0
2021-12-17-16:27:56.097189,8.0,8.0,349.0
2021-12-17-16:27:56.098186,8.0,8.0,349.0
2021-12-17-16:27:56.099209,15.0,16.0,349.0
2021-12-17-16:27:56.100207,10.0,26.0,349.0
2021-12-17-16:27:56.101178,10.0,26.0,349.0
2021-12-17-16:27:56.102175,10.0,26.0,349.0
2021-12-17-16:27:56.103198,0.0,19.0,349.0
2021-12-17-16:27:56.104196,0.0,19.0,349.0
2021-12-17-16:27:56.105167,0.0,19.0,349.0
2021-12-17-16:27:56.106165,0.0,19.0,349.0
2021-12-17-16:27:56.107162,0.0,14.0,349.0
2021-12-17-16:27:56.108185,0.0,14.0,349.0
2021-12-17-16:27:56.109157,0.0,14.0,349.0
2021-12-17-16:27:56.110154,0.0,14.0,349.0
2021-12-17-16:27:56.111151,3.0,3.0,349.0
2021-12-17-16:27:56.112175,3.0,4.0,349.0
2021-12-17-16:27:56.113146,3.0,4.0,349.0
2021-12-17-16:27:56.114143,3.0,4.0,349.0
2021-12-17-16:27:56.115166,9.0,20.0,349.0
2021-12-17-16:27:56.116166,14.0,20.0,349.0
2021-12-17-16:27:56.117135,14.0,20.0,349.0
2021-12-17-16:27:56.118133,14.0,20.0,349.0
2021-12-17-16:27:56.119130,14.0,20.0,349.0
2021-12-17-16:27:56.120127,8.0,1.0,349.0
2021-12-17-16:27:56.121156,7.0,30.0,349.0
2021-12-17-16:27:56.122122,7.0,30.0,349.0
2021-12-17-16:27:56.123119,7.0,30.0,349.0
2021-12-17-16:27:56.124144,3.0,24.0,349.0
2021-12-17-16:27:56.125114,1.0,29.0,349.0
2021-12-17-16:27:56.127109,1.0,29.0,349.0
2021-12-17-16:27:56.127109,0.0,13.0,349.0
2021-12-17-16:27:56.128107,5.0,6.0,349.0
2021-12-17-16:27:56.129104,5.0,6.0,349.0
2021-12-17-16:27:56.130101,5.0,6.0,349.0
2021-12-17-16:27:56.131098,5.0,6.0,349.0
2021-12-17-16:27:56.132095,10.0,16.0,349.0
2021-12-17-16:27:56.133093,16.0,10.0,349.0
2021-12-17-16:27:56.134090,16.0,15.0,349.0
2021-12-17-16:27:56.135088,12.0,29.0,349.0
2021-12-17-16:27:56.136085,12.0,15.0,349.0
2021-12-17-16:27:56.137083,11.0,10.0,349.0
2021-12-17-16:27:56.138080,2.0,24.0,348.0
2021-12-17-16:27:56.139077,2.0,24.0,348.0
2021-12-17-16:27:56.140075,1.0,19.0,348.0
2021-12-17-16:27:56.141072,4.0,30.0,349.0
2021-12-17-16:27:56.142069,4.0,30.0,349.0
2021-12-17-16:27:56.143067,4.0,30.0,349.0
2021-12-17-16:27:56.144064,0.0,3.0,348.0
2021-12-17-16:27:56.145061,2.0,0.0,348.0
2021-12-17-16:27:56.146058,1.0,18.0,348.0
2021-12-17-16:27:56.147056,1.0,18.0,348.0
2021-12-17-16:27:56.148053,12.0,17.0,348.0
2021-12-17-16:27:56.149051,15.0,18.0,348.0
2021-12-17-16:27:56.150047,15.0,18.0,348.0
2021-12-17-16:27:56.151045,15.0,18.0,348.0
2021-12-17-16:27:56.152043,15.0,18.0,348.0
2021-12-17-16:27:56.153041,6.0,2.0,348.0
2021-12-17-16:27:56.154037,3.0,9.0,348.0
2021-12-17-16:27:56.155034,2.0,11.0,348.0
2021-12-17-16:27:56.156031,2.0,11.0,348.0
2021-12-17-16:27:56.157029,0.0,22.0,349.0
2021-12-17-16:27:56.158026,2.0,14.0,349.0
2021-12-17-16:27:56.159024,2.0,14.0,349.0
2021-12-17-16:27:56.161019,2.0,14.0,349.0
2021-12-17-16:27:56.161692,3.0,7.0,349.0
2021-12-17-16:27:56.161692,3.0,7.0,349.0
2021-12-17-16:27:56.162746,3.0,7.0,349.0
2021-12-17-16:27:56.163946,3.0,7.0,349.0
2021-12-17-16:27:56.163946,3.0,7.0,348.0
2021-12-17-16:27:56.165004,16.0,25.0,349.0
2021-12-17-16:27:56.165999,16.0,20.0,349.0
2021-12-17-16:27:56.166995,16.0,20.0,349.0
2021-12-17-16:27:56.167971,16.0,20.0,349.0
2021-12-17-16:27:56.168935,14.0,7.0,349.0
2021-12-17-16:27:56.169987,11.0,2.0,349.0
2021-12-17-16:27:56.170985,2.0,22.0,349.0
2021-12-17-16:27:56.171982,2.0,22.0,349.0
2021-12-17-16:27:56.172970,4.0,44.0,349.0
2021-12-17-16:27:56.173977,7.0,16.0,349.0
2021-12-17-16:27:56.174974,4.0,3.0,349.0
2021-12-17-16:27:56.175917,4.0,3.0,349.0
2021-12-17-16:27:56.176969,2.0,3.0,350.0
2021-12-17-16:27:56.177958,4.0,1.0,349.0
2021-12-17-16:27:56.178956,4.0,1.0,349.0
2021-12-17-16:27:56.179906,4.0,1.0,349.0
2021-12-17-16:27:56.180954,5.0,0.0,349.0
2021-12-17-16:27:56.181948,18.0,14.0,349.0
2021-12-17-16:27:56.182945,18.0,15.0,349.0
2021-12-17-16:27:56.183934,18.0,15.0,349.0
2021-12-17-16:27:56.184940,13.0,7.0,349.0
2021-12-17-16:27:56.185890,8.0,2.0,349.0
2021-12-17-16:27:56.186935,6.0,17.0,349.0
2021-12-17-16:27:56.187931,6.0,17.0,349.0
2021-12-17-16:27:56.188932,6.0,17.0,349.0
2021-12-17-16:27:56.189927,1.0,23.0,349.0
2021-12-17-16:27:56.190923,2.0,18.0,349.0
2021-12-17-16:27:56.191920,2.0,18.0,349.0
2021-12-17-16:27:56.192918,7.0,4.0,349.0
2021-12-17-16:27:56.194867,7.0,4.0,349.0
2021-12-17-16:27:56.194867,7.0,4.0,349.0
2021-12-17-16:27:56.195887,7.0,4.0,349.0
2021-12-17-16:27:56.196888,7.0,4.0,349.0
2021-12-17-16:27:56.197882,5.0,6.0,349.0
2021-12-17-16:27:56.198882,15.0,15.0,349.0
2021-12-17-16:27:56.199877,15.0,15.0,349.0
2021-12-17-16:27:56.200877,15.0,15.0,349.0
2021-12-17-16:27:56.201874,15.0,10.0,349.0
2021-12-17-16:27:56.202869,6.0,17.0,349.0
2021-12-17-16:27:56.203868,6.0,17.0,349.0
2021-12-17-16:27:56.204867,6.0,17.0,349.0
2021-12-17-16:27:56.205861,2.0,20.0,349.0
2021-12-17-16:27:56.206860,2.0,16.0,349.0
2021-12-17-16:27:56.207856,2.0,4.0,350.0
2021-12-17-16:27:56.208856,2.0,4.0,350.0
2021-12-17-16:27:56.209852,0.0,3.0,349.0
2021-12-17-16:27:56.210848,0.0,3.0,349.0
2021-12-17-16:27:56.211844,0.0,3.0,349.0
2021-12-17-16:27:56.212846,0.0,3.0,349.0
2021-12-17-16:27:56.213840,4.0,3.0,349.0
2021-12-17-16:27:56.214839,13.0,20.0,349.0
2021-12-17-16:27:56.215833,13.0,20.0,349.0
2021-12-17-16:27:56.216807,13.0,20.0,349.0
2021-12-17-16:27:56.217831,15.0,7.0,349.0
2021-12-17-16:27:56.218802,12.0,8.0,349.0
2021-12-17-16:27:56.219841,7.0,4.0,349.0
2021-12-17-16:27:56.220799,7.0,4.0,349.0
2021-12-17-16:27:56.221818,1.0,13.0,349.0
2021-12-17-16:27:56.222823,4.0,7.0,349.0
2021-12-17-16:27:56.223815,2.0,6.0,349.0
2021-12-17-16:27:56.224813,2.0,6.0,349.0
2021-12-17-16:27:56.225810,2.0,6.0,349.0
2021-12-17-16:27:56.227779,4.0,32.0,349.0
2021-12-17-16:27:56.227779,4.0,32.0,349.0
2021-12-17-16:27:56.228803,4.0,32.0,349.0
2021-12-17-16:27:56.229796,4.0,32.0,349.0
2021-12-17-16:27:56.230797,1.0,21.0,349.0
2021-12-17-16:27:56.231791,12.0,15.0,349.0
2021-12-17-16:27:56.232789,19.0,24.0,349.0
2021-12-17-16:27:56.233789,19.0,24.0,349.0
2021-12-17-16:27:56.234787,12.0,20.0,349.0
2021-12-17-16:27:56.235804,1.0,16.0,349.0
2021-12-17-16:27:56.236781,1.0,16.0,349.0
2021-12-17-16:27:56.237776,1.0,16.0,349.0
2021-12-17-16:27:56.238790,2.0,19.0,349.0
2021-12-17-16:27:56.239854,0.0,9.0,349.0
2021-12-17-16:27:56.239854,0.0,9.0,349.0
2021-12-17-16:27:56.240908,0.0,9.0,349.0
2021-12-17-16:27:56.241906,0.0,9.0,349.0
2021-12-17-16:27:56.243233,1.0,18.0,349.0
2021-12-17-16:27:56.243233,1.0,21.0,349.0
2021-12-17-16:27:56.244257,3.0,10.0,349.0
2021-12-17-16:27:56.245254,3.0,10.0,349.0
2021-12-17-16:27:56.246254,5.0,1.0,349.0
2021-12-17-16:27:56.247225,12.0,26.0,349.0
2021-12-17-16:27:56.248268,11.0,29.0,349.0
2021-12-17-16:27:56.249219,11.0,29.0,349.0
2021-12-17-16:27:56.250240,11.0,29.0,349.0
2021-12-17-16:27:56.251240,10.0,29.0,349.0
2021-12-17-16:27:56.252230,12.0,32.0,349.0
2021-12-17-16:27:56.253234,4.0,5.0,349.0
2021-12-17-16:27:56.254232,4.0,5.0,349.0
2021-12-17-16:27:56.255227,5.0,30.0,349.0
2021-12-17-16:27:56.256227,0.0,20.0,349.0
2021-12-17-16:27:56.257222,0.0,20.0,349.0
2021-12-17-16:27:56.258220,0.0,20.0,349.0
2021-12-17-16:27:56.259224,3.0,14.0,349.0
2021-12-17-16:27:56.260216,5.0,17.0,349.0
2021-12-17-16:27:56.262184,5.0,17.0,349.0
2021-12-17-16:27:56.262184,5.0,17.0,349.0
2021-12-17-16:27:56.263239,6.0,22.0,349.0
2021-12-17-16:27:56.264235,13.0,17.0,349.0
2021-12-17-16:27:56.265224,13.0,17.0,349.0
2021-12-17-16:27:56.266219,13.0,17.0,349.0
2021-12-17-16:27:56.267217,15.0,38.0,349.0
2021-12-17-16:27:56.268215,13.0,26.0,349.0
2021-12-17-16:27:56.269171,4.0,6.0,349.0
2021-12-17-16:27:56.270211,4.0,6.0,349.0
2021-12-17-16:27:56.271210,2.0,19.0,349.0
2021-12-17-16:27:56.272158,0.0,21.0,348.0
2021-12-17-16:27:56.273155,2.0,19.0,349.0
2021-12-17-16:27:56.274153,2.0,19.0,349.0
2021-12-17-16:27:56.275195,1.0,22.0,349.0
2021-12-17-16:27:56.276193,0.0,15.0,349.0
2021-12-17-16:27:56.277169,2.0,9.0,349.0
2021-12-17-16:27:56.278141,2.0,9.0,349.0
2021-12-17-16:27:56.279164,6.0,9.0,349.0
2021-12-17-16:27:56.280163,13.0,20.0,349.0
2021-12-17-16:27:56.281159,13.0,20.0,349.0
2021-12-17-16:27:56.282159,13.0,20.0,349.0
2021-12-17-16:27:56.283155,15.0,12.0,349.0
2021-12-17-16:27:56.284153,13.0,21.0,349.0
2021-12-17-16:27:56.285149,11.0,12.0,349.0
2021-12-17-16:27:56.286150,11.0,12.0,349.0
2021-12-17-16:27:56.287144,11.0,12.0,349.0
2021-12-17-16:27:56.288141,1.0,11.0,349.0
2021-12-17-16:27:56.289139,5.0,31.0,349.0
2021-12-17-16:27:56.290137,3.0,26.0,349.0
2021-12-17-16:27:56.291134,3.0,26.0,349.0
2021-12-17-16:27:56.292105,1.0,23.0,349.0
2021-12-17-16:27:56.293126,3.0,22.0,349.0
2021-12-17-16:27:56.294126,3.0,22.0,349.0
2021-12-17-16:27:56.295121,3.0,22.0,349.0
2021-12-17-16:27:56.296122,5.0,7.0,349.0
2021-12-17-16:27:56.298090,12.0,18.0,349.0
2021-12-17-16:27:56.298090,12.0,18.0,349.0
2021-12-17-16:27:56.299113,12.0,18.0,349.0
2021-12-17-16:27:56.300107,14.0,20.0,349.0
2021-12-17-16:27:56.301225,12.0,2.0,349.0
2021-12-17-16:27:56.301225,12.0,2.0,349.0
2021-12-17-16:27:56.302226,12.0,2.0,349.0
2021-12-17-16:27:56.303394,12.0,2.0,349.0
2021-12-17-16:27:56.303394,4.0,5.0,349.0
2021-12-17-16:27:56.304418,4.0,5.0,349.0
2021-12-17-16:27:56.305447,1.0,17.0,349.0
2021-12-17-16:27:56.306395,1.0,17.0,349.0
2021-12-17-16:27:56.307413,1.0,17.0,349.0
2021-12-17-16:27:56.308409,1.0,2.0,349.0
2021-12-17-16:27:56.309404,1.0,1.0,349.0
2021-12-17-16:27:56.310462,3.0,0.0,349.0
2021-12-17-16:27:56.310462,3.0,0.0,349.0
2021-12-17-16:27:56.311517,3.0,0.0,349.0
2021-12-17-16:27:56.312493,4.0,6.0,349.0
2021-12-17-16:27:56.313511,11.0,2.0,349.0
2021-12-17-16:27:56.314550,11.0,2.0,349.0
2021-12-17-16:27:56.314550,11.0,2.0,349.0
2021-12-17-16:27:56.315800,11.0,2.0,349.0
2021-12-17-16:27:56.315800,9.0,14.0,349.0
2021-12-17-16:27:56.316825,9.0,14.0,349.0
2021-12-17-16:27:56.317821,10.0,11.0,349.0
2021-12-17-16:27:56.318860,10.0,11.0,349.0
2021-12-17-16:27:56.318860,10.0,11.0,349.0
2021-12-17-16:27:56.320182,10.0,11.0,349.0
2021-12-17-16:27:56.320182,0.0,26.0,349.0
2021-12-17-16:27:56.321208,0.0,26.0,349.0
2021-12-17-16:27:56.322209,0.0,26.0,349.0
2021-12-17-16:27:56.323207,0.0,26.0,349.0
2021-12-17-16:27:56.324200,2.0,12.0,349.0
2021-12-17-16:27:56.325196,3.0,2.0,349.0
2021-12-17-16:27:56.326168,2.0,6.0,349.0
2021-12-17-16:27:56.327201,2.0,6.0,349.0
2021-12-17-16:27:56.328188,6.0,23.0,349.0
2021-12-17-16:27:56.329207,8.0,9.0,349.0
2021-12-17-16:27:56.331156,8.0,9.0,349.0
2021-12-17-16:27:56.331156,8.0,9.0,349.0
2021-12-17-16:27:56.332180,14.0,1.0,349.0
2021-12-17-16:27:56.333173,11.0,10.0,349.0
2021-12-17-16:27:56.334171,11.0,10.0,349.0
2021-12-17-16:27:56.335171,11.0,10.0,349.0
2021-12-17-16:27:56.336142,11.0,10.0,349.0
2021-12-17-16:27:56.337186,11.0,21.0,349.0
2021-12-17-16:27:56.338187,4.0,8.0,349.0
2021-12-17-16:27:56.339135,4.0,14.0,349.0
2021-12-17-16:27:56.340133,4.0,14.0,349.0
2021-12-17-16:27:56.341129,3.0,8.0,349.0
2021-12-17-16:27:56.342151,0.0,8.0,349.0
2021-12-17-16:27:56.343150,0.0,8.0,349.0
2021-12-17-16:27:56.344149,0.0,8.0,349.0
2021-12-17-16:27:56.345145,4.0,4.0,349.0
2021-12-17-16:27:56.346141,5.0,0.0,349.0
2021-12-17-16:27:56.347138,5.0,0.0,349.0
2021-12-17-16:27:56.348136,5.0,0.0,349.0
2021-12-17-16:27:56.349134,13.0,15.0,349.0
2021-12-17-16:27:56.350131,13.0,19.0,349.0
2021-12-17-16:27:56.351130,13.0,13.0,349.0
2021-12-17-16:27:56.352099,13.0,13.0,349.0
2021-12-17-16:27:56.353125,0.0,23.0,349.0
2021-12-17-16:27:56.354119,5.0,22.0,349.0
2021-12-17-16:27:56.355148,5.0,22.0,349.0
2021-12-17-16:27:56.356088,5.0,22.0,349.0
2021-12-17-16:27:56.357132,2.0,17.0,349.0
2021-12-17-16:27:56.358132,2.0,16.0,349.0
2021-12-17-16:27:56.359129,1.0,3.0,349.0
2021-12-17-16:27:56.360090,1.0,3.0,349.0
2021-12-17-16:27:56.361121,3.0,12.0,349.0
2021-12-17-16:27:56.362100,3.0,3.0,348.0
2021-12-17-16:27:56.363117,3.0,3.0,348.0
2021-12-17-16:27:56.365066,3.0,3.0,348.0
2021-12-17-16:27:56.365066,13.0,6.0,349.0
2021-12-17-16:27:56.366189,13.0,6.0,349.0
2021-12-17-16:27:56.366189,13.0,6.0,349.0
2021-12-17-16:27:56.367244,13.0,6.0,349.0
2021-12-17-16:27:56.368241,13.0,6.0,349.0
2021-12-17-16:27:56.369191,13.0,6.0,349.0
2021-12-17-16:27:56.370420,8.0,21.0,349.0
2021-12-17-16:27:56.370558,0.0,29.0,349.0
2021-12-17-16:27:56.370558,0.0,29.0,349.0
2021-12-17-16:27:56.371591,0.0,29.0,349.0
2021-12-17-16:27:56.372784,0.0,29.0,349.0
2021-12-17-16:27:56.372784,2.0,23.0,349.0
2021-12-17-16:27:56.373807,3.0,16.0,349.0
2021-12-17-16:27:56.374808,3.0,6.0,349.0
2021-12-17-16:27:56.375802,3.0,6.0,349.0
2021-12-17-16:27:56.376801,3.0,6.0,349.0
2021-12-17-16:27:56.377796,3.0,2.0,349.0
2021-12-17-16:27:56.378794,2.0,2.0,349.0
2021-12-17-16:27:56.379794,2.0,2.0,349.0
2021-12-17-16:27:56.380788,2.0,2.0,349.0
2021-12-17-16:27:56.381786,5.0,10.0,349.0
2021-12-17-16:27:56.382787,14.0,26.0,350.0
2021-12-17-16:27:56.383780,10.0,14.0,349.0
2021-12-17-16:27:56.384754,10.0,14.0,349.0
2021-12-17-16:27:56.385773,11.0,12.0,349.0
2021-12-17-16:27:56.386775,1.0,37.0,349.0
2021-12-17-16:27:56.387792,1.0,37.0,349.0
2021-12-17-16:27:56.388744,1.0,37.0,349.0
2021-12-17-16:27:56.389787,3.0,28.0,349.0
2021-12-17-16:27:56.390788,1.0,20.0,349.0
2021-12-17-16:27:56.391783,2.0,10.0,350.0
2021-12-17-16:27:56.392778,2.0,10.0,350.0
2021-12-17-16:27:56.393776,1.0,7.0,349.0
2021-12-17-16:27:56.394774,2.0,1.0,350.0
2021-12-17-16:27:56.395771,3.0,6.0,349.0
2021-12-17-16:27:56.397721,3.0,6.0,349.0
2021-12-17-16:27:56.397721,12.0,31.0,349.0
2021-12-17-16:27:56.398744,15.0,22.0,349.0
2021-12-17-16:27:56.399745,15.0,22.0,349.0
2021-12-17-16:27:56.400737,15.0,22.0,349.0
2021-12-17-16:27:56.401733,15.0,22.0,349.0
2021-12-17-16:27:56.402706,10.0,4.0,349.0
2021-12-17-16:27:56.403730,1.0,17.0,349.0
2021-12-17-16:27:56.404725,1.0,17.0,349.0
2021-12-17-16:27:56.405722,1.0,17.0,349.0
2021-12-17-16:27:56.406724,1.0,26.0,349.0
2021-12-17-16:27:56.407717,2.0,20.0,349.0
2021-12-17-16:27:56.408716,2.0,14.0,349.0
2021-12-17-16:27:56.409711,2.0,14.0,349.0
2021-12-17-16:27:56.410708,1.0,12.0,349.0
2021-12-17-16:27:56.411708,0.0,9.0,349.0
2021-12-17-16:27:56.412703,0.0,9.0,349.0
2021-12-17-16:27:56.413701,0.0,9.0,349.0
2021-12-17-16:27:56.414702,15.0,13.0,349.0
2021-12-17-16:27:56.415697,16.0,14.0,349.0
2021-12-17-16:27:56.416716,16.0,14.0,349.0
2021-12-17-16:27:56.417712,16.0,14.0,349.0
2021-12-17-16:27:56.418716,14.0,14.0,349.0
2021-12-17-16:27:56.419695,11.0,8.0,349.0
2021-12-17-16:27:56.420683,2.0,5.0,349.0
2021-12-17-16:27:56.421655,2.0,5.0,349.0
2021-12-17-16:27:56.422681,1.0,5.0,349.0
2021-12-17-16:27:56.423764,2.0,16.0,349.0
2021-12-17-16:27:56.423764,2.0,16.0,349.0
2021-12-17-16:27:56.424798,2.0,16.0,349.0
2021-12-17-16:27:56.425989,2.0,16.0,349.0
2021-12-17-16:27:56.425989,3.0,28.0,349.0
2021-12-17-16:27:56.427013,1.0,20.0,349.0
2021-12-17-16:27:56.428015,2.0,18.0,349.0
2021-12-17-16:27:56.429008,2.0,18.0,349.0
2021-12-17-16:27:56.430008,2.0,18.0,349.0
2021-12-17-16:27:56.432022,5.0,12.0,349.0
2021-12-17-16:27:56.432628,11.0,25.0,349.0
2021-12-17-16:27:56.432628,11.0,25.0,349.0
2021-12-17-16:27:56.433684,11.0,25.0,349.0
2021-12-17-16:27:56.434937,11.0,25.0,349.0
2021-12-17-16:27:56.435077,12.0,6.0,349.0
2021-12-17-16:27:56.435077,4.0,12.0,349.0
2021-12-17-16:27:56.436077,4.0,12.0,349.0
2021-12-17-16:27:56.437124,4.0,12.0,349.0
2021-12-17-16:27:56.438119,4.0,12.0,349.0
2021-12-17-16:27:56.439294,2.0,25.0,349.0
2021-12-17-16:27:56.439294,3.0,31.0,349.0
2021-12-17-16:27:56.440423,2.0,16.0,349.0
2021-12-17-16:27:56.440423,2.0,16.0,349.0
2021-12-17-16:27:56.441469,2.0,16.0,349.0
2021-12-17-16:27:56.442470,2.0,16.0,349.0
2021-12-17-16:27:56.443638,1.0,6.0,349.0
2021-12-17-16:27:56.443638,2.0,7.0,349.0
2021-12-17-16:27:56.444684,2.0,0.0,349.0
2021-12-17-16:27:56.445681,2.0,0.0,349.0
2021-12-17-16:27:56.446669,2.0,0.0,349.0
2021-12-17-16:27:56.447655,2.0,4.0,348.0
2021-12-17-16:27:56.448673,12.0,16.0,349.0
2021-12-17-16:27:56.449671,12.0,14.0,349.0
2021-12-17-16:27:56.450668,12.0,14.0,349.0
2021-12-17-16:27:56.451665,17.0,9.0,349.0
2021-12-17-16:27:56.452626,8.0,12.0,349.0
2021-12-17-16:27:56.453747,6.0,9.0,349.0
2021-12-17-16:27:56.453747,6.0,9.0,349.0
2021-12-17-16:27:56.454957,6.0,9.0,349.0
2021-12-17-16:27:56.454957,1.0,12.0,349.0
2021-12-17-16:27:56.456003,1.0,33.0,349.0
2021-12-17-16:27:56.457002,1.0,17.0,349.0
2021-12-17-16:27:56.458001,1.0,17.0,349.0
2021-12-17-16:27:56.458995,1.0,17.0,349.0
2021-12-17-16:27:56.459993,3.0,12.0,349.0
2021-12-17-16:27:56.460990,2.0,3.0,349.0
2021-12-17-16:27:56.461968,1.0,2.0,349.0
2021-12-17-16:27:56.462985,1.0,2.0,349.0
2021-12-17-16:27:56.464934,8.0,17.0,349.0
2021-12-17-16:27:56.464934,15.0,29.0,349.0
2021-12-17-16:27:56.465980,15.0,29.0,349.0
2021-12-17-16:27:56.466974,15.0,29.0,349.0
2021-12-17-16:27:56.467972,18.0,12.0,349.0
2021-12-17-16:27:56.468970,11.0,2.0,349.0
2021-12-17-16:27:56.470060,4.0,19.0,349.0
2021-12-17-16:27:56.470060,4.0,19.0,349.0
2021-12-17-16:27:56.471108,4.0,19.0,349.0
2021-12-17-16:27:56.472236,1.0,27.0,349.0
2021-12-17-16:27:56.472236,2.0,18.0,349.0
2021-12-17-16:27:56.473313,3.0,20.0,349.0
2021-12-17-16:27:56.473313,3.0,20.0,349.0
2021-12-17-16:27:56.474359,3.0,20.0,349.0
2021-12-17-16:27:56.475356,3.0,20.0,349.0
2021-12-17-16:27:56.476353,5.0,17.0,349.0
2021-12-17-16:27:56.477351,3.0,3.0,349.0
2021-12-17-16:27:56.478637,2.0,9.0,349.0
2021-12-17-16:27:56.478637,2.0,9.0,349.0
2021-12-17-16:27:56.479662,10.0,7.0,349.0
2021-12-17-16:27:56.480786,15.0,10.0,349.0
2021-12-17-16:27:56.480786,15.0,10.0,349.0
2021-12-17-16:27:56.481832,15.0,10.0,349.0
2021-12-17-16:27:56.482833,15.0,10.0,349.0
2021-12-17-16:27:56.483827,15.0,10.0,349.0
2021-12-17-16:27:56.484989,15.0,8.0,349.0
2021-12-17-16:27:56.484989,11.0,24.0,349.0
2021-12-17-16:27:56.486001,7.0,9.0,349.0
2021-12-17-16:27:56.487038,7.0,9.0,349.0
2021-12-17-16:27:56.488030,2.0,9.0,350.0
2021-12-17-16:27:56.489027,2.0,11.0,349.0
2021-12-17-16:27:56.490115,3.0,9.0,349.0
2021-12-17-16:27:56.490115,3.0,9.0,349.0
2021-12-17-16:27:56.491162,3.0,9.0,349.0
2021-12-17-16:27:56.492159,1.0,15.0,349.0
2021-12-17-16:27:56.493323,3.0,22.0,349.0
2021-12-17-16:27:56.493323,0.0,35.0,349.0
2021-12-17-16:27:56.494371,3.0,9.0,349.0
2021-12-17-16:27:56.495320,3.0,9.0,349.0
2021-12-17-16:27:56.497316,10.0,6.0,349.0
2021-12-17-16:27:56.497316,14.0,5.0,349.0
2021-12-17-16:27:56.498465,14.0,5.0,349.0
2021-12-17-16:27:56.498465,14.0,5.0,349.0
2021-12-17-16:27:56.499688,14.0,5.0,349.0
2021-12-17-16:27:56.499688,17.0,14.0,349.0
2021-12-17-16:27:56.500735,10.0,2.0,349.0
2021-12-17-16:27:56.501734,8.0,6.0,349.0
2021-12-17-16:27:56.502698,8.0,6.0,349.0
2021-12-17-16:27:56.503727,8.0,6.0,349.0
2021-12-17-16:27:56.504723,0.0,29.0,349.0
2021-12-17-16:27:56.505724,4.0,26.0,349.0
2021-12-17-16:27:56.506718,4.0,16.0,349.0
2021-12-17-16:27:56.507669,4.0,16.0,349.0
2021-12-17-16:27:56.508693,1.0,5.0,350.0
2021-12-17-16:27:56.509713,3.0,5.0,349.0
2021-12-17-16:27:56.510707,3.0,5.0,349.0
2021-12-17-16:27:56.511663,3.0,5.0,349.0
2021-12-17-16:27:56.512708,11.0,17.0,349.0
2021-12-17-16:27:56.513699,11.0,17.0,349.0
2021-12-17-16:27:56.514696,11.0,17.0,349.0
2021-12-17-16:27:56.515694,11.0,17.0,349.0
2021-12-17-16:27:56.516693,14.0,16.0,349.0
2021-12-17-16:27:56.517692,11.0,0.0,349.0
2021-12-17-16:27:56.518686,11.0,0.0,349.0
2021-12-17-16:27:56.519689,11.0,0.0,349.0
2021-12-17-16:27:56.520681,11.0,0.0,349.0
2021-12-17-16:27:56.521678,1.0,18.0,350.0
2021-12-17-16:27:56.522675,0.0,9.0,349.0
2021-12-17-16:27:56.523675,0.0,9.0,349.0
2021-12-17-16:27:56.524651,0.0,9.0,349.0
2021-12-17-16:27:56.525647,2.0,10.0,349.0
2021-12-17-16:27:56.526666,3.0,23.0,349.0
2021-12-17-16:27:56.527663,4.0,14.0,349.0
2021-12-17-16:27:56.529657,4.0,14.0,349.0
2021-12-17-16:27:56.529657,10.0,17.0,349.0
2021-12-17-16:27:56.530727,10.0,17.0,349.0
2021-12-17-16:27:56.530727,10.0,17.0,349.0
2021-12-17-16:27:56.531774,10.0,17.0,349.0
2021-12-17-16:27:56.532771,10.0,17.0,349.0
2021-12-17-16:27:56.533935,9.0,17.0,349.0
2021-12-17-16:27:56.533935,13.0,9.0,349.0
2021-12-17-16:27:56.535065,13.0,12.0,349.0
2021-12-17-16:27:56.535065,13.0,12.0,349.0
2021-12-17-16:27:56.536066,13.0,12.0,349.0
2021-12-17-16:27:56.537110,13.0,12.0,349.0
2021-12-17-16:27:56.538107,7.0,2.0,349.0
2021-12-17-16:27:56.539327,3.0,6.0,349.0
2021-12-17-16:27:56.539327,7.0,13.0,349.0
2021-12-17-16:27:56.540339,2.0,16.0,349.0
2021-12-17-16:27:56.541372,1.0,17.0,349.0
2021-12-17-16:27:56.542372,2.0,8.0,349.0
2021-12-17-16:27:56.543366,3.0,24.0,349.0
2021-12-17-16:27:56.544364,3.0,24.0,349.0
2021-12-17-16:27:56.545362,3.0,24.0,349.0
2021-12-17-16:27:56.546359,4.0,15.0,349.0
2021-12-17-16:27:56.547356,8.0,3.0,349.0
2021-12-17-16:27:56.548357,8.0,3.0,349.0
2021-12-17-16:27:56.549350,8.0,3.0,349.0
2021-12-17-16:27:56.550348,13.0,22.0,349.0
2021-12-17-16:27:56.551345,12.0,12.0,349.0
2021-12-17-16:27:56.552349,12.0,12.0,349.0
2021-12-17-16:27:56.553320,12.0,12.0,349.0
2021-12-17-16:27:56.554617,4.0,31.0,350.0
2021-12-17-16:27:56.554743,1.0,15.0,349.0
2021-12-17-16:27:56.554743,1.0,15.0,349.0
2021-12-17-16:27:56.555793,1.0,15.0,349.0
2021-12-17-16:27:56.556767,1.0,15.0,349.0
2021-12-17-16:27:56.557787,2.0,13.0,349.0
2021-12-17-16:27:56.558949,0.0,6.0,349.0
2021-12-17-16:27:56.558949,1.0,4.0,349.0
2021-12-17-16:27:56.559996,0.0,0.0,349.0
2021-12-17-16:27:56.560946,0.0,0.0,349.0
2021-12-17-16:27:56.561991,2.0,1.0,350.0
2021-12-17-16:27:56.563939,3.0,3.0,349.0
2021-12-17-16:27:56.563939,5.0,5.0,349.0
2021-12-17-16:27:56.564967,5.0,5.0,349.0
2021-12-17-16:27:56.565980,11.0,1.0,349.0
2021-12-17-16:27:56.566977,15.0,8.0,349.0
2021-12-17-16:27:56.567974,10.0,12.0,349.0
2021-12-17-16:27:56.568972,10.0,12.0,349.0
2021-12-17-16:27:56.569948,4.0,8.0,349.0
2021-12-17-16:27:56.571064,4.0,21.0,349.0
2021-12-17-16:27:56.571064,4.0,21.0,349.0
2021-12-17-16:27:56.572075,4.0,21.0,349.0
2021-12-17-16:27:56.573219,4.0,21.0,349.0
2021-12-17-16:27:56.573219,1.0,15.0,349.0
2021-12-17-16:27:56.574268,0.0,8.0,349.0
2021-12-17-16:27:56.575263,0.0,8.0,349.0
2021-12-17-16:27:56.576261,0.0,8.0,349.0
2021-12-17-16:27:56.577211,0.0,8.0,349.0
2021-12-17-16:27:56.578256,2.0,8.0,349.0
2021-12-17-16:27:56.579255,7.0,2.0,349.0
2021-12-17-16:27:56.580251,7.0,2.0,349.0
2021-12-17-16:27:56.581248,7.0,2.0,349.0
2021-12-17-16:27:56.582246,12.0,3.0,349.0
2021-12-17-16:27:56.583242,13.0,0.0,349.0
2021-12-17-16:27:56.584240,13.0,0.0,349.0
2021-12-17-16:27:56.585242,13.0,0.0,349.0
2021-12-17-16:27:56.586187,9.0,14.0,349.0
2021-12-17-16:27:56.587233,5.0,18.0,349.0
2021-12-17-16:27:56.588229,6.0,27.0,349.0
2021-12-17-16:27:56.589227,6.0,27.0,349.0
2021-12-17-16:27:56.590225,6.0,27.0,349.0
2021-12-17-16:27:56.591221,0.0,19.0,349.0
2021-12-17-16:27:56.592218,2.0,14.0,349.0
2021-12-17-16:27:56.593217,0.0,7.0,349.0
2021-12-17-16:27:56.594214,0.0,7.0,349.0
2021-12-17-16:27:56.595212,3.0,1.0,349.0
2021-12-17-16:27:56.597206,6.0,9.0,349.0
2021-12-17-16:27:56.597206,6.0,9.0,349.0
2021-12-17-16:27:56.598204,6.0,9.0,349.0
2021-12-17-16:27:56.599200,13.0,17.0,349.0
2021-12-17-16:27:56.600197,16.0,18.0,349.0
2021-12-17-16:27:56.601194,16.0,18.0,349.0
2021-12-17-16:27:56.602192,16.0,18.0,349.0
2021-12-17-16:27:56.603191,9.0,2.0,349.0
2021-12-17-16:27:56.604186,4.0,37.0,349.0
2021-12-17-16:27:56.605184,5.0,48.0,349.0
2021-12-17-16:27:56.606182,5.0,48.0,349.0
2021-12-17-16:27:56.607178,3.0,30.0,349.0
2021-12-17-16:27:56.608178,1.0,8.0,349.0
2021-12-17-16:27:56.609173,2.0,9.0,349.0
2021-12-17-16:27:56.610123,2.0,9.0,349.0
2021-12-17-16:27:56.611169,1.0,3.0,349.0
2021-12-17-16:27:56.612165,2.0,1.0,349.0
2021-12-17-16:27:56.613163,3.0,4.0,349.0
2021-12-17-16:27:56.614112,3.0,4.0,349.0
2021-12-17-16:27:56.615158,13.0,26.0,349.0
2021-12-17-16:27:56.616154,15.0,19.0,349.0
2021-12-17-16:27:56.617151,15.0,19.0,349.0
2021-12-17-16:27:56.618148,15.0,19.0,349.0
2021-12-17-16:27:56.619099,10.0,14.0,349.0
2021-12-17-16:27:56.620144,2.0,4.0,349.0
2021-12-17-16:27:56.621146,1.0,7.0,349.0
2021-12-17-16:27:56.622139,1.0,7.0,349.0
2021-12-17-16:27:56.623136,1.0,7.0,349.0
2021-12-17-16:27:56.624133,3.0,16.0,349.0
2021-12-17-16:27:56.625130,1.0,29.0,349.0
2021-12-17-16:27:56.626127,1.0,29.0,349.0
2021-12-17-16:27:56.627127,1.0,29.0,349.0
2021-12-17-16:27:56.628124,1.0,29.0,349.0
2021-12-17-16:27:56.629125,2.0,29.0,349.0
2021-12-17-16:27:56.630070,2.0,29.0,349.0
2021-12-17-16:27:56.631067,2.0,29.0,349.0
2021-12-17-16:27:56.633088,16.0,32.0,349.0
2021-12-17-16:27:56.633088,16.0,32.0,349.0
2021-12-17-16:27:56.634060,16.0,32.0,349.0
2021-12-17-16:27:56.635057,16.0,32.0,349.0
2021-12-17-16:27:56.636081,14.0,27.0,349.0
2021-12-17-16:27:56.637077,11.0,18.0,350.0
2021-12-17-16:27:56.638074,1.0,10.0,349.0
2021-12-17-16:27:56.639073,1.0,10.0,349.0
2021-12-17-16:27:56.640069,3.0,29.0,349.0
2021-12-17-16:27:56.641066,1.0,31.0,349.0
2021-12-17-16:27:56.642064,0.0,22.0,349.0
2021-12-17-16:27:56.643061,0.0,22.0,349.0
2021-12-17-16:27:56.644058,0.0,27.0,349.0
2021-12-17-16:27:56.645056,1.0,12.0,349.0
2021-12-17-16:27:56.646053,6.0,7.0,349.0
2021-12-17-16:27:56.647052,6.0,7.0,349.0
2021-12-17-16:27:56.648048,12.0,15.0,349.0
2021-12-17-16:27:56.649044,15.0,18.0,349.0
2021-12-17-16:27:56.650045,15.0,18.0,349.0
2021-12-17-16:27:56.651014,15.0,18.0,349.0
2021-12-17-16:27:56.652057,11.0,11.0,349.0
2021-12-17-16:27:56.653009,4.0,10.0,349.0
2021-12-17-16:27:56.654007,4.0,10.0,349.0
2021-12-17-16:27:56.655006,4.0,10.0,349.0
2021-12-17-16:27:56.656002,0.0,16.0,349.0
2021-12-17-16:27:56.656999,3.0,7.0,349.0
2021-12-17-16:27:56.658030,3.0,7.0,349.0
2021-12-17-16:27:56.659020,3.0,7.0,349.0
2021-12-17-16:27:56.660037,3.0,7.0,349.0
2021-12-17-16:27:56.661034,1.0,4.0,348.0
2021-12-17-16:27:56.662033,4.0,7.0,349.0
2021-12-17-16:27:56.663028,4.0,7.0,349.0
2021-12-17-16:27:56.664026,4.0,7.0,349.0
2021-12-17-16:27:56.665004,13.0,4.0,349.0
2021-12-17-16:27:56.666972,12.0,8.0,348.0
2021-12-17-16:27:56.666972,12.0,8.0,348.0
2021-12-17-16:27:56.667993,13.0,17.0,349.0
2021-12-17-16:27:56.668990,13.0,4.0,349.0
2021-12-17-16:27:56.669963,6.0,15.0,349.0
2021-12-17-16:27:56.670990,6.0,15.0,349.0
2021-12-17-16:27:56.671990,6.0,15.0,349.0
2021-12-17-16:27:56.672988,2.0,15.0,349.0
2021-12-17-16:27:56.673978,1.0,23.0,349.0
2021-12-17-16:27:56.674975,1.0,27.0,349.0
2021-12-17-16:27:56.675974,1.0,27.0,349.0
2021-12-17-16:27:56.676970,2.0,17.0,349.0
2021-12-17-16:27:56.677967,0.0,14.0,349.0
2021-12-17-16:27:56.678967,5.0,11.0,349.0
2021-12-17-16:27:56.679962,5.0,11.0,349.0
2021-12-17-16:27:56.680958,9.0,17.0,349.0
2021-12-17-16:27:56.681961,14.0,27.0,349.0
2021-12-17-16:27:56.682954,14.0,27.0,349.0
2021-12-17-16:27:56.683951,14.0,27.0,349.0
2021-12-17-16:27:56.684949,13.0,17.0,349.0
2021-12-17-16:27:56.685921,9.0,11.0,349.0
2021-12-17-16:27:56.686945,2.0,20.0,349.0
2021-12-17-16:27:56.687915,2.0,20.0,349.0
2021-12-17-16:27:56.688938,3.0,34.0,349.0
2021-12-17-16:27:56.689936,2.0,27.0,349.0
2021-12-17-16:27:56.691019,3.0,11.0,349.0
2021-12-17-16:27:56.691019,3.0,11.0,349.0
2021-12-17-16:27:56.692046,3.0,11.0,349.0
2021-12-17-16:27:56.693216,0.0,2.0,349.0
2021-12-17-16:27:56.693216,1.0,2.0,349.0
2021-12-17-16:27:56.694242,7.0,6.0,349.0
2021-12-17-16:27:56.695239,7.0,6.0,349.0
2021-12-17-16:27:56.696237,7.0,6.0,349.0
2021-12-17-16:27:56.698206,13.0,39.0,349.0
2021-12-17-16:27:56.698206,12.0,46.0,349.0
2021-12-17-16:27:56.699249,12.0,46.0,349.0
2021-12-17-16:27:56.700200,12.0,46.0,349.0
2021-12-17-16:27:56.701244,10.0,35.0,349.0
2021-12-17-16:27:56.702241,10.0,1.0,349.0
2021-12-17-16:27:56.703217,1.0,34.0,349.0
2021-12-17-16:27:56.704189,1.0,34.0,349.0
2021-12-17-16:27:56.705213,3.0,38.0,349.0
2021-12-17-16:27:56.706210,4.0,19.0,349.0
2021-12-17-16:27:56.707207,3.0,39.0,349.0
2021-12-17-16:27:56.708222,3.0,39.0,349.0
2021-12-17-16:27:56.709202,1.0,17.0,349.0
2021-12-17-16:27:56.710200,7.0,11.0,349.0
2021-12-17-16:27:56.711196,4.0,24.0,349.0
2021-12-17-16:27:56.712193,4.0,24.0,349.0
2021-12-17-16:27:56.713191,4.0,24.0,349.0
2021-12-17-16:27:56.714187,8.0,18.0,349.0
2021-12-17-16:27:56.715206,19.0,13.0,349.0
2021-12-17-16:27:56.716207,19.0,13.0,349.0
2021-12-17-16:27:56.717201,19.0,13.0,349.0
2021-12-17-16:27:56.718204,13.0,13.0,349.0
2021-12-17-16:27:56.719175,9.0,4.0,349.0
2021-12-17-16:27:56.720178,6.0,4.0,349.0
2021-12-17-16:27:56.721192,6.0,4.0,349.0
2021-12-17-16:27:56.722188,4.0,11.0,349.0
2021-12-17-16:27:56.723185,0.0,19.0,349.0
2021-12-17-16:27:56.724186,1.0,10.0,349.0
2021-12-17-16:27:56.725180,1.0,10.0,349.0
2021-12-17-16:27:56.726177,2.0,8.0,349.0
2021-12-17-16:27:56.727154,4.0,2.0,349.0
2021-12-17-16:27:56.728172,4.0,2.0,349.0
2021-12-17-16:27:56.729169,4.0,2.0,349.0
2021-12-17-16:27:56.731165,0.0,3.0,349.0
2021-12-17-16:27:56.732044,13.0,9.0,349.0
2021-12-17-16:27:56.732044,13.0,9.0,349.0
2021-12-17-16:27:56.733240,13.0,9.0,349.0
2021-12-17-16:27:56.733240,15.0,2.0,349.0
2021-12-17-16:27:56.734286,11.0,5.0,350.0
2021-12-17-16:27:56.735283,6.0,8.0,349.0
2021-12-17-16:27:56.736234,6.0,8.0,349.0
2021-12-17-16:27:56.737277,6.0,8.0,349.0
2021-12-17-16:27:56.738278,1.0,10.0,349.0
2021-12-17-16:27:56.739271,2.0,13.0,350.0
2021-12-17-16:27:56.740271,1.0,7.0,349.0
2021-12-17-16:27:56.741267,1.0,7.0,349.0
2021-12-17-16:27:56.742219,6.0,2.0,349.0
2021-12-17-16:27:56.743240,3.0,0.0,349.0
2021-12-17-16:27:56.744237,3.0,0.0,349.0
2021-12-17-16:27:56.745210,3.0,0.0,349.0
2021-12-17-16:27:56.746231,4.0,2.0,349.0
2021-12-17-16:27:56.747228,13.0,13.0,349.0
2021-12-17-16:27:56.748227,13.0,13.0,349.0
2021-12-17-16:27:56.749214,13.0,13.0,349.0
2021-12-17-16:27:56.750223,15.0,22.0,349.0
2021-12-17-16:27:56.751218,13.0,17.0,349.0
2021-12-17-16:27:56.752215,8.0,2.0,349.0
2021-12-17-16:27:56.753214,8.0,2.0,349.0
2021-12-17-16:27:56.754210,5.0,18.0,349.0
2021-12-17-16:27:56.755320,2.0,16.0,350.0
2021-12-17-16:27:56.755320,2.0,16.0,350.0
2021-12-17-16:27:56.756351,2.0,16.0,350.0
2021-12-17-16:27:56.757356,2.0,16.0,350.0
2021-12-17-16:27:56.758347,0.0,10.0,349.0
2021-12-17-16:27:56.759343,2.0,12.0,349.0
2021-12-17-16:27:56.760344,2.0,9.0,349.0
2021-12-17-16:27:56.761339,2.0,9.0,349.0
2021-12-17-16:27:56.762335,2.0,9.0,349.0
2021-12-17-16:27:56.763334,9.0,14.0,349.0
2021-12-17-16:27:56.764330,9.0,14.0,349.0
2021-12-17-16:27:56.765327,9.0,14.0,349.0
2021-12-17-16:27:56.766331,13.0,7.0,349.0
2021-12-17-16:27:56.768322,13.0,7.0,349.0
2021-12-17-16:27:56.768322,14.0,1.0,349.0
2021-12-17-16:27:56.769289,14.0,1.0,349.0
2021-12-17-16:27:56.770314,14.0,1.0,349.0
2021-12-17-16:27:56.771304,4.0,13.0,349.0
2021-12-17-16:27:56.772334,3.0,8.0,349.0
2021-12-17-16:27:56.773298,3.0,8.0,349.0
2021-12-17-16:27:56.774300,3.0,8.0,349.0
2021-12-17-16:27:56.775293,1.0,2.0,349.0
2021-12-17-16:27:56.776293,2.0,3.0,349.0
2021-12-17-16:27:56.777287,2.0,3.0,349.0
2021-12-17-16:27:56.778285,2.0,3.0,349.0
2021-12-17-16:27:56.779283,2.0,3.0,349.0
2021-12-17-16:27:56.780279,7.0,3.0,349.0
2021-12-17-16:27:56.781276,7.0,3.0,349.0
2021-12-17-16:27:56.782275,7.0,3.0,349.0
2021-12-17-16:27:56.783271,13.0,3.0,349.0
2021-12-17-16:27:56.784271,13.0,3.0,349.0
2021-12-17-16:27:56.785266,13.0,3.0,349.0
2021-12-17-16:27:56.786239,13.0,3.0,349.0
2021-12-17-16:27:56.787262,9.0,9.0,349.0
2021-12-17-16:27:56.788258,3.0,30.0,349.0
2021-12-17-16:27:56.789255,3.0,30.0,349.0
2021-12-17-16:27:56.790228,3.0,30.0,349.0
2021-12-17-16:27:56.791230,3.0,30.0,349.0
2021-12-17-16:27:56.792222,1.0,13.0,350.0
2021-12-17-16:27:56.793222,1.0,13.0,350.0
2021-12-17-16:27:56.794218,1.0,13.0,350.0
2021-12-17-16:27:56.795214,1.0,13.0,350.0
2021-12-17-16:27:56.796213,3.0,19.0,349.0
2021-12-17-16:27:56.797210,3.0,11.0,349.0
2021-12-17-16:27:56.798207,3.0,11.0,349.0
2021-12-17-16:27:56.799204,3.0,11.0,349.0
2021-12-17-16:27:56.801199,12.0,14.0,349.0
2021-12-17-16:27:56.801199,12.0,14.0,349.0
2021-12-17-16:27:56.802198,12.0,14.0,349.0
2021-12-17-16:27:56.803193,12.0,14.0,349.0
2021-12-17-16:27:56.804191,2.0,27.0,349.0
2021-12-17-16:27:56.805277,2.0,27.0,349.0
2021-12-17-16:27:56.805424,2.0,27.0,349.0
2021-12-17-16:27:56.805424,2.0,27.0,349.0
2021-12-17-16:27:56.806424,2.0,27.0,349.0
2021-12-17-16:27:56.807457,3.0,23.0,349.0
2021-12-17-16:27:56.808451,0.0,16.0,349.0
2021-12-17-16:27:56.809450,0.0,16.0,349.0
2021-12-17-16:27:56.810445,0.0,16.0,349.0
2021-12-17-16:27:56.811444,0.0,16.0,349.0
2021-12-17-16:27:56.812442,3.0,10.0,349.0
2021-12-17-16:27:56.813438,11.0,7.0,349.0
2021-12-17-16:27:56.814435,11.0,7.0,349.0
2021-12-17-16:27:56.815436,11.0,7.0,349.0
2021-12-17-16:27:56.816430,15.0,6.0,349.0
2021-12-17-16:27:56.817429,15.0,6.0,349.0
2021-12-17-16:27:56.818424,15.0,6.0,349.0
2021-12-17-16:27:56.819389,15.0,6.0,349.0
2021-12-17-16:27:56.820417,11.0,0.0,349.0
2021-12-17-16:27:56.821416,3.0,20.0,349.0
2021-12-17-16:27:56.822414,1.0,23.0,349.0
2021-12-17-16:27:56.823414,1.0,23.0,349.0
2021-12-17-16:27:56.824409,1.0,17.0,349.0
2021-12-17-16:27:56.825527,2.0,5.0,349.0
2021-12-17-16:27:56.825527,2.0,5.0,349.0
2021-12-17-16:27:56.826581,2.0,5.0,349.0
2021-12-17-16:27:56.827582,2.0,5.0,349.0
2021-12-17-16:27:56.828783,0.0,10.0,349.0
2021-12-17-16:27:56.828783,3.0,5.0,349.0
2021-12-17-16:27:56.829821,3.0,5.0,349.0
2021-12-17-16:27:56.830813,4.0,9.0,349.0
2021-12-17-16:27:56.831812,4.0,9.0,349.0
2021-12-17-16:27:56.833805,10.0,2.0,349.0
2021-12-17-16:27:56.833805,15.0,11.0,349.0
2021-12-17-16:27:56.834770,15.0,11.0,349.0
2021-12-17-16:27:56.835799,15.0,11.0,349.0
2021-12-17-16:27:56.836798,15.0,11.0,349.0
2021-12-17-16:27:56.837793,0.0,15.0,349.0
2021-12-17-16:27:56.838764,6.0,28.0,349.0
2021-12-17-16:27:56.839757,6.0,28.0,349.0
2021-12-17-16:27:56.840786,4.0,18.0,349.0
2021-12-17-16:27:56.841787,0.0,6.0,349.0
2021-12-17-16:27:56.842784,0.0,6.0,349.0
2021-12-17-16:27:56.843782,0.0,6.0,349.0
2021-12-17-16:27:56.844777,2.0,8.0,349.0
2021-12-17-16:27:56.845772,3.0,5.0,349.0
2021-12-17-16:27:56.846770,3.0,5.0,349.0
2021-12-17-16:27:56.847770,3.0,5.0,349.0
2021-12-17-16:27:56.848756,6.0,8.0,349.0
2021-12-17-16:27:56.849754,15.0,7.0,349.0
2021-12-17-16:27:56.850750,15.0,7.0,349.0
2021-12-17-16:27:56.851780,15.0,7.0,349.0
2021-12-17-16:27:56.851780,3.0,4.0,350.0
2021-12-17-16:27:56.852781,2.0,11.0,349.0
2021-12-17-16:27:56.853813,2.0,11.0,349.0
2021-12-17-16:27:56.854829,2.0,11.0,349.0
2021-12-17-16:27:56.855828,2.0,11.0,349.0
2021-12-17-16:27:56.856824,3.0,17.0,349.0
2021-12-17-16:27:56.857821,3.0,11.0,349.0
2021-12-17-16:27:56.858820,3.0,11.0,349.0
2021-12-17-16:27:56.859821,3.0,11.0,349.0
2021-12-17-16:27:56.861065,1.0,11.0,349.0
2021-12-17-16:27:56.861065,6.0,28.0,349.0
2021-12-17-16:27:56.862227,6.0,28.0,349.0
2021-12-17-16:27:56.862227,4.0,22.0,349.0
2021-12-17-16:27:56.863282,4.0,22.0,349.0
2021-12-17-16:27:56.864281,4.0,22.0,349.0
2021-12-17-16:27:56.865280,5.0,5.0,349.0
2021-12-17-16:27:56.866273,15.0,23.0,349.0
2021-12-17-16:27:56.867271,15.0,23.0,349.0
2021-12-17-16:27:56.869267,15.0,24.0,349.0
2021-12-17-16:27:56.869267,14.0,12.0,349.0
2021-12-17-16:27:56.870248,14.0,12.0,349.0
2021-12-17-16:27:56.870248,9.0,2.0,349.0
2021-12-17-16:27:56.871303,0.0,12.0,349.0
2021-12-17-16:27:56.872245,0.0,12.0,349.0
2021-12-17-16:27:56.873297,5.0,17.0,349.0
2021-12-17-16:27:56.874295,1.0,14.0,349.0
2021-12-17-16:27:56.875403,1.0,7.0,349.0
2021-12-17-16:27:56.875403,1.0,7.0,349.0
2021-12-17-16:27:56.876610,1.0,7.0,349.0
2021-12-17-16:27:56.876610,4.0,10.0,349.0
2021-12-17-16:27:56.877648,4.0,10.0,349.0
2021-12-17-16:27:56.878782,6.0,2.0,349.0
2021-12-17-16:27:56.878782,6.0,2.0,349.0
2021-12-17-16:27:56.879829,6.0,2.0,349.0
2021-12-17-16:27:56.880981,6.0,2.0,349.0
2021-12-17-16:27:56.880981,5.0,32.0,349.0
2021-12-17-16:27:56.882011,5.0,32.0,349.0
2021-12-17-16:27:56.883012,15.0,24.0,349.0
2021-12-17-16:27:56.884007,15.0,24.0,349.0
2021-12-17-16:27:56.885004,15.0,24.0,349.0
2021-12-17-16:27:56.885970,5.0,20.0,349.0
2021-12-17-16:27:56.887000,3.0,67.0,349.0
2021-12-17-16:27:56.887999,3.0,67.0,349.0
2021-12-17-16:27:56.888994,3.0,67.0,349.0
2021-12-17-16:27:56.889991,7.0,96.0,349.0
2021-12-17-16:27:56.890991,4.0,10.0,349.0
2021-12-17-16:27:56.891986,4.0,10.0,349.0
2021-12-17-16:27:56.892983,4.0,10.0,349.0
2021-12-17-16:27:56.893984,6.0,0.0,349.0
2021-12-17-16:27:56.895097,1.0,3.0,349.0
2021-12-17-16:27:56.895097,1.0,3.0,349.0
2021-12-17-16:27:56.896145,1.0,3.0,349.0
2021-12-17-16:27:56.897140,1.0,3.0,349.0
2021-12-17-16:27:56.898138,3.0,3.0,349.0
2021-12-17-16:27:56.899136,4.0,12.0,349.0
2021-12-17-16:27:56.900135,12.0,19.0,349.0
2021-12-17-16:27:56.901085,16.0,23.0,349.0
2021-12-17-16:27:56.903078,13.0,3.0,349.0
2021-12-17-16:27:56.903078,2.0,30.0,349.0
2021-12-17-16:27:56.904124,2.0,30.0,349.0
2021-12-17-16:27:56.905120,2.0,30.0,349.0
2021-12-17-16:27:56.906118,3.0,29.0,349.0
2021-12-17-16:27:56.907069,1.0,7.0,349.0
2021-12-17-16:27:56.908113,1.0,7.0,349.0
2021-12-17-16:27:56.909269,1.0,7.0,349.0
2021-12-17-16:27:56.909269,5.0,0.0,349.0
2021-12-17-16:27:56.910301,5.0,0.0,349.0
2021-12-17-16:27:56.911456,2.0,4.0,349.0
2021-12-17-16:27:56.911456,2.0,4.0,349.0
2021-12-17-16:27:56.912502,2.0,4.0,349.0
2021-12-17-16:27:56.913500,2.0,4.0,349.0
2021-12-17-16:27:56.914452,7.0,11.0,349.0
2021-12-17-16:27:56.915449,14.0,24.0,349.0
2021-12-17-16:27:56.916447,14.0,24.0,349.0
2021-12-17-16:27:56.917444,14.0,24.0,349.0
2021-12-17-16:27:56.918441,0.0,21.0,349.0
2021-12-17-16:27:56.919439,0.0,21.0,349.0
2021-12-17-16:27:56.920466,0.0,21.0,349.0
2021-12-17-16:27:56.921640,0.0,21.0,349.0
2021-12-17-16:27:56.921640,4.0,23.0,349.0
2021-12-17-16:27:56.922671,4.0,23.0,349.0
2021-12-17-16:27:56.923671,0.0,16.0,349.0
2021-12-17-16:27:56.924666,0.0,16.0,349.0
2021-12-17-16:27:56.925663,0.0,16.0,349.0
2021-12-17-16:27:56.926662,1.0,6.0,349.0
2021-12-17-16:27:56.927658,1.0,12.0,349.0
2021-12-17-16:27:56.928655,1.0,12.0,349.0
2021-12-17-16:27:56.929623,1.0,12.0,349.0
2021-12-17-16:27:56.930650,1.0,21.0,349.0
2021-12-17-16:27:56.931762,17.0,20.0,349.0
2021-12-17-16:27:56.931762,17.0,20.0,349.0
2021-12-17-16:27:56.932808,17.0,20.0,349.0
2021-12-17-16:27:56.934153,17.0,20.0,349.0
2021-12-17-16:27:56.934153,1.0,15.0,349.0
2021-12-17-16:27:56.936150,1.0,15.0,349.0
2021-12-17-16:27:56.936150,1.0,15.0,349.0
2021-12-17-16:27:56.937179,1.0,15.0,349.0
2021-12-17-16:27:56.938187,1.0,15.0,349.0
2021-12-17-16:27:56.939175,1.0,19.0,349.0
2021-12-17-16:27:56.940285,3.0,2.0,349.0
2021-12-17-16:27:56.940285,3.0,2.0,349.0
2021-12-17-16:27:56.941332,3.0,2.0,349.0
2021-12-17-16:27:56.942501,3.0,2.0,349.0
2021-12-17-16:27:56.942501,1.0,8.0,349.0
2021-12-17-16:27:56.943532,1.0,8.0,349.0
2021-12-17-16:27:56.944789,3.0,11.0,349.0
2021-12-17-16:27:56.944894,3.0,11.0,349.0
2021-12-17-16:27:56.944894,3.0,11.0,349.0
2021-12-17-16:27:56.945926,3.0,11.0,349.0
2021-12-17-16:27:56.946925,9.0,8.0,349.0
2021-12-17-16:27:56.947971,10.0,12.0,349.0
2021-12-17-16:27:56.947971,14.0,9.0,349.0
2021-12-17-16:27:56.949002,14.0,9.0,349.0
2021-12-17-16:27:56.949968,14.0,9.0,349.0
2021-12-17-16:27:56.951573,14.0,3.0,349.0
2021-12-17-16:27:56.951573,0.0,25.0,349.0
2021-12-17-16:27:56.952623,0.0,25.0,349.0
2021-12-17-16:27:56.953597,0.0,25.0,349.0
2021-12-17-16:27:56.954594,0.0,25.0,349.0
2021-12-17-16:27:56.955786,2.0,34.0,349.0
2021-12-17-16:27:56.955786,3.0,23.0,349.0
2021-12-17-16:27:56.956824,2.0,8.0,349.0
2021-12-17-16:27:56.957815,2.0,8.0,349.0
2021-12-17-16:27:56.958813,2.0,8.0,349.0
2021-12-17-16:27:56.959812,3.0,6.0,349.0
2021-12-17-16:27:56.960808,0.0,2.0,349.0
2021-12-17-16:27:56.961903,2.0,10.0,349.0
2021-12-17-16:27:56.961903,2.0,10.0,349.0
2021-12-17-16:27:56.962928,2.0,10.0,349.0
2021-12-17-16:27:56.964165,4.0,12.0,349.0
2021-12-17-16:27:56.964303,11.0,20.0,349.0
2021-12-17-16:27:56.964303,11.0,20.0,349.0
2021-12-17-16:27:56.965328,11.0,20.0,349.0
2021-12-17-16:27:56.966475,11.0,20.0,349.0
2021-12-17-16:27:56.966475,13.0,16.0,349.0
2021-12-17-16:27:56.967508,13.0,0.0,349.0
2021-12-17-16:27:56.968541,5.0,8.0,349.0
2021-12-17-16:27:56.968541,5.0,8.0,349.0
2021-12-17-16:27:56.969556,5.0,8.0,349.0
2021-12-17-16:27:56.970573,5.0,8.0,349.0
2021-12-17-16:27:56.972588,3.0,23.0,349.0
2021-12-17-16:27:56.972588,4.0,9.0,349.0
2021-12-17-16:27:56.973587,4.0,9.0,349.0
2021-12-17-16:27:56.974586,4.0,9.0,349.0
2021-12-17-16:27:56.975579,0.0,6.0,349.0
2021-12-17-16:27:56.976580,0.0,10.0,349.0
2021-12-17-16:27:56.977575,0.0,12.0,349.0
2021-12-17-16:27:56.978580,0.0,12.0,349.0
2021-12-17-16:27:56.979539,5.0,8.0,349.0
2021-12-17-16:27:56.980547,12.0,20.0,349.0
2021-12-17-16:27:56.981567,12.0,20.0,349.0
2021-12-17-16:27:56.982605,12.0,20.0,349.0
2021-12-17-16:27:56.982970,12.0,20.0,349.0
2021-12-17-16:27:56.982970,14.0,15.0,349.0
2021-12-17-16:27:56.984025,8.0,7.0,349.0
2021-12-17-16:27:56.984993,8.0,7.0,349.0
2021-12-17-16:27:56.986019,8.0,7.0,349.0
2021-12-17-16:27:56.986962,8.0,7.0,349.0
2021-12-17-16:27:56.988014,5.0,32.0,349.0
2021-12-17-16:27:56.989102,1.0,10.0,349.0
2021-12-17-16:27:56.989102,1.0,10.0,349.0
2021-12-17-16:27:56.990150,1.0,10.0,349.0
2021-12-17-16:27:56.991146,1.0,10.0,349.0
2021-12-17-16:27:56.992097,0.0,1.0,349.0
2021-12-17-16:27:56.993146,5.0,5.0,349.0
2021-12-17-16:27:56.994138,5.0,5.0,349.0
2021-12-17-16:27:56.995117,5.0,5.0,349.0
2021-12-17-16:27:56.996349,7.0,13.0,349.0
2021-12-17-16:27:56.996349,5.0,29.0,350.0
2021-12-17-16:27:56.997405,13.0,5.0,349.0
2021-12-17-16:27:56.998401,13.0,5.0,349.0
2021-12-17-16:27:56.999401,13.0,5.0,349.0
2021-12-17-16:27:57.000396,13.0,14.0,349.0
2021-12-17-16:27:57.001400,10.0,1.0,349.0
2021-12-17-16:27:57.002393,10.0,1.0,349.0
2021-12-17-16:27:57.004332,10.0,1.0,349.0
2021-12-17-16:27:57.004332,1.0,14.0,349.0
2021-12-17-16:27:57.005360,1.0,14.0,349.0
2021-12-17-16:27:57.006360,1.0,14.0,349.0
2021-12-17-16:27:57.007323,1.0,14.0,349.0
2021-12-17-16:27:57.008352,2.0,7.0,349.0
2021-12-17-16:27:57.009350,2.0,14.0,349.0
2021-12-17-16:27:57.010346,2.0,14.0,349.0
2021-12-17-16:27:57.011343,2.0,14.0,349.0
2021-12-17-16:27:57.012341,2.0,14.0,349.0
2021-12-17-16:27:57.013338,4.0,5.0,349.0
2021-12-17-16:27:57.014337,8.0,4.0,349.0
2021-12-17-16:27:57.015332,8.0,4.0,349.0
2021-12-17-16:27:57.016330,8.0,4.0,349.0
2021-12-17-16:27:57.017328,13.0,13.0,349.0
2021-12-17-16:27:57.018325,11.0,12.0,349.0
2021-12-17-16:27:57.019322,11.0,12.0,349.0
2021-12-17-16:27:57.020322,11.0,12.0,349.0
2021-12-17-16:27:57.021318,7.0,26.0,349.0
2021-12-17-16:27:57.022309,2.0,24.0,350.0
2021-12-17-16:27:57.023310,2.0,24.0,350.0
2021-12-17-16:27:57.024302,2.0,24.0,350.0
2021-12-17-16:27:57.025300,0.0,16.0,350.0
2021-12-17-16:27:57.026298,1.0,8.0,349.0
2021-12-17-16:27:57.027293,0.0,3.0,349.0
2021-12-17-16:27:57.028291,0.0,3.0,349.0
2021-12-17-16:27:57.029288,6.0,1.0,350.0
2021-12-17-16:27:57.030287,9.0,1.0,349.0
2021-12-17-16:27:57.031364,11.0,6.0,349.0
2021-12-17-16:27:57.031364,11.0,6.0,349.0
2021-12-17-16:27:57.032574,11.0,6.0,349.0
2021-12-17-16:27:57.032574,11.0,19.0,349.0
2021-12-17-16:27:57.033597,10.0,17.0,349.0
2021-12-17-16:27:57.034597,10.0,17.0,349.0
2021-12-17-16:27:57.035591,10.0,17.0,349.0
2021-12-17-16:27:57.036590,10.0,17.0,349.0
2021-12-17-16:27:57.037587,3.0,30.0,349.0
2021-12-17-16:27:57.039559,3.0,30.0,349.0
2021-12-17-16:27:57.039559,3.0,30.0,349.0
2021-12-17-16:27:57.040785,3.0,30.0,349.0
2021-12-17-16:27:57.040785,4.0,24.0,349.0
2021-12-17-16:27:57.041811,4.0,24.0,349.0
2021-12-17-16:27:57.042806,1.0,20.0,349.0
2021-12-17-16:27:57.043803,1.0,20.0,349.0
2021-12-17-16:27:57.044803,1.0,20.0,349.0
2021-12-17-16:27:57.045799,2.0,2.0,349.0
2021-12-17-16:27:57.046798,8.0,15.0,349.0
2021-12-17-16:27:57.047793,8.0,15.0,349.0
2021-12-17-16:27:57.048790,8.0,15.0,349.0
2021-12-17-16:27:57.049790,13.0,30.0,349.0
2021-12-17-16:27:57.050785,10.0,11.0,349.0
2021-12-17-16:27:57.051782,10.0,11.0,349.0
2021-12-17-16:27:57.052781,10.0,11.0,349.0
2021-12-17-16:27:57.054079,3.0,38.0,349.0
2021-12-17-16:27:57.054079,3.0,32.0,349.0
2021-12-17-16:27:57.055136,3.0,32.0,349.0
2021-12-17-16:27:57.056131,3.0,32.0,349.0
2021-12-17-16:27:57.057129,3.0,32.0,349.0
2021-12-17-16:27:57.058333,0.0,25.0,349.0
2021-12-17-16:27:57.058333,2.0,24.0,349.0
2021-12-17-16:27:57.059469,2.0,24.0,349.0
2021-12-17-16:27:57.059469,1.0,11.0,349.0
2021-12-17-16:27:57.060721,1.0,11.0,349.0
2021-12-17-16:27:57.060721,2.0,3.0,349.0
2021-12-17-16:27:57.061745,2.0,3.0,349.0
2021-12-17-16:27:57.062743,2.0,3.0,349.0
2021-12-17-16:27:57.063741,2.0,3.0,349.0
2021-12-17-16:27:57.064713,2.0,3.0,349.0
2021-12-17-16:27:57.065734,11.0,15.0,349.0
2021-12-17-16:27:57.066734,14.0,16.0,349.0
2021-12-17-16:27:57.067729,14.0,16.0,349.0
2021-12-17-16:27:57.068785,14.0,16.0,349.0
2021-12-17-16:27:57.069785,10.0,3.0,349.0
2021-12-17-16:27:57.069785,1.0,29.0,350.0
2021-12-17-16:27:57.070815,1.0,29.0,350.0
2021-12-17-16:27:57.071930,1.0,29.0,350.0
2021-12-17-16:27:57.071930,1.0,29.0,350.0
2021-12-17-16:27:57.073122,1.0,29.0,350.0
2021-12-17-16:27:57.073122,3.0,19.0,349.0
2021-12-17-16:27:57.074156,3.0,19.0,349.0
2021-12-17-16:27:57.075151,3.0,9.0,349.0
2021-12-17-16:27:57.076148,3.0,9.0,349.0
2021-12-17-16:27:57.077114,3.0,9.0,349.0
2021-12-17-16:27:57.078143,4.0,9.0,349.0
2021-12-17-16:27:57.079141,3.0,12.0,349.0
2021-12-17-16:27:57.080143,3.0,12.0,349.0
2021-12-17-16:27:57.081103,3.0,12.0,349.0
2021-12-17-16:27:57.082136,7.0,6.0,349.0
2021-12-17-16:27:57.083130,14.0,27.0,349.0
2021-12-17-16:27:57.084127,14.0,27.0,349.0
2021-12-17-16:27:57.085126,14.0,27.0,349.0
2021-12-17-16:27:57.086127,11.0,5.0,349.0
2021-12-17-16:27:57.087124,3.0,21.0,349.0
2021-12-17-16:27:57.088117,3.0,21.0,349.0
2021-12-17-16:27:57.089113,3.0,21.0,349.0
2021-12-17-16:27:57.090114,3.0,21.0,349.0
2021-12-17-16:27:57.091108,3.0,22.0,349.0
2021-12-17-16:27:57.092106,2.0,22.0,349.0
2021-12-17-16:27:57.093104,2.0,22.0,349.0
2021-12-17-16:27:57.094100,2.0,22.0,349.0
2021-12-17-16:27:57.095099,2.0,3.0,349.0
2021-12-17-16:27:57.096097,2.0,3.0,349.0
2021-12-17-16:27:57.097094,2.0,3.0,349.0
2021-12-17-16:27:57.098092,2.0,3.0,349.0
2021-12-17-16:27:57.099080,5.0,2.0,349.0
2021-12-17-16:27:57.100136,13.0,16.0,349.0
2021-12-17-16:27:57.100136,13.0,16.0,349.0
2021-12-17-16:27:57.101191,13.0,16.0,349.0
2021-12-17-16:27:57.102190,13.0,16.0,349.0
2021-12-17-16:27:57.104183,2.0,16.0,350.0
2021-12-17-16:27:57.104183,2.0,16.0,350.0
2021-12-17-16:27:57.105182,2.0,16.0,350.0
2021-12-17-16:27:57.106178,2.0,16.0,350.0
2021-12-17-16:27:57.107154,2.0,4.0,350.0
2021-12-17-16:27:57.108172,0.0,1.0,349.0
2021-12-17-16:27:57.109215,0.0,1.0,349.0
2021-12-17-16:27:57.109215,0.0,1.0,349.0
2021-12-17-16:27:57.110452,0.0,1.0,349.0
2021-12-17-16:27:57.110452,2.0,0.0,349.0
2021-12-17-16:27:57.111483,2.0,0.0,349.0
2021-12-17-16:27:57.112480,5.0,8.0,349.0
2021-12-17-16:27:57.113477,5.0,8.0,349.0
2021-12-17-16:27:57.114480,5.0,8.0,349.0
2021-12-17-16:27:57.115473,2.0,18.0,349.0
2021-12-17-16:27:57.116469,8.0,10.0,349.0
2021-12-17-16:27:57.117467,14.0,1.0,349.0
2021-12-17-16:27:57.118671,14.0,1.0,349.0
2021-12-17-16:27:57.118671,14.0,6.0,349.0
2021-12-17-16:27:57.119671,14.0,6.0,349.0
2021-12-17-16:27:57.120668,1.0,9.0,349.0
2021-12-17-16:27:57.121697,1.0,9.0,349.0
2021-12-17-16:27:57.122695,1.0,9.0,349.0
2021-12-17-16:27:57.123694,3.0,9.0,349.0
2021-12-17-16:27:57.124810,2.0,7.0,349.0
2021-12-17-16:27:57.124810,2.0,7.0,349.0
2021-12-17-16:27:57.125866,2.0,7.0,349.0
2021-12-17-16:27:57.126862,2.0,7.0,349.0
2021-12-17-16:27:57.127858,4.0,28.0,349.0
2021-12-17-16:27:57.129114,1.0,23.0,349.0
2021-12-17-16:27:57.129114,3.0,6.0,349.0
2021-12-17-16:27:57.130171,3.0,6.0,349.0
2021-12-17-16:27:57.131142,7.0,3.0,349.0
2021-12-17-16:27:57.132275,15.0,27.0,349.0
2021-12-17-16:27:57.132275,13.0,19.0,349.0
2021-12-17-16:27:57.133332,13.0,19.0,349.0
2021-12-17-16:27:57.134313,13.0,19.0,349.0
2021-12-17-16:27:57.135324,14.0,19.0,349.0
2021-12-17-16:27:57.136268,2.0,23.0,349.0
2021-12-17-16:27:57.137266,2.0,23.0,349.0
2021-12-17-16:27:57.139314,2.0,23.0,349.0
2021-12-17-16:27:57.139314,0.0,3.0,349.0
2021-12-17-16:27:57.140257,1.0,9.0,349.0
2021-12-17-16:27:57.141303,1.0,9.0,349.0
2021-12-17-16:27:57.142304,1.0,9.0,349.0
2021-12-17-16:27:57.143295,1.0,9.0,349.0
2021-12-17-16:27:57.144517,1.0,20.0,349.0
2021-12-17-16:27:57.144517,6.0,4.0,349.0
2021-12-17-16:27:57.145554,6.0,4.0,349.0
2021-12-17-16:27:57.146547,6.0,4.0,349.0
2021-12-17-16:27:57.147545,6.0,4.0,349.0
2021-12-17-16:27:57.148540,13.0,13.0,349.0
2021-12-17-16:27:57.149538,11.0,8.0,349.0
2021-12-17-16:27:57.150539,11.0,8.0,349.0
2021-12-17-16:27:57.151533,11.0,8.0,349.0
2021-12-17-16:27:57.152533,4.0,12.0,349.0
2021-12-17-16:27:57.153527,2.0,21.0,349.0
2021-12-17-16:27:57.154524,2.0,21.0,349.0
2021-12-17-16:27:57.155490,2.0,21.0,349.0
2021-12-17-16:27:57.156487,2.0,8.0,349.0
2021-12-17-16:27:57.157517,2.0,8.0,349.0
2021-12-17-16:27:57.158509,2.0,8.0,349.0
2021-12-17-16:27:57.159511,2.0,8.0,349.0
2021-12-17-16:27:57.160503,2.0,8.0,349.0
2021-12-17-16:27:57.161498,7.0,1.0,349.0
2021-12-17-16:27:57.162499,7.0,1.0,349.0
2021-12-17-16:27:57.163502,7.0,1.0,349.0
2021-12-17-16:27:57.164490,5.0,4.0,349.0
2021-12-17-16:27:57.165597,20.0,30.0,349.0
2021-12-17-16:27:57.165597,20.0,30.0,349.0
2021-12-17-16:27:57.166652,20.0,30.0,349.0
2021-12-17-16:27:57.167642,20.0,30.0,349.0
2021-12-17-16:27:57.168815,13.0,23.0,349.0
2021-12-17-16:27:57.168815,12.0,9.0,349.0
2021-12-17-16:27:57.169815,12.0,9.0,349.0
2021-12-17-16:27:57.170849,1.0,9.0,349.0
2021-12-17-16:27:57.171841,1.0,9.0,349.0
2021-12-17-16:27:57.173829,4.0,37.0,349.0
2021-12-17-16:27:57.173829,1.0,27.0,349.0
2021-12-17-16:27:57.174834,1.0,27.0,349.0
2021-12-17-16:27:57.175826,1.0,27.0,349.0
2021-12-17-16:27:57.176821,1.0,25.0,349.0
2021-12-17-16:27:57.177817,4.0,27.0,349.0
2021-12-17-16:27:57.178822,5.0,0.0,349.0
2021-12-17-16:27:57.179807,5.0,0.0,349.0
2021-12-17-16:27:57.180804,3.0,2.0,349.0
2021-12-17-16:27:57.181803,6.0,10.0,349.0
2021-12-17-16:27:57.182799,10.0,11.0,349.0
2021-12-17-16:27:57.183804,15.0,24.0,349.0
2021-12-17-16:27:57.184799,16.0,21.0,349.0
2021-12-17-16:27:57.185796,8.0,15.0,349.0
2021-12-17-16:27:57.186798,9.0,7.0,349.0
2021-12-17-16:27:57.187791,5.0,20.0,349.0
2021-12-17-16:27:57.188764,1.0,17.0,349.0
2021-12-17-16:27:57.189762,1.0,17.0,349.0
2021-12-17-16:27:57.190783,1.0,17.0,349.0
2021-12-17-16:27:57.191756,1.0,17.0,349.0
2021-12-17-16:27:57.192778,1.0,12.0,349.0
2021-12-17-16:27:57.193776,2.0,13.0,349.0
2021-12-17-16:27:57.194778,2.0,3.0,349.0
2021-12-17-16:27:57.195746,2.0,3.0,349.0
2021-12-17-16:27:57.196775,5.0,4.0,349.0
2021-12-17-16:27:57.197766,9.0,12.0,349.0
2021-12-17-16:27:57.198763,14.0,19.0,349.0
2021-12-17-16:27:57.199760,14.0,19.0,349.0
2021-12-17-16:27:57.200758,14.0,25.0,349.0
2021-12-17-16:27:57.201756,9.0,10.0,349.0
2021-12-17-16:27:57.202752,3.0,9.0,349.0
2021-12-17-16:27:57.203751,3.0,9.0,349.0
2021-12-17-16:27:57.205744,3.0,9.0,349.0
2021-12-17-16:27:57.205744,2.0,22.0,349.0
2021-12-17-16:27:57.206716,2.0,22.0,349.0
2021-12-17-16:27:57.207748,2.0,22.0,349.0
2021-12-17-16:27:57.208740,2.0,22.0,349.0
2021-12-17-16:27:57.209734,3.0,28.0,349.0
2021-12-17-16:27:57.210707,4.0,3.0,349.0
2021-12-17-16:27:57.211703,4.0,3.0,349.0
2021-12-17-16:27:57.212727,4.0,3.0,349.0
2021-12-17-16:27:57.213723,4.0,12.0,349.0
2021-12-17-16:27:57.214721,12.0,10.0,349.0
2021-12-17-16:27:57.215718,11.0,13.0,349.0
2021-12-17-16:27:57.216715,11.0,13.0,349.0
2021-12-17-16:27:57.217712,18.0,17.0,349.0
2021-12-17-16:27:57.218709,10.0,1.0,349.0
2021-12-17-16:27:57.219681,10.0,1.0,349.0
2021-12-17-16:27:57.220708,10.0,1.0,349.0
2021-12-17-16:27:57.221723,0.0,22.0,349.0
2021-12-17-16:27:57.222700,2.0,27.0,349.0
2021-12-17-16:27:57.223719,0.0,19.0,349.0
2021-12-17-16:27:57.224716,0.0,19.0,349.0
2021-12-17-16:27:57.225713,0.0,13.0,349.0
2021-12-17-16:27:57.226714,2.0,14.0,349.0
2021-12-17-16:27:57.227708,5.0,7.0,349.0
2021-12-17-16:27:57.228658,5.0,7.0,349.0
2021-12-17-16:27:57.229702,1.0,4.0,349.0
2021-12-17-16:27:57.230700,4.0,17.0,349.0
2021-12-17-16:27:57.231698,12.0,23.0,349.0
2021-12-17-16:27:57.232647,12.0,23.0,349.0
2021-12-17-16:27:57.233692,14.0,21.0,349.0
2021-12-17-16:27:57.234693,13.0,23.0,349.0
2021-12-17-16:27:57.235687,11.0,18.0,349.0
2021-12-17-16:27:57.236648,11.0,18.0,349.0
2021-12-17-16:27:57.237671,2.0,0.0,349.0
2021-12-17-16:27:57.238657,2.0,23.0,349.0
2021-12-17-16:27:57.239675,1.0,10.0,349.0
2021-12-17-16:27:57.241624,1.0,10.0,349.0
2021-12-17-16:27:57.241624,0.0,27.0,349.0
2021-12-17-16:27:57.242648,1.0,32.0,349.0
2021-12-17-16:27:57.243642,1.0,32.0,349.0
2021-12-17-16:27:57.244641,1.0,32.0,349.0
2021-12-17-16:27:57.245636,1.0,32.0,349.0
2021-12-17-16:27:57.246633,1.0,29.0,349.0
2021-12-17-16:27:57.247633,8.0,4.0,349.0
2021-12-17-16:27:57.248628,8.0,4.0,349.0
2021-12-17-16:27:57.249626,8.0,4.0,349.0
2021-12-17-16:27:57.250628,10.0,11.0,349.0
2021-12-17-16:27:57.251621,10.0,26.0,349.0
2021-12-17-16:27:57.252619,10.0,26.0,349.0
2021-12-17-16:27:57.253615,10.0,26.0,349.0
2021-12-17-16:27:57.254613,3.0,10.0,349.0
2021-12-17-16:27:57.255613,3.0,24.0,349.0
2021-12-17-16:27:57.256697,1.0,17.0,349.0
2021-12-17-16:27:57.256697,1.0,17.0,349.0
2021-12-17-16:27:57.257753,1.0,17.0,349.0
2021-12-17-16:27:57.258749,0.0,21.0,349.0
2021-12-17-16:27:57.259860,0.0,17.0,349.0
2021-12-17-16:27:57.259860,0.0,17.0,349.0
2021-12-17-16:27:57.260914,0.0,17.0,349.0
2021-12-17-16:27:57.261912,0.0,17.0,349.0
2021-12-17-16:27:57.262911,1.0,11.0,349.0
2021-12-17-16:27:57.264122,2.0,2.0,349.0
2021-12-17-16:27:57.264122,11.0,7.0,349.0
2021-12-17-16:27:57.265262,11.0,7.0,349.0
2021-12-17-16:27:57.265262,11.0,7.0,349.0
2021-12-17-16:27:57.266317,11.0,7.0,349.0
2021-12-17-16:27:57.267315,15.0,9.0,348.0
2021-12-17-16:27:57.268310,12.0,1.0,349.0
2021-12-17-16:27:57.269310,12.0,1.0,349.0
2021-12-17-16:27:57.270300,12.0,1.0,349.0
2021-12-17-16:27:57.271295,1.0,19.0,349.0
2021-12-17-16:27:57.272668,1.0,20.0,349.0
2021-12-17-16:27:57.272668,3.0,17.0,349.0
2021-12-17-16:27:57.274693,3.0,17.0,349.0
2021-12-17-16:27:57.274693,2.0,7.0,349.0
2021-12-17-16:27:57.275687,2.0,7.0,349.0
2021-12-17-16:27:57.276687,2.0,7.0,349.0
2021-12-17-16:27:57.277669,2.0,7.0,349.0
2021-12-17-16:27:57.278679,2.0,1.0,349.0
2021-12-17-16:27:57.279678,5.0,12.0,349.0
2021-12-17-16:27:57.280673,9.0,14.0,348.0
2021-12-17-16:27:57.281670,9.0,14.0,348.0
2021-12-17-16:27:57.282669,13.0,21.0,349.0
2021-12-17-16:27:57.283758,10.0,10.0,349.0
2021-12-17-16:27:57.283758,10.0,10.0,349.0
