# 
# 
# 
# 
# 
# 
# 
# 
# 
# 
# time,realtime,ref,inp,dis,state...
0.000000000000000000e+00,1.639785927294617891e+09,0.000000000000000000e+00,-1.848564966840825496e+00,0.000000000000000000e+00,-1.707256655923623745e+00
1.666666666666666644e-02,1.639785927297609806e+09,0.000000000000000000e+00,-1.707256655923623745e+00,0.000000000000000000e+00,-1.707256655923623745e+00
3.333333333333333287e-02,1.639785927299570084e+09,0.000000000000000000e+00,-1.860340659417260012e+00,0.000000000000000000e+00,-1.860340659417260012e+00
5.000000000000000278e-02,1.639785927318563461e+09,0.000000000000000000e+00,-2.018134939941466754e+00,0.000000000000000000e+00,-2.018134939941466754e+00
6.666666666666666574e-02,1.639785927334751129e+09,0.000000000000000000e+00,-2.100564787976501258e+00,0.000000000000000000e+00,-2.100564787976501258e+00
8.333333333333332871e-02,1.639785927351714849e+09,0.000000000000000000e+00,-2.201835744133828765e+00,0.000000000000000000e+00,-2.201835744133828765e+00
1.000000000000000056e-01,1.639785927367976189e+09,0.000000000000000000e+00,-2.091144233915354977e+00,0.000000000000000000e+00,-2.091144233915354977e+00
1.166666666666666685e-01,1.639785927386558533e+09,0.000000000000000000e+00,-2.088789095400068518e+00,0.000000000000000000e+00,-2.088789095400068518e+00
1.333333333333333315e-01,1.639785927402516603e+09,0.000000000000000000e+00,-1.985163000727453220e+00,0.000000000000000000e+00,-1.985163000727453220e+00
1.499999999999999944e-01,1.639785927420958757e+09,0.000000000000000000e+00,-2.020490078456754546e+00,0.000000000000000000e+00,-2.020490078456754546e+00
1.666666666666666574e-01,1.639785927436321020e+09,0.000000000000000000e+00,-2.204190882649115224e+00,0.000000000000000000e+00,-2.204190882649115224e+00
1.833333333333333204e-01,1.639785927452278614e+09,0.000000000000000000e+00,-2.157088112343382491e+00,0.000000000000000000e+00,-2.157088112343382491e+00
2.000000000000000111e-01,1.639785927469238758e+09,0.000000000000000000e+00,-2.286620730684150171e+00,0.000000000000000000e+00,-2.286620730684150171e+00
2.166666666666666741e-01,1.639785927486518145e+09,0.000000000000000000e+00,-2.324302946928737956e+00,0.000000000000000000e+00,-2.324302946928737956e+00
2.333333333333333370e-01,1.639785927503714323e+09,0.000000000000000000e+00,-2.364340301688610424e+00,0.000000000000000000e+00,-2.364340301688610424e+00
2.500000000000000000e-01,1.639785927519664049e+09,0.000000000000000000e+00,-2.312527254352302997e+00,0.000000000000000000e+00,-2.312527254352302997e+00
2.666666666666666630e-01,1.639785927536263704e+09,0.000000000000000000e+00,-2.449125288238932718e+00,0.000000000000000000e+00,-2.449125288238932718e+00
2.833333333333333259e-01,1.639785927554393291e+09,0.000000000000000000e+00,-2.491517781514092977e+00,0.000000000000000000e+00,-2.491517781514092977e+00
2.999999999999999889e-01,1.639785927571339607e+09,0.000000000000000000e+00,-2.752938156710915685e+00,0.000000000000000000e+00,-2.752938156710915685e+00
3.166666666666666519e-01,1.639785927588297129e+09,0.000000000000000000e+00,-2.785910095924929220e+00,0.000000000000000000e+00,-2.785910095924929220e+00
3.333333333333333148e-01,1.639785927605249405e+09,0.000000000000000000e+00,-2.734097048588620904e+00,0.000000000000000000e+00,-2.734097048588620904e+00
3.499999999999999778e-01,1.639785927624222279e+09,0.000000000000000000e+00,-2.750583018195627449e+00,0.000000000000000000e+00,-2.750583018195627449e+00
3.666666666666666408e-01,1.639785927641183376e+09,0.000000000000000000e+00,-2.976676315663150607e+00,0.000000000000000000e+00,-2.976676315663150607e+00
3.833333333333333037e-01,1.639785927658130169e+09,0.000000000000000000e+00,-2.830657727715375938e+00,0.000000000000000000e+00,-2.830657727715375938e+00
4.000000000000000222e-01,1.639785927675467968e+09,0.000000000000000000e+00,-2.995517423785443611e+00,0.000000000000000000e+00,-2.995517423785443611e+00
4.166666666666666852e-01,1.639785927691425562e+09,0.000000000000000000e+00,-2.724676494527474180e+00,0.000000000000000000e+00,-2.724676494527474180e+00
4.333333333333333481e-01,1.639785927709706068e+09,0.000000000000000000e+00,-2.621050399854860213e+00,0.000000000000000000e+00,-2.621050399854860213e+00
4.500000000000000111e-01,1.639785927725810528e+09,0.000000000000000000e+00,-2.512714028151672441e+00,0.000000000000000000e+00,-2.512714028151672441e+00
4.666666666666666741e-01,1.639785927743061781e+09,0.000000000000000000e+00,-2.373760855749758480e+00,0.000000000000000000e+00,-2.373760855749758480e+00
4.833333333333333370e-01,1.639785927760010242e+09,0.000000000000000000e+00,-2.272489899592430973e+00,0.000000000000000000e+00,-2.272489899592430973e+00
5.000000000000000000e-01,1.639785927777580738e+09,0.000000000000000000e+00,-2.227742267801982479e+00,0.000000000000000000e+00,-2.227742267801982479e+00
5.166666666666666075e-01,1.639785927793501139e+09,0.000000000000000000e+00,-2.258359068500709999e+00,0.000000000000000000e+00,-2.258359068500709999e+00
5.333333333333333259e-01,1.639785927812502623e+09,0.000000000000000000e+00,-1.869761213478406514e+00,0.000000000000000000e+00,-1.869761213478406514e+00
5.500000000000000444e-01,1.639785927826460361e+09,0.000000000000000000e+00,-2.124116173129368512e+00,0.000000000000000000e+00,-2.124116173129368512e+00
5.666666666666666519e-01,1.639785927846004486e+09,0.000000000000000000e+00,-1.952191061513439241e+00,0.000000000000000000e+00,-1.952191061513439241e+00
5.833333333333333703e-01,1.639785927859948874e+09,0.000000000000000000e+00,-1.777910811382225509e+00,0.000000000000000000e+00,-1.777910811382225509e+00
5.999999999999999778e-01,1.639785927877897739e+09,0.000000000000000000e+00,-1.509425020639542536e+00,0.000000000000000000e+00,-1.509425020639542536e+00
6.166666666666666963e-01,1.639785927896232605e+09,0.000000000000000000e+00,-1.577724037582856287e+00,0.000000000000000000e+00,-1.577724037582856287e+00
6.333333333333333037e-01,1.639785927910748482e+09,0.000000000000000000e+00,-1.716677209984770025e+00,0.000000000000000000e+00,-1.716677209984770025e+00
6.500000000000000222e-01,1.639785927927267790e+09,0.000000000000000000e+00,-1.613051115312156503e+00,0.000000000000000000e+00,-1.613051115312156503e+00
6.666666666666666297e-01,1.639785927943105698e+09,0.000000000000000000e+00,-1.664864162648463264e+00,0.000000000000000000e+00,-1.664864162648463264e+00
6.833333333333333481e-01,1.639785927961110830e+09,0.000000000000000000e+00,-1.867406074963118723e+00,0.000000000000000000e+00,-1.867406074963118723e+00
6.999999999999999556e-01,1.639785927980044842e+09,0.000000000000000000e+00,-1.551817513914703017e+00,0.000000000000000000e+00,-1.551817513914703017e+00
7.166666666666666741e-01,1.639785927995009184e+09,0.000000000000000000e+00,-1.509425020639542536e+00,0.000000000000000000e+00,-1.509425020639542536e+00
7.333333333333332815e-01,1.639785928013936996e+09,0.000000000000000000e+00,-1.353985878630620032e+00,0.000000000000000000e+00,-1.353985878630620032e+00
7.500000000000000000e-01,1.639785928027916908e+09,0.000000000000000000e+00,-1.401088648936354542e+00,0.000000000000000000e+00,-1.401088648936354542e+00
7.666666666666666075e-01,1.639785928045869350e+09,0.000000000000000000e+00,-1.384602679329347552e+00,0.000000000000000000e+00,-1.384602679329347552e+00
7.833333333333333259e-01,1.639785928062084675e+09,0.000000000000000000e+00,-1.066658979765644055e+00,0.000000000000000000e+00,-1.066658979765644055e+00
8.000000000000000444e-01,1.639785928081026316e+09,0.000000000000000000e+00,-1.174995351468832050e+00,0.000000000000000000e+00,-1.174995351468832050e+00
8.166666666666666519e-01,1.639785928098104477e+09,0.000000000000000000e+00,-1.087855226403225073e+00,0.000000000000000000e+00,-1.087855226403225073e+00
8.333333333333333703e-01,1.639785928113797188e+09,0.000000000000000000e+00,-1.243294368412145801e+00,0.000000000000000000e+00,-1.243294368412145801e+00
8.499999999999999778e-01,1.639785928131701946e+09,0.000000000000000000e+00,-1.219742983259278546e+00,0.000000000000000000e+00,-1.219742983259278546e+00
8.666666666666666963e-01,1.639785928146919966e+09,0.000000000000000000e+00,-1.339855047538901056e+00,0.000000000000000000e+00,-1.339855047538901056e+00
8.833333333333333037e-01,1.639785928164673805e+09,0.000000000000000000e+00,-1.457611973303235553e+00,0.000000000000000000e+00,-1.457611973303235553e+00
9.000000000000000222e-01,1.639785928182576656e+09,0.000000000000000000e+00,-1.481163358456101253e+00,0.000000000000000000e+00,-1.481163358456101253e+00
9.166666666666666297e-01,1.639785928202907562e+09,0.000000000000000000e+00,-1.610695976796870044e+00,0.000000000000000000e+00,-1.610695976796870044e+00
9.333333333333333481e-01,1.639785928213879585e+09,0.000000000000000000e+00,-1.761424841775218741e+00,0.000000000000000000e+00,-1.761424841775218741e+00
9.499999999999999556e-01,1.639785928232007504e+09,0.000000000000000000e+00,-1.945125645967580752e+00,0.000000000000000000e+00,-1.945125645967580752e+00
9.666666666666666741e-01,1.639785928248441935e+09,0.000000000000000000e+00,-2.152377835312808241e+00,0.000000000000000000e+00,-2.152377835312808241e+00
9.833333333333332815e-01,1.639785928266670704e+09,0.000000000000000000e+00,-2.121761034614082497e+00,0.000000000000000000e+00,-2.121761034614082497e+00
1.000000000000000000e+00,1.639785928284612417e+09,0.000000000000000000e+00,-1.992228416273313485e+00,0.000000000000000000e+00,-1.992228416273313485e+00
1.016666666666666607e+00,1.639785928300543785e+09,0.000000000000000000e+00,-1.761424841775218741e+00,0.000000000000000000e+00,-1.761424841775218741e+00
1.033333333333333215e+00,1.639785928319520473e+09,0.000000000000000000e+00,-1.490583912517249532e+00,0.000000000000000000e+00,-1.490583912517249532e+00
1.050000000000000044e+00,1.639785928333456039e+09,0.000000000000000000e+00,-1.417574618543361531e+00,0.000000000000000000e+00,-1.417574618543361531e+00
1.066666666666666652e+00,1.639785928353114128e+09,0.000000000000000000e+00,-1.255070060988580316e+00,0.000000000000000000e+00,-1.255070060988580316e+00
1.083333333333333259e+00,1.639785928370095491e+09,0.000000000000000000e+00,-1.076079533826790557e+00,0.000000000000000000e+00,-1.076079533826790557e+00
1.100000000000000089e+00,1.639785928387047052e+09,0.000000000000000000e+00,-9.677431621236025627e-01,0.000000000000000000e+00,-9.677431621236025627e-01
1.116666666666666696e+00,1.639785928403489351e+09,0.000000000000000000e+00,-7.652012498089481030e-01,0.000000000000000000e+00,-7.652012498089481030e-01
1.133333333333333304e+00,1.639785928420748949e+09,0.000000000000000000e+00,-6.921919558350601021e-01,0.000000000000000000e+00,-6.921919558350601021e-01
1.149999999999999911e+00,1.639785928436651230e+09,0.000000000000000000e+00,-6.003415537388790968e-01,0.000000000000000000e+00,-6.003415537388790968e-01
1.166666666666666741e+00,1.639785928455903053e+09,0.000000000000000000e+00,-5.603041989790057409e-01,0.000000000000000000e+00,-5.603041989790057409e-01
1.183333333333333348e+00,1.639785928470021486e+09,0.000000000000000000e+00,-6.286032159223197135e-01,0.000000000000000000e+00,-6.286032159223197135e-01
1.199999999999999956e+00,1.639785928489010096e+09,0.000000000000000000e+00,-6.450891855293265920e-01,0.000000000000000000e+00,-6.450891855293265920e-01
1.216666666666666563e+00,1.639785928506953001e+09,0.000000000000000000e+00,0.000000000000000000e+00,0.000000000000000000e+00,0.000000000000000000e+00
1.233333333333333393e+00,1.639785928521916389e+09,0.000000000000000000e+00,0.000000000000000000e+00,0.000000000000000000e+00,0.000000000000000000e+00
1.250000000000000000e+00,1.639785928540865183e+09,0.000000000000000000e+00,0.000000000000000000e+00,0.000000000000000000e+00,0.000000000000000000e+00
1.266666666666666607e+00,1.639785928557221174e+09,0.000000000000000000e+00,0.000000000000000000e+00,0.000000000000000000e+00,0.000000000000000000e+00
1.283333333333333215e+00,1.639785928572539568e+09,0.000000000000000000e+00,0.000000000000000000e+00,0.000000000000000000e+00,0.000000000000000000e+00
1.300000000000000044e+00,1.639785928591485023e+09,0.000000000000000000e+00,0.000000000000000000e+00,0.000000000000000000e+00,0.000000000000000000e+00
1.316666666666666652e+00,1.639785928607440710e+09,0.000000000000000000e+00,0.000000000000000000e+00,0.000000000000000000e+00,0.000000000000000000e+00
1.333333333333333259e+00,1.639785928623390913e+09,0.000000000000000000e+00,0.000000000000000000e+00,0.000000000000000000e+00,0.000000000000000000e+00
1.350000000000000089e+00,1.639785928642598152e+09,0.000000000000000000e+00,0.000000000000000000e+00,0.000000000000000000e+00,0.000000000000000000e+00
1.366666666666666696e+00,1.639785928659542799e+09,0.000000000000000000e+00,0.000000000000000000e+00,0.000000000000000000e+00,0.000000000000000000e+00
1.383333333333333304e+00,1.639785928674864769e+09,0.000000000000000000e+00,0.000000000000000000e+00,0.000000000000000000e+00,0.000000000000000000e+00
1.399999999999999911e+00,1.639785928691207886e+09,0.000000000000000000e+00,0.000000000000000000e+00,0.000000000000000000e+00,0.000000000000000000e+00
1.416666666666666741e+00,1.639785928709323406e+09,0.000000000000000000e+00,0.000000000000000000e+00,0.000000000000000000e+00,0.000000000000000000e+00
1.433333333333333348e+00,1.639785928726482630e+09,0.000000000000000000e+00,0.000000000000000000e+00,0.000000000000000000e+00,0.000000000000000000e+00
1.449999999999999956e+00,1.639785928745432377e+09,0.000000000000000000e+00,0.000000000000000000e+00,0.000000000000000000e+00,0.000000000000000000e+00
1.466666666666666563e+00,1.639785928759394646e+09,0.000000000000000000e+00,0.000000000000000000e+00,0.000000000000000000e+00,0.000000000000000000e+00
1.483333333333333393e+00,1.639785928778346300e+09,0.000000000000000000e+00,0.000000000000000000e+00,0.000000000000000000e+00,0.000000000000000000e+00
1.500000000000000000e+00,1.639785928797300100e+09,0.000000000000000000e+00,0.000000000000000000e+00,0.000000000000000000e+00,0.000000000000000000e+00
1.516666666666666607e+00,1.639785928812253714e+09,0.000000000000000000e+00,0.000000000000000000e+00,0.000000000000000000e+00,0.000000000000000000e+00
1.533333333333333215e+00,1.639785928829209089e+09,0.000000000000000000e+00,0.000000000000000000e+00,0.000000000000000000e+00,0.000000000000000000e+00
1.550000000000000044e+00,1.639785928847160816e+09,0.000000000000000000e+00,0.000000000000000000e+00,0.000000000000000000e+00,0.000000000000000000e+00
1.566666666666666652e+00,1.639785928863117695e+09,0.000000000000000000e+00,0.000000000000000000e+00,0.000000000000000000e+00,0.000000000000000000e+00
1.583333333333333259e+00,1.639785928881167412e+09,0.000000000000000000e+00,0.000000000000000000e+00,0.000000000000000000e+00,0.000000000000000000e+00
1.600000000000000089e+00,1.639785928896436930e+09,0.000000000000000000e+00,0.000000000000000000e+00,0.000000000000000000e+00,0.000000000000000000e+00
1.616666666666666696e+00,1.639785928911906719e+09,0.000000000000000000e+00,0.000000000000000000e+00,0.000000000000000000e+00,0.000000000000000000e+00
1.633333333333333304e+00,1.639785928931843758e+09,0.000000000000000000e+00,0.000000000000000000e+00,0.000000000000000000e+00,0.000000000000000000e+00
1.649999999999999911e+00,1.639785928945806026e+09,0.000000000000000000e+00,0.000000000000000000e+00,0.000000000000000000e+00,0.000000000000000000e+00
1.666666666666666741e+00,1.639785928963782072e+09,0.000000000000000000e+00,0.000000000000000000e+00,0.000000000000000000e+00,0.000000000000000000e+00
1.683333333333333348e+00,1.639785928978834391e+09,0.000000000000000000e+00,0.000000000000000000e+00,0.000000000000000000e+00,0.000000000000000000e+00
1.699999999999999956e+00,1.639785928995780468e+09,0.000000000000000000e+00,0.000000000000000000e+00,0.000000000000000000e+00,0.000000000000000000e+00
1.716666666666666563e+00,1.639785929011987448e+09,0.000000000000000000e+00,0.000000000000000000e+00,0.000000000000000000e+00,0.000000000000000000e+00
1.733333333333333393e+00,1.639785929029925346e+09,0.000000000000000000e+00,0.000000000000000000e+00,0.000000000000000000e+00,0.000000000000000000e+00
1.750000000000000000e+00,1.639785929046857834e+09,0.000000000000000000e+00,0.000000000000000000e+00,0.000000000000000000e+00,0.000000000000000000e+00
1.766666666666666607e+00,1.639785929064811945e+09,0.000000000000000000e+00,0.000000000000000000e+00,0.000000000000000000e+00,0.000000000000000000e+00
1.783333333333333215e+00,1.639785929081740618e+09,0.000000000000000000e+00,-5.767901685860127303e-01,0.000000000000000000e+00,-5.767901685860127303e-01
1.800000000000000044e+00,1.639785929098719120e+09,0.000000000000000000e+00,-7.793320809006679672e-01,0.000000000000000000e+00,-7.793320809006679672e-01
1.816666666666666652e+00,1.639785929116671085e+09,0.000000000000000000e+00,-7.016125098962076034e-01,0.000000000000000000e+00,-7.016125098962076034e-01
1.833333333333333259e+00,1.639785929132910490e+09,0.000000000000000000e+00,-8.170142971452550862e-01,0.000000000000000000e+00,-8.170142971452550862e-01
1.849999999999999867e+00,1.639785929151894331e+09,0.000000000000000000e+00,-8.900235911191421989e-01,0.000000000000000000e+00,-8.900235911191421989e-01
1.866666666666666696e+00,1.639785929167817593e+09,0.000000000000000000e+00,-8.664722059662749443e-01,0.000000000000000000e+00,-8.664722059662749443e-01
1.883333333333333304e+00,1.639785929181827307e+09,0.000000000000000000e+00,-7.487152802019412245e-01,0.000000000000000000e+00,-7.487152802019412245e-01
1.899999999999999911e+00,1.639785929199952602e+09,0.000000000000000000e+00,-7.652012498089481030e-01,0.000000000000000000e+00,-7.652012498089481030e-01
1.916666666666666741e+00,1.639785929219189882e+09,0.000000000000000000e+00,-7.180984795032137047e-01,0.000000000000000000e+00,-7.180984795032137047e-01
1.933333333333333348e+00,1.639785929236143589e+09,0.000000000000000000e+00,-6.874816788044868510e-01,0.000000000000000000e+00,-6.874816788044868510e-01
1.949999999999999956e+00,1.639785929252068043e+09,0.000000000000000000e+00,-6.215378003764593373e-01,0.000000000000000000e+00,-6.215378003764593373e-01
1.966666666666666563e+00,1.639785929269054651e+09,0.000000000000000000e+00,-5.815004456165859814e-01,0.000000000000000000e+00,-5.815004456165859814e-01
1.983333333333333393e+00,1.639785929286011934e+09,0.000000000000000000e+00,0.000000000000000000e+00,0.000000000000000000e+00,0.000000000000000000e+00
2.000000000000000000e+00,1.639785929305951595e+09,0.000000000000000000e+00,0.000000000000000000e+00,0.000000000000000000e+00,0.000000000000000000e+00
2.016666666666666607e+00,1.639785929321907759e+09,0.000000000000000000e+00,0.000000000000000000e+00,0.000000000000000000e+00,0.000000000000000000e+00
2.033333333333333215e+00,1.639785929337838411e+09,0.000000000000000000e+00,0.000000000000000000e+00,0.000000000000000000e+00,0.000000000000000000e+00
2.049999999999999822e+00,1.639785929355836153e+09,0.000000000000000000e+00,0.000000000000000000e+00,0.000000000000000000e+00,0.000000000000000000e+00
2.066666666666666430e+00,1.639785929370874882e+09,0.000000000000000000e+00,0.000000000000000000e+00,0.000000000000000000e+00,0.000000000000000000e+00
2.083333333333333481e+00,1.639785929390172958e+09,0.000000000000000000e+00,0.000000000000000000e+00,0.000000000000000000e+00,0.000000000000000000e+00
2.100000000000000089e+00,1.639785929407126904e+09,0.000000000000000000e+00,0.000000000000000000e+00,0.000000000000000000e+00,0.000000000000000000e+00
2.116666666666666696e+00,1.639785929421178102e+09,0.000000000000000000e+00,0.000000000000000000e+00,0.000000000000000000e+00,0.000000000000000000e+00
2.133333333333333304e+00,1.639785929439158201e+09,0.000000000000000000e+00,0.000000000000000000e+00,0.000000000000000000e+00,0.000000000000000000e+00
2.149999999999999911e+00,1.639785929456256866e+09,0.000000000000000000e+00,0.000000000000000000e+00,0.000000000000000000e+00,0.000000000000000000e+00
2.166666666666666519e+00,1.639785929473212242e+09,0.000000000000000000e+00,0.000000000000000000e+00,0.000000000000000000e+00,0.000000000000000000e+00
2.183333333333333126e+00,1.639785929492152452e+09,0.000000000000000000e+00,0.000000000000000000e+00,0.000000000000000000e+00,0.000000000000000000e+00
2.200000000000000178e+00,1.639785929507113695e+09,0.000000000000000000e+00,0.000000000000000000e+00,0.000000000000000000e+00,0.000000000000000000e+00
2.216666666666666785e+00,1.639785929525353193e+09,0.000000000000000000e+00,0.000000000000000000e+00,0.000000000000000000e+00,0.000000000000000000e+00
2.233333333333333393e+00,1.639785929543297768e+09,0.000000000000000000e+00,0.000000000000000000e+00,0.000000000000000000e+00,0.000000000000000000e+00
2.250000000000000000e+00,1.639785929557882071e+09,0.000000000000000000e+00,0.000000000000000000e+00,0.000000000000000000e+00,0.000000000000000000e+00
2.266666666666666607e+00,1.639785929576400995e+09,0.000000000000000000e+00,0.000000000000000000e+00,0.000000000000000000e+00,0.000000000000000000e+00
2.283333333333333215e+00,1.639785929593685389e+09,0.000000000000000000e+00,0.000000000000000000e+00,0.000000000000000000e+00,0.000000000000000000e+00
2.299999999999999822e+00,1.639785929611634731e+09,0.000000000000000000e+00,0.000000000000000000e+00,0.000000000000000000e+00,0.000000000000000000e+00
2.316666666666666430e+00,1.639785929627878904e+09,0.000000000000000000e+00,0.000000000000000000e+00,0.000000000000000000e+00,0.000000000000000000e+00
2.333333333333333481e+00,1.639785929642423391e+09,0.000000000000000000e+00,0.000000000000000000e+00,0.000000000000000000e+00,0.000000000000000000e+00
2.350000000000000089e+00,1.639785929660374403e+09,0.000000000000000000e+00,0.000000000000000000e+00,0.000000000000000000e+00,0.000000000000000000e+00
2.366666666666666696e+00,1.639785929677321434e+09,0.000000000000000000e+00,-6.121172463153127241e-01,0.000000000000000000e+00,-6.121172463153127241e-01
2.383333333333333304e+00,1.639785929694414854e+09,0.000000000000000000e+00,-8.546965133898422051e-01,0.000000000000000000e+00,-8.546965133898422051e-01
2.399999999999999911e+00,1.639785929711816788e+09,0.000000000000000000e+00,-8.758927600274214464e-01,0.000000000000000000e+00,-8.758927600274214464e-01
2.416666666666666519e+00,1.639785929728999138e+09,0.000000000000000000e+00,-8.523413748745559682e-01,0.000000000000000000e+00,-8.523413748745559682e-01
2.433333333333333126e+00,1.639785929746345520e+09,0.000000000000000000e+00,-8.829581755732818227e-01,0.000000000000000000e+00,-8.829581755732818227e-01
2.450000000000000178e+00,1.639785929762428522e+09,0.000000000000000000e+00,-7.416498646560808483e-01,0.000000000000000000e+00,-7.416498646560808483e-01
2.466666666666666785e+00,1.639785929779375315e+09,0.000000000000000000e+00,-7.157433409879274677e-01,0.000000000000000000e+00,-7.157433409879274677e-01
2.483333333333333393e+00,1.639785929795779705e+09,0.000000000000000000e+00,0.000000000000000000e+00,0.000000000000000000e+00,0.000000000000000000e+00
2.500000000000000000e+00,1.639785929813730478e+09,0.000000000000000000e+00,0.000000000000000000e+00,0.000000000000000000e+00,0.000000000000000000e+00
2.516666666666666607e+00,1.639785929830424070e+09,0.000000000000000000e+00,0.000000000000000000e+00,0.000000000000000000e+00,0.000000000000000000e+00
2.533333333333333215e+00,1.639785929845798016e+09,0.000000000000000000e+00,0.000000000000000000e+00,0.000000000000000000e+00,0.000000000000000000e+00
2.549999999999999822e+00,1.639785929865097761e+09,0.000000000000000000e+00,0.000000000000000000e+00,0.000000000000000000e+00,0.000000000000000000e+00
2.566666666666666430e+00,1.639785929881059408e+09,0.000000000000000000e+00,0.000000000000000000e+00,0.000000000000000000e+00,0.000000000000000000e+00
2.583333333333333481e+00,1.639785929898986816e+09,0.000000000000000000e+00,0.000000000000000000e+00,0.000000000000000000e+00,0.000000000000000000e+00
2.600000000000000089e+00,1.639785929913263798e+09,0.000000000000000000e+00,0.000000000000000000e+00,0.000000000000000000e+00,0.000000000000000000e+00
2.616666666666666696e+00,1.639785929931189537e+09,0.000000000000000000e+00,0.000000000000000000e+00,0.000000000000000000e+00,0.000000000000000000e+00
2.633333333333333304e+00,1.639785929948143959e+09,0.000000000000000000e+00,0.000000000000000000e+00,0.000000000000000000e+00,0.000000000000000000e+00
2.649999999999999911e+00,1.639785929966145039e+09,0.000000000000000000e+00,0.000000000000000000e+00,0.000000000000000000e+00,0.000000000000000000e+00
2.666666666666666519e+00,1.639785929980442762e+09,0.000000000000000000e+00,0.000000000000000000e+00,0.000000000000000000e+00,0.000000000000000000e+00
2.683333333333333126e+00,1.639785929997419357e+09,0.000000000000000000e+00,0.000000000000000000e+00,0.000000000000000000e+00,0.000000000000000000e+00
2.700000000000000178e+00,1.639785930014374256e+09,0.000000000000000000e+00,0.000000000000000000e+00,0.000000000000000000e+00,0.000000000000000000e+00
2.716666666666666785e+00,1.639785930031329393e+09,0.000000000000000000e+00,0.000000000000000000e+00,0.000000000000000000e+00,0.000000000000000000e+00
2.733333333333333393e+00,1.639785930048649311e+09,0.000000000000000000e+00,0.000000000000000000e+00,0.000000000000000000e+00,0.000000000000000000e+00
2.750000000000000000e+00,1.639785930065223932e+09,0.000000000000000000e+00,0.000000000000000000e+00,0.000000000000000000e+00,0.000000000000000000e+00
2.766666666666666607e+00,1.639785930083157301e+09,0.000000000000000000e+00,0.000000000000000000e+00,0.000000000000000000e+00,0.000000000000000000e+00
2.783333333333333215e+00,1.639785930099389076e+09,0.000000000000000000e+00,0.000000000000000000e+00,0.000000000000000000e+00,0.000000000000000000e+00
2.799999999999999822e+00,1.639785930116336107e+09,0.000000000000000000e+00,0.000000000000000000e+00,0.000000000000000000e+00,0.000000000000000000e+00
2.816666666666666430e+00,1.639785930134404659e+09,0.000000000000000000e+00,0.000000000000000000e+00,0.000000000000000000e+00,0.000000000000000000e+00
2.833333333333333481e+00,1.639785930154560089e+09,0.000000000000000000e+00,0.000000000000000000e+00,0.000000000000000000e+00,0.000000000000000000e+00
2.850000000000000089e+00,1.639785930169110537e+09,0.000000000000000000e+00,0.000000000000000000e+00,0.000000000000000000e+00,0.000000000000000000e+00
2.866666666666666696e+00,1.639785930185537815e+09,0.000000000000000000e+00,0.000000000000000000e+00,0.000000000000000000e+00,0.000000000000000000e+00
2.883333333333333304e+00,1.639785930202091932e+09,0.000000000000000000e+00,0.000000000000000000e+00,0.000000000000000000e+00,0.000000000000000000e+00
2.899999999999999911e+00,1.639785930219197273e+09,0.000000000000000000e+00,-7.416498646560808483e-01,0.000000000000000000e+00,-7.416498646560808483e-01
2.916666666666666519e+00,1.639785930233383417e+09,0.000000000000000000e+00,-8.311451282369749505e-01,0.000000000000000000e+00,-8.311451282369749505e-01
2.933333333333333126e+00,1.639785930250390530e+09,0.000000000000000000e+00,-7.793320809006679672e-01,0.000000000000000000e+00,-7.793320809006679672e-01
2.950000000000000178e+00,1.639785930267741919e+09,0.000000000000000000e+00,-8.735376215121352095e-01,0.000000000000000000e+00,-8.735376215121352095e-01
2.966666666666666785e+00,1.639785930286264658e+09,0.000000000000000000e+00,-8.970890066650025751e-01,0.000000000000000000e+00,-8.970890066650025751e-01
2.983333333333333393e+00,1.639785930304425716e+09,0.000000000000000000e+00,-8.876684526038559619e-01,0.000000000000000000e+00,-8.876684526038559619e-01
3.000000000000000000e+00,1.639785930319057703e+09,0.000000000000000000e+00,-8.005283275382480968e-01,0.000000000000000000e+00,-8.005283275382480968e-01
3.016666666666666607e+00,1.639785930336176872e+09,0.000000000000000000e+00,-7.463601416866542104e-01,0.000000000000000000e+00,-7.463601416866542104e-01
3.033333333333333215e+00,1.639785930351159096e+09,0.000000000000000000e+00,-7.628461112936611999e-01,0.000000000000000000e+00,-7.628461112936611999e-01
3.049999999999999822e+00,1.639785930368110895e+09,0.000000000000000000e+00,-6.780611247433403488e-01,0.000000000000000000e+00,-6.780611247433403488e-01
3.066666666666666430e+00,1.639785930387017965e+09,0.000000000000000000e+00,-6.144723848305997382e-01,0.000000000000000000e+00,-6.144723848305997382e-01
3.083333333333333481e+00,1.639785930403961897e+09,0.000000000000000000e+00,-6.521546010751868572e-01,0.000000000000000000e+00,-6.521546010751868572e-01
3.100000000000000089e+00,1.639785930423909903e+09,0.000000000000000000e+00,-5.461733678872859876e-01,0.000000000000000000e+00,-5.461733678872859876e-01
3.116666666666666696e+00,1.639785930437904596e+09,0.000000000000000000e+00,-5.532387834331454757e-01,0.000000000000000000e+00,-5.532387834331454757e-01
3.133333333333333304e+00,1.639785930453829288e+09,0.000000000000000000e+00,-5.815004456165859814e-01,0.000000000000000000e+00,-5.815004456165859814e-01
3.149999999999999911e+00,1.639785930472779512e+09,0.000000000000000000e+00,-7.133882024726404536e-01,0.000000000000000000e+00,-7.133882024726404536e-01
3.166666666666666519e+00,1.639785930492750645e+09,0.000000000000000000e+00,-5.838555841318729955e-01,0.000000000000000000e+00,-5.838555841318729955e-01
3.183333333333333126e+00,1.639785930506688118e+09,0.000000000000000000e+00,-5.532387834331454757e-01,0.000000000000000000e+00,-5.532387834331454757e-01
3.200000000000000178e+00,1.639785930524640083e+09,0.000000000000000000e+00,0.000000000000000000e+00,0.000000000000000000e+00,0.000000000000000000e+00
3.216666666666666785e+00,1.639785930544585466e+09,0.000000000000000000e+00,0.000000000000000000e+00,0.000000000000000000e+00,0.000000000000000000e+00
3.233333333333333393e+00,1.639785930562537909e+09,0.000000000000000000e+00,0.000000000000000000e+00,0.000000000000000000e+00,0.000000000000000000e+00
3.250000000000000000e+00,1.639785930574506521e+09,0.000000000000000000e+00,0.000000000000000000e+00,0.000000000000000000e+00,0.000000000000000000e+00
3.266666666666666607e+00,1.639785930594452858e+09,0.000000000000000000e+00,-6.074069692847393620e-01,0.000000000000000000e+00,-6.074069692847393620e-01
3.283333333333333215e+00,1.639785930609438419e+09,0.000000000000000000e+00,-6.639302936516204845e-01,0.000000000000000000e+00,-6.639302936516204845e-01
3.299999999999999822e+00,1.639785930627365351e+09,0.000000000000000000e+00,-6.898368173197739761e-01,0.000000000000000000e+00,-6.898368173197739761e-01
3.316666666666666430e+00,1.639785930645317316e+09,0.000000000000000000e+00,-7.345844491102205831e-01,0.000000000000000000e+00,-7.345844491102205831e-01
3.333333333333333481e+00,1.639785930664266109e+09,0.000000000000000000e+00,-7.628461112936611999e-01,0.000000000000000000e+00,-7.628461112936611999e-01
3.350000000000000089e+00,1.639785930679225922e+09,0.000000000000000000e+00,0.000000000000000000e+00,0.000000000000000000e+00,0.000000000000000000e+00
3.366666666666666696e+00,1.639785930697177887e+09,0.000000000000000000e+00,-6.168275233458859752e-01,0.000000000000000000e+00,-6.168275233458859752e-01
3.383333333333333304e+00,1.639785930712138176e+09,0.000000000000000000e+00,-7.251638950490739699e-01,0.000000000000000000e+00,-7.251638950490739699e-01
3.399999999999999911e+00,1.639785930730360985e+09,0.000000000000000000e+00,-8.193694356605421003e-01,0.000000000000000000e+00,-8.193694356605421003e-01
3.416666666666666519e+00,1.639785930748309612e+09,0.000000000000000000e+00,-7.440050031713679735e-01,0.000000000000000000e+00,-7.440050031713679735e-01
3.433333333333333126e+00,1.639785930764288187e+09,0.000000000000000000e+00,-8.028834660535352219e-01,0.000000000000000000e+00,-8.028834660535352219e-01
3.449999999999999734e+00,1.639785930780244112e+09,0.000000000000000000e+00,-7.746218038700947162e-01,0.000000000000000000e+00,-7.746218038700947162e-01
3.466666666666666785e+00,1.639785930799166679e+09,0.000000000000000000e+00,-6.191826618611731003e-01,0.000000000000000000e+00,-6.191826618611731003e-01
3.483333333333333393e+00,1.639785930816140175e+09,0.000000000000000000e+00,-5.909209996777324836e-01,0.000000000000000000e+00,-5.909209996777324836e-01
3.500000000000000000e+00,1.639785930832840204e+09,0.000000000000000000e+00,0.000000000000000000e+00,0.000000000000000000e+00,0.000000000000000000e+00
3.516666666666666607e+00,1.639785930850803614e+09,0.000000000000000000e+00,0.000000000000000000e+00,0.000000000000000000e+00,0.000000000000000000e+00
3.533333333333333215e+00,1.639785930866878986e+09,0.000000000000000000e+00,0.000000000000000000e+00,0.000000000000000000e+00,0.000000000000000000e+00
3.549999999999999822e+00,1.639785930885844707e+09,0.000000000000000000e+00,-5.603041989790057409e-01,0.000000000000000000e+00,-5.603041989790057409e-01
3.566666666666666430e+00,1.639785930903807402e+09,0.000000000000000000e+00,-5.744350300707256052e-01,0.000000000000000000e+00,-5.744350300707256052e-01
3.583333333333333481e+00,1.639785930918609858e+09,0.000000000000000000e+00,-5.720798915554393682e-01,0.000000000000000000e+00,-5.720798915554393682e-01
3.600000000000000089e+00,1.639785930937662840e+09,0.000000000000000000e+00,-7.722666653548075910e-01,0.000000000000000000e+00,-7.722666653548075910e-01
3.616666666666666696e+00,1.639785930952923059e+09,0.000000000000000000e+00,-7.557806957478008236e-01,0.000000000000000000e+00,-7.557806957478008236e-01
3.633333333333333304e+00,1.639785930971020460e+09,0.000000000000000000e+00,-8.193694356605421003e-01,0.000000000000000000e+00,-8.193694356605421003e-01
3.649999999999999911e+00,1.639785930987975597e+09,0.000000000000000000e+00,-8.264348512064016994e-01,0.000000000000000000e+00,-8.264348512064016994e-01
3.666666666666666519e+00,1.639785931005894423e+09,0.000000000000000000e+00,-7.840423579312413294e-01,0.000000000000000000e+00,-7.840423579312413294e-01
3.683333333333333126e+00,1.639785931022699356e+09,0.000000000000000000e+00,-7.322293105949343461e-01,0.000000000000000000e+00,-7.322293105949343461e-01
3.699999999999999734e+00,1.639785931040105820e+09,0.000000000000000000e+00,-7.345844491102205831e-01,0.000000000000000000e+00,-7.345844491102205831e-01
3.716666666666666785e+00,1.639785931056119442e+09,0.000000000000000000e+00,-6.568648781057601083e-01,0.000000000000000000e+00,-6.568648781057601083e-01
3.733333333333333393e+00,1.639785931073066711e+09,0.000000000000000000e+00,-7.180984795032137047e-01,0.000000000000000000e+00,-7.180984795032137047e-01
3.750000000000000000e+00,1.639785931091008902e+09,0.000000000000000000e+00,-6.662854321669067215e-01,0.000000000000000000e+00,-6.662854321669067215e-01
3.766666666666666607e+00,1.639785931109967947e+09,0.000000000000000000e+00,-6.380237699834662157e-01,0.000000000000000000e+00,-6.380237699834662157e-01
3.783333333333333215e+00,1.639785931126150846e+09,0.000000000000000000e+00,0.000000000000000000e+00,0.000000000000000000e+00,0.000000000000000000e+00
3.799999999999999822e+00,1.639785931141712666e+09,0.000000000000000000e+00,0.000000000000000000e+00,0.000000000000000000e+00,0.000000000000000000e+00
3.816666666666666430e+00,1.639785931158664703e+09,0.000000000000000000e+00,-5.909209996777324836e-01,0.000000000000000000e+00,-5.909209996777324836e-01
3.833333333333333481e+00,1.639785931177258968e+09,0.000000000000000000e+00,-7.110330639573542166e-01,0.000000000000000000e+00,-7.110330639573542166e-01
3.850000000000000089e+00,1.639785931193492889e+09,0.000000000000000000e+00,-7.934629119923877205e-01,0.000000000000000000e+00,-7.934629119923877205e-01
3.866666666666666696e+00,1.639785931211615086e+09,0.000000000000000000e+00,-7.652012498089481030e-01,0.000000000000000000e+00,-7.652012498089481030e-01
3.883333333333333304e+00,1.639785931227743149e+09,0.000000000000000000e+00,-6.992573713809204783e-01,0.000000000000000000e+00,-6.992573713809204783e-01
3.899999999999999911e+00,1.639785931245470762e+09,0.000000000000000000e+00,-7.887526349618145804e-01,0.000000000000000000e+00,-7.887526349618145804e-01
3.916666666666666519e+00,1.639785931263809443e+09,0.000000000000000000e+00,-7.180984795032137047e-01,0.000000000000000000e+00,-7.180984795032137047e-01
3.933333333333333126e+00,1.639785931277604818e+09,0.000000000000000000e+00,-6.050518307694532361e-01,0.000000000000000000e+00,-6.050518307694532361e-01
3.949999999999999734e+00,1.639785931295583963e+09,0.000000000000000000e+00,0.000000000000000000e+00,0.000000000000000000e+00,0.000000000000000000e+00
3.966666666666666785e+00,1.639785931315584898e+09,0.000000000000000000e+00,0.000000000000000000e+00,0.000000000000000000e+00,0.000000000000000000e+00
3.983333333333333393e+00,1.639785931331187963e+09,0.000000000000000000e+00,0.000000000000000000e+00,0.000000000000000000e+00,0.000000000000000000e+00
4.000000000000000000e+00,1.639785931350111246e+09,0.000000000000000000e+00,-5.532387834331454757e-01,0.000000000000000000e+00,-5.532387834331454757e-01
4.016666666666666607e+00,1.639785931364127398e+09,0.000000000000000000e+00,0.000000000000000000e+00,0.000000000000000000e+00,0.000000000000000000e+00
4.033333333333333215e+00,1.639785931380098104e+09,0.000000000000000000e+00,0.000000000000000000e+00,0.000000000000000000e+00,0.000000000000000000e+00
4.049999999999999822e+00,1.639785931397333622e+09,0.000000000000000000e+00,0.000000000000000000e+00,0.000000000000000000e+00,0.000000000000000000e+00
4.066666666666666430e+00,1.639785931416253328e+09,0.000000000000000000e+00,0.000000000000000000e+00,0.000000000000000000e+00,0.000000000000000000e+00
4.083333333333333037e+00,1.639785931430571795e+09,0.000000000000000000e+00,0.000000000000000000e+00,0.000000000000000000e+00,0.000000000000000000e+00
4.099999999999999645e+00,1.639785931448710203e+09,0.000000000000000000e+00,0.000000000000000000e+00,0.000000000000000000e+00,0.000000000000000000e+00
4.116666666666666252e+00,1.639785931465378761e+09,0.000000000000000000e+00,0.000000000000000000e+00,0.000000000000000000e+00,0.000000000000000000e+00
4.133333333333332860e+00,1.639785931483584881e+09,0.000000000000000000e+00,0.000000000000000000e+00,0.000000000000000000e+00,0.000000000000000000e+00
4.150000000000000355e+00,1.639785931499634981e+09,0.000000000000000000e+00,0.000000000000000000e+00,0.000000000000000000e+00,0.000000000000000000e+00
4.166666666666666963e+00,1.639785931514000893e+09,0.000000000000000000e+00,0.000000000000000000e+00,0.000000000000000000e+00,0.000000000000000000e+00
4.183333333333333570e+00,1.639785931534295082e+09,0.000000000000000000e+00,0.000000000000000000e+00,0.000000000000000000e+00,0.000000000000000000e+00
4.200000000000000178e+00,1.639785931549657583e+09,0.000000000000000000e+00,0.000000000000000000e+00,0.000000000000000000e+00,0.000000000000000000e+00
4.216666666666666785e+00,1.639785931566178083e+09,0.000000000000000000e+00,0.000000000000000000e+00,0.000000000000000000e+00,0.000000000000000000e+00
4.233333333333333393e+00,1.639785931582492352e+09,0.000000000000000000e+00,0.000000000000000000e+00,0.000000000000000000e+00,0.000000000000000000e+00
4.250000000000000000e+00,1.639785931600492001e+09,0.000000000000000000e+00,0.000000000000000000e+00,0.000000000000000000e+00,0.000000000000000000e+00
4.266666666666666607e+00,1.639785931617790699e+09,0.000000000000000000e+00,0.000000000000000000e+00,0.000000000000000000e+00,0.000000000000000000e+00
4.283333333333333215e+00,1.639785931631706715e+09,0.000000000000000000e+00,0.000000000000000000e+00,0.000000000000000000e+00,0.000000000000000000e+00
4.299999999999999822e+00,1.639785931650842190e+09,0.000000000000000000e+00,0.000000000000000000e+00,0.000000000000000000e+00,0.000000000000000000e+00
4.316666666666666430e+00,1.639785931667785883e+09,0.000000000000000000e+00,0.000000000000000000e+00,0.000000000000000000e+00,0.000000000000000000e+00
4.333333333333333037e+00,1.639785931684798002e+09,0.000000000000000000e+00,0.000000000000000000e+00,0.000000000000000000e+00,0.000000000000000000e+00
4.349999999999999645e+00,1.639785931701809168e+09,0.000000000000000000e+00,0.000000000000000000e+00,0.000000000000000000e+00,0.000000000000000000e+00
4.366666666666666252e+00,1.639785931719707489e+09,0.000000000000000000e+00,0.000000000000000000e+00,0.000000000000000000e+00,0.000000000000000000e+00
4.383333333333332860e+00,1.639785931736342192e+09,0.000000000000000000e+00,-7.251638950490739699e-01,0.000000000000000000e+00,-7.251638950490739699e-01
4.400000000000000355e+00,1.639785931752343893e+09,0.000000000000000000e+00,-7.652012498089481030e-01,0.000000000000000000e+00,-7.652012498089481030e-01
4.416666666666666963e+00,1.639785931768783808e+09,0.000000000000000000e+00,-7.887526349618145804e-01,0.000000000000000000e+00,-7.887526349618145804e-01
4.433333333333333570e+00,1.639785931786444187e+09,0.000000000000000000e+00,-7.063227869267808545e-01,0.000000000000000000e+00,-7.063227869267808545e-01
4.450000000000000178e+00,1.639785931802446604e+09,0.000000000000000000e+00,-6.592200166210463452e-01,0.000000000000000000e+00,-6.592200166210463452e-01
4.466666666666666785e+00,1.639785931819510221e+09,0.000000000000000000e+00,-5.744350300707256052e-01,0.000000000000000000e+00,-5.744350300707256052e-01
4.483333333333333393e+00,1.639785931838431835e+09,0.000000000000000000e+00,-6.427340470140403550e-01,0.000000000000000000e+00,-6.427340470140403550e-01
4.500000000000000000e+00,1.639785931854295492e+09,0.000000000000000000e+00,-5.673696145248661171e-01,0.000000000000000000e+00,-5.673696145248661171e-01
4.516666666666666607e+00,1.639785931872278690e+09,0.000000000000000000e+00,0.000000000000000000e+00,0.000000000000000000e+00,0.000000000000000000e+00
4.533333333333333215e+00,1.639785931889228344e+09,0.000000000000000000e+00,0.000000000000000000e+00,0.000000000000000000e+00,0.000000000000000000e+00
4.549999999999999822e+00,1.639785931903816223e+09,0.000000000000000000e+00,0.000000000000000000e+00,0.000000000000000000e+00,0.000000000000000000e+00
4.566666666666666430e+00,1.639785931922433376e+09,0.000000000000000000e+00,0.000000000000000000e+00,0.000000000000000000e+00,0.000000000000000000e+00
4.583333333333333037e+00,1.639785931939592361e+09,0.000000000000000000e+00,0.000000000000000000e+00,0.000000000000000000e+00,0.000000000000000000e+00
4.599999999999999645e+00,1.639785931956313848e+09,0.000000000000000000e+00,0.000000000000000000e+00,0.000000000000000000e+00,0.000000000000000000e+00
4.616666666666666252e+00,1.639785931972270727e+09,0.000000000000000000e+00,0.000000000000000000e+00,0.000000000000000000e+00,0.000000000000000000e+00
4.633333333333332860e+00,1.639785931991219997e+09,0.000000000000000000e+00,0.000000000000000000e+00,0.000000000000000000e+00,0.000000000000000000e+00
4.650000000000000355e+00,1.639785932006545305e+09,0.000000000000000000e+00,0.000000000000000000e+00,0.000000000000000000e+00,0.000000000000000000e+00
4.666666666666666963e+00,1.639785932024922848e+09,0.000000000000000000e+00,0.000000000000000000e+00,0.000000000000000000e+00,0.000000000000000000e+00
4.683333333333333570e+00,1.639785932041225195e+09,0.000000000000000000e+00,0.000000000000000000e+00,0.000000000000000000e+00,0.000000000000000000e+00
4.700000000000000178e+00,1.639785932057948112e+09,0.000000000000000000e+00,0.000000000000000000e+00,0.000000000000000000e+00,0.000000000000000000e+00
4.716666666666666785e+00,1.639785932077153921e+09,0.000000000000000000e+00,0.000000000000000000e+00,0.000000000000000000e+00,0.000000000000000000e+00
4.733333333333333393e+00,1.639785932092114210e+09,0.000000000000000000e+00,0.000000000000000000e+00,0.000000000000000000e+00,0.000000000000000000e+00
4.750000000000000000e+00,1.639785932107829809e+09,0.000000000000000000e+00,0.000000000000000000e+00,0.000000000000000000e+00,0.000000000000000000e+00
4.766666666666666607e+00,1.639785932126730204e+09,0.000000000000000000e+00,0.000000000000000000e+00,0.000000000000000000e+00,0.000000000000000000e+00
4.783333333333333215e+00,1.639785932145680904e+09,0.000000000000000000e+00,0.000000000000000000e+00,0.000000000000000000e+00,0.000000000000000000e+00
4.799999999999999822e+00,1.639785932161638260e+09,0.000000000000000000e+00,0.000000000000000000e+00,0.000000000000000000e+00,0.000000000000000000e+00
4.816666666666666430e+00,1.639785932179962397e+09,0.000000000000000000e+00,0.000000000000000000e+00,0.000000000000000000e+00,0.000000000000000000e+00
4.833333333333333037e+00,1.639785932194901705e+09,0.000000000000000000e+00,0.000000000000000000e+00,0.000000000000000000e+00,0.000000000000000000e+00
4.849999999999999645e+00,1.639785932212211847e+09,0.000000000000000000e+00,0.000000000000000000e+00,0.000000000000000000e+00,0.000000000000000000e+00
4.866666666666666252e+00,1.639785932229295492e+09,0.000000000000000000e+00,0.000000000000000000e+00,0.000000000000000000e+00,0.000000000000000000e+00
4.883333333333332860e+00,1.639785932245328903e+09,0.000000000000000000e+00,0.000000000000000000e+00,0.000000000000000000e+00,0.000000000000000000e+00
4.900000000000000355e+00,1.639785932263280630e+09,0.000000000000000000e+00,0.000000000000000000e+00,0.000000000000000000e+00,0.000000000000000000e+00
4.916666666666666963e+00,1.639785932278367758e+09,0.000000000000000000e+00,0.000000000000000000e+00,0.000000000000000000e+00,0.000000000000000000e+00
4.933333333333333570e+00,1.639785932297039509e+09,0.000000000000000000e+00,0.000000000000000000e+00,0.000000000000000000e+00,0.000000000000000000e+00
4.950000000000000178e+00,1.639785932316200733e+09,0.000000000000000000e+00,0.000000000000000000e+00,0.000000000000000000e+00,0.000000000000000000e+00
4.966666666666666785e+00,1.639785932330464602e+09,0.000000000000000000e+00,0.000000000000000000e+00,0.000000000000000000e+00,0.000000000000000000e+00
4.983333333333333393e+00,1.639785932346759081e+09,0.000000000000000000e+00,0.000000000000000000e+00,0.000000000000000000e+00,0.000000000000000000e+00
5.000000000000000000e+00,1.639785932365676165e+09,0.000000000000000000e+00,0.000000000000000000e+00,0.000000000000000000e+00,0.000000000000000000e+00
5.016666666666666607e+00,1.639785932383627892e+09,0.000000000000000000e+00,0.000000000000000000e+00,0.000000000000000000e+00,0.000000000000000000e+00
5.033333333333333215e+00,1.639785932400050879e+09,0.000000000000000000e+00,0.000000000000000000e+00,0.000000000000000000e+00,0.000000000000000000e+00
5.049999999999999822e+00,1.639785932416830778e+09,0.000000000000000000e+00,0.000000000000000000e+00,0.000000000000000000e+00,0.000000000000000000e+00
5.066666666666666430e+00,1.639785932432192326e+09,0.000000000000000000e+00,0.000000000000000000e+00,0.000000000000000000e+00,0.000000000000000000e+00
5.083333333333333037e+00,1.639785932448768616e+09,0.000000000000000000e+00,0.000000000000000000e+00,0.000000000000000000e+00,0.000000000000000000e+00
5.099999999999999645e+00,1.639785932463723183e+09,0.000000000000000000e+00,0.000000000000000000e+00,0.000000000000000000e+00,0.000000000000000000e+00
5.116666666666666252e+00,1.639785932482427120e+09,0.000000000000000000e+00,0.000000000000000000e+00,0.000000000000000000e+00,0.000000000000000000e+00
5.133333333333332860e+00,1.639785932500373602e+09,0.000000000000000000e+00,0.000000000000000000e+00,0.000000000000000000e+00,0.000000000000000000e+00
5.150000000000000355e+00,1.639785932517326117e+09,0.000000000000000000e+00,0.000000000000000000e+00,0.000000000000000000e+00,0.000000000000000000e+00
5.166666666666666963e+00,1.639785932534496784e+09,0.000000000000000000e+00,0.000000000000000000e+00,0.000000000000000000e+00,0.000000000000000000e+00
5.183333333333333570e+00,1.639785932552651882e+09,0.000000000000000000e+00,0.000000000000000000e+00,0.000000000000000000e+00,0.000000000000000000e+00
5.200000000000000178e+00,1.639785932565861940e+09,0.000000000000000000e+00,0.000000000000000000e+00,0.000000000000000000e+00,0.000000000000000000e+00
5.216666666666666785e+00,1.639785932584801912e+09,0.000000000000000000e+00,0.000000000000000000e+00,0.000000000000000000e+00,0.000000000000000000e+00
5.233333333333333393e+00,1.639785932602618217e+09,0.000000000000000000e+00,0.000000000000000000e+00,0.000000000000000000e+00,0.000000000000000000e+00
5.250000000000000000e+00,1.639785932620091200e+09,0.000000000000000000e+00,0.000000000000000000e+00,0.000000000000000000e+00,0.000000000000000000e+00
5.266666666666666607e+00,1.639785932638490438e+09,0.000000000000000000e+00,0.000000000000000000e+00,0.000000000000000000e+00,0.000000000000000000e+00
5.283333333333333215e+00,1.639785932653469563e+09,0.000000000000000000e+00,0.000000000000000000e+00,0.000000000000000000e+00,0.000000000000000000e+00
5.299999999999999822e+00,1.639785932669640303e+09,0.000000000000000000e+00,0.000000000000000000e+00,0.000000000000000000e+00,0.000000000000000000e+00
5.316666666666666430e+00,1.639785932686585903e+09,0.000000000000000000e+00,0.000000000000000000e+00,0.000000000000000000e+00,0.000000000000000000e+00
5.333333333333333037e+00,1.639785932705330372e+09,0.000000000000000000e+00,0.000000000000000000e+00,0.000000000000000000e+00,0.000000000000000000e+00
5.349999999999999645e+00,1.639785932719877005e+09,0.000000000000000000e+00,0.000000000000000000e+00,0.000000000000000000e+00,0.000000000000000000e+00
5.366666666666666252e+00,1.639785932741803169e+09,0.000000000000000000e+00,0.000000000000000000e+00,0.000000000000000000e+00,0.000000000000000000e+00
5.383333333333332860e+00,1.639785932754782438e+09,0.000000000000000000e+00,0.000000000000000000e+00,0.000000000000000000e+00,0.000000000000000000e+00
5.400000000000000355e+00,1.639785932771733284e+09,0.000000000000000000e+00,0.000000000000000000e+00,0.000000000000000000e+00,0.000000000000000000e+00
5.416666666666666963e+00,1.639785932790679693e+09,0.000000000000000000e+00,0.000000000000000000e+00,0.000000000000000000e+00,0.000000000000000000e+00
5.433333333333333570e+00,1.639785932803874969e+09,0.000000000000000000e+00,0.000000000000000000e+00,0.000000000000000000e+00,0.000000000000000000e+00
5.450000000000000178e+00,1.639785932820829868e+09,0.000000000000000000e+00,0.000000000000000000e+00,0.000000000000000000e+00,0.000000000000000000e+00
5.466666666666666785e+00,1.639785932838942051e+09,0.000000000000000000e+00,0.000000000000000000e+00,0.000000000000000000e+00,0.000000000000000000e+00
5.483333333333333393e+00,1.639785932855931759e+09,0.000000000000000000e+00,0.000000000000000000e+00,0.000000000000000000e+00,0.000000000000000000e+00
5.500000000000000000e+00,1.639785932874660969e+09,0.000000000000000000e+00,0.000000000000000000e+00,0.000000000000000000e+00,0.000000000000000000e+00
