2021-12-12-20:19:41.198665,5.0,11.0,226.0
2021-12-12-20:19:41.199677,10.0,3.0,227.0
2021-12-12-20:19:41.199677,6.0,1.0,226.0
2021-12-12-20:19:41.200694,6.0,1.0,226.0
2021-12-12-20:19:41.201658,13.0,12.0,226.0
2021-12-12-20:19:41.202656,4.0,12.0,227.0
2021-12-12-20:19:41.203652,1.0,11.0,226.0
2021-12-12-20:19:41.204678,3.0,13.0,226.0
2021-12-12-20:19:41.205647,4.0,10.0,226.0
2021-12-12-20:19:41.206644,6.0,11.0,227.0
2021-12-12-20:19:41.207642,9.0,4.0,227.0
2021-12-12-20:19:41.208639,8.0,1.0,227.0
2021-12-12-20:19:41.209636,8.0,2.0,227.0
2021-12-12-20:19:41.210633,8.0,2.0,227.0
2021-12-12-20:19:41.212663,5.0,10.0,227.0
2021-12-12-20:19:41.213627,0.0,6.0,227.0
2021-12-12-20:19:41.213627,1.0,14.0,226.0
2021-12-12-20:19:41.214623,4.0,9.0,227.0
2021-12-12-20:19:41.215620,7.0,3.0,227.0
2021-12-12-20:19:41.216650,6.0,1.0,226.0
2021-12-12-20:19:41.217648,0.0,6.0,226.0
2021-12-12-20:19:41.218612,1.0,9.0,227.0
2021-12-12-20:19:41.219609,4.0,9.0,227.0
2021-12-12-20:19:41.220606,3.0,11.0,227.0
2021-12-12-20:19:41.221604,7.0,10.0,226.0
2021-12-12-20:19:41.222601,8.0,7.0,227.0
2021-12-12-20:19:41.223598,7.0,2.0,227.0
2021-12-12-20:19:41.224596,1.0,12.0,226.0
2021-12-12-20:19:41.225593,3.0,9.0,226.0
2021-12-12-20:19:41.226593,1.0,1.0,227.0
2021-12-12-20:19:41.227589,3.0,2.0,226.0
2021-12-12-20:19:41.228588,5.0,11.0,226.0
2021-12-12-20:19:41.229619,11.0,2.0,226.0
2021-12-12-20:19:41.230618,7.0,2.0,226.0
2021-12-12-20:19:41.231612,1.0,6.0,226.0
2021-12-12-20:19:41.232575,5.0,13.0,226.0
2021-12-12-20:19:41.233572,10.0,1.0,226.0
2021-12-12-20:19:41.234571,9.0,2.0,226.0
2021-12-12-20:19:41.235569,6.0,6.0,226.0
2021-12-12-20:19:41.236567,5.0,3.0,227.0
2021-12-12-20:19:41.237563,1.0,8.0,226.0
2021-12-12-20:19:41.238561,3.0,9.0,226.0
2021-12-12-20:19:41.239563,3.0,15.0,227.0
2021-12-12-20:19:41.240557,11.0,4.0,226.0
2021-12-12-20:19:41.241553,6.0,0.0,226.0
2021-12-12-20:19:41.242550,5.0,9.0,227.0
2021-12-12-20:19:41.244544,1.0,10.0,226.0
2021-12-12-20:19:41.245542,3.0,5.0,226.0
2021-12-12-20:19:41.245542,4.0,14.0,226.0
2021-12-12-20:19:41.246539,6.0,1.0,226.0
2021-12-12-20:19:41.247536,6.0,8.0,226.0
2021-12-12-20:19:41.248534,2.0,4.0,226.0
2021-12-12-20:19:41.249531,2.0,9.0,227.0
2021-12-12-20:19:41.250528,7.0,16.0,226.0
2021-12-12-20:19:41.251526,10.0,1.0,226.0
2021-12-12-20:19:41.252523,3.0,12.0,226.0
2021-12-12-20:19:41.253520,1.0,4.0,226.0
2021-12-12-20:19:41.254517,6.0,11.0,225.0
2021-12-12-20:19:41.255515,5.0,8.0,226.0
2021-12-12-20:19:41.256512,7.0,4.0,225.0
2021-12-12-20:19:41.257510,6.0,7.0,226.0
2021-12-12-20:19:41.258507,1.0,7.0,225.0
2021-12-12-20:19:41.259504,0.0,13.0,225.0
2021-12-12-20:19:41.260502,5.0,10.0,225.0
2021-12-12-20:19:41.261497,4.0,4.0,225.0
2021-12-12-20:19:41.262495,8.0,2.0,225.0
2021-12-12-20:19:41.263492,10.0,1.0,225.0
2021-12-12-20:19:41.264490,7.0,1.0,224.0
2021-12-12-20:19:41.265489,6.0,5.0,225.0
2021-12-12-20:19:41.266486,1.0,11.0,224.0
2021-12-12-20:19:41.267515,6.0,2.0,224.0
2021-12-12-20:19:41.268513,9.0,1.0,224.0
2021-12-12-20:19:41.269509,3.0,9.0,224.0
2021-12-12-20:19:41.270474,1.0,5.0,224.0
2021-12-12-20:19:41.271471,1.0,10.0,224.0
2021-12-12-20:19:41.272468,3.0,5.0,223.0
2021-12-12-20:19:41.273499,6.0,5.0,224.0
2021-12-12-20:19:41.274463,8.0,3.0,223.0
2021-12-12-20:19:41.275460,2.0,6.0,223.0
2021-12-12-20:19:41.276457,0.0,12.0,224.0
2021-12-12-20:19:41.277455,6.0,11.0,224.0
2021-12-12-20:19:41.279449,6.0,11.0,224.0
2021-12-12-20:19:41.279449,5.0,13.0,223.0
2021-12-12-20:19:41.280446,6.0,7.0,223.0
2021-12-12-20:19:41.281444,13.0,4.0,223.0
2021-12-12-20:19:41.282442,9.0,2.0,223.0
2021-12-12-20:19:41.283439,7.0,0.0,223.0
2021-12-12-20:19:41.284436,6.0,13.0,223.0
2021-12-12-20:19:41.285434,10.0,11.0,223.0
2021-12-12-20:19:41.286463,8.0,3.0,223.0
2021-12-12-20:19:41.287465,4.0,0.0,223.0
2021-12-12-20:19:41.288426,1.0,12.0,223.0
2021-12-12-20:19:41.289457,4.0,13.0,223.0
2021-12-12-20:19:41.290458,10.0,6.0,223.0
2021-12-12-20:19:41.291451,6.0,12.0,223.0
2021-12-12-20:19:41.292456,1.0,8.0,223.0
2021-12-12-20:19:41.293446,2.0,17.0,223.0
2021-12-12-20:19:41.294444,3.0,8.0,223.0
2021-12-12-20:19:41.295445,9.0,4.0,223.0
2021-12-12-20:19:41.296405,9.0,1.0,223.0
2021-12-12-20:19:41.297435,5.0,4.0,223.0
2021-12-12-20:19:41.298437,2.0,11.0,223.0
2021-12-12-20:19:41.299430,7.0,15.0,223.0
2021-12-12-20:19:41.300428,12.0,5.0,223.0
2021-12-12-20:19:41.301425,7.0,1.0,223.0
2021-12-12-20:19:41.302388,2.0,7.0,223.0
2021-12-12-20:19:41.303420,10.0,4.0,223.0
2021-12-12-20:19:41.304416,4.0,5.0,223.0
2021-12-12-20:19:41.305415,0.0,11.0,223.0
2021-12-12-20:19:41.306409,6.0,9.0,222.0
2021-12-12-20:19:41.307408,9.0,4.0,223.0
2021-12-12-20:19:41.308407,9.0,4.0,222.0
2021-12-12-20:19:41.309402,1.0,10.0,222.0
2021-12-12-20:19:41.310367,4.0,9.0,222.0
2021-12-12-20:19:41.311399,6.0,11.0,223.0
2021-12-12-20:19:41.313393,7.0,16.0,223.0
2021-12-12-20:19:41.313393,9.0,3.0,223.0
2021-12-12-20:19:41.314356,12.0,10.0,222.0
2021-12-12-20:19:41.315353,3.0,8.0,222.0
2021-12-12-20:19:41.316386,9.0,19.0,222.0
2021-12-12-20:19:41.317354,7.0,3.0,222.0
2021-12-12-20:19:41.318346,5.0,5.0,223.0
2021-12-12-20:19:41.319343,3.0,5.0,223.0
2021-12-12-20:19:41.320373,7.0,14.0,222.0
2021-12-12-20:19:41.321337,6.0,0.0,222.0
2021-12-12-20:19:41.322372,5.0,2.0,222.0
2021-12-12-20:19:41.323365,5.0,2.0,222.0
2021-12-12-20:19:41.324364,9.0,11.0,223.0
2021-12-12-20:19:41.325326,2.0,0.0,222.0
2021-12-12-20:19:41.326324,2.0,0.0,222.0
2021-12-12-20:19:41.327323,2.0,0.0,222.0
2021-12-12-20:19:41.328318,1.0,13.0,223.0
2021-12-12-20:19:41.329349,1.0,11.0,222.0
2021-12-12-20:19:41.330350,1.0,9.0,223.0
2021-12-12-20:19:41.331344,1.0,9.0,223.0
2021-12-12-20:19:41.332343,4.0,17.0,223.0
2021-12-12-20:19:41.333339,9.0,2.0,222.0
2021-12-12-20:19:41.334336,9.0,2.0,222.0
2021-12-12-20:19:41.335340,9.0,2.0,222.0
2021-12-12-20:19:41.336332,7.0,1.0,223.0
2021-12-12-20:19:41.337329,8.0,2.0,222.0
2021-12-12-20:19:41.338329,8.0,2.0,222.0
2021-12-12-20:19:41.339323,8.0,2.0,222.0
2021-12-12-20:19:41.340322,8.0,2.0,222.0
2021-12-12-20:19:41.341318,2.0,0.0,222.0
2021-12-12-20:19:41.342319,2.0,0.0,222.0
2021-12-12-20:19:41.343313,2.0,0.0,222.0
2021-12-12-20:19:41.344276,2.0,0.0,222.0
2021-12-12-20:19:41.345273,3.0,8.0,222.0
2021-12-12-20:19:41.347302,3.0,8.0,222.0
2021-12-12-20:19:41.347302,4.0,9.0,223.0
2021-12-12-20:19:41.348300,9.0,4.0,222.0
2021-12-12-20:19:41.349295,9.0,4.0,222.0
2021-12-12-20:19:41.350262,9.0,4.0,222.0
2021-12-12-20:19:41.351259,9.0,4.0,222.0
2021-12-12-20:19:41.352256,9.0,4.0,222.0
2021-12-12-20:19:41.353253,6.0,2.0,222.0
2021-12-12-20:19:41.354251,8.0,1.0,222.0
2021-12-12-20:19:41.355248,8.0,1.0,222.0
2021-12-12-20:19:41.356279,8.0,1.0,222.0
2021-12-12-20:19:41.357241,9.0,3.0,222.0
2021-12-12-20:19:41.358271,0.0,1.0,222.0
2021-12-12-20:19:41.359236,0.0,1.0,222.0
2021-12-12-20:19:41.360233,0.0,1.0,222.0
2021-12-12-20:19:41.361230,1.0,4.0,222.0
2021-12-12-20:19:41.362227,1.0,4.0,222.0
2021-12-12-20:19:41.363225,1.0,10.0,222.0
2021-12-12-20:19:41.364225,1.0,11.0,222.0
2021-12-12-20:19:41.365222,3.0,12.0,222.0
2021-12-12-20:19:41.366219,7.0,4.0,222.0
2021-12-12-20:19:41.367216,7.0,4.0,222.0
2021-12-12-20:19:41.368214,7.0,4.0,222.0
2021-12-12-20:19:41.369211,10.0,2.0,222.0
2021-12-12-20:19:41.370244,8.0,1.0,222.0
2021-12-12-20:19:41.371204,7.0,0.0,222.0
2021-12-12-20:19:41.372237,7.0,0.0,222.0
2021-12-12-20:19:41.373236,10.0,10.0,222.0
2021-12-12-20:19:41.374230,3.0,2.0,222.0
2021-12-12-20:19:41.375194,3.0,2.0,222.0
2021-12-12-20:19:41.376225,3.0,2.0,222.0
2021-12-12-20:19:41.377222,1.0,7.0,223.0
2021-12-12-20:19:41.378225,2.0,11.0,223.0
2021-12-12-20:19:41.380215,2.0,11.0,223.0
2021-12-12-20:19:41.380215,2.0,11.0,223.0
2021-12-12-20:19:41.381178,5.0,14.0,223.0
2021-12-12-20:19:41.382209,4.0,6.0,222.0
2021-12-12-20:19:41.383191,4.0,6.0,222.0
2021-12-12-20:19:41.384169,4.0,6.0,222.0
2021-12-12-20:19:41.385166,4.0,6.0,222.0
2021-12-12-20:19:41.386176,10.0,5.0,222.0
2021-12-12-20:19:41.387161,8.0,2.0,222.0
2021-12-12-20:19:41.388193,8.0,2.0,222.0
2021-12-12-20:19:41.389191,8.0,2.0,222.0
2021-12-12-20:19:41.390187,6.0,12.0,222.0
2021-12-12-20:19:41.391173,4.0,1.0,222.0
2021-12-12-20:19:41.392184,4.0,1.0,222.0
2021-12-12-20:19:41.393181,4.0,1.0,222.0
2021-12-12-20:19:41.394144,1.0,7.0,223.0
2021-12-12-20:19:41.395141,2.0,9.0,222.0
2021-12-12-20:19:41.396138,2.0,9.0,222.0
2021-12-12-20:19:41.397136,2.0,9.0,222.0
2021-12-12-20:19:41.398133,5.0,18.0,223.0
2021-12-12-20:19:41.399166,3.0,12.0,222.0
2021-12-12-20:19:41.400159,3.0,12.0,222.0
2021-12-12-20:19:41.401123,3.0,12.0,222.0
2021-12-12-20:19:41.402158,8.0,5.0,222.0
2021-12-12-20:19:41.403120,10.0,7.0,222.0
2021-12-12-20:19:41.404117,10.0,7.0,222.0
2021-12-12-20:19:41.405115,10.0,7.0,222.0
2021-12-12-20:19:41.406145,7.0,12.0,222.0
2021-12-12-20:19:41.407144,4.0,9.0,222.0
2021-12-12-20:19:41.408139,4.0,9.0,222.0
2021-12-12-20:19:41.409102,4.0,9.0,222.0
2021-12-12-20:19:41.410099,3.0,11.0,222.0
2021-12-12-20:19:41.411097,3.0,16.0,222.0
2021-12-12-20:19:41.412129,4.0,19.0,223.0
2021-12-12-20:19:41.413092,4.0,19.0,223.0
2021-12-12-20:19:41.414125,3.0,12.0,222.0
2021-12-12-20:19:41.416118,2.0,8.0,223.0
2021-12-12-20:19:41.417082,6.0,14.0,222.0
2021-12-12-20:19:41.417082,6.0,14.0,222.0
2021-12-12-20:19:41.418078,6.0,14.0,222.0
2021-12-12-20:19:41.419109,7.0,0.0,222.0
2021-12-12-20:19:41.420108,7.0,0.0,222.0
2021-12-12-20:19:41.421070,7.0,0.0,222.0
2021-12-12-20:19:41.422104,7.0,0.0,222.0
2021-12-12-20:19:41.423065,9.0,3.0,222.0
2021-12-12-20:19:41.424062,7.0,10.0,222.0
2021-12-12-20:19:41.425094,7.0,10.0,222.0
2021-12-12-20:19:41.426095,7.0,10.0,222.0
2021-12-12-20:19:41.427054,1.0,3.0,223.0
2021-12-12-20:19:41.428053,2.0,7.0,222.0
2021-12-12-20:19:41.429083,2.0,7.0,222.0
2021-12-12-20:19:41.430080,2.0,7.0,222.0
2021-12-12-20:19:41.431078,2.0,8.0,222.0
2021-12-12-20:19:41.432077,6.0,17.0,222.0
2021-12-12-20:19:41.433074,6.0,17.0,222.0
2021-12-12-20:19:41.434074,6.0,17.0,222.0
2021-12-12-20:19:41.435068,10.0,6.0,222.0
2021-12-12-20:19:41.436065,8.0,0.0,222.0
2021-12-12-20:19:41.437060,8.0,0.0,222.0
2021-12-12-20:19:41.438058,8.0,0.0,222.0
2021-12-12-20:19:41.439058,8.0,2.0,222.0
2021-12-12-20:19:41.440021,4.0,12.0,222.0
2021-12-12-20:19:41.441019,5.0,9.0,222.0
2021-12-12-20:19:41.442016,5.0,9.0,222.0
2021-12-12-20:19:41.443013,3.0,1.0,223.0
2021-12-12-20:19:41.444010,1.0,12.0,222.0
2021-12-12-20:19:41.445008,1.0,12.0,222.0
2021-12-12-20:19:41.446005,1.0,12.0,222.0
2021-12-12-20:19:41.447002,1.0,7.0,222.0
2021-12-12-20:19:41.448000,7.0,10.0,222.0
2021-12-12-20:19:41.448997,6.0,10.0,222.0
2021-12-12-20:19:41.450992,6.0,10.0,222.0
2021-12-12-20:19:41.450992,5.0,13.0,222.0
2021-12-12-20:19:41.451989,11.0,6.0,222.0
2021-12-12-20:19:41.452987,11.0,6.0,222.0
2021-12-12-20:19:41.453984,11.0,6.0,222.0
2021-12-12-20:19:41.454982,11.0,6.0,222.0
2021-12-12-20:19:41.455979,9.0,10.0,222.0
2021-12-12-20:19:41.456976,9.0,10.0,222.0
2021-12-12-20:19:41.457973,9.0,10.0,222.0
2021-12-12-20:19:41.458971,9.0,10.0,222.0
2021-12-12-20:19:41.459968,5.0,8.0,222.0
2021-12-12-20:19:41.460965,4.0,3.0,222.0
2021-12-12-20:19:41.461963,1.0,6.0,222.0
2021-12-12-20:19:41.462960,1.0,6.0,222.0
2021-12-12-20:19:41.463957,1.0,6.0,222.0
2021-12-12-20:19:41.464955,5.0,11.0,222.0
2021-12-12-20:19:41.465988,5.0,11.0,222.0
2021-12-12-20:19:41.466948,5.0,11.0,222.0
2021-12-12-20:19:41.467945,9.0,8.0,222.0
2021-12-12-20:19:41.468944,9.0,3.0,222.0
2021-12-12-20:19:41.469941,9.0,3.0,222.0
2021-12-12-20:19:41.470938,9.0,3.0,222.0
2021-12-12-20:19:41.471936,9.0,3.0,222.0
2021-12-12-20:19:41.472934,7.0,9.0,222.0
2021-12-12-20:19:41.473930,7.0,9.0,222.0
2021-12-12-20:19:41.474928,7.0,9.0,222.0
2021-12-12-20:19:41.475925,5.0,3.0,222.0
2021-12-12-20:19:41.476923,2.0,7.0,222.0
2021-12-12-20:19:41.477920,2.0,7.0,222.0
2021-12-12-20:19:41.478917,2.0,7.0,222.0
2021-12-12-20:19:41.479915,0.0,13.0,222.0
2021-12-12-20:19:41.480912,6.0,6.0,222.0
2021-12-12-20:19:41.481946,6.0,6.0,222.0
2021-12-12-20:19:41.482939,6.0,6.0,222.0
2021-12-12-20:19:41.484933,8.0,8.0,222.0
2021-12-12-20:19:41.484933,11.0,1.0,222.0
2021-12-12-20:19:41.485930,11.0,1.0,222.0
2021-12-12-20:19:41.486895,11.0,1.0,222.0
2021-12-12-20:19:41.487892,6.0,11.0,222.0
2021-12-12-20:19:41.488891,6.0,11.0,222.0
2021-12-12-20:19:41.489923,6.0,11.0,222.0
2021-12-12-20:19:41.490917,6.0,11.0,222.0
2021-12-12-20:19:41.491916,2.0,7.0,222.0
2021-12-12-20:19:41.492911,2.0,7.0,222.0
2021-12-12-20:19:41.493909,2.0,7.0,222.0
2021-12-12-20:19:41.494908,2.0,7.0,222.0
2021-12-12-20:19:41.495904,2.0,7.0,222.0
2021-12-12-20:19:41.496902,3.0,9.0,222.0
2021-12-12-20:19:41.497902,3.0,9.0,222.0
2021-12-12-20:19:41.498864,3.0,9.0,222.0
2021-12-12-20:19:41.499860,3.0,9.0,222.0
2021-12-12-20:19:41.500891,6.0,14.0,222.0
2021-12-12-20:19:41.501887,11.0,2.0,222.0
2021-12-12-20:19:41.502853,11.0,2.0,222.0
2021-12-12-20:19:41.503850,11.0,2.0,222.0
2021-12-12-20:19:41.504847,8.0,4.0,222.0
2021-12-12-20:19:41.505846,3.0,7.0,222.0
2021-12-12-20:19:41.506842,3.0,7.0,222.0
2021-12-12-20:19:41.507840,3.0,7.0,222.0
2021-12-12-20:19:41.508836,7.0,13.0,222.0
2021-12-12-20:19:41.509834,1.0,7.0,222.0
2021-12-12-20:19:41.510831,1.0,7.0,222.0
2021-12-12-20:19:41.511829,1.0,7.0,222.0
2021-12-12-20:19:41.512826,1.0,12.0,222.0
2021-12-12-20:19:41.513823,3.0,12.0,222.0
2021-12-12-20:19:41.514821,3.0,12.0,222.0
2021-12-12-20:19:41.515818,3.0,12.0,222.0
2021-12-12-20:19:41.516816,5.0,13.0,222.0
2021-12-12-20:19:41.517813,3.0,19.0,222.0
2021-12-12-20:19:41.518810,5.0,8.0,222.0
2021-12-12-20:19:41.519807,7.0,7.0,222.0
2021-12-12-20:19:41.521803,11.0,2.0,222.0
2021-12-12-20:19:41.521803,9.0,0.0,223.0
2021-12-12-20:19:41.522800,6.0,0.0,222.0
2021-12-12-20:19:41.523797,6.0,0.0,222.0
2021-12-12-20:19:41.524794,8.0,13.0,222.0
2021-12-12-20:19:41.525791,8.0,11.0,222.0
2021-12-12-20:19:41.526789,4.0,3.0,222.0
2021-12-12-20:19:41.527786,0.0,7.0,222.0
2021-12-12-20:19:41.528784,0.0,15.0,222.0
2021-12-12-20:19:41.529781,3.0,9.0,222.0
2021-12-12-20:19:41.530779,3.0,9.0,222.0
2021-12-12-20:19:41.531775,3.0,9.0,222.0
2021-12-12-20:19:41.532773,3.0,18.0,222.0
2021-12-12-20:19:41.533770,5.0,21.0,222.0
2021-12-12-20:19:41.534768,8.0,2.0,223.0
2021-12-12-20:19:41.535765,8.0,2.0,223.0
2021-12-12-20:19:41.536762,8.0,2.0,223.0
2021-12-12-20:19:41.537760,4.0,6.0,222.0
2021-12-12-20:19:41.538757,4.0,6.0,222.0
2021-12-12-20:19:41.539754,4.0,6.0,222.0
2021-12-12-20:19:41.540751,4.0,6.0,222.0
2021-12-12-20:19:41.541749,6.0,6.0,222.0
2021-12-12-20:19:41.542746,2.0,8.0,222.0
2021-12-12-20:19:41.543743,2.0,8.0,222.0
2021-12-12-20:19:41.544741,2.0,8.0,222.0
2021-12-12-20:19:41.545738,2.0,10.0,222.0
2021-12-12-20:19:41.546735,3.0,13.0,222.0
2021-12-12-20:19:41.547732,3.0,13.0,222.0
2021-12-12-20:19:41.548730,3.0,13.0,222.0
2021-12-12-20:19:41.549727,5.0,15.0,222.0
2021-12-12-20:19:41.550725,12.0,1.0,222.0
2021-12-12-20:19:41.551722,12.0,1.0,222.0
2021-12-12-20:19:41.552719,12.0,1.0,222.0
2021-12-12-20:19:41.553717,11.0,1.0,222.0
2021-12-12-20:19:41.555711,8.0,2.0,222.0
2021-12-12-20:19:41.555711,4.0,6.0,222.0
2021-12-12-20:19:41.556709,4.0,6.0,222.0
2021-12-12-20:19:41.557706,1.0,1.0,222.0
2021-12-12-20:19:41.558703,1.0,3.0,222.0
2021-12-12-20:19:41.559700,1.0,3.0,222.0
2021-12-12-20:19:41.560698,1.0,3.0,222.0
2021-12-12-20:19:41.561696,0.0,10.0,222.0
2021-12-12-20:19:41.562693,3.0,10.0,222.0
2021-12-12-20:19:41.563692,3.0,10.0,222.0
2021-12-12-20:19:41.564687,3.0,10.0,222.0
2021-12-12-20:19:41.565685,3.0,10.0,222.0
2021-12-12-20:19:41.566682,6.0,17.0,222.0
2021-12-12-20:19:41.567680,9.0,5.0,222.0
2021-12-12-20:19:41.568677,9.0,5.0,222.0
2021-12-12-20:19:41.569675,9.0,5.0,222.0
2021-12-12-20:19:41.570671,7.0,2.0,222.0
2021-12-12-20:19:41.571669,7.0,2.0,222.0
2021-12-12-20:19:41.572667,7.0,2.0,222.0
2021-12-12-20:19:41.573664,7.0,2.0,222.0
2021-12-12-20:19:41.574661,9.0,12.0,222.0
2021-12-12-20:19:41.575658,3.0,1.0,222.0
2021-12-12-20:19:41.576655,3.0,1.0,222.0
2021-12-12-20:19:41.577651,3.0,1.0,222.0
2021-12-12-20:19:41.578648,1.0,6.0,222.0
2021-12-12-20:19:41.579646,1.0,9.0,222.0
2021-12-12-20:19:41.580643,0.0,8.0,222.0
2021-12-12-20:19:41.581640,0.0,8.0,222.0
2021-12-12-20:19:41.582638,4.0,13.0,222.0
2021-12-12-20:19:41.583635,6.0,16.0,222.0
2021-12-12-20:19:41.584633,5.0,6.0,222.0
2021-12-12-20:19:41.585630,5.0,6.0,222.0
2021-12-12-20:19:41.587624,10.0,3.0,222.0
2021-12-12-20:19:41.587624,5.0,1.0,222.0
2021-12-12-20:19:41.588622,8.0,2.0,222.0
2021-12-12-20:19:41.589619,8.0,2.0,222.0
2021-12-12-20:19:41.590616,8.0,7.0,222.0
2021-12-12-20:19:41.591614,3.0,2.0,222.0
2021-12-12-20:19:41.592611,3.0,2.0,222.0
2021-12-12-20:19:41.593608,3.0,2.0,222.0
2021-12-12-20:19:41.594606,2.0,11.0,222.0
2021-12-12-20:19:41.595603,1.0,11.0,222.0
2021-12-12-20:19:41.596636,1.0,11.0,222.0
2021-12-12-20:19:41.597632,1.0,11.0,222.0
2021-12-12-20:19:41.598630,5.0,13.0,222.0
2021-12-12-20:19:41.599626,7.0,8.0,222.0
2021-12-12-20:19:41.600623,7.0,8.0,222.0
2021-12-12-20:19:41.601625,7.0,8.0,222.0
2021-12-12-20:19:41.602585,5.0,5.0,222.0
2021-12-12-20:19:41.603617,5.0,5.0,222.0
2021-12-12-20:19:41.604614,5.0,5.0,222.0
2021-12-12-20:19:41.605577,5.0,5.0,222.0
2021-12-12-20:19:41.606610,5.0,5.0,222.0
2021-12-12-20:19:41.607605,5.0,9.0,222.0
2021-12-12-20:19:41.608604,2.0,1.0,222.0
2021-12-12-20:19:41.609566,2.0,1.0,222.0
2021-12-12-20:19:41.610563,2.0,1.0,222.0
2021-12-12-20:19:41.611596,2.0,11.0,222.0
2021-12-12-20:19:41.612591,2.0,11.0,222.0
2021-12-12-20:19:41.613590,2.0,11.0,222.0
2021-12-12-20:19:41.614588,2.0,11.0,222.0
2021-12-12-20:19:41.615564,7.0,13.0,222.0
2021-12-12-20:19:41.616549,3.0,8.0,222.0
2021-12-12-20:19:41.617577,3.0,8.0,222.0
2021-12-12-20:19:41.619539,3.0,8.0,222.0
2021-12-12-20:19:41.620536,7.0,1.0,222.0
2021-12-12-20:19:41.620536,7.0,1.0,222.0
2021-12-12-20:19:41.621578,7.0,1.0,222.0
2021-12-12-20:19:41.622567,7.0,1.0,222.0
2021-12-12-20:19:41.623563,7.0,10.0,222.0
2021-12-12-20:19:41.624559,5.0,1.0,223.0
2021-12-12-20:19:41.625562,5.0,1.0,223.0
2021-12-12-20:19:41.626555,5.0,1.0,223.0
2021-12-12-20:19:41.627519,1.0,15.0,223.0
2021-12-12-20:19:41.628548,2.0,3.0,222.0
2021-12-12-20:19:41.629547,2.0,3.0,222.0
2021-12-12-20:19:41.630511,2.0,3.0,222.0
2021-12-12-20:19:41.631509,7.0,8.0,222.0
2021-12-12-20:19:41.632505,3.0,9.0,222.0
2021-12-12-20:19:41.633502,3.0,9.0,222.0
2021-12-12-20:19:41.634499,3.0,9.0,222.0
2021-12-12-20:19:41.635498,10.0,6.0,222.0
2021-12-12-20:19:41.636527,7.0,1.0,223.0
2021-12-12-20:19:41.637491,7.0,1.0,223.0
2021-12-12-20:19:41.638535,7.0,1.0,223.0
2021-12-12-20:19:41.639519,8.0,2.0,222.0
2021-12-12-20:19:41.640484,8.0,2.0,222.0
2021-12-12-20:19:41.641481,8.0,2.0,222.0
2021-12-12-20:19:41.642478,8.0,2.0,222.0
2021-12-12-20:19:41.643511,2.0,0.0,222.0
2021-12-12-20:19:41.644506,1.0,8.0,222.0
2021-12-12-20:19:41.645504,1.0,8.0,222.0
2021-12-12-20:19:41.646468,1.0,8.0,222.0
2021-12-12-20:19:41.647501,4.0,14.0,222.0
2021-12-12-20:19:41.648462,6.0,13.0,222.0
2021-12-12-20:19:41.649459,6.0,13.0,222.0
2021-12-12-20:19:41.650457,6.0,13.0,222.0
2021-12-12-20:19:41.651454,6.0,13.0,222.0
2021-12-12-20:19:41.652453,9.0,2.0,222.0
2021-12-12-20:19:41.653482,6.0,1.0,222.0
2021-12-12-20:19:41.655444,6.0,1.0,222.0
2021-12-12-20:19:41.655444,6.0,0.0,222.0
2021-12-12-20:19:41.656441,8.0,5.0,222.0
2021-12-12-20:19:41.657438,5.0,4.0,222.0
2021-12-12-20:19:41.658435,5.0,4.0,222.0
2021-12-12-20:19:41.659433,5.0,4.0,222.0
2021-12-12-20:19:41.660463,2.0,2.0,222.0
2021-12-12-20:19:41.661461,1.0,12.0,222.0
2021-12-12-20:19:41.662460,1.0,12.0,222.0
2021-12-12-20:19:41.663456,1.0,12.0,222.0
2021-12-12-20:19:41.664452,4.0,10.0,222.0
2021-12-12-20:19:41.665449,6.0,14.0,222.0
2021-12-12-20:19:41.666416,6.0,14.0,222.0
2021-12-12-20:19:41.667413,6.0,14.0,222.0
2021-12-12-20:19:41.668410,7.0,5.0,222.0
2021-12-12-20:19:41.669406,8.0,1.0,221.0
2021-12-12-20:19:41.670438,8.0,1.0,221.0
2021-12-12-20:19:41.671434,8.0,1.0,221.0
2021-12-12-20:19:41.672398,8.0,1.0,222.0
2021-12-12-20:19:41.673434,7.0,9.0,222.0
2021-12-12-20:19:41.674427,7.0,9.0,222.0
2021-12-12-20:19:41.675431,7.0,9.0,222.0
2021-12-12-20:19:41.676421,0.0,7.0,222.0
2021-12-12-20:19:41.677419,1.0,12.0,222.0
2021-12-12-20:19:41.678416,1.0,12.0,222.0
2021-12-12-20:19:41.679413,1.0,12.0,222.0
2021-12-12-20:19:41.680409,7.0,13.0,222.0
2021-12-12-20:19:41.681413,7.0,13.0,222.0
2021-12-12-20:19:41.682404,7.0,13.0,222.0
2021-12-12-20:19:41.683404,7.0,13.0,222.0
2021-12-12-20:19:41.684368,7.0,13.0,222.0
2021-12-12-20:19:41.685397,10.0,0.0,222.0
2021-12-12-20:19:41.686395,10.0,0.0,222.0
2021-12-12-20:19:41.688355,10.0,0.0,222.0
2021-12-12-20:19:41.689352,7.0,5.0,222.0
2021-12-12-20:19:41.689352,7.0,5.0,222.0
2021-12-12-20:19:41.690349,7.0,5.0,222.0
2021-12-12-20:19:41.691347,7.0,5.0,222.0
2021-12-12-20:19:41.692344,7.0,5.0,222.0
2021-12-12-20:19:41.693341,4.0,1.0,222.0
2021-12-12-20:19:41.694339,1.0,13.0,222.0
2021-12-12-20:19:41.695336,1.0,13.0,222.0
2021-12-12-20:19:41.696334,1.0,13.0,222.0
2021-12-12-20:19:41.697331,0.0,6.0,221.0
2021-12-12-20:19:41.698328,1.0,8.0,222.0
2021-12-12-20:19:41.699325,6.0,10.0,222.0
2021-12-12-20:19:41.700323,6.0,11.0,221.0
2021-12-12-20:19:41.701320,5.0,8.0,222.0
2021-12-12-20:19:41.702317,8.0,5.0,222.0
2021-12-12-20:19:41.703315,8.0,5.0,222.0
2021-12-12-20:19:41.704312,8.0,5.0,222.0
2021-12-12-20:19:41.705309,6.0,1.0,222.0
2021-12-12-20:19:41.706307,6.0,1.0,222.0
2021-12-12-20:19:41.707305,10.0,7.0,222.0
2021-12-12-20:19:41.708304,10.0,7.0,222.0
2021-12-12-20:19:41.709301,3.0,1.0,222.0
2021-12-12-20:19:41.710298,1.0,3.0,222.0
2021-12-12-20:19:41.711296,1.0,3.0,222.0
2021-12-12-20:19:41.712293,1.0,3.0,222.0
2021-12-12-20:19:41.713290,1.0,9.0,222.0
2021-12-12-20:19:41.714288,5.0,12.0,222.0
2021-12-12-20:19:41.715318,5.0,12.0,222.0
2021-12-12-20:19:41.716314,5.0,12.0,222.0
2021-12-12-20:19:41.717312,7.0,15.0,222.0
2021-12-12-20:19:41.718292,11.0,8.0,222.0
2021-12-12-20:19:41.719273,11.0,8.0,222.0
2021-12-12-20:19:41.720270,11.0,8.0,222.0
2021-12-12-20:19:41.721301,11.0,8.0,222.0
2021-12-12-20:19:41.722298,7.0,5.0,222.0
2021-12-12-20:19:41.724294,6.0,15.0,222.0
2021-12-12-20:19:41.724294,4.0,2.0,222.0
2021-12-12-20:19:41.725290,2.0,12.0,221.0
2021-12-12-20:19:41.726289,2.0,12.0,221.0
2021-12-12-20:19:41.727285,2.0,12.0,221.0
2021-12-12-20:19:41.728282,2.0,12.0,221.0
2021-12-12-20:19:41.729284,2.0,12.0,221.0
2021-12-12-20:19:41.730278,2.0,4.0,222.0
2021-12-12-20:19:41.731275,4.0,11.0,222.0
2021-12-12-20:19:41.732273,4.0,11.0,222.0
2021-12-12-20:19:41.733269,4.0,11.0,222.0
2021-12-12-20:19:41.734268,3.0,12.0,222.0
2021-12-12-20:19:41.735264,6.0,5.0,222.0
2021-12-12-20:19:41.736261,6.0,5.0,222.0
2021-12-12-20:19:41.737264,6.0,5.0,222.0
2021-12-12-20:19:41.738256,9.0,3.0,222.0
2021-12-12-20:19:41.739254,5.0,3.0,222.0
2021-12-12-20:19:41.740251,5.0,3.0,222.0
2021-12-12-20:19:41.741251,4.0,15.0,222.0
2021-12-12-20:19:41.742247,6.0,7.0,222.0
2021-12-12-20:19:41.743242,2.0,5.0,222.0
2021-12-12-20:19:41.744240,2.0,5.0,222.0
2021-12-12-20:19:41.745241,2.0,5.0,222.0
2021-12-12-20:19:41.746235,0.0,13.0,222.0
2021-12-12-20:19:41.747233,2.0,9.0,222.0
2021-12-12-20:19:41.748230,2.0,9.0,222.0
2021-12-12-20:19:41.749227,2.0,9.0,222.0
2021-12-12-20:19:41.750224,9.0,13.0,222.0
2021-12-12-20:19:41.751225,14.0,2.0,222.0
2021-12-12-20:19:41.752219,14.0,2.0,222.0
2021-12-12-20:19:41.753218,14.0,2.0,222.0
2021-12-12-20:19:41.754217,7.0,4.0,222.0
2021-12-12-20:19:41.755176,6.0,3.0,222.0
2021-12-12-20:19:41.757207,6.0,3.0,222.0
2021-12-12-20:19:41.757207,6.0,3.0,222.0
2021-12-12-20:19:41.758206,1.0,8.0,222.0
2021-12-12-20:19:41.759200,1.0,8.0,222.0
2021-12-12-20:19:41.760198,1.0,8.0,222.0
2021-12-12-20:19:41.761194,1.0,8.0,222.0
2021-12-12-20:19:41.762192,1.0,8.0,222.0
2021-12-12-20:19:41.763156,4.0,10.0,222.0
2021-12-12-20:19:41.764187,4.0,10.0,222.0
2021-12-12-20:19:41.765184,4.0,10.0,222.0
2021-12-12-20:19:41.766182,4.0,10.0,222.0
2021-12-12-20:19:41.767146,1.0,5.0,222.0
2021-12-12-20:19:41.768143,12.0,6.0,222.0
2021-12-12-20:19:41.769139,12.0,6.0,222.0
2021-12-12-20:19:41.770136,12.0,6.0,222.0
2021-12-12-20:19:41.771133,8.0,2.0,222.0
2021-12-12-20:19:41.772131,6.0,14.0,222.0
2021-12-12-20:19:41.773164,6.0,14.0,222.0
2021-12-12-20:19:41.774160,6.0,14.0,222.0
2021-12-12-20:19:41.775159,3.0,5.0,222.0
2021-12-12-20:19:41.776155,2.0,6.0,222.0
2021-12-12-20:19:41.777156,2.0,6.0,222.0
2021-12-12-20:19:41.778117,2.0,6.0,222.0
2021-12-12-20:19:41.779114,0.0,9.0,222.0
2021-12-12-20:19:41.780111,4.0,5.0,221.0
2021-12-12-20:19:41.781141,4.0,5.0,221.0
2021-12-12-20:19:41.782141,4.0,5.0,221.0
2021-12-12-20:19:41.783135,8.0,16.0,221.0
2021-12-12-20:19:41.784135,10.0,11.0,221.0
2021-12-12-20:19:41.785134,10.0,11.0,221.0
2021-12-12-20:19:41.786094,10.0,11.0,221.0
2021-12-12-20:19:41.787091,8.0,7.0,221.0
2021-12-12-20:19:41.788088,4.0,5.0,221.0
2021-12-12-20:19:41.789121,4.0,5.0,221.0
2021-12-12-20:19:41.790084,4.0,5.0,221.0
2021-12-12-20:19:41.792113,1.0,0.0,221.0
2021-12-12-20:19:41.792113,2.0,4.0,221.0
2021-12-12-20:19:41.793076,2.0,4.0,221.0
2021-12-12-20:19:41.794120,2.0,4.0,221.0
2021-12-12-20:19:41.795105,2.0,7.0,221.0
2021-12-12-20:19:41.796101,4.0,13.0,221.0
2021-12-12-20:19:41.797098,4.0,13.0,221.0
2021-12-12-20:19:41.798062,4.0,13.0,221.0
2021-12-12-20:19:41.799092,4.0,13.0,221.0
2021-12-12-20:19:41.800091,8.0,4.0,221.0
2021-12-12-20:19:41.801094,8.0,4.0,221.0
2021-12-12-20:19:41.802084,8.0,4.0,221.0
2021-12-12-20:19:41.803085,8.0,4.0,221.0
2021-12-12-20:19:41.804080,4.0,6.0,220.0
2021-12-12-20:19:41.805077,4.0,6.0,220.0
2021-12-12-20:19:41.806077,4.0,6.0,220.0
2021-12-12-20:19:41.807038,2.0,13.0,220.0
2021-12-12-20:19:41.808069,2.0,14.0,219.0
2021-12-12-20:19:41.809066,2.0,14.0,219.0
2021-12-12-20:19:41.810030,2.0,14.0,219.0
2021-12-12-20:19:41.811027,2.0,14.0,219.0
2021-12-12-20:19:41.812024,1.0,21.0,220.0
2021-12-12-20:19:41.813021,2.0,9.0,219.0
2021-12-12-20:19:41.814019,2.0,9.0,219.0
2021-12-12-20:19:41.815016,2.0,9.0,219.0
2021-12-12-20:19:41.816013,7.0,10.0,219.0
2021-12-12-20:19:41.817011,10.0,1.0,218.0
2021-12-12-20:19:41.818009,10.0,1.0,218.0
2021-12-12-20:19:41.819005,10.0,1.0,218.0
2021-12-12-20:19:41.820003,9.0,1.0,218.0
2021-12-12-20:19:41.821000,8.0,2.0,218.0
2021-12-12-20:19:41.821997,8.0,2.0,218.0
2021-12-12-20:19:41.823029,8.0,2.0,218.0
2021-12-12-20:19:41.825025,4.0,8.0,217.0
2021-12-12-20:19:41.825025,0.0,1.0,217.0
2021-12-12-20:19:41.825988,0.0,1.0,217.0
2021-12-12-20:19:41.827019,0.0,1.0,217.0
2021-12-12-20:19:41.828016,2.0,8.0,217.0
2021-12-12-20:19:41.829014,1.0,11.0,217.0
2021-12-12-20:19:41.830012,1.0,11.0,217.0
2021-12-12-20:19:41.831006,1.0,11.0,217.0
2021-12-12-20:19:41.832005,7.0,11.0,217.0
2021-12-12-20:19:41.833007,5.0,3.0,217.0
2021-12-12-20:19:41.834000,5.0,3.0,217.0
2021-12-12-20:19:41.834998,5.0,3.0,217.0
2021-12-12-20:19:41.835994,6.0,2.0,217.0
2021-12-12-20:19:41.836992,6.0,6.0,217.0
2021-12-12-20:19:41.837990,6.0,6.0,217.0
2021-12-12-20:19:41.838953,6.0,6.0,217.0
2021-12-12-20:19:41.839984,10.0,9.0,217.0
2021-12-12-20:19:41.840985,0.0,3.0,217.0
2021-12-12-20:19:41.841978,0.0,3.0,217.0
2021-12-12-20:19:41.842977,0.0,3.0,217.0
2021-12-12-20:19:41.843973,0.0,3.0,217.0
2021-12-12-20:19:41.844975,1.0,6.0,217.0
2021-12-12-20:19:41.845968,5.0,4.0,217.0
2021-12-12-20:19:41.846965,5.0,4.0,217.0
2021-12-12-20:19:41.847928,5.0,4.0,217.0
2021-12-12-20:19:41.848964,6.0,5.0,217.0
2021-12-12-20:19:41.849925,8.0,12.0,217.0
2021-12-12-20:19:41.850921,8.0,12.0,217.0
2021-12-12-20:19:41.851919,8.0,12.0,217.0
2021-12-12-20:19:41.852952,11.0,5.0,217.0
2021-12-12-20:19:41.853956,8.0,1.0,217.0
2021-12-12-20:19:41.854944,8.0,1.0,217.0
2021-12-12-20:19:41.855942,8.0,1.0,217.0
2021-12-12-20:19:41.856942,4.0,13.0,217.0
2021-12-12-20:19:41.858899,3.0,8.0,217.0
2021-12-12-20:19:41.858899,3.0,8.0,217.0
2021-12-12-20:19:41.859928,3.0,8.0,217.0
2021-12-12-20:19:41.860926,2.0,10.0,216.0
2021-12-12-20:19:41.861926,1.0,9.0,217.0
2021-12-12-20:19:41.862920,1.0,9.0,217.0
2021-12-12-20:19:41.863886,1.0,9.0,217.0
2021-12-12-20:19:41.864919,6.0,10.0,217.0
2021-12-12-20:19:41.865919,5.0,7.0,217.0
2021-12-12-20:19:41.866913,5.0,7.0,217.0
2021-12-12-20:19:41.867900,5.0,7.0,217.0
2021-12-12-20:19:41.868905,12.0,14.0,217.0
2021-12-12-20:19:41.869904,9.0,2.0,217.0
2021-12-12-20:19:41.870899,9.0,2.0,217.0
2021-12-12-20:19:41.871896,9.0,2.0,217.0
2021-12-12-20:19:41.872898,8.0,15.0,217.0
2021-12-12-20:19:41.873891,4.0,6.0,217.0
2021-12-12-20:19:41.874891,4.0,6.0,217.0
2021-12-12-20:19:41.875886,4.0,6.0,217.0
2021-12-12-20:19:41.876852,4.0,6.0,217.0
2021-12-12-20:19:41.877883,0.0,12.0,217.0
2021-12-12-20:19:41.878880,0.0,12.0,217.0
2021-12-12-20:19:41.879877,0.0,12.0,217.0
2021-12-12-20:19:41.880878,0.0,12.0,217.0
2021-12-12-20:19:41.881872,9.0,19.0,217.0
2021-12-12-20:19:41.882870,5.0,8.0,217.0
2021-12-12-20:19:41.883865,5.0,8.0,217.0
2021-12-12-20:19:41.884866,5.0,8.0,217.0
2021-12-12-20:19:41.885862,12.0,0.0,217.0
2021-12-12-20:19:41.886858,8.0,0.0,216.0
2021-12-12-20:19:41.887855,8.0,0.0,216.0
2021-12-12-20:19:41.888818,8.0,0.0,216.0
2021-12-12-20:19:41.889850,7.0,8.0,217.0
2021-12-12-20:19:41.890849,5.0,3.0,217.0
2021-12-12-20:19:41.892847,5.0,3.0,217.0
2021-12-12-20:19:41.892847,5.0,3.0,217.0
2021-12-12-20:19:41.893806,3.0,9.0,217.0
2021-12-12-20:19:41.894837,3.0,9.0,217.0
2021-12-12-20:19:41.895840,3.0,9.0,217.0
2021-12-12-20:19:41.896797,3.0,9.0,217.0
2021-12-12-20:19:41.897795,5.0,7.0,217.0
2021-12-12-20:19:41.898828,10.0,15.0,217.0
2021-12-12-20:19:41.899824,10.0,15.0,217.0
2021-12-12-20:19:41.900821,10.0,15.0,217.0
2021-12-12-20:19:41.901819,11.0,4.0,217.0
2021-12-12-20:19:41.902815,8.0,0.0,217.0
2021-12-12-20:19:41.903813,8.0,0.0,217.0
2021-12-12-20:19:41.904816,8.0,0.0,217.0
2021-12-12-20:19:41.905808,5.0,7.0,216.0
2021-12-12-20:19:41.906806,7.0,8.0,217.0
2021-12-12-20:19:41.907801,7.0,8.0,217.0
2021-12-12-20:19:41.908799,7.0,8.0,217.0
2021-12-12-20:19:41.909798,1.0,6.0,217.0
2021-12-12-20:19:41.910794,1.0,12.0,217.0
2021-12-12-20:19:41.911792,1.0,12.0,217.0
2021-12-12-20:19:41.912793,1.0,12.0,217.0
2021-12-12-20:19:41.913786,3.0,14.0,216.0
2021-12-12-20:19:41.914784,6.0,11.0,217.0
2021-12-12-20:19:41.915780,6.0,11.0,217.0
2021-12-12-20:19:41.916777,6.0,11.0,217.0
2021-12-12-20:19:41.917776,6.0,11.0,217.0
2021-12-12-20:19:41.918773,7.0,1.0,217.0
2021-12-12-20:19:41.919770,7.0,1.0,217.0
2021-12-12-20:19:41.920767,7.0,1.0,217.0
2021-12-12-20:19:41.921781,7.0,1.0,217.0
2021-12-12-20:19:41.922764,7.0,3.0,217.0
2021-12-12-20:19:41.923726,10.0,9.0,217.0
2021-12-12-20:19:41.924757,10.0,9.0,217.0
2021-12-12-20:19:41.926751,5.0,4.0,216.0
2021-12-12-20:19:41.926751,2.0,11.0,217.0
2021-12-12-20:19:41.927715,1.0,12.0,217.0
2021-12-12-20:19:41.928745,1.0,12.0,217.0
2021-12-12-20:19:41.929710,1.0,12.0,217.0
2021-12-12-20:19:41.930742,3.0,13.0,217.0
2021-12-12-20:19:41.931738,5.0,3.0,217.0
2021-12-12-20:19:41.932737,5.0,3.0,217.0
2021-12-12-20:19:41.933734,5.0,3.0,217.0
2021-12-12-20:19:41.934731,7.0,6.0,217.0
2021-12-12-20:19:41.935727,10.0,5.0,216.0
2021-12-12-20:19:41.936728,10.0,5.0,216.0
2021-12-12-20:19:41.937722,10.0,5.0,216.0
2021-12-12-20:19:41.938721,7.0,2.0,217.0
2021-12-12-20:19:41.939729,9.0,12.0,217.0
2021-12-12-20:19:41.940714,9.0,12.0,217.0
2021-12-12-20:19:41.941677,9.0,12.0,217.0
2021-12-12-20:19:41.942675,1.0,11.0,217.0
2021-12-12-20:19:41.943706,1.0,11.0,217.0
2021-12-12-20:19:41.944708,1.0,11.0,217.0
2021-12-12-20:19:41.945700,1.0,11.0,217.0
2021-12-12-20:19:41.946699,2.0,9.0,216.0
2021-12-12-20:19:41.947696,3.0,11.0,217.0
2021-12-12-20:19:41.948695,3.0,11.0,217.0
2021-12-12-20:19:41.949695,3.0,11.0,217.0
2021-12-12-20:19:41.950688,10.0,5.0,216.0
2021-12-12-20:19:41.951685,10.0,5.0,216.0
2021-12-12-20:19:41.952686,10.0,5.0,216.0
2021-12-12-20:19:41.953647,10.0,5.0,216.0
2021-12-12-20:19:41.954643,10.0,5.0,216.0
2021-12-12-20:19:41.955674,5.0,7.0,217.0
2021-12-12-20:19:41.956637,5.0,7.0,217.0
2021-12-12-20:19:41.957636,5.0,7.0,217.0
2021-12-12-20:19:41.958665,5.0,7.0,217.0
2021-12-12-20:19:41.959663,0.0,5.0,217.0
2021-12-12-20:19:41.961658,2.0,8.0,217.0
2021-12-12-20:19:41.961658,2.0,8.0,217.0
2021-12-12-20:19:41.962622,6.0,12.0,216.0
2021-12-12-20:19:41.963653,6.0,12.0,216.0
2021-12-12-20:19:41.964633,6.0,12.0,216.0
2021-12-12-20:19:41.965615,6.0,12.0,216.0
2021-12-12-20:19:41.966613,6.0,12.0,216.0
2021-12-12-20:19:41.967610,5.0,14.0,217.0
2021-12-12-20:19:41.968607,9.0,5.0,217.0
2021-12-12-20:19:41.969604,9.0,5.0,217.0
2021-12-12-20:19:41.970602,9.0,5.0,217.0
2021-12-12-20:19:41.971599,8.0,1.0,217.0
2021-12-12-20:19:41.972596,6.0,13.0,216.0
2021-12-12-20:19:41.973594,6.0,13.0,216.0
2021-12-12-20:19:41.974591,6.0,13.0,216.0
2021-12-12-20:19:41.975588,6.0,6.0,216.0
2021-12-12-20:19:41.976586,6.0,6.0,216.0
2021-12-12-20:19:41.977583,4.0,9.0,217.0
2021-12-12-20:19:41.978581,4.0,9.0,217.0
2021-12-12-20:19:41.979609,5.0,8.0,217.0
2021-12-12-20:19:41.980608,8.0,11.0,216.0
2021-12-12-20:19:41.981606,8.0,11.0,216.0
2021-12-12-20:19:41.982570,8.0,11.0,216.0
2021-12-12-20:19:41.983565,6.0,8.0,216.0
2021-12-12-20:19:41.984562,9.0,2.0,217.0
2021-12-12-20:19:41.985560,9.0,2.0,217.0
2021-12-12-20:19:41.986557,9.0,2.0,217.0
2021-12-12-20:19:41.987554,9.0,2.0,217.0
2021-12-12-20:19:41.988552,7.0,11.0,216.0
2021-12-12-20:19:41.989549,7.0,11.0,216.0
2021-12-12-20:19:41.990546,7.0,11.0,216.0
2021-12-12-20:19:41.991547,6.0,8.0,217.0
2021-12-12-20:19:41.992541,3.0,7.0,217.0
2021-12-12-20:19:41.993538,3.0,7.0,217.0
2021-12-12-20:19:41.995533,3.0,7.0,217.0
2021-12-12-20:19:41.995533,0.0,10.0,217.0
2021-12-12-20:19:41.996530,5.0,12.0,217.0
2021-12-12-20:19:41.997528,5.0,12.0,217.0
2021-12-12-20:19:41.998525,5.0,12.0,217.0
2021-12-12-20:19:41.999522,5.0,12.0,217.0
2021-12-12-20:19:42.000520,5.0,8.0,217.0
2021-12-12-20:19:42.001517,8.0,5.0,217.0
2021-12-12-20:19:42.002514,8.0,5.0,217.0
2021-12-12-20:19:42.003512,8.0,5.0,217.0
2021-12-12-20:19:42.004509,10.0,0.0,216.0
2021-12-12-20:19:42.005506,5.0,12.0,216.0
2021-12-12-20:19:42.006504,5.0,12.0,216.0
2021-12-12-20:19:42.007501,5.0,12.0,216.0
2021-12-12-20:19:42.008498,4.0,2.0,217.0
2021-12-12-20:19:42.009496,1.0,3.0,217.0
2021-12-12-20:19:42.010493,2.0,7.0,216.0
2021-12-12-20:19:42.011490,2.0,7.0,216.0
2021-12-12-20:19:42.012488,0.0,10.0,217.0
2021-12-12-20:19:42.013485,5.0,11.0,217.0
2021-12-12-20:19:42.014482,5.0,11.0,217.0
2021-12-12-20:19:42.015480,5.0,11.0,217.0
2021-12-12-20:19:42.016477,5.0,12.0,217.0
2021-12-12-20:19:42.017474,8.0,4.0,216.0
2021-12-12-20:19:42.018472,8.0,4.0,216.0
2021-12-12-20:19:42.019469,8.0,4.0,216.0
2021-12-12-20:19:42.020466,7.0,0.0,217.0
2021-12-12-20:19:42.021464,7.0,10.0,217.0
2021-12-12-20:19:42.022461,7.0,10.0,217.0
2021-12-12-20:19:42.023458,7.0,10.0,217.0
2021-12-12-20:19:42.024457,4.0,5.0,217.0
2021-12-12-20:19:42.025486,2.0,9.0,217.0
2021-12-12-20:19:42.026486,2.0,9.0,217.0
2021-12-12-20:19:42.027448,2.0,9.0,217.0
2021-12-12-20:19:42.029442,4.0,10.0,217.0
2021-12-12-20:19:42.030440,4.0,9.0,217.0
2021-12-12-20:19:42.031437,4.0,9.0,217.0
2021-12-12-20:19:42.032434,4.0,9.0,217.0
2021-12-12-20:19:42.033431,9.0,16.0,217.0
2021-12-12-20:19:42.034429,8.0,0.0,217.0
2021-12-12-20:19:42.035426,8.0,0.0,217.0
2021-12-12-20:19:42.036424,8.0,0.0,217.0
2021-12-12-20:19:42.037421,12.0,1.0,217.0
2021-12-12-20:19:42.038418,7.0,3.0,216.0
2021-12-12-20:19:42.039416,7.0,3.0,216.0
2021-12-12-20:19:42.040413,7.0,3.0,216.0
2021-12-12-20:19:42.041410,1.0,4.0,217.0
2021-12-12-20:19:42.042408,1.0,4.0,217.0
2021-12-12-20:19:42.043405,1.0,4.0,217.0
2021-12-12-20:19:42.044402,1.0,4.0,217.0
2021-12-12-20:19:42.045400,2.0,8.0,217.0
2021-12-12-20:19:42.046397,4.0,10.0,216.0
2021-12-12-20:19:42.047394,4.0,10.0,216.0
2021-12-12-20:19:42.048392,4.0,10.0,216.0
2021-12-12-20:19:42.049389,5.0,14.0,217.0
2021-12-12-20:19:42.050386,9.0,6.0,217.0
2021-12-12-20:19:42.051383,9.0,6.0,217.0
2021-12-12-20:19:42.052416,9.0,6.0,217.0
2021-12-12-20:19:42.053380,7.0,4.0,217.0
2021-12-12-20:19:42.054377,8.0,0.0,217.0
2021-12-12-20:19:42.055374,8.0,0.0,217.0
2021-12-12-20:19:42.056410,8.0,0.0,217.0
2021-12-12-20:19:42.057401,8.0,6.0,217.0
2021-12-12-20:19:42.058401,0.0,1.0,217.0
2021-12-12-20:19:42.059397,0.0,1.0,217.0
2021-12-12-20:19:42.060376,0.0,1.0,217.0
2021-12-12-20:19:42.062387,2.0,6.0,217.0
2021-12-12-20:19:42.062387,2.0,6.0,217.0
2021-12-12-20:19:42.063352,2.0,11.0,217.0
2021-12-12-20:19:42.064349,2.0,11.0,217.0
2021-12-12-20:19:42.065347,2.0,11.0,217.0
2021-12-12-20:19:42.066344,5.0,5.0,217.0
2021-12-12-20:19:42.067376,5.0,5.0,217.0
2021-12-12-20:19:42.068339,5.0,5.0,217.0
2021-12-12-20:19:42.069336,11.0,3.0,217.0
2021-12-12-20:19:42.070367,8.0,2.0,217.0
2021-12-12-20:19:42.071331,7.0,0.0,217.0
2021-12-12-20:19:42.072328,7.0,0.0,217.0
2021-12-12-20:19:42.073325,7.0,0.0,217.0
2021-12-12-20:19:42.074358,9.0,6.0,217.0
2021-12-12-20:19:42.075354,2.0,1.0,217.0
2021-12-12-20:19:42.076350,2.0,1.0,217.0
2021-12-12-20:19:42.077349,2.0,1.0,217.0
2021-12-12-20:19:42.078312,2.0,10.0,216.0
2021-12-12-20:19:42.079311,2.0,10.0,217.0
2021-12-12-20:19:42.080344,2.0,10.0,217.0
2021-12-12-20:19:42.081337,2.0,10.0,217.0
2021-12-12-20:19:42.082336,2.0,12.0,216.0
2021-12-12-20:19:42.083332,6.0,7.0,216.0
2021-12-12-20:19:42.084329,6.0,7.0,216.0
2021-12-12-20:19:42.085328,6.0,7.0,216.0
2021-12-12-20:19:42.086330,7.0,0.0,217.0
2021-12-12-20:19:42.087322,6.0,1.0,217.0
2021-12-12-20:19:42.088323,6.0,1.0,217.0
2021-12-12-20:19:42.089318,6.0,1.0,217.0
2021-12-12-20:19:42.090315,8.0,6.0,217.0
2021-12-12-20:19:42.091311,6.0,1.0,217.0
2021-12-12-20:19:42.092309,6.0,1.0,217.0
2021-12-12-20:19:42.093306,6.0,1.0,217.0
2021-12-12-20:19:42.094304,3.0,14.0,216.0
2021-12-12-20:19:42.095300,1.0,9.0,216.0
2021-12-12-20:19:42.097295,1.0,9.0,216.0
2021-12-12-20:19:42.097295,5.0,17.0,217.0
2021-12-12-20:19:42.098293,4.0,9.0,217.0
2021-12-12-20:19:42.099289,4.0,9.0,217.0
2021-12-12-20:19:42.100255,4.0,9.0,217.0
2021-12-12-20:19:42.101285,4.0,9.0,217.0
2021-12-12-20:19:42.102282,8.0,1.0,217.0
2021-12-12-20:19:42.103280,8.0,1.0,217.0
2021-12-12-20:19:42.104281,8.0,1.0,217.0
2021-12-12-20:19:42.105274,8.0,1.0,217.0
2021-12-12-20:19:42.106273,8.0,1.0,217.0
2021-12-12-20:19:42.107257,4.0,2.0,217.0
2021-12-12-20:19:42.108265,4.0,2.0,217.0
2021-12-12-20:19:42.109264,4.0,2.0,217.0
2021-12-12-20:19:42.110259,4.0,2.0,217.0
2021-12-12-20:19:42.111257,1.0,9.0,217.0
2021-12-12-20:19:42.112257,0.0,9.0,216.0
2021-12-12-20:19:42.113219,0.0,9.0,216.0
2021-12-12-20:19:42.114251,0.0,9.0,216.0
2021-12-12-20:19:42.115247,2.0,10.0,217.0
2021-12-12-20:19:42.116247,5.0,12.0,216.0
2021-12-12-20:19:42.117243,5.0,12.0,216.0
2021-12-12-20:19:42.118239,5.0,12.0,216.0
2021-12-12-20:19:42.119203,10.0,5.0,217.0
2021-12-12-20:19:42.120200,9.0,0.0,217.0
2021-12-12-20:19:42.121197,9.0,0.0,217.0
2021-12-12-20:19:42.122194,9.0,0.0,217.0
2021-12-12-20:19:42.123192,9.0,3.0,216.0
2021-12-12-20:19:42.124190,6.0,6.0,217.0
2021-12-12-20:19:42.125187,6.0,6.0,217.0
2021-12-12-20:19:42.126218,6.0,6.0,217.0
2021-12-12-20:19:42.127181,1.0,4.0,217.0
2021-12-12-20:19:42.128215,2.0,9.0,216.0
2021-12-12-20:19:42.129216,2.0,9.0,216.0
2021-12-12-20:19:42.131205,2.0,9.0,216.0
2021-12-12-20:19:42.131205,6.0,4.0,217.0
2021-12-12-20:19:42.132202,4.0,12.0,217.0
2021-12-12-20:19:42.133200,4.0,12.0,217.0
2021-12-12-20:19:42.134195,4.0,12.0,217.0
2021-12-12-20:19:42.135194,8.0,19.0,217.0
2021-12-12-20:19:42.136194,10.0,6.0,217.0
2021-12-12-20:19:42.137189,10.0,6.0,217.0
2021-12-12-20:19:42.138187,10.0,6.0,217.0
2021-12-12-20:19:42.139185,6.0,4.0,217.0
2021-12-12-20:19:42.140183,9.0,10.0,217.0
2021-12-12-20:19:42.141180,9.0,10.0,217.0
2021-12-12-20:19:42.142177,9.0,10.0,217.0
2021-12-12-20:19:42.143174,9.0,10.0,217.0
2021-12-12-20:19:42.144174,0.0,10.0,217.0
2021-12-12-20:19:42.145167,0.0,10.0,217.0
2021-12-12-20:19:42.146165,0.0,10.0,217.0
2021-12-12-20:19:42.147163,0.0,10.0,217.0
2021-12-12-20:19:42.148160,8.0,12.0,217.0
2021-12-12-20:19:42.149159,8.0,12.0,217.0
2021-12-12-20:19:42.150155,8.0,12.0,217.0
2021-12-12-20:19:42.151117,8.0,12.0,217.0
2021-12-12-20:19:42.152114,8.0,4.0,217.0
2021-12-12-20:19:42.153111,9.0,3.0,217.0
2021-12-12-20:19:42.154108,9.0,3.0,217.0
2021-12-12-20:19:42.155106,9.0,3.0,217.0
2021-12-12-20:19:42.156103,5.0,1.0,217.0
2021-12-12-20:19:42.157101,11.0,8.0,217.0
2021-12-12-20:19:42.158098,11.0,8.0,217.0
2021-12-12-20:19:42.159095,11.0,8.0,217.0
2021-12-12-20:19:42.160092,4.0,5.0,216.0
2021-12-12-20:19:42.161090,1.0,9.0,217.0
2021-12-12-20:19:42.162087,1.0,9.0,217.0
2021-12-12-20:19:42.164082,1.0,9.0,217.0
2021-12-12-20:19:42.164082,3.0,11.0,217.0
2021-12-12-20:19:42.165080,7.0,11.0,217.0
2021-12-12-20:19:42.166076,7.0,11.0,217.0
2021-12-12-20:19:42.167075,7.0,11.0,217.0
2021-12-12-20:19:42.168071,8.0,4.0,217.0
2021-12-12-20:19:42.169068,11.0,3.0,217.0
2021-12-12-20:19:42.170066,11.0,3.0,217.0
2021-12-12-20:19:42.171063,11.0,3.0,217.0
2021-12-12-20:19:42.172061,7.0,1.0,217.0
2021-12-12-20:19:42.173058,8.0,7.0,217.0
2021-12-12-20:19:42.174055,8.0,7.0,217.0
2021-12-12-20:19:42.175052,8.0,7.0,217.0
2021-12-12-20:19:42.176050,4.0,0.0,217.0
2021-12-12-20:19:42.177047,3.0,8.0,217.0
2021-12-12-20:19:42.178044,3.0,8.0,217.0
2021-12-12-20:19:42.179042,3.0,8.0,217.0
2021-12-12-20:19:42.180039,7.0,9.0,217.0
2021-12-12-20:19:42.181037,7.0,9.0,217.0
2021-12-12-20:19:42.182034,7.0,9.0,217.0
2021-12-12-20:19:42.183031,7.0,9.0,217.0
2021-12-12-20:19:42.184028,7.0,9.0,217.0
2021-12-12-20:19:42.185026,10.0,2.0,216.0
2021-12-12-20:19:42.186023,10.0,2.0,216.0
2021-12-12-20:19:42.187020,10.0,2.0,216.0
2021-12-12-20:19:42.188018,10.0,2.0,216.0
2021-12-12-20:19:42.189015,11.0,1.0,217.0
2021-12-12-20:19:42.190013,7.0,13.0,217.0
2021-12-12-20:19:42.191010,7.0,13.0,217.0
2021-12-12-20:19:42.192007,7.0,13.0,217.0
2021-12-12-20:19:42.193005,5.0,0.0,217.0
2021-12-12-20:19:42.194002,2.0,7.0,217.0
2021-12-12-20:19:42.194999,2.0,7.0,217.0
2021-12-12-20:19:42.195996,2.0,7.0,217.0
2021-12-12-20:19:42.196997,2.0,8.0,216.0
2021-12-12-20:19:42.197992,3.0,9.0,217.0
2021-12-12-20:19:42.198989,5.0,13.0,217.0
2021-12-12-20:19:42.200025,5.0,13.0,217.0
2021-12-12-20:19:42.201019,6.0,10.0,217.0
2021-12-12-20:19:42.202978,10.0,2.0,217.0
2021-12-12-20:19:42.202978,10.0,2.0,217.0
2021-12-12-20:19:42.203975,10.0,2.0,217.0
2021-12-12-20:19:42.204974,9.0,4.0,217.0
2021-12-12-20:19:42.205970,8.0,0.0,217.0
2021-12-12-20:19:42.206968,4.0,13.0,216.0
2021-12-12-20:19:42.207965,9.0,4.0,216.0
2021-12-12-20:19:42.208964,5.0,5.0,216.0
2021-12-12-20:19:42.209960,3.0,5.0,216.0
2021-12-12-20:19:42.210958,0.0,10.0,217.0
2021-12-12-20:19:42.211954,0.0,10.0,217.0
2021-12-12-20:19:42.212952,3.0,10.0,217.0
2021-12-12-20:19:42.213982,5.0,12.0,217.0
2021-12-12-20:19:42.214980,5.0,12.0,217.0
2021-12-12-20:19:42.215977,5.0,12.0,217.0
2021-12-12-20:19:42.216975,9.0,1.0,216.0
2021-12-12-20:19:42.217940,9.0,1.0,216.0
2021-12-12-20:19:42.218937,9.0,1.0,216.0
2021-12-12-20:19:42.219934,9.0,1.0,216.0
2021-12-12-20:19:42.220931,9.0,1.0,216.0
2021-12-12-20:19:42.221929,9.0,9.0,217.0
2021-12-12-20:19:42.222927,9.0,9.0,217.0
2021-12-12-20:19:42.223925,9.0,9.0,217.0
2021-12-12-20:19:42.224922,9.0,9.0,217.0
2021-12-12-20:19:42.225919,6.0,8.0,216.0
2021-12-12-20:19:42.226916,1.0,2.0,217.0
2021-12-12-20:19:42.227914,2.0,9.0,217.0
2021-12-12-20:19:42.228912,2.0,9.0,217.0
2021-12-12-20:19:42.229908,2.0,11.0,217.0
2021-12-12-20:19:42.230905,4.0,11.0,217.0
2021-12-12-20:19:42.231902,4.0,11.0,217.0
2021-12-12-20:19:42.233897,4.0,11.0,217.0
2021-12-12-20:19:42.234894,7.0,17.0,217.0
2021-12-12-20:19:42.234894,10.0,2.0,216.0
2021-12-12-20:19:42.235891,10.0,2.0,216.0
2021-12-12-20:19:42.236889,10.0,2.0,216.0
2021-12-12-20:19:42.237886,9.0,2.0,216.0
2021-12-12-20:19:42.238884,7.0,9.0,217.0
2021-12-12-20:19:42.239883,7.0,9.0,217.0
2021-12-12-20:19:42.240878,7.0,9.0,217.0
2021-12-12-20:19:42.241875,6.0,0.0,217.0
2021-12-12-20:19:42.242873,0.0,8.0,217.0
2021-12-12-20:19:42.243870,0.0,8.0,217.0
2021-12-12-20:19:42.244868,0.0,8.0,217.0
2021-12-12-20:19:42.245865,1.0,9.0,216.0
2021-12-12-20:19:42.246863,3.0,12.0,217.0
2021-12-12-20:19:42.247859,3.0,12.0,217.0
2021-12-12-20:19:42.248856,3.0,12.0,217.0
2021-12-12-20:19:42.249853,4.0,16.0,217.0
2021-12-12-20:19:42.250853,12.0,4.0,217.0
2021-12-12-20:19:42.251848,12.0,4.0,217.0
2021-12-12-20:19:42.252845,12.0,4.0,217.0
2021-12-12-20:19:42.253842,8.0,1.0,217.0
2021-12-12-20:19:42.254840,6.0,11.0,216.0
2021-12-12-20:19:42.255839,6.0,11.0,216.0
2021-12-12-20:19:42.256836,6.0,11.0,216.0
2021-12-12-20:19:42.257834,6.0,11.0,216.0
2021-12-12-20:19:42.258830,6.0,5.0,216.0
2021-12-12-20:19:42.259828,1.0,5.0,216.0
2021-12-12-20:19:42.260860,1.0,5.0,216.0
2021-12-12-20:19:42.261821,1.0,11.0,217.0
2021-12-12-20:19:42.262818,6.0,13.0,216.0
2021-12-12-20:19:42.263816,6.0,13.0,216.0
2021-12-12-20:19:42.264813,6.0,13.0,216.0
2021-12-12-20:19:42.265812,3.0,8.0,217.0
2021-12-12-20:19:42.266809,4.0,10.0,216.0
2021-12-12-20:19:42.269801,8.0,6.0,217.0
2021-12-12-20:19:42.269801,10.0,3.0,217.0
2021-12-12-20:19:42.270799,7.0,0.0,216.0
2021-12-12-20:19:42.271796,4.0,1.0,217.0
2021-12-12-20:19:42.272794,5.0,1.0,216.0
2021-12-12-20:19:42.273808,5.0,1.0,216.0
2021-12-12-20:19:42.274820,8.0,7.0,217.0
2021-12-12-20:19:42.275784,6.0,9.0,217.0
2021-12-12-20:19:42.276781,4.0,1.0,217.0
2021-12-12-20:19:42.277779,1.0,6.0,217.0
2021-12-12-20:19:42.278775,1.0,10.0,217.0
2021-12-12-20:19:42.279773,3.0,9.0,217.0
2021-12-12-20:19:42.280770,3.0,9.0,217.0
2021-12-12-20:19:42.281769,3.0,9.0,217.0
2021-12-12-20:19:42.282767,5.0,9.0,216.0
2021-12-12-20:19:42.283763,6.0,14.0,217.0
2021-12-12-20:19:42.284795,4.0,7.0,217.0
2021-12-12-20:19:42.285757,8.0,2.0,217.0
2021-12-12-20:19:42.286754,8.0,2.0,217.0
2021-12-12-20:19:42.287784,8.0,1.0,216.0
2021-12-12-20:19:42.288749,5.0,3.0,217.0
2021-12-12-20:19:42.289747,5.0,3.0,217.0
2021-12-12-20:19:42.290745,0.0,5.0,217.0
2021-12-12-20:19:42.291741,0.0,5.0,217.0
2021-12-12-20:19:42.292738,0.0,5.0,217.0
2021-12-12-20:19:42.293737,0.0,5.0,217.0
2021-12-12-20:19:42.294735,2.0,6.0,217.0
2021-12-12-20:19:42.295732,1.0,9.0,217.0
2021-12-12-20:19:42.296729,1.0,9.0,217.0
2021-12-12-20:19:42.297726,1.0,9.0,217.0
2021-12-12-20:19:42.298724,3.0,9.0,217.0
2021-12-12-20:19:42.299721,5.0,6.0,217.0
2021-12-12-20:19:42.300718,5.0,6.0,217.0
2021-12-12-20:19:42.302714,5.0,6.0,217.0
2021-12-12-20:19:42.303709,9.0,3.0,217.0
2021-12-12-20:19:42.303709,8.0,0.0,217.0
2021-12-12-20:19:42.304706,8.0,0.0,217.0
2021-12-12-20:19:42.305703,8.0,0.0,217.0
2021-12-12-20:19:42.306701,8.0,0.0,217.0
2021-12-12-20:19:42.307699,9.0,6.0,216.0
2021-12-12-20:19:42.308698,0.0,1.0,216.0
2021-12-12-20:19:42.309694,0.0,1.0,216.0
2021-12-12-20:19:42.310690,0.0,1.0,216.0
2021-12-12-20:19:42.311687,1.0,7.0,217.0
2021-12-12-20:19:42.312685,1.0,7.0,217.0
2021-12-12-20:19:42.313683,1.0,8.0,217.0
2021-12-12-20:19:42.314680,4.0,10.0,217.0
2021-12-12-20:19:42.315676,4.0,6.0,217.0
2021-12-12-20:19:42.316674,5.0,6.0,217.0
2021-12-12-20:19:42.317671,5.0,6.0,217.0
2021-12-12-20:19:42.318669,5.0,6.0,217.0
2021-12-12-20:19:42.319666,7.0,3.0,216.0
2021-12-12-20:19:42.320698,8.0,1.0,217.0
2021-12-12-20:19:42.321662,5.0,0.0,217.0
2021-12-12-20:19:42.322660,5.0,0.0,217.0
2021-12-12-20:19:42.323658,10.0,8.0,217.0
2021-12-12-20:19:42.324654,5.0,3.0,216.0
2021-12-12-20:19:42.325652,5.0,3.0,216.0
2021-12-12-20:19:42.326649,5.0,3.0,216.0
2021-12-12-20:19:42.327647,1.0,8.0,216.0
2021-12-12-20:19:42.328643,2.0,9.0,216.0
2021-12-12-20:19:42.329640,2.0,9.0,216.0
2021-12-12-20:19:42.330637,2.0,9.0,216.0
2021-12-12-20:19:42.331662,2.0,9.0,216.0
2021-12-12-20:19:42.332667,4.0,6.0,217.0
2021-12-12-20:19:42.333663,4.0,6.0,217.0
2021-12-12-20:19:42.334627,4.0,6.0,217.0
2021-12-12-20:19:42.335625,4.0,6.0,217.0
2021-12-12-20:19:42.336656,8.0,3.0,217.0
2021-12-12-20:19:42.337618,7.0,2.0,217.0
2021-12-12-20:19:42.339614,8.0,1.0,217.0
2021-12-12-20:19:42.339614,8.0,1.0,217.0
2021-12-12-20:19:42.340610,3.0,9.0,217.0
2021-12-12-20:19:42.341607,9.0,2.0,217.0
2021-12-12-20:19:42.342605,9.0,2.0,217.0
2021-12-12-20:19:42.343602,9.0,2.0,217.0
2021-12-12-20:19:42.344599,0.0,1.0,216.0
2021-12-12-20:19:42.345596,3.0,10.0,216.0
2021-12-12-20:19:42.346594,3.0,10.0,216.0
2021-12-12-20:19:42.347591,3.0,10.0,216.0
2021-12-12-20:19:42.348589,2.0,12.0,217.0
2021-12-12-20:19:42.349586,5.0,10.0,216.0
2021-12-12-20:19:42.350583,5.0,10.0,216.0
2021-12-12-20:19:42.351582,5.0,10.0,216.0
2021-12-12-20:19:42.352578,7.0,4.0,217.0
2021-12-12-20:19:42.353598,7.0,4.0,217.0
2021-12-12-20:19:42.354573,9.0,1.0,217.0
2021-12-12-20:19:42.355570,9.0,1.0,217.0
2021-12-12-20:19:42.356568,6.0,1.0,216.0
2021-12-12-20:19:42.357565,4.0,8.0,217.0
2021-12-12-20:19:42.358562,4.0,8.0,217.0
2021-12-12-20:19:42.359560,4.0,8.0,217.0
2021-12-12-20:19:42.360557,1.0,3.0,217.0
2021-12-12-20:19:42.361556,0.0,10.0,217.0
2021-12-12-20:19:42.362551,0.0,10.0,217.0
2021-12-12-20:19:42.363549,0.0,10.0,217.0
2021-12-12-20:19:42.364547,2.0,7.0,216.0
2021-12-12-20:19:42.365544,3.0,13.0,216.0
2021-12-12-20:19:42.366541,3.0,13.0,216.0
2021-12-12-20:19:42.367538,3.0,13.0,216.0
2021-12-12-20:19:42.368569,10.0,1.0,217.0
2021-12-12-20:19:42.370564,11.0,0.0,216.0
2021-12-12-20:19:42.370564,11.0,0.0,216.0
2021-12-12-20:19:42.371561,11.0,0.0,216.0
2021-12-12-20:19:42.372525,11.0,0.0,216.0
2021-12-12-20:19:42.373522,5.0,3.0,217.0
2021-12-12-20:19:42.374519,8.0,7.0,216.0
2021-12-12-20:19:42.375516,8.0,7.0,216.0
2021-12-12-20:19:42.376514,8.0,7.0,216.0
2021-12-12-20:19:42.377511,4.0,0.0,217.0
2021-12-12-20:19:42.378509,2.0,12.0,217.0
2021-12-12-20:19:42.379506,2.0,12.0,217.0
2021-12-12-20:19:42.380503,0.0,9.0,217.0
2021-12-12-20:19:42.381500,3.0,10.0,217.0
2021-12-12-20:19:42.382498,5.0,14.0,217.0
2021-12-12-20:19:42.383495,5.0,14.0,217.0
2021-12-12-20:19:42.384492,5.0,14.0,217.0
2021-12-12-20:19:42.385490,5.0,6.0,217.0
2021-12-12-20:19:42.386487,10.0,2.0,217.0
2021-12-12-20:19:42.387485,10.0,2.0,217.0
2021-12-12-20:19:42.388519,10.0,2.0,217.0
2021-12-12-20:19:42.389490,4.0,11.0,217.0
2021-12-12-20:19:42.390487,7.0,8.0,217.0
2021-12-12-20:19:42.391475,7.0,8.0,217.0
2021-12-12-20:19:42.392508,7.0,8.0,217.0
2021-12-12-20:19:42.393504,1.0,9.0,216.0
2021-12-12-20:19:42.394468,0.0,10.0,217.0
2021-12-12-20:19:42.395465,0.0,10.0,217.0
2021-12-12-20:19:42.396462,0.0,10.0,217.0
2021-12-12-20:19:42.397491,2.0,13.0,217.0
2021-12-12-20:19:42.398489,7.0,11.0,217.0
2021-12-12-20:19:42.399485,7.0,11.0,217.0
2021-12-12-20:19:42.400490,7.0,11.0,217.0
2021-12-12-20:19:42.401447,8.0,3.0,216.0
2021-12-12-20:19:42.402479,7.0,3.0,217.0
2021-12-12-20:19:42.403442,7.0,3.0,217.0
2021-12-12-20:19:42.404439,7.0,3.0,217.0
2021-12-12-20:19:42.405436,5.0,0.0,217.0
2021-12-12-20:19:42.407433,6.0,10.0,217.0
2021-12-12-20:19:42.408429,8.0,8.0,216.0
2021-12-12-20:19:42.408429,8.0,8.0,216.0
2021-12-12-20:19:42.409428,7.0,5.0,217.0
2021-12-12-20:19:42.410423,3.0,9.0,217.0
2021-12-12-20:19:42.411422,3.0,9.0,217.0
2021-12-12-20:19:42.412419,3.0,9.0,217.0
2021-12-12-20:19:42.413417,3.0,9.0,217.0
2021-12-12-20:19:42.414413,2.0,16.0,217.0
2021-12-12-20:19:42.415410,2.0,8.0,217.0
2021-12-12-20:19:42.416407,6.0,11.0,217.0
2021-12-12-20:19:42.417406,6.0,11.0,217.0
2021-12-12-20:19:42.418402,8.0,13.0,216.0
2021-12-12-20:19:42.419400,6.0,9.0,217.0
2021-12-12-20:19:42.420397,10.0,4.0,216.0
2021-12-12-20:19:42.421394,10.0,4.0,216.0
2021-12-12-20:19:42.422393,10.0,4.0,216.0
2021-12-12-20:19:42.423391,9.0,1.0,216.0
2021-12-12-20:19:42.424386,7.0,12.0,217.0
2021-12-12-20:19:42.425383,7.0,7.0,217.0
2021-12-12-20:19:42.426381,1.0,1.0,217.0
2021-12-12-20:19:42.427378,1.0,11.0,216.0
2021-12-12-20:19:42.428375,1.0,11.0,216.0
2021-12-12-20:19:42.429373,1.0,11.0,216.0
2021-12-12-20:19:42.430403,1.0,7.0,217.0
2021-12-12-20:19:42.431367,6.0,13.0,216.0
2021-12-12-20:19:42.432365,6.0,13.0,216.0
2021-12-12-20:19:42.433362,6.0,13.0,216.0
2021-12-12-20:19:42.434359,5.0,7.0,217.0
2021-12-12-20:19:42.435364,7.0,2.0,217.0
2021-12-12-20:19:42.436354,7.0,2.0,217.0
2021-12-12-20:19:42.437352,7.0,2.0,217.0
2021-12-12-20:19:42.438349,8.0,3.0,217.0
2021-12-12-20:19:42.440343,8.0,3.0,217.0
2021-12-12-20:19:42.440343,3.0,12.0,216.0
2021-12-12-20:19:42.441342,8.0,3.0,216.0
2021-12-12-20:19:42.442372,4.0,5.0,217.0
2021-12-12-20:19:42.443335,1.0,6.0,217.0
2021-12-12-20:19:42.444332,6.0,10.0,217.0
2021-12-12-20:19:42.445331,6.0,10.0,217.0
2021-12-12-20:19:42.446328,2.0,10.0,217.0
2021-12-12-20:19:42.447325,4.0,13.0,217.0
2021-12-12-20:19:42.448322,4.0,13.0,217.0
2021-12-12-20:19:42.449319,4.0,13.0,217.0
2021-12-12-20:19:42.450317,4.0,13.0,217.0
2021-12-12-20:19:42.451324,8.0,4.0,217.0
2021-12-12-20:19:42.452346,8.0,4.0,217.0
2021-12-12-20:19:42.453348,8.0,4.0,217.0
2021-12-12-20:19:42.454306,8.0,4.0,217.0
2021-12-12-20:19:42.455343,9.0,8.0,216.0
2021-12-12-20:19:42.456301,9.0,8.0,216.0
2021-12-12-20:19:42.457298,9.0,8.0,216.0
2021-12-12-20:19:42.458295,9.0,8.0,216.0
2021-12-12-20:19:42.459292,4.0,2.0,216.0
2021-12-12-20:19:42.460289,4.0,9.0,217.0
2021-12-12-20:19:42.461287,4.0,9.0,217.0
2021-12-12-20:19:42.462284,4.0,9.0,217.0
2021-12-12-20:19:42.463282,2.0,11.0,217.0
2021-12-12-20:19:42.464279,4.0,10.0,217.0
2021-12-12-20:19:42.465276,4.0,10.0,217.0
2021-12-12-20:19:42.466274,4.0,10.0,217.0
2021-12-12-20:19:42.467304,9.0,8.0,217.0
2021-12-12-20:19:42.468270,9.0,6.0,217.0
2021-12-12-20:19:42.469268,10.0,3.0,217.0
2021-12-12-20:19:42.472258,10.0,3.0,217.0
2021-12-12-20:19:42.472258,7.0,1.0,217.0
2021-12-12-20:19:42.473256,6.0,10.0,217.0
2021-12-12-20:19:42.474253,6.0,10.0,217.0
2021-12-12-20:19:42.475250,5.0,8.0,217.0
2021-12-12-20:19:42.476248,1.0,9.0,217.0
2021-12-12-20:19:42.477245,1.0,9.0,217.0
2021-12-12-20:19:42.478242,1.0,9.0,217.0
2021-12-12-20:19:42.479241,2.0,13.0,217.0
2021-12-12-20:19:42.480240,2.0,8.0,217.0
2021-12-12-20:19:42.481270,3.0,11.0,217.0
2021-12-12-20:19:42.482231,3.0,11.0,217.0
2021-12-12-20:19:42.483229,9.0,4.0,217.0
2021-12-12-20:19:42.484252,9.0,4.0,217.0
2021-12-12-20:19:42.485250,9.0,4.0,217.0
2021-12-12-20:19:42.486221,9.0,4.0,217.0
2021-12-12-20:19:42.487219,9.0,4.0,217.0
2021-12-12-20:19:42.488248,6.0,6.0,217.0
2021-12-12-20:19:42.489213,6.0,6.0,217.0
2021-12-12-20:19:42.490211,6.0,6.0,217.0
2021-12-12-20:19:42.491207,6.0,6.0,217.0
2021-12-12-20:19:42.492205,1.0,11.0,216.0
2021-12-12-20:19:42.493202,1.0,11.0,216.0
2021-12-12-20:19:42.494199,1.0,11.0,216.0
2021-12-12-20:19:42.495197,1.0,11.0,216.0
2021-12-12-20:19:42.496195,0.0,10.0,217.0
2021-12-12-20:19:42.497227,7.0,9.0,216.0
2021-12-12-20:19:42.498189,7.0,9.0,216.0
2021-12-12-20:19:42.499186,7.0,9.0,216.0
2021-12-12-20:19:42.500218,7.0,14.0,216.0
2021-12-12-20:19:42.501181,10.0,4.0,217.0
2021-12-12-20:19:42.502179,10.0,4.0,217.0
2021-12-12-20:19:42.503176,10.0,4.0,217.0
2021-12-12-20:19:42.504173,6.0,0.0,217.0
2021-12-12-20:19:42.506168,5.0,6.0,216.0
2021-12-12-20:19:42.507165,5.0,6.0,216.0
2021-12-12-20:19:42.508162,3.0,2.0,216.0
2021-12-12-20:19:42.509192,1.0,6.0,217.0
2021-12-12-20:19:42.510157,1.0,6.0,217.0
2021-12-12-20:19:42.511187,1.0,6.0,217.0
2021-12-12-20:19:42.512151,3.0,10.0,217.0
2021-12-12-20:19:42.513149,5.0,9.0,217.0
2021-12-12-20:19:42.514146,5.0,9.0,217.0
2021-12-12-20:19:42.515143,5.0,9.0,217.0
2021-12-12-20:19:42.516140,8.0,7.0,216.0
2021-12-12-20:19:42.517137,8.0,7.0,216.0
2021-12-12-20:19:42.518169,8.0,7.0,216.0
2021-12-12-20:19:42.519169,8.0,7.0,216.0
2021-12-12-20:19:42.520164,7.0,1.0,216.0
2021-12-12-20:19:42.521164,5.0,2.0,216.0
2021-12-12-20:19:42.522159,5.0,2.0,216.0
2021-12-12-20:19:42.523158,5.0,2.0,216.0
2021-12-12-20:19:42.524155,5.0,2.0,216.0
2021-12-12-20:19:42.525153,1.0,2.0,216.0
2021-12-12-20:19:42.526150,1.0,2.0,216.0
2021-12-12-20:19:42.527149,1.0,2.0,216.0
2021-12-12-20:19:42.528144,1.0,8.0,216.0
2021-12-12-20:19:42.529142,1.0,8.0,216.0
2021-12-12-20:19:42.530138,1.0,8.0,216.0
2021-12-12-20:19:42.531135,1.0,8.0,216.0
2021-12-12-20:19:42.532134,1.0,8.0,216.0
2021-12-12-20:19:42.533129,5.0,10.0,216.0
2021-12-12-20:19:42.534127,7.0,5.0,216.0
2021-12-12-20:19:42.535128,7.0,5.0,216.0
2021-12-12-20:19:42.536121,7.0,5.0,216.0
2021-12-12-20:19:42.537119,6.0,5.0,216.0
2021-12-12-20:19:42.538116,10.0,0.0,216.0
2021-12-12-20:19:42.539081,10.0,0.0,216.0
2021-12-12-20:19:42.541108,10.0,0.0,216.0
2021-12-12-20:19:42.541108,8.0,9.0,216.0
2021-12-12-20:19:42.542104,3.0,2.0,216.0
2021-12-12-20:19:42.543102,3.0,2.0,216.0
2021-12-12-20:19:42.544100,3.0,2.0,216.0
2021-12-12-20:19:42.545098,0.0,6.0,216.0
2021-12-12-20:19:42.546094,3.0,10.0,216.0
2021-12-12-20:19:42.547092,3.0,10.0,216.0
2021-12-12-20:19:42.548055,3.0,10.0,216.0
2021-12-12-20:19:42.549086,5.0,11.0,216.0
2021-12-12-20:19:42.550084,4.0,4.0,215.0
2021-12-12-20:19:42.551079,4.0,4.0,215.0
2021-12-12-20:19:42.552078,4.0,4.0,215.0
2021-12-12-20:19:42.553083,9.0,2.0,216.0
2021-12-12-20:19:42.554072,8.0,0.0,215.0
2021-12-12-20:19:42.555071,8.0,0.0,215.0
2021-12-12-20:19:42.556069,8.0,0.0,215.0
2021-12-12-20:19:42.557031,8.0,11.0,215.0
2021-12-12-20:19:42.558061,4.0,1.0,215.0
2021-12-12-20:19:42.559026,4.0,1.0,215.0
2021-12-12-20:19:42.560023,4.0,1.0,215.0
2021-12-12-20:19:42.561056,2.0,7.0,215.0
2021-12-12-20:19:42.562052,2.0,11.0,215.0
2021-12-12-20:19:42.563016,2.0,11.0,215.0
2021-12-12-20:19:42.564047,2.0,11.0,215.0
2021-12-12-20:19:42.565044,2.0,11.0,215.0
2021-12-12-20:19:42.566041,4.0,7.0,215.0
2021-12-12-20:19:42.567043,4.0,7.0,215.0
2021-12-12-20:19:42.568035,4.0,7.0,215.0
2021-12-12-20:19:42.569034,4.0,7.0,215.0
2021-12-12-20:19:42.570030,7.0,2.0,215.0
2021-12-12-20:19:42.570994,6.0,3.0,215.0
2021-12-12-20:19:42.572039,6.0,3.0,215.0
2021-12-12-20:19:42.572989,6.0,3.0,215.0
2021-12-12-20:19:42.575021,7.0,2.0,215.0
2021-12-12-20:19:42.575021,7.0,2.0,215.0
2021-12-12-20:19:42.576014,7.0,2.0,215.0
2021-12-12-20:19:42.577013,7.0,2.0,215.0
2021-12-12-20:19:42.577975,0.0,10.0,214.0
2021-12-12-20:19:42.578972,1.0,10.0,215.0
2021-12-12-20:19:42.579969,1.0,10.0,215.0
2021-12-12-20:19:42.580967,1.0,10.0,215.0
2021-12-12-20:19:42.581964,2.0,10.0,215.0
2021-12-12-20:19:42.582961,5.0,12.0,214.0
2021-12-12-20:19:42.583959,5.0,12.0,214.0
2021-12-12-20:19:42.584956,5.0,12.0,214.0
2021-12-12-20:19:42.585953,9.0,2.0,215.0
2021-12-12-20:19:42.586951,8.0,2.0,214.0
2021-12-12-20:19:42.587948,8.0,2.0,214.0
2021-12-12-20:19:42.588945,8.0,2.0,214.0
2021-12-12-20:19:42.589943,2.0,4.0,214.0
2021-12-12-20:19:42.590943,2.0,4.0,214.0
2021-12-12-20:19:42.591938,2.0,4.0,214.0
2021-12-12-20:19:42.592970,2.0,4.0,214.0
2021-12-12-20:19:42.593966,3.0,3.0,214.0
2021-12-12-20:19:42.594964,3.0,11.0,215.0
2021-12-12-20:19:42.595962,3.0,11.0,215.0
2021-12-12-20:19:42.596959,3.0,11.0,215.0
2021-12-12-20:19:42.597956,5.0,9.0,215.0
2021-12-12-20:19:42.598959,9.0,12.0,214.0
2021-12-12-20:19:42.599950,9.0,12.0,214.0
2021-12-12-20:19:42.600949,9.0,12.0,214.0
2021-12-12-20:19:42.601949,9.0,12.0,214.0
2021-12-12-20:19:42.602942,8.0,0.0,215.0
2021-12-12-20:19:42.603941,8.0,0.0,215.0
2021-12-12-20:19:42.604937,8.0,0.0,215.0
2021-12-12-20:19:42.605900,8.0,0.0,215.0
2021-12-12-20:19:42.607930,8.0,8.0,214.0
2021-12-12-20:19:42.607930,8.0,8.0,214.0
2021-12-12-20:19:42.608927,8.0,8.0,214.0
2021-12-12-20:19:42.609924,8.0,8.0,214.0
2021-12-12-20:19:42.610921,0.0,3.0,214.0
2021-12-12-20:19:42.611919,0.0,11.0,215.0
2021-12-12-20:19:42.612915,0.0,11.0,215.0
2021-12-12-20:19:42.613879,0.0,11.0,215.0
2021-12-12-20:19:42.614910,4.0,12.0,215.0
2021-12-12-20:19:42.615908,4.0,14.0,215.0
2021-12-12-20:19:42.616906,4.0,14.0,215.0
2021-12-12-20:19:42.617902,4.0,14.0,215.0
2021-12-12-20:19:42.618900,8.0,1.0,214.0
2021-12-12-20:19:42.619907,7.0,0.0,214.0
2021-12-12-20:19:42.620895,7.0,0.0,214.0
2021-12-12-20:19:42.621892,7.0,0.0,214.0
2021-12-12-20:19:42.622854,7.0,2.0,214.0
2021-12-12-20:19:42.623891,6.0,7.0,214.0
2021-12-12-20:19:42.624885,6.0,7.0,214.0
2021-12-12-20:19:42.625881,6.0,7.0,214.0
2021-12-12-20:19:42.626884,3.0,3.0,214.0
2021-12-12-20:19:42.627876,0.0,11.0,214.0
2021-12-12-20:19:42.628873,0.0,11.0,214.0
2021-12-12-20:19:42.629862,0.0,11.0,214.0
2021-12-12-20:19:42.630873,4.0,9.0,214.0
2021-12-12-20:19:42.631865,5.0,13.0,214.0
2021-12-12-20:19:42.632863,5.0,13.0,214.0
2021-12-12-20:19:42.633862,5.0,13.0,214.0
2021-12-12-20:19:42.634858,7.0,6.0,214.0
2021-12-12-20:19:42.635855,10.0,1.0,214.0
2021-12-12-20:19:42.636851,10.0,1.0,214.0
2021-12-12-20:19:42.637849,10.0,1.0,214.0
2021-12-12-20:19:42.638851,10.0,1.0,214.0
2021-12-12-20:19:42.639842,8.0,8.0,214.0
2021-12-12-20:19:42.641839,8.0,8.0,214.0
2021-12-12-20:19:42.641839,8.0,8.0,214.0
2021-12-12-20:19:42.642828,1.0,11.0,214.0
2021-12-12-20:19:42.643834,1.0,11.0,214.0
2021-12-12-20:19:42.644830,1.0,11.0,214.0
2021-12-12-20:19:42.645828,1.0,11.0,214.0
2021-12-12-20:19:42.646829,1.0,11.0,214.0
2021-12-12-20:19:42.647822,3.0,8.0,215.0
2021-12-12-20:19:42.648821,4.0,13.0,214.0
2021-12-12-20:19:42.649818,4.0,13.0,214.0
2021-12-12-20:19:42.650815,4.0,13.0,214.0
2021-12-12-20:19:42.651812,9.0,3.0,215.0
2021-12-12-20:19:42.652809,10.0,2.0,214.0
2021-12-12-20:19:42.653807,10.0,2.0,214.0
2021-12-12-20:19:42.654808,10.0,2.0,214.0
2021-12-12-20:19:42.655768,10.0,11.0,214.0
2021-12-12-20:19:42.656799,6.0,7.0,215.0
2021-12-12-20:19:42.657796,6.0,7.0,215.0
2021-12-12-20:19:42.658793,6.0,7.0,215.0
2021-12-12-20:19:42.659792,1.0,5.0,214.0
2021-12-12-20:19:42.660787,2.0,11.0,215.0
2021-12-12-20:19:42.661785,2.0,11.0,215.0
2021-12-12-20:19:42.662786,2.0,11.0,215.0
2021-12-12-20:19:42.663779,6.0,9.0,215.0
2021-12-12-20:19:42.664778,5.0,16.0,215.0
2021-12-12-20:19:42.665774,5.0,16.0,215.0
2021-12-12-20:19:42.666772,5.0,16.0,215.0
2021-12-12-20:19:42.667769,9.0,8.0,214.0
2021-12-12-20:19:42.668732,10.0,1.0,214.0
2021-12-12-20:19:42.669763,10.0,1.0,214.0
2021-12-12-20:19:42.670768,10.0,1.0,214.0
2021-12-12-20:19:42.671757,7.0,0.0,215.0
2021-12-12-20:19:42.672722,7.0,9.0,214.0
2021-12-12-20:19:42.673719,7.0,9.0,214.0
2021-12-12-20:19:42.674716,7.0,9.0,214.0
2021-12-12-20:19:42.676744,1.0,9.0,214.0
2021-12-12-20:19:42.676744,1.0,9.0,214.0
2021-12-12-20:19:42.677742,1.0,9.0,214.0
2021-12-12-20:19:42.678743,1.0,9.0,214.0
2021-12-12-20:19:42.679704,1.0,9.0,214.0
2021-12-12-20:19:42.680735,7.0,12.0,214.0
2021-12-12-20:19:42.681736,7.0,12.0,214.0
2021-12-12-20:19:42.682729,7.0,12.0,214.0
2021-12-12-20:19:42.683727,7.0,12.0,214.0
2021-12-12-20:19:42.684723,3.0,5.0,214.0
2021-12-12-20:19:42.685720,10.0,1.0,214.0
2021-12-12-20:19:42.686721,10.0,1.0,214.0
2021-12-12-20:19:42.687715,10.0,1.0,214.0
2021-12-12-20:19:42.688715,6.0,0.0,215.0
2021-12-12-20:19:42.689677,9.0,7.0,214.0
2021-12-12-20:19:42.690712,9.0,7.0,214.0
2021-12-12-20:19:42.691671,9.0,7.0,214.0
2021-12-12-20:19:42.692702,9.0,7.0,214.0
2021-12-12-20:19:42.693698,0.0,9.0,214.0
2021-12-12-20:19:42.694665,0.0,9.0,214.0
2021-12-12-20:19:42.695662,0.0,9.0,214.0
2021-12-12-20:19:42.696659,3.0,9.0,214.0
2021-12-12-20:19:42.697656,4.0,8.0,214.0
2021-12-12-20:19:42.698654,4.0,8.0,214.0
2021-12-12-20:19:42.699651,4.0,8.0,214.0
2021-12-12-20:19:42.700681,7.0,6.0,214.0
2021-12-12-20:19:42.701677,11.0,1.0,214.0
2021-12-12-20:19:42.702679,11.0,1.0,214.0
2021-12-12-20:19:42.703672,11.0,1.0,214.0
2021-12-12-20:19:42.704637,9.0,4.0,214.0
2021-12-12-20:19:42.705667,8.0,10.0,214.0
2021-12-12-20:19:42.706670,8.0,10.0,214.0
2021-12-12-20:19:42.707664,8.0,10.0,214.0
2021-12-12-20:19:42.708659,1.0,5.0,215.0
2021-12-12-20:19:42.710657,2.0,7.0,214.0
2021-12-12-20:19:42.710657,2.0,7.0,214.0
2021-12-12-20:19:42.711618,2.0,7.0,214.0
2021-12-12-20:19:42.712621,1.0,8.0,215.0
2021-12-12-20:19:42.713646,2.0,10.0,214.0
2021-12-12-20:19:42.714609,2.0,10.0,214.0
2021-12-12-20:19:42.715606,2.0,10.0,214.0
2021-12-12-20:19:42.716638,2.0,10.0,214.0
2021-12-12-20:19:42.717635,11.0,1.0,215.0
2021-12-12-20:19:42.718637,11.0,1.0,215.0
2021-12-12-20:19:42.719630,11.0,1.0,215.0
2021-12-12-20:19:42.720598,11.0,1.0,215.0
2021-12-12-20:19:42.721595,8.0,3.0,214.0
2021-12-12-20:19:42.722588,8.0,11.0,215.0
2021-12-12-20:19:42.723585,8.0,11.0,215.0
2021-12-12-20:19:42.724583,1.0,3.0,214.0
2021-12-12-20:19:42.725582,2.0,4.0,214.0
2021-12-12-20:19:42.726618,2.0,4.0,214.0
2021-12-12-20:19:42.727608,2.0,4.0,214.0
2021-12-12-20:19:42.728572,2.0,4.0,214.0
2021-12-12-20:19:42.729571,3.0,12.0,214.0
2021-12-12-20:19:42.730566,6.0,12.0,214.0
2021-12-12-20:19:42.731564,6.0,12.0,214.0
2021-12-12-20:19:42.732561,6.0,12.0,214.0
2021-12-12-20:19:42.733558,3.0,12.0,214.0
2021-12-12-20:19:42.734556,6.0,4.0,214.0
2021-12-12-20:19:42.735553,6.0,4.0,214.0
2021-12-12-20:19:42.736550,6.0,4.0,214.0
2021-12-12-20:19:42.737548,7.0,1.0,214.0
2021-12-12-20:19:42.738545,7.0,2.0,214.0
2021-12-12-20:19:42.739543,6.0,2.0,215.0
2021-12-12-20:19:42.740540,3.0,8.0,214.0
2021-12-12-20:19:42.741572,6.0,7.0,214.0
2021-12-12-20:19:42.742573,2.0,4.0,215.0
2021-12-12-20:19:42.744564,2.0,7.0,215.0
2021-12-12-20:19:42.744564,0.0,10.0,214.0
2021-12-12-20:19:42.745561,4.0,7.0,214.0
2021-12-12-20:19:42.746559,5.0,8.0,214.0
2021-12-12-20:19:42.747556,5.0,8.0,214.0
2021-12-12-20:19:42.748553,5.0,8.0,214.0
2021-12-12-20:19:42.749551,4.0,13.0,214.0
2021-12-12-20:19:42.750552,6.0,8.0,214.0
2021-12-12-20:19:42.751545,8.0,5.0,215.0
2021-12-12-20:19:42.752543,8.0,5.0,215.0
2021-12-12-20:19:42.753540,8.0,5.0,215.0
2021-12-12-20:19:42.754537,9.0,2.0,214.0
2021-12-12-20:19:42.755535,8.0,1.0,214.0
2021-12-12-20:19:42.756498,8.0,1.0,214.0
2021-12-12-20:19:42.757529,8.0,1.0,214.0
2021-12-12-20:19:42.758524,7.0,7.0,214.0
2021-12-12-20:19:42.759523,5.0,1.0,214.0
2021-12-12-20:19:42.760526,3.0,4.0,214.0
2021-12-12-20:19:42.761517,3.0,4.0,214.0
2021-12-12-20:19:42.762516,0.0,6.0,214.0
2021-12-12-20:19:42.763515,2.0,12.0,214.0
2021-12-12-20:19:42.764509,2.0,9.0,214.0
2021-12-12-20:19:42.765506,2.0,9.0,214.0
2021-12-12-20:19:42.766503,6.0,11.0,214.0
2021-12-12-20:19:42.767468,5.0,10.0,214.0
2021-12-12-20:19:42.768500,8.0,6.0,215.0
2021-12-12-20:19:42.769496,8.0,6.0,215.0
2021-12-12-20:19:42.770493,9.0,2.0,214.0
2021-12-12-20:19:42.771493,9.0,2.0,214.0
2021-12-12-20:19:42.772489,8.0,0.0,214.0
2021-12-12-20:19:42.773485,8.0,0.0,214.0
2021-12-12-20:19:42.774487,5.0,8.0,214.0
2021-12-12-20:19:42.775480,6.0,3.0,214.0
2021-12-12-20:19:42.776479,4.0,4.0,214.0
2021-12-12-20:19:42.778473,4.0,4.0,214.0
2021-12-12-20:19:42.778473,1.0,4.0,214.0
2021-12-12-20:19:42.779471,1.0,9.0,214.0
2021-12-12-20:19:42.780467,1.0,11.0,214.0
2021-12-12-20:19:42.781454,1.0,11.0,214.0
2021-12-12-20:19:42.782461,5.0,12.0,214.0
2021-12-12-20:19:42.783458,9.0,16.0,214.0
2021-12-12-20:19:42.784458,6.0,6.0,215.0
2021-12-12-20:19:42.785457,6.0,6.0,215.0
2021-12-12-20:19:42.786450,8.0,2.0,214.0
2021-12-12-20:19:42.787449,8.0,1.0,214.0
2021-12-12-20:19:42.788445,6.0,1.0,214.0
2021-12-12-20:19:42.789443,6.0,1.0,214.0
2021-12-12-20:19:42.790444,10.0,7.0,214.0
2021-12-12-20:19:42.791437,3.0,2.0,214.0
2021-12-12-20:19:42.792436,3.0,2.0,214.0
2021-12-12-20:19:42.793433,3.0,2.0,214.0
2021-12-12-20:19:42.794430,2.0,2.0,215.0
2021-12-12-20:19:42.795428,0.0,9.0,214.0
2021-12-12-20:19:42.796391,2.0,7.0,215.0
2021-12-12-20:19:42.797422,2.0,7.0,215.0
2021-12-12-20:19:42.798425,2.0,7.0,215.0
2021-12-12-20:19:42.799383,4.0,14.0,214.0
2021-12-12-20:19:42.800415,5.0,8.0,214.0
2021-12-12-20:19:42.801410,5.0,8.0,214.0
2021-12-12-20:19:42.802376,5.0,8.0,214.0
2021-12-12-20:19:42.803401,9.0,3.0,214.0
2021-12-12-20:19:42.804395,5.0,2.0,214.0
2021-12-12-20:19:42.805393,5.0,2.0,214.0
2021-12-12-20:19:42.806364,5.0,2.0,214.0
2021-12-12-20:19:42.807388,7.0,2.0,214.0
2021-12-12-20:19:42.808394,6.0,5.0,214.0
2021-12-12-20:19:42.809390,7.0,0.0,214.0
2021-12-12-20:19:42.810387,7.0,0.0,214.0
2021-12-12-20:19:42.812382,0.0,5.0,214.0
2021-12-12-20:19:42.812382,0.0,5.0,214.0
2021-12-12-20:19:42.813380,1.0,7.0,214.0
2021-12-12-20:19:42.814376,1.0,7.0,214.0
2021-12-12-20:19:42.815374,3.0,8.0,215.0
2021-12-12-20:19:42.816372,5.0,14.0,215.0
2021-12-12-20:19:42.817369,4.0,6.0,214.0
2021-12-12-20:19:42.818366,4.0,6.0,214.0
2021-12-12-20:19:42.819364,7.0,3.0,214.0
2021-12-12-20:19:42.820362,7.0,3.0,214.0
2021-12-12-20:19:42.821358,7.0,1.0,214.0
2021-12-12-20:19:42.822354,7.0,1.0,214.0
2021-12-12-20:19:42.823319,8.0,7.0,214.0
2021-12-12-20:19:42.824351,8.0,3.0,214.0
2021-12-12-20:19:42.825346,8.0,3.0,214.0
2021-12-12-20:19:42.826344,8.0,3.0,214.0
2021-12-12-20:19:42.827343,2.0,6.0,215.0
2021-12-12-20:19:42.828341,2.0,8.0,214.0
2021-12-12-20:19:42.829337,0.0,8.0,214.0
2021-12-12-20:19:42.830338,0.0,8.0,214.0
2021-12-12-20:19:42.831332,4.0,14.0,215.0
2021-12-12-20:19:42.832334,4.0,14.0,215.0
2021-12-12-20:19:42.833325,4.0,14.0,215.0
2021-12-12-20:19:42.834322,4.0,14.0,215.0
2021-12-12-20:19:42.835323,4.0,14.0,215.0
2021-12-12-20:19:42.836317,6.0,6.0,215.0
2021-12-12-20:19:42.837314,10.0,2.0,215.0
2021-12-12-20:19:42.838311,9.0,0.0,214.0
2021-12-12-20:19:42.839276,9.0,0.0,214.0
2021-12-12-20:19:42.840308,7.0,2.0,214.0
2021-12-12-20:19:42.841304,8.0,8.0,214.0
2021-12-12-20:19:42.842301,9.0,8.0,214.0
2021-12-12-20:19:42.843300,9.0,8.0,214.0
2021-12-12-20:19:42.845294,0.0,8.0,215.0
2021-12-12-20:19:42.845294,3.0,7.0,214.0
2021-12-12-20:19:42.846257,3.0,7.0,214.0
2021-12-12-20:19:42.847255,3.0,7.0,214.0
2021-12-12-20:19:42.848287,2.0,9.0,214.0
2021-12-12-20:19:42.849283,4.0,12.0,215.0
2021-12-12-20:19:42.850279,6.0,15.0,214.0
2021-12-12-20:19:42.851279,6.0,15.0,214.0
2021-12-12-20:19:42.852276,4.0,7.0,214.0
2021-12-12-20:19:42.853238,8.0,3.0,214.0
2021-12-12-20:19:42.854287,7.0,2.0,215.0
2021-12-12-20:19:42.855266,7.0,2.0,215.0
2021-12-12-20:19:42.856232,10.0,1.0,214.0
2021-12-12-20:19:42.857263,6.0,13.0,215.0
2021-12-12-20:19:42.858258,8.0,7.0,214.0
2021-12-12-20:19:42.859257,8.0,7.0,214.0
2021-12-12-20:19:42.860254,8.0,1.0,214.0
2021-12-12-20:19:42.861251,8.0,1.0,214.0
2021-12-12-20:19:42.862252,0.0,11.0,214.0
2021-12-12-20:19:42.863246,0.0,11.0,214.0
2021-12-12-20:19:42.864244,3.0,10.0,214.0
2021-12-12-20:19:42.865240,4.0,12.0,214.0
2021-12-12-20:19:42.866236,7.0,12.0,214.0
2021-12-12-20:19:42.867236,7.0,12.0,214.0
2021-12-12-20:19:42.868231,7.0,12.0,214.0
2021-12-12-20:19:42.869229,9.0,3.0,214.0
2021-12-12-20:19:42.870232,9.0,1.0,214.0
2021-12-12-20:19:42.871224,9.0,1.0,214.0
2021-12-12-20:19:42.872223,9.0,1.0,214.0
2021-12-12-20:19:42.873218,5.0,10.0,215.0
2021-12-12-20:19:42.874215,8.0,4.0,214.0
2021-12-12-20:19:42.875215,8.0,4.0,214.0
2021-12-12-20:19:42.876177,8.0,4.0,214.0
2021-12-12-20:19:42.877174,2.0,6.0,214.0
2021-12-12-20:19:42.879168,1.0,10.0,214.0
2021-12-12-20:19:42.879168,1.0,10.0,214.0
2021-12-12-20:19:42.880166,1.0,8.0,214.0
2021-12-12-20:19:42.881163,5.0,14.0,215.0
2021-12-12-20:19:42.882160,5.0,14.0,215.0
2021-12-12-20:19:42.883158,5.0,14.0,215.0
2021-12-12-20:19:42.884156,5.0,14.0,215.0
2021-12-12-20:19:42.885152,6.0,4.0,215.0
2021-12-12-20:19:42.886150,9.0,2.0,214.0
2021-12-12-20:19:42.887147,6.0,1.0,214.0
2021-12-12-20:19:42.888144,6.0,1.0,214.0
2021-12-12-20:19:42.889142,7.0,1.0,215.0
2021-12-12-20:19:42.890139,9.0,8.0,214.0
2021-12-12-20:19:42.891136,6.0,10.0,215.0
2021-12-12-20:19:42.892134,6.0,10.0,215.0
2021-12-12-20:19:42.893131,3.0,2.0,214.0
2021-12-12-20:19:42.894128,1.0,9.0,214.0
2021-12-12-20:19:42.895126,1.0,9.0,214.0
2021-12-12-20:19:42.896124,0.0,10.0,215.0
2021-12-12-20:19:42.897121,1.0,8.0,214.0
2021-12-12-20:19:42.898118,7.0,11.0,215.0
2021-12-12-20:19:42.899115,4.0,15.0,215.0
2021-12-12-20:19:42.900112,4.0,15.0,215.0
2021-12-12-20:19:42.901110,7.0,9.0,215.0
2021-12-12-20:19:42.902107,11.0,3.0,215.0
2021-12-12-20:19:42.903104,8.0,0.0,215.0
2021-12-12-20:19:42.904102,8.0,0.0,215.0
2021-12-12-20:19:42.905099,8.0,0.0,215.0
2021-12-12-20:19:42.906097,9.0,14.0,215.0
2021-12-12-20:19:42.907094,9.0,8.0,216.0
2021-12-12-20:19:42.908093,9.0,8.0,216.0
2021-12-12-20:19:42.909088,9.0,8.0,216.0
2021-12-12-20:19:42.910086,5.0,0.0,216.0
2021-12-12-20:19:42.911083,0.0,4.0,216.0
2021-12-12-20:19:42.912080,3.0,8.0,216.0
2021-12-12-20:19:42.914075,3.0,9.0,215.0
2021-12-12-20:19:42.914075,7.0,12.0,216.0
2021-12-12-20:19:42.915072,7.0,12.0,216.0
2021-12-12-20:19:42.916070,7.0,12.0,216.0
2021-12-12-20:19:42.917067,7.0,12.0,216.0
2021-12-12-20:19:42.918064,3.0,12.0,216.0
2021-12-12-20:19:42.919062,8.0,3.0,217.0
2021-12-12-20:19:42.920059,7.0,4.0,216.0
2021-12-12-20:19:42.921057,7.0,4.0,216.0
2021-12-12-20:19:42.922054,9.0,0.0,216.0
2021-12-12-20:19:42.923051,4.0,8.0,216.0
2021-12-12-20:19:42.924083,11.0,6.0,217.0
2021-12-12-20:19:42.925081,11.0,6.0,217.0
2021-12-12-20:19:42.926077,7.0,5.0,216.0
2021-12-12-20:19:42.927075,0.0,5.0,217.0
2021-12-12-20:19:42.928073,2.0,9.0,217.0
2021-12-12-20:19:42.929069,2.0,9.0,217.0
2021-12-12-20:19:42.930068,4.0,11.0,217.0
2021-12-12-20:19:42.931065,2.0,11.0,217.0
2021-12-12-20:19:42.932062,7.0,12.0,217.0
2021-12-12-20:19:42.933060,7.0,12.0,217.0
2021-12-12-20:19:42.934056,6.0,13.0,217.0
2021-12-12-20:19:42.935054,7.0,3.0,218.0
2021-12-12-20:19:42.936053,9.0,2.0,217.0
2021-12-12-20:19:42.937048,9.0,2.0,217.0
2021-12-12-20:19:42.938047,9.0,1.0,218.0
2021-12-12-20:19:42.939044,6.0,11.0,218.0
2021-12-12-20:19:42.940041,6.0,11.0,218.0
2021-12-12-20:19:42.941038,6.0,11.0,218.0
2021-12-12-20:19:42.942039,5.0,6.0,218.0
2021-12-12-20:19:42.943032,0.0,5.0,218.0
2021-12-12-20:19:42.944031,1.0,9.0,218.0
2021-12-12-20:19:42.945027,1.0,9.0,218.0
2021-12-12-20:19:42.947022,0.0,11.0,218.0
2021-12-12-20:19:42.947022,7.0,12.0,218.0
2021-12-12-20:19:42.948019,7.0,12.0,218.0
2021-12-12-20:19:42.949016,7.0,12.0,218.0
2021-12-12-20:19:42.950018,7.0,12.0,218.0
2021-12-12-20:19:42.951011,6.0,16.0,218.0
2021-12-12-20:19:42.952009,7.0,4.0,219.0
2021-12-12-20:19:42.953007,9.0,5.0,218.0
2021-12-12-20:19:42.954003,9.0,5.0,218.0
2021-12-12-20:19:42.955001,8.0,2.0,219.0
2021-12-12-20:19:42.956001,7.0,1.0,219.0
2021-12-12-20:19:42.956995,5.0,11.0,218.0
2021-12-12-20:19:42.957992,5.0,11.0,218.0
2021-12-12-20:19:42.958990,7.0,8.0,219.0
2021-12-12-20:19:42.959988,4.0,4.0,219.0
2021-12-12-20:19:42.960985,1.0,8.0,219.0
2021-12-12-20:19:42.961982,1.0,8.0,219.0
2021-12-12-20:19:42.962974,4.0,8.0,219.0
2021-12-12-20:19:42.963943,3.0,12.0,219.0
2021-12-12-20:19:42.964974,3.0,12.0,219.0
2021-12-12-20:19:42.965975,3.0,12.0,219.0
2021-12-12-20:19:42.966969,6.0,12.0,219.0
2021-12-12-20:19:42.967967,5.0,3.0,219.0
2021-12-12-20:19:42.968963,9.0,7.0,219.0
2021-12-12-20:19:42.969960,9.0,7.0,219.0
2021-12-12-20:19:42.970924,8.0,1.0,220.0
2021-12-12-20:19:42.971956,4.0,9.0,220.0
2021-12-12-20:19:42.972952,4.0,9.0,220.0
2021-12-12-20:19:42.973939,4.0,9.0,220.0
2021-12-12-20:19:42.974947,8.0,7.0,220.0
2021-12-12-20:19:42.975946,4.0,2.0,221.0
2021-12-12-20:19:42.976944,2.0,3.0,221.0
2021-12-12-20:19:42.977944,2.0,3.0,221.0
2021-12-12-20:19:42.978937,2.0,7.0,220.0
2021-12-12-20:19:42.980931,2.0,7.0,220.0
2021-12-12-20:19:42.980931,3.0,9.0,221.0
2021-12-12-20:19:42.981932,3.0,9.0,221.0
2021-12-12-20:19:42.982925,3.0,9.0,221.0
2021-12-12-20:19:42.983924,7.0,16.0,222.0
2021-12-12-20:19:42.984920,6.0,3.0,222.0
2021-12-12-20:19:42.985918,6.0,3.0,222.0
2021-12-12-20:19:42.987911,6.0,3.0,222.0
2021-12-12-20:19:42.987911,7.0,2.0,222.0
2021-12-12-20:19:42.988910,7.0,2.0,222.0
2021-12-12-20:19:42.989911,7.0,2.0,222.0
2021-12-12-20:19:42.990904,7.0,2.0,222.0
2021-12-12-20:19:42.991908,7.0,1.0,222.0
2021-12-12-20:19:42.992921,0.0,3.0,223.0
2021-12-12-20:19:42.993918,0.0,3.0,223.0
2021-12-12-20:19:42.994915,0.0,3.0,223.0
2021-12-12-20:19:42.995891,4.0,9.0,222.0
2021-12-12-20:19:42.996911,4.0,8.0,223.0
2021-12-12-20:19:42.997907,4.0,8.0,223.0
2021-12-12-20:19:42.998905,4.0,8.0,223.0
2021-12-12-20:19:42.999881,5.0,6.0,223.0
2021-12-12-20:19:43.000899,8.0,2.0,223.0
2021-12-12-20:19:43.001897,8.0,2.0,223.0
2021-12-12-20:19:43.002838,8.0,2.0,223.0
2021-12-12-20:19:43.003875,8.0,2.0,223.0
2021-12-12-20:19:43.004867,7.0,1.0,223.0
2021-12-12-20:19:43.005885,5.0,1.0,223.0
2021-12-12-20:19:43.006884,5.0,1.0,223.0
2021-12-12-20:19:43.007860,5.0,3.0,224.0
2021-12-12-20:19:43.008878,2.0,3.0,224.0
2021-12-12-20:19:43.009875,2.0,3.0,224.0
2021-12-12-20:19:43.010873,2.0,3.0,224.0
2021-12-12-20:19:43.011848,6.0,11.0,225.0
2021-12-12-20:19:43.012867,6.0,11.0,225.0
2021-12-12-20:19:43.013869,6.0,11.0,225.0
2021-12-12-20:19:43.015859,6.0,11.0,225.0
2021-12-12-20:19:43.015859,2.0,11.0,225.0
2021-12-12-20:19:43.016857,8.0,4.0,225.0
2021-12-12-20:19:43.017837,8.0,4.0,225.0
2021-12-12-20:19:43.018830,8.0,4.0,225.0
2021-12-12-20:19:43.019827,5.0,0.0,225.0
2021-12-12-20:19:43.020824,5.0,0.0,225.0
2021-12-12-20:19:43.021826,5.0,0.0,225.0
2021-12-12-20:19:43.022825,5.0,0.0,225.0
2021-12-12-20:19:43.023820,5.0,0.0,225.0
2021-12-12-20:19:43.024813,4.0,1.0,226.0
2021-12-12-20:19:43.025812,4.0,1.0,226.0
2021-12-12-20:19:43.026808,4.0,1.0,226.0
2021-12-12-20:19:43.027805,4.0,1.0,226.0
2021-12-12-20:19:43.028802,1.0,9.0,226.0
2021-12-12-20:19:43.029804,2.0,10.0,227.0
2021-12-12-20:19:43.030798,2.0,10.0,227.0
2021-12-12-20:19:43.031796,2.0,10.0,227.0
2021-12-12-20:19:43.032793,2.0,8.0,226.0
2021-12-12-20:19:43.033793,6.0,14.0,226.0
2021-12-12-20:19:43.034787,10.0,6.0,226.0
2021-12-12-20:19:43.035784,10.0,6.0,226.0
2021-12-12-20:19:43.036788,8.0,2.0,226.0
2021-12-12-20:19:43.037778,10.0,3.0,227.0
2021-12-12-20:19:43.038777,10.0,3.0,227.0
2021-12-12-20:19:43.039765,10.0,3.0,227.0
2021-12-12-20:19:43.040771,7.0,11.0,227.0
2021-12-12-20:19:43.041774,6.0,0.0,227.0
2021-12-12-20:19:43.042767,6.0,0.0,227.0
2021-12-12-20:19:43.043764,6.0,0.0,227.0
2021-12-12-20:19:43.044761,1.0,10.0,228.0
2021-12-12-20:19:43.045762,1.0,8.0,229.0
2021-12-12-20:19:43.046755,1.0,8.0,229.0
2021-12-12-20:19:43.047753,1.0,8.0,229.0
2021-12-12-20:19:43.050744,4.0,10.0,229.0
2021-12-12-20:19:43.050744,2.0,8.0,229.0
2021-12-12-20:19:43.051740,2.0,8.0,229.0
2021-12-12-20:19:43.052746,9.0,0.0,230.0
2021-12-12-20:19:43.053738,7.0,3.0,230.0
2021-12-12-20:19:43.054732,7.0,3.0,230.0
2021-12-12-20:19:43.055731,7.0,3.0,230.0
2021-12-12-20:19:43.056727,5.0,1.0,231.0
2021-12-12-20:19:43.057725,5.0,1.0,231.0
2021-12-12-20:19:43.058723,5.0,1.0,231.0
2021-12-12-20:19:43.059719,5.0,1.0,231.0
2021-12-12-20:19:43.060716,5.0,1.0,231.0
2021-12-12-20:19:43.061713,2.0,9.0,232.0
2021-12-12-20:19:43.062710,2.0,9.0,232.0
2021-12-12-20:19:43.063676,2.0,9.0,232.0
2021-12-12-20:19:43.064712,2.0,9.0,232.0
2021-12-12-20:19:43.065702,4.0,16.0,232.0
2021-12-12-20:19:43.066702,4.0,16.0,232.0
2021-12-12-20:19:43.067702,4.0,16.0,232.0
2021-12-12-20:19:43.068694,4.0,16.0,232.0
2021-12-12-20:19:43.069696,8.0,5.0,232.0
2021-12-12-20:19:43.070657,8.0,1.0,233.0
2021-12-12-20:19:43.071689,8.0,1.0,233.0
2021-12-12-20:19:43.072683,8.0,1.0,233.0
2021-12-12-20:19:43.073682,4.0,6.0,233.0
2021-12-12-20:19:43.074682,4.0,9.0,233.0
2021-12-12-20:19:43.075677,4.0,9.0,233.0
2021-12-12-20:19:43.076674,4.0,9.0,233.0
2021-12-12-20:19:43.077670,0.0,11.0,233.0
2021-12-12-20:19:43.078668,0.0,8.0,234.0
2021-12-12-20:19:43.079633,0.0,8.0,234.0
2021-12-12-20:19:43.080667,0.0,8.0,234.0
2021-12-12-20:19:43.081660,3.0,11.0,234.0
2021-12-12-20:19:43.082659,4.0,11.0,234.0
2021-12-12-20:19:43.084656,4.0,11.0,234.0
2021-12-12-20:19:43.084656,8.0,3.0,234.0
2021-12-12-20:19:43.085654,10.0,1.0,234.0
2021-12-12-20:19:43.086647,10.0,1.0,234.0
2021-12-12-20:19:43.087646,10.0,1.0,234.0
2021-12-12-20:19:43.088633,10.0,1.0,234.0
2021-12-12-20:19:43.089633,8.0,11.0,234.0
2021-12-12-20:19:43.090639,6.0,7.0,234.0
2021-12-12-20:19:43.091634,6.0,7.0,234.0
2021-12-12-20:19:43.092638,6.0,7.0,234.0
2021-12-12-20:19:43.093632,1.0,4.0,235.0
2021-12-12-20:19:43.094627,1.0,13.0,234.0
2021-12-12-20:19:43.095624,1.0,13.0,234.0
2021-12-12-20:19:43.096623,1.0,13.0,234.0
2021-12-12-20:19:43.097618,3.0,11.0,234.0
2021-12-12-20:19:43.098616,5.0,9.0,234.0
2021-12-12-20:19:43.099613,5.0,9.0,234.0
2021-12-12-20:19:43.100616,5.0,9.0,234.0
2021-12-12-20:19:43.101606,5.0,9.0,234.0
2021-12-12-20:19:43.102605,7.0,4.0,235.0
2021-12-12-20:19:43.103604,7.0,4.0,235.0
2021-12-12-20:19:43.104598,7.0,4.0,235.0
2021-12-12-20:19:43.105596,7.0,4.0,235.0
2021-12-12-20:19:43.106561,12.0,6.0,234.0
2021-12-12-20:19:43.107591,5.0,2.0,235.0
2021-12-12-20:19:43.108588,5.0,2.0,235.0
2021-12-12-20:19:43.109590,5.0,2.0,235.0
2021-12-12-20:19:43.110584,0.0,10.0,234.0
2021-12-12-20:19:43.111583,1.0,8.0,235.0
2021-12-12-20:19:43.112578,1.0,8.0,235.0
2021-12-12-20:19:43.113575,1.0,8.0,235.0
2021-12-12-20:19:43.114574,3.0,12.0,235.0
2021-12-12-20:19:43.115569,1.0,12.0,234.0
2021-12-12-20:19:43.116567,1.0,12.0,234.0
2021-12-12-20:19:43.118562,1.0,12.0,234.0
2021-12-12-20:19:43.118562,9.0,4.0,234.0
2021-12-12-20:19:43.119561,10.0,2.0,234.0
2021-12-12-20:19:43.120557,10.0,2.0,234.0
2021-12-12-20:19:43.121554,10.0,2.0,234.0
2021-12-12-20:19:43.122552,7.0,8.0,235.0
2021-12-12-20:19:43.123548,8.0,6.0,235.0
2021-12-12-20:19:43.124545,8.0,6.0,235.0
2021-12-12-20:19:43.125541,8.0,6.0,235.0
2021-12-12-20:19:43.126540,3.0,7.0,235.0
2021-12-12-20:19:43.127539,2.0,11.0,235.0
2021-12-12-20:19:43.128535,2.0,11.0,235.0
2021-12-12-20:19:43.129533,2.0,11.0,235.0
2021-12-12-20:19:43.130532,3.0,11.0,235.0
2021-12-12-20:19:43.131526,7.0,15.0,235.0
2021-12-12-20:19:43.132523,7.0,15.0,235.0
2021-12-12-20:19:43.133526,7.0,15.0,235.0
2021-12-12-20:19:43.134519,6.0,4.0,235.0
2021-12-12-20:19:43.135518,6.0,4.0,235.0
2021-12-12-20:19:43.136513,6.0,4.0,235.0
2021-12-12-20:19:43.137510,6.0,4.0,235.0
2021-12-12-20:19:43.138510,6.0,4.0,235.0
2021-12-12-20:19:43.139509,8.0,7.0,235.0
2021-12-12-20:19:43.140470,8.0,7.0,235.0
2021-12-12-20:19:43.141468,8.0,7.0,235.0
2021-12-12-20:19:43.142497,8.0,7.0,235.0
2021-12-12-20:19:43.143497,7.0,2.0,235.0
2021-12-12-20:19:43.144493,1.0,10.0,235.0
2021-12-12-20:19:43.145489,1.0,11.0,236.0
2021-12-12-20:19:43.146489,1.0,11.0,236.0
2021-12-12-20:19:43.147484,2.0,9.0,236.0
2021-12-12-20:19:43.148482,3.0,6.0,236.0
2021-12-12-20:19:43.149478,6.0,14.0,236.0
2021-12-12-20:19:43.150476,6.0,14.0,236.0
2021-12-12-20:19:43.152471,3.0,10.0,236.0
2021-12-12-20:19:43.152471,3.0,10.0,236.0
2021-12-12-20:19:43.153468,11.0,3.0,236.0
2021-12-12-20:19:43.154467,12.0,4.0,236.0
2021-12-12-20:19:43.155463,9.0,4.0,236.0
2021-12-12-20:19:43.156460,4.0,10.0,237.0
2021-12-12-20:19:43.157461,12.0,7.0,237.0
2021-12-12-20:19:43.158455,12.0,7.0,237.0
2021-12-12-20:19:43.159454,9.0,4.0,237.0
2021-12-12-20:19:43.160450,0.0,4.0,238.0
2021-12-12-20:19:43.161446,1.0,7.0,237.0
2021-12-12-20:19:43.162446,1.0,7.0,237.0
2021-12-12-20:19:43.163444,1.0,10.0,237.0
2021-12-12-20:19:43.164438,3.0,11.0,238.0
2021-12-12-20:19:43.165440,2.0,11.0,238.0
2021-12-12-20:19:43.166433,2.0,11.0,238.0
2021-12-12-20:19:43.167432,6.0,7.0,237.0
2021-12-12-20:19:43.168429,10.0,3.0,238.0
2021-12-12-20:19:43.169425,9.0,2.0,238.0
2021-12-12-20:19:43.170424,9.0,2.0,238.0
2021-12-12-20:19:43.171419,6.0,1.0,238.0
2021-12-12-20:19:43.172417,3.0,7.0,238.0
2021-12-12-20:19:43.173384,11.0,11.0,238.0
2021-12-12-20:19:43.174411,11.0,11.0,238.0
2021-12-12-20:19:43.175411,11.0,11.0,238.0
2021-12-12-20:19:43.176407,2.0,4.0,238.0
2021-12-12-20:19:43.177403,2.0,10.0,239.0
2021-12-12-20:19:43.178403,2.0,10.0,239.0
2021-12-12-20:19:43.179398,2.0,10.0,239.0
2021-12-12-20:19:43.180395,0.0,7.0,239.0
2021-12-12-20:19:43.181397,4.0,8.0,240.0
2021-12-12-20:19:43.182390,7.0,9.0,239.0
2021-12-12-20:19:43.183389,7.0,9.0,239.0
2021-12-12-20:19:43.185389,5.0,14.0,240.0
2021-12-12-20:19:43.185389,12.0,7.0,240.0
2021-12-12-20:19:43.186382,12.0,7.0,240.0
2021-12-12-20:19:43.187378,12.0,7.0,240.0
2021-12-12-20:19:43.188371,8.0,4.0,240.0
2021-12-12-20:19:43.189362,7.0,1.0,241.0
2021-12-12-20:19:43.190337,8.0,10.0,241.0
2021-12-12-20:19:43.191369,8.0,10.0,241.0
2021-12-12-20:19:43.192366,7.0,7.0,241.0
2021-12-12-20:19:43.193361,5.0,2.0,241.0
2021-12-12-20:19:43.194360,1.0,7.0,241.0
2021-12-12-20:19:43.195356,1.0,7.0,241.0
2021-12-12-20:19:43.196353,2.0,11.0,242.0
2021-12-12-20:19:43.197355,4.0,9.0,242.0
2021-12-12-20:19:43.198348,6.0,13.0,242.0
2021-12-12-20:19:43.199348,6.0,13.0,242.0
2021-12-12-20:19:43.200346,4.0,13.0,242.0
2021-12-12-20:19:43.201340,4.0,13.0,242.0
2021-12-12-20:19:43.202340,4.0,6.0,242.0
2021-12-12-20:19:43.203327,9.0,7.0,242.0
2021-12-12-20:19:43.204332,9.0,3.0,243.0
2021-12-12-20:19:43.205333,9.0,0.0,243.0
2021-12-12-20:19:43.206327,5.0,10.0,243.0
2021-12-12-20:19:43.207337,5.0,10.0,243.0
2021-12-12-20:19:43.208321,6.0,4.0,243.0
2021-12-12-20:19:43.209318,1.0,5.0,244.0
2021-12-12-20:19:43.210318,1.0,5.0,244.0
2021-12-12-20:19:43.211314,1.0,5.0,244.0
2021-12-12-20:19:43.212311,1.0,5.0,244.0
2021-12-12-20:19:43.213312,1.0,11.0,244.0
2021-12-12-20:19:43.214311,3.0,9.0,245.0
2021-12-12-20:19:43.215305,3.0,9.0,245.0
2021-12-12-20:19:43.216300,3.0,9.0,245.0
2021-12-12-20:19:43.217297,7.0,4.0,245.0
2021-12-12-20:19:43.218263,9.0,4.0,246.0
2021-12-12-20:19:43.219274,9.0,4.0,246.0
2021-12-12-20:19:43.220291,9.0,4.0,246.0
2021-12-12-20:19:43.221292,10.0,2.0,246.0
2021-12-12-20:19:43.223269,5.0,6.0,247.0
2021-12-12-20:19:43.224300,3.0,0.0,247.0
2021-12-12-20:19:43.224300,1.0,2.0,248.0
2021-12-12-20:19:43.225265,1.0,2.0,248.0
2021-12-12-20:19:43.226275,1.0,2.0,248.0
2021-12-12-20:19:43.227271,1.0,2.0,248.0
2021-12-12-20:19:43.228269,1.0,2.0,248.0
2021-12-12-20:19:43.229271,2.0,7.0,248.0
2021-12-12-20:19:43.230267,2.0,10.0,248.0
2021-12-12-20:19:43.231264,3.0,9.0,248.0
2021-12-12-20:19:43.232264,3.0,9.0,248.0
2021-12-12-20:19:43.233258,5.0,9.0,248.0
2021-12-12-20:19:43.234258,3.0,7.0,249.0
2021-12-12-20:19:43.235239,9.0,6.0,249.0
2021-12-12-20:19:43.236249,9.0,6.0,249.0
2021-12-12-20:19:43.237249,8.0,3.0,250.0
2021-12-12-20:19:43.238243,7.0,3.0,250.0
2021-12-12-20:19:43.239241,7.0,3.0,250.0
2021-12-12-20:19:43.240237,7.0,3.0,250.0
2021-12-12-20:19:43.241200,5.0,10.0,250.0
2021-12-12-20:19:43.242245,0.0,5.0,252.0
2021-12-12-20:19:43.243398,0.0,5.0,252.0
2021-12-12-20:19:43.243398,0.0,5.0,252.0
2021-12-12-20:19:43.244227,0.0,5.0,252.0
2021-12-12-20:19:43.245228,1.0,6.0,252.0
2021-12-12-20:19:43.246234,0.0,9.0,253.0
2021-12-12-20:19:43.247220,5.0,10.0,253.0
2021-12-12-20:19:43.248217,5.0,10.0,253.0
2021-12-12-20:19:43.249220,7.0,9.0,253.0
2021-12-12-20:19:43.250222,3.0,12.0,254.0
2021-12-12-20:19:43.251174,7.0,4.0,254.0
2021-12-12-20:19:43.252171,7.0,4.0,254.0
2021-12-12-20:19:43.254200,8.0,2.0,254.0
2021-12-12-20:19:43.254200,9.0,1.0,255.0
2021-12-12-20:19:43.255198,9.0,1.0,255.0
2021-12-12-20:19:43.256198,9.0,1.0,255.0
2021-12-12-20:19:43.257171,7.0,6.0,256.0
2021-12-12-20:19:43.258199,5.0,1.0,256.0
2021-12-12-20:19:43.259187,5.0,1.0,256.0
2021-12-12-20:19:43.260186,5.0,1.0,256.0
2021-12-12-20:19:43.261185,5.0,1.0,256.0
2021-12-12-20:19:43.262179,0.0,3.0,256.0
2021-12-12-20:19:43.263177,3.0,10.0,257.0
2021-12-12-20:19:43.264175,0.0,6.0,258.0
2021-12-12-20:19:43.265170,0.0,6.0,258.0
2021-12-12-20:19:43.266170,3.0,9.0,258.0
2021-12-12-20:19:43.267165,5.0,11.0,258.0
2021-12-12-20:19:43.268169,8.0,4.0,259.0
2021-12-12-20:19:43.269164,8.0,4.0,259.0
2021-12-12-20:19:43.270159,9.0,1.0,259.0
2021-12-12-20:19:43.271157,9.0,1.0,259.0
2021-12-12-20:19:43.272154,11.0,0.0,260.0
2021-12-12-20:19:43.273128,8.0,1.0,260.0
2021-12-12-20:19:43.274149,8.0,1.0,260.0
2021-12-12-20:19:43.275145,8.0,8.0,261.0
2021-12-12-20:19:43.276142,2.0,0.0,262.0
2021-12-12-20:19:43.277142,2.0,0.0,262.0
2021-12-12-20:19:43.278137,1.0,4.0,262.0
2021-12-12-20:19:43.279135,2.0,9.0,263.0
2021-12-12-20:19:43.280130,1.0,9.0,263.0
2021-12-12-20:19:43.281128,1.0,9.0,263.0
2021-12-12-20:19:43.282128,3.0,10.0,264.0
2021-12-12-20:19:43.283122,4.0,10.0,264.0
2021-12-12-20:19:43.284125,6.0,7.0,265.0
2021-12-12-20:19:43.285121,6.0,7.0,265.0
2021-12-12-20:19:43.287112,9.0,5.0,265.0
2021-12-12-20:19:43.287112,10.0,0.0,267.0
2021-12-12-20:19:43.288109,10.0,0.0,267.0
2021-12-12-20:19:43.289106,10.0,0.0,267.0
2021-12-12-20:19:43.290070,10.0,0.0,267.0
2021-12-12-20:19:43.291101,10.0,8.0,268.0
2021-12-12-20:19:43.292099,4.0,2.0,268.0
2021-12-12-20:19:43.293095,4.0,2.0,268.0
2021-12-12-20:19:43.294093,4.0,2.0,268.0
2021-12-12-20:19:43.295091,1.0,6.0,269.0
2021-12-12-20:19:43.296088,3.0,7.0,270.0
2021-12-12-20:19:43.297059,1.0,10.0,271.0
2021-12-12-20:19:43.298083,1.0,10.0,271.0
2021-12-12-20:19:43.299079,1.0,11.0,271.0
2021-12-12-20:19:43.300077,5.0,11.0,272.0
2021-12-12-20:19:43.301078,3.0,11.0,272.0
2021-12-12-20:19:43.302072,3.0,11.0,272.0
2021-12-12-20:19:43.303070,7.0,6.0,273.0
2021-12-12-20:19:43.304066,7.0,3.0,274.0
2021-12-12-20:19:43.305064,7.0,3.0,274.0
2021-12-12-20:19:43.306062,7.0,3.0,274.0
2021-12-12-20:19:43.307059,7.0,0.0,275.0
2021-12-12-20:19:43.308056,9.0,7.0,276.0
2021-12-12-20:19:43.309057,5.0,6.0,277.0
2021-12-12-20:19:43.310051,5.0,6.0,277.0
2021-12-12-20:19:43.311050,5.0,0.0,277.0
2021-12-12-20:19:43.312046,0.0,11.0,279.0
2021-12-12-20:19:43.313009,3.0,10.0,280.0
2021-12-12-20:19:43.314041,3.0,10.0,280.0
2021-12-12-20:19:43.315036,4.0,9.0,280.0
2021-12-12-20:19:43.316035,5.0,13.0,282.0
2021-12-12-20:19:43.317038,7.0,7.0,283.0
2021-12-12-20:19:43.318030,7.0,7.0,283.0
2021-12-12-20:19:43.319027,9.0,4.0,284.0
2021-12-12-20:19:43.321023,9.0,4.0,284.0
2021-12-12-20:19:43.321023,7.0,3.0,286.0
2021-12-12-20:19:43.321985,7.0,3.0,286.0
2021-12-12-20:19:43.323015,6.0,3.0,287.0
2021-12-12-20:19:43.324013,6.0,10.0,289.0
2021-12-12-20:19:43.325010,9.0,2.0,289.0
2021-12-12-20:19:43.326009,9.0,2.0,289.0
2021-12-12-20:19:43.327006,3.0,4.0,290.0
2021-12-12-20:19:43.328004,3.0,11.0,292.0
2021-12-12-20:19:43.329000,2.0,10.0,293.0
2021-12-12-20:19:43.329998,2.0,10.0,293.0
2021-12-12-20:19:43.330994,2.0,10.0,293.0
2021-12-12-20:19:43.331992,6.0,16.0,296.0
2021-12-12-20:19:43.332993,6.0,7.0,296.0
2021-12-12-20:19:43.333988,6.0,7.0,296.0
2021-12-12-20:19:43.334984,6.0,7.0,296.0
2021-12-12-20:19:43.335981,6.0,3.0,298.0
2021-12-12-20:19:43.336979,6.0,3.0,298.0
2021-12-12-20:19:43.337977,9.0,2.0,300.0
2021-12-12-20:19:43.338973,7.0,4.0,300.0
2021-12-12-20:19:43.339977,7.0,1.0,302.0
2021-12-12-20:19:43.340967,9.0,4.0,303.0
2021-12-12-20:19:43.341965,7.0,1.0,305.0
2021-12-12-20:19:43.342964,7.0,1.0,305.0
2021-12-12-20:19:43.343960,1.0,2.0,306.0
2021-12-12-20:19:43.344957,0.0,8.0,307.0
2021-12-12-20:19:43.345955,0.0,10.0,309.0
2021-12-12-20:19:43.346952,0.0,10.0,309.0
2021-12-12-20:19:43.347949,4.0,8.0,309.0
2021-12-12-20:19:43.348946,5.0,13.0,311.0
2021-12-12-20:19:43.349945,4.0,13.0,312.0
2021-12-12-20:19:43.350942,4.0,13.0,312.0
2021-12-12-20:19:43.351938,6.0,4.0,313.0
2021-12-12-20:19:43.352936,11.0,1.0,316.0
2021-12-12-20:19:43.354934,11.0,1.0,316.0
2021-12-12-20:19:43.354934,6.0,7.0,319.0
2021-12-12-20:19:43.355928,12.0,8.0,320.0
2021-12-12-20:19:43.356929,5.0,5.0,321.0
2021-12-12-20:19:43.357923,5.0,5.0,321.0
2021-12-12-20:19:43.358921,5.0,5.0,321.0
2021-12-12-20:19:43.359917,2.0,1.0,321.0
2021-12-12-20:19:43.360914,2.0,7.0,323.0
2021-12-12-20:19:43.361921,0.0,9.0,325.0
2021-12-12-20:19:43.362878,0.0,9.0,325.0
2021-12-12-20:19:43.363873,0.0,9.0,325.0
2021-12-12-20:19:43.364908,4.0,9.0,327.0
2021-12-12-20:19:43.365901,6.0,14.0,329.0
2021-12-12-20:19:43.366899,6.0,14.0,329.0
2021-12-12-20:19:43.367903,6.0,7.0,330.0
2021-12-12-20:19:43.368893,11.0,5.0,332.0
2021-12-12-20:19:43.369891,8.0,2.0,333.0
2021-12-12-20:19:43.370889,8.0,2.0,333.0
2021-12-12-20:19:43.371885,8.0,1.0,335.0
2021-12-12-20:19:43.372882,7.0,8.0,337.0
2021-12-12-20:19:43.373846,7.0,8.0,337.0
2021-12-12-20:19:43.374878,7.0,8.0,337.0
2021-12-12-20:19:43.375874,7.0,8.0,337.0
2021-12-12-20:19:43.376872,4.0,1.0,339.0
2021-12-12-20:19:43.377878,1.0,9.0,341.0
2021-12-12-20:19:43.378866,0.0,12.0,342.0
2021-12-12-20:19:43.379864,0.0,12.0,342.0
2021-12-12-20:19:43.380865,1.0,11.0,343.0
2021-12-12-20:19:43.381858,5.0,11.0,346.0
2021-12-12-20:19:43.382857,4.0,14.0,347.0
2021-12-12-20:19:43.383853,4.0,14.0,347.0
2021-12-12-20:19:43.384850,6.0,11.0,348.0
2021-12-12-20:19:43.385849,8.0,4.0,350.0
2021-12-12-20:19:43.386845,5.0,3.0,351.0
2021-12-12-20:19:43.387842,5.0,3.0,351.0
2021-12-12-20:19:43.388844,8.0,4.0,352.0
2021-12-12-20:19:43.390835,8.0,4.0,352.0
2021-12-12-20:19:43.390835,6.0,6.0,355.0
2021-12-12-20:19:43.391831,6.0,6.0,355.0
2021-12-12-20:19:43.392829,5.0,3.0,357.0
2021-12-12-20:19:43.393827,4.0,4.0,359.0
2021-12-12-20:19:43.394824,2.0,9.0,360.0
2021-12-12-20:19:43.395835,2.0,9.0,360.0
2021-12-12-20:19:43.396822,1.0,11.0,361.0
2021-12-12-20:19:43.397816,3.0,12.0,362.0
2021-12-12-20:19:43.398814,4.0,12.0,364.0
2021-12-12-20:19:43.399811,4.0,12.0,364.0
2021-12-12-20:19:43.400808,7.0,3.0,367.0
2021-12-12-20:19:43.401805,8.0,0.0,367.0
2021-12-12-20:19:43.402802,8.0,0.0,367.0
2021-12-12-20:19:43.403799,8.0,0.0,367.0
2021-12-12-20:19:43.404800,9.0,5.0,369.0
2021-12-12-20:19:43.405794,9.0,10.0,371.0
2021-12-12-20:19:43.406760,9.0,10.0,371.0
2021-12-12-20:19:43.407789,9.0,10.0,371.0
2021-12-12-20:19:43.408786,9.0,10.0,371.0
2021-12-12-20:19:43.409784,7.0,8.0,372.0
2021-12-12-20:19:43.410746,0.0,2.0,374.0
2021-12-12-20:19:43.411744,0.0,9.0,374.0
2021-12-12-20:19:43.412741,0.0,9.0,374.0
2021-12-12-20:19:43.413738,1.0,9.0,376.0
2021-12-12-20:19:43.414736,4.0,14.0,378.0
2021-12-12-20:19:43.415734,4.0,14.0,378.0
2021-12-12-20:19:43.416763,4.0,14.0,378.0
2021-12-12-20:19:43.417763,3.0,14.0,378.0
2021-12-12-20:19:43.418758,5.0,4.0,380.0
2021-12-12-20:19:43.419755,8.0,1.0,380.0
2021-12-12-20:19:43.420757,8.0,1.0,380.0
2021-12-12-20:19:43.421750,8.0,1.0,380.0
2021-12-12-20:19:43.423713,6.0,0.0,382.0
2021-12-12-20:19:43.423713,6.0,0.0,382.0
2021-12-12-20:19:43.424744,6.0,9.0,384.0
2021-12-12-20:19:43.425741,5.0,9.0,384.0
2021-12-12-20:19:43.426738,2.0,3.0,386.0
2021-12-12-20:19:43.427734,1.0,9.0,386.0
2021-12-12-20:19:43.428735,1.0,9.0,386.0
2021-12-12-20:19:43.429697,1.0,12.0,387.0
2021-12-12-20:19:43.430728,4.0,9.0,388.0
2021-12-12-20:19:43.431723,3.0,10.0,388.0
2021-12-12-20:19:43.432723,3.0,10.0,388.0
2021-12-12-20:19:43.433721,8.0,16.0,389.0
2021-12-12-20:19:43.434715,8.0,8.0,391.0
2021-12-12-20:19:43.435713,11.0,4.0,391.0
2021-12-12-20:19:43.436714,11.0,4.0,391.0
2021-12-12-20:19:43.437707,8.0,4.0,392.0
2021-12-12-20:19:43.438713,6.0,0.0,393.0
2021-12-12-20:19:43.439701,7.0,10.0,394.0
2021-12-12-20:19:43.440667,7.0,10.0,394.0
2021-12-12-20:19:43.441699,7.0,10.0,394.0
2021-12-12-20:19:43.442701,7.0,5.0,395.0
2021-12-12-20:19:43.443692,0.0,6.0,396.0
2021-12-12-20:19:43.444693,0.0,6.0,396.0
2021-12-12-20:19:43.445686,0.0,6.0,396.0
2021-12-12-20:19:43.446686,4.0,10.0,398.0
2021-12-12-20:19:43.447681,4.0,10.0,398.0
2021-12-12-20:19:43.448682,4.0,10.0,398.0
2021-12-12-20:19:43.449678,4.0,10.0,398.0
2021-12-12-20:19:43.450674,4.0,9.0,398.0
2021-12-12-20:19:43.451670,4.0,4.0,400.0
2021-12-12-20:19:43.452672,9.0,6.0,400.0
2021-12-12-20:19:43.453666,9.0,6.0,400.0
2021-12-12-20:19:43.454665,11.0,2.0,401.0
2021-12-12-20:19:43.455661,7.0,1.0,402.0
2021-12-12-20:19:43.456625,5.0,7.0,402.0
2021-12-12-20:19:43.458654,5.0,7.0,402.0
2021-12-12-20:19:43.458654,3.0,6.0,403.0
2021-12-12-20:19:43.459650,3.0,6.0,404.0
2021-12-12-20:19:43.460652,3.0,6.0,404.0
2021-12-12-20:19:43.461645,3.0,6.0,404.0
2021-12-12-20:19:43.462643,2.0,9.0,405.0
2021-12-12-20:19:43.463640,5.0,11.0,405.0
2021-12-12-20:19:43.464637,5.0,11.0,405.0
2021-12-12-20:19:43.465644,5.0,11.0,405.0
2021-12-12-20:19:43.466631,6.0,8.0,406.0
2021-12-12-20:19:43.467630,4.0,6.0,407.0
2021-12-12-20:19:43.468630,8.0,4.0,408.0
2021-12-12-20:19:43.469623,8.0,4.0,408.0
2021-12-12-20:19:43.470622,9.0,3.0,408.0
2021-12-12-20:19:43.471618,11.0,1.0,408.0
2021-12-12-20:19:43.472615,4.0,0.0,409.0
2021-12-12-20:19:43.473579,4.0,0.0,409.0
2021-12-12-20:19:43.474611,6.0,10.0,410.0
2021-12-12-20:19:43.475608,6.0,10.0,410.0
2021-12-12-20:19:43.476609,6.0,0.0,411.0
2021-12-12-20:19:43.477602,1.0,5.0,411.0
2021-12-12-20:19:43.478600,0.0,10.0,412.0
2021-12-12-20:19:43.479563,5.0,8.0,413.0
2021-12-12-20:19:43.480595,5.0,8.0,413.0
2021-12-12-20:19:43.481594,5.0,8.0,413.0
2021-12-12-20:19:43.482589,5.0,8.0,413.0
2021-12-12-20:19:43.483586,5.0,13.0,413.0
2021-12-12-20:19:43.484588,6.0,7.0,414.0
2021-12-12-20:19:43.485581,6.0,7.0,414.0
2021-12-12-20:19:43.486579,6.0,7.0,414.0
2021-12-12-20:19:43.487575,12.0,4.0,414.0
2021-12-12-20:19:43.488573,8.0,1.0,415.0
2021-12-12-20:19:43.489571,5.0,0.0,415.0
2021-12-12-20:19:43.491565,5.0,0.0,415.0
2021-12-12-20:19:43.491565,0.0,1.0,416.0
2021-12-12-20:19:43.492566,0.0,1.0,416.0
2021-12-12-20:19:43.493560,0.0,1.0,416.0
2021-12-12-20:19:43.494558,0.0,1.0,416.0
2021-12-12-20:19:43.495555,1.0,7.0,417.0
2021-12-12-20:19:43.496552,2.0,10.0,417.0
2021-12-12-20:19:43.497549,3.0,11.0,417.0
2021-12-12-20:19:43.498546,3.0,11.0,417.0
2021-12-12-20:19:43.499543,3.0,11.0,417.0
2021-12-12-20:19:43.500545,4.0,11.0,418.0
2021-12-12-20:19:43.501538,8.0,6.0,419.0
2021-12-12-20:19:43.502537,8.0,6.0,419.0
2021-12-12-20:19:43.503533,10.0,4.0,419.0
2021-12-12-20:19:43.504532,4.0,0.0,420.0
2021-12-12-20:19:43.505528,6.0,0.0,420.0
2021-12-12-20:19:43.506526,6.0,0.0,420.0
2021-12-12-20:19:43.507488,8.0,11.0,420.0
2021-12-12-20:19:43.508524,2.0,1.0,421.0
2021-12-12-20:19:43.509518,2.0,1.0,421.0
2021-12-12-20:19:43.510527,2.0,1.0,421.0
2021-12-12-20:19:43.511512,1.0,5.0,421.0
2021-12-12-20:19:43.512509,0.0,9.0,422.0
2021-12-12-20:19:43.513507,3.0,7.0,422.0
2021-12-12-20:19:43.514503,3.0,7.0,422.0
2021-12-12-20:19:43.515501,3.0,7.0,422.0
2021-12-12-20:19:43.516502,7.0,17.0,423.0
2021-12-12-20:19:43.517495,5.0,9.0,423.0
2021-12-12-20:19:43.518496,5.0,9.0,423.0
2021-12-12-20:19:43.519490,5.0,9.0,423.0
2021-12-12-20:19:43.520487,8.0,3.0,423.0
2021-12-12-20:19:43.521485,9.0,3.0,424.0
2021-12-12-20:19:43.522488,9.0,3.0,424.0
2021-12-12-20:19:43.523446,9.0,3.0,424.0
2021-12-12-20:19:43.524481,6.0,2.0,424.0
2021-12-12-20:19:43.526472,6.0,2.0,424.0
2021-12-12-20:19:43.526472,1.0,5.0,425.0
2021-12-12-20:19:43.527470,0.0,8.0,426.0
2021-12-12-20:19:43.528467,0.0,8.0,426.0
2021-12-12-20:19:43.529464,0.0,8.0,426.0
2021-12-12-20:19:43.530461,0.0,8.0,426.0
2021-12-12-20:19:43.531458,0.0,8.0,426.0
2021-12-12-20:19:43.532460,5.0,8.0,426.0
2021-12-12-20:19:43.533456,8.0,15.0,426.0
2021-12-12-20:19:43.534451,2.0,9.0,427.0
2021-12-12-20:19:43.535447,2.0,9.0,427.0
2021-12-12-20:19:43.536444,7.0,6.0,427.0
2021-12-12-20:19:43.537443,8.0,7.0,428.0
2021-12-12-20:19:43.538439,9.0,2.0,427.0
2021-12-12-20:19:43.539437,9.0,2.0,427.0
2021-12-12-20:19:43.540448,5.0,1.0,428.0
2021-12-12-20:19:43.541431,11.0,7.0,428.0
2021-12-12-20:19:43.542429,6.0,7.0,428.0
2021-12-12-20:19:43.543426,2.0,0.0,429.0
2021-12-12-20:19:43.544423,2.0,0.0,429.0
2021-12-12-20:19:43.545422,0.0,10.0,429.0
2021-12-12-20:19:43.546384,3.0,8.0,429.0
2021-12-12-20:19:43.547424,3.0,8.0,429.0
2021-12-12-20:19:43.548417,4.0,10.0,429.0
2021-12-12-20:19:43.549410,5.0,15.0,430.0
2021-12-12-20:19:43.550408,7.0,8.0,430.0
2021-12-12-20:19:43.551405,7.0,8.0,430.0
2021-12-12-20:19:43.552402,12.0,3.0,430.0
2021-12-12-20:19:43.553401,8.0,1.0,430.0
2021-12-12-20:19:43.554397,8.0,1.0,430.0
2021-12-12-20:19:43.555394,8.0,1.0,430.0
2021-12-12-20:19:43.556395,8.0,1.0,430.0
2021-12-12-20:19:43.557389,6.0,10.0,431.0
2021-12-12-20:19:43.558388,3.0,1.0,431.0
2021-12-12-20:19:43.559383,3.0,1.0,431.0
2021-12-12-20:19:43.561378,3.0,1.0,431.0
2021-12-12-20:19:43.561378,2.0,10.0,432.0
2021-12-12-20:19:43.562375,1.0,7.0,432.0
2021-12-12-20:19:43.563373,1.0,7.0,432.0
2021-12-12-20:19:43.564374,1.0,7.0,432.0
2021-12-12-20:19:43.565368,4.0,6.0,432.0
2021-12-12-20:19:43.566365,4.0,12.0,432.0
2021-12-12-20:19:43.567362,6.0,8.0,432.0
2021-12-12-20:19:43.568359,6.0,8.0,432.0
2021-12-12-20:19:43.569357,7.0,6.0,433.0
2021-12-12-20:19:43.570354,9.0,3.0,432.0
2021-12-12-20:19:43.571351,6.0,2.0,433.0
2021-12-12-20:19:43.572353,6.0,2.0,433.0
2021-12-12-20:19:43.573347,5.0,4.0,433.0
2021-12-12-20:19:43.574344,7.0,2.0,433.0
2021-12-12-20:19:43.575341,7.0,2.0,433.0
2021-12-12-20:19:43.576338,7.0,2.0,433.0
2021-12-12-20:19:43.577336,4.0,2.0,433.0
2021-12-12-20:19:43.578298,1.0,9.0,433.0
2021-12-12-20:19:43.579296,0.0,10.0,433.0
2021-12-12-20:19:43.580293,0.0,10.0,433.0
2021-12-12-20:19:43.581291,4.0,9.0,433.0
2021-12-12-20:19:43.582323,9.0,12.0,433.0
2021-12-12-20:19:43.583319,7.0,12.0,433.0
2021-12-12-20:19:43.584317,7.0,12.0,433.0
2021-12-12-20:19:43.585315,7.0,7.0,433.0
2021-12-12-20:19:43.586312,10.0,4.0,433.0
2021-12-12-20:19:43.587308,8.0,1.0,433.0
2021-12-12-20:19:43.588310,8.0,1.0,433.0
2021-12-12-20:19:43.589303,5.0,1.0,433.0
2021-12-12-20:19:43.590301,8.0,8.0,433.0
2021-12-12-20:19:43.591298,3.0,6.0,433.0
2021-12-12-20:19:43.592295,3.0,6.0,433.0
2021-12-12-20:19:43.593293,1.0,5.0,433.0
2021-12-12-20:19:43.595287,1.0,9.0,433.0
2021-12-12-20:19:43.595287,1.0,9.0,433.0
2021-12-12-20:19:43.596250,1.0,9.0,433.0
2021-12-12-20:19:43.597282,1.0,9.0,433.0
2021-12-12-20:19:43.598285,5.0,12.0,433.0
2021-12-12-20:19:43.599276,5.0,11.0,433.0
2021-12-12-20:19:43.600274,5.0,14.0,433.0
2021-12-12-20:19:43.601272,5.0,14.0,433.0
2021-12-12-20:19:43.602268,8.0,8.0,433.0
2021-12-12-20:19:43.603266,9.0,5.0,433.0
2021-12-12-20:19:43.604268,10.0,3.0,433.0
2021-12-12-20:19:43.605260,10.0,3.0,433.0
2021-12-12-20:19:43.606259,7.0,4.0,433.0
2021-12-12-20:19:43.607258,6.0,7.0,433.0
2021-12-12-20:19:43.608253,6.0,7.0,433.0
2021-12-12-20:19:43.609251,6.0,7.0,433.0
2021-12-12-20:19:43.610247,1.0,5.0,433.0
2021-12-12-20:19:43.611245,1.0,12.0,433.0
2021-12-12-20:19:43.612246,1.0,12.0,433.0
2021-12-12-20:19:43.613239,1.0,12.0,433.0
2021-12-12-20:19:43.614238,0.0,11.0,433.0
2021-12-12-20:19:43.615234,4.0,15.0,432.0
2021-12-12-20:19:43.616232,5.0,13.0,433.0
2021-12-12-20:19:43.617230,5.0,13.0,433.0
2021-12-12-20:19:43.618227,4.0,8.0,432.0
2021-12-12-20:19:43.619224,7.0,5.0,432.0
2021-12-12-20:19:43.620220,8.0,5.0,432.0
2021-12-12-20:19:43.621219,8.0,5.0,432.0
2021-12-12-20:19:43.622217,8.0,0.0,432.0
2021-12-12-20:19:43.623221,5.0,1.0,432.0
2021-12-12-20:19:43.624210,10.0,5.0,431.0
2021-12-12-20:19:43.625209,10.0,5.0,431.0
2021-12-12-20:19:43.626205,6.0,0.0,431.0
2021-12-12-20:19:43.628198,6.0,0.0,431.0
2021-12-12-20:19:43.628198,0.0,7.0,430.0
2021-12-12-20:19:43.629197,0.0,7.0,430.0
2021-12-12-20:19:43.630195,0.0,10.0,430.0
2021-12-12-20:19:43.631192,5.0,10.0,429.0
2021-12-12-20:19:43.632189,5.0,10.0,429.0
2021-12-12-20:19:43.633186,5.0,10.0,429.0
2021-12-12-20:19:43.634184,5.0,10.0,429.0
2021-12-12-20:19:43.635180,8.0,6.0,429.0
2021-12-12-20:19:43.636182,9.0,3.0,428.0
2021-12-12-20:19:43.637175,9.0,3.0,428.0
2021-12-12-20:19:43.638173,9.0,3.0,428.0
2021-12-12-20:19:43.639171,4.0,0.0,428.0
2021-12-12-20:19:43.640168,8.0,7.0,427.0
2021-12-12-20:19:43.641166,8.0,7.0,427.0
2021-12-12-20:19:43.642164,8.0,7.0,427.0
2021-12-12-20:19:43.643161,3.0,9.0,427.0
2021-12-12-20:19:43.644161,3.0,9.0,427.0
2021-12-12-20:19:43.645154,2.0,2.0,427.0
2021-12-12-20:19:43.646163,1.0,8.0,426.0
2021-12-12-20:19:43.647150,0.0,5.0,425.0
2021-12-12-20:19:43.648147,5.0,9.0,424.0
2021-12-12-20:19:43.649146,5.0,9.0,424.0
2021-12-12-20:19:43.650140,5.0,9.0,424.0
2021-12-12-20:19:43.651140,7.0,15.0,424.0
2021-12-12-20:19:43.652139,10.0,4.0,423.0
2021-12-12-20:19:43.653133,9.0,4.0,422.0
2021-12-12-20:19:43.654132,9.0,4.0,422.0
2021-12-12-20:19:43.655129,9.0,6.0,422.0
2021-12-12-20:19:43.656127,11.0,3.0,420.0
2021-12-12-20:19:43.657123,8.0,11.0,420.0
2021-12-12-20:19:43.658119,8.0,11.0,420.0
2021-12-12-20:19:43.659118,6.0,6.0,419.0
2021-12-12-20:19:43.660118,0.0,4.0,418.0
2021-12-12-20:19:43.661114,2.0,8.0,418.0
2021-12-12-20:19:43.663109,2.0,8.0,418.0
2021-12-12-20:19:43.663109,1.0,10.0,416.0
2021-12-12-20:19:43.664106,6.0,8.0,416.0
2021-12-12-20:19:43.665101,5.0,11.0,415.0
2021-12-12-20:19:43.666108,5.0,11.0,415.0
2021-12-12-20:19:43.667095,6.0,13.0,414.0
2021-12-12-20:19:43.668097,5.0,7.0,413.0
2021-12-12-20:19:43.669090,7.0,4.0,412.0
2021-12-12-20:19:43.670088,7.0,4.0,412.0
2021-12-12-20:19:43.671085,7.0,4.0,412.0
2021-12-12-20:19:43.672082,5.0,2.0,409.0
2021-12-12-20:19:43.673079,9.0,14.0,409.0
2021-12-12-20:19:43.674077,9.0,14.0,409.0
2021-12-12-20:19:43.675074,9.0,14.0,409.0
2021-12-12-20:19:43.676075,9.0,7.0,408.0
2021-12-12-20:19:43.677068,1.0,1.0,406.0
2021-12-12-20:19:43.678066,1.0,7.0,405.0
2021-12-12-20:19:43.679063,1.0,7.0,405.0
2021-12-12-20:19:43.680062,2.0,8.0,403.0
2021-12-12-20:19:43.681059,4.0,12.0,402.0
2021-12-12-20:19:43.682055,4.0,12.0,402.0
2021-12-12-20:19:43.683052,4.0,12.0,402.0
2021-12-12-20:19:43.684054,7.0,11.0,401.0
2021-12-12-20:19:43.685049,7.0,8.0,399.0
2021-12-12-20:19:43.686045,9.0,6.0,398.0
2021-12-12-20:19:43.687042,9.0,6.0,398.0
2021-12-12-20:19:43.688039,9.0,5.0,397.0
2021-12-12-20:19:43.689037,7.0,2.0,396.0
2021-12-12-20:19:43.690039,5.0,7.0,395.0
2021-12-12-20:19:43.690997,5.0,7.0,395.0
2021-12-12-20:19:43.692033,12.0,9.0,394.0
2021-12-12-20:19:43.693026,7.0,7.0,393.0
2021-12-12-20:19:43.694025,1.0,2.0,392.0
2021-12-12-20:19:43.695021,1.0,2.0,392.0
2021-12-12-20:19:43.697016,1.0,12.0,391.0
2021-12-12-20:19:43.697016,5.0,10.0,388.0
2021-12-12-20:19:43.697979,5.0,10.0,388.0
2021-12-12-20:19:43.699010,5.0,10.0,388.0
2021-12-12-20:19:43.700007,5.0,8.0,387.0
2021-12-12-20:19:43.701006,3.0,7.0,385.0
2021-12-12-20:19:43.702003,11.0,5.0,385.0
2021-12-12-20:19:43.702999,11.0,5.0,385.0
2021-12-12-20:19:43.703997,8.0,4.0,384.0
2021-12-12-20:19:43.704995,6.0,2.0,382.0
2021-12-12-20:19:43.705991,8.0,1.0,381.0
2021-12-12-20:19:43.706955,8.0,1.0,381.0
2021-12-12-20:19:43.707990,6.0,10.0,380.0
2021-12-12-20:19:43.708984,8.0,2.0,379.0
2021-12-12-20:19:43.709982,2.0,2.0,378.0
2021-12-12-20:19:43.710979,2.0,2.0,378.0
2021-12-12-20:19:43.711975,3.0,8.0,377.0
2021-12-12-20:19:43.712939,3.0,8.0,375.0
2021-12-12-20:19:43.713971,3.0,8.0,375.0
2021-12-12-20:19:43.714967,3.0,8.0,375.0
2021-12-12-20:19:43.715969,3.0,8.0,375.0
2021-12-12-20:19:43.716929,5.0,15.0,373.0
2021-12-12-20:19:43.717960,8.0,6.0,371.0
2021-12-12-20:19:43.718956,8.0,6.0,371.0
2021-12-12-20:19:43.719954,8.0,6.0,371.0
2021-12-12-20:19:43.720952,9.0,4.0,371.0
2021-12-12-20:19:43.721949,10.0,1.0,369.0
2021-12-12-20:19:43.722947,7.0,1.0,368.0
2021-12-12-20:19:43.723910,7.0,1.0,368.0
2021-12-12-20:19:43.724941,9.0,9.0,367.0
2021-12-12-20:19:43.725938,7.0,4.0,366.0
2021-12-12-20:19:43.726935,0.0,3.0,365.0
2021-12-12-20:19:43.727932,0.0,3.0,365.0
2021-12-12-20:19:43.729927,1.0,9.0,363.0
2021-12-12-20:19:43.729927,1.0,9.0,362.0
2021-12-12-20:19:43.730925,1.0,9.0,362.0
2021-12-12-20:19:43.731888,1.0,9.0,362.0
2021-12-12-20:19:43.732887,5.0,13.0,360.0
2021-12-12-20:19:43.733917,7.0,6.0,359.0
2021-12-12-20:19:43.734914,7.0,6.0,359.0
2021-12-12-20:19:43.735911,7.0,6.0,359.0
2021-12-12-20:19:43.736910,10.0,3.0,358.0
2021-12-12-20:19:43.737905,7.0,1.0,357.0
2021-12-12-20:19:43.738903,7.0,1.0,356.0
2021-12-12-20:19:43.739907,7.0,1.0,356.0
2021-12-12-20:19:43.740898,7.0,8.0,355.0
2021-12-12-20:19:43.741896,8.0,6.0,354.0
2021-12-12-20:19:43.742892,5.0,2.0,352.0
2021-12-12-20:19:43.743890,5.0,2.0,352.0
2021-12-12-20:19:43.744888,1.0,10.0,350.0
2021-12-12-20:19:43.745885,1.0,8.0,350.0
2021-12-12-20:19:43.746882,1.0,8.0,350.0
2021-12-12-20:19:43.747877,1.0,8.0,350.0
2021-12-12-20:19:43.748876,1.0,8.0,350.0
2021-12-12-20:19:43.749875,4.0,10.0,348.0
2021-12-12-20:19:43.750872,6.0,7.0,347.0
2021-12-12-20:19:43.751868,6.0,7.0,347.0
2021-12-12-20:19:43.752869,6.0,7.0,347.0
2021-12-12-20:19:43.753864,6.0,6.0,346.0
2021-12-12-20:19:43.754863,10.0,2.0,345.0
2021-12-12-20:19:43.755862,9.0,1.0,344.0
2021-12-12-20:19:43.756855,9.0,1.0,344.0
2021-12-12-20:19:43.757853,5.0,2.0,344.0
2021-12-12-20:19:43.758850,8.0,8.0,343.0
2021-12-12-20:19:43.759848,5.0,0.0,342.0
2021-12-12-20:19:43.760845,5.0,0.0,342.0
2021-12-12-20:19:43.761842,1.0,3.0,341.0
2021-12-12-20:19:43.763840,1.0,12.0,340.0
2021-12-12-20:19:43.763840,0.0,7.0,339.0
2021-12-12-20:19:43.764834,7.0,9.0,339.0
2021-12-12-20:19:43.765832,3.0,10.0,337.0
2021-12-12-20:19:43.766828,5.0,3.0,337.0
2021-12-12-20:19:43.767826,5.0,3.0,337.0
2021-12-12-20:19:43.768824,5.0,3.0,337.0
2021-12-12-20:19:43.769820,9.0,3.0,336.0
2021-12-12-20:19:43.770817,11.0,0.0,336.0
2021-12-12-20:19:43.771814,5.0,2.0,335.0
2021-12-12-20:19:43.772813,5.0,2.0,335.0
2021-12-12-20:19:43.773811,7.0,13.0,335.0
2021-12-12-20:19:43.774807,7.0,4.0,334.0
2021-12-12-20:19:43.775804,0.0,1.0,334.0
2021-12-12-20:19:43.776804,0.0,1.0,334.0
2021-12-12-20:19:43.777772,1.0,6.0,333.0
2021-12-12-20:19:43.778796,1.0,10.0,332.0
2021-12-12-20:19:43.779803,1.0,10.0,332.0
2021-12-12-20:19:43.780790,1.0,10.0,332.0
2021-12-12-20:19:43.781789,5.0,10.0,332.0
2021-12-12-20:19:43.782786,4.0,15.0,331.0
2021-12-12-20:19:43.783783,6.0,5.0,331.0
2021-12-12-20:19:43.784782,6.0,5.0,331.0
2021-12-12-20:19:43.785778,6.0,5.0,331.0
2021-12-12-20:19:43.786775,9.0,4.0,330.0
2021-12-12-20:19:43.787772,8.0,1.0,329.0
2021-12-12-20:19:43.788776,8.0,1.0,329.0
2021-12-12-20:19:43.789768,8.0,1.0,329.0
2021-12-12-20:19:43.790765,5.0,3.0,328.0
2021-12-12-20:19:43.791762,5.0,3.0,328.0
2021-12-12-20:19:43.792760,5.0,3.0,328.0
2021-12-12-20:19:43.793757,5.0,3.0,328.0
2021-12-12-20:19:43.794753,2.0,2.0,328.0
2021-12-12-20:19:43.795755,2.0,9.0,328.0
2021-12-12-20:19:43.796749,1.0,10.0,328.0
2021-12-12-20:19:43.797746,1.0,10.0,328.0
2021-12-12-20:19:43.799741,1.0,10.0,328.0
2021-12-12-20:19:43.799741,8.0,14.0,327.0
2021-12-12-20:19:43.800738,5.0,8.0,327.0
2021-12-12-20:19:43.801735,5.0,8.0,327.0
2021-12-12-20:19:43.802733,8.0,4.0,327.0
2021-12-12-20:19:43.803734,7.0,1.0,326.0
2021-12-12-20:19:43.804728,8.0,2.0,326.0
2021-12-12-20:19:43.805725,8.0,2.0,326.0
2021-12-12-20:19:43.806689,5.0,0.0,326.0
2021-12-12-20:19:43.807720,5.0,14.0,326.0
2021-12-12-20:19:43.808718,5.0,1.0,327.0
2021-12-12-20:19:43.809714,5.0,1.0,327.0
2021-12-12-20:19:43.810711,3.0,3.0,326.0
2021-12-12-20:19:43.811712,1.0,10.0,326.0
2021-12-12-20:19:43.812705,1.0,11.0,325.0
2021-12-12-20:19:43.813710,1.0,11.0,325.0
2021-12-12-20:19:43.814700,2.0,10.0,325.0
2021-12-12-20:19:43.815698,2.0,10.0,325.0
2021-12-12-20:19:43.816695,4.0,13.0,325.0
2021-12-12-20:19:43.817692,3.0,9.0,325.0
2021-12-12-20:19:43.818696,9.0,8.0,325.0
2021-12-12-20:19:43.819686,7.0,4.0,324.0
2021-12-12-20:19:43.820684,7.0,3.0,325.0
2021-12-12-20:19:43.821682,7.0,3.0,325.0
2021-12-12-20:19:43.822680,7.0,3.0,325.0
2021-12-12-20:19:43.823677,6.0,10.0,325.0
2021-12-12-20:19:43.824675,7.0,7.0,325.0
2021-12-12-20:19:43.825671,7.0,7.0,325.0
2021-12-12-20:19:43.826669,7.0,7.0,325.0
2021-12-12-20:19:43.827670,1.0,4.0,325.0
2021-12-12-20:19:43.828663,1.0,9.0,325.0
2021-12-12-20:19:43.829627,1.0,9.0,325.0
2021-12-12-20:19:43.830658,1.0,9.0,325.0
2021-12-12-20:19:43.831655,2.0,9.0,324.0
2021-12-12-20:19:43.833651,2.0,9.0,324.0
2021-12-12-20:19:43.833651,3.0,9.0,325.0
2021-12-12-20:19:43.834648,5.0,9.0,324.0
2021-12-12-20:19:43.835648,10.0,5.0,324.0
2021-12-12-20:19:43.836641,6.0,0.0,324.0
2021-12-12-20:19:43.837640,6.0,0.0,324.0
2021-12-12-20:19:43.838636,6.0,0.0,324.0
2021-12-12-20:19:43.839635,5.0,3.0,324.0
2021-12-12-20:19:43.840632,8.0,11.0,324.0
2021-12-12-20:19:43.841628,5.0,6.0,325.0
2021-12-12-20:19:43.842625,5.0,6.0,325.0
2021-12-12-20:19:43.843627,5.0,2.0,324.0
2021-12-12-20:19:43.844620,1.0,8.0,324.0
2021-12-12-20:19:43.845619,0.0,11.0,324.0
2021-12-12-20:19:43.846617,0.0,11.0,324.0
2021-12-12-20:19:43.847612,4.0,10.0,324.0
2021-12-12-20:19:43.848610,4.0,10.0,324.0
2021-12-12-20:19:43.849607,5.0,15.0,324.0
2021-12-12-20:19:43.850610,5.0,15.0,324.0
2021-12-12-20:19:43.851606,4.0,8.0,324.0
2021-12-12-20:19:43.852600,7.0,5.0,324.0
2021-12-12-20:19:43.853602,8.0,0.0,324.0
2021-12-12-20:19:43.854603,8.0,0.0,324.0
2021-12-12-20:19:43.855598,8.0,0.0,324.0
2021-12-12-20:19:43.856589,5.0,14.0,324.0
2021-12-12-20:19:43.857552,10.0,10.0,324.0
2021-12-12-20:19:43.858583,10.0,10.0,324.0
2021-12-12-20:19:43.859583,0.0,5.0,324.0
2021-12-12-20:19:43.860578,1.0,8.0,324.0
2021-12-12-20:19:43.861576,1.0,8.0,324.0
2021-12-12-20:19:43.862573,1.0,8.0,324.0
2021-12-12-20:19:43.863570,1.0,8.0,324.0
2021-12-12-20:19:43.864570,4.0,10.0,324.0
2021-12-12-20:19:43.865565,6.0,13.0,325.0
2021-12-12-20:19:43.867558,6.0,13.0,325.0
2021-12-12-20:19:43.867558,6.0,13.0,325.0
2021-12-12-20:19:43.868556,6.0,2.0,324.0
2021-12-12-20:19:43.869554,8.0,4.0,324.0
2021-12-12-20:19:43.870551,8.0,4.0,324.0
2021-12-12-20:19:43.871548,8.0,4.0,324.0
2021-12-12-20:19:43.872546,8.0,1.0,324.0
2021-12-12-20:19:43.873542,4.0,13.0,324.0
2021-12-12-20:19:43.874541,9.0,8.0,324.0
2021-12-12-20:19:43.875542,9.0,8.0,324.0
2021-12-12-20:19:43.876535,2.0,6.0,324.0
2021-12-12-20:19:43.877533,2.0,4.0,324.0
2021-12-12-20:19:43.878530,0.0,6.0,324.0
2021-12-12-20:19:43.879511,0.0,6.0,324.0
2021-12-12-20:19:43.880494,3.0,10.0,324.0
2021-12-12-20:19:43.881523,1.0,10.0,324.0
2021-12-12-20:19:43.882519,5.0,8.0,324.0
2021-12-12-20:19:43.883519,5.0,11.0,324.0
2021-12-12-20:19:43.884514,4.0,12.0,324.0
2021-12-12-20:19:43.885512,8.0,4.0,324.0
2021-12-12-20:19:43.886508,9.0,4.0,324.0
2021-12-12-20:19:43.887507,9.0,4.0,324.0
2021-12-12-20:19:43.888503,8.0,0.0,324.0
2021-12-12-20:19:43.889501,4.0,5.0,324.0
2021-12-12-20:19:43.890509,10.0,10.0,324.0
2021-12-12-20:19:43.891499,10.0,10.0,324.0
2021-12-12-20:19:43.892493,5.0,10.0,324.0
2021-12-12-20:19:43.893490,2.0,4.0,325.0
2021-12-12-20:19:43.894487,1.0,6.0,324.0
2021-12-12-20:19:43.895484,1.0,6.0,324.0
2021-12-12-20:19:43.896482,1.0,9.0,324.0
2021-12-12-20:19:43.897479,3.0,8.0,324.0
2021-12-12-20:19:43.898477,2.0,8.0,324.0
2021-12-12-20:19:43.899473,2.0,8.0,324.0
2021-12-12-20:19:43.901474,3.0,15.0,324.0
2021-12-12-20:19:43.901474,6.0,3.0,324.0
2021-12-12-20:19:43.902465,6.0,3.0,324.0
2021-12-12-20:19:43.903463,6.0,3.0,324.0
2021-12-12-20:19:43.904460,6.0,3.0,324.0
2021-12-12-20:19:43.905458,7.0,0.0,324.0
2021-12-12-20:19:43.906455,6.0,12.0,324.0
2021-12-12-20:19:43.907459,6.0,12.0,324.0
2021-12-12-20:19:43.908450,6.0,12.0,324.0
2021-12-12-20:19:43.909453,6.0,3.0,325.0
2021-12-12-20:19:43.910444,0.0,2.0,324.0
2021-12-12-20:19:43.911442,0.0,6.0,324.0
2021-12-12-20:19:43.912439,0.0,6.0,324.0
2021-12-12-20:19:43.913437,1.0,7.0,324.0
2021-12-12-20:19:43.914434,5.0,7.0,324.0
2021-12-12-20:19:43.915428,5.0,7.0,324.0
2021-12-12-20:19:43.916394,5.0,7.0,324.0
2021-12-12-20:19:43.917426,8.0,13.0,324.0
2021-12-12-20:19:43.918389,7.0,1.0,324.0
2021-12-12-20:19:43.919413,7.0,1.0,324.0
2021-12-12-20:19:43.920417,7.0,1.0,324.0
2021-12-12-20:19:43.921383,7.0,1.0,324.0
2021-12-12-20:19:43.922418,8.0,3.0,324.0
2021-12-12-20:19:43.923417,7.0,9.0,324.0
2021-12-12-20:19:43.924408,7.0,9.0,324.0
2021-12-12-20:19:43.925405,7.0,7.0,324.0
2021-12-12-20:19:43.926402,5.0,4.0,324.0
2021-12-12-20:19:43.927400,1.0,8.0,324.0
2021-12-12-20:19:43.928396,1.0,8.0,324.0
2021-12-12-20:19:43.929394,2.0,7.0,324.0
2021-12-12-20:19:43.930391,3.0,11.0,324.0
2021-12-12-20:19:43.931386,3.0,10.0,324.0
2021-12-12-20:19:43.933390,3.0,10.0,324.0
2021-12-12-20:19:43.934347,9.0,3.0,324.0
2021-12-12-20:19:43.934347,9.0,3.0,324.0
2021-12-12-20:19:43.935376,9.0,3.0,324.0
2021-12-12-20:19:43.936375,9.0,3.0,324.0
2021-12-12-20:19:43.937373,9.0,3.0,324.0
2021-12-12-20:19:43.938370,11.0,2.0,325.0
2021-12-12-20:19:43.939371,6.0,5.0,324.0
2021-12-12-20:19:43.940339,6.0,5.0,324.0
2021-12-12-20:19:43.941362,6.0,5.0,324.0
2021-12-12-20:19:43.942359,8.0,10.0,324.0
2021-12-12-20:19:43.943355,0.0,4.0,324.0
2021-12-12-20:19:43.944354,0.0,4.0,324.0
2021-12-12-20:19:43.945351,0.0,4.0,324.0
2021-12-12-20:19:43.946315,0.0,11.0,324.0
2021-12-12-20:19:43.947348,1.0,12.0,324.0
2021-12-12-20:19:43.948343,2.0,9.0,324.0
2021-12-12-20:19:43.949342,2.0,9.0,324.0
2021-12-12-20:19:43.950343,2.0,9.0,324.0
2021-12-12-20:19:43.951335,3.0,11.0,324.0
2021-12-12-20:19:43.952333,5.0,8.0,324.0
2021-12-12-20:19:43.953329,8.0,1.0,325.0
2021-12-12-20:19:43.954325,10.0,3.0,324.0
2021-12-12-20:19:43.955322,6.0,1.0,324.0
2021-12-12-20:19:43.956320,4.0,1.0,324.0
2021-12-12-20:19:43.957285,4.0,1.0,324.0
2021-12-12-20:19:43.958316,6.0,10.0,325.0
2021-12-12-20:19:43.959314,6.0,0.0,324.0
2021-12-12-20:19:43.960311,3.0,3.0,324.0
2021-12-12-20:19:43.961308,3.0,3.0,324.0
2021-12-12-20:19:43.962306,2.0,9.0,325.0
2021-12-12-20:19:43.963307,1.0,12.0,324.0
2021-12-12-20:19:43.964300,3.0,11.0,325.0
2021-12-12-20:19:43.965298,3.0,11.0,325.0
2021-12-12-20:19:43.967257,4.0,9.0,324.0
2021-12-12-20:19:43.968255,3.0,14.0,325.0
2021-12-12-20:19:43.969253,7.0,7.0,325.0
2021-12-12-20:19:43.969253,8.0,4.0,325.0
2021-12-12-20:19:43.970282,7.0,3.0,325.0
2021-12-12-20:19:43.971284,6.0,1.0,325.0
2021-12-12-20:19:43.972278,6.0,1.0,325.0
2021-12-12-20:19:43.973277,6.0,1.0,325.0
2021-12-12-20:19:43.974272,0.0,4.0,326.0
2021-12-12-20:19:43.975269,0.0,4.0,326.0
2021-12-12-20:19:43.976268,0.0,4.0,326.0
2021-12-12-20:19:43.977265,0.0,4.0,326.0
2021-12-12-20:19:43.978261,0.0,4.0,326.0
2021-12-12-20:19:43.979262,2.0,7.0,326.0
2021-12-12-20:19:43.980257,1.0,12.0,327.0
2021-12-12-20:19:43.981255,1.0,12.0,327.0
2021-12-12-20:19:43.982218,1.0,12.0,327.0
2021-12-12-20:19:43.983247,3.0,9.0,327.0
2021-12-12-20:19:43.984247,4.0,7.0,327.0
2021-12-12-20:19:43.985242,4.0,7.0,327.0
2021-12-12-20:19:43.986242,4.0,7.0,327.0
2021-12-12-20:19:43.987247,8.0,1.0,328.0
2021-12-12-20:19:43.988234,4.0,3.0,328.0
2021-12-12-20:19:43.989234,4.0,3.0,328.0
2021-12-12-20:19:43.990230,4.0,3.0,328.0
2021-12-12-20:19:43.991228,7.0,11.0,328.0
2021-12-12-20:19:43.992226,6.0,0.0,329.0
2021-12-12-20:19:43.993222,2.0,4.0,329.0
2021-12-12-20:19:43.994218,2.0,4.0,329.0
2021-12-12-20:19:43.995220,1.0,8.0,329.0
2021-12-12-20:19:43.996181,1.0,10.0,329.0
2021-12-12-20:19:43.997213,6.0,12.0,329.0
2021-12-12-20:19:43.998207,6.0,12.0,329.0
2021-12-12-20:19:43.999207,11.0,9.0,329.0
2021-12-12-20:19:44.000205,6.0,8.0,330.0
2021-12-12-20:19:44.001200,9.0,5.0,330.0
2021-12-12-20:19:44.002198,9.0,5.0,330.0
2021-12-12-20:19:44.004194,13.0,3.0,330.0
2021-12-12-20:19:44.004194,13.0,3.0,330.0
2021-12-12-20:19:44.005191,8.0,0.0,330.0
2021-12-12-20:19:44.006186,5.0,0.0,331.0
2021-12-12-20:19:44.007152,6.0,9.0,331.0
2021-12-12-20:19:44.008183,3.0,4.0,331.0
2021-12-12-20:19:44.009179,2.0,2.0,331.0
2021-12-12-20:19:44.010177,2.0,2.0,331.0
2021-12-12-20:19:44.011178,3.0,8.0,332.0
2021-12-12-20:19:44.012171,1.0,10.0,332.0
2021-12-12-20:19:44.013192,0.0,10.0,332.0
2021-12-12-20:19:44.014133,0.0,10.0,332.0
2021-12-12-20:19:44.015162,0.0,10.0,332.0
2021-12-12-20:19:44.016164,5.0,11.0,332.0
2021-12-12-20:19:44.017157,4.0,10.0,332.0
2021-12-12-20:19:44.018156,7.0,6.0,332.0
2021-12-12-20:19:44.019151,7.0,6.0,332.0
2021-12-12-20:19:44.020149,9.0,1.0,333.0
2021-12-12-20:19:44.021150,9.0,1.0,333.0
2021-12-12-20:19:44.022144,9.0,1.0,333.0
2021-12-12-20:19:44.023143,9.0,1.0,333.0
2021-12-12-20:19:44.024106,3.0,6.0,333.0
2021-12-12-20:19:44.025137,7.0,7.0,333.0
2021-12-12-20:19:44.026133,5.0,0.0,334.0
2021-12-12-20:19:44.027134,5.0,0.0,334.0
2021-12-12-20:19:44.028129,1.0,5.0,334.0
2021-12-12-20:19:44.029130,2.0,12.0,334.0
2021-12-12-20:19:44.030124,4.0,7.0,334.0
2021-12-12-20:19:44.031120,4.0,7.0,334.0
2021-12-12-20:19:44.032126,5.0,12.0,334.0
2021-12-12-20:19:44.033114,5.0,12.0,335.0
2021-12-12-20:19:44.034111,9.0,6.0,335.0
2021-12-12-20:19:44.035113,9.0,6.0,335.0
2021-12-12-20:19:44.037106,11.0,2.0,336.0
2021-12-12-20:19:44.037106,9.0,1.0,336.0
2021-12-12-20:19:44.038101,9.0,1.0,336.0
2021-12-12-20:19:44.039098,9.0,1.0,336.0
2021-12-12-20:19:44.040098,9.0,4.0,336.0
2021-12-12-20:19:44.041093,9.0,8.0,337.0
2021-12-12-20:19:44.042092,8.0,3.0,337.0
2021-12-12-20:19:44.043092,8.0,3.0,337.0
2021-12-12-20:19:44.044085,3.0,2.0,337.0
2021-12-12-20:19:44.045091,1.0,8.0,338.0
2021-12-12-20:19:44.046048,0.0,9.0,338.0
2021-12-12-20:19:44.047054,0.0,9.0,338.0
2021-12-12-20:19:44.048066,3.0,10.0,339.0
2021-12-12-20:19:44.049072,5.0,16.0,339.0
2021-12-12-20:19:44.050070,5.0,7.0,340.0
2021-12-12-20:19:44.051070,5.0,7.0,340.0
2021-12-12-20:19:44.052032,7.0,4.0,340.0
2021-12-12-20:19:44.053064,7.0,4.0,340.0
2021-12-12-20:19:44.054059,8.0,1.0,340.0
2021-12-12-20:19:44.055057,8.0,1.0,340.0
2021-12-12-20:19:44.056055,8.0,1.0,340.0
2021-12-12-20:19:44.057052,8.0,9.0,341.0
2021-12-12-20:19:44.058050,5.0,3.0,342.0
2021-12-12-20:19:44.059051,5.0,3.0,342.0
2021-12-12-20:19:44.060044,5.0,3.0,342.0
2021-12-12-20:19:44.061011,3.0,1.0,342.0
2021-12-12-20:19:44.062037,2.0,9.0,343.0
2021-12-12-20:19:44.063002,3.0,11.0,343.0
2021-12-12-20:19:44.064034,3.0,11.0,343.0
2021-12-12-20:19:44.065029,2.0,11.0,344.0
2021-12-12-20:19:44.066026,5.0,10.0,344.0
2021-12-12-20:19:44.067023,3.0,13.0,344.0
2021-12-12-20:19:44.068021,3.0,13.0,344.0
2021-12-12-20:19:44.069021,8.0,5.0,344.0
2021-12-12-20:19:44.071016,8.0,5.0,344.0
2021-12-12-20:19:44.071016,11.0,0.0,345.0
2021-12-12-20:19:44.072012,8.0,2.0,346.0
2021-12-12-20:19:44.073012,8.0,9.0,347.0
2021-12-12-20:19:44.073973,7.0,7.0,347.0
2021-12-12-20:19:44.075006,7.0,7.0,347.0
2021-12-12-20:19:44.076000,7.0,7.0,347.0
2021-12-12-20:19:44.076999,3.0,1.0,348.0
2021-12-12-20:19:44.077994,1.0,8.0,348.0
2021-12-12-20:19:44.078991,2.0,9.0,348.0
2021-12-12-20:19:44.079992,2.0,9.0,348.0
2021-12-12-20:19:44.080986,1.0,10.0,348.0
2021-12-12-20:19:44.081983,3.0,8.0,349.0
2021-12-12-20:19:44.082980,8.0,14.0,349.0
2021-12-12-20:19:44.083978,8.0,14.0,349.0
2021-12-12-20:19:44.084978,2.0,7.0,349.0
2021-12-12-20:19:44.085973,6.0,1.0,350.0
2021-12-12-20:19:44.086970,7.0,1.0,350.0
2021-12-12-20:19:44.087970,8.0,2.0,350.0
2021-12-12-20:19:44.088965,7.0,1.0,351.0
2021-12-12-20:19:44.089962,8.0,8.0,352.0
2021-12-12-20:19:44.090965,8.0,8.0,352.0
2021-12-12-20:19:44.091959,8.0,8.0,352.0
2021-12-12-20:19:44.092957,8.0,8.0,352.0
2021-12-12-20:19:44.093953,3.0,3.0,352.0
