# 
# 
# 
# 
# 
# 
# 
# 
# 
# 
# time,realtime,ref,inp,inp0,inp1,dis,state...
0.000000000000000000e+00,1.685137446209505796e+09,0.000000000000000000e+00,1.602486320750845994e-03,0.000000000000000000e+00,3.204972641501691987e-03,0.000000000000000000e+00,0.000000000000000000e+00,0.000000000000000000e+00
1.666666666666666644e-02,1.685137446213503361e+09,4.915001431462082898e-06,1.602486320750845994e-03,0.000000000000000000e+00,3.204972641501691987e-03,0.000000000000000000e+00,2.213362102166187087e-07,2.648676913563081570e-05
3.333333333333333287e-02,1.685137446214477539e+09,1.954358803259649856e-05,1.602486320750845994e-03,0.000000000000000000e+00,3.204972641501691987e-03,0.000000000000000000e+00,8.804602069246027855e-07,5.253575048477026016e-05
5.000000000000000278e-02,1.685137446231476784e+09,4.372725931086686343e-05,1.602486320750845994e-03,0.000000000000000000e+00,3.204972641501691987e-03,0.000000000000000000e+00,1.970135994483276671e-06,7.815418004305901801e-05
6.666666666666666574e-02,1.685137446250524282e+09,7.733651515970278517e-05,1.602486320750845994e-03,0.000000000000000000e+00,3.204972641501691987e-03,0.000000000000000000e+00,3.483247177739980572e-06,1.033491742056497455e-04
8.333333333333332871e-02,1.685137446269526958e+09,1.202804759059835602e-04,1.602486320750845994e-03,0.000000000000000000e+00,3.204972641501691987e-03,0.000000000000000000e+00,5.412794985207883057e-06,1.281277317440292630e-04
1.000000000000000056e-01,1.685137446284524679e+09,1.725166642960481551e-04,1.602486320750845994e-03,0.000000000000000000e+00,3.204972641501691987e-03,0.000000000000000000e+00,7.751896324917789907e-06,1.524967357501668037e-04
1.166666666666666685e-01,1.685137446304479599e+09,2.340607827687378136e-04,1.602486320750845994e-03,0.000000000000000000e+00,3.204972641501691987e-03,0.000000000000000000e+00,1.049378187240389718e-05,1.764629555485281397e-04
1.333333333333333315e-01,1.685137446319524288e+09,3.049963090484086414e-04,1.602486320750845994e-03,0.000000000000000000e+00,3.204972641501691987e-03,0.000000000000000000e+00,1.363179419029235593e-05,2.000330485764871124e-04
1.499999999999999944e-01,1.685137446338503599e+09,3.854837252017827894e-04,1.602486320750845994e-03,0.000000000000000000e+00,3.204972641501691987e-03,0.000000000000000000e+00,1.715938587897031372e-05,2.232135622336565962e-04
1.666666666666666574e-01,1.685137446356503963e+09,4.757691900526130426e-04,1.602486320750845994e-03,0.000000000000000000e+00,3.204972641501691987e-03,0.000000000000000000e+00,2.107011775782169228e-05,2.460109357006526592e-04
1.833333333333333204e-01,1.685137446375524282e+09,5.761924624158631979e-04,1.602486320750845994e-03,0.000000000000000000e+00,3.204972641501691987e-03,0.000000000000000000e+00,2.535765707652451250e-05,2.684315017277972941e-04
2.000000000000000111e-01,1.685137446392524004e+09,6.871938831392551987e-04,1.602486320750845994e-03,0.000000000000000000e+00,3.204972641501691987e-03,0.000000000000000000e+00,3.001577575591285596e-05,2.904814883942563922e-04
2.166666666666666741e-01,1.685137446409528017e+09,8.093202275248899706e-04,1.602486320750845994e-03,0.000000000000000000e+00,3.204972641501691987e-03,0.000000000000000000e+00,3.503834865791483478e-05,3.121670208381018279e-04
2.333333333333333370e-01,1.685137446426518202e+09,9.432292464045724913e-04,1.602486320750845994e-03,0.000000000000000000e+00,3.204972641501691987e-03,0.000000000000000000e+00,4.041935188408597723e-05,3.334941229577781168e-04
2.500000000000000000e-01,1.685137446444502831e+09,1.089692723972116592e-03,1.602486320750845994e-03,0.000000000000000000e+00,3.204972641501691987e-03,0.000000000000000000e+00,4.615286110226534029e-05,3.544687190854461717e-04
2.666666666666666630e-01,1.685137446461504698e+09,1.249597893400947266e-03,1.602486320750845994e-03,0.000000000000000000e+00,3.204972641501691987e-03,0.000000000000000000e+00,5.223304990088963327e-05,3.750966356326693304e-04
2.833333333333333259e-01,1.685137446476524115e+09,1.423947067215890249e-03,1.602486320750845994e-03,0.000000000000000000e+00,3.204972641501691987e-03,0.000000000000000000e+00,5.865418817050807663e-05,3.953836027088983253e-04
2.999999999999999889e-01,1.685137446494530201e+09,1.613855358217824087e-03,1.602486320750845994e-03,0.000000000000000000e+00,3.204972641501691987e-03,0.000000000000000000e+00,6.541064051204848221e-05,4.153352557132053511e-04
3.166666666666666519e-01,1.685137446510524273e+09,1.820546388306697270e-03,1.602486320750845994e-03,0.000000000000000000e+00,3.204972641501691987e-03,0.000000000000000000e+00,7.249686467139242088e-05,4.349571368997088303e-04
3.333333333333333148e-01,1.685137446527523994e+09,2.045345906595684871e-03,1.602486320750845994e-03,0.000000000000000000e+00,3.204972641501691987e-03,0.000000000000000000e+00,7.990740999982451581e-05,4.542546969171241803e-04
3.499999999999999778e-01,1.685137446544525146e+09,2.289673264497898292e-03,1.602486320750845994e-03,0.000000000000000000e+00,3.204972641501691987e-03,0.000000000000000000e+00,8.763691593992834026e-05,4.732332963228678144e-04
3.666666666666666408e-01,1.685137446562525511e+09,2.555030723698342807e-03,1.602486320750845994e-03,0.000000000000000000e+00,3.204972641501691987e-03,0.000000000000000000e+00,9.568011053650818832e-05,4.918982070721354249e-04
3.833333333333333037e-01,1.685137446577524662e+09,2.842990602761986257e-03,1.602486320750845994e-03,0.000000000000000000e+00,3.204972641501691987e-03,0.000000000000000000e+00,1.040318089721232244e-04,5.102546139823677931e-04
4.000000000000000222e-01,1.685137446596503496e+09,3.155180299205949564e-03,1.602486320750845994e-03,0.000000000000000000e+00,3.204972641501691987e-03,0.000000000000000000e+00,1.126869121268270424e-04,5.283076161735114065e-04
4.166666666666666852e-01,1.685137446613524675e+09,3.493265255782816107e-03,1.602486320750845994e-03,0.000000000000000000e+00,3.204972641501691987e-03,0.000000000000000000e+00,1.216404051617126864e-04,5.460622284844732482e-04
4.333333333333333481e-01,1.685137446630529165e+09,3.858929972062845673e-03,1.602486320750845994e-03,0.000000000000000000e+00,3.204972641501691987e-03,0.000000000000000000e+00,1.308873561258695935e-04,5.635233828661638132e-04
4.500000000000000111e-01,1.685137446649503231e+09,4.253857194726239251e-03,1.602486320750845994e-03,0.000000000000000000e+00,3.204972641501691987e-03,0.000000000000000000e+00,1.404229145863655358e-04,5.806959297515153565e-04
4.666666666666666741e-01,1.685137446665502787e+09,4.679705451831023266e-03,1.602486320750845994e-03,0.000000000000000000e+00,3.204972641501691987e-03,0.000000000000000000e+00,1.502423102808729104e-04,5.975846394028553861e-04
4.833333333333333370e-01,1.685137446681527376e+09,5.138085127248784127e-03,1.602486320750845994e-03,0.000000000000000000e+00,3.204972641501691987e-03,0.000000000000000000e+00,1.603408517925652738e-04,6.141942032370104271e-04
5.000000000000000000e-01,1.685137446698504448e+09,5.630533300999857049e-03,1.602486320750845994e-03,0.000000000000000000e+00,3.204972641501691987e-03,0.000000000000000000e+00,1.707139252469157492e-04,6.305292351285073831e-04
5.166666666666666075e-01,1.685137446713527203e+09,6.158487608917065891e-03,1.602486320750845994e-03,0.000000000000000000e+00,3.204972641501691987e-03,0.000000000000000000e+00,1.813569930300356183e-04,6.465942726912349454e-04
5.333333333333333259e-01,1.685137446732528687e+09,6.723259400480704681e-03,1.602486320750845994e-03,0.000000000000000000e+00,3.204972641501691987e-03,0.000000000000000000e+00,1.922655925281967855e-04,6.623937785389212097e-04
5.500000000000000444e-01,1.685137446749525785e+09,7.326006496371472929e-03,1.602486320750845994e-03,0.000000000000000000e+00,3.204972641501691987e-03,0.000000000000000000e+00,2.034353348881882181e-04,6.779321415247772627e-04
5.666666666666666519e-01,1.685137446763476610e+09,7.967705866883011828e-03,1.602486320750845994e-03,0.000000000000000000e+00,3.204972641501691987e-03,0.000000000000000000e+00,2.148619037981617738e-04,6.932136779606510842e-04
5.833333333333333703e-01,1.685137446781476021e+09,8.649126568449938199e-03,1.602486320750845994e-03,0.000000000000000000e+00,3.204972641501691987e-03,0.000000000000000000e+00,2.265410542886289833e-04,7.082426328160313332e-04
5.999999999999999778e-01,1.685137446799525738e+09,9.370803287846377408e-03,1.602486320750845994e-03,0.000000000000000000e+00,3.204972641501691987e-03,0.000000000000000000e+00,2.384686115532755574e-04,7.230231808972321364e-04
6.166666666666666963e-01,1.685137446817503929e+09,1.013301085180090544e-02,1.602486320750845994e-03,0.000000000000000000e+00,3.204972641501691987e-03,0.000000000000000000e+00,2.506404697892661358e-04,7.375594280070890164e-04
6.333333333333333037e-01,1.685137446833509922e+09,1.093574006360755087e-02,1.602486320750845994e-03,0.000000000000000000e+00,3.204972641501691987e-03,0.000000000000000000e+00,2.630525910567169719e-04,7.518554120854855846e-04
6.500000000000000222e-01,1.685137446849477291e+09,1.177867522759347939e-02,1.602486320750845994e-03,0.000000000000000000e+00,3.204972641501691987e-03,0.000000000000000000e+00,2.757010041570202635e-04,7.659151043310297516e-04
6.666666666666666297e-01,1.685137446866524696e+09,1.266117371688824968e-02,1.602486320750845994e-03,0.000000000000000000e+00,3.204972641501691987e-03,0.000000000000000000e+00,2.885818035297076090e-04,7.797424103041898646e-04
6.833333333333333481e-01,1.685137446884523869e+09,1.358224792974294277e-02,1.602486320750845994e-03,0.000000000000000000e+00,3.204972641501691987e-03,0.000000000000000000e+00,3.016911481675471694e-04,7.933411710121977085e-04
6.999999999999999556e-01,1.685137446903524399e+09,1.454054996464423412e-02,1.602486320750845994e-03,0.000000000000000000e+00,3.204972641501691987e-03,0.000000000000000000e+00,3.150252605495725043e-04,8.067151639760197779e-04
7.166666666666666741e-01,1.685137446919476986e+09,1.553435932469646348e-02,1.602486320750845994e-03,0.000000000000000000e+00,3.204972641501691987e-03,0.000000000000000000e+00,3.285804255917467690e-04,8.198681042796929176e-04
7.333333333333332815e-01,1.685137446939526796e+09,1.656157393730373420e-02,1.602486320750845994e-03,0.000000000000000000e+00,3.204972641501691987e-03,0.000000000000000000e+00,3.423529896149712730e-04,8.328036456023158720e-04
7.500000000000000000e-01,1.685137446955501795e+09,1.761970474623745370e-02,1.602486320750845994e-03,0.000000000000000000e+00,3.204972641501691987e-03,0.000000000000000000e+00,3.563393593301508711e-04,8.455253812329837325e-04
7.666666666666666075e-01,1.685137446974525690e+09,1.870587409994945230e-02,1.602486320750845994e-03,0.000000000000000000e+00,3.204972641501691987e-03,0.000000000000000000e+00,3.705360008400351585e-04,8.580368450689468494e-04
7.833333333333333259e-01,1.685137446992524624e+09,1.981681812277409291e-02,1.602486320750845994e-03,0.000000000000000000e+00,3.204972641501691987e-03,0.000000000000000000e+00,3.849394386575576469e-04,8.703415125972717653e-04
8.000000000000000444e-01,1.685137447009526253e+09,2.094889321480194327e-02,1.602486320750845994e-03,0.000000000000000000e+00,3.204972641501691987e-03,0.000000000000000000e+00,3.995462547404001873e-04,8.824428018602766292e-04
8.166666666666666519e-01,1.685137447026528120e+09,2.209808678210682664e-02,1.602486320750845994e-03,0.000000000000000000e+00,3.204972641501691987e-03,0.000000000000000000e+00,4.143530875415149528e-04,8.943440744050093223e-04
8.333333333333333703e-01,1.685137447042523623e+09,2.326003225212169498e-02,1.602486320750845994e-03,0.000000000000000000e+00,3.204972641501691987e-03,0.000000000000000000e+00,4.293566310753396502e-04,9.060486362170320834e-04
8.499999999999999778e-01,1.685137447060524940e+09,2.443002837979269676e-02,1.602486320750845994e-03,0.000000000000000000e+00,3.204972641501691987e-03,0.000000000000000000e+00,4.445536339994470010e-04,9.175597386387721911e-04
8.666666666666666963e-01,1.685137447075524330e+09,2.560306279924113096e-02,1.602486320750845994e-03,0.000000000000000000e+00,3.204972641501691987e-03,0.000000000000000000e+00,4.599408987113731608e-04,9.288805792726934898e-04
8.833333333333333037e-01,1.685137447093525410e+09,2.677383972361215003e-02,1.602486320750845994e-03,0.000000000000000000e+00,3.204972641501691987e-03,0.000000000000000000e+00,4.755152804603741934e-04,9.400143028695398615e-04
9.000000000000000222e-01,1.685137447111508846e+09,2.793681164320448509e-02,1.602486320750845994e-03,0.000000000000000000e+00,3.204972641501691987e-03,0.000000000000000000e+00,4.912736864738640515e-04,9.509640022018974077e-04
9.166666666666666297e-01,1.685137447129525185e+09,2.908621481949051277e-02,1.602486320750845994e-03,0.000000000000000000e+00,3.204972641501691987e-03,0.000000000000000000e+00,5.072130750982911489e-04,9.617327189233176605e-04
9.333333333333333481e-01,1.685137447144525766e+09,3.021610832090843371e-02,1.602486320750845994e-03,0.000000000000000000e+00,3.204972641501691987e-03,0.000000000000000000e+00,5.233304549542151622e-04,9.723234444132411057e-04
9.499999999999999556e-01,1.685137447164503813e+09,3.132041629599641858e-02,1.602486320750845994e-03,0.000000000000000000e+00,3.204972641501691987e-03,0.000000000000000000e+00,5.396228841053487364e-04,9.827391206079548816e-04
9.666666666666666741e-01,1.685137447183524847e+09,3.239297313120668292e-02,1.602486320750845994e-03,0.000000000000000000e+00,3.204972641501691987e-03,0.000000000000000000e+00,5.560874692413344048e-04,9.929826408178166718e-04
9.833333333333332815e-01,1.685137447201504230e+09,3.342757109523734893e-02,1.602486320750845994e-03,0.000000000000000000e+00,3.204972641501691987e-03,0.000000000000000000e+00,5.727213648740284461e-04,1.003056850530970089e-03
1.000000000000000000e+00,1.685137447219498396e+09,3.441801002958954497e-02,1.602486320750845994e-03,0.000000000000000000e+00,3.204972641501691987e-03,0.000000000000000000e+00,5.895217725470694708e-04,1.012964548203776523e-03
1.016666666666666607e+00,1.685137447235528231e+09,3.535814860690882772e-02,1.602486320750845994e-03,0.000000000000000000e+00,3.204972641501691987e-03,0.000000000000000000e+00,6.064859400585109923e-04,1.022708486038182351e-03
1.033333333333333215e+00,1.685137447252504826e+09,3.624195664508159109e-02,1.602486320750845994e-03,0.000000000000000000e+00,3.204972641501691987e-03,0.000000000000000000e+00,6.236111606963036383e-04,1.032291370746237164e-03
1.050000000000000044e+00,1.685137447271507978e+09,3.706356793656763460e-02,1.602486320750845994e-03,0.000000000000000000e+00,3.204972641501691987e-03,0.000000000000000000e+00,6.408947724864130866e-04,1.041715864301975174e-03
1.066666666666666652e+00,1.685137447287506819e+09,3.781733302954908699e-02,1.602486320750845994e-03,0.000000000000000000e+00,3.204972641501691987e-03,0.000000000000000000e+00,6.583341574533656693e-04,1.050984584680869941e-03
1.083333333333333259e+00,1.685137447304523945e+09,3.849787138059574537e-02,1.602486320750845994e-03,0.000000000000000000e+00,3.204972641501691987e-03,0.000000000000000000e+00,6.759267408930162962e-04,1.060100106587066665e-03
1.100000000000000089e+00,1.685137447322523594e+09,3.910012228805881396e-02,1.602486320750845994e-03,0.000000000000000000e+00,3.204972641501691987e-03,0.000000000000000000e+00,6.936699906573361683e-04,1.069064962168594360e-03
1.116666666666666696e+00,1.685137447338504314e+09,3.961939401161349711e-02,1.602486320750845994e-03,0.000000000000000000e+00,3.204972641501691987e-03,0.000000000000000000e+00,7.115614164510219823e-04,1.077881641720755896e-03
1.133333333333333304e+00,1.685137447357479811e+09,4.005141048650075197e-02,1.602486320750845994e-03,0.000000000000000000e+00,3.204972641501691987e-03,0.000000000000000000e+00,7.295985691397314675e-04,1.086552594377893869e-03
1.149999999999999911e+00,1.685137447374478102e+09,4.039235505122321795e-02,1.602486320750845994e-03,0.000000000000000000e+00,3.204972641501691987e-03,0.000000000000000000e+00,7.477790400697523774e-04,1.095080228793720309e-03
1.166666666666666741e+00,1.685137447393503904e+09,4.063891062479685345e-02,1.602486320750845994e-03,0.000000000000000000e+00,3.204972641501691987e-03,0.000000000000000000e+00,7.661004603989165010e-04,1.103466913810403644e-03
1.183333333333333348e+00,1.685137447410526991e+09,4.078829579413056905e-02,1.602486320750845994e-03,0.000000000000000000e+00,3.204972641501691987e-03,0.000000000000000000e+00,7.845605004385728613e-04,1.111714979116594851e-03
1.199999999999999956e+00,1.685137447426527023e+09,4.083829630359950974e-02,1.602486320750845994e-03,0.000000000000000000e+00,3.204972641501691987e-03,0.000000000000000000e+00,8.031568690064367624e-04,1.119826715894578408e-03
1.216666666666666563e+00,1.685137447444482088e+09,4.078729147720235731e-02,1.602486320750845994e-03,0.000000000000000000e+00,3.204972641501691987e-03,0.000000000000000000e+00,8.218873127901356844e-04,1.127804377456726945e-03
1.233333333333333393e+00,1.685137447461523771e+09,4.063427514857066020e-02,1.602486320750845994e-03,0.000000000000000000e+00,3.204972641501691987e-03,0.000000000000000000e+00,8.407496157212748658e-04,1.135650179871435222e-03
1.250000000000000000e+00,1.685137447479524612e+09,4.037887072516783277e-02,1.602486320750845994e-03,0.000000000000000000e+00,3.204972641501691987e-03,0.000000000000000000e+00,8.597415983598481271e-04,1.143366302578709311e-03
1.266666666666666607e+00,1.685137447498503685e+09,4.002134006982781961e-02,1.602486320750845994e-03,0.000000000000000000e+00,3.204972641501691987e-03,0.000000000000000000e+00,8.788611172888242560e-04,1.150954888995580749e-03
1.283333333333333215e+00,1.685137447515524387e+09,3.956258594481484175e-02,1.602486320750845994e-03,0.000000000000000000e+00,3.204972641501691987e-03,0.000000000000000000e+00,8.981060645187391705e-04,1.158418047111513293e-03
1.300000000000000044e+00,1.685137447532505512e+09,3.900414783023232329e-02,1.602486320750845994e-03,0.000000000000000000e+00,3.204972641501691987e-03,0.000000000000000000e+00,9.174743669021300342e-04,1.165757850073969887e-03
1.316666666666666652e+00,1.685137447552526236e+09,3.834819099920334928e-02,1.602486320750845994e-03,0.000000000000000000e+00,3.204972641501691987e-03,0.000000000000000000e+00,9.369639855576477206e-04,1.172976336764299660e-03
1.333333333333333259e+00,1.685137447566525698e+09,3.759748880604642934e-02,1.602486320750845994e-03,0.000000000000000000e+00,3.204972641501691987e-03,0.000000000000000000e+00,9.565729153036873784e-04,1.180075512364107352e-03
1.350000000000000089e+00,1.685137447584525108e+09,3.675539821989614458e-02,1.602486320750845994e-03,0.000000000000000000e+00,3.204972641501691987e-03,0.000000000000000000e+00,9.762991841013810837e-04,1.187057348912261105e-03
1.366666666666666696e+00,1.685137447602476835e+09,3.582582871402476693e-02,1.602486320750845994e-03,0.000000000000000000e+00,3.204972641501691987e-03,0.000000000000000000e+00,9.961408525067962354e-04,1.193923785852693412e-03
1.383333333333333304e+00,1.685137447617525101e+09,3.481320469963192221e-02,1.602486320750845994e-03,0.000000000000000000e+00,3.204972641501691987e-03,0.000000000000000000e+00,1.016096013132188882e-03,1.200676730573148115e-03
1.399999999999999911e+00,1.685137447633503914e+09,3.372242177118276590e-02,1.602486320750845994e-03,0.000000000000000000e+00,3.204972641501691987e-03,0.000000000000000000e+00,1.036162790116161494e-03,1.207318058935023071e-03
1.416666666666666741e+00,1.685137447650526762e+09,3.255879710756178630e-02,1.602486320750845994e-03,0.000000000000000000e+00,3.204972641501691987e-03,0.000000000000000000e+00,1.056339338602578157e-03,1.213849615794453975e-03
1.433333333333333348e+00,1.685137447667525291e+09,3.132801444843617833e-02,1.602486320750845994e-03,0.000000000000000000e+00,3.204972641501691987e-03,0.000000000000000000e+00,1.076623844228092892e-03,1.220273215514786807e-03
1.449999999999999956e+00,1.685137447687525272e+09,3.003606413736149491e-02,1.602486320750845994e-03,0.000000000000000000e+00,3.204972641501691987e-03,0.000000000000000000e+00,1.097014522618147865e-03,1.226590642470579183e-03
1.466666666666666563e+00,1.685137447702524424e+09,2.868917879139329385e-02,1.602486320750845994e-03,0.000000000000000000e+00,3.204972641501691987e-03,0.000000000000000000e+00,1.117509618891302610e-03,1.232803651543271789e-03
1.483333333333333393e+00,1.685137447719523907e+09,2.729376522039674013e-02,1.602486320750845994e-03,0.000000000000000000e+00,3.204972641501691987e-03,0.000000000000000000e+00,1.138107407171755694e-03,1.238913968608666054e-03
1.500000000000000000e+00,1.685137447736526012e+09,2.585633327702072798e-02,1.602486320750845994e-03,0.000000000000000000e+00,3.204972641501691987e-03,0.000000000000000000e+00,1.158806190109923535e-03,1.244923291016345780e-03
1.516666666666666607e+00,1.685137447755528450e+09,2.438342236960515733e-02,1.602486320750845994e-03,0.000000000000000000e+00,3.204972641501691987e-03,0.000000000000000000e+00,1.179604298410943204e-03,1.250833288061173462e-03
1.533333333333333215e+00,1.685137447772476912e+09,2.288152641437429108e-02,1.602486320750845994e-03,0.000000000000000000e+00,3.204972641501691987e-03,0.000000000000000000e+00,1.200500090370969350e-03,1.256645601446994883e-03
1.550000000000000044e+00,1.685137447790499687e+09,2.135701803944423799e-02,1.602486320750845994e-03,0.000000000000000000e+00,3.204972641501691987e-03,0.000000000000000000e+00,1.221491951421134047e-03,1.262361845742677536e-03
1.566666666666666652e+00,1.685137447808524847e+09,1.981607288083132856e-02,1.602486320750845994e-03,0.000000000000000000e+00,3.204972641501691987e-03,0.000000000000000000e+00,1.242578293679045751e-03,1.267983608830613182e-03
1.583333333333333259e+00,1.685137447825479269e+09,1.826459482926728883e-02,1.602486320750845994e-03,0.000000000000000000e+00,3.204972641501691987e-03,0.000000000000000000e+00,1.263757555507700287e-03,1.273512452347805995e-03
1.600000000000000089e+00,1.685137447843528032e+09,1.670814309577941734e-02,-1.442237688675220356e-02,0.000000000000000000e+00,-2.884475377350440711e-02,0.000000000000000000e+00,1.282814838979517329e-03,1.014082220763452358e-03
1.616666666666666696e+00,1.685137447859524488e+09,1.515186196334302252e-02,1.602486320750845994e-03,0.000000000000000000e+00,3.204972641501691987e-03,0.000000000000000000e+00,1.299797479993461749e-03,1.023807685095355288e-03
1.633333333333333304e+00,1.685137447878503084e+09,1.360041408124810364e-02,-1.442237688675220356e-02,0.000000000000000000e+00,-2.884475377350440711e-02,0.000000000000000000e+00,1.314727506691453027e-03,7.685047102848274140e-04
1.649999999999999911e+00,1.685137447896533012e+09,1.205791813802317355e-02,1.602486320750845994e-03,0.000000000000000000e+00,3.204972641501691987e-03,0.000000000000000000e+00,1.327651108485703932e-03,7.822892138364240765e-04
1.666666666666666741e+00,1.685137447912524462e+09,1.052789171783574847e-02,-4.697575229124573148e-01,-9.427200184664162874e-01,3.204972641501691987e-03,0.000000000000000000e+00,1.275698068412948940e-03,-6.995049794631776757e-03
1.683333333333333348e+00,1.685137447926523685e+09,9.013200104364153462e-03,-5.638312358621822007e-01,-1.098817717950860029e+00,-2.884475377350440711e-02,0.000000000000000000e+00,1.082203413304219739e-03,-1.619874240389275119e-02
1.699999999999999956e+00,1.685137447944524050e+09,7.516011745448671934e-03,-5.789204411329975652e-01,-1.161045854907496899e+00,3.204972641501691987e-03,0.000000000000000000e+00,7.345009714289591016e-04,-2.549971398090078445e-02
1.716666666666666563e+00,1.685137447961501598e+09,6.037761031745840327e-03,-5.564482365622425153e-01,-1.084051719350980436e+00,-2.884475377350440711e-02,0.000000000000000000e+00,2.361708635469932007e-04,-3.427552114905619424e-02
1.733333333333333393e+00,1.685137447979502201e+09,4.579118973600153700e-03,-5.706868780692694321e-01,-1.112529002365034492e+00,-2.884475377350440711e-02,0.000000000000000000e+00,-4.091772265422447506e-04,-4.314162102678811145e-02
1.750000000000000000e+00,1.685137447996523857e+09,3.139972283011225988e-03,-5.627765216764765155e-01,-1.096708289579448659e+00,-2.884475377350440711e-02,0.000000000000000000e+00,-1.199976475415961323e-03,-5.173043047252233462e-02
1.766666666666666607e+00,1.685137448011528254e+09,1.719411282603012072e-03,-5.643585929550350988e-01,-1.099872432136565825e+00,-2.884475377350440711e-02,0.000000000000000000e+00,-2.132954774213437557e-03,-6.020342872297544667e-02
1.783333333333333215e+00,1.685137448031525373e+09,3.157269717125276679e-04,-5.754330919049450710e-01,-1.122021430036385770e+00,-2.884475377350440711e-02,0.000000000000000000e+00,-3.207509031093148770e-03,-6.871942599784482131e-02
1.800000000000000044e+00,1.685137448045524836e+09,-1.073582518004635505e-03,-6.149848738689089878e-01,-1.201124993964313381e+00,-2.884475377350440711e-02,0.000000000000000000e+00,-4.428283253954569051e-03,-7.774839967279854880e-02
1.816666666666666652e+00,1.685137448064527273e+09,-2.451795947702051053e-03,-6.561187271114312658e-01,-1.283392700449358159e+00,-2.884475377350440711e-02,0.000000000000000000e+00,-5.803974713383834583e-03,-8.730802033189313804e-02
1.833333333333333259e+00,1.685137448083523273e+09,-3.822943453971992464e-03,-6.988346516325123492e-01,-1.368824549491520326e+00,-2.884475377350440711e-02,0.000000000000000000e+00,-7.343572749031468394e-03,-9.741566649012070589e-02
1.849999999999999867e+00,1.685137448099503994e+09,-5.191771574985063441e-03,-7.280434421613360962e-01,-1.395192404134162789e+00,-6.089448018850930622e-02,0.000000000000000000e+00,-9.054269813574282802e-03,-1.078390267949334985e-01
1.866666666666666696e+00,1.685137448116524696e+09,-6.563699016932776457e-03,-5.782740277911262439e-01,-1.095653575393743306e+00,-6.089448018850930622e-02,0.000000000000000000e+00,-1.091656364389428230e-02,-1.156146334277989296e-01
1.883333333333333304e+00,1.685137448135503292e+09,-7.944763468639247719e-03,-5.236330405563471846e-01,-9.543218745091790467e-01,-9.294420660351540575e-02,0.000000000000000000e+00,-1.289982990700629106e-02,-1.223585845072927003e-01
1.899999999999999911e+00,1.685137448153525114e+09,-9.341559882321529354e-03,-5.196183342354411261e-01,-9.142427354523618988e-01,-1.249939330185202979e-01,0.000000000000000000e+00,-1.499400936364812635e-02,-1.289247106212415561e-01
1.916666666666666741e+00,1.685137448170503855e+09,-1.076117074632999132e-02,-5.098026998931545206e-01,-8.625617403527826577e-01,-1.570436594335263836e-01,0.000000000000000000e+00,-1.719536159859420127e-02,-1.352200700511813902e-01
1.933333333333333348e+00,1.685137448189527988e+09,-1.221108898001821430e-02,-4.987282009432446039e-01,-8.404127424529628243e-01,-1.570436594335263836e-01,0.000000000000000000e+00,-1.949923735719945664e-02,-1.412283309749635396e-01
1.949999999999999956e+00,1.685137448205479383e+09,-1.369913418039041438e-02,-5.087479857074488354e-01,-8.604523119813712873e-01,-1.570436594335263836e-01,0.000000000000000000e+00,-2.190380487154221928e-02,-1.473028965557449110e-01
1.966666666666666563e+00,1.685137448223526478e+09,-1.523336304361595610e-02,-5.532501319290051844e-01,-9.174068780094791764e-01,-1.890933858485313035e-01,0.000000000000000000e+00,-2.441492278217703357e-02,-1.540126141772601986e-01
1.983333333333333393e+00,1.685137448240503550e+09,-1.682197487066692740e-02,-5.100068503150713140e-01,-8.309203147816113244e-01,-1.890933858485313035e-01,0.000000000000000000e+00,-2.703096978665759514e-02,-1.598966813446975055e-01
2.000000000000000000e+00,1.685137448259505272e+09,-1.847321314409454407e-02,-5.344694270082200882e-01,-8.477957417529027317e-01,-2.211431122635373892e-01,0.000000000000000000e+00,-2.974765065026794414e-02,-1.660878242645574820e-01
2.016666666666666607e+00,1.685137448273525476e+09,-2.019526423121547828e-02,-5.745485660650369031e-01,-9.279540198665363615e-01,-2.211431122635373892e-01,0.000000000000000000e+00,-3.257219785614486052e-02,-1.728390864930978432e-01
2.033333333333333215e+00,1.685137448291479588e+09,-2.199615432675459947e-02,-5.819315653649768105e-01,-9.427200184664162874e-01,-2.211431122635373892e-01,0.000000000000000000e+00,-3.550935335500363804e-02,-1.796007904169886760e-01
2.049999999999999822e+00,1.685137448309482098e+09,-2.388364579437674343e-02,-4.870072886514634214e-01,-7.528714650393893981e-01,-2.211431122635373892e-01,0.000000000000000000e+00,-3.854515900087658598e-02,-1.846817729153067966e-01
2.066666666666666430e+00,1.685137448324478149e+09,-2.586513410075957226e-02,-1.105715561317686946e-01,0.000000000000000000e+00,-2.211431122635373892e-01,0.000000000000000000e+00,-4.161295240934402562e-02,-1.834568387757021801e-01
2.083333333333333481e+00,1.685137448340523958e+09,-2.794754655724002168e-02,-1.105715561317686946e-01,0.000000000000000000e+00,-2.211431122635373892e-01,0.000000000000000000e+00,-4.466049943733262778e-02,-1.822521510165763803e-01
2.100000000000000089e+00,1.685137448358502865e+09,-3.013724409208526703e-02,-1.105715561317686946e-01,0.000000000000000000e+00,-2.211431122635373892e-01,0.000000000000000000e+00,-4.768813472807685583e-02,-1.810673749946949684e-01
2.116666666666666696e+00,1.685137448375524282e+09,-3.243992727068605725e-02,-4.205602949520040323e-01,-6.199774776404706200e-01,-2.211431122635373892e-01,0.000000000000000000e+00,-5.073900319292634631e-02,-1.850258447790455452e-01
2.133333333333333304e+00,1.685137448391479492e+09,-3.486054776121223775e-02,-4.469281495946466065e-01,-6.727131869257558794e-01,-2.211431122635373892e-01,0.000000000000000000e+00,-5.385894134959993973e-02,-1.893547091156160544e-01
2.149999999999999911e+00,1.685137448408526897e+09,-3.740322640940859505e-02,-4.659130049373493287e-01,-7.106828976111613239e-01,-2.211431122635373892e-01,0.000000000000000000e+00,-5.705305153800706297e-02,-1.939258156761647645e-01
2.166666666666666519e+00,1.685137448428524971e+09,-4.007117903830391403e-02,-4.379630790161481158e-01,-6.547830457687588979e-01,-2.211431122635373892e-01,0.000000000000000000e+00,-6.031885501452322745e-02,-1.979593968499177292e-01
2.183333333333333126e+00,1.685137448444525957e+09,-4.286665102688377860e-02,-4.316347939019140045e-01,-6.421264755402905644e-01,-2.211431122635373892e-01,0.000000000000000000e+00,-6.365045365779330167e-02,-2.018217114383462074e-01
2.200000000000000178e+00,1.685137448458504915e+09,-4.579086164662417302e-02,-4.221423662305626157e-01,-6.231416201975878977e-01,-2.211431122635373892e-01,0.000000000000000000e+00,-6.704457964720596241e-02,-2.054632915527762616e-01
2.216666666666666785e+00,1.685137448478501558e+09,-4.884395904673366484e-02,-1.105715561317686946e-01,0.000000000000000000e+00,-2.211431122635373892e-01,0.000000000000000000e+00,-7.045586134590764438e-02,-2.038948691229373889e-01
2.233333333333333393e+00,1.685137448494501591e+09,-5.202498667871632149e-02,-1.105715561317686946e-01,0.000000000000000000e+00,-2.211431122635373892e-01,0.000000000000000000e+00,-7.384121930206728746e-02,-2.023523704356405550e-01
2.250000000000000000e+00,1.685137448512501717e+09,-5.533186183928889140e-02,-1.105715561317686946e-01,0.000000000000000000e+00,-2.211431122635373892e-01,0.000000000000000000e+00,-7.720108199746032740e-02,-2.008353670091103105e-01
2.266666666666666607e+00,1.685137448529501915e+09,-5.876136688876717334e-02,-1.105715561317686946e-01,0.000000000000000000e+00,-2.211431122635373892e-01,0.000000000000000000e+00,-8.053587083168141370e-02,-1.993434374437520473e-01
2.283333333333333215e+00,1.685137448546502113e+09,-6.230915357091263568e-02,-1.105715561317686946e-01,0.000000000000000000e+00,-2.211431122635373892e-01,0.000000000000000000e+00,-8.384600023920252276e-02,-1.978761673050937475e-01
2.299999999999999822e+00,1.685137448563504219e+09,-6.596976072115773304e-02,-1.105715561317686946e-01,0.000000000000000000e+00,-2.211431122635373892e-01,0.000000000000000000e+00,-8.713187780449634101e-02,-1.964331490086627385e-01
2.316666666666666430e+00,1.685137448580528975e+09,-6.973664550450117683e-02,-1.105715561317686946e-01,0.000000000000000000e+00,-2.211431122635373892e-01,0.000000000000000000e+00,-9.039390437525676725e-02,-1.950139817067651216e-01
2.333333333333333481e+00,1.685137448598525524e+09,-7.360222817363577807e-02,-1.105715561317686946e-01,0.000000000000000000e+00,-2.211431122635373892e-01,0.000000000000000000e+00,-9.363247417374809256e-02,-1.936182711771365916e-01
2.350000000000000089e+00,1.685137448617525578e+09,-7.755795018365450877e-02,-9.454669292426565175e-02,0.000000000000000000e+00,-1.890933858485313035e-01,0.000000000000000000e+00,-9.684576154421155325e-02,-1.919807620220775612e-01
2.366666666666666696e+00,1.685137448633524656e+09,-8.159434534357057345e-02,-9.454669292426565175e-02,0.000000000000000000e+00,-1.890933858485313035e-01,0.000000000000000000e+00,-1.000319832690056004e-01,-1.903703185126879582e-01
2.383333333333333304e+00,1.685137448649525404e+09,-8.570112352862707672e-02,-9.454669292426565175e-02,0.000000000000000000e+00,-1.890933858485313035e-01,0.000000000000000000e+00,-1.031915867039042284e-01,-1.887864932931937467e-01
2.399999999999999911e+00,1.685137448667525053e+09,-8.986726632266973935e-02,-9.454669292426565175e-02,0.000000000000000000e+00,-1.890933858485313035e-01,0.000000000000000000e+00,-1.063250118105408953e-01,-1.872288464019615239e-01
2.416666666666666519e+00,1.685137448685526133e+09,-9.408113380848827367e-02,-9.454669292426565175e-02,0.000000000000000000e+00,-1.890933858485313035e-01,0.000000000000000000e+00,-1.094326912786228595e-01,-1.856969451492839762e-01
2.433333333333333126e+00,1.685137448702524900e+09,-9.833058157774830776e-02,-9.454669292426565175e-02,0.000000000000000000e+00,-1.890933858485313035e-01,0.000000000000000000e+00,-1.125150506461255889e-01,-1.841903639971856632e-01
2.450000000000000178e+00,1.685137448719525337e+09,-1.026030868926838535e-01,-9.454669292426565175e-02,0.000000000000000000e+00,-1.890933858485313035e-01,0.000000000000000000e+00,-1.155725084175004830e-01,-1.827086844412151856e-01
2.466666666666666785e+00,1.685137448737524748e+09,-1.068858828007965417e-01,-9.454669292426565175e-02,0.000000000000000000e+00,-1.890933858485313035e-01,0.000000000000000000e+00,-1.186054761799287816e-01,-1.812514948941913173e-01
2.483333333333333393e+00,1.685137448756527662e+09,-1.111660988830638075e-01,-9.454669292426565175e-02,0.000000000000000000e+00,-1.890933858485313035e-01,0.000000000000000000e+00,-1.216143587176540253e-01,-1.798183905718705178e-01
2.500000000000000000e+00,1.685137448771524906e+09,-1.154309072071611764e-01,-1.105715561317686946e-01,0.000000000000000000e+00,-2.211431122635373892e-01,0.000000000000000000e+00,-1.246017674865268210e-01,-1.786738410718605174e-01
2.516666666666666607e+00,1.685137448789504290e+09,-1.196676719614155893e-01,-1.105715561317686946e-01,0.000000000000000000e+00,-2.211431122635373892e-01,0.000000000000000000e+00,-1.275702585161475056e-01,-1.775482093111026560e-01
2.533333333333333215e+00,1.685137448806503773e+09,-1.238641011640129602e-01,-1.105715561317686946e-01,0.000000000000000000e+00,-2.211431122635373892e-01,0.000000000000000000e+00,-1.305201444892426788e-01,-1.764411826068703060e-01
2.549999999999999822e+00,1.685137448825504541e+09,-1.280083987765731901e-01,-4.013712891873839061e-01,-6.136491925262366198e-01,-1.890933858485313035e-01,0.000000000000000000e+00,-1.334918983245783897e-01,-1.801589502579910018e-01
2.566666666666666430e+00,1.685137448842477798e+09,-1.320894155027002581e-01,-3.823864338446811839e-01,-5.756794818408311754e-01,-1.890933858485313035e-01,0.000000000000000000e+00,-1.365224792564835865e-01,-1.835014765568304951e-01
2.583333333333333481e+00,1.685137448859528780e+09,-1.360967965213974173e-01,-4.042122250735656341e-01,-5.872813378835940457e-01,-2.211431122635373892e-01,0.000000000000000000e+00,-1.396113218778108622e-01,-1.871495043533959735e-01
2.600000000000000089e+00,1.685137448874523878e+09,-1.400211243930829796e-01,-9.454669292426565175e-02,0.000000000000000000e+00,-1.890933858485313035e-01,0.000000000000000000e+00,-1.427176899371800645e-01,-1.856189145094311876e-01
2.616666666666666696e+00,1.685137448892477274e+09,-1.438540553828771273e-01,-9.454669292426565175e-02,0.000000000000000000e+00,-1.890933858485313035e-01,0.000000000000000000e+00,-1.457987595716495055e-01,-1.841136230903661908e-01
2.633333333333333304e+00,1.685137448912530184e+09,-1.475884474722390649e-01,-3.876600047732098320e-01,-5.862266236978883605e-01,-1.890933858485313035e-01,0.000000000000000000e+00,-1.488954338842907454e-01,-1.874779488572784480e-01
2.649999999999999911e+00,1.685137448927524567e+09,-1.512184783760587292e-01,-4.685497904016135418e-01,-7.159564685396897499e-01,-2.211431122635373892e-01,0.000000000000000000e+00,-1.520588881482462518e-01,-1.921236577666831646e-01
2.666666666666666519e+00,1.685137448943523884e+09,-1.547397519478964922e-01,-4.057942963521242730e-01,-5.904454804407111013e-01,-2.211431122635373892e-01,0.000000000000000000e+00,-1.552904614062412259e-01,-1.956553227812236062e-01
2.683333333333333126e+00,1.685137448960503340e+09,-1.581493914409518586e-01,-3.989386541450372081e-01,-5.767341960265369716e-01,-2.211431122635373892e-01,0.000000000000000000e+00,-1.585794610477554434e-01,-1.990153007087933357e-01
2.700000000000000178e+00,1.685137448979505539e+09,-1.614461181960371583e-01,-3.723666490804771190e-01,-5.556399123124228234e-01,-1.890933858485313035e-01,0.000000000000000000e+00,-1.619203261009697636e-01,-2.018805464735869692e-01
2.716666666666666785e+00,1.685137448995524406e+09,-1.646303144496523430e-01,-3.920830119379500878e-01,-5.630229116123628419e-01,-2.211431122635373892e-01,0.000000000000000000e+00,-1.653112727349650424e-01,-2.050243167052241966e-01
2.733333333333333393e+00,1.685137449011505127e+09,-1.677040690942679657e-01,-4.574752914517037361e-01,-6.938074706398700275e-01,-2.211431122635373892e-01,0.000000000000000000e+00,-1.687632133346498586e-01,-2.091969642964011111e-01
2.750000000000000000e+00,1.685137449028527021e+09,-1.706712053780453375e-01,-4.970270734156675418e-01,-7.729110345677977501e-01,-2.211431122635373892e-01,0.000000000000000000e+00,-1.722895846445470225e-01,-2.139543775434317174e-01
2.766666666666666607e+00,1.685137449044527292e+09,-1.735372897011051296e-01,-5.123204291084002548e-01,-8.034977459532631761e-01,-2.211431122635373892e-01,0.000000000000000000e+00,-1.758967014048557764e-01,-2.188859346015963048e-01
2.783333333333333215e+00,1.685137449062527180e+09,-1.763096208486471528e-01,-6.156824193075591811e-01,-1.010221726351580918e+00,-2.211431122635373892e-01,0.000000000000000000e+00,-1.795996060433399932e-01,-2.254444036182380873e-01
2.799999999999999822e+00,1.685137449077480078e+09,-1.789971991960005726e-01,-6.425776310430547644e-01,-1.064012149822572084e+00,-2.211431122635373892e-01,0.000000000000000000e+00,-1.834146274198200088e-01,-2.323390094258089844e-01
2.816666666666666430e+00,1.685137449096526384e+09,-1.816106756252700571e-01,-6.854977059860527522e-01,-1.117802573293563029e+00,-2.531928386785423091e-01,0.000000000000000000e+00,-1.873495347488655371e-01,-2.398290638631976890e-01
2.833333333333333481e+00,1.685137449111503363e+09,-1.841622801056066461e-01,-7.308504159713978821e-01,-1.208507993264253511e+00,-2.531928386785423091e-01,0.000000000000000000e+00,-1.914145059274108551e-01,-2.479449329508423283e-01
2.850000000000000089e+00,1.685137449127523899e+09,-1.866657301072308095e-01,-7.113382035358423172e-01,-1.169483568393142381e+00,-2.531928386785423091e-01,0.000000000000000000e+00,-1.956109255863446583e-01,-2.556041500175059156e-01
2.866666666666666696e+00,1.685137449143508196e+09,-1.891361192409098391e-01,-6.844429918003468449e-01,-1.115693144922151436e+00,-2.531928386785423091e-01,0.000000000000000000e+00,-1.999302261881083509e-01,-2.626922326124146445e-01
2.883333333333333304e+00,1.685137449162501812e+09,-1.915897867374083130e-01,-6.886618485431695857e-01,-1.124130858407797140e+00,-2.531928386785423091e-01,0.000000000000000000e+00,-2.043672652008808599e-01,-2.697328910753616360e-01
2.899999999999999911e+00,1.685137449180479765e+09,-1.940441686030930646e-01,-6.923533481931397615e-01,-1.131513857707737047e+00,-2.531928386785423091e-01,0.000000000000000000e+00,-2.089211859338827582e-01,-2.767181928122454115e-01
2.916666666666666519e+00,1.685137449195527792e+09,-1.965176315060390699e-01,-7.245221308571635488e-01,-1.195851423035784844e+00,-2.531928386785423091e-01,0.000000000000000000e+00,-2.135950067174508804e-01,-2.841197408762966559e-01
2.933333333333333126e+00,1.685137449212524414e+09,-1.990292906592305566e-01,-7.284177809290509620e-01,-1.171592996764553751e+00,-2.852425650935483947e-01,0.000000000000000000e+00,-2.183917023990398221e-01,-2.914633415435252117e-01
2.950000000000000178e+00,1.685137449227523804e+09,-2.015988131714070986e-01,-6.572245733939161560e-01,-1.029206581694283917e+00,-2.852425650935483947e-01,0.000000000000000000e+00,-2.232999438819460725e-01,-2.975088429505175491e-01
2.966666666666666785e+00,1.685137449244535446e+09,-2.042462085294376450e-01,-6.313840758441262579e-01,-9.775255865947042322e-01,-2.852425650935483947e-01,0.000000000000000000e+00,-2.283045396115494230e-01,-3.030273151516496566e-01
2.983333333333333393e+00,1.685137449263503790e+09,-2.069916080565215866e-01,-5.164202296022045724e-01,-7.475978941108608611e-01,-2.852425650935483947e-01,0.000000000000000000e+00,-2.333844687998977430e-01,-3.065543897900047665e-01
3.000000000000000000e+00,1.685137449280479908e+09,-2.098550353558309989e-01,-5.313903786240014027e-01,-7.454884657394494907e-01,-3.172922915085532591e-01,0.000000000000000000e+00,-2.385247630886955794e-01,-3.102706018116069275e-01
3.016666666666666607e+00,1.685137449296500444e+09,-2.128561698973805427e-01,-5.308630215311485046e-01,-7.444337515537438055e-01,-3.172922915085532591e-01,0.000000000000000000e+00,-2.437264081206366173e-01,-3.139166738051850092e-01
3.033333333333333215e+00,1.685137449315479517e+09,-2.160141060349541065e-01,-5.466837343167340046e-01,-7.760751771249148057e-01,-3.172922915085532591e-01,0.000000000000000000e+00,-2.489905025865982724e-01,-3.177639749111689227e-01
3.049999999999999822e+00,1.685137449331504107e+09,-2.193471098481185322e-01,-6.268420124303675234e-01,-9.363917333521818431e-01,-3.172922915085532591e-01,0.000000000000000000e+00,-2.543292588478809346e-01,-3.228725855237257192e-01
3.066666666666666430e+00,1.685137449348504305e+09,-2.228723762900883254e-01,-6.259914486665792976e-01,-9.026408794095992505e-01,-3.493420179235594003e-01,0.000000000000000000e+00,-2.597523355352345797e-01,-3.278826996474817346e-01
3.083333333333333481e+00,1.685137449364526033e+09,-2.266057891841075367e-01,-6.112254500666995938e-01,-8.731088822098398428e-01,-3.493420179235594003e-01,0.000000000000000000e+00,-2.652561826380936960e-01,-3.325659433790675856e-01
3.100000000000000089e+00,1.685137449382526159e+09,-2.305616866479298366e-01,-6.850554430660987792e-01,-1.020768868208638214e+00,-3.493420179235594003e-01,0.000000000000000000e+00,-2.708476343866570435e-01,-3.383920823482725604e-01
3.116666666666666696e+00,1.685137449398526430e+09,-2.347526345369695955e-01,-7.585622293945620820e-01,-1.135732714450559788e+00,-3.813917443385642647e-01,0.000000000000000000e+00,-2.765455365361577655e-01,-3.453368840220145675e-01
3.133333333333333304e+00,1.685137449418503523e+09,-2.391892104811169095e-01,-7.569801581160034987e-01,-1.132568571893442622e+00,-3.813917443385642647e-01,0.000000000000000000e+00,-2.823580076442739895e-01,-3.521407488824984111e-01
3.149999999999999911e+00,1.685137449436503887e+09,-2.438798010476422584e-01,-7.269208038233908598e-01,-1.072449863308217344e+00,-3.813917443385642647e-01,0.000000000000000000e+00,-2.882787849338418473e-01,-3.583353183233203842e-01
3.166666666666666519e+00,1.685137449451501608e+09,-2.488304144929356088e-01,-7.147915906877755354e-01,-1.048191437036986473e+00,-3.813917443385642647e-01,0.000000000000000000e+00,-2.943002741574309300e-01,-3.642270222778609123e-01
3.183333333333333126e+00,1.685137449468524694e+09,-2.540445114691871620e-01,-7.712187996230305265e-01,-1.161045854907496899e+00,-3.813917443385642647e-01,0.000000000000000000e+00,-3.004269384360926942e-01,-3.709540046595830032e-01
3.200000000000000178e+00,1.685137449484479666e+09,-2.595228559289405879e-01,-7.914625195733563379e-01,-1.169483568393142381e+00,-4.134414707535703504e-01,0.000000000000000000e+00,-3.066675860263206044e-01,-3.779043990622443783e-01
3.216666666666666785e+00,1.685137449501501799e+09,-2.652633883214754462e-01,-7.534928088879510044e-01,-1.093544147022331936e+00,-4.134414707535703504e-01,0.000000000000000000e+00,-3.130178691359309373e-01,-3.841123294340998973e-01
3.233333333333333393e+00,1.685137449519502401e+09,-2.712611230011755525e-01,-5.868479675464498557e-01,-7.602544643393293056e-01,-4.134414707535703504e-01,0.000000000000000000e+00,-3.194477432406612749e-01,-3.874632547884770961e-01
3.250000000000000000e+00,1.685137449536503315e+09,-2.775080715707061718e-01,-6.216535356747380225e-01,-8.298656005959057502e-01,-4.134414707535703504e-01,0.000000000000000000e+00,-3.259378106322528001e-01,-3.913340796581312175e-01
3.266666666666666607e+00,1.685137449554525375e+09,-2.839931936625014197e-01,-6.946329649103485382e-01,-9.437747326521217506e-01,-4.454911971685752703e-01,0.000000000000000000e+00,-3.325019370865900936e-01,-3.963471692856330719e-01
3.283333333333333215e+00,1.685137449572511435e+09,-2.907023764225235563e-01,-7.326026755957537606e-01,-1.019714154022932417e+00,-4.454911971685752703e-01,0.000000000000000000e+00,-3.391541670196639990e-01,-4.019049839458216922e-01
3.299999999999999822e+00,1.685137449589526892e+09,-2.976184437025862217e-01,-5.601569062328712878e-01,-6.748226152971674718e-01,-4.454911971685752703e-01,0.000000000000000000e+00,-3.458744412532304691e-01,-4.045206581494697473e-01
3.316666666666666430e+00,1.685137449603505611e+09,-3.047211956939400168e-01,-5.575201207686070193e-01,-6.695490443686388238e-01,-4.454911971685752703e-01,0.000000000000000000e+00,-3.526375845845075574e-01,-4.070495168310027667e-01
3.333333333333333481e+00,1.685137449624525785e+09,-3.119874794478348923e-01,-5.538286211186370656e-01,-6.621660450686988053e-01,-4.454911971685752703e-01,0.000000000000000000e+00,-3.594420164014803798e-01,-4.094755620326739343e-01
3.350000000000000089e+00,1.685137449640479088e+09,-3.193912904310010070e-01,-5.659578342542526119e-01,-6.864244713399300091e-01,-4.454911971685752703e-01,0.000000000000000000e+00,-3.662882225115443591e-01,-4.120619864935141652e-01
3.366666666666666696e+00,1.685137449658526182e+09,-3.269039049582716516e-01,-5.907436176183367138e-01,-7.359960380680982128e-01,-4.454911971685752703e-01,0.000000000000000000e+00,-3.731806018824841975e-01,-4.150153340828799386e-01
3.383333333333333304e+00,1.685137449676492691e+09,-3.344940430338545490e-01,-5.707040480899283619e-01,-6.959168990112813979e-01,-4.454911971685752703e-01,0.000000000000000000e+00,-3.801190279200616917e-01,-4.175886421801345838e-01
3.399999999999999911e+00,1.685137449692476988e+09,-3.421280608200716888e-01,-5.416994079830215192e-01,-6.379076187974678236e-01,-4.454911971685752703e-01,0.000000000000000000e+00,-3.870959808639643507e-01,-4.196400127026156390e-01
3.416666666666666519e+00,1.685137449710504055e+09,-3.497701716408870287e-01,-5.369531941473457692e-01,-6.284151911261163237e-01,-4.454911971685752703e-01,0.000000000000000000e+00,-3.941061844308316742e-01,-4.215790290382041006e-01
3.433333333333333126e+00,1.685137449727527142e+09,-3.573826941203810947e-01,-5.643757629756941396e-01,-6.832603287828129535e-01,-4.454911971685752703e-01,0.000000000000000000e+00,-4.011522247376113071e-01,-4.239392514476860163e-01
3.449999999999999734e+00,1.685137449744495869e+09,-3.649263257566864871e-01,-5.274607664759944914e-01,-6.094303357834137680e-01,-4.454911971685752703e-01,0.000000000000000000e+00,-4.082321773717160207e-01,-4.256503115881811738e-01
3.466666666666666785e+00,1.685137449762526274e+09,-3.723604399429694678e-01,-2.227455985842876351e-01,0.000000000000000000e+00,-4.454911971685752703e-01,0.000000000000000000e+00,-4.152983239313153274e-01,-4.222965916716533430e-01
3.483333333333333393e+00,1.685137449778525591e+09,-3.796434041718770858e-01,-2.227455985842876351e-01,0.000000000000000000e+00,-4.454911971685752703e-01,0.000000000000000000e+00,-4.223090383764407929e-01,-4.189983038695993534e-01
3.500000000000000000e+00,1.685137449797504663e+09,-3.867329169015772394e-01,-2.227455985842876351e-01,0.000000000000000000e+00,-4.454911971685752703e-01,0.000000000000000000e+00,-4.292652369193556416e-01,-4.157545319697559250e-01
3.516666666666666607e+00,1.685137449813524723e+09,-3.935863603229117214e-01,-2.227455985842876351e-01,0.000000000000000000e+00,-4.454911971685752703e-01,0.000000000000000000e+00,-4.361678206286664916e-01,-4.125643749035165508e-01
3.533333333333333215e+00,1.685137449831505299e+09,-4.001611660510991930e-01,-2.227455985842876351e-01,0.000000000000000000e+00,-4.454911971685752703e-01,0.000000000000000000e+00,-4.430176756796257997e-01,-4.094269464956287186e-01
3.549999999999999822e+00,1.685137449848530293e+09,-4.064151905744025073e-01,-2.227455985842876351e-01,0.000000000000000000e+00,-4.454911971685752703e-01,0.000000000000000000e+00,-4.498156736002975054e-01,-4.063413752180284888e-01
3.566666666666666430e+00,1.685137449865503788e+09,-4.123070971285819897e-01,-2.067207353767851752e-01,0.000000000000000000e+00,-4.134414707535703504e-01,0.000000000000000000e+00,-4.565604581515514959e-01,-4.030419362563875674e-01
3.583333333333333481e+00,1.685137449881505013e+09,-4.177967405319367722e-01,-2.067207353767851752e-01,0.000000000000000000e+00,-4.134414707535703504e-01,0.000000000000000000e+00,-4.632507077736005008e-01,-3.997970322239516316e-01
3.600000000000000089e+00,1.685137449898526907e+09,-4.228455514131583826e-01,-2.067207353767851752e-01,0.000000000000000000e+00,-4.134414707535703504e-01,0.000000000000000000e+00,-4.698873238495396287e-01,-3.966057617376255728e-01
3.616666666666666696e+00,1.685137449916501045e+09,-4.274169161946616557e-01,-2.067207353767851752e-01,0.000000000000000000e+00,-4.134414707535703504e-01,0.000000000000000000e+00,-4.764711928639119298e-01,-3.934672383128663409e-01
3.633333333333333304e+00,1.685137449934504509e+09,-4.314765491587939650e-01,-1.906958721692821324e-01,0.000000000000000000e+00,-3.813917443385642647e-01,0.000000000000000000e+00,-4.830009732868575378e-01,-3.901157224260754508e-01
3.649999999999999911e+00,1.685137449952524185e+09,-4.349928529243305975e-01,-1.586461457542766296e-01,0.000000000000000000e+00,-3.172922915085532591e-01,0.000000000000000000e+00,-4.894709313005322082e-01,-3.862898668416386849e-01
3.666666666666666519e+00,1.685137449969524384e+09,-4.379372636965202514e-01,1.633640945897663066e-01,5.799210278580749778e-01,-2.531928386785423091e-01,0.000000000000000000e+00,-4.958331772684784755e-01,-3.772048859638629792e-01
3.683333333333333126e+00,1.685137449989504099e+09,-4.402845777259629112e-01,2.714457211921810220e-01,6.358356489878774775e-01,-9.294420660351540575e-02,0.000000000000000000e+00,-5.020303334223578107e-01,-3.664836344567806159e-01
3.699999999999999734e+00,1.685137450004523516e+09,-4.420132555196493174e-01,3.167245797581993427e-01,6.302441868748970277e-01,3.204972641501691987e-03,0.000000000000000000e+00,-5.080440289371889184e-01,-3.551911959459795320e-01
3.716666666666666785e+00,1.685137450021523714e+09,-4.431057004911408415e-01,3.957345982228243630e-01,6.600653181441250572e-01,1.314038783015236689e-01,0.000000000000000000e+00,-5.138601639575742785e-01,-3.427794842885470428e-01
3.733333333333333393e+00,1.685137450039509773e+09,-4.435485089153012317e-01,4.715841111895078819e-01,7.476648912474822550e-01,1.955033311315334810e-01,0.000000000000000000e+00,-5.194606750562319464e-01,-3.293192380033975186e-01
3.750000000000000000e+00,1.685137450054504156e+09,-4.433326882650098777e-01,4.494006499583131919e-01,6.712482423700856238e-01,2.275530575465407879e-01,0.000000000000000000e+00,-5.248417718434711388e-01,-3.164481303835197101e-01
3.766666666666666607e+00,1.685137450072523832e+09,-4.424538412514023022e-01,4.356043818965876779e-01,6.116059798316296758e-01,2.596027839615456800e-01,0.000000000000000000e+00,-5.300120334816145196e-01,-3.040177957137665810e-01
3.783333333333333215e+00,1.685137450091524124e+09,-4.409123131634670734e-01,5.599132331757665781e-01,7.961242295599777474e-01,3.237022367915554644e-01,0.000000000000000000e+00,-5.349596701587236991e-01,-2.897382718170612992e-01
3.799999999999999822e+00,1.685137450106525660e+09,-4.387133004051441687e-01,6.579462073736460637e-01,9.601404515407316875e-01,3.557519632065603843e-01,0.000000000000000000e+00,-5.396577467025416297e-01,-2.740744251503492435e-01
3.816666666666666430e+00,1.685137450127480268e+09,-4.358669184558245369e-01,6.935411879765803755e-01,9.992806863315931709e-01,3.878016896215676357e-01,0.000000000000000000e+00,-5.440920062370834254e-01,-2.580811458161978433e-01
3.833333333333333481e+00,1.685137450142477751e+09,-4.323882278306332427e-01,7.011788580146125494e-01,9.825062999926525986e-01,4.198514160365725556e-01,0.000000000000000000e+00,-5.482608651969811397e-01,-2.422259725560565458e-01
3.850000000000000089e+00,1.685137450158524513e+09,-4.282972169868991541e-01,7.164541980906767860e-01,9.489575273147711210e-01,4.839508688665823399e-01,0.000000000000000000e+00,-5.521655513560586037e-01,-2.263803830954678464e-01
3.866666666666666696e+00,1.685137450176479816e+09,-4.236187415095902797e-01,6.907254826715537588e-01,8.334006436465128953e-01,5.480503216965945112e-01,0.000000000000000000e+00,-5.558118866211939624e-01,-2.112219564524732973e-01
3.883333333333333304e+00,1.685137450194525242e+09,-4.183824193075814657e-01,8.543569559623204190e-01,1.064514410983029347e+00,6.441995009416116025e-01,0.000000000000000000e+00,-5.591850742709926214e-01,-1.936094862033026498e-01
3.899999999999999911e+00,1.685137450209477663e+09,-4.126224819607983707e-01,1.044649055024373885e+00,1.413048882692131247e+00,6.762492273566165224e-01,0.000000000000000000e+00,-5.622408701534780118e-01,-1.731428727370777354e-01
3.916666666666666519e+00,1.685137450229477406e+09,-4.063775827716721856e-01,1.067379677917745129e+00,1.394410675648864117e+00,7.403486801866263622e-01,0.000000000000000000e+00,-5.649552431054145618e-01,-1.526388384865121628e-01
3.933333333333333126e+00,1.685137450245503426e+09,-3.996905624890043640e-01,1.087132182533902203e+00,1.401865958466171014e+00,7.723984066016336136e-01,0.000000000000000000e+00,-5.673279859548230331e-01,-1.321472259282052975e-01
3.949999999999999734e+00,1.685137450263504028e+09,-3.926081740842172763e-01,1.096816060496986323e+00,1.357134261562329192e+00,8.364978594316434535e-01,0.000000000000000000e+00,-5.693606946979548056e-01,-1.118342495101237732e-01
3.966666666666666785e+00,1.685137450279524326e+09,-3.851807683651081726e-01,1.083019792435260698e+00,1.297491999023873133e+00,8.685475858466483734e-01,0.000000000000000000e+00,-5.710595650199856710e-01,-9.208504931417194062e-02
3.983333333333333393e+00,1.685137450297492981e+09,-3.774619426064489969e-01,1.133525338672809024e+00,1.366453365083962312e+00,9.005973122616556248e-01,0.000000000000000000e+00,-5.724250339235554819e-01,-7.182749143272196268e-02
4.000000000000000000e+00,1.685137450315478325e+09,-3.695081547562230617e-01,1.098295132511326155e+00,1.263943226345991544e+00,9.326470386766605447e-01,0.000000000000000000e+00,-5.734605408600909060e-01,-5.248706562099779427e-02
4.016666666666666607e+00,1.685137450332531452e+09,-3.613783061369982286e-01,1.170234616848630838e+00,1.375772468605596321e+00,9.646967650916654646e-01,0.000000000000000000e+00,-5.741664423582218957e-01,-3.227725384205624992e-02
4.033333333333333215e+00,1.685137450348502874e+09,-3.531332959001493577e-01,1.269381888619400156e+00,1.509967559317122676e+00,1.028796217921677636e+00,0.000000000000000000e+00,-5.745246107786756706e-01,-1.076272061127916957e-02
4.049999999999999822e+00,1.685137450366524935e+09,-3.448355508027904914e-01,1.387734503344148607e+00,1.746672788766619577e+00,1.028796217921677636e+00,0.000000000000000000e+00,-5.745108283211477485e-01,1.235240532026207066e-02
4.066666666666666430e+00,1.685137450382523537e+09,-3.365485341599422919e-01,1.488563208598518095e+00,1.916280472860353523e+00,1.060845944336682445e+00,0.000000000000000000e+00,-5.741010599264079195e-01,3.675202373549754653e-02
4.083333333333333037e+00,1.685137450400524139e+09,-3.283362380745404319e-01,1.468993091203087076e+00,1.877140238069491929e+00,1.060845944336682445e+00,0.000000000000000000e+00,-5.732907043465973462e-01,6.042488634240504586e-02
4.099999999999999645e+00,1.685137450418503761e+09,-3.202626632624935299e-01,1.414192767646172744e+00,1.735489864540658678e+00,1.092895670751687476e+00,0.000000000000000000e+00,-5.720966398123004115e-01,8.280070126887764670e-02
4.116666666666666252e+00,1.685137450435527563e+09,-3.123912909665965132e-01,1.444196286136126384e+00,1.763447175105560261e+00,1.124945397166692285e+00,0.000000000000000000e+00,-5.705285914870067421e-01,1.053025910458527392e-01
4.133333333333332860e+00,1.685137450450479984e+09,-3.047845515894850865e-01,1.468425955292373963e+00,1.811906513418055198e+00,1.124945397166692285e+00,0.000000000000000000e+00,-5.685852730236802266e-01,1.278330385040657435e-01
4.150000000000000355e+00,1.685137450468511581e+09,-2.975032947701426456e-01,1.519863411882085957e+00,1.882731700182472157e+00,1.156995123581699536e+00,0.000000000000000000e+00,-5.662624544521918102e-01,1.508412767972787116e-01
4.166666666666666963e+00,1.685137450487504959e+09,-2.906062656792661736e-01,1.616964475727801442e+00,2.044884101458898762e+00,1.189044849996704567e+00,0.000000000000000000e+00,-5.635459315044476503e-01,1.750741617783312387e-01
4.183333333333333570e+00,1.685137450505502462e+09,-2.841495923150790803e-01,1.571483255692521341e+00,1.921871934973333307e+00,1.221094576411709376e+00,0.000000000000000000e+00,-5.604351560873227500e-01,1.981547739560817201e-01
4.200000000000000178e+00,1.685137450521502018e+09,-2.781862885422438092e-01,1.552095525517815711e+00,1.851046748208917236e+00,1.253144302826714185e+00,0.000000000000000000e+00,-5.569455695492049330e-01,2.205334461765941501e-01
4.216666666666666785e+00,1.685137450537525892e+09,-2.727657775322727685e-01,1.550414092034215097e+00,1.815634154826708535e+00,1.285194029241721658e+00,0.000000000000000000e+00,-5.530863283345504033e-01,2.425144398291765035e-01
4.233333333333333393e+00,1.685137450553524494e+09,-2.679334401344604655e-01,1.479771292490523749e+00,1.642298829324321030e+00,1.317243755656726467e+00,0.000000000000000000e+00,-5.488735304702190287e-01,2.629644968396872007e-01
4.250000000000000000e+00,1.685137450570525169e+09,-2.637301925325978846e-01,1.429448133473701699e+00,1.541652511290676930e+00,1.317243755656726467e+00,0.000000000000000000e+00,-5.443296735542906273e-01,2.822447754816538312e-01
4.266666666666666607e+00,1.685137450587525606e+09,-2.601920973257151881e-01,1.446222519812642604e+00,1.575201283968558519e+00,1.317243755656726467e+00,0.000000000000000000e+00,-5.394648247760913673e-01,3.014836353669986257e-01
4.283333333333333215e+00,1.685137450604526281e+09,-2.573500119123912633e-01,1.409878016078270901e+00,1.502512276499814892e+00,1.317243755656726467e+00,0.000000000000000000e+00,-5.342870055350540381e-01,3.198037830605991449e-01
4.299999999999999822e+00,1.685137450624525309e+09,-2.552292777598328954e-01,1.276614835718908436e+00,1.235985915781090183e+00,1.317243755656726467e+00,0.000000000000000000e+00,-5.288247872640297054e-01,3.356184787182233120e-01
4.316666666666666430e+00,1.685137450643506527e+09,-2.538494538032864400e-01,1.239338421632373510e+00,1.161433087608020553e+00,1.317243755656726467e+00,0.000000000000000000e+00,-5.231063237026137847e-01,3.505556555173469646e-01
4.333333333333333037e+00,1.685137450659506559e+09,-2.532240968512914359e-01,1.180628069446080897e+00,1.044012383235435104e+00,1.317243755656726467e+00,0.000000000000000000e+00,-5.171490794279972603e-01,3.642755457334984626e-01
4.349999999999999645e+00,1.685137450677525520e+09,-2.533605914709396445e-01,1.124531061095553452e+00,9.638680929493851357e-01,1.285194029241721658e+00,0.000000000000000000e+00,-5.109728134613115147e-01,3.768414641184053004e-01
4.366666666666666252e+00,1.685137450692524910e+09,-2.542600313982154581e-01,6.864048477938362869e-02,-1.019714154022932417e+00,1.156995123581699536e+00,0.000000000000000000e+00,-5.047346912657211249e-01,3.717473500024713329e-01
4.383333333333332860e+00,1.685137450711525440e+09,-2.559171540654082144e-01,-1.199152419639004791e-01,-1.268626701849478566e+00,1.028796217921677636e+00,0.000000000000000000e+00,-4.986068107815411210e-01,3.636208821522263213e-01
4.400000000000000355e+00,1.685137450726509571e+09,-2.583203293647386434e-01,-2.177655487364938136e-01,-1.336128409734643308e+00,9.005973122616556248e-01,0.000000000000000000e+00,-4.926267641296001032e-01,3.540114096880104255e-01
4.416666666666666963e+00,1.685137450744527102e+09,-2.614516032788906097e-01,-2.574024248733569609e-01,-1.319252982763352344e+00,8.044481330166385336e-01,0.000000000000000000e+00,-4.868110227520407451e-01,3.439056278958951274e-01
4.433333333333333570e+00,1.685137450762523890e+09,-2.652867965097578384e-01,-2.815417948955701299e-01,-1.303432269977766733e+00,7.403486801866263622e-01,0.000000000000000000e+00,-4.811656493972253923e-01,3.335678912928202178e-01
4.450000000000000178e+00,1.685137450778525352e+09,-2.697956577310133275e-01,-3.963865848884727261e-01,-1.469022397133562086e+00,6.762492273566165224e-01,0.000000000000000000e+00,-4.757070062188214488e-01,3.215028050329417630e-01
4.466666666666666785e+00,1.685137450794479609e+09,-2.749420705828631850e-01,-7.227015691153702015e-01,-2.057552912757344643e+00,6.121497745266043511e-01,0.000000000000000000e+00,-4.704928521641243422e-01,3.042436248263218346e-01
4.483333333333333393e+00,1.685137450811503410e+09,-2.806843130234846218e-01,-7.948304345871917143e-01,-2.137711190870978051e+00,5.480503216965945112e-01,0.000000000000000000e+00,-4.655739297411781163e-01,2.860775284935890839e-01
4.500000000000000000e+00,1.685137450830504179e+09,-2.869753671559457930e-01,-8.031490918238195498e-01,-2.090249052514221439e+00,4.839508688665823399e-01,0.000000000000000000e+00,-4.609564154572425854e-01,2.680741960125898604e-01
4.516666666666666607e+00,1.685137450846523285e+09,-2.937632771667756382e-01,-7.648561744674782226e-01,-1.981613491386533976e+00,4.519011424515774755e-01,0.000000000000000000e+00,-4.566311810485392808e-01,2.510013586960952447e-01
4.533333333333333215e+00,1.685137450865524292e+09,-3.009915525474890496e-01,-7.170708294397855065e-01,-1.853993074916143513e+00,4.198514160365725556e-01,0.000000000000000000e+00,-4.525815356839364978e-01,2.350005328408293626e-01
4.549999999999999822e+00,1.685137450883504868e+09,-3.085996133279780840e-01,-7.107425443255515063e-01,-1.841336504687675513e+00,4.198514160365725556e-01,0.000000000000000000e+00,-4.487954866423061184e-01,2.193687747271064470e-01
4.566666666666666430e+00,1.685137450902525902e+09,-3.165232736350920839e-01,-5.963060551764826078e-01,-1.612463526389537716e+00,4.198514160365725556e-01,0.000000000000000000e+00,-4.452520018113588773e-01,2.058868556432178198e-01
4.583333333333333037e+00,1.685137450917523861e+09,-3.246952595053428370e-01,-5.330232040341404964e-01,-1.485897824104853493e+00,4.198514160365725556e-01,0.000000000000000000e+00,-4.419226128434426970e-01,1.936737466080659942e-01
4.599999999999999645e+00,1.685137450934525967e+09,-3.330457565312587298e-01,-5.615004870481944410e-01,-1.542852390132961382e+00,4.198514160365725556e-01,0.000000000000000000e+00,-4.387990221086043863e-01,1.811918144224244354e-01
4.616666666666666252e+00,1.685137450951525211e+09,-3.415029826103332944e-01,-6.311116233047708857e-01,-1.682074662646114271e+00,4.198514160365725556e-01,0.000000000000000000e+00,-4.358913542910322070e-01,1.677656195497727321e-01
4.633333333333332860e+00,1.685137450969506979e+09,-3.499937807969173975e-01,-6.490417644617676451e-01,-1.717934944960108012e+00,4.198514160365725556e-01,0.000000000000000000e+00,-4.332080784753123415e-01,1.542649809930234095e-01
4.650000000000000355e+00,1.685137450985524893e+09,-3.584442270338619174e-01,-6.727728336401460618e-01,-1.765397083316864624e+00,4.198514160365725556e-01,0.000000000000000000e+00,-4.307512263343871162e-01,1.405952482914291091e-01
4.666666666666666963e+00,1.685137451003503561e+09,-3.667802473646438743e-01,-4.752180742422436599e-01,-1.338237838106055122e+00,3.878016896215676357e-01,0.000000000000000000e+00,-4.284930286395781107e-01,1.304167493592493510e-01
4.683333333333333570e+00,1.685137451021525145e+09,-3.749282391003018744e-01,-4.568456701652928720e-01,-1.205343850707136344e+00,2.916525103765505444e-01,0.000000000000000000e+00,-4.264005291286690480e-01,1.207101553455854070e-01
4.700000000000000178e+00,1.685137451037525415e+09,-3.828156903402510358e-01,-6.156652492869003623e-01,-1.426833829705334233e+00,1.955033311315334810e-01,0.000000000000000000e+00,-4.244904017445605970e-01,1.085389404733619334e-01
4.716666666666666785e+00,1.685137451053525209e+09,-3.903717922232198823e-01,-6.585853242298981280e-01,-1.480624253176324734e+00,1.634536047165285888e-01,0.000000000000000000e+00,-4.227873749895516009e-01,9.585949164785464993e-02
4.733333333333333393e+00,1.685137451073527813e+09,-3.975280383146758689e-01,-6.659683235298380355e-01,-1.495390251776204549e+00,1.634536047165285888e-01,0.000000000000000000e+00,-4.212949408333831469e-01,8.326758543285558978e-02
4.750000000000000000e+00,1.685137451090525150e+09,-4.042188056203564472e-01,-6.287301203592023935e-01,-1.388864119019928456e+00,1.314038783015236689e-01,0.000000000000000000e+00,-4.200054892212258806e-01,7.149929848137830113e-02
4.766666666666666607e+00,1.685137451107526302e+09,-4.103819118515102393e-01,-5.931930447161445352e-01,-1.349839694148817770e+00,1.634536047165285888e-01,0.000000000000000000e+00,-4.189056418846410224e-01,6.051290039952436639e-02
4.783333333333333215e+00,1.685137451125527382e+09,-4.159591437552137561e-01,-5.805364744876760907e-01,-1.324526553691880659e+00,1.634536047165285888e-01,0.000000000000000000e+00,-4.179856356041735665e-01,4.991728621092895307e-02
4.799999999999999822e+00,1.685137451141527176e+09,-4.208967515613602495e-01,-4.616769781738675471e-01,-1.118857287479268603e+00,1.955033311315334810e-01,0.000000000000000000e+00,-4.172243424890590413e-01,4.146137679291664324e-02
4.816666666666666430e+00,1.685137451157505035e+09,-4.251459048845151467e-01,-3.979858261876904613e-01,-1.055574436336926603e+00,2.596027839615456800e-01,0.000000000000000000e+00,-4.165940162094576293e-01,3.419795341018703333e-02
4.833333333333333037e+00,1.685137451175524712e+09,-4.286631057515879473e-01,-2.832600924438056778e-01,-9.543218745091790467e-01,3.878016896215676357e-01,0.000000000000000000e+00,-4.160678977829836422e-01,2.895083344298293032e-02
4.849999999999999645e+00,1.685137451191503525e+09,-4.314105548021585079e-01,7.026579300289523822e-01,8.893152647763150620e-01,5.160005952815897023e-01,0.000000000000000000e+00,-4.154923311319263513e-01,4.008623229240819430e-02
4.866666666666666252e+00,1.685137451209525585e+09,-4.333564671240529576e-01,8.480159707179020234e-01,1.019782714079187524e+00,6.762492273566165224e-01,0.000000000000000000e+00,-4.147126356017812321e-01,5.344013627422809776e-02
4.883333333333332860e+00,1.685137451227526188e+09,-4.344753346386985293e-01,9.559152100995915724e-01,1.107382287182544722e+00,8.044481330166385336e-01,0.000000000000000000e+00,-4.136973163563715805e-01,6.835673719714499552e-02
4.900000000000000355e+00,1.685137451242525101e+09,-4.347481324347043929e-01,1.002308366238498616e+00,1.071969693800336465e+00,9.326470386766605447e-01,0.000000000000000000e+00,-4.124290395380676988e-01,8.379359981614940833e-02
4.916666666666666963e+00,1.685137451260505438e+09,-4.341624669596412800e-01,1.099774204525665766e+00,1.170752191129654118e+00,1.028796217921677636e+00,0.000000000000000000e+00,-4.108921517930643197e-01,1.005862821465738077e-01
4.933333333333333570e+00,1.685137451277504206e+09,-4.327126645143570816e-01,1.197807178723545363e+00,1.334768413110408058e+00,1.060845944336682445e+00,0.000000000000000000e+00,-4.090641650595712719e-01,1.187217483918065059e-01
4.950000000000000178e+00,1.685137451295480013e+09,-4.303997990463315215e-01,1.207308669465904094e+00,1.321721668180120712e+00,1.092895670751687476e+00,0.000000000000000000e+00,-4.069351130843288922e-01,1.367145075743291804e-01
4.966666666666666785e+00,1.685137451315477133e+09,-4.272316588033869267e-01,1.104798530727932881e+00,1.116701390704178509e+00,1.092895670751687476e+00,0.000000000000000000e+00,-4.045228257097660540e-01,1.527155290452318903e-01
4.983333333333333393e+00,1.685137451327480316e+09,-4.232226519811180254e-01,1.069568324566449791e+00,1.014191251966207075e+00,1.124945397166692285e+00,0.000000000000000000e+00,-4.018509307267449926e-01,1.678697728049849958e-01
5.000000000000000000e+00,1.685137451348503113e+09,-4.183936520712173146e-01,1.091184649886933755e+00,1.025374176192167752e+00,1.156995123581699536e+00,0.000000000000000000e+00,-3.989255724684651616e-01,1.831308253781540607e-01
5.016666666666666607e+00,1.685137451363505363e+09,-4.100336704552742795e-01,1.135166823659337521e+00,1.081288797321970474e+00,1.189044849996704567e+00,0.000000000000000000e+00,-3.957418963583748117e-01,1.988665963290526528e-01
5.033333333333333215e+00,1.685137451382503033e+09,-4.010253265097343256e-01,1.153237894791891760e+00,1.053331486757069113e+00,1.253144302826714185e+00,0.000000000000000000e+00,-3.922956348462764420e-01,2.146409663968191772e-01
5.049999999999999822e+00,1.685137451397504568e+09,-3.914199815003089888e-01,1.105710466831559824e+00,9.582766308364050190e-01,1.253144302826714185e+00,0.000000000000000000e+00,-3.885952104423113784e-01,2.293690497733801292e-01
5.066666666666666430e+00,1.685137451414503574e+09,-3.812728710843023006e-01,1.100301391939305651e+00,9.154087546368896433e-01,1.285194029241721658e+00,0.000000000000000000e+00,-3.846520993364182517e-01,2.437642951998087726e-01
5.083333333333333037e+00,1.685137451430503368e+09,-3.706425552754660790e-01,1.071594558242966011e+00,8.259453608292057769e-01,1.317243755656726467e+00,0.000000000000000000e+00,-3.804750207540931184e-01,2.574471259215330710e-01
5.099999999999999645e+00,1.685137451448501110e+09,-3.595903458364571592e-01,1.168513234867956996e+00,1.019782714079187524e+00,1.317243755656726467e+00,0.000000000000000000e+00,-3.760583984165041249e-01,2.725057241650767348e-01
5.116666666666666252e+00,1.685137451466524363e+09,-3.481797164936918931e-01,1.179878546314642618e+00,1.010463610557553737e+00,1.349293482071731276e+00,0.000000000000000000e+00,-3.713913095601379943e-01,2.875032777472879553e-01
5.133333333333332860e+00,1.685137451483523846e+09,-3.364757014786581291e-01,1.117440552719696445e+00,8.855876233676616138e-01,1.349293482071731276e+00,0.000000000000000000e+00,-3.664849569138158847e-01,3.012209343129607642e-01
5.150000000000000355e+00,1.685137451501526833e+09,-3.245442879577139506e-01,1.115759119236094943e+00,8.501750299854536896e-01,1.381343208486736307e+00,0.000000000000000000e+00,-3.613521035880671861e-01,3.146840663078136480e-01
5.166666666666666963e+00,1.685137451519526482e+09,-3.124518079188263187e-01,1.117440552719696445e+00,8.855876233676616138e-01,1.349293482071731276e+00,0.000000000000000000e+00,-3.559964920231480368e-01,3.279524639548894727e-01
5.183333333333333570e+00,1.685137451537525892e+09,-3.002643350388651267e-01,1.090415152506958751e+00,8.315368229421858937e-01,1.349293482071731276e+00,0.000000000000000000e+00,-3.504253058969101220e-01,3.405548637037675852e-01
5.200000000000000178e+00,1.685137451554502726e+09,-2.880470919598002166e-01,1.110167657123114715e+00,8.389921057594930121e-01,1.381343208486736307e+00,0.000000000000000000e+00,-3.446430921988056228e-01,3.532754442910483461e-01
5.216666666666666785e+00,1.685137451568528652e+09,-2.758638732575654506e-01,1.094325181136337255e+00,8.073071537859383140e-01,1.381343208486736307e+00,0.000000000000000000e+00,-3.386528139678726124e-01,3.655239190790542936e-01
5.233333333333333393e+00,1.685137451585526705e+09,-2.637764891952958934e-01,1.058912587754128998e+00,7.364819670215216885e-01,1.381343208486736307e+00,0.000000000000000000e+00,-3.324649774609900188e-01,3.769846257014071722e-01
5.250000000000000000e+00,1.685137451604525328e+09,-2.518442351150461667e-01,3.158179430022320378e-01,-7.497073224822722315e-01,1.381343208486736307e+00,0.000000000000000000e+00,-3.261903487387013967e-01,3.759736293624890702e-01
5.266666666666666607e+00,1.685137451618525743e+09,-2.401233910416595285e-01,1.046797753176005097e+00,7.122522978652742198e-01,1.381343208486736307e+00,0.000000000000000000e+00,-3.198314670199568499e-01,3.870613768633446306e-01
5.283333333333333215e+00,1.685137451636527300e+09,-2.286667557520136729e-01,2.549677269022372350e-01,-8.393580282672569171e-01,1.349293482071731276e+00,0.000000000000000000e+00,-3.133986889130779829e-01,3.848780608715030582e-01
5.299999999999999822e+00,1.685137451653503418e+09,-2.175232192056526515e-01,2.133065165668618368e-01,-9.226804489380077134e-01,1.349293482071731276e+00,0.000000000000000000e+00,-3.070077521125282316e-01,3.820422326804009949e-01
5.316666666666666430e+00,1.685137451670525789e+09,-2.067373768425649350e-01,1.835703689451851361e-01,-9.501030177663561949e-01,1.317243755656726467e+00,0.000000000000000000e+00,-3.006677946007057511e-01,3.787617813176649140e-01
5.333333333333333037e+00,1.685137451687525511e+09,-1.963491888342920322e-01,1.264116524951604259e-01,-1.032370724251400862e+00,1.285194029241721658e+00,0.000000000000000000e+00,-2.943899529711197505e-01,3.745908005629982607e-01
5.349999999999999645e+00,1.685137451707525492e+09,-1.863936869299389343e-01,1.367629087366790432e-02,-1.193741994664373696e+00,1.221094576411709376e+00,0.000000000000000000e+00,-2.881966226539006692e-01,3.686254084270069731e-01
5.366666666666666252e+00,1.685137451723529339e+09,-1.769007310732533811e-01,-1.083473479972575926e-01,-1.405739545991219641e+00,1.189044849996704567e+00,0.000000000000000000e+00,-2.821187455618968665e-01,3.607417422017155650e-01
5.383333333333332860e+00,1.685137451741525412e+09,-1.678948174852848696e-01,-1.797447059543095804e-01,-1.516484535490318697e+00,1.156995123581699536e+00,0.000000000000000000e+00,-2.761810354497747366e-01,3.518082869903549348e-01
5.400000000000000355e+00,1.685137451758527517e+09,-1.593949394138862163e-01,-3.306539286831242097e-01,-1.722153801702930975e+00,1.060845944336682445e+00,0.000000000000000000e+00,-2.704118260216932801e-01,3.405281787508880886e-01
5.416666666666666963e+00,1.685137451773524761e+09,-1.514145012511334820e-01,-4.098425867839508574e-01,-1.784381938659567179e+00,9.646967650916654646e-01,0.000000000000000000e+00,-2.648399979603942023e-01,3.281256409098565197e-01
5.433333333333333570e+00,1.685137451791525364e+09,-1.439612862173876850e-01,-5.067572356198566386e-01,-1.914111783501369013e+00,9.005973122616556248e-01,0.000000000000000000e+00,-2.594865517180520720e-01,3.143262407405167380e-01
5.450000000000000178e+00,1.685137451810480595e+09,-1.370374773109700184e-01,-5.546276748204482798e-01,-1.945753209072540013e+00,8.364978594316434535e-01,0.000000000000000000e+00,-2.543678013874436927e-01,2.999636958295675560e-01
5.466666666666666785e+00,1.685137451828477621e+09,-1.306397307298505783e-01,-5.526033406219359456e-01,-1.845555361430498253e+00,7.403486801866263622e-01,0.000000000000000000e+00,-2.494861634414319851e-01,2.858720022065235900e-01
5.483333333333333393e+00,1.685137451844480038e+09,-1.247593004910196174e-01,-4.728533633521361801e-01,-1.621955954060888772e+00,6.762492273566165224e-01,0.000000000000000000e+00,-2.448264255973963133e-01,2.733313749732856346e-01
5.500000000000000000e+00,1.685137451863479614e+09,-1.193822125087174307e-01,-4.737890212888241637e-01,-1.559727817104252567e+00,6.121497745266043511e-01,0.000000000000000000e+00,-2.403740953230981692e-01,2.609825610108404415e-01
5.516666666666666607e+00,1.685137451877476215e+09,-1.144894859486416672e-01,-5.715542338885185591e-01,-1.723208515888636549e+00,5.801000481115994312e-01,0.000000000000000000e+00,-2.361393763704408844e-01,2.472219381600411769e-01
5.533333333333333215e+00,1.685137451897480011e+09,-1.100573992557357939e-01,-5.900117321383684388e-01,-1.760123512388336309e+00,5.801000481115994312e-01,0.000000000000000000e+00,-2.321346498667372915e-01,2.333836827873647934e-01
5.549999999999999822e+00,1.685137451914501429e+09,-1.060577978618451739e-01,-4.462473962114568149e-01,-1.440545114119508252e+00,5.480503216965945112e-01,0.000000000000000000e+00,-2.283387928040288561e-01,2.221503691211320908e-01
5.566666666666666430e+00,1.685137451930524588e+09,-1.024584402199512634e-01,-3.708353319334990461e-01,-1.289720985563592714e+00,5.480503216965945112e-01,0.000000000000000000e+00,-2.247181901329224352e-01,2.123491775844673635e-01
5.583333333333333037e+00,1.685137451951511145e+09,-9.922337848694554041e-02,-3.887654730904959166e-01,-1.325581267877586455e+00,5.480503216965945112e-01,0.000000000000000000e+00,-2.212620634286714405e-01,2.024136263287081017e-01
5.599999999999999645e+00,1.685137451967503071e+09,-9.631336988975811031e-02,-4.008946862261115740e-01,-1.349839694148817770e+00,5.480503216965945112e-01,0.000000000000000000e+00,-2.179718322350231718e-01,1.924418170312913179e-01
5.616666666666666252e+00,1.685137451982475996e+09,-9.368631456256967804e-02,-3.798004025119973703e-01,-1.307651126720589252e+00,5.480503216965945112e-01,0.000000000000000000e+00,-2.148435069987306989e-01,1.829834850864655305e-01
5.633333333333332860e+00,1.685137451998526812e+09,-9.129771543771648956e-02,-2.836172611908615582e-01,-1.147334570493322436e+00,5.801000481115994312e-01,0.000000000000000000e+00,-2.118582293751857526e-01,1.752712531097395665e-01
5.650000000000000355e+00,1.685137452018526077e+09,-8.910115561144081597e-02,-1.856478981692489538e-01,-1.015495297280109455e+00,6.441995009416116025e-01,0.000000000000000000e+00,-2.089868921566196691e-01,1.693057842550193259e-01
5.666666666666666963e+00,1.685137452037528992e+09,-8.704878848889154030e-02,-1.597223064465614628e-01,-1.059793293079749343e+00,7.403486801866263622e-01,0.000000000000000000e+00,-2.062105746097659120e-01,1.638674282673895644e-01
5.683333333333333570e+00,1.685137452053528309e+09,-8.509183594158623021e-02,-1.001649170303080677e-01,-1.100927146322271843e+00,9.005973122616556248e-01,0.000000000000000000e+00,-2.035159190845864663e-01,1.595033574583716585e-01
5.700000000000000178e+00,1.685137452069528341e+09,-8.318108968505240342e-02,-7.013952481381548199e-02,-1.201124993964313381e+00,1.060845944336682445e+00,0.000000000000000000e+00,-2.008892481830982235e-01,1.557076944766531690e-01
5.716666666666666785e+00,1.685137452086526155e+09,-8.126741110455099060e-02,-6.975729920492376723e-03,-1.138896857007676955e+00,1.124945397166692285e+00,0.000000000000000000e+00,-1.983165898575727504e-01,1.530187739857861440e-01
5.733333333333333393e+00,1.685137452104503393e+09,-7.930222482194859701e-02,4.332734432244677442e-02,-1.070340434936805973e+00,1.156995123581699536e+00,0.000000000000000000e+00,-1.957814275928076164e-01,1.512057341263951249e-01
5.750000000000000000e+00,1.685137452122506857e+09,-7.723800140600017849e-02,-1.723617066543695620e-01,-1.501718536890438660e+00,1.156995123581699536e+00,0.000000000000000000e+00,-1.933060233204058342e-01,1.458576347430871889e-01
5.766666666666666607e+00,1.685137452141479492e+09,-7.502872478007135970e-02,-2.145502740825978027e-01,-1.586095671746895253e+00,1.156995123581699536e+00,0.000000000000000000e+00,-1.909248424615545559e-01,1.399006159828592721e-01
5.783333333333333215e+00,1.685137452156507492e+09,-7.263034007382636326e-02,-9.727284904734792570e-02,-1.383590548091400363e+00,1.189044849996704567e+00,0.000000000000000000e+00,-1.886259240458396103e-01,1.359804834163551857e-01
5.799999999999999822e+00,1.685137452174479485e+09,-7.000117789648273303e-02,-1.342307128374443763e-02,-1.215890992564193418e+00,1.189044849996704567e+00,0.000000000000000000e+00,-1.863802183490902709e-01,1.335110598648767688e-01
5.816666666666666430e+00,1.685137452190504313e+09,-6.710235127625077678e-02,-6.331784468284848422e-02,-1.347730265777406400e+00,1.221094576411709376e+00,0.000000000000000000e+00,-1.841822201245170709e-01,1.302577642289227677e-01
5.833333333333333037e+00,1.685137452208504200e+09,-6.389812181076212627e-02,-1.693166203462716235e-01,-1.559727817104252567e+00,1.221094576411709376e+00,0.000000000000000000e+00,-1.820526347508448772e-01,1.253062351828126975e-01
5.849999999999999645e+00,1.685137452226524591e+09,-6.035623190332389115e-02,-2.059084101750352502e-01,-1.600861670346775067e+00,1.189044849996704567e+00,0.000000000000000000e+00,-1.800099450298813797e-01,1.198317386255986217e-01
5.866666666666666252e+00,1.685137452242523670e+09,-5.644820031645402664e-02,-1.587694784892145217e-01,-1.538633533390138419e+00,1.221094576411709376e+00,0.000000000000000000e+00,-1.780512299252432762e-01,1.152268655461402835e-01
5.883333333333332860e+00,1.685137452257507324e+09,-5.214957865352545102e-02,-1.450581940750403365e-01,-1.511210964561790160e+00,1.221094576411709376e+00,0.000000000000000000e+00,-1.761667328684505540e-01,1.109247319214302363e-01
5.900000000000000355e+00,1.685137452277502537e+09,-4.744016677771294155e-02,-7.471555030369422812e-02,-1.402575403434102697e+00,1.253144302826714185e+00,0.000000000000000000e+00,-1.743436280648368031e-01,1.078563679460882441e-01
5.916666666666666963e+00,1.685137452293503523e+09,-4.230418559080136726e-02,3.010945492500545148e-02,-1.257024845806715696e+00,1.317243755656726467e+00,0.000000000000000000e+00,-1.725567603748219270e-01,1.065713245048234697e-01
5.933333333333333570e+00,1.685137452309505939e+09,-3.673040601855093179e-02,5.562674580385926215e-02,-1.238039990464012918e+00,1.349293482071731276e+00,0.000000000000000000e+00,-1.707876081237049148e-01,1.057292846837707828e-01
5.950000000000000178e+00,1.685137452327521086e+09,-3.071223348020706706e-02,2.152968886892541178e-01,-9.827991575232328803e-01,1.413392934901741116e+00,0.000000000000000000e+00,-1.690103198468390910e-01,1.075402778850591962e-01
5.966666666666666785e+00,1.685137452343525648e+09,-2.424774755299288764e-02,1.563988024378141217e+00,1.586384208194519418e+00,1.541591840561763238e+00,0.000000000000000000e+00,-1.670168165926170234e-01,1.316132417038061442e-01
5.983333333333333393e+00,1.685137452362526417e+09,-1.733969697394409371e-02,1.752781077177319125e+00,1.867821134547857920e+00,1.637741019806780329e+00,0.000000000000000000e+00,-1.645993460538686115e-01,1.584087891180130381e-01
6.000000000000000000e+00,1.685137452383478165e+09,-9.995450547086934256e-03,2.217601981437581138e+00,2.669264037408359602e+00,1.765939925466802229e+00,0.000000000000000000e+00,-1.616747827773671320e-01,1.924442588654712294e-01
6.016666666666666607e+00,1.685137452399477243e+09,-2.226904939530309491e-03,2.203805713375855291e+00,2.609621774869903543e+00,1.797989651881807038e+00,0.000000000000000000e+00,-1.581895682152342220e-01,2.256891395262692335e-01
6.033333333333333215e+00,1.685137452417477131e+09,5.949649248164309845e-03,2.366505276314458950e+00,2.838871721502094214e+00,1.894138831126824352e+00,0.000000000000000000e+00,-1.541323919634443040e-01,2.610737178797202795e-01
6.049999999999999822e+00,1.685137452435511112e+09,1.451370136797157373e-02,2.596119997388100398e+00,3.234001710819364828e+00,1.958238283956836412e+00,0.000000000000000000e+00,-1.494586455748690978e-01,2.996686381142800726e-01
6.066666666666666430e+00,1.685137452446511507e+09,2.344073243449294047e-02,2.872897371980622339e+00,3.787556460004408265e+00,1.958238283956836412e+00,0.000000000000000000e+00,-1.441087526362757887e-01,3.422003680420304672e-01
6.083333333333333037e+00,1.685137452464524269e+09,3.270246218861963539e-02,3.026662580087579268e+00,4.095086876218322125e+00,1.958238283956836412e+00,0.000000000000000000e+00,-1.380346339087115681e-01,3.865706256492592585e-01
6.099999999999999645e+00,1.685137452482527018e+09,4.226712873350285671e-02,3.049393202980950512e+00,4.076448669175054107e+00,2.022337736786846030e+00,0.000000000000000000e+00,-1.312239997648377565e-01,4.305832115550679573e-01
6.116666666666666252e+00,1.685137452502476692e+09,5.209979768119907262e-02,3.038392665975714557e+00,4.022397868749578720e+00,2.054387463201851283e+00,0.000000000000000000e+00,-1.236874209625202503e-01,4.736865105190123382e-01
6.133333333333332860e+00,1.685137452519523859e+09,6.216269750073043221e-02,3.132697998764941705e+00,4.178958807913025097e+00,2.086437189616858312e+00,0.000000000000000000e+00,-1.154253817936767151e-01,5.176361046629178730e-01
6.150000000000000355e+00,1.685137452535525799e+09,7.241557754561710192e-02,3.301556159727237372e+00,4.484625403422612067e+00,2.118486916031863121e+00,0.000000000000000000e+00,-1.064135969555266847e-01,5.636502558202217683e-01
6.166666666666666963e+00,1.685137452551524162e+09,8.281608506273122061e-02,3.322240574695557669e+00,4.493944506944246520e+00,2.150536642446868374e+00,0.000000000000000000e+00,-9.663840815388949346e-02,6.092457432635105530e-01
6.183333333333333570e+00,1.685137452572525024e+09,9.332015734621687542e-02,3.327082513677099396e+00,4.471578658492324720e+00,2.182586368861873183e+00,0.000000000000000000e+00,-8.610892346197920877e-02,6.541676337995518953e-01
6.200000000000000178e+00,1.685137452587523937e+09,1.038824251009143884e-01,2.857582083407484763e+00,3.500528071538089314e+00,2.214636095276880212e+00,0.000000000000000000e+00,-7.490179286209983078e-02,6.905868712564638967e-01
6.216666666666666785e+00,1.685137452606528044e+09,1.144566230200490253e-01,2.895040884714745300e+00,3.543395947737604690e+00,2.246685821691885465e+00,0.000000000000000000e+00,-6.308753138619418999e-02,7.270232911924706665e-01
6.233333333333333393e+00,1.685137452621524811e+09,1.249960035618850329e-01,2.933249209153443005e+00,3.619812596615000988e+00,2.246685821691885465e+00,0.000000000000000000e+00,-5.066575150835439523e-02,7.634889981338549569e-01
6.250000000000000000e+00,1.685137452637526274e+09,1.354537499295501712e-01,2.805577490907061211e+00,3.364469160122236513e+00,2.246685821691885465e+00,0.000000000000000000e+00,-3.765888059122497744e-02,7.972417520651765566e-01
6.266666666666666607e+00,1.685137452656525612e+09,1.457833843166295995e-01,2.446792005324161856e+00,2.646898188956438247e+00,2.246685821691885465e+00,0.000000000000000000e+00,-2.414368135274717886e-02,8.245064195821014685e-01
6.283333333333333215e+00,1.685137452675479412e+09,1.559391675774577657e-01,2.254818472778507221e+00,2.262951123865128533e+00,2.246685821691885465e+00,0.000000000000000000e+00,-1.020435227857348880e-02,8.481473983875695843e-01
6.299999999999999822e+00,1.685137452689527512e+09,1.658764866140130800e-01,2.170014630731639915e+00,2.093343439771394809e+00,2.246685821691885465e+00,0.000000000000000000e+00,4.114014656257703600e-03,8.699959419649323511e-01
6.316666666666666430e+00,1.685137452708525419e+09,1.755522259391962825e-01,2.119691471714817421e+00,1.992697121737750265e+00,2.246685821691885465e+00,0.000000000000000000e+00,1.878655559247103396e-02,8.906515922239659488e-01
6.333333333333333037e+00,1.685137452727478981e+09,1.849251200770645198e-01,2.075891685163139044e+00,1.905097548634392624e+00,2.246685821691885465e+00,0.000000000000000000e+00,3.379445474924121923e-02,9.102418878199147745e-01
6.349999999999999645e+00,1.685137452742524385e+09,1.939560836920112830e-01,2.362213620227705257e-01,-1.742193371231339327e+00,2.214636095276880212e+00,0.000000000000000000e+00,4.887205682823320130e-02,8.991013084413023160e-01
6.366666666666666252e+00,1.685137452759525537e+09,2.026085165982460801e-01,1.308689997012180695e-01,-1.888798643044432124e+00,2.150536642446868374e+00,0.000000000000000000e+00,6.375097000577926998e-02,8.864035452587765151e-01
6.383333333333332860e+00,1.685137452775505066e+09,2.108485810854468512e-01,7.066519694309394972e-02,-1.913057069315663217e+00,2.054387463201851283e+00,0.000000000000000000e+00,7.841169223905958274e-02,8.729205763078811131e-01
6.400000000000000355e+00,1.685137452793504953e+09,2.186454493030421109e-01,-1.146073309940538187e-01,-2.091303766699927014e+00,1.862089104711819321e+00,0.000000000000000000e+00,9.282397066355307924e-02,8.565981757001533969e-01
6.416666666666666963e+00,1.685137452809504747e+09,2.259715187708792594e-01,-3.165511354805761735e-01,-2.334942743597944848e+00,1.701840472636792390e+00,0.000000000000000000e+00,1.069385709569943138e-01,8.372077231487025095e-01
6.433333333333333570e+00,1.685137452826503038e+09,2.328025944247647250e-01,-5.242958679884807127e-01,-2.590183576538724441e+00,1.541591840561763238e+00,0.000000000000000000e+00,1.207039814541137485e-01,8.147040481851084426e-01
6.450000000000000178e+00,1.685137452843524218e+09,2.391180359578049253e-01,-7.431150994462945025e-01,-2.867573407379325090e+00,1.381343208486736307e+00,0.000000000000000000e+00,1.340672154992211540e-01,7.889555624825628222e-01
6.466666666666666785e+00,1.685137452861479759e+09,2.449008695791122514e-01,-9.575113237393679810e-01,-3.168166950305450147e+00,1.253144302826714185e+00,0.000000000000000000e+00,1.469752519961688986e-01,7.600890039232922613e-01
6.483333333333333393e+00,1.685137452879523754e+09,2.501378636765283492e-01,-9.051499532217965882e-01,-2.839096124365271034e+00,1.028796217921677636e+00,0.000000000000000000e+00,1.594133984258899461e-01,7.325650249398746316e-01
6.500000000000000000e+00,1.685137452896504164e+09,2.548195682358842529e-01,-8.843109520263796597e-01,-2.508970584239385460e+00,7.403486801866263622e-01,0.000000000000000000e+00,1.713994917915080685e-01,7.058404157071501706e-01
6.516666666666666607e+00,1.685137452914509535e+09,2.589403182322448926e-01,-8.310139235721217821e-01,-2.242127895255843217e+00,5.801000481115994312e-01,0.000000000000000000e+00,1.829512276317732666e-01,6.804384478073496334e-01
6.533333333333333215e+00,1.685137452930503845e+09,2.624982015650314526e-01,-9.942565098584686956e-01,-2.440414162168515144e+00,4.519011424515774755e-01,0.000000000000000000e+00,1.940605587253850794e-01,6.527581748827633312e-01
6.549999999999999822e+00,1.685137452947475672e+09,2.654949924553181018e-01,-1.101190943458578486e+00,-2.590183576538724441e+00,3.878016896215676357e-01,0.000000000000000000e+00,2.046976053127024242e-01,6.237679459044697117e-01
6.566666666666666430e+00,1.685137452965502739e+09,2.679360515565386569e-01,-1.059733883545121325e+00,-2.475219730296803089e+00,3.557519632065603843e-01,0.000000000000000000e+00,2.148612116317411003e-01,5.959421081930122988e-01
6.583333333333333037e+00,1.685137452982525110e+09,2.698301943462810826e-01,-1.073002905039340593e+00,-2.405608594040226755e+00,2.596027839615456800e-01,0.000000000000000000e+00,2.245630645836415029e-01,5.683568734904562714e-01
6.599999999999999645e+00,1.685137452999503851e+09,2.711895296634501129e-01,-1.267682766474941936e+00,-2.698819137666412349e+00,1.634536047165285888e-01,0.000000000000000000e+00,2.337820844306128520e-01,5.380098075355692622e-01
6.616666666666666252e+00,1.685137453016525030e+09,2.720292705294394264e-01,-1.210081787104962059e+00,-2.519517726096442534e+00,9.935415188651879059e-02,0.000000000000000000e+00,2.425074672729065628e-01,5.091163949081928264e-01
6.633333333333332860e+00,1.685137453034529209e+09,2.723675196411542432e-01,-1.251215640347484337e+00,-2.601785432581487534e+00,9.935415188651879059e-02,0.000000000000000000e+00,2.507496025823119368e-01,4.800206655929960542e-01
6.649999999999999467e+00,1.685137453051501274e+09,2.722250321458160038e-01,-1.196047296019853157e+00,-2.459399017511217700e+00,6.730442547151148369e-02,0.000000000000000000e+00,2.585184476656942620e-01,4.523176989092828615e-01
6.666666666666666963e+00,1.685137453068501711e+09,2.716249585002278311e-01,-1.097108312985433987e+00,-2.229471325027374551e+00,3.525469905650659153e-02,0.000000000000000000e+00,2.658430684869671490e-01,4.267079395382527562e-01
6.683333333333333570e+00,1.685137453084525347e+09,2.705925703791133841e-01,-1.187694676707105934e+00,-2.346544599640707496e+00,-2.884475377350440711e-02,0.000000000000000000e+00,2.727318853843751500e-01,4.000242113623929674e-01
6.700000000000000178e+00,1.685137453103531361e+09,2.691549727268456871e-01,-1.295564768243903542e+00,-2.434085877054280367e+00,-1.570436594335263836e-01,0.000000000000000000e+00,2.791647599778350752e-01,3.719985906315346202e-01
6.716666666666666785e+00,1.685137453120527983e+09,2.673408051433313615e-01,-1.312321138966176415e+00,-2.403499165668815163e+00,-2.211431122635373892e-01,0.000000000000000000e+00,2.851320974068816128e-01,3.441592342197185017e-01
6.733333333333333393e+00,1.685137453138524532e+09,2.651799358574865040e-01,-1.276869157496016927e+00,-2.268495749898485681e+00,-2.852425650935483947e-01,0.000000000000000000e+00,2.906441873935666775e-01,3.173659916080998067e-01
6.750000000000000000e+00,1.685137453154525518e+09,2.627031515701744868e-01,-1.344251809132163356e+00,-2.339161600340767588e+00,-3.493420179235594003e-01,0.000000000000000000e+00,2.957041171072973262e-01,2.899018650754997539e-01
6.766666666666666607e+00,1.685137453173502684e+09,2.599418464428659981e-01,-1.498971587759965640e+00,-2.616551431181367349e+00,-3.813917443385642647e-01,0.000000000000000000e+00,3.002887347646536753e-01,2.603343876221439479e-01
6.783333333333333215e+00,1.685137453190526009e+09,2.569277134689452735e-01,-1.499703095274736331e+00,-2.585964719795902145e+00,-4.134414707535703504e-01,0.000000000000000000e+00,3.043845439696770128e-01,2.312435268292083457e-01
6.799999999999999822e+00,1.685137453208503485e+09,2.536924413923014043e-01,-1.391799041661818226e+00,-2.338106886155061570e+00,-4.454911971685752703e-01,0.000000000000000000e+00,3.080144273007523470e-01,2.044169928037693762e-01
6.816666666666666430e+00,1.685137453225525379e+09,2.502674202336516163e-01,-1.460559614154606445e+00,-2.443578304725631867e+00,-4.775409235835813559e-01,0.000000000000000000e+00,3.111914097810867252e-01,1.768973500875249127e-01
6.833333333333333037e+00,1.685137453241503954e+09,2.466834583503757505e-01,-1.440520044626198315e+00,-2.403499165668815163e+00,-4.775409235835813559e-01,0.000000000000000000e+00,3.139163004516096200e-01,1.501637920065654053e-01
6.849999999999999645e+00,1.685137453259504795e+09,2.429705137921307490e-01,-1.373545693833886139e+00,-2.269550464084191255e+00,-4.775409235835813559e-01,0.000000000000000000e+00,3.162085748039142885e-01,1.249790894236959687e-01
6.866666666666666252e+00,1.685137453278506994e+09,2.391574425241933255e-01,-1.345595767912685092e+00,-2.213650612241788718e+00,-4.775409235835813559e-01,0.000000000000000000e+00,3.180884430945727370e-01,1.006726250011594215e-01
6.883333333333332860e+00,1.685137453294504642e+09,2.352717658754911179e-01,-1.274402560377550175e+00,-2.071264197171518884e+00,-4.775409235835813559e-01,0.000000000000000000e+00,3.195763941071979586e-01,7.794463131557501090e-02
6.899999999999999467e+00,1.685137453309506178e+09,2.313394593312040615e-01,-1.342958982448420713e+00,-2.208377041313260403e+00,-4.775409235835813559e-01,0.000000000000000000e+00,3.206792153796678146e-01,5.445916033563147352e-02
6.916666666666666963e+00,1.685137453327507257e+09,2.273847645331894540e-01,-1.315740564041989469e+00,-2.121890478085392662e+00,-5.095906499985862759e-01,0.000000000000000000e+00,3.213976153823071003e-01,3.181175093229235418e-02
6.933333333333333570e+00,1.685137453346524239e+09,2.234300260782536574e-01,-1.368153066656339067e+00,-2.194665756899085718e+00,-5.416403764135924170e-01,0.000000000000000000e+00,3.217344473920311643e-01,8.672367811629291823e-03
6.950000000000000178e+00,1.685137453362475395e+09,2.194955544174193030e-01,-1.351804996777900669e+00,-2.161969617142209366e+00,-5.416403764135924170e-01,0.000000000000000000e+00,3.216910770431222200e-01,-1.381434511909342133e-02
6.966666666666666785e+00,1.685137453380524158e+09,2.155995158619000984e-01,-1.444296638449066750e+00,-2.314903174069536274e+00,-5.736901028285972259e-01,0.000000000000000000e+00,3.212632590296797819e-01,-3.745813774646877814e-02
6.983333333333333393e+00,1.685137453395479679e+09,2.117578503967562364e-01,-1.483321063320177879e+00,-2.392952023811758533e+00,-5.736901028285972259e-01,0.000000000000000000e+00,3.204392534251810920e-01,-6.135614986397307236e-02
7.000000000000000000e+00,1.685137453415479898e+09,2.079842176943395016e-01,-1.464217151728456345e+00,-2.290644747798304959e+00,-6.377895556586082870e-01,0.000000000000000000e+00,3.192228870658834761e-01,-8.454340270014970571e-02
7.016666666666666607e+00,1.685137453431505203e+09,2.042899714099724873e-01,-1.372337961323041977e+00,-2.042786914157464828e+00,-7.018890084886192371e-01,0.000000000000000000e+00,3.176359595272049141e-01,-1.058287745168551980e-01
7.033333333333333215e+00,1.685137453448480368e+09,2.006841615350045960e-01,-1.364631755352166298e+00,-1.995324775800707995e+00,-7.339387349036241570e-01,0.000000000000000000e+00,3.156982801227712354e-01,-1.266349577016243066e-01
7.049999999999999822e+00,1.685137453466527224e+09,1.971735642807596611e-01,-1.429700828194984563e+00,-2.093413195071338606e+00,-7.659884613186302982e-01,0.000000000000000000e+00,3.134077173861859467e-01,-1.481727421016220958e-01
7.066666666666666430e+00,1.685137453482511520e+09,1.937627386739022850e-01,-1.478217680737446971e+00,-2.190446900156263421e+00,-7.659884613186302982e-01,0.000000000000000000e+00,3.107544652139137553e-01,-1.701564512749740299e-01
7.083333333333333037e+00,1.685137453501502514e+09,1.904541087625207241e-01,-1.429173471102131554e+00,-2.092358480885632588e+00,-7.659884613186302982e-01,0.000000000000000000e+00,3.077446283003391070e-01,-1.909661722131015815e-01
7.099999999999999645e+00,1.685137453517501831e+09,1.872480700655475283e-01,-1.378547190188257776e+00,-1.991105919057885254e+00,-7.659884613186302982e-01,0.000000000000000000e+00,3.043978294806826135e-01,-2.105951598965827287e-01
7.116666666666666252e+00,1.685137453534503222e+09,1.841431186486746641e-01,-1.644862522078947897e+00,-2.523736582839265274e+00,-7.659884613186302982e-01,0.000000000000000000e+00,3.006898084253502024e-01,-2.343015142092327585e-01
7.133333333333332860e+00,1.685137453551507473e+09,1.811360009802116533e-01,-1.713418944149818435e+00,-2.660849426981007237e+00,-7.659884613186302982e-01,0.000000000000000000e+00,2.965804867510692944e-01,-2.587491749374488115e-01
7.149999999999999467e+00,1.685137453567501545e+09,1.782218825125734818e-01,-1.607947525579248138e+00,-2.449906589839866200e+00,-7.659884613186302982e-01,0.000000000000000000e+00,2.920816485527100714e-01,-2.810494621654103797e-01
7.166666666666666963e+00,1.685137453584525585e+09,1.753945327512956009e-01,-1.315791696138768563e+00,-1.865594930958906827e+00,-7.659884613186302982e-01,0.000000000000000000e+00,2.872545717362902651e-01,-2.981522469513033791e-01
7.183333333333333570e+00,1.685137453603524923e+09,1.726465244154233858e-01,-1.321592624160149887e+00,-1.877196787001669476e+00,-7.659884613186302982e-01,0.000000000000000000e+00,2.821440095248678448e-01,-3.150682284758834495e-01
7.200000000000000178e+00,1.685137453622524261e+09,1.699694441622656982e-01,-1.541704682301705764e+00,-2.285371176869776200e+00,-7.980381877336351071e-01,0.000000000000000000e+00,2.767234487445444646e-01,-3.353427457339218098e-01
7.216666666666666785e+00,1.685137453636525154e+09,1.673541122469711373e-01,-1.507222320844353591e+00,-2.248456180370076662e+00,-7.659884613186302982e-01,0.000000000000000000e+00,2.709725423906640396e-01,-3.547122113941139077e-01
7.233333333333333393e+00,1.685137453654525518e+09,1.647908084140790319e-01,-1.405969759016605813e+00,-2.045951056714581551e+00,-7.659884613186302982e-01,0.000000000000000000e+00,2.649154719837372718e-01,-3.720879703041305997e-01
7.250000000000000000e+00,1.685137453673525810e+09,1.622695012746868393e-01,-1.280458770917627387e+00,-1.794929080516624476e+00,-7.659884613186302982e-01,0.000000000000000000e+00,2.585885411837701708e-01,-3.871020190194572885e-01
7.266666666666666607e+00,1.685137453691504717e+09,1.597800784093214854e-01,-1.331085051831501165e+00,-1.896181642344372031e+00,-7.659884613186302982e-01,0.000000000000000000e+00,2.520064574592668638e-01,-4.027046861588123305e-01
7.283333333333333215e+00,1.685137453708502054e+09,1.573125744530036174e-01,-1.280254620495709927e+00,-1.826570506087795476e+00,-7.339387349036241570e-01,0.000000000000000000e+00,2.451735050551505646e-01,-4.172093107629578634e-01
7.299999999999999822e+00,1.685137453725504398e+09,1.548573944649117573e-01,-1.121758248045038986e+00,-1.637776666846474605e+00,-6.057398292436033671e-01,0.000000000000000000e+00,2.381227038916675642e-01,-4.288544804002255018e-01
7.316666666666666430e+00,1.685137453740477562e+09,1.524055299597982527e-01,-7.881793207672206369e-01,-1.098817717950860029e+00,-4.775409235835813559e-01,0.000000000000000000e+00,2.309254990920862338e-01,-4.347935976134311709e-01
7.333333333333333037e+00,1.685137453757525682e+09,1.499487650808866146e-01,-5.860313658587811281e-01,-8.868201666240138614e-01,-2.852425650935483947e-01,0.000000000000000000e+00,2.236580500958490481e-01,-4.372933380481736632e-01
7.349999999999999645e+00,1.685137453775479317e+09,1.474798705230979112e-01,-4.895589799428287092e-01,-8.541240268671371760e-01,-1.249939330185202979e-01,0.000000000000000000e+00,2.163626088385086077e-01,-4.381572131232137068e-01
7.366666666666666252e+00,1.685137453792525768e+09,1.449927829695440706e-01,-4.560462384982830741e-01,-9.152974496380678060e-01,3.204972641501691987e-03,0.000000000000000000e+00,2.090575177786774541e-01,-4.384528927050206359e-01
7.383333333333332860e+00,1.685137453809524775e+09,1.424827679815425796e-01,-3.772658812412912344e-01,-7.897864615390891574e-01,3.525469905650659153e-02,0.000000000000000000e+00,2.017584207474810432e-01,-4.374415603611790937e-01
7.399999999999999467e+00,1.685137453829489708e+09,1.399465644807719178e-01,3.310680094821001895e-01,5.948315934926888815e-01,6.730442547151148369e-02,0.000000000000000000e+00,1.945738750000456097e-01,-4.247392144557086691e-01
7.416666666666666963e+00,1.685137453846480131e+09,1.373825091795528031e-01,3.096340713823425572e-01,5.519637172931736169e-01,6.730442547151148369e-02,0.000000000000000000e+00,1.875963200971215439e-01,-4.126010916964122366e-01
7.433333333333333570e+00,1.685137453864526510e+09,1.347906395489406606e-01,3.375913819472438626e-01,6.078783384229762277e-01,6.730442547151148369e-02,0.000000000000000000e+00,1.808232521942987614e-01,-4.002015007611354203e-01
7.450000000000000178e+00,1.685137453880479813e+09,1.321727741619352914e-01,3.340461277593166911e-01,5.687381036321146333e-01,9.935415188651879059e-02,0.000000000000000000e+00,1.742546418304328215e-01,-3.880654549346141957e-01
7.466666666666666785e+00,1.685137453899525166e+09,1.295325695078600459e-01,3.577086610048511583e-01,5.519637172931736169e-01,1.634536047165285888e-01,0.000000000000000000e+00,1.678898909412026019e-01,-3.757388930286364448e-01
7.483333333333333393e+00,1.685137453914503098e+09,1.268755526409531542e-01,3.979631933686014755e-01,6.004230556056693313e-01,1.955033311315334810e-01,0.000000000000000000e+00,1.617344401756202477e-01,-3.629507223735773946e-01
7.500000000000000000e+00,1.685137453931504011e+09,1.242091292986804152e-01,-1.953616462831774259e-01,-5.862266236978883605e-01,1.955033311315334810e-01,0.000000000000000000e+00,1.557084089562056906e-01,-3.601807185922157872e-01
7.516666666666666607e+00,1.685137453949480295e+09,1.215425674001236189e-01,4.389672488637898495e-01,6.824311665960461903e-01,1.955033311315334810e-01,0.000000000000000000e+00,1.498157756956856046e-01,-3.469719645172992251e-01
7.533333333333333215e+00,1.685137453965533018e+09,1.188869561092312788e-01,4.540602017191301409e-01,6.805673458917195218e-01,2.275530575465407879e-01,0.000000000000000000e+00,1.441435485828898300e-01,-3.337320673758512601e-01
7.549999999999999822e+00,1.685137453985503197e+09,1.162551409186721868e-01,5.261820732771600451e-01,7.607116361777696012e-01,2.916525103765505444e-01,0.000000000000000000e+00,1.387001192301383634e-01,-3.195189368018137577e-01
7.566666666666666430e+00,1.685137454002524137e+09,1.136616354747269769e-01,5.722104549746156454e-01,7.886689467426708511e-01,3.557519632065603843e-01,0.000000000000000000e+00,1.334979697253142472e-01,-3.047799463807460141e-01
7.583333333333333037e+00,1.685137454019528389e+09,1.111225111192701009e-01,-1.994103146802021220e-01,-7.866223189819718797e-01,3.878016896215676357e-01,0.000000000000000000e+00,1.284328576584087001e-01,-3.030383395585105055e-01
7.599999999999999645e+00,1.685137454036504507e+09,1.086552653686898018e-01,-1.937284429078397485e-01,-8.393580282672569171e-01,4.519011424515774755e-01,0.000000000000000000e+00,1.233973166032347329e-01,-3.012316058851338685e-01
7.616666666666666252e+00,1.685137454052524090e+09,1.062786707791718854e-01,-1.815992297722242577e-01,-8.150996019960259353e-01,4.519011424515774755e-01,0.000000000000000000e+00,1.183933135219643329e-01,-2.992542566334005505e-01
7.633333333333332860e+00,1.685137454072477579e+09,1.040126058605457260e-01,-1.527136459143352276e-01,-8.214278871102601576e-01,5.160005952815897023e-01,0.000000000000000000e+00,1.134259828403463843e-01,-2.968321533836881798e-01
7.649999999999999467e+00,1.685137454088501930e+09,1.018778698949069778e-01,7.337757460917939678e-01,8.874514440719883934e-01,5.801000481115994312e-01,0.000000000000000000e+00,1.086211283612707884e-01,-2.797977031364159983e-01
7.666666666666666963e+00,1.685137454104524136e+09,9.989598368927000982e-02,7.686212035632901118e-01,8.930429061849685102e-01,6.441995009416116025e-01,0.000000000000000000e+00,1.041026414515213855e-01,-2.624688628339451046e-01
7.683333333333333570e+00,1.685137454124530315e+09,9.808897844203132155e-02,7.466201295528192006e-01,7.849413053340171809e-01,7.082989537716214423e-01,0.000000000000000000e+00,9.986753627942376865e-02,-2.457900888359671743e-01
7.700000000000000178e+00,1.685137454141525507e+09,9.647917502939439005e-02,7.563040075159044306e-01,7.402096084301753587e-01,7.723984066016336136e-01,0.000000000000000000e+00,9.590944453542851744e-02,-2.292269303000401826e-01
7.716666666666666785e+00,1.685137454160529613e+09,9.508895611894790934e-02,7.937628088231645229e-01,7.830774846296904013e-01,8.044481330166385336e-01,0.000000000000000000e+00,9.223029155030462722e-02,-2.123183971678635484e-01
7.733333333333333393e+00,1.685137454179527521e+09,9.394053359232393263e-02,9.048425279513311326e-01,9.731871964710190337e-01,8.364978594316434535e-01,0.000000000000000000e+00,8.884595442191547954e-02,-1.938533512402855485e-01
7.750000000000000000e+00,1.685137454196505547e+09,9.305571380662194803e-02,9.937387858483029968e-01,1.086880259434950480e+00,9.005973122616556248e-01,0.000000000000000000e+00,8.577909605312633579e-02,-1.742241797740246845e-01
7.766666666666666607e+00,1.685137454212503433e+09,9.245566324467373309e-02,9.762148763779240346e-01,1.019782714079187524e+00,9.326470386766605447e-01,0.000000000000000000e+00,8.303425894003091390e-02,-1.552090947212971805e-01
7.783333333333333215e+00,1.685137454231486797e+09,9.216067709712159883e-02,1.031744748817739810e+00,1.034693279713801539e+00,1.028796217921677636e+00,0.000000000000000000e+00,8.061138335180134673e-02,-1.355904733194386313e-01
7.799999999999999822e+00,1.685137454247503996e+09,9.218995328494453134e-02,1.013288928995197180e+00,9.657319136537119153e-01,1.060845944336682445e+00,0.000000000000000000e+00,7.851022592611613116e-02,-1.166011670771667924e-01
7.816666666666666430e+00,1.685137454267505169e+09,9.256137436993033818e-02,1.035654777447118091e+00,1.010463610557553737e+00,1.060845944336682445e+00,0.000000000000000000e+00,7.672602330749690724e-02,-9.755605150109560031e-02
7.833333333333333037e+00,1.685137454282524586e+09,9.329129971339883420e-02,1.047769612025242214e+00,1.034693279713801539e+00,1.060845944336682445e+00,0.000000000000000000e+00,7.525828206794275832e-02,-7.862548339445407652e-02
7.849999999999999645e+00,1.685137454299503803e+09,9.439437013140522525e-02,1.036586687799281536e+00,1.012327431261880406e+00,1.060845944336682445e+00,0.000000000000000000e+00,7.410189100624588188e-02,-6.019264753610251151e-02
7.866666666666666252e+00,1.685137454316524506e+09,9.588332715875819146e-02,1.032859046390628199e+00,1.004872148444573732e+00,1.060845944336682445e+00,0.000000000000000000e+00,7.324965305934397208e-02,-4.212609214935680163e-02
7.883333333333332860e+00,1.685137454333523989e+09,9.776884887631501209e-02,1.088024144388992420e+00,1.083152618026297143e+00,1.092895670751687476e+00,0.000000000000000000e+00,7.270364843810445121e-02,-2.344635178830073788e-02
7.899999999999999467e+00,1.685137454351524353e+09,1.000594040776864452e-01,1.140393511330866305e+00,1.155841625495040104e+00,1.124945397166692285e+00,0.000000000000000000e+00,7.247362605091602072e-02,-4.209770878931207161e-03
7.916666666666666963e+00,1.685137454367524624e+09,1.027611263548303677e-01,1.125665332916978345e+00,1.094335542252257376e+00,1.156995123581699536e+00,0.000000000000000000e+00,7.255952211604525803e-02,1.446542193788919600e-02
7.933333333333333570e+00,1.685137454382479668e+09,1.058777094691641107e-01,1.180830430915342566e+00,1.172616011833980787e+00,1.189044849996704567e+00,0.000000000000000000e+00,7.296171139869925271e-02,3.374373983715757419e-02
7.950000000000000178e+00,1.685137454400505781e+09,1.094103251481120948e-01,1.109438108240213161e+00,9.657319136537119153e-01,1.253144302826714185e+00,0.000000000000000000e+00,7.367268250555621123e-02,5.152340386763749891e-02
7.966666666666666785e+00,1.685137454418523788e+09,1.133575642089368896e-01,1.245861794097516961e+00,1.174479832538307678e+00,1.317243755656726467e+00,0.000000000000000000e+00,7.469636851774917596e-02,7.126408109040315020e-02
7.983333333333333393e+00,1.685137454435526848e+09,1.177154016648065682e-01,1.438382488305347762e+00,1.463372041708953741e+00,1.413392934901741116e+00,0.000000000000000000e+00,7.607293027914646677e-02,9.386056080076166097e-02
8.000000000000000000e+00,1.685137454453488111e+09,1.224771862150412505e-01,1.559328472617323991e+00,1.577065104672885409e+00,1.541591840561763238e+00,0.000000000000000000e+00,7.783968411836553192e-02,1.180826148384979818e-01
8.016666666666665719e+00,1.685137454469503403e+09,1.276336542651180517e-01,1.654748102979439972e+00,1.703804912567104202e+00,1.605691293391775298e+00,0.000000000000000000e+00,8.001997270298100151e-02,1.434814613035398367e-01
8.033333333333333215e+00,1.685137454488476992e+09,1.331729683649321150e-01,1.701890782249784850e+00,1.701941091862777089e+00,1.701840472636792390e+00,0.000000000000000000e+00,8.262657866438379017e-02,1.692397017129667891e-01
8.050000000000000711e+00,1.685137454507477045e+09,1.390807796988756395e-01,1.817245304448781296e+00,1.804451230600748302e+00,1.830039378296814512e+00,0.000000000000000000e+00,8.567486371575709636e-02,1.964788384024065138e-01
8.066666666666666430e+00,1.685137454520511150e+09,1.453403140111744207e-01,1.875388520724361019e+00,1.856638210321897464e+00,1.894138831126824352e+00,0.000000000000000000e+00,8.918140286551375084e-02,2.242287745980558744e-01
8.083333333333333925e+00,1.685137454539479733e+09,1.519324801072609032e-01,1.927008364534797735e+00,1.895778445112758614e+00,1.958238283956836412e+00,0.000000000000000000e+00,9.315373787541471329e-02,2.523732456637348687e-01
8.099999999999999645e+00,1.685137454556524277e+09,1.588359998392931405e-01,2.065295871096427316e+00,2.108254005406008158e+00,2.022337736786846030e+00,0.000000000000000000e+00,9.761036041409788810e-02,2.823382209766588380e-01
8.116666666666667140e+00,1.685137454572524309e+09,1.660275582638403025e-01,2.180285618853973872e+00,2.274134048091088989e+00,2.086437189616858312e+00,0.000000000000000000e+00,1.025781428719914345e-01,3.137085321663315440e-01
8.133333333333332860e+00,1.685137454589504957e+09,1.734819724543203157e-01,2.282411008901956695e+00,2.382235648942040651e+00,2.182586368861873183e+00,0.000000000000000000e+00,1.080785365765095096e-01,3.462483219435127380e-01
8.150000000000000355e+00,1.685137454607479572e+09,1.811723772623619333e-01,2.348191895215569591e+00,2.417648242324248464e+00,2.278735548106890274e+00,0.000000000000000000e+00,1.141258513874872371e-01,3.793375387194611870e-01
8.166666666666666075e+00,1.685137454625507116e+09,1.890704261526494623e-01,2.274186228704675905e+00,2.173487730057444445e+00,2.374884727351907365e+00,0.000000000000000000e+00,1.207098611460139248e-01,4.106566327726791088e-01
8.183333333333333570e+00,1.685137454642524958e+09,1.971465050868893010e-01,2.261686645436563836e+00,2.052339384276206324e+00,2.471033906596921792e+00,0.000000000000000000e+00,1.278098035478517080e-01,4.412514677947840802e-01
8.199999999999999289e+00,1.685137454660504341e+09,2.053699573056116390e-01,2.439296774009781288e+00,2.311410462177623693e+00,2.567183085841938883e+00,0.000000000000000000e+00,1.354399656924262507e-01,4.742762518837059238e-01
8.216666666666666785e+00,1.685137454678532124e+09,2.137093167531331217e-01,2.600882039375496557e+00,2.570481540079041949e+00,2.631282538671951166e+00,0.000000000000000000e+00,1.436382977429714047e-01,5.094259538227523532e-01
8.233333333333332504e+00,1.685137454697477579e+09,2.221325478119187680e-01,2.644114690016461822e+00,2.592847388530962860e+00,2.695381991501961227e+00,0.000000000000000000e+00,1.524235745800752162e-01,5.447092551525896109e-01
8.250000000000000000e+00,1.685137454713531017e+09,2.306072889587318098e-01,2.556697504133830012e+00,2.385963290350693988e+00,2.727431717916966036e+00,0.000000000000000000e+00,1.617799589868251786e-01,5.779644958147368561e-01
8.266666666666665719e+00,1.685137454732528448e+09,2.391010979266635639e-01,2.457915006804511915e+00,2.188398295692058237e+00,2.727431717916966036e+00,0.000000000000000000e+00,1.716723602863565179e-01,6.090373446286140302e-01
8.283333333333333215e+00,1.685137454747525454e+09,2.475816959547871288e-01,2.418774772013650765e+00,2.110117826110335049e+00,2.727431717916966036e+00,0.000000000000000000e+00,1.820729445333106877e-01,6.389496732485540065e-01
8.300000000000000711e+00,1.685137454767525911e+09,2.560172087304931066e-01,2.231460791228812024e+00,1.735489864540658678e+00,2.727431717916966036e+00,0.000000000000000000e+00,1.929420641843525297e-01,6.652715667846590408e-01
8.316666666666666430e+00,1.685137454784527302e+09,2.643764016783216042e-01,2.114789609987665742e+00,1.534197228473370256e+00,2.695381991501961227e+00,0.000000000000000000e+00,2.042301317861584531e-01,6.892299926826475076e-01
8.333333333333333925e+00,1.685137454801479340e+09,2.726289073226803583e-01,2.026440513752870043e+00,1.325449309588774049e+00,2.727431717916966036e+00,0.000000000000000000e+00,2.159019945152689801e-01,7.113321385160847887e-01
8.349999999999999645e+00,1.685137454817479610e+09,2.807454425491965888e-01,1.953569119063401693e+00,1.211756246624842603e+00,2.695381991501961227e+00,0.000000000000000000e+00,2.279291085487973878e-01,7.318645098002797278e-01
8.366666666666667140e+00,1.685137454837476015e+09,2.886980137096949450e-01,6.507412070257709846e-01,-1.329800124620409196e+00,2.631282538671951166e+00,0.000000000000000000e+00,2.401156455877446472e-01,7.305236595450953496e-01
8.383333333333332860e+00,1.685137454855525017e+09,2.964601076571994898e-01,6.255471228178519638e-01,-1.316088840206235178e+00,2.567183085841938883e+00,0.000000000000000000e+00,2.522765405018632112e-01,7.287885500112742942e-01
8.400000000000000355e+00,1.685137454872526407e+09,3.040068669586869499e-01,5.642886058740220756e-01,-1.342456694848877863e+00,2.471033906596921792e+00,0.000000000000000000e+00,2.644002955210194572e-01,7.260696050900183884e-01
8.416666666666666075e+00,1.685137454887524605e+09,3.113152477124219164e-01,3.260422561535521457e-01,-1.754849941459807994e+00,2.406934453766912174e+00,0.000000000000000000e+00,2.764462036288158897e-01,7.194577345847811278e-01
8.433333333333333570e+00,1.685137454906505108e+09,3.183641585917350580e-01,2.294508139885813591e-01,-1.851883646544732365e+00,2.310785274521895083e+00,0.000000000000000000e+00,2.883694858715235010e-01,7.113586325752165873e-01
8.449999999999999289e+00,1.685137454924527645e+09,3.251345799458712493e-01,1.034464308728697268e-01,-1.943643780701128865e+00,2.150536642446868374e+00,0.000000000000000000e+00,3.001414979444806397e-01,7.013107276834739112e-01
8.466666666666666785e+00,1.685137454942517281e+09,3.316096620087106150e-01,1.178380907050346343e-01,-1.690512376131759975e+00,1.926188557541829161e+00,0.000000000000000000e+00,3.117494205407830288e-01,6.916667732655887857e-01
8.483333333333332504e+00,1.685137454959525824e+09,3.377748014951623690e-01,-1.191593954570720117e-03,-1.704223660545933994e+00,1.701840472636792390e+00,0.000000000000000000e+00,3.231815021518126829e-01,6.802148317553162737e-01
8.500000000000000000e+00,1.685137454978509903e+09,3.436176961006741082e-01,-3.095424749483511317e-01,-2.096577337628455773e+00,1.477492387731753398e+00,0.000000000000000000e+00,3.343817102413390030e-01,6.638555824166507691e-01
8.516666666666665719e+00,1.685137454994526386e+09,3.491283766585083215e-01,-4.329100725997984123e-01,-2.183063900856323514e+00,1.317243755656726467e+00,0.000000000000000000e+00,3.452944841287578503e-01,6.457276406525686019e-01
8.533333333333333215e+00,1.685137455011502504e+09,3.542992169500617239e-01,-6.033315077641686619e-01,-2.427757591940046478e+00,1.221094576411709376e+00,0.000000000000000000e+00,3.558840908001434933e-01,6.250825088517801831e-01
8.550000000000000711e+00,1.685137455029504299e+09,3.591249214025321046e-01,-5.004629125817424695e-01,-2.061771769500167384e+00,1.060845944336682445e+00,0.000000000000000000e+00,3.661466717191166897e-01,6.064788793897779584e-01
8.566666666666666430e+00,1.685137455045501709e+09,3.636024911433030637e-01,-4.824988093486255458e-01,-1.865594930958906827e+00,9.005973122616556248e-01,0.000000000000000000e+00,3.761042429005426180e-01,5.884796613858749303e-01
8.583333333333333925e+00,1.685137455063524961e+09,3.677311691088123169e-01,-6.684177506276451908e-01,-2.109233907856923995e+00,7.723984066016336136e-01,0.000000000000000000e+00,3.857386339592709379e-01,5.677049744833525535e-01
8.599999999999999645e+00,1.685137455080505133e+09,3.715123651249448433e-01,-7.563673288850535359e-01,-2.221033611541728625e+00,7.082989537716214423e-01,0.000000000000000000e+00,3.950175020067783205e-01,5.458199842877610175e-01
8.616666666666667140e+00,1.685137455097485781e+09,3.749495620838617649e-01,-6.940201356793980203e-01,-2.032239772300407754e+00,6.441995009416116025e-01,0.000000000000000000e+00,4.039432544088932819e-01,5.253272296243227668e-01
8.633333333333332860e+00,1.685137455115524054e+09,3.780482045361587273e-01,-6.601502254877975595e-01,-1.900400499087194550e+00,5.801000481115994312e-01,0.000000000000000000e+00,4.125349694983461157e-01,5.057330107767399330e-01
8.650000000000000355e+00,1.685137455133477449e+09,3.808155711955402700e-01,-7.528460175808804333e-01,-2.021692630443350680e+00,5.160005952815897023e-01,0.000000000000000000e+00,4.207900174479003441e-01,4.849305292008376789e-01
8.666666666666666075e+00,1.685137455148476839e+09,3.832606330136111294e-01,-8.779147427599053310e-01,-2.175680901556383162e+00,4.198514160365725556e-01,0.000000000000000000e+00,4.286839560655972270e-01,4.624046782038090386e-01
8.683333333333333570e+00,1.685137455166532516e+09,3.853938986233815811e-01,-8.939396059674077355e-01,-2.175680901556383162e+00,3.878016896215676357e-01,0.000000000000000000e+00,4.362033617530209351e-01,4.399862790835952220e-01
8.699999999999999289e+00,1.685137455185477257e+09,3.872272490700897629e-01,-8.751589010466231944e-01,-2.106069765299806829e+00,3.557519632065603843e-01,0.000000000000000000e+00,4.433548178959150210e-01,4.182488412565907310e-01
8.716666666666666785e+00,1.685137455203525305e+09,3.887737638456278400e-01,-1.011744388095511926e+00,-2.379240739397584292e+00,3.557519632065603843e-01,0.000000000000000000e+00,4.501281205384946582e-01,3.946131321457525543e-01
8.733333333333332504e+00,1.685137455218525171e+09,3.900475403173690458e-01,-8.980394064612129412e-01,-2.119781049713981513e+00,3.237022367915554644e-01,0.000000000000000000e+00,4.565264642606284284e-01,3.732474649825985868e-01
8.750000000000000000e+00,1.685137455238524199e+09,3.910635086925380866e-01,-9.083823978963531109e-01,-2.172516758999266440e+00,3.557519632065603843e-01,0.000000000000000000e+00,4.625702359875145109e-01,3.520639866241065952e-01
