2022-01-24-13:05:52.892365,9.0,4.0,341.0
2022-01-24-13:05:52.893334,2.0,0.0,342.0
2022-01-24-13:05:52.894325,8.0,3.0,342.0
2022-01-24-13:05:52.894325,2.0,6.0,342.0
2022-01-24-13:05:52.895349,0.0,5.0,342.0
2022-01-24-13:05:52.897318,0.0,5.0,342.0
2022-01-24-13:05:52.897318,2.0,5.0,342.0
2022-01-24-13:05:52.898314,2.0,5.0,342.0
2022-01-24-13:05:52.901355,6.0,7.0,342.0
2022-01-24-13:05:52.901355,9.0,0.0,341.0
2022-01-24-13:05:52.902323,16.0,0.0,341.0
2022-01-24-13:05:52.903302,19.0,3.0,342.0
2022-01-24-13:05:52.904314,11.0,2.0,342.0
2022-01-24-13:05:52.905319,6.0,11.0,342.0
2022-01-24-13:05:52.906317,2.0,7.0,342.0
2022-01-24-13:05:52.907293,2.0,1.0,341.0
2022-01-24-13:05:52.908310,10.0,1.0,342.0
2022-01-24-13:05:52.909305,9.0,2.0,342.0
2022-01-24-13:05:52.910301,5.0,6.0,342.0
2022-01-24-13:05:52.911281,1.0,5.0,342.0
2022-01-24-13:05:52.912300,5.0,7.0,341.0
2022-01-24-13:05:52.913296,9.0,7.0,342.0
2022-01-24-13:05:52.914291,5.0,2.0,341.0
2022-01-24-13:05:52.915301,7.0,0.0,341.0
2022-01-24-13:05:52.916286,14.0,1.0,341.0
2022-01-24-13:05:52.917299,18.0,1.0,342.0
2022-01-24-13:05:52.919288,7.0,2.0,342.0
2022-01-24-13:05:52.919288,2.0,5.0,341.0
2022-01-24-13:05:52.920278,10.0,3.0,341.0
2022-01-24-13:05:52.921276,12.0,2.0,342.0
2022-01-24-13:05:52.922273,16.0,3.0,342.0
2022-01-24-13:05:52.923270,12.0,1.0,341.0
2022-01-24-13:05:52.924268,4.0,4.0,342.0
2022-01-24-13:05:52.925265,2.0,6.0,341.0
2022-01-24-13:05:52.926262,5.0,9.0,341.0
2022-01-24-13:05:52.927281,7.0,6.0,342.0
2022-01-24-13:05:52.928236,10.0,6.0,342.0
2022-01-24-13:05:52.929255,0.0,3.0,341.0
2022-01-24-13:05:52.930253,22.0,3.0,341.0
2022-01-24-13:05:52.931254,4.0,2.0,342.0
2022-01-24-13:05:52.932246,1.0,7.0,342.0
2022-01-24-13:05:52.933243,2.0,7.0,342.0
2022-01-24-13:05:52.934240,7.0,9.0,341.0
2022-01-24-13:05:52.935237,3.0,3.0,342.0
2022-01-24-13:05:52.937257,15.0,1.0,342.0
2022-01-24-13:05:52.938220,10.0,1.0,341.0
2022-01-24-13:05:52.938220,13.0,7.0,341.0
2022-01-24-13:05:52.939228,9.0,12.0,341.0
2022-01-24-13:05:52.940225,6.0,6.0,342.0
2022-01-24-13:05:52.941201,3.0,0.0,341.0
2022-01-24-13:05:52.942219,6.0,1.0,342.0
2022-01-24-13:05:52.943218,14.0,2.0,341.0
2022-01-24-13:05:52.944193,7.0,3.0,342.0
2022-01-24-13:05:52.945211,5.0,6.0,342.0
2022-01-24-13:05:52.946209,5.0,9.0,341.0
2022-01-24-13:05:52.947203,6.0,13.0,342.0
2022-01-24-13:05:52.948200,3.0,4.0,342.0
2022-01-24-13:05:52.949198,11.0,2.0,342.0
2022-01-24-13:05:52.950196,18.0,1.0,341.0
2022-01-24-13:05:52.951192,8.0,3.0,342.0
2022-01-24-13:05:52.952190,7.0,3.0,341.0
2022-01-24-13:05:52.953170,1.0,11.0,342.0
2022-01-24-13:05:52.954184,0.0,1.0,342.0
2022-01-24-13:05:52.955182,10.0,3.0,341.0
2022-01-24-13:05:52.956179,7.0,6.0,341.0
2022-01-24-13:05:52.957190,2.0,4.0,342.0
2022-01-24-13:05:52.958173,1.0,9.0,342.0
2022-01-24-13:05:52.959171,6.0,7.0,341.0
2022-01-24-13:05:52.960168,3.0,5.0,342.0
2022-01-24-13:05:52.961150,29.0,1.0,341.0
2022-01-24-13:05:52.962167,21.0,4.0,342.0
2022-01-24-13:05:52.963163,9.0,3.0,342.0
2022-01-24-13:05:52.964160,2.0,8.0,341.0
2022-01-24-13:05:52.965136,2.0,7.0,342.0
2022-01-24-13:05:52.966152,8.0,4.0,342.0
2022-01-24-13:05:52.967149,10.0,6.0,342.0
2022-01-24-13:05:52.968147,5.0,3.0,341.0
2022-01-24-13:05:52.970170,10.0,4.0,341.0
2022-01-24-13:05:52.971120,2.0,5.0,342.0
2022-01-24-13:05:52.971120,2.0,3.0,341.0
2022-01-24-13:05:52.972137,2.0,10.0,342.0
2022-01-24-13:05:52.973134,3.0,9.0,342.0
2022-01-24-13:05:52.974139,9.0,0.0,342.0
2022-01-24-13:05:52.975142,13.0,6.0,342.0
2022-01-24-13:05:52.976134,3.0,11.0,342.0
2022-01-24-13:05:52.977130,10.0,2.0,341.0
2022-01-24-13:05:52.978127,19.0,0.0,342.0
2022-01-24-13:05:52.979125,5.0,3.0,342.0
2022-01-24-13:05:52.980123,7.0,2.0,342.0
2022-01-24-13:05:52.981119,14.0,4.0,342.0
2022-01-24-13:05:52.982121,9.0,6.0,342.0
2022-01-24-13:05:52.983114,9.0,5.0,341.0
2022-01-24-13:05:52.984113,15.0,0.0,342.0
2022-01-24-13:05:52.985109,2.0,8.0,342.0
2022-01-24-13:05:52.986106,4.0,5.0,342.0
2022-01-24-13:05:52.987104,8.0,2.0,342.0
2022-01-24-13:05:52.988101,6.0,3.0,341.0
2022-01-24-13:05:52.989098,1.0,12.0,342.0
2022-01-24-13:05:52.990095,2.0,1.0,342.0
2022-01-24-13:05:52.991093,13.0,4.0,341.0
2022-01-24-13:05:52.992091,4.0,2.0,341.0
2022-01-24-13:05:52.993088,6.0,7.0,341.0
2022-01-24-13:05:52.994085,7.0,2.0,341.0
2022-01-24-13:05:52.995083,13.0,1.0,341.0
2022-01-24-13:05:52.996080,3.0,8.0,341.0
2022-01-24-13:05:52.997077,1.0,2.0,342.0
2022-01-24-13:05:52.998078,15.0,1.0,342.0
2022-01-24-13:05:52.999072,5.0,8.0,342.0
2022-01-24-13:05:53.000072,3.0,6.0,342.0
2022-01-24-13:05:53.001066,10.0,2.0,341.0
2022-01-24-13:05:53.003082,12.0,1.0,341.0
2022-01-24-13:05:53.004032,5.0,6.0,342.0
2022-01-24-13:05:53.004032,2.0,4.0,342.0
2022-01-24-13:05:53.005055,14.0,1.0,342.0
2022-01-24-13:05:53.006052,1.0,1.0,341.0
2022-01-24-13:05:53.007024,4.0,9.0,341.0
2022-01-24-13:05:53.008072,11.0,7.0,342.0
2022-01-24-13:05:53.009043,6.0,2.0,342.0
2022-01-24-13:05:53.010041,6.0,2.0,342.0
2022-01-24-13:05:53.011014,6.0,2.0,342.0
2022-01-24-13:05:53.012036,8.0,1.0,342.0
2022-01-24-13:05:53.013033,11.0,2.0,342.0
2022-01-24-13:05:53.014034,11.0,2.0,342.0
2022-01-24-13:05:53.015027,11.0,2.0,342.0
2022-01-24-13:05:53.016028,12.0,2.0,342.0
2022-01-24-13:05:53.017023,8.0,5.0,341.0
2022-01-24-13:05:53.018020,8.0,5.0,341.0
2022-01-24-13:05:53.019020,8.0,5.0,341.0
2022-01-24-13:05:53.020014,8.0,5.0,341.0
2022-01-24-13:05:53.021236,1.0,10.0,342.0
2022-01-24-13:05:53.021470,1.0,10.0,342.0
2022-01-24-13:05:53.021708,1.0,10.0,342.0
2022-01-24-13:05:53.021939,1.0,10.0,342.0
2022-01-24-13:05:53.022161,1.0,10.0,342.0
2022-01-24-13:05:53.022365,1.0,10.0,342.0
2022-01-24-13:05:53.022569,1.0,10.0,342.0
2022-01-24-13:05:53.022569,1.0,10.0,342.0
2022-01-24-13:05:53.023568,1.0,10.0,342.0
2022-01-24-13:05:53.024601,4.0,11.0,342.0
2022-01-24-13:05:53.024601,1.0,9.0,341.0
2022-01-24-13:05:53.025724,0.0,6.0,341.0
2022-01-24-13:05:53.025724,0.0,6.0,341.0
2022-01-24-13:05:53.026749,0.0,6.0,341.0
2022-01-24-13:05:53.027745,0.0,6.0,341.0
2022-01-24-13:05:53.028744,1.0,3.0,342.0
2022-01-24-13:05:53.029740,8.0,2.0,341.0
2022-01-24-13:05:53.030715,15.0,3.0,342.0
2022-01-24-13:05:53.031736,17.0,1.0,342.0
2022-01-24-13:05:53.032732,20.0,5.0,342.0
2022-01-24-13:05:53.033942,15.0,1.0,342.0
2022-01-24-13:05:53.034148,8.0,2.0,342.0
2022-01-24-13:05:53.034352,8.0,2.0,342.0
2022-01-24-13:05:53.034447,8.0,2.0,342.0
2022-01-24-13:05:53.034447,8.0,2.0,342.0
2022-01-24-13:05:53.035472,8.0,2.0,342.0
2022-01-24-13:05:53.036470,6.0,3.0,342.0
2022-01-24-13:05:53.037466,0.0,11.0,342.0
2022-01-24-13:05:53.039480,0.0,11.0,342.0
2022-01-24-13:05:53.040067,0.0,11.0,342.0
2022-01-24-13:05:53.040276,8.0,8.0,341.0
2022-01-24-13:05:53.040276,8.0,8.0,341.0
2022-01-24-13:05:53.041322,8.0,8.0,341.0
2022-01-24-13:05:53.042309,8.0,8.0,341.0
2022-01-24-13:05:53.043304,8.0,8.0,341.0
2022-01-24-13:05:53.044269,8.0,8.0,341.0
2022-01-24-13:05:53.045298,2.0,1.0,342.0
2022-01-24-13:05:53.046299,4.0,1.0,342.0
2022-01-24-13:05:53.047293,4.0,1.0,342.0
2022-01-24-13:05:53.048291,4.0,1.0,342.0
2022-01-24-13:05:53.049287,11.0,0.0,342.0
2022-01-24-13:05:53.050285,8.0,6.0,342.0
2022-01-24-13:05:53.051275,8.0,6.0,342.0
2022-01-24-13:05:53.052271,8.0,6.0,342.0
2022-01-24-13:05:53.053269,4.0,4.0,342.0
2022-01-24-13:05:53.054270,5.0,9.0,341.0
2022-01-24-13:05:53.055263,5.0,9.0,341.0
2022-01-24-13:05:53.056261,5.0,9.0,341.0
2022-01-24-13:05:53.057258,4.0,12.0,341.0
2022-01-24-13:05:53.058255,6.0,7.0,342.0
2022-01-24-13:05:53.059253,6.0,7.0,342.0
2022-01-24-13:05:53.060250,6.0,7.0,342.0
2022-01-24-13:05:53.061248,4.0,6.0,341.0
2022-01-24-13:05:53.062249,8.0,3.0,341.0
2022-01-24-13:05:53.063387,8.0,3.0,341.0
2022-01-24-13:05:53.063599,8.0,3.0,341.0
2022-01-24-13:05:53.063696,8.0,3.0,341.0
2022-01-24-13:05:53.063696,8.0,3.0,341.0
2022-01-24-13:05:53.064724,8.0,3.0,341.0
2022-01-24-13:05:53.065719,16.0,3.0,342.0
2022-01-24-13:05:53.066717,14.0,1.0,342.0
2022-01-24-13:05:53.067868,14.0,1.0,342.0
2022-01-24-13:05:53.067868,14.0,1.0,342.0
2022-01-24-13:05:53.068867,14.0,1.0,342.0
2022-01-24-13:05:53.069865,13.0,2.0,342.0
2022-01-24-13:05:53.070862,4.0,4.0,342.0
2022-01-24-13:05:53.071898,2.0,4.0,342.0
2022-01-24-13:05:53.072899,2.0,4.0,342.0
2022-01-24-13:05:53.073983,3.0,9.0,342.0
2022-01-24-13:05:53.074096,0.0,4.0,342.0
2022-01-24-13:05:53.074096,0.0,4.0,342.0
2022-01-24-13:05:53.075131,0.0,4.0,342.0
2022-01-24-13:05:53.076126,0.0,4.0,342.0
2022-01-24-13:05:53.077124,0.0,4.0,342.0
2022-01-24-13:05:53.078157,0.0,4.0,342.0
2022-01-24-13:05:53.079119,4.0,4.0,341.0
2022-01-24-13:05:53.080138,4.0,1.0,342.0
2022-01-24-13:05:53.081137,4.0,1.0,342.0
2022-01-24-13:05:53.082132,8.0,3.0,342.0
2022-01-24-13:05:53.083130,19.0,2.0,341.0
2022-01-24-13:05:53.084127,15.0,2.0,342.0
2022-01-24-13:05:53.085125,15.0,2.0,342.0
2022-01-24-13:05:53.086129,12.0,4.0,342.0
2022-01-24-13:05:53.087123,10.0,5.0,342.0
2022-01-24-13:05:53.088116,10.0,5.0,342.0
2022-01-24-13:05:53.089116,10.0,5.0,342.0
2022-01-24-13:05:53.090111,10.0,12.0,342.0
2022-01-24-13:05:53.091108,0.0,10.0,342.0
2022-01-24-13:05:53.092109,0.0,10.0,342.0
2022-01-24-13:05:53.093103,0.0,10.0,342.0
2022-01-24-13:05:53.094045,7.0,9.0,342.0
2022-01-24-13:05:53.095067,1.0,2.0,342.0
2022-01-24-13:05:53.096087,1.0,2.0,342.0
2022-01-24-13:05:53.097060,1.0,2.0,342.0
2022-01-24-13:05:53.098082,2.0,2.0,342.0
2022-01-24-13:05:53.099080,7.0,0.0,341.0
2022-01-24-13:05:53.100080,10.0,1.0,342.0
2022-01-24-13:05:53.101052,10.0,1.0,342.0
2022-01-24-13:05:53.102071,4.0,4.0,342.0
2022-01-24-13:05:53.103072,5.0,4.0,342.0
2022-01-24-13:05:53.104072,5.0,4.0,342.0
2022-01-24-13:05:53.105065,5.0,4.0,342.0
2022-01-24-13:05:53.106059,6.0,9.0,341.0
2022-01-24-13:05:53.107057,2.0,11.0,341.0
2022-01-24-13:05:53.109052,2.0,11.0,341.0
2022-01-24-13:05:53.109052,6.0,3.0,342.0
2022-01-24-13:05:53.110029,5.0,2.0,342.0
2022-01-24-13:05:53.111050,5.0,2.0,342.0
2022-01-24-13:05:53.112046,5.0,2.0,342.0
2022-01-24-13:05:53.113043,5.0,2.0,342.0
2022-01-24-13:05:53.114038,5.0,2.0,342.0
2022-01-24-13:05:53.115035,7.0,1.0,341.0
2022-01-24-13:05:53.116034,10.0,0.0,341.0
2022-01-24-13:05:53.117031,17.0,3.0,341.0
2022-01-24-13:05:53.118027,17.0,4.0,341.0
2022-01-24-13:05:53.119029,15.0,6.0,342.0
2022-01-24-13:05:53.120022,2.0,7.0,342.0
2022-01-24-13:05:53.121022,2.0,7.0,342.0
2022-01-24-13:05:53.122016,2.0,7.0,342.0
2022-01-24-13:05:53.123014,6.0,7.0,342.0
2022-01-24-13:05:53.123965,0.0,11.0,342.0
2022-01-24-13:05:53.124962,3.0,11.0,342.0
2022-01-24-13:05:53.125959,3.0,11.0,342.0
2022-01-24-13:05:53.126957,3.0,6.0,342.0
2022-01-24-13:05:53.127981,3.0,3.0,342.0
2022-01-24-13:05:53.128979,3.0,1.0,341.0
2022-01-24-13:05:53.129976,3.0,1.0,341.0
2022-01-24-13:05:53.130972,6.0,3.0,342.0
2022-01-24-13:05:53.131970,17.0,0.0,341.0
2022-01-24-13:05:53.132968,16.0,1.0,342.0
2022-01-24-13:05:53.133964,16.0,1.0,342.0
2022-01-24-13:05:53.134961,16.0,1.0,342.0
2022-01-24-13:05:53.135963,8.0,4.0,342.0
2022-01-24-13:05:53.136958,9.0,5.0,341.0
2022-01-24-13:05:53.137952,9.0,5.0,341.0
2022-01-24-13:05:53.138952,2.0,9.0,342.0
2022-01-24-13:05:53.139949,4.0,12.0,341.0
2022-01-24-13:05:53.140946,4.0,12.0,341.0
2022-01-24-13:05:53.142965,4.0,12.0,341.0
2022-01-24-13:05:53.142965,2.0,5.0,342.0
2022-01-24-13:05:53.143960,1.0,3.0,342.0
2022-01-24-13:05:53.144908,1.0,3.0,342.0
2022-01-24-13:05:53.145934,1.0,3.0,342.0
2022-01-24-13:05:53.146931,1.0,3.0,342.0
2022-01-24-13:05:53.147928,6.0,2.0,342.0
2022-01-24-13:05:53.148925,14.0,2.0,342.0
2022-01-24-13:05:53.149922,18.0,1.0,342.0
2022-01-24-13:05:53.150919,18.0,1.0,342.0
2022-01-24-13:05:53.151916,18.0,1.0,342.0
2022-01-24-13:05:53.152915,8.0,2.0,341.0
2022-01-24-13:05:53.153910,8.0,2.0,341.0
2022-01-24-13:05:53.154909,8.0,2.0,341.0
2022-01-24-13:05:53.155906,5.0,4.0,341.0
2022-01-24-13:05:53.156904,5.0,4.0,341.0
2022-01-24-13:05:53.157903,5.0,7.0,341.0
2022-01-24-13:05:53.158897,1.0,9.0,341.0
2022-01-24-13:05:53.159894,4.0,8.0,341.0
2022-01-24-13:05:53.160869,0.0,4.0,342.0
2022-01-24-13:05:53.161897,0.0,4.0,342.0
2022-01-24-13:05:53.162887,0.0,4.0,342.0
2022-01-24-13:05:53.163884,5.0,4.0,341.0
2022-01-24-13:05:53.164881,10.0,5.0,342.0
2022-01-24-13:05:53.165879,15.0,4.0,342.0
2022-01-24-13:05:53.166882,15.0,4.0,342.0
2022-01-24-13:05:53.167873,17.0,0.0,342.0
2022-01-24-13:05:53.168873,6.0,6.0,341.0
2022-01-24-13:05:53.169873,2.0,8.0,342.0
2022-01-24-13:05:53.170867,2.0,8.0,342.0
2022-01-24-13:05:53.171863,3.0,5.0,342.0
2022-01-24-13:05:53.172860,5.0,8.0,341.0
2022-01-24-13:05:53.173832,5.0,8.0,341.0
2022-01-24-13:05:53.175873,4.0,12.0,342.0
2022-01-24-13:05:53.176391,5.0,5.0,342.0
2022-01-24-13:05:53.176391,7.0,0.0,342.0
2022-01-24-13:05:53.177424,7.0,0.0,342.0
2022-01-24-13:05:53.178442,7.0,0.0,342.0
2022-01-24-13:05:53.179440,7.0,0.0,342.0
2022-01-24-13:05:53.180437,2.0,4.0,342.0
2022-01-24-13:05:53.181434,7.0,4.0,341.0
2022-01-24-13:05:53.182431,11.0,1.0,342.0
2022-01-24-13:05:53.183430,11.0,1.0,342.0
2022-01-24-13:05:53.184427,15.0,1.0,342.0
2022-01-24-13:05:53.185575,12.0,0.0,341.0
2022-01-24-13:05:53.185782,11.0,6.0,342.0
2022-01-24-13:05:53.185782,11.0,6.0,342.0
2022-01-24-13:05:53.186837,11.0,6.0,342.0
2022-01-24-13:05:53.187834,11.0,6.0,342.0
2022-01-24-13:05:53.188831,4.0,4.0,342.0
2022-01-24-13:05:53.190234,3.0,8.0,342.0
2022-01-24-13:05:53.190234,1.0,9.0,341.0
2022-01-24-13:05:53.191234,0.0,8.0,342.0
2022-01-24-13:05:53.192285,3.0,13.0,342.0
2022-01-24-13:05:53.193282,3.0,1.0,341.0
2022-01-24-13:05:53.194279,3.0,1.0,341.0
2022-01-24-13:05:53.195292,3.0,1.0,341.0
2022-01-24-13:05:53.196275,5.0,1.0,341.0
2022-01-24-13:05:53.197275,11.0,1.0,341.0
2022-01-24-13:05:53.198269,15.0,3.0,342.0
2022-01-24-13:05:53.199267,15.0,3.0,342.0
2022-01-24-13:05:53.200264,15.0,3.0,342.0
2022-01-24-13:05:53.201261,17.0,0.0,342.0
2022-01-24-13:05:53.202258,8.0,4.0,342.0
2022-01-24-13:05:53.203261,8.0,4.0,342.0
2022-01-24-13:05:53.204253,8.0,4.0,342.0
2022-01-24-13:05:53.205253,6.0,5.0,342.0
2022-01-24-13:05:53.206248,6.0,5.0,342.0
2022-01-24-13:05:53.207221,3.0,6.0,342.0
2022-01-24-13:05:53.209232,3.0,6.0,342.0
2022-01-24-13:05:53.209232,2.0,12.0,341.0
2022-01-24-13:05:53.210229,4.0,6.0,342.0
2022-01-24-13:05:53.211232,2.0,1.0,341.0
2022-01-24-13:05:53.212223,2.0,1.0,341.0
2022-01-24-13:05:53.213224,3.0,2.0,342.0
2022-01-24-13:05:53.214320,11.0,0.0,342.0
2022-01-24-13:05:53.214320,17.0,3.0,341.0
2022-01-24-13:05:53.215374,17.0,3.0,341.0
2022-01-24-13:05:53.216371,17.0,3.0,341.0
2022-01-24-13:05:53.217317,14.0,0.0,342.0
2022-01-24-13:05:53.218346,8.0,5.0,342.0
2022-01-24-13:05:53.219343,8.0,5.0,342.0
2022-01-24-13:05:53.220513,8.0,5.0,342.0
2022-01-24-13:05:53.220513,7.0,3.0,342.0
2022-01-24-13:05:53.221538,7.0,7.0,342.0
2022-01-24-13:05:53.222537,7.0,7.0,342.0
2022-01-24-13:05:53.223532,7.0,7.0,342.0
2022-01-24-13:05:53.224540,7.0,7.0,342.0
2022-01-24-13:05:53.225529,1.0,3.0,342.0
2022-01-24-13:05:53.226531,3.0,1.0,342.0
2022-01-24-13:05:53.227524,3.0,1.0,342.0
2022-01-24-13:05:53.228528,3.0,1.0,342.0
2022-01-24-13:05:53.229522,1.0,1.0,342.0
2022-01-24-13:05:53.230515,10.0,3.0,341.0
2022-01-24-13:05:53.231511,14.0,0.0,342.0
2022-01-24-13:05:53.232508,14.0,0.0,342.0
2022-01-24-13:05:53.233507,10.0,2.0,342.0
2022-01-24-13:05:53.234503,3.0,6.0,342.0
2022-01-24-13:05:53.235504,2.0,5.0,342.0
2022-01-24-13:05:53.236498,2.0,5.0,342.0
2022-01-24-13:05:53.237495,0.0,8.0,341.0
2022-01-24-13:05:53.238494,4.0,5.0,342.0
2022-01-24-13:05:53.239491,4.0,5.0,342.0
2022-01-24-13:05:53.240462,4.0,5.0,342.0
2022-01-24-13:05:53.242483,1.0,10.0,341.0
2022-01-24-13:05:53.242483,7.0,2.0,342.0
2022-01-24-13:05:53.243501,7.0,2.0,342.0
2022-01-24-13:05:53.244634,7.0,2.0,342.0
2022-01-24-13:05:53.244634,5.0,3.0,341.0
2022-01-24-13:05:53.245679,11.0,0.0,342.0
2022-01-24-13:05:53.246677,11.0,0.0,342.0
2022-01-24-13:05:53.247675,11.0,0.0,342.0
2022-01-24-13:05:53.248626,11.0,0.0,342.0
2022-01-24-13:05:53.249669,11.0,5.0,342.0
2022-01-24-13:05:53.250668,12.0,2.0,342.0
2022-01-24-13:05:53.251667,6.0,7.0,342.0
2022-01-24-13:05:53.252640,6.0,7.0,342.0
2022-01-24-13:05:53.253658,6.0,3.0,342.0
2022-01-24-13:05:53.254656,5.0,6.0,342.0
2022-01-24-13:05:53.255653,5.0,9.0,341.0
2022-01-24-13:05:53.256650,5.0,9.0,341.0
2022-01-24-13:05:53.257648,2.0,12.0,342.0
2022-01-24-13:05:53.258645,2.0,3.0,342.0
2022-01-24-13:05:53.259645,5.0,6.0,342.0
2022-01-24-13:05:53.260639,5.0,6.0,342.0
2022-01-24-13:05:53.261638,5.0,6.0,342.0
2022-01-24-13:05:53.262634,4.0,4.0,341.0
2022-01-24-13:05:53.263611,12.0,1.0,341.0
2022-01-24-13:05:53.264630,12.0,1.0,341.0
2022-01-24-13:05:53.265627,12.0,1.0,341.0
2022-01-24-13:05:53.266629,20.0,3.0,342.0
2022-01-24-13:05:53.267624,14.0,3.0,342.0
2022-01-24-13:05:53.268623,14.0,1.0,341.0
2022-01-24-13:05:53.269616,14.0,1.0,341.0
2022-01-24-13:05:53.270613,13.0,1.0,342.0
2022-01-24-13:05:53.271610,4.0,2.0,341.0
2022-01-24-13:05:53.272608,4.0,2.0,341.0
2022-01-24-13:05:53.273605,4.0,2.0,341.0
2022-01-24-13:05:53.274602,3.0,9.0,341.0
2022-01-24-13:05:53.275603,6.0,8.0,342.0
2022-01-24-13:05:53.277549,6.0,8.0,342.0
2022-01-24-13:05:53.277549,1.0,4.0,341.0
2022-01-24-13:05:53.278570,4.0,2.0,342.0
2022-01-24-13:05:53.279566,4.0,2.0,342.0
2022-01-24-13:05:53.280566,4.0,2.0,342.0
2022-01-24-13:05:53.281562,4.0,2.0,342.0
2022-01-24-13:05:53.282560,13.0,6.0,342.0
2022-01-24-13:05:53.283665,4.0,6.0,342.0
2022-01-24-13:05:53.283665,4.0,6.0,342.0
2022-01-24-13:05:53.284720,4.0,6.0,342.0
2022-01-24-13:05:53.285905,4.0,6.0,342.0
2022-01-24-13:05:53.285905,5.0,2.0,341.0
2022-01-24-13:05:53.286929,5.0,2.0,341.0
2022-01-24-13:05:53.287927,8.0,4.0,341.0
2022-01-24-13:05:53.288925,8.0,4.0,341.0
2022-01-24-13:05:53.289921,8.0,4.0,341.0
2022-01-24-13:05:53.290918,2.0,9.0,342.0
2022-01-24-13:05:53.292244,5.0,6.0,341.0
2022-01-24-13:05:53.292244,5.0,6.0,341.0
2022-01-24-13:05:53.293299,5.0,6.0,341.0
2022-01-24-13:05:53.294300,5.0,6.0,341.0
2022-01-24-13:05:53.295240,6.0,3.0,342.0
2022-01-24-13:05:53.296291,9.0,4.0,342.0
2022-01-24-13:05:53.297289,9.0,4.0,342.0
2022-01-24-13:05:53.298285,9.0,4.0,342.0
2022-01-24-13:05:53.299486,13.0,2.0,341.0
2022-01-24-13:05:53.299486,19.0,1.0,342.0
2022-01-24-13:05:53.300620,19.0,1.0,342.0
2022-01-24-13:05:53.300620,11.0,4.0,341.0
2022-01-24-13:05:53.301681,11.0,4.0,341.0
2022-01-24-13:05:53.302674,11.0,4.0,341.0
2022-01-24-13:05:53.303875,4.0,2.0,342.0
2022-01-24-13:05:53.303875,4.0,3.0,341.0
2022-01-24-13:05:53.305029,4.0,3.0,341.0
2022-01-24-13:05:53.305029,5.0,5.0,341.0
2022-01-24-13:05:53.306082,5.0,5.0,341.0
2022-01-24-13:05:53.307083,1.0,8.0,342.0
2022-01-24-13:05:53.308080,2.0,8.0,342.0
2022-01-24-13:05:53.309067,1.0,8.0,342.0
2022-01-24-13:05:53.310071,5.0,5.0,341.0
2022-01-24-13:05:53.312061,3.0,2.0,342.0
2022-01-24-13:05:53.312061,8.0,3.0,342.0
2022-01-24-13:05:53.313010,8.0,3.0,342.0
2022-01-24-13:05:53.314253,8.0,3.0,342.0
2022-01-24-13:05:53.314253,8.0,0.0,342.0
2022-01-24-13:05:53.315284,8.0,0.0,342.0
2022-01-24-13:05:53.316284,9.0,5.0,342.0
2022-01-24-13:05:53.317279,9.0,5.0,342.0
2022-01-24-13:05:53.318245,9.0,5.0,342.0
2022-01-24-13:05:53.319274,4.0,3.0,342.0
2022-01-24-13:05:53.320275,8.0,4.0,342.0
2022-01-24-13:05:53.321268,5.0,9.0,342.0
2022-01-24-13:05:53.322265,5.0,9.0,342.0
2022-01-24-13:05:53.323263,1.0,7.0,342.0
2022-01-24-13:05:53.324264,0.0,8.0,342.0
2022-01-24-13:05:53.325258,0.0,8.0,342.0
2022-01-24-13:05:53.326255,0.0,8.0,342.0
2022-01-24-13:05:53.327252,0.0,8.0,342.0
2022-01-24-13:05:53.328251,4.0,6.0,342.0
2022-01-24-13:05:53.329383,10.0,3.0,341.0
2022-01-24-13:05:53.329383,10.0,3.0,341.0
2022-01-24-13:05:53.330448,10.0,3.0,341.0
2022-01-24-13:05:53.331645,16.0,1.0,342.0
2022-01-24-13:05:53.331645,20.0,4.0,342.0
2022-01-24-13:05:53.332792,20.0,4.0,342.0
2022-01-24-13:05:53.332792,20.0,4.0,342.0
2022-01-24-13:05:53.333838,20.0,4.0,342.0
2022-01-24-13:05:53.334837,20.0,4.0,342.0
2022-01-24-13:05:53.336070,11.0,2.0,342.0
2022-01-24-13:05:53.336070,8.0,5.0,341.0
2022-01-24-13:05:53.337103,8.0,5.0,341.0
2022-01-24-13:05:53.338102,2.0,7.0,341.0
2022-01-24-13:05:53.339096,2.0,7.0,341.0
2022-01-24-13:05:53.340095,1.0,9.0,342.0
2022-01-24-13:05:53.341091,3.0,10.0,341.0
2022-01-24-13:05:53.342088,5.0,11.0,342.0
2022-01-24-13:05:53.344088,5.0,11.0,342.0
2022-01-24-13:05:53.344088,9.0,2.0,342.0
2022-01-24-13:05:53.345083,9.0,2.0,342.0
2022-01-24-13:05:53.346077,8.0,0.0,341.0
2022-01-24-13:05:53.347074,8.0,0.0,341.0
2022-01-24-13:05:53.348074,14.0,1.0,342.0
2022-01-24-13:05:53.349062,18.0,4.0,341.0
2022-01-24-13:05:53.350059,18.0,4.0,341.0
2022-01-24-13:05:53.351032,18.0,4.0,341.0
2022-01-24-13:05:53.352053,13.0,1.0,342.0
2022-01-24-13:05:53.353054,5.0,10.0,342.0
2022-01-24-13:05:53.354048,5.0,10.0,342.0
2022-01-24-13:05:53.355025,5.0,10.0,342.0
2022-01-24-13:05:53.356044,1.0,10.0,342.0
2022-01-24-13:05:53.357040,6.0,13.0,342.0
2022-01-24-13:05:53.358039,6.0,13.0,342.0
2022-01-24-13:05:53.359036,6.0,13.0,342.0
2022-01-24-13:05:53.360117,1.0,1.0,342.0
2022-01-24-13:05:53.360117,1.0,1.0,342.0
2022-01-24-13:05:53.361119,1.0,1.0,342.0
2022-01-24-13:05:53.362170,1.0,1.0,342.0
2022-01-24-13:05:53.363170,1.0,1.0,342.0
2022-01-24-13:05:53.364165,2.0,1.0,342.0
2022-01-24-13:05:53.365280,16.0,1.0,342.0
2022-01-24-13:05:53.365280,16.0,1.0,342.0
2022-01-24-13:05:53.366335,16.0,1.0,342.0
2022-01-24-13:05:53.367503,16.0,1.0,342.0
2022-01-24-13:05:53.367503,14.0,1.0,342.0
2022-01-24-13:05:53.368527,14.0,1.0,342.0
2022-01-24-13:05:53.369526,5.0,5.0,341.0
2022-01-24-13:05:53.370521,5.0,5.0,341.0
2022-01-24-13:05:53.371495,5.0,5.0,341.0
2022-01-24-13:05:53.372526,4.0,9.0,342.0
2022-01-24-13:05:53.373521,5.0,7.0,341.0
2022-01-24-13:05:53.374521,1.0,9.0,342.0
2022-01-24-13:05:53.375535,1.0,9.0,342.0
2022-01-24-13:05:53.376482,2.0,9.0,341.0
2022-01-24-13:05:53.377479,3.0,2.0,341.0
2022-01-24-13:05:53.378475,0.0,2.0,342.0
2022-01-24-13:05:53.379498,0.0,2.0,342.0
2022-01-24-13:05:53.381505,3.0,2.0,342.0
2022-01-24-13:05:53.381505,3.0,2.0,342.0
2022-01-24-13:05:53.382492,7.0,2.0,342.0
2022-01-24-13:05:53.383481,14.0,2.0,341.0
2022-01-24-13:05:53.384484,19.0,2.0,341.0
2022-01-24-13:05:53.385594,14.0,0.0,341.0
2022-01-24-13:05:53.385594,13.0,2.0,342.0
2022-01-24-13:05:53.386626,13.0,2.0,342.0
2022-01-24-13:05:53.387626,13.0,2.0,342.0
2022-01-24-13:05:53.388621,13.0,2.0,342.0
2022-01-24-13:05:53.389618,4.0,7.0,341.0
2022-01-24-13:05:53.390968,4.0,7.0,341.0
2022-01-24-13:05:53.391313,4.0,7.0,341.0
2022-01-24-13:05:53.391313,4.0,7.0,341.0
2022-01-24-13:05:53.392496,4.0,7.0,341.0
2022-01-24-13:05:53.392496,1.0,8.0,342.0
2022-01-24-13:05:53.393520,0.0,5.0,341.0
2022-01-24-13:05:53.394517,1.0,11.0,342.0
2022-01-24-13:05:53.395529,1.0,11.0,342.0
2022-01-24-13:05:53.396520,1.0,11.0,342.0
2022-01-24-13:05:53.397523,1.0,6.0,341.0
2022-01-24-13:05:53.398514,7.0,0.0,342.0
2022-01-24-13:05:53.399504,14.0,0.0,341.0
2022-01-24-13:05:53.400511,14.0,0.0,341.0
2022-01-24-13:05:53.401499,16.0,0.0,342.0
2022-01-24-13:05:53.402496,15.0,1.0,342.0
2022-01-24-13:05:53.403495,12.0,2.0,341.0
2022-01-24-13:05:53.404549,12.0,2.0,341.0
2022-01-24-13:05:53.404549,8.0,6.0,342.0
2022-01-24-13:05:53.405605,3.0,8.0,342.0
2022-01-24-13:05:53.406601,1.0,10.0,341.0
2022-01-24-13:05:53.407600,1.0,10.0,341.0
2022-01-24-13:05:53.408596,1.0,10.0,341.0
2022-01-24-13:05:53.410535,13.0,5.0,341.0
2022-01-24-13:05:53.410535,13.0,5.0,341.0
2022-01-24-13:05:53.411566,13.0,5.0,341.0
2022-01-24-13:05:53.412567,13.0,5.0,341.0
2022-01-24-13:05:53.413614,8.0,5.0,341.0
2022-01-24-13:05:53.413614,3.0,2.0,341.0
2022-01-24-13:05:53.414646,13.0,0.0,341.0
2022-01-24-13:05:53.415643,13.0,0.0,341.0
2022-01-24-13:05:53.416608,13.0,0.0,341.0
2022-01-24-13:05:53.417640,11.0,1.0,342.0
2022-01-24-13:05:53.418637,5.0,2.0,342.0
2022-01-24-13:05:53.419632,4.0,7.0,342.0
2022-01-24-13:05:53.420598,4.0,7.0,342.0
2022-01-24-13:05:53.421629,4.0,8.0,342.0
2022-01-24-13:05:53.422624,1.0,11.0,342.0
2022-01-24-13:05:53.423622,1.0,12.0,342.0
2022-01-24-13:05:53.424624,1.0,12.0,342.0
2022-01-24-13:05:53.425617,1.0,6.0,341.0
2022-01-24-13:05:53.426616,4.0,6.0,341.0
2022-01-24-13:05:53.427611,2.0,2.0,342.0
2022-01-24-13:05:53.428615,2.0,2.0,342.0
2022-01-24-13:05:53.429608,2.0,2.0,342.0
2022-01-24-13:05:53.430603,18.0,1.0,342.0
2022-01-24-13:05:53.431609,18.0,0.0,342.0
2022-01-24-13:05:53.432602,18.0,0.0,342.0
2022-01-24-13:05:53.433595,18.0,0.0,342.0
2022-01-24-13:05:53.434594,17.0,2.0,342.0
2022-01-24-13:05:53.435582,13.0,3.0,341.0
2022-01-24-13:05:53.436588,10.0,3.0,342.0
2022-01-24-13:05:53.437586,10.0,3.0,342.0
2022-01-24-13:05:53.438575,4.0,7.0,342.0
2022-01-24-13:05:53.439572,6.0,4.0,342.0
2022-01-24-13:05:53.440573,3.0,7.0,342.0
2022-01-24-13:05:53.441566,3.0,7.0,342.0
2022-01-24-13:05:53.442566,1.0,9.0,341.0
2022-01-24-13:05:53.443561,5.0,3.0,341.0
2022-01-24-13:05:53.445557,5.0,3.0,341.0
2022-01-24-13:05:53.445557,5.0,3.0,341.0
2022-01-24-13:05:53.446552,10.0,5.0,341.0
2022-01-24-13:05:53.447549,16.0,3.0,342.0
2022-01-24-13:05:53.448551,16.0,3.0,342.0
2022-01-24-13:05:53.449545,16.0,3.0,342.0
2022-01-24-13:05:53.450544,15.0,0.0,341.0
2022-01-24-13:05:53.451539,15.0,0.0,341.0
2022-01-24-13:05:53.452536,8.0,5.0,341.0
2022-01-24-13:05:53.453510,7.0,5.0,341.0
2022-01-24-13:05:53.454531,4.0,6.0,341.0
2022-01-24-13:05:53.455528,1.0,9.0,342.0
2022-01-24-13:05:53.456529,1.0,8.0,342.0
2022-01-24-13:05:53.457558,1.0,8.0,342.0
2022-01-24-13:05:53.457558,3.0,1.0,342.0
2022-01-24-13:05:53.458621,3.0,1.0,342.0
2022-01-24-13:05:53.459610,3.0,1.0,342.0
2022-01-24-13:05:53.460609,3.0,1.0,342.0
2022-01-24-13:05:53.461551,3.0,1.0,342.0
2022-01-24-13:05:53.462602,1.0,2.0,342.0
2022-01-24-13:05:53.463717,16.0,2.0,342.0
2022-01-24-13:05:53.463717,16.0,2.0,342.0
2022-01-24-13:05:53.464749,16.0,2.0,342.0
2022-01-24-13:05:53.465748,16.0,2.0,342.0
2022-01-24-13:05:53.466759,14.0,3.0,342.0
2022-01-24-13:05:53.467072,11.0,2.0,341.0
2022-01-24-13:05:53.467072,11.0,2.0,341.0
2022-01-24-13:05:53.468103,11.0,2.0,341.0
2022-01-24-13:05:53.469093,11.0,2.0,341.0
2022-01-24-13:05:53.470312,11.0,2.0,341.0
2022-01-24-13:05:53.470312,5.0,4.0,342.0
2022-01-24-13:05:53.471344,3.0,6.0,342.0
2022-01-24-13:05:53.472341,0.0,11.0,341.0
2022-01-24-13:05:53.473340,0.0,11.0,341.0
2022-01-24-13:05:53.474336,0.0,11.0,341.0
2022-01-24-13:05:53.475333,1.0,10.0,341.0
2022-01-24-13:05:53.477328,1.0,10.0,341.0
2022-01-24-13:05:53.477328,6.0,3.0,342.0
2022-01-24-13:05:53.478294,13.0,0.0,341.0
2022-01-24-13:05:53.479322,13.0,0.0,341.0
2022-01-24-13:05:53.480319,13.0,0.0,341.0
2022-01-24-13:05:53.481319,13.0,0.0,341.0
2022-01-24-13:05:53.482314,13.0,0.0,341.0
2022-01-24-13:05:53.483312,14.0,1.0,342.0
2022-01-24-13:05:53.484455,5.0,2.0,342.0
2022-01-24-13:05:53.484455,5.0,2.0,342.0
2022-01-24-13:05:53.485478,5.0,2.0,342.0
2022-01-24-13:05:53.486632,5.0,2.0,342.0
2022-01-24-13:05:53.486632,5.0,1.0,341.0
2022-01-24-13:05:53.487663,2.0,9.0,341.0
2022-01-24-13:05:53.488660,2.0,9.0,341.0
2022-01-24-13:05:53.489658,2.0,9.0,341.0
2022-01-24-13:05:53.490623,2.0,9.0,341.0
2022-01-24-13:05:53.491655,2.0,11.0,342.0
2022-01-24-13:05:53.492650,3.0,7.0,342.0
2022-01-24-13:05:53.493649,3.0,7.0,342.0
2022-01-24-13:05:53.494645,3.0,7.0,342.0
2022-01-24-13:05:53.495642,2.0,9.0,342.0
2022-01-24-13:05:53.496637,8.0,1.0,341.0
2022-01-24-13:05:53.497628,8.0,1.0,341.0
2022-01-24-13:05:53.498633,8.0,1.0,341.0
2022-01-24-13:05:53.499624,13.0,3.0,341.0
2022-01-24-13:05:53.500620,9.0,3.0,342.0
2022-01-24-13:05:53.501628,6.0,4.0,341.0
2022-01-24-13:05:53.502591,6.0,4.0,341.0
2022-01-24-13:05:53.503613,8.0,6.0,342.0
2022-01-24-13:05:53.504699,3.0,7.0,342.0
2022-01-24-13:05:53.504699,3.0,7.0,342.0
2022-01-24-13:05:53.505724,3.0,7.0,342.0
2022-01-24-13:05:53.506722,3.0,7.0,342.0
2022-01-24-13:05:53.507720,3.0,6.0,342.0
2022-01-24-13:05:53.508715,1.0,11.0,341.0
2022-01-24-13:05:53.510056,2.0,6.0,341.0
2022-01-24-13:05:53.510056,2.0,6.0,342.0
2022-01-24-13:05:53.511083,2.0,6.0,342.0
2022-01-24-13:05:53.512076,3.0,0.0,342.0
2022-01-24-13:05:53.513082,3.0,0.0,342.0
2022-01-24-13:05:53.515076,3.0,0.0,342.0
2022-01-24-13:05:53.515076,15.0,2.0,341.0
2022-01-24-13:05:53.516066,16.0,2.0,342.0
2022-01-24-13:05:53.517149,12.0,4.0,342.0
2022-01-24-13:05:53.517149,12.0,4.0,342.0
2022-01-24-13:05:53.518174,12.0,4.0,342.0
2022-01-24-13:05:53.519359,12.0,4.0,342.0
2022-01-24-13:05:53.519359,8.0,2.0,342.0
2022-01-24-13:05:53.520390,5.0,5.0,342.0
2022-01-24-13:05:53.521390,5.0,5.0,342.0
2022-01-24-13:05:53.522388,5.0,5.0,342.0
2022-01-24-13:05:53.523384,5.0,5.0,342.0
2022-01-24-13:05:53.524382,2.0,11.0,342.0
2022-01-24-13:05:53.525370,6.0,9.0,341.0
2022-01-24-13:05:53.526369,6.0,9.0,341.0
2022-01-24-13:05:53.527370,6.0,9.0,341.0
2022-01-24-13:05:53.528362,3.0,1.0,342.0
2022-01-24-13:05:53.529361,6.0,2.0,341.0
2022-01-24-13:05:53.530355,6.0,2.0,341.0
2022-01-24-13:05:53.531329,6.0,2.0,341.0
2022-01-24-13:05:53.532350,10.0,2.0,341.0
2022-01-24-13:05:53.533347,13.0,5.0,341.0
2022-01-24-13:05:53.534353,8.0,3.0,341.0
2022-01-24-13:05:53.535318,8.0,3.0,341.0
2022-01-24-13:05:53.536347,6.0,6.0,341.0
2022-01-24-13:05:53.537424,1.0,9.0,341.0
2022-01-24-13:05:53.537424,1.0,9.0,341.0
2022-01-24-13:05:53.538449,1.0,9.0,341.0
2022-01-24-13:05:53.539447,1.0,9.0,341.0
2022-01-24-13:05:53.540445,4.0,9.0,342.0
2022-01-24-13:05:53.541440,0.0,9.0,342.0
2022-01-24-13:05:53.542438,5.0,8.0,342.0
2022-01-24-13:05:53.543436,5.0,8.0,342.0
2022-01-24-13:05:53.544433,6.0,1.0,341.0
2022-01-24-13:05:53.546687,4.0,1.0,342.0
2022-01-24-13:05:53.546687,4.0,1.0,342.0
2022-01-24-13:05:53.547716,4.0,1.0,342.0
2022-01-24-13:05:53.548713,8.0,3.0,342.0
2022-01-24-13:05:53.549790,14.0,4.0,342.0
2022-01-24-13:05:53.549790,9.0,1.0,342.0
2022-01-24-13:05:53.550824,9.0,1.0,342.0
2022-01-24-13:05:53.551787,9.0,1.0,342.0
2022-01-24-13:05:53.552816,3.0,1.0,342.0
2022-01-24-13:05:53.553808,1.0,4.0,341.0
2022-01-24-13:05:53.554812,0.0,5.0,342.0
2022-01-24-13:05:53.555777,0.0,5.0,342.0
2022-01-24-13:05:53.556806,3.0,9.0,342.0
2022-01-24-13:05:53.557804,0.0,11.0,342.0
2022-01-24-13:05:53.558803,6.0,6.0,342.0
2022-01-24-13:05:53.559768,6.0,6.0,342.0
2022-01-24-13:05:53.560763,3.0,1.0,341.0
2022-01-24-13:05:53.561760,0.0,1.0,342.0
2022-01-24-13:05:53.562757,8.0,3.0,341.0
2022-01-24-13:05:53.563852,8.0,3.0,341.0
2022-01-24-13:05:53.563852,8.0,3.0,341.0
2022-01-24-13:05:53.565095,8.0,3.0,341.0
2022-01-24-13:05:53.565095,15.0,2.0,341.0
2022-01-24-13:05:53.566227,14.0,0.0,341.0
2022-01-24-13:05:53.566227,14.0,0.0,341.0
2022-01-24-13:05:53.567253,14.0,0.0,341.0
2022-01-24-13:05:53.568255,14.0,0.0,341.0
2022-01-24-13:05:53.569466,10.0,1.0,341.0
2022-01-24-13:05:53.569466,4.0,8.0,342.0
2022-01-24-13:05:53.570500,5.0,14.0,341.0
2022-01-24-13:05:53.571495,5.0,14.0,341.0
2022-01-24-13:05:53.572494,5.0,14.0,341.0
2022-01-24-13:05:53.573489,2.0,8.0,342.0
2022-01-24-13:05:53.574486,2.0,9.0,342.0
2022-01-24-13:05:53.575486,2.0,10.0,341.0
2022-01-24-13:05:53.576482,2.0,10.0,341.0
2022-01-24-13:05:53.577478,6.0,1.0,341.0
2022-01-24-13:05:53.578478,6.0,1.0,342.0
2022-01-24-13:05:53.580439,6.0,1.0,342.0
2022-01-24-13:05:53.580439,8.0,2.0,341.0
2022-01-24-13:05:53.581468,8.0,2.0,341.0
2022-01-24-13:05:53.582596,18.0,0.0,342.0
2022-01-24-13:05:53.582596,18.0,0.0,342.0
2022-01-24-13:05:53.583642,18.0,0.0,342.0
2022-01-24-13:05:53.584803,18.0,0.0,342.0
2022-01-24-13:05:53.584803,14.0,0.0,342.0
2022-01-24-13:05:53.585834,14.0,0.0,342.0
2022-01-24-13:05:53.586978,5.0,4.0,342.0
2022-01-24-13:05:53.586978,5.0,4.0,342.0
2022-01-24-13:05:53.588024,5.0,4.0,342.0
2022-01-24-13:05:53.589022,5.0,4.0,342.0
2022-01-24-13:05:53.590021,2.0,6.0,342.0
2022-01-24-13:05:53.591214,0.0,8.0,342.0
2022-01-24-13:05:53.591214,1.0,8.0,342.0
2022-01-24-13:05:53.592249,1.0,8.0,342.0
2022-01-24-13:05:53.593243,1.0,7.0,342.0
2022-01-24-13:05:53.594241,0.0,5.0,341.0
2022-01-24-13:05:53.595241,4.0,1.0,342.0
2022-01-24-13:05:53.596239,4.0,1.0,342.0
2022-01-24-13:05:53.597241,4.0,1.0,342.0
2022-01-24-13:05:53.598225,11.0,2.0,342.0
2022-01-24-13:05:53.599219,18.0,1.0,342.0
2022-01-24-13:05:53.600219,18.0,2.0,342.0
2022-01-24-13:05:53.601214,18.0,2.0,342.0
2022-01-24-13:05:53.602211,11.0,3.0,342.0
2022-01-24-13:05:53.603211,7.0,4.0,341.0
2022-01-24-13:05:53.604206,8.0,2.0,342.0
2022-01-24-13:05:53.605204,8.0,2.0,342.0
2022-01-24-13:05:53.606204,1.0,7.0,342.0
2022-01-24-13:05:53.607285,3.0,11.0,341.0
2022-01-24-13:05:53.607285,3.0,11.0,341.0
2022-01-24-13:05:53.608332,3.0,11.0,341.0
2022-01-24-13:05:53.609329,3.0,11.0,341.0
2022-01-24-13:05:53.610640,2.0,8.0,341.0
2022-01-24-13:05:53.610640,5.0,5.0,342.0
2022-01-24-13:05:53.611902,5.0,5.0,342.0
2022-01-24-13:05:53.612950,5.0,1.0,342.0
2022-01-24-13:05:53.612950,10.0,1.0,341.0
2022-01-24-13:05:53.614147,10.0,1.0,341.0
2022-01-24-13:05:53.614147,19.0,1.0,342.0
2022-01-24-13:05:53.615266,19.0,1.0,342.0
2022-01-24-13:05:53.615266,18.0,2.0,341.0
2022-01-24-13:05:53.616313,18.0,2.0,341.0
2022-01-24-13:05:53.617285,18.0,2.0,341.0
2022-01-24-13:05:53.618309,16.0,2.0,342.0
2022-01-24-13:05:53.619282,5.0,3.0,342.0
2022-01-24-13:05:53.620269,5.0,3.0,342.0
2022-01-24-13:05:53.621278,5.0,3.0,342.0
2022-01-24-13:05:53.622251,1.0,7.0,342.0
2022-01-24-13:05:53.623294,2.0,12.0,342.0
2022-01-24-13:05:53.624297,2.0,12.0,342.0
2022-01-24-13:05:53.625290,2.0,12.0,342.0
2022-01-24-13:05:53.626288,2.0,12.0,342.0
2022-01-24-13:05:53.627283,5.0,7.0,341.0
2022-01-24-13:05:53.628234,0.0,2.0,342.0
2022-01-24-13:05:53.629281,0.0,2.0,342.0
2022-01-24-13:05:53.630438,0.0,2.0,342.0
2022-01-24-13:05:53.630438,6.0,3.0,341.0
2022-01-24-13:05:53.631493,10.0,3.0,342.0
2022-01-24-13:05:53.632490,18.0,1.0,341.0
2022-01-24-13:05:53.633487,18.0,1.0,341.0
2022-01-24-13:05:53.634487,15.0,4.0,342.0
2022-01-24-13:05:53.635485,8.0,2.0,341.0
2022-01-24-13:05:53.636480,5.0,6.0,341.0
2022-01-24-13:05:53.637479,5.0,6.0,341.0
2022-01-24-13:05:53.638473,5.0,6.0,341.0
2022-01-24-13:05:53.639479,5.0,7.0,342.0
2022-01-24-13:05:53.640462,0.0,9.0,342.0
2022-01-24-13:05:53.641465,1.0,9.0,341.0
2022-01-24-13:05:53.642501,1.0,9.0,341.0
2022-01-24-13:05:53.643501,3.0,8.0,342.0
2022-01-24-13:05:53.644508,5.0,1.0,341.0
2022-01-24-13:05:53.644898,5.0,1.0,341.0
2022-01-24-13:05:53.644898,5.0,1.0,341.0
2022-01-24-13:05:53.645938,5.0,1.0,341.0
2022-01-24-13:05:53.646929,6.0,0.0,342.0
2022-01-24-13:05:53.647929,15.0,3.0,342.0
2022-01-24-13:05:53.648923,17.0,3.0,341.0
2022-01-24-13:05:53.649929,17.0,3.0,341.0
2022-01-24-13:05:53.650919,8.0,3.0,342.0
2022-01-24-13:05:53.651917,6.0,0.0,341.0
2022-01-24-13:05:53.652915,7.0,4.0,342.0
2022-01-24-13:05:53.653915,7.0,4.0,342.0
2022-01-24-13:05:53.654913,7.0,4.0,342.0
2022-01-24-13:05:53.655906,3.0,4.0,341.0
2022-01-24-13:05:53.656903,0.0,5.0,341.0
2022-01-24-13:05:53.657900,0.0,6.0,341.0
2022-01-24-13:05:53.658897,0.0,6.0,341.0
2022-01-24-13:05:53.659894,1.0,7.0,341.0
2022-01-24-13:05:53.660891,1.0,7.0,341.0
2022-01-24-13:05:53.661972,1.0,1.0,341.0
2022-01-24-13:05:53.661972,1.0,1.0,341.0
2022-01-24-13:05:53.663222,1.0,1.0,341.0
2022-01-24-13:05:53.663222,8.0,0.0,342.0
2022-01-24-13:05:53.664256,17.0,1.0,342.0
2022-01-24-13:05:53.665253,17.0,1.0,342.0
2022-01-24-13:05:53.666250,17.0,1.0,342.0
2022-01-24-13:05:53.667247,16.0,0.0,341.0
2022-01-24-13:05:53.668246,9.0,2.0,342.0
2022-01-24-13:05:53.669242,7.0,1.0,341.0
2022-01-24-13:05:53.670241,7.0,1.0,341.0
2022-01-24-13:05:53.671237,7.0,1.0,341.0
2022-01-24-13:05:53.672234,5.0,5.0,341.0
2022-01-24-13:05:53.673232,0.0,13.0,341.0
2022-01-24-13:05:53.674229,0.0,13.0,341.0
2022-01-24-13:05:53.675226,0.0,13.0,341.0
2022-01-24-13:05:53.676224,1.0,8.0,342.0
2022-01-24-13:05:53.677220,1.0,3.0,342.0
2022-01-24-13:05:53.679212,1.0,3.0,342.0
2022-01-24-13:05:53.679212,1.0,3.0,342.0
2022-01-24-13:05:53.680225,10.0,0.0,342.0
2022-01-24-13:05:53.681222,17.0,2.0,341.0
2022-01-24-13:05:53.682220,20.0,1.0,342.0
2022-01-24-13:05:53.683217,20.0,1.0,342.0
2022-01-24-13:05:53.684216,16.0,4.0,342.0
2022-01-24-13:05:53.685215,10.0,3.0,342.0
2022-01-24-13:05:53.686216,4.0,6.0,342.0
2022-01-24-13:05:53.687207,4.0,6.0,342.0
2022-01-24-13:05:53.688204,2.0,8.0,341.0
2022-01-24-13:05:53.689201,1.0,9.0,341.0
2022-01-24-13:05:53.690199,6.0,12.0,342.0
2022-01-24-13:05:53.691196,6.0,12.0,342.0
2022-01-24-13:05:53.692195,3.0,11.0,341.0
2022-01-24-13:05:53.693194,9.0,6.0,341.0
2022-01-24-13:05:53.694188,4.0,2.0,342.0
2022-01-24-13:05:53.695139,4.0,2.0,342.0
2022-01-24-13:05:53.696183,6.0,1.0,342.0
2022-01-24-13:05:53.697180,11.0,3.0,342.0
2022-01-24-13:05:53.698180,11.0,3.0,342.0
2022-01-24-13:05:53.699127,11.0,3.0,342.0
2022-01-24-13:05:53.700173,16.0,5.0,342.0
2022-01-24-13:05:53.701263,6.0,5.0,342.0
2022-01-24-13:05:53.701263,6.0,5.0,342.0
2022-01-24-13:05:53.702320,6.0,5.0,342.0
2022-01-24-13:05:53.703282,6.0,5.0,342.0
2022-01-24-13:05:53.704509,5.0,5.0,341.0
2022-01-24-13:05:53.704509,5.0,7.0,342.0
2022-01-24-13:05:53.705638,3.0,12.0,341.0
2022-01-24-13:05:53.705638,3.0,12.0,341.0
2022-01-24-13:05:53.706692,3.0,12.0,341.0
2022-01-24-13:05:53.707688,3.0,12.0,341.0
2022-01-24-13:05:53.708690,1.0,11.0,341.0
2022-01-24-13:05:53.709676,0.0,5.0,342.0
2022-01-24-13:05:53.710965,5.0,8.0,342.0
2022-01-24-13:05:53.711121,4.0,5.0,341.0
2022-01-24-13:05:53.712120,4.0,5.0,341.0
2022-01-24-13:05:53.712120,5.0,2.0,341.0
2022-01-24-13:05:53.713118,13.0,3.0,343.0
2022-01-24-13:05:53.714169,19.0,0.0,341.0
2022-01-24-13:05:53.715170,19.0,0.0,341.0
2022-01-24-13:05:53.716163,19.0,0.0,341.0
2022-01-24-13:05:53.717200,20.0,5.0,342.0
2022-01-24-13:05:53.717200,14.0,2.0,342.0
2022-01-24-13:05:53.718246,7.0,3.0,342.0
2022-01-24-13:05:53.719245,7.0,3.0,342.0
2022-01-24-13:05:53.720244,7.0,3.0,342.0
2022-01-24-13:05:53.721239,4.0,6.0,341.0
2022-01-24-13:05:53.722237,3.0,6.0,341.0
2022-01-24-13:05:53.723234,0.0,9.0,341.0
2022-01-24-13:05:53.724231,0.0,9.0,341.0
2022-01-24-13:05:53.725235,2.0,14.0,342.0
2022-01-24-13:05:53.726229,8.0,7.0,341.0
2022-01-24-13:05:53.727221,10.0,5.0,341.0
2022-01-24-13:05:53.728194,10.0,5.0,341.0
2022-01-24-13:05:53.729217,1.0,4.0,342.0
2022-01-24-13:05:53.730215,1.0,4.0,342.0
2022-01-24-13:05:53.731212,8.0,1.0,342.0
2022-01-24-13:05:53.732208,8.0,1.0,342.0
2022-01-24-13:05:53.733206,17.0,2.0,341.0
2022-01-24-13:05:53.734203,10.0,0.0,342.0
2022-01-24-13:05:53.735208,10.0,0.0,342.0
2022-01-24-13:05:53.736152,10.0,0.0,342.0
2022-01-24-13:05:53.737196,4.0,3.0,342.0
2022-01-24-13:05:53.738194,3.0,5.0,342.0
2022-01-24-13:05:53.739191,7.0,8.0,341.0
2022-01-24-13:05:53.740141,7.0,8.0,341.0
2022-01-24-13:05:53.741185,1.0,9.0,341.0
2022-01-24-13:05:53.742183,6.0,10.0,342.0
2022-01-24-13:05:53.743181,7.0,7.0,342.0
2022-01-24-13:05:53.744175,7.0,7.0,342.0
2022-01-24-13:05:53.746173,12.0,2.0,342.0
2022-01-24-13:05:53.746173,12.0,2.0,342.0
2022-01-24-13:05:53.747169,12.0,2.0,342.0
2022-01-24-13:05:53.748167,12.0,2.0,342.0
2022-01-24-13:05:53.749167,19.0,2.0,342.0
2022-01-24-13:05:53.750161,5.0,3.0,342.0
2022-01-24-13:05:53.751235,7.0,6.0,341.0
2022-01-24-13:05:53.751235,7.0,6.0,341.0
2022-01-24-13:05:53.752283,7.0,6.0,341.0
2022-01-24-13:05:53.753279,7.0,6.0,341.0
2022-01-24-13:05:53.754440,6.0,3.0,342.0
2022-01-24-13:05:53.754440,3.0,0.0,341.0
2022-01-24-13:05:53.755592,2.0,6.0,342.0
2022-01-24-13:05:53.755592,2.0,6.0,342.0
2022-01-24-13:05:53.756813,2.0,6.0,342.0
2022-01-24-13:05:53.756813,2.0,9.0,341.0
2022-01-24-13:05:53.757863,6.0,9.0,342.0
2022-01-24-13:05:53.758857,6.0,9.0,342.0
2022-01-24-13:05:53.759853,6.0,9.0,342.0
2022-01-24-13:05:53.760852,6.0,9.0,342.0
2022-01-24-13:05:53.761828,7.0,2.0,342.0
2022-01-24-13:05:53.762846,7.0,2.0,342.0
2022-01-24-13:05:53.763844,7.0,2.0,342.0
2022-01-24-13:05:53.764794,7.0,2.0,342.0
2022-01-24-13:05:53.765842,13.0,1.0,341.0
2022-01-24-13:05:53.766836,13.0,1.0,341.0
2022-01-24-13:05:53.767832,8.0,1.0,341.0
2022-01-24-13:05:53.768785,8.0,1.0,341.0
2022-01-24-13:05:53.769827,7.0,7.0,341.0
2022-01-24-13:05:53.770824,5.0,8.0,341.0
2022-01-24-13:05:53.771823,6.0,5.0,341.0
2022-01-24-13:05:53.772823,6.0,5.0,341.0
2022-01-24-13:05:53.773800,5.0,7.0,342.0
2022-01-24-13:05:53.774815,3.0,5.0,342.0
2022-01-24-13:05:53.775812,5.0,9.0,342.0
2022-01-24-13:05:53.776789,5.0,9.0,342.0
2022-01-24-13:05:53.777842,5.0,9.0,342.0
2022-01-24-13:05:53.777842,0.0,1.0,342.0
2022-01-24-13:05:53.779839,8.0,0.0,341.0
2022-01-24-13:05:53.779839,8.0,0.0,341.0
2022-01-24-13:05:53.780891,8.0,0.0,341.0
2022-01-24-13:05:53.781934,8.0,0.0,341.0
2022-01-24-13:05:53.781934,14.0,2.0,342.0
2022-01-24-13:05:53.782982,9.0,7.0,342.0
2022-01-24-13:05:53.783983,9.0,7.0,342.0
2022-01-24-13:05:53.784978,9.0,7.0,342.0
2022-01-24-13:05:53.785956,9.0,7.0,342.0
2022-01-24-13:05:53.786975,6.0,5.0,341.0
2022-01-24-13:05:53.787969,1.0,10.0,342.0
2022-01-24-13:05:53.788969,1.0,10.0,342.0
2022-01-24-13:05:53.789964,1.0,10.0,342.0
2022-01-24-13:05:53.790962,0.0,10.0,342.0
2022-01-24-13:05:53.791957,2.0,10.0,341.0
2022-01-24-13:05:53.792955,5.0,6.0,342.0
2022-01-24-13:05:53.793952,5.0,6.0,342.0
2022-01-24-13:05:53.794927,4.0,0.0,342.0
2022-01-24-13:05:53.796065,10.0,4.0,342.0
2022-01-24-13:05:53.796405,10.0,4.0,342.0
2022-01-24-13:05:53.796405,10.0,4.0,342.0
2022-01-24-13:05:53.797586,10.0,4.0,342.0
2022-01-24-13:05:53.797586,18.0,2.0,342.0
2022-01-24-13:05:53.798633,14.0,1.0,341.0
2022-01-24-13:05:53.799630,14.0,1.0,341.0
2022-01-24-13:05:53.800628,14.0,1.0,341.0
2022-01-24-13:05:53.801577,14.0,1.0,341.0
2022-01-24-13:05:53.802623,7.0,5.0,342.0
2022-01-24-13:05:53.803620,6.0,2.0,342.0
2022-01-24-13:05:53.804618,3.0,6.0,342.0
2022-01-24-13:05:53.805626,3.0,6.0,342.0
2022-01-24-13:05:53.806612,2.0,4.0,342.0
2022-01-24-13:05:53.807587,1.0,4.0,342.0
2022-01-24-13:05:53.808607,1.0,4.0,342.0
2022-01-24-13:05:53.809605,1.0,4.0,342.0
2022-01-24-13:05:53.810601,1.0,4.0,342.0
2022-01-24-13:05:53.812574,4.0,5.0,341.0
2022-01-24-13:05:53.812574,6.0,0.0,342.0
2022-01-24-13:05:53.813594,6.0,0.0,342.0
2022-01-24-13:05:53.814591,13.0,3.0,342.0
2022-01-24-13:05:53.815593,17.0,6.0,342.0
2022-01-24-13:05:53.816585,17.0,6.0,342.0
2022-01-24-13:05:53.817582,17.0,6.0,342.0
2022-01-24-13:05:53.818586,17.0,6.0,342.0
2022-01-24-13:05:53.819577,10.0,3.0,342.0
2022-01-24-13:05:53.820584,6.0,2.0,341.0
2022-01-24-13:05:53.821573,5.0,5.0,342.0
2022-01-24-13:05:53.822569,5.0,5.0,342.0
2022-01-24-13:05:53.823546,0.0,7.0,342.0
2022-01-24-13:05:53.824564,3.0,6.0,342.0
2022-01-24-13:05:53.825561,3.0,6.0,342.0
2022-01-24-13:05:53.826558,3.0,6.0,342.0
2022-01-24-13:05:53.827555,5.0,6.0,341.0
2022-01-24-13:05:53.828505,5.0,6.0,341.0
2022-01-24-13:05:53.829551,5.0,2.0,341.0
2022-01-24-13:05:53.830548,3.0,6.0,341.0
2022-01-24-13:05:53.831545,15.0,2.0,341.0
2022-01-24-13:05:53.832543,14.0,1.0,341.0
2022-01-24-13:05:53.833539,14.0,1.0,341.0
2022-01-24-13:05:53.834537,14.0,1.0,341.0
2022-01-24-13:05:53.835534,12.0,2.0,341.0
2022-01-24-13:05:53.836534,2.0,3.0,342.0
2022-01-24-13:05:53.837530,3.0,8.0,341.0
2022-01-24-13:05:53.838479,3.0,8.0,341.0
2022-01-24-13:05:53.839495,0.0,11.0,342.0
2022-01-24-13:05:53.840600,1.0,10.0,341.0
2022-01-24-13:05:53.840600,1.0,10.0,341.0
2022-01-24-13:05:53.841635,1.0,10.0,341.0
2022-01-24-13:05:53.842629,1.0,10.0,341.0
2022-01-24-13:05:53.843627,3.0,9.0,342.0
2022-01-24-13:05:53.845056,1.0,1.0,342.0
2022-01-24-13:05:53.846056,1.0,1.0,342.0
2022-01-24-13:05:53.846056,1.0,1.0,342.0
2022-01-24-13:05:53.847146,7.0,1.0,341.0
2022-01-24-13:05:53.847146,16.0,4.0,341.0
2022-01-24-13:05:53.848192,16.0,5.0,342.0
2022-01-24-13:05:53.849190,16.0,5.0,342.0
2022-01-24-13:05:53.850187,16.0,5.0,342.0
2022-01-24-13:05:53.851189,16.0,5.0,342.0
2022-01-24-13:05:53.852183,16.0,3.0,342.0
2022-01-24-13:05:53.853182,8.0,1.0,341.0
2022-01-24-13:05:53.854178,3.0,2.0,341.0
2022-01-24-13:05:53.855182,3.0,2.0,341.0
2022-01-24-13:05:53.856175,4.0,3.0,342.0
2022-01-24-13:05:53.857156,2.0,9.0,342.0
2022-01-24-13:05:53.858167,1.0,11.0,341.0
2022-01-24-13:05:53.859167,1.0,11.0,341.0
2022-01-24-13:05:53.860161,2.0,9.0,341.0
2022-01-24-13:05:53.861160,3.0,1.0,342.0
2022-01-24-13:05:53.862157,1.0,2.0,342.0
2022-01-24-13:05:53.863106,1.0,2.0,342.0
2022-01-24-13:05:53.864150,7.0,5.0,342.0
2022-01-24-13:05:53.865148,16.0,5.0,342.0
2022-01-24-13:05:53.866145,16.0,5.0,342.0
2022-01-24-13:05:53.867095,16.0,5.0,342.0
2022-01-24-13:05:53.868140,10.0,5.0,342.0
2022-01-24-13:05:53.869373,4.0,5.0,342.0
2022-01-24-13:05:53.869373,4.0,11.0,342.0
2022-01-24-13:05:53.870429,4.0,11.0,342.0
2022-01-24-13:05:53.871426,4.0,11.0,342.0
2022-01-24-13:05:53.872473,2.0,7.0,341.0
2022-01-24-13:05:53.872473,0.0,9.0,342.0
2022-01-24-13:05:53.873521,3.0,9.0,342.0
2022-01-24-13:05:53.874517,3.0,9.0,342.0
2022-01-24-13:05:53.875515,3.0,9.0,342.0
2022-01-24-13:05:53.876495,6.0,8.0,342.0
2022-01-24-13:05:53.877514,2.0,4.0,341.0
2022-01-24-13:05:53.878476,2.0,4.0,341.0
2022-01-24-13:05:53.880501,5.0,2.0,341.0
2022-01-24-13:05:53.880501,17.0,0.0,341.0
2022-01-24-13:05:53.881478,17.0,0.0,341.0
2022-01-24-13:05:53.882449,17.0,0.0,341.0
2022-01-24-13:05:53.883465,17.0,0.0,341.0
2022-01-24-13:05:53.884471,13.0,1.0,342.0
2022-01-24-13:05:53.885467,10.0,1.0,341.0
2022-01-24-13:05:53.886447,6.0,4.0,342.0
2022-01-24-13:05:53.887464,6.0,4.0,342.0
2022-01-24-13:05:53.888459,6.0,4.0,342.0
2022-01-24-13:05:53.889456,3.0,8.0,341.0
2022-01-24-13:05:53.890471,1.0,14.0,342.0
2022-01-24-13:05:53.891450,1.0,14.0,342.0
2022-01-24-13:05:53.892448,1.0,14.0,342.0
2022-01-24-13:05:53.893446,3.0,8.0,342.0
2022-01-24-13:05:53.894447,5.0,3.0,342.0
2022-01-24-13:05:53.895415,2.0,1.0,342.0
2022-01-24-13:05:53.896437,2.0,1.0,342.0
2022-01-24-13:05:53.897436,2.0,1.0,342.0
2022-01-24-13:05:53.898431,15.0,4.0,342.0
2022-01-24-13:05:53.899429,17.0,1.0,342.0
2022-01-24-13:05:53.900427,17.0,1.0,342.0
2022-01-24-13:05:53.901398,12.0,2.0,342.0
2022-01-24-13:05:53.902461,4.0,2.0,341.0
2022-01-24-13:05:53.902461,3.0,0.0,342.0
2022-01-24-13:05:53.903461,3.0,0.0,342.0
2022-01-24-13:05:53.904458,3.0,0.0,342.0
2022-01-24-13:05:53.905455,3.0,4.0,341.0
2022-01-24-13:05:53.906453,1.0,3.0,341.0
2022-01-24-13:05:53.907450,1.0,7.0,341.0
2022-01-24-13:05:53.908456,1.0,7.0,341.0
2022-01-24-13:05:53.909445,4.0,4.0,341.0
2022-01-24-13:05:53.910476,4.0,6.0,342.0
2022-01-24-13:05:53.911441,4.0,6.0,342.0
2022-01-24-13:05:53.912476,4.0,6.0,342.0
2022-01-24-13:05:53.913469,1.0,5.0,341.0
2022-01-24-13:05:53.914470,10.0,3.0,342.0
2022-01-24-13:05:53.916426,16.0,4.0,341.0
2022-01-24-13:05:53.916426,12.0,0.0,341.0
2022-01-24-13:05:53.917589,8.0,1.0,341.0
2022-01-24-13:05:53.917589,8.0,1.0,341.0
2022-01-24-13:05:53.918615,8.0,1.0,341.0
2022-01-24-13:05:53.919612,8.0,1.0,341.0
2022-01-24-13:05:53.920779,8.0,1.0,341.0
2022-01-24-13:05:53.920779,4.0,10.0,342.0
2022-01-24-13:05:53.921806,1.0,9.0,342.0
2022-01-24-13:05:53.922803,2.0,13.0,341.0
2022-01-24-13:05:53.923811,2.0,13.0,341.0
2022-01-24-13:05:53.924797,2.0,13.0,341.0
2022-01-24-13:05:53.925794,1.0,12.0,342.0
2022-01-24-13:05:53.926795,4.0,4.0,342.0
2022-01-24-13:05:53.927789,1.0,2.0,342.0
2022-01-24-13:05:53.928761,1.0,2.0,342.0
2022-01-24-13:05:53.929785,1.0,1.0,342.0
2022-01-24-13:05:53.930782,7.0,7.0,342.0
2022-01-24-13:05:53.931780,17.0,2.0,342.0
2022-01-24-13:05:53.932750,17.0,2.0,342.0
2022-01-24-13:05:53.933772,17.0,5.0,341.0
2022-01-24-13:05:53.934770,8.0,5.0,342.0
2022-01-24-13:05:53.935767,7.0,4.0,341.0
2022-01-24-13:05:53.936739,7.0,4.0,341.0
2022-01-24-13:05:53.937763,3.0,5.0,341.0
2022-01-24-13:05:53.938760,0.0,9.0,341.0
2022-01-24-13:05:53.939760,1.0,11.0,342.0
2022-01-24-13:05:53.940755,1.0,11.0,342.0
2022-01-24-13:05:53.941751,2.0,8.0,341.0
2022-01-24-13:05:53.942748,8.0,6.0,342.0
2022-01-24-13:05:53.943746,7.0,4.0,342.0
2022-01-24-13:05:53.944739,7.0,4.0,342.0
2022-01-24-13:05:53.945742,7.0,4.0,342.0
2022-01-24-13:05:53.946737,15.0,5.0,341.0
2022-01-24-13:05:53.947734,15.0,5.0,341.0
2022-01-24-13:05:53.948733,15.0,5.0,341.0
2022-01-24-13:05:53.950749,16.0,1.0,341.0
2022-01-24-13:05:53.950749,9.0,1.0,342.0
2022-01-24-13:05:53.951748,9.0,1.0,342.0
2022-01-24-13:05:53.952742,9.0,1.0,342.0
2022-01-24-13:05:53.953741,9.0,1.0,342.0
2022-01-24-13:05:53.954741,4.0,6.0,342.0
2022-01-24-13:05:53.955813,0.0,7.0,342.0
2022-01-24-13:05:53.955813,1.0,9.0,341.0
2022-01-24-13:05:53.956870,1.0,9.0,341.0
2022-01-24-13:05:53.957866,1.0,9.0,341.0
2022-01-24-13:05:53.958862,0.0,14.0,341.0
2022-01-24-13:05:53.959863,1.0,9.0,341.0
2022-01-24-13:05:53.960857,7.0,4.0,342.0
2022-01-24-13:05:53.961799,7.0,4.0,342.0
2022-01-24-13:05:53.962847,0.0,3.0,342.0
2022-01-24-13:05:53.963846,4.0,1.0,342.0
2022-01-24-13:05:53.964819,9.0,2.0,342.0
2022-01-24-13:05:53.965807,10.0,3.0,341.0
2022-01-24-13:05:53.966813,16.0,2.0,342.0
2022-01-24-13:05:53.967790,9.0,2.0,342.0
2022-01-24-13:05:53.968781,6.0,4.0,341.0
2022-01-24-13:05:53.969779,6.0,4.0,341.0
2022-01-24-13:05:53.970810,6.0,5.0,342.0
2022-01-24-13:05:53.971774,2.0,7.0,342.0
2022-01-24-13:05:53.972770,2.0,7.0,342.0
2022-01-24-13:05:53.973802,2.0,7.0,342.0
2022-01-24-13:05:53.974764,0.0,10.0,341.0
2022-01-24-13:05:53.975762,6.0,5.0,342.0
2022-01-24-13:05:53.976783,6.0,5.0,342.0
2022-01-24-13:05:53.977760,6.0,5.0,342.0
2022-01-24-13:05:53.978754,4.0,1.0,341.0
2022-01-24-13:05:53.979752,5.0,2.0,342.0
2022-01-24-13:05:53.980748,10.0,2.0,341.0
2022-01-24-13:05:53.981747,10.0,2.0,341.0
2022-01-24-13:05:53.982770,17.0,1.0,342.0
2022-01-24-13:05:53.984763,9.0,4.0,341.0
2022-01-24-13:05:53.984763,11.0,0.0,341.0
2022-01-24-13:05:53.985763,11.0,0.0,341.0
2022-01-24-13:05:53.986758,11.0,0.0,341.0
2022-01-24-13:05:53.987755,8.0,1.0,341.0
2022-01-24-13:05:53.988728,5.0,7.0,341.0
2022-01-24-13:05:53.989725,5.0,7.0,341.0
2022-01-24-13:05:53.990723,5.0,7.0,341.0
2022-01-24-13:05:53.991745,5.0,10.0,342.0
2022-01-24-13:05:53.992717,4.0,6.0,341.0
2022-01-24-13:05:53.993740,4.0,6.0,341.0
2022-01-24-13:05:53.994737,4.0,6.0,341.0
2022-01-24-13:05:53.995711,2.0,4.0,342.0
2022-01-24-13:05:53.996707,13.0,4.0,342.0
2022-01-24-13:05:53.997704,13.0,4.0,342.0
2022-01-24-13:05:53.998701,13.0,4.0,342.0
2022-01-24-13:05:53.999697,7.0,10.0,341.0
2022-01-24-13:05:54.000706,7.0,10.0,341.0
2022-01-24-13:05:54.001692,7.0,10.0,341.0
2022-01-24-13:05:54.002689,7.0,10.0,341.0
2022-01-24-13:05:54.003687,6.0,8.0,341.0
2022-01-24-13:05:54.004684,4.0,2.0,341.0
2022-01-24-13:05:54.005715,4.0,2.0,341.0
2022-01-24-13:05:54.006705,4.0,2.0,341.0
2022-01-24-13:05:54.007702,0.0,5.0,341.0
2022-01-24-13:05:54.008699,1.0,9.0,341.0
2022-01-24-13:05:54.009671,10.0,10.0,342.0
2022-01-24-13:05:54.010668,10.0,10.0,342.0
2022-01-24-13:05:54.011665,6.0,6.0,341.0
2022-01-24-13:05:54.012663,2.0,2.0,341.0
2022-01-24-13:05:54.013662,9.0,10.0,341.0
2022-01-24-13:05:54.014658,9.0,10.0,341.0
2022-01-24-13:05:54.015656,11.0,5.0,342.0
2022-01-24-13:05:54.017651,11.0,5.0,342.0
2022-01-24-13:05:54.017651,11.0,5.0,342.0
2022-01-24-13:05:54.018685,11.0,5.0,342.0
2022-01-24-13:05:54.019646,7.0,2.0,342.0
2022-01-24-13:05:54.020643,0.0,10.0,341.0
2022-01-24-13:05:54.021666,0.0,10.0,341.0
2022-01-24-13:05:54.022637,0.0,10.0,341.0
2022-01-24-13:05:54.023635,3.0,13.0,341.0
2022-01-24-13:05:54.024632,0.0,12.0,342.0
2022-01-24-13:05:54.025630,3.0,8.0,342.0
2022-01-24-13:05:54.026627,3.0,8.0,342.0
2022-01-24-13:05:54.027624,3.0,8.0,342.0
2022-01-24-13:05:54.028622,5.0,2.0,342.0
2022-01-24-13:05:54.029617,9.0,6.0,341.0
2022-01-24-13:05:54.030642,9.0,6.0,341.0
2022-01-24-13:05:54.031614,9.0,6.0,341.0
2022-01-24-13:05:54.032611,16.0,3.0,341.0
2022-01-24-13:05:54.033608,14.0,3.0,341.0
2022-01-24-13:05:54.034630,14.0,3.0,341.0
2022-01-24-13:05:54.035604,14.0,3.0,341.0
2022-01-24-13:05:54.036600,3.0,7.0,342.0
2022-01-24-13:05:54.037626,6.0,5.0,342.0
2022-01-24-13:05:54.038594,1.0,9.0,341.0
2022-01-24-13:05:54.039616,1.0,9.0,341.0
2022-01-24-13:05:54.040613,1.0,10.0,341.0
2022-01-24-13:05:54.041617,3.0,13.0,342.0
2022-01-24-13:05:54.042608,7.0,7.0,342.0
2022-01-24-13:05:54.043609,7.0,7.0,342.0
2022-01-24-13:05:54.044607,5.0,7.0,342.0
2022-01-24-13:05:54.045601,3.0,1.0,342.0
2022-01-24-13:05:54.046603,5.0,2.0,341.0
2022-01-24-13:05:54.047596,5.0,2.0,341.0
2022-01-24-13:05:54.048593,10.0,0.0,341.0
2022-01-24-13:05:54.049566,20.0,6.0,342.0
2022-01-24-13:05:54.050580,20.0,6.0,342.0
2022-01-24-13:05:54.052582,20.0,6.0,342.0
2022-01-24-13:05:54.052582,6.0,6.0,342.0
2022-01-24-13:05:54.053555,6.0,6.0,342.0
2022-01-24-13:05:54.054580,6.0,6.0,342.0
2022-01-24-13:05:54.055549,6.0,6.0,342.0
2022-01-24-13:05:54.056546,2.0,4.0,342.0
2022-01-24-13:05:54.057543,5.0,9.0,341.0
2022-01-24-13:05:54.058540,5.0,9.0,341.0
2022-01-24-13:05:54.059537,5.0,9.0,341.0
2022-01-24-13:05:54.060536,7.0,12.0,341.0
2022-01-24-13:05:54.061536,7.0,9.0,342.0
2022-01-24-13:05:54.062531,7.0,1.0,341.0
2022-01-24-13:05:54.063528,7.0,1.0,341.0
2022-01-24-13:05:54.064526,7.0,1.0,341.0
2022-01-24-13:05:54.065523,13.0,7.0,341.0
2022-01-24-13:05:54.066521,14.0,1.0,342.0
2022-01-24-13:05:54.067518,14.0,1.0,341.0
2022-01-24-13:05:54.068515,12.0,7.0,342.0
2022-01-24-13:05:54.069512,2.0,8.0,341.0
2022-01-24-13:05:54.070509,4.0,9.0,342.0
2022-01-24-13:05:54.071506,4.0,9.0,342.0
2022-01-24-13:05:54.072504,0.0,6.0,342.0
2022-01-24-13:05:54.073502,1.0,11.0,341.0
2022-01-24-13:05:54.074499,1.0,11.0,341.0
2022-01-24-13:05:54.075496,1.0,11.0,341.0
2022-01-24-13:05:54.076493,1.0,11.0,341.0
2022-01-24-13:05:54.077490,5.0,10.0,341.0
2022-01-24-13:05:54.078488,0.0,4.0,341.0
2022-01-24-13:05:54.079485,0.0,4.0,341.0
2022-01-24-13:05:54.080485,0.0,4.0,341.0
2022-01-24-13:05:54.081505,8.0,1.0,341.0
2022-01-24-13:05:54.082477,16.0,4.0,342.0
2022-01-24-13:05:54.084498,15.0,4.0,341.0
2022-01-24-13:05:54.084498,15.0,4.0,341.0
2022-01-24-13:05:54.085470,8.0,0.0,341.0
2022-01-24-13:05:54.086466,7.0,3.0,341.0
2022-01-24-13:05:54.087463,7.0,3.0,341.0
2022-01-24-13:05:54.088460,7.0,3.0,341.0
2022-01-24-13:05:54.089484,2.0,11.0,342.0
2022-01-24-13:05:54.090476,1.0,12.0,342.0
2022-01-24-13:05:54.091453,4.0,6.0,342.0
2022-01-24-13:05:54.092475,4.0,6.0,342.0
2022-01-24-13:05:54.093471,7.0,7.0,342.0
2022-01-24-13:05:54.094445,1.0,1.0,342.0
2022-01-24-13:05:54.095442,9.0,7.0,341.0
2022-01-24-13:05:54.096440,9.0,7.0,341.0
2022-01-24-13:05:54.097437,14.0,1.0,342.0
2022-01-24-13:05:54.098459,14.0,3.0,342.0
2022-01-24-13:05:54.099456,14.0,3.0,342.0
2022-01-24-13:05:54.100428,14.0,3.0,342.0
2022-01-24-13:05:54.101427,8.0,1.0,341.0
2022-01-24-13:05:54.102424,4.0,5.0,341.0
2022-01-24-13:05:54.103421,4.0,5.0,341.0
2022-01-24-13:05:54.104418,4.0,5.0,341.0
2022-01-24-13:05:54.105415,4.0,5.0,341.0
2022-01-24-13:05:54.106414,3.0,12.0,341.0
2022-01-24-13:05:54.107411,3.0,12.0,341.0
2022-01-24-13:05:54.108407,3.0,12.0,341.0
2022-01-24-13:05:54.109430,3.0,12.0,341.0
2022-01-24-13:05:54.110403,7.0,2.0,341.0
2022-01-24-13:05:54.111400,6.0,3.0,341.0
2022-01-24-13:05:54.112422,6.0,3.0,341.0
2022-01-24-13:05:54.113420,6.0,3.0,341.0
2022-01-24-13:05:54.114392,14.0,1.0,341.0
2022-01-24-13:05:54.115390,17.0,1.0,342.0
2022-01-24-13:05:54.116412,17.0,1.0,342.0
2022-01-24-13:05:54.117383,17.0,1.0,342.0
2022-01-24-13:05:54.118382,16.0,1.0,341.0
2022-01-24-13:05:54.120376,1.0,8.0,341.0
2022-01-24-13:05:54.121373,1.0,8.0,341.0
2022-01-24-13:05:54.121373,0.0,15.0,342.0
2022-01-24-13:05:54.122370,1.0,10.0,342.0
2022-01-24-13:05:54.123368,1.0,10.0,342.0
2022-01-24-13:05:54.124365,1.0,10.0,342.0
2022-01-24-13:05:54.125364,1.0,10.0,342.0
2022-01-24-13:05:54.126360,6.0,7.0,342.0
2022-01-24-13:05:54.127356,4.0,2.0,342.0
2022-01-24-13:05:54.128353,2.0,0.0,342.0
2022-01-24-13:05:54.129352,2.0,0.0,342.0
2022-01-24-13:05:54.130351,4.0,3.0,342.0
2022-01-24-13:05:54.131347,13.0,2.0,341.0
2022-01-24-13:05:54.132344,17.0,1.0,342.0
2022-01-24-13:05:54.133340,17.0,1.0,342.0
2022-01-24-13:05:54.134364,10.0,2.0,341.0
2022-01-24-13:05:54.135360,3.0,3.0,342.0
2022-01-24-13:05:54.136357,3.0,3.0,342.0
2022-01-24-13:05:54.137356,3.0,3.0,342.0
2022-01-24-13:05:54.138353,2.0,6.0,342.0
2022-01-24-13:05:54.139349,1.0,6.0,341.0
2022-01-24-13:05:54.140348,0.0,15.0,341.0
2022-01-24-13:05:54.141320,0.0,15.0,341.0
2022-01-24-13:05:54.142317,5.0,10.0,341.0
2022-01-24-13:05:54.143315,2.0,1.0,342.0
2022-01-24-13:05:54.144310,2.0,1.0,342.0
2022-01-24-13:05:54.145308,2.0,1.0,342.0
2022-01-24-13:05:54.146332,2.0,1.0,342.0
2022-01-24-13:05:54.147304,10.0,0.0,342.0
2022-01-24-13:05:54.148301,15.0,3.0,341.0
2022-01-24-13:05:54.149299,15.0,3.0,341.0
2022-01-24-13:05:54.150294,15.0,3.0,341.0
2022-01-24-13:05:54.151293,15.0,3.0,341.0
2022-01-24-13:05:54.152291,16.0,5.0,342.0
2022-01-24-13:05:54.153287,11.0,3.0,341.0
2022-01-24-13:05:54.155281,6.0,5.0,342.0
2022-01-24-13:05:54.155281,3.0,1.0,342.0
2022-01-24-13:05:54.156280,2.0,6.0,341.0
2022-01-24-13:05:54.157276,2.0,6.0,341.0
2022-01-24-13:05:54.158273,2.0,6.0,341.0
2022-01-24-13:05:54.159270,2.0,6.0,341.0
2022-01-24-13:05:54.160268,0.0,4.0,342.0
2022-01-24-13:05:54.161292,5.0,1.0,342.0
2022-01-24-13:05:54.162264,0.0,2.0,341.0
2022-01-24-13:05:54.163262,6.0,5.0,341.0
2022-01-24-13:05:54.164259,8.0,1.0,341.0
2022-01-24-13:05:54.165256,14.0,1.0,341.0
2022-01-24-13:05:54.166253,13.0,4.0,342.0
2022-01-24-13:05:54.167250,16.0,6.0,342.0
2022-01-24-13:05:54.168247,15.0,1.0,341.0
2022-01-24-13:05:54.169244,6.0,0.0,341.0
2022-01-24-13:05:54.170241,6.0,0.0,342.0
2022-01-24-13:05:54.171239,5.0,5.0,341.0
2022-01-24-13:05:54.172236,5.0,5.0,341.0
2022-01-24-13:05:54.173234,1.0,12.0,341.0
2022-01-24-13:05:54.174231,2.0,13.0,341.0
2022-01-24-13:05:54.175228,6.0,11.0,342.0
2022-01-24-13:05:54.176226,6.0,6.0,342.0
2022-01-24-13:05:54.177223,5.0,2.0,341.0
2022-01-24-13:05:54.178220,5.0,2.0,341.0
2022-01-24-13:05:54.179218,7.0,1.0,342.0
2022-01-24-13:05:54.180249,11.0,2.0,342.0
2022-01-24-13:05:54.181214,16.0,3.0,342.0
2022-01-24-13:05:54.182211,16.0,3.0,342.0
2022-01-24-13:05:54.183208,16.0,3.0,342.0
2022-01-24-13:05:54.184206,16.0,3.0,342.0
2022-01-24-13:05:54.185203,7.0,2.0,341.0
2022-01-24-13:05:54.186201,7.0,2.0,341.0
2022-01-24-13:05:54.188193,7.0,2.0,341.0
2022-01-24-13:05:54.188193,3.0,7.0,341.0
2022-01-24-13:05:54.189192,3.0,7.0,341.0
2022-01-24-13:05:54.190227,3.0,7.0,341.0
2022-01-24-13:05:54.191188,3.0,7.0,341.0
2022-01-24-13:05:54.192184,1.0,9.0,341.0
2022-01-24-13:05:54.193182,5.0,7.0,341.0
2022-01-24-13:05:54.194179,6.0,10.0,342.0
2022-01-24-13:05:54.195175,6.0,10.0,342.0
2022-01-24-13:05:54.196208,6.0,0.0,341.0
2022-01-24-13:05:54.197196,12.0,4.0,341.0
2022-01-24-13:05:54.198194,12.0,4.0,341.0
2022-01-24-13:05:54.199191,12.0,4.0,341.0
2022-01-24-13:05:54.200163,16.0,1.0,341.0
2022-01-24-13:05:54.201160,7.0,0.0,341.0
2022-01-24-13:05:54.202157,7.0,0.0,341.0
2022-01-24-13:05:54.203154,7.0,0.0,341.0
2022-01-24-13:05:54.204152,1.0,3.0,341.0
2022-01-24-13:05:54.205149,2.0,9.0,342.0
2022-01-24-13:05:54.206172,2.0,9.0,342.0
2022-01-24-13:05:54.207143,2.0,9.0,342.0
2022-01-24-13:05:54.208141,7.0,10.0,342.0
2022-01-24-13:05:54.209139,4.0,10.0,341.0
2022-01-24-13:05:54.210136,4.0,10.0,341.0
2022-01-24-13:05:54.211132,4.0,10.0,341.0
2022-01-24-13:05:54.212131,1.0,9.0,341.0
2022-01-24-13:05:54.213128,5.0,1.0,342.0
2022-01-24-13:05:54.214125,6.0,3.0,342.0
2022-01-24-13:05:54.215146,15.0,6.0,341.0
2022-01-24-13:05:54.216119,15.0,6.0,341.0
2022-01-24-13:05:54.217143,17.0,1.0,342.0
2022-01-24-13:05:54.218139,10.0,3.0,341.0
2022-01-24-13:05:54.219140,10.0,3.0,341.0
2022-01-24-13:05:54.220133,10.0,3.0,341.0
2022-01-24-13:05:54.222103,2.0,8.0,342.0
2022-01-24-13:05:54.222103,2.0,8.0,342.0
2022-01-24-13:05:54.223102,2.0,8.0,342.0
2022-01-24-13:05:54.224098,2.0,8.0,342.0
2022-01-24-13:05:54.225122,1.0,16.0,342.0
2022-01-24-13:05:54.226117,0.0,14.0,341.0
2022-01-24-13:05:54.227114,3.0,6.0,341.0
2022-01-24-13:05:54.228113,3.0,6.0,341.0
2022-01-24-13:05:54.229110,4.0,3.0,342.0
2022-01-24-13:05:54.230108,2.0,2.0,342.0
2022-01-24-13:05:54.231166,8.0,2.0,341.0
2022-01-24-13:05:54.231166,8.0,2.0,341.0
2022-01-24-13:05:54.232206,8.0,2.0,341.0
2022-01-24-13:05:54.233199,16.0,1.0,342.0
2022-01-24-13:05:54.234186,17.0,6.0,341.0
2022-01-24-13:05:54.235185,12.0,3.0,341.0
2022-01-24-13:05:54.236180,12.0,3.0,341.0
2022-01-24-13:05:54.237179,7.0,6.0,341.0
2022-01-24-13:05:54.238177,5.0,7.0,342.0
2022-01-24-13:05:54.239172,3.0,6.0,341.0
2022-01-24-13:05:54.240170,3.0,6.0,341.0
2022-01-24-13:05:54.241169,2.0,9.0,341.0
2022-01-24-13:05:54.242164,2.0,8.0,342.0
2022-01-24-13:05:54.243163,5.0,7.0,342.0
2022-01-24-13:05:54.244159,5.0,7.0,342.0
2022-01-24-13:05:54.245156,5.0,4.0,342.0
2022-01-24-13:05:54.246357,8.0,4.0,341.0
2022-01-24-13:05:54.246501,10.0,6.0,341.0
2022-01-24-13:05:54.246501,10.0,6.0,341.0
2022-01-24-13:05:54.247526,10.0,6.0,341.0
2022-01-24-13:05:54.248522,10.0,6.0,341.0
2022-01-24-13:05:54.249736,14.0,0.0,342.0
2022-01-24-13:05:54.249736,15.0,3.0,341.0
2022-01-24-13:05:54.250770,11.0,3.0,341.0
2022-01-24-13:05:54.251764,11.0,3.0,341.0
2022-01-24-13:05:54.252762,11.0,3.0,341.0
2022-01-24-13:05:54.253763,5.0,1.0,342.0
2022-01-24-13:05:54.254874,7.0,5.0,341.0
2022-01-24-13:05:54.255874,7.0,5.0,341.0
2022-01-24-13:05:54.255874,3.0,6.0,341.0
2022-01-24-13:05:54.256903,2.0,15.0,342.0
2022-01-24-13:05:54.257940,6.0,8.0,342.0
2022-01-24-13:05:54.258898,6.0,8.0,342.0
2022-01-24-13:05:54.259897,6.0,8.0,342.0
2022-01-24-13:05:54.260893,6.0,8.0,342.0
2022-01-24-13:05:54.261859,2.0,6.0,341.0
2022-01-24-13:05:54.262910,2.0,6.0,341.0
2022-01-24-13:05:54.263905,5.0,2.0,341.0
2022-01-24-13:05:54.264903,5.0,2.0,341.0
2022-01-24-13:05:54.265901,7.0,5.0,341.0
2022-01-24-13:05:54.266898,15.0,6.0,342.0
2022-01-24-13:05:54.267898,13.0,5.0,341.0
2022-01-24-13:05:54.268892,13.0,5.0,341.0
2022-01-24-13:05:54.270190,10.0,4.0,342.0
2022-01-24-13:05:54.270503,6.0,6.0,342.0
2022-01-24-13:05:54.270503,6.0,6.0,342.0
2022-01-24-13:05:54.271527,6.0,6.0,342.0
2022-01-24-13:05:54.272528,6.0,6.0,342.0
2022-01-24-13:05:54.273521,6.0,6.0,342.0
2022-01-24-13:05:54.274770,1.0,10.0,342.0
2022-01-24-13:05:54.274770,6.0,6.0,341.0
2022-01-24-13:05:54.275801,6.0,6.0,341.0
2022-01-24-13:05:54.276767,6.0,6.0,341.0
2022-01-24-13:05:54.277768,4.0,3.0,342.0
2022-01-24-13:05:54.278762,8.0,4.0,341.0
2022-01-24-13:05:54.279761,8.0,4.0,341.0
2022-01-24-13:05:54.280757,8.0,4.0,341.0
2022-01-24-13:05:54.281755,18.0,3.0,341.0
2022-01-24-13:05:54.282752,15.0,2.0,342.0
2022-01-24-13:05:54.283749,15.0,2.0,342.0
2022-01-24-13:05:54.284747,15.0,2.0,342.0
2022-01-24-13:05:54.285744,7.0,1.0,342.0
2022-01-24-13:05:54.286742,0.0,9.0,342.0
2022-01-24-13:05:54.288736,0.0,9.0,342.0
2022-01-24-13:05:54.288736,0.0,9.0,342.0
2022-01-24-13:05:54.289733,1.0,8.0,341.0
2022-01-24-13:05:54.290731,4.0,9.0,341.0
2022-01-24-13:05:54.291728,4.0,9.0,341.0
2022-01-24-13:05:54.292725,4.0,9.0,341.0
2022-01-24-13:05:54.293723,4.0,9.0,341.0
2022-01-24-13:05:54.294720,3.0,3.0,342.0
2022-01-24-13:05:54.295717,7.0,2.0,342.0
2022-01-24-13:05:54.296714,7.0,2.0,342.0
2022-01-24-13:05:54.297712,7.0,2.0,342.0
2022-01-24-13:05:54.298709,17.0,0.0,341.0
2022-01-24-13:05:54.299706,13.0,1.0,342.0
2022-01-24-13:05:54.300704,13.0,1.0,342.0
2022-01-24-13:05:54.301701,13.0,1.0,342.0
2022-01-24-13:05:54.302698,5.0,5.0,342.0
2022-01-24-13:05:54.303696,5.0,5.0,342.0
2022-01-24-13:05:54.304693,5.0,5.0,342.0
2022-01-24-13:05:54.305690,5.0,5.0,342.0
2022-01-24-13:05:54.306688,2.0,11.0,342.0
2022-01-24-13:05:54.307685,1.0,6.0,341.0
2022-01-24-13:05:54.308682,1.0,6.0,341.0
2022-01-24-13:05:54.309680,1.0,6.0,341.0
2022-01-24-13:05:54.310677,6.0,7.0,342.0
2022-01-24-13:05:54.311675,12.0,8.0,342.0
2022-01-24-13:05:54.312672,12.0,8.0,342.0
2022-01-24-13:05:54.313669,12.0,8.0,342.0
2022-01-24-13:05:54.314666,14.0,5.0,342.0
2022-01-24-13:05:54.315664,15.0,2.0,341.0
2022-01-24-13:05:54.316661,15.0,2.0,341.0
2022-01-24-13:05:54.317658,15.0,2.0,341.0
2022-01-24-13:05:54.318656,5.0,3.0,342.0
2022-01-24-13:05:54.319653,5.0,9.0,341.0
2022-01-24-13:05:54.320650,5.0,9.0,341.0
2022-01-24-13:05:54.322645,5.0,9.0,341.0
2022-01-24-13:05:54.322645,0.0,15.0,342.0
2022-01-24-13:05:54.323642,7.0,12.0,342.0
2022-01-24-13:05:54.324640,7.0,12.0,342.0
2022-01-24-13:05:54.325670,7.0,12.0,342.0
2022-01-24-13:05:54.326668,7.0,12.0,342.0
2022-01-24-13:05:54.327665,3.0,3.0,342.0
2022-01-24-13:05:54.328662,7.0,8.0,341.0
2022-01-24-13:05:54.329661,7.0,8.0,341.0
2022-01-24-13:05:54.330655,7.0,8.0,341.0
2022-01-24-13:05:54.331654,15.0,1.0,341.0
2022-01-24-13:05:54.332655,12.0,1.0,342.0
2022-01-24-13:05:54.333648,12.0,1.0,342.0
2022-01-24-13:05:54.334647,12.0,1.0,342.0
2022-01-24-13:05:54.335647,6.0,6.0,342.0
2022-01-24-13:05:54.336639,9.0,2.0,341.0
2022-01-24-13:05:54.337638,5.0,7.0,341.0
2022-01-24-13:05:54.338639,5.0,7.0,341.0
2022-01-24-13:05:54.339631,1.0,15.0,341.0
2022-01-24-13:05:54.340631,1.0,8.0,342.0
2022-01-24-13:05:54.341626,1.0,8.0,342.0
2022-01-24-13:05:54.342626,1.0,8.0,342.0
2022-01-24-13:05:54.343622,3.0,1.0,342.0
2022-01-24-13:05:54.344618,5.0,4.0,342.0
2022-01-24-13:05:54.345618,5.0,4.0,342.0
2022-01-24-13:05:54.346613,5.0,4.0,342.0
2022-01-24-13:05:54.347611,13.0,2.0,341.0
2022-01-24-13:05:54.348607,17.0,1.0,341.0
2022-01-24-13:05:54.349604,17.0,1.0,341.0
2022-01-24-13:05:54.350570,17.0,1.0,341.0
2022-01-24-13:05:54.351600,7.0,5.0,342.0
2022-01-24-13:05:54.352597,4.0,8.0,341.0
2022-01-24-13:05:54.354560,4.0,8.0,341.0
2022-01-24-13:05:54.354560,4.0,8.0,341.0
2022-01-24-13:05:54.355588,2.0,8.0,341.0
2022-01-24-13:05:54.356585,2.0,8.0,341.0
2022-01-24-13:05:54.357583,2.0,8.0,341.0
2022-01-24-13:05:54.358585,2.0,8.0,341.0
2022-01-24-13:05:54.359578,5.0,4.0,342.0
2022-01-24-13:05:54.360575,2.0,2.0,341.0
2022-01-24-13:05:54.361577,2.0,2.0,341.0
2022-01-24-13:05:54.362571,2.0,2.0,341.0
2022-01-24-13:05:54.363570,15.0,4.0,342.0
2022-01-24-13:05:54.364564,14.0,6.0,341.0
2022-01-24-13:05:54.365563,14.0,6.0,341.0
2022-01-24-13:05:54.366561,14.0,6.0,341.0
2022-01-24-13:05:54.367556,14.0,6.0,341.0
2022-01-24-13:05:54.368554,9.0,3.0,341.0
2022-01-24-13:05:54.369553,5.0,3.0,341.0
2022-01-24-13:05:54.370548,5.0,3.0,341.0
2022-01-24-13:05:54.371547,5.0,3.0,341.0
2022-01-24-13:05:54.372549,5.0,5.0,341.0
2022-01-24-13:05:54.373541,2.0,11.0,341.0
2022-01-24-13:05:54.374540,2.0,11.0,341.0
2022-01-24-13:05:54.375536,2.0,11.0,341.0
2022-01-24-13:05:54.376533,2.0,0.0,341.0
2022-01-24-13:05:54.377536,3.0,1.0,341.0
2022-01-24-13:05:54.378527,3.0,1.0,341.0
2022-01-24-13:05:54.379526,3.0,1.0,341.0
2022-01-24-13:05:54.380527,13.0,1.0,342.0
2022-01-24-13:05:54.381520,18.0,2.0,341.0
2022-01-24-13:05:54.382518,18.0,2.0,341.0
2022-01-24-13:05:54.383515,18.0,2.0,341.0
2022-01-24-13:05:54.384513,6.0,3.0,342.0
2022-01-24-13:05:54.385510,4.0,6.0,342.0
2022-01-24-13:05:54.386507,4.0,6.0,342.0
2022-01-24-13:05:54.387504,4.0,6.0,342.0
2022-01-24-13:05:54.389499,2.0,11.0,342.0
2022-01-24-13:05:54.389499,1.0,9.0,342.0
2022-01-24-13:05:54.390519,1.0,9.0,342.0
2022-01-24-13:05:54.391460,1.0,9.0,342.0
2022-01-24-13:05:54.392491,0.0,6.0,342.0
2022-01-24-13:05:54.393489,0.0,6.0,342.0
2022-01-24-13:05:54.394485,0.0,6.0,342.0
2022-01-24-13:05:54.395482,0.0,6.0,342.0
2022-01-24-13:05:54.396479,12.0,2.0,341.0
2022-01-24-13:05:54.397478,17.0,6.0,341.0
2022-01-24-13:05:54.398476,17.0,6.0,341.0
2022-01-24-13:05:54.399472,17.0,6.0,341.0
2022-01-24-13:05:54.400469,9.0,3.0,342.0
2022-01-24-13:05:54.401467,4.0,5.0,341.0
2022-01-24-13:05:54.402464,4.0,5.0,341.0
2022-01-24-13:05:54.403461,4.0,5.0,341.0
2022-01-24-13:05:54.404468,4.0,5.0,341.0
2022-01-24-13:05:54.405462,4.0,13.0,341.0
2022-01-24-13:05:54.406454,4.0,13.0,341.0
2022-01-24-13:05:54.407457,4.0,13.0,341.0
2022-01-24-13:05:54.408448,4.0,13.0,341.0
2022-01-24-13:05:54.409446,6.0,6.0,342.0
2022-01-24-13:05:54.410443,0.0,5.0,341.0
2022-01-24-13:05:54.411440,0.0,5.0,341.0
2022-01-24-13:05:54.412442,0.0,5.0,341.0
2022-01-24-13:05:54.413435,5.0,3.0,341.0
2022-01-24-13:05:54.414433,10.0,2.0,341.0
2022-01-24-13:05:54.415429,16.0,3.0,342.0
2022-01-24-13:05:54.416427,16.0,3.0,342.0
2022-01-24-13:05:54.417425,14.0,1.0,342.0
2022-01-24-13:05:54.418421,10.0,2.0,341.0
2022-01-24-13:05:54.419418,9.0,0.0,341.0
2022-01-24-13:05:54.420414,9.0,0.0,341.0
2022-01-24-13:05:54.422404,3.0,3.0,341.0
2022-01-24-13:05:54.422404,0.0,8.0,341.0
2022-01-24-13:05:54.423400,0.0,8.0,341.0
2022-01-24-13:05:54.424398,0.0,8.0,341.0
2022-01-24-13:05:54.425396,0.0,7.0,341.0
2022-01-24-13:05:54.426367,6.0,7.0,341.0
2022-01-24-13:05:54.427364,2.0,1.0,342.0
2022-01-24-13:05:54.428361,2.0,1.0,342.0
2022-01-24-13:05:54.429359,18.0,3.0,341.0
2022-01-24-13:05:54.430356,18.0,3.0,341.0
2022-01-24-13:05:54.431354,18.0,3.0,341.0
2022-01-24-13:05:54.432350,18.0,3.0,341.0
2022-01-24-13:05:54.433348,9.0,5.0,342.0
2022-01-24-13:05:54.434345,9.0,5.0,342.0
2022-01-24-13:05:54.435343,9.0,5.0,342.0
2022-01-24-13:05:54.436340,9.0,5.0,342.0
2022-01-24-13:05:54.437338,2.0,7.0,342.0
2022-01-24-13:05:54.438335,2.0,7.0,342.0
2022-01-24-13:05:54.439332,2.0,7.0,342.0
2022-01-24-13:05:54.440330,2.0,7.0,342.0
2022-01-24-13:05:54.441327,2.0,7.0,342.0
2022-01-24-13:05:54.442326,0.0,8.0,341.0
2022-01-24-13:05:54.443322,5.0,3.0,342.0
2022-01-24-13:05:54.444319,5.0,3.0,342.0
2022-01-24-13:05:54.445316,5.0,3.0,342.0
2022-01-24-13:05:54.446314,14.0,3.0,341.0
2022-01-24-13:05:54.452298,14.0,3.0,341.0
2022-01-24-13:05:54.453295,15.0,3.0,342.0
2022-01-24-13:05:54.453295,3.0,6.0,342.0
2022-01-24-13:05:54.454292,3.0,6.0,342.0
2022-01-24-13:05:54.455289,3.0,6.0,342.0
2022-01-24-13:05:54.456287,3.0,6.0,342.0
2022-01-24-13:05:54.457284,3.0,6.0,342.0
2022-01-24-13:05:54.458282,3.0,6.0,342.0
2022-01-24-13:05:54.460276,5.0,3.0,342.0
2022-01-24-13:05:54.460276,5.0,3.0,342.0
2022-01-24-13:05:54.461273,5.0,3.0,342.0
2022-01-24-13:05:54.462271,12.0,1.0,341.0
2022-01-24-13:05:54.463268,12.0,1.0,341.0
2022-01-24-13:05:54.464265,12.0,1.0,341.0
2022-01-24-13:05:54.465263,12.0,1.0,341.0
2022-01-24-13:05:54.466260,19.0,6.0,341.0
2022-01-24-13:05:54.467258,19.0,6.0,341.0
2022-01-24-13:05:54.468255,16.0,2.0,341.0
2022-01-24-13:05:54.469252,13.0,0.0,341.0
2022-01-24-13:05:54.470251,9.0,2.0,341.0
2022-01-24-13:05:54.471246,1.0,8.0,342.0
2022-01-24-13:05:54.472245,1.0,8.0,342.0
2022-01-24-13:05:54.473243,1.0,8.0,342.0
2022-01-24-13:05:54.474240,0.0,5.0,341.0
2022-01-24-13:05:54.475238,0.0,5.0,341.0
2022-01-24-13:05:54.476234,0.0,8.0,342.0
2022-01-24-13:05:54.477231,8.0,2.0,342.0
2022-01-24-13:05:54.478228,0.0,0.0,341.0
2022-01-24-13:05:54.479225,3.0,1.0,341.0
2022-01-24-13:05:54.480223,9.0,1.0,341.0
2022-01-24-13:05:54.481220,9.0,1.0,341.0
2022-01-24-13:05:54.482217,9.0,1.0,341.0
2022-01-24-13:05:54.483214,14.0,1.0,341.0
2022-01-24-13:05:54.484212,9.0,9.0,341.0
2022-01-24-13:05:54.485209,10.0,11.0,341.0
2022-01-24-13:05:54.486206,10.0,11.0,341.0
2022-01-24-13:05:54.487204,3.0,3.0,342.0
2022-01-24-13:05:54.488202,0.0,5.0,341.0
2022-01-24-13:05:54.489198,0.0,5.0,341.0
2022-01-24-13:05:54.490228,0.0,5.0,341.0
2022-01-24-13:05:54.491196,1.0,7.0,342.0
2022-01-24-13:05:54.492222,1.0,8.0,341.0
2022-01-24-13:05:54.494220,6.0,5.0,341.0
2022-01-24-13:05:54.494220,7.0,2.0,341.0
2022-01-24-13:05:54.495187,9.0,0.0,341.0
2022-01-24-13:05:54.496179,9.0,0.0,341.0
2022-01-24-13:05:54.497206,9.0,0.0,341.0
2022-01-24-13:05:54.498175,9.0,0.0,341.0
2022-01-24-13:05:54.499203,19.0,4.0,341.0
2022-01-24-13:05:54.500171,12.0,0.0,342.0
2022-01-24-13:05:54.501167,12.0,0.0,342.0
2022-01-24-13:05:54.502164,12.0,0.0,342.0
2022-01-24-13:05:54.503166,9.0,6.0,342.0
2022-01-24-13:05:54.504159,3.0,6.0,341.0
2022-01-24-13:05:54.505156,3.0,6.0,341.0
2022-01-24-13:05:54.506153,3.0,6.0,341.0
2022-01-24-13:05:54.507152,9.0,10.0,342.0
2022-01-24-13:05:54.508148,9.0,10.0,342.0
2022-01-24-13:05:54.509177,9.0,10.0,342.0
2022-01-24-13:05:54.510143,9.0,10.0,342.0
2022-01-24-13:05:54.511140,2.0,0.0,341.0
2022-01-24-13:05:54.512137,2.0,0.0,341.0
2022-01-24-13:05:54.513135,2.0,0.0,341.0
2022-01-24-13:05:54.514132,2.0,0.0,341.0
2022-01-24-13:05:54.515147,14.0,3.0,341.0
2022-01-24-13:05:54.516127,14.0,3.0,341.0
2022-01-24-13:05:54.517123,14.0,3.0,341.0
2022-01-24-13:05:54.518121,14.0,3.0,341.0
2022-01-24-13:05:54.519118,14.0,3.0,341.0
2022-01-24-13:05:54.520116,6.0,1.0,342.0
2022-01-24-13:05:54.521155,7.0,4.0,341.0
2022-01-24-13:05:54.522121,7.0,4.0,341.0
2022-01-24-13:05:54.523108,7.0,4.0,341.0
2022-01-24-13:05:54.524115,1.0,8.0,341.0
2022-01-24-13:05:54.525103,1.0,8.0,341.0
2022-01-24-13:05:54.526100,1.0,10.0,341.0
2022-01-24-13:05:54.527097,1.0,7.0,341.0
2022-01-24-13:05:54.528094,9.0,7.0,342.0
2022-01-24-13:05:54.529118,2.0,2.0,341.0
2022-01-24-13:05:54.530089,5.0,0.0,341.0
2022-01-24-13:05:54.531087,5.0,0.0,341.0
2022-01-24-13:05:54.533082,8.0,2.0,341.0
2022-01-24-13:05:54.533082,17.0,2.0,341.0
2022-01-24-13:05:54.534105,18.0,3.0,341.0
2022-01-24-13:05:54.535100,16.0,1.0,341.0
2022-01-24-13:05:54.536097,6.0,0.0,341.0
2022-01-24-13:05:54.537097,7.0,0.0,341.0
2022-01-24-13:05:54.538094,0.0,5.0,341.0
2022-01-24-13:05:54.539089,0.0,5.0,341.0
2022-01-24-13:05:54.540086,0.0,10.0,341.0
2022-01-24-13:05:54.541085,0.0,11.0,342.0
2022-01-24-13:05:54.542058,0.0,11.0,342.0
2022-01-24-13:05:54.543054,7.0,6.0,341.0
2022-01-24-13:05:54.544052,7.0,6.0,341.0
2022-01-24-13:05:54.545049,6.0,7.0,342.0
2022-01-24-13:05:54.546046,6.0,2.0,342.0
2022-01-24-13:05:54.547044,12.0,2.0,341.0
2022-01-24-13:05:54.548080,12.0,1.0,342.0
2022-01-24-13:05:54.549038,14.0,0.0,341.0
2022-01-24-13:05:54.550035,18.0,1.0,341.0
2022-01-24-13:05:54.551033,9.0,1.0,341.0
2022-01-24-13:05:54.552030,6.0,3.0,341.0
2022-01-24-13:05:54.553028,5.0,11.0,341.0
2022-01-24-13:05:54.554025,2.0,7.0,341.0
2022-01-24-13:05:54.555022,2.0,7.0,341.0
2022-01-24-13:05:54.556019,2.0,7.0,341.0
2022-01-24-13:05:54.557017,3.0,8.0,341.0
2022-01-24-13:05:54.558014,2.0,9.0,342.0
2022-01-24-13:05:54.559046,3.0,8.0,341.0
2022-01-24-13:05:54.560044,4.0,5.0,341.0
2022-01-24-13:05:54.561035,1.0,3.0,341.0
2022-01-24-13:05:54.562006,7.0,3.0,341.0
2022-01-24-13:05:54.564011,7.0,3.0,341.0
2022-01-24-13:05:54.564011,19.0,0.0,341.0
2022-01-24-13:05:54.564996,14.0,1.0,341.0
2022-01-24-13:05:54.566028,14.0,1.0,341.0
2022-01-24-13:05:54.567024,14.0,1.0,341.0
2022-01-24-13:05:54.568020,14.0,1.0,341.0
2022-01-24-13:05:54.569020,13.0,5.0,341.0
2022-01-24-13:05:54.570015,4.0,4.0,341.0
2022-01-24-13:05:54.571012,4.0,8.0,341.0
2022-01-24-13:05:54.572018,2.0,11.0,341.0
2022-01-24-13:05:54.573006,2.0,8.0,341.0
2022-01-24-13:05:54.574008,3.0,11.0,342.0
2022-01-24-13:05:54.574969,1.0,8.0,342.0
2022-01-24-13:05:54.575966,0.0,5.0,341.0
2022-01-24-13:05:54.576963,1.0,2.0,341.0
2022-01-24-13:05:54.577960,6.0,0.0,341.0
2022-01-24-13:05:54.578986,6.0,0.0,341.0
2022-01-24-13:05:54.579956,6.0,0.0,341.0
2022-01-24-13:05:54.580986,12.0,6.0,341.0
2022-01-24-13:05:54.581985,17.0,1.0,341.0
2022-01-24-13:05:54.582982,13.0,1.0,341.0
2022-01-24-13:05:54.583945,13.0,1.0,341.0
2022-01-24-13:05:54.584977,12.0,1.0,342.0
2022-01-24-13:05:54.585972,5.0,3.0,341.0
2022-01-24-13:05:54.586972,5.0,10.0,341.0
2022-01-24-13:05:54.587972,2.0,7.0,341.0
2022-01-24-13:05:54.588967,3.0,7.0,341.0
2022-01-24-13:05:54.589957,2.0,12.0,341.0
2022-01-24-13:05:54.590951,2.0,12.0,341.0
2022-01-24-13:05:54.591950,2.0,12.0,341.0
2022-01-24-13:05:54.592947,2.0,12.0,341.0
2022-01-24-13:05:54.593945,5.0,11.0,342.0
2022-01-24-13:05:54.594940,4.0,6.0,341.0
2022-01-24-13:05:54.595913,4.0,1.0,341.0
2022-01-24-13:05:54.596936,7.0,3.0,341.0
2022-01-24-13:05:54.597934,5.0,4.0,342.0
2022-01-24-13:05:54.599950,10.0,3.0,341.0
2022-01-24-13:05:54.599950,12.0,0.0,342.0
2022-01-24-13:05:54.600945,17.0,4.0,341.0
2022-01-24-13:05:54.601945,11.0,3.0,342.0
2022-01-24-13:05:54.602938,9.0,1.0,341.0
2022-01-24-13:05:54.603940,6.0,2.0,342.0
2022-01-24-13:05:54.604936,4.0,6.0,342.0
2022-01-24-13:05:54.605937,3.0,8.0,341.0
2022-01-24-13:05:54.606931,4.0,9.0,341.0
2022-01-24-13:05:54.607907,3.0,10.0,342.0
2022-01-24-13:05:54.608923,0.0,11.0,341.0
2022-01-24-13:05:54.609924,5.0,5.0,341.0
2022-01-24-13:05:54.610919,5.0,5.0,341.0
2022-01-24-13:05:54.611917,7.0,4.0,341.0
2022-01-24-13:05:54.612893,4.0,10.0,342.0
2022-01-24-13:05:54.613892,5.0,6.0,342.0
2022-01-24-13:05:54.614887,13.0,2.0,342.0
2022-01-24-13:05:54.615889,18.0,5.0,342.0
2022-01-24-13:05:54.616857,19.0,1.0,341.0
2022-01-24-13:05:54.617879,16.0,4.0,341.0
2022-01-24-13:05:54.618876,12.0,4.0,342.0
2022-01-24-13:05:54.619878,8.0,0.0,342.0
2022-01-24-13:05:54.620847,5.0,2.0,341.0
2022-01-24-13:05:54.621888,2.0,4.0,342.0
2022-01-24-13:05:54.622885,4.0,7.0,341.0
2022-01-24-13:05:54.623883,2.0,11.0,341.0
2022-01-24-13:05:54.624872,3.0,11.0,341.0
2022-01-24-13:05:54.625877,5.0,9.0,341.0
2022-01-24-13:05:54.626875,4.0,7.0,342.0
2022-01-24-13:05:54.627871,2.0,1.0,341.0
2022-01-24-13:05:54.628826,2.0,1.0,341.0
2022-01-24-13:05:54.629824,2.0,1.0,341.0
2022-01-24-13:05:54.630821,13.0,1.0,342.0
2022-01-24-13:05:54.632816,16.0,1.0,341.0
2022-01-24-13:05:54.632816,16.0,1.0,341.0
2022-01-24-13:05:54.633953,8.0,1.0,341.0
2022-01-24-13:05:54.633953,8.0,2.0,341.0
2022-01-24-13:05:54.635006,8.0,2.0,341.0
2022-01-24-13:05:54.636006,8.0,2.0,341.0
2022-01-24-13:05:54.637001,8.0,2.0,341.0
2022-01-24-13:05:54.637998,2.0,9.0,341.0
2022-01-24-13:05:54.638996,3.0,9.0,341.0
2022-01-24-13:05:54.639992,3.0,8.0,341.0
2022-01-24-13:05:54.640985,3.0,12.0,341.0
2022-01-24-13:05:54.641980,3.0,12.0,341.0
2022-01-24-13:05:54.643301,3.0,12.0,341.0
2022-01-24-13:05:54.643301,3.0,12.0,341.0
2022-01-24-13:05:54.644347,4.0,4.0,341.0
2022-01-24-13:05:54.645335,4.0,4.0,341.0
2022-01-24-13:05:54.646322,2.0,2.0,342.0
2022-01-24-13:05:54.647337,10.0,0.0,342.0
2022-01-24-13:05:54.648335,15.0,1.0,341.0
2022-01-24-13:05:54.649332,15.0,1.0,341.0
2022-01-24-13:05:54.650329,18.0,6.0,342.0
2022-01-24-13:05:54.651328,9.0,6.0,341.0
2022-01-24-13:05:54.652427,8.0,1.0,341.0
2022-01-24-13:05:54.652427,8.0,1.0,341.0
2022-01-24-13:05:54.653473,8.0,1.0,341.0
2022-01-24-13:05:54.654473,8.0,1.0,341.0
2022-01-24-13:05:54.655467,1.0,5.0,341.0
2022-01-24-13:05:54.656465,3.0,7.0,342.0
2022-01-24-13:05:54.657461,3.0,7.0,342.0
2022-01-24-13:05:54.658459,3.0,7.0,342.0
2022-01-24-13:05:54.659768,3.0,10.0,341.0
2022-01-24-13:05:54.659768,4.0,6.0,341.0
2022-01-24-13:05:54.661765,2.0,3.0,342.0
2022-01-24-13:05:54.661765,1.0,5.0,341.0
2022-01-24-13:05:54.662793,4.0,5.0,342.0
2022-01-24-13:05:54.663784,17.0,4.0,341.0
2022-01-24-13:05:54.664781,17.0,4.0,341.0
2022-01-24-13:05:54.665780,17.0,4.0,341.0
2022-01-24-13:05:54.666778,11.0,1.0,342.0
2022-01-24-13:05:54.667792,11.0,1.0,342.0
2022-01-24-13:05:54.668793,11.0,1.0,342.0
2022-01-24-13:05:54.669790,11.0,1.0,342.0
2022-01-24-13:05:54.670786,11.0,1.0,342.0
2022-01-24-13:05:54.671783,4.0,2.0,341.0
2022-01-24-13:05:54.672887,0.0,8.0,341.0
2022-01-24-13:05:54.672887,0.0,8.0,341.0
2022-01-24-13:05:54.673932,0.0,8.0,341.0
2022-01-24-13:05:54.675104,0.0,8.0,341.0
2022-01-24-13:05:54.675104,2.0,11.0,341.0
2022-01-24-13:05:54.676151,6.0,3.0,341.0
2022-01-24-13:05:54.677148,4.0,3.0,341.0
2022-01-24-13:05:54.678123,4.0,3.0,341.0
2022-01-24-13:05:54.679097,3.0,6.0,341.0
2022-01-24-13:05:54.680140,14.0,3.0,342.0
2022-01-24-13:05:54.681139,14.0,3.0,342.0
2022-01-24-13:05:54.682135,14.0,3.0,342.0
2022-01-24-13:05:54.683133,14.0,3.0,342.0
2022-01-24-13:05:54.684129,17.0,0.0,341.0
2022-01-24-13:05:54.685127,9.0,4.0,341.0
2022-01-24-13:05:54.686126,9.0,4.0,341.0
2022-01-24-13:05:54.687125,9.0,4.0,341.0
2022-01-24-13:05:54.688119,5.0,1.0,342.0
2022-01-24-13:05:54.689118,1.0,4.0,341.0
2022-01-24-13:05:54.690118,1.0,8.0,342.0
2022-01-24-13:05:54.691110,1.0,8.0,342.0
2022-01-24-13:05:54.692108,1.0,8.0,341.0
2022-01-24-13:05:54.693106,4.0,6.0,341.0
2022-01-24-13:05:54.694110,5.0,5.0,341.0
2022-01-24-13:05:54.695100,5.0,5.0,341.0
2022-01-24-13:05:54.697096,8.0,4.0,342.0
2022-01-24-13:05:54.697096,4.0,3.0,342.0
2022-01-24-13:05:54.698072,9.0,1.0,341.0
2022-01-24-13:05:54.699068,9.0,1.0,341.0
2022-01-24-13:05:54.700066,14.0,0.0,341.0
2022-01-24-13:05:54.701064,13.0,4.0,341.0
2022-01-24-13:05:54.702062,9.0,6.0,341.0
2022-01-24-13:05:54.703058,9.0,6.0,341.0
2022-01-24-13:05:54.704055,9.0,6.0,342.0
2022-01-24-13:05:54.705052,1.0,8.0,341.0
2022-01-24-13:05:54.706051,1.0,10.0,341.0
2022-01-24-13:05:54.707047,1.0,10.0,341.0
2022-01-24-13:05:54.708045,1.0,10.0,341.0
2022-01-24-13:05:54.709042,1.0,4.0,341.0
2022-01-24-13:05:54.710040,4.0,6.0,342.0
2022-01-24-13:05:54.711011,4.0,6.0,342.0
2022-01-24-13:05:54.712032,6.0,4.0,342.0
2022-01-24-13:05:54.713033,14.0,2.0,341.0
2022-01-24-13:05:54.714030,14.0,2.0,341.0
2022-01-24-13:05:54.715000,14.0,2.0,341.0
2022-01-24-13:05:54.716024,16.0,3.0,341.0
2022-01-24-13:05:54.717022,13.0,4.0,341.0
2022-01-24-13:05:54.718018,10.0,1.0,341.0
2022-01-24-13:05:54.719015,10.0,1.0,341.0
2022-01-24-13:05:54.720017,2.0,7.0,341.0
2022-01-24-13:05:54.721010,2.0,7.0,341.0
2022-01-24-13:05:54.722008,2.0,7.0,341.0
2022-01-24-13:05:54.723004,2.0,7.0,341.0
2022-01-24-13:05:54.724001,2.0,7.0,341.0
2022-01-24-13:05:54.724999,0.0,11.0,341.0
2022-01-24-13:05:54.725998,7.0,9.0,342.0
2022-01-24-13:05:54.726993,7.0,9.0,342.0
2022-01-24-13:05:54.727991,7.0,9.0,342.0
2022-01-24-13:05:54.728981,10.0,1.0,341.0
2022-01-24-13:05:54.730959,10.0,1.0,341.0
2022-01-24-13:05:54.730959,10.0,1.0,341.0
2022-01-24-13:05:54.731981,10.0,1.0,341.0
2022-01-24-13:05:54.732979,15.0,1.0,341.0
2022-01-24-13:05:54.733976,9.0,3.0,342.0
2022-01-24-13:05:54.734970,9.0,3.0,342.0
2022-01-24-13:05:54.735973,9.0,3.0,342.0
2022-01-24-13:05:54.736965,6.0,6.0,341.0
2022-01-24-13:05:54.737966,6.0,5.0,342.0
2022-01-24-13:05:54.738962,4.0,2.0,341.0
2022-01-24-13:05:54.739960,4.0,2.0,341.0
2022-01-24-13:05:54.740931,1.0,8.0,342.0
2022-01-24-13:05:54.741928,5.0,12.0,342.0
2022-01-24-13:05:54.742950,11.0,6.0,341.0
2022-01-24-13:05:54.743951,11.0,6.0,341.0
2022-01-24-13:05:54.744946,7.0,4.0,341.0
2022-01-24-13:05:54.745931,10.0,5.0,341.0
2022-01-24-13:05:54.746996,10.0,5.0,341.0
2022-01-24-13:05:54.746996,10.0,5.0,341.0
2022-01-24-13:05:54.748051,10.0,5.0,341.0
2022-01-24-13:05:54.748993,12.0,2.0,341.0
2022-01-24-13:05:54.750048,13.0,2.0,342.0
2022-01-24-13:05:54.751082,13.0,2.0,342.0
2022-01-24-13:05:54.751082,13.0,2.0,342.0
2022-01-24-13:05:54.752276,13.0,2.0,342.0
2022-01-24-13:05:54.752276,7.0,3.0,341.0
2022-01-24-13:05:54.753276,7.0,3.0,341.0
2022-01-24-13:05:54.754273,2.0,7.0,341.0
2022-01-24-13:05:54.755296,2.0,7.0,341.0
2022-01-24-13:05:54.756292,2.0,7.0,341.0
2022-01-24-13:05:54.757289,4.0,5.0,341.0
2022-01-24-13:05:54.758288,6.0,4.0,341.0
2022-01-24-13:05:54.759283,6.0,4.0,341.0
2022-01-24-13:05:54.760283,6.0,4.0,341.0
2022-01-24-13:05:54.761278,6.0,4.0,341.0
2022-01-24-13:05:54.762276,2.0,4.0,342.0
2022-01-24-13:05:54.763275,7.0,3.0,342.0
2022-01-24-13:05:54.764246,7.0,3.0,342.0
2022-01-24-13:05:54.765268,13.0,4.0,341.0
2022-01-24-13:05:54.766266,12.0,2.0,342.0
2022-01-24-13:05:54.768250,12.0,2.0,342.0
2022-01-24-13:05:54.768250,12.0,6.0,342.0
2022-01-24-13:05:54.769258,12.0,6.0,342.0
2022-01-24-13:05:54.770255,2.0,4.0,341.0
2022-01-24-13:05:54.771253,2.0,4.0,341.0
2022-01-24-13:05:54.772249,2.0,4.0,341.0
2022-01-24-13:05:54.773247,6.0,3.0,342.0
2022-01-24-13:05:54.774245,6.0,3.0,342.0
2022-01-24-13:05:54.775241,6.0,3.0,342.0
2022-01-24-13:05:54.776243,6.0,3.0,342.0
2022-01-24-13:05:54.777406,6.0,3.0,342.0
2022-01-24-13:05:54.777604,12.0,2.0,341.0
2022-01-24-13:05:54.777604,12.0,2.0,341.0
2022-01-24-13:05:54.778660,12.0,2.0,341.0
2022-01-24-13:05:54.779659,12.0,2.0,341.0
2022-01-24-13:05:54.780871,12.0,2.0,341.0
2022-01-24-13:05:54.780871,16.0,1.0,341.0
2022-01-24-13:05:54.781894,16.0,1.0,341.0
2022-01-24-13:05:54.782896,10.0,6.0,341.0
2022-01-24-13:05:54.783889,10.0,6.0,341.0
2022-01-24-13:05:54.784887,10.0,6.0,341.0
2022-01-24-13:05:54.785886,8.0,6.0,341.0
2022-01-24-13:05:54.786882,2.0,8.0,342.0
2022-01-24-13:05:54.787879,2.0,8.0,342.0
2022-01-24-13:05:54.788852,2.0,8.0,342.0
2022-01-24-13:05:54.789874,1.0,7.0,342.0
2022-01-24-13:05:54.790873,5.0,7.0,341.0
2022-01-24-13:05:54.791868,5.0,7.0,341.0
2022-01-24-13:05:54.792848,5.0,7.0,341.0
2022-01-24-13:05:54.793866,6.0,5.0,341.0
2022-01-24-13:05:54.794837,8.0,3.0,341.0
2022-01-24-13:05:54.795834,8.0,3.0,341.0
2022-01-24-13:05:54.796830,8.0,3.0,341.0
2022-01-24-13:05:54.798825,16.0,3.0,341.0
2022-01-24-13:05:54.798825,16.0,3.0,341.0
2022-01-24-13:05:54.799822,16.0,3.0,341.0
2022-01-24-13:05:54.800820,16.0,3.0,341.0
2022-01-24-13:05:54.801817,7.0,0.0,341.0
2022-01-24-13:05:54.802814,7.0,8.0,342.0
2022-01-24-13:05:54.803812,4.0,4.0,341.0
2022-01-24-13:05:54.804809,4.0,4.0,341.0
2022-01-24-13:05:54.805807,4.0,4.0,341.0
2022-01-24-13:05:54.806804,1.0,12.0,342.0
2022-01-24-13:05:54.807801,1.0,6.0,342.0
2022-01-24-13:05:54.808799,1.0,6.0,342.0
2022-01-24-13:05:54.809795,1.0,6.0,342.0
2022-01-24-13:05:54.810793,2.0,1.0,341.0
2022-01-24-13:05:54.811790,7.0,2.0,341.0
2022-01-24-13:05:54.812847,7.0,2.0,341.0
2022-01-24-13:05:54.812847,7.0,2.0,341.0
2022-01-24-13:05:54.813903,8.0,0.0,342.0
2022-01-24-13:05:54.814902,16.0,0.0,341.0
2022-01-24-13:05:54.815898,17.0,3.0,341.0
2022-01-24-13:05:54.816901,15.0,1.0,341.0
2022-01-24-13:05:54.817899,15.0,1.0,341.0
2022-01-24-13:05:54.818890,10.0,1.0,341.0
2022-01-24-13:05:54.819888,6.0,2.0,341.0
2022-01-24-13:05:54.820884,7.0,1.0,341.0
2022-01-24-13:05:54.821888,5.0,5.0,341.0
2022-01-24-13:05:54.822880,1.0,6.0,341.0
2022-01-24-13:05:54.823848,3.0,6.0,341.0
2022-01-24-13:05:54.824845,3.0,6.0,341.0
2022-01-24-13:05:54.825872,3.0,6.0,341.0
2022-01-24-13:05:54.826842,2.0,6.0,342.0
2022-01-24-13:05:54.827867,1.0,1.0,341.0
2022-01-24-13:05:54.828808,1.0,1.0,341.0
2022-01-24-13:05:54.829859,1.0,1.0,341.0
2022-01-24-13:05:54.831855,16.0,3.0,341.0
2022-01-24-13:05:54.831855,16.0,3.0,341.0
2022-01-24-13:05:54.832853,16.0,3.0,341.0
2022-01-24-13:05:54.833831,16.0,3.0,341.0
2022-01-24-13:05:54.834817,8.0,2.0,341.0
2022-01-24-13:05:54.835845,3.0,5.0,341.0
2022-01-24-13:05:54.836842,3.0,5.0,341.0
2022-01-24-13:05:54.837839,3.0,5.0,341.0
2022-01-24-13:05:54.838838,2.0,7.0,342.0
2022-01-24-13:05:54.839834,2.0,4.0,342.0
2022-01-24-13:05:54.840774,2.0,6.0,341.0
2022-01-24-13:05:54.841772,2.0,6.0,341.0
2022-01-24-13:05:54.842769,2.0,6.0,341.0
2022-01-24-13:05:54.843794,4.0,4.0,342.0
2022-01-24-13:05:54.844764,3.0,0.0,341.0
2022-01-24-13:05:54.845763,3.0,0.0,341.0
2022-01-24-13:05:54.846816,3.0,0.0,341.0
2022-01-24-13:05:54.847813,14.0,4.0,341.0
2022-01-24-13:05:54.848811,16.0,9.0,341.0
2022-01-24-13:05:54.849808,16.0,9.0,341.0
2022-01-24-13:05:54.850804,16.0,9.0,341.0
2022-01-24-13:05:54.851803,10.0,7.0,341.0
2022-01-24-13:05:54.852769,4.0,8.0,342.0
2022-01-24-13:05:54.853798,4.0,8.0,342.0
2022-01-24-13:05:54.854795,4.0,8.0,342.0
2022-01-24-13:05:54.855761,2.0,11.0,342.0
2022-01-24-13:05:54.856759,1.0,9.0,342.0
2022-01-24-13:05:54.857756,1.0,9.0,342.0
2022-01-24-13:05:54.858757,1.0,9.0,342.0
2022-01-24-13:05:54.859751,2.0,6.0,342.0
2022-01-24-13:05:54.860748,3.0,2.0,341.0
2022-01-24-13:05:54.861719,1.0,0.0,341.0
2022-01-24-13:05:54.862774,1.0,0.0,341.0
2022-01-24-13:05:54.863769,9.0,1.0,342.0
2022-01-24-13:05:54.864738,14.0,2.0,342.0
2022-01-24-13:05:54.866705,16.0,1.0,341.0
2022-01-24-13:05:54.866705,16.0,1.0,341.0
2022-01-24-13:05:54.867703,10.0,5.0,341.0
2022-01-24-13:05:54.868727,6.0,2.0,341.0
2022-01-24-13:05:54.869753,6.0,2.0,341.0
2022-01-24-13:05:54.870752,6.0,2.0,341.0
2022-01-24-13:05:54.871747,2.0,2.0,341.0
2022-01-24-13:05:54.872747,1.0,9.0,342.0
2022-01-24-13:05:54.873748,2.0,8.0,341.0
2022-01-24-13:05:54.874684,2.0,8.0,341.0
2022-01-24-13:05:54.875738,7.0,3.0,341.0
2022-01-24-13:05:54.876711,0.0,4.0,341.0
2022-01-24-13:05:54.877731,0.0,4.0,341.0
2022-01-24-13:05:54.878731,0.0,4.0,341.0
2022-01-24-13:05:54.879727,7.0,1.0,341.0
2022-01-24-13:05:54.880723,16.0,4.0,341.0
2022-01-24-13:05:54.881723,16.0,4.0,341.0
2022-01-24-13:05:54.882718,16.0,4.0,341.0
2022-01-24-13:05:54.883715,16.0,4.0,341.0
2022-01-24-13:05:54.884711,11.0,4.0,342.0
2022-01-24-13:05:54.885709,6.0,0.0,341.0
2022-01-24-13:05:54.886710,6.0,0.0,341.0
2022-01-24-13:05:54.887649,6.0,0.0,341.0
2022-01-24-13:05:54.888703,5.0,2.0,341.0
2022-01-24-13:05:54.889701,3.0,6.0,342.0
2022-01-24-13:05:54.890697,3.0,6.0,342.0
2022-01-24-13:05:54.891695,3.0,6.0,342.0
2022-01-24-13:05:54.892670,7.0,3.0,342.0
2022-01-24-13:05:54.893689,0.0,6.0,342.0
2022-01-24-13:05:54.894630,0.0,6.0,342.0
2022-01-24-13:05:54.895630,0.0,6.0,342.0
2022-01-24-13:05:54.896681,4.0,2.0,341.0
2022-01-24-13:05:54.897680,16.0,1.0,341.0
2022-01-24-13:05:54.898674,16.0,1.0,341.0
2022-01-24-13:05:54.899617,16.0,1.0,341.0
2022-01-24-13:05:54.900615,9.0,1.0,342.0
2022-01-24-13:05:54.901646,9.0,3.0,341.0
2022-01-24-13:05:54.903606,9.0,3.0,341.0
2022-01-24-13:05:54.903606,2.0,6.0,342.0
2022-01-24-13:05:54.904638,0.0,10.0,342.0
2022-01-24-13:05:54.905638,0.0,10.0,342.0
2022-01-24-13:05:54.906641,0.0,10.0,342.0
2022-01-24-13:05:54.907616,0.0,10.0,342.0
2022-01-24-13:05:54.908627,1.0,10.0,341.0
2022-01-24-13:05:54.909625,1.0,3.0,341.0
2022-01-24-13:05:54.910622,5.0,0.0,342.0
2022-01-24-13:05:54.911632,5.0,0.0,342.0
2022-01-24-13:05:54.912584,2.0,4.0,341.0
2022-01-24-13:05:54.913614,16.0,2.0,341.0
2022-01-24-13:05:54.914631,16.0,2.0,341.0
2022-01-24-13:05:54.915630,16.0,2.0,341.0
2022-01-24-13:05:54.916626,16.0,2.0,341.0
2022-01-24-13:05:54.917624,14.0,3.0,341.0
2022-01-24-13:05:54.918621,11.0,2.0,341.0
2022-01-24-13:05:54.919565,5.0,6.0,342.0
2022-01-24-13:05:54.920617,5.0,6.0,342.0
2022-01-24-13:05:54.921558,2.0,8.0,342.0
2022-01-24-13:05:54.922555,3.0,9.0,341.0
2022-01-24-13:05:54.923552,3.0,7.0,341.0
2022-01-24-13:05:54.924550,3.0,7.0,341.0
2022-01-24-13:05:54.925547,0.0,9.0,341.0
2022-01-24-13:05:54.926545,7.0,6.0,341.0
2022-01-24-13:05:54.927542,3.0,4.0,341.0
2022-01-24-13:05:54.928575,3.0,4.0,341.0
2022-01-24-13:05:54.929571,2.0,0.0,341.0
2022-01-24-13:05:54.930571,11.0,6.0,341.0
2022-01-24-13:05:54.931532,10.0,3.0,342.0
2022-01-24-13:05:54.932570,10.0,3.0,342.0
2022-01-24-13:05:54.933561,14.0,5.0,341.0
2022-01-24-13:05:54.934558,14.0,5.0,341.0
2022-01-24-13:05:54.935554,5.0,5.0,341.0
2022-01-24-13:05:54.937516,5.0,5.0,341.0
2022-01-24-13:05:54.937516,6.0,7.0,341.0
2022-01-24-13:05:54.938545,2.0,10.0,341.0
2022-01-24-13:05:54.939548,1.0,8.0,341.0
2022-01-24-13:05:54.940678,1.0,8.0,341.0
2022-01-24-13:05:54.940678,0.0,10.0,341.0
2022-01-24-13:05:54.941732,3.0,8.0,342.0
2022-01-24-13:05:54.942731,3.0,3.0,342.0
2022-01-24-13:05:54.943727,3.0,3.0,342.0
2022-01-24-13:05:54.944728,3.0,3.0,342.0
2022-01-24-13:05:54.945713,5.0,0.0,341.0
2022-01-24-13:05:54.946812,11.0,6.0,342.0
2022-01-24-13:05:54.946812,11.0,6.0,342.0
2022-01-24-13:05:54.947838,11.0,6.0,342.0
2022-01-24-13:05:54.948838,11.0,6.0,342.0
2022-01-24-13:05:54.949831,15.0,4.0,341.0
2022-01-24-13:05:54.950806,17.0,3.0,342.0
2022-01-24-13:05:54.951827,10.0,6.0,342.0
2022-01-24-13:05:54.952800,10.0,6.0,342.0
2022-01-24-13:05:54.953798,2.0,9.0,341.0
2022-01-24-13:05:54.955075,1.0,6.0,341.0
2022-01-24-13:05:54.955348,1.0,6.0,341.0
2022-01-24-13:05:54.955348,1.0,6.0,341.0
2022-01-24-13:05:54.956394,1.0,6.0,341.0
2022-01-24-13:05:54.957393,1.0,6.0,341.0
2022-01-24-13:05:54.958389,4.0,7.0,341.0
2022-01-24-13:05:54.959587,2.0,6.0,342.0
2022-01-24-13:05:54.959736,7.0,6.0,342.0
2022-01-24-13:05:54.959736,7.0,6.0,342.0
2022-01-24-13:05:54.960930,7.0,6.0,342.0
2022-01-24-13:05:54.960930,2.0,2.0,341.0
2022-01-24-13:05:54.961984,7.0,2.0,341.0
2022-01-24-13:05:54.962927,9.0,5.0,341.0
2022-01-24-13:05:54.963980,9.0,5.0,341.0
2022-01-24-13:05:54.964921,9.0,5.0,341.0
2022-01-24-13:05:54.965977,15.0,3.0,342.0
2022-01-24-13:05:54.966973,8.0,3.0,342.0
2022-01-24-13:05:54.967968,8.0,3.0,342.0
2022-01-24-13:05:54.968957,8.0,3.0,342.0
2022-01-24-13:05:54.969965,7.0,4.0,342.0
2022-01-24-13:05:54.970961,4.0,6.0,342.0
2022-01-24-13:05:54.972956,4.0,7.0,341.0
2022-01-24-13:05:54.972956,1.0,9.0,341.0
2022-01-24-13:05:54.973951,3.0,11.0,341.0
2022-01-24-13:05:54.975037,5.0,9.0,342.0
2022-01-24-13:05:54.975037,5.0,9.0,342.0
2022-01-24-13:05:54.976094,5.0,9.0,342.0
2022-01-24-13:05:54.977081,5.0,9.0,342.0
2022-01-24-13:05:54.978078,5.0,3.0,342.0
2022-01-24-13:05:54.979029,7.0,1.0,341.0
2022-01-24-13:05:54.980056,7.0,2.0,341.0
2022-01-24-13:05:54.981073,7.0,2.0,341.0
2022-01-24-13:05:54.982067,7.0,2.0,341.0
2022-01-24-13:05:54.983223,13.0,5.0,341.0
2022-01-24-13:05:54.983223,17.0,2.0,341.0
2022-01-24-13:05:54.984280,11.0,3.0,342.0
2022-01-24-13:05:54.985275,10.0,4.0,341.0
2022-01-24-13:05:54.986271,6.0,1.0,341.0
2022-01-24-13:05:54.987270,1.0,2.0,341.0
2022-01-24-13:05:54.988267,1.0,2.0,341.0
2022-01-24-13:05:54.989264,1.0,2.0,341.0
2022-01-24-13:05:54.990261,1.0,2.0,341.0
2022-01-24-13:05:54.991250,0.0,5.0,341.0
2022-01-24-13:05:54.992251,3.0,2.0,341.0
2022-01-24-13:05:54.993245,3.0,2.0,341.0
2022-01-24-13:05:54.994242,3.0,2.0,341.0
2022-01-24-13:05:54.995239,2.0,3.0,341.0
2022-01-24-13:05:54.996237,8.0,0.0,341.0
2022-01-24-13:05:54.997234,7.0,1.0,341.0
2022-01-24-13:05:54.998211,7.0,1.0,341.0
2022-01-24-13:05:54.999229,12.0,1.0,341.0
2022-01-24-13:05:55.000230,13.0,10.0,341.0
2022-01-24-13:05:55.001224,7.0,5.0,341.0
2022-01-24-13:05:55.002221,7.0,5.0,341.0
2022-01-24-13:05:55.003218,4.0,7.0,341.0
2022-01-24-13:05:55.004215,3.0,9.0,342.0
2022-01-24-13:05:55.006211,3.0,9.0,342.0
2022-01-24-13:05:55.006211,1.0,5.0,341.0
2022-01-24-13:05:55.007162,0.0,5.0,341.0
2022-01-24-13:05:55.008210,3.0,8.0,342.0
2022-01-24-13:05:55.009202,3.0,8.0,342.0
2022-01-24-13:05:55.010200,3.0,8.0,342.0
2022-01-24-13:05:55.011197,4.0,3.0,342.0
2022-01-24-13:05:55.012194,7.0,3.0,341.0
2022-01-24-13:05:55.013191,10.0,4.0,341.0
2022-01-24-13:05:55.014143,10.0,4.0,341.0
2022-01-24-13:05:55.015190,16.0,1.0,341.0
2022-01-24-13:05:55.016187,17.0,1.0,342.0
2022-01-24-13:05:55.017182,12.0,2.0,341.0
2022-01-24-13:05:55.018132,12.0,2.0,341.0
2022-01-24-13:05:55.019176,9.0,5.0,341.0
2022-01-24-13:05:55.020175,9.0,5.0,341.0
2022-01-24-13:05:55.021170,5.0,7.0,341.0
2022-01-24-13:05:55.022168,5.0,7.0,341.0
2022-01-24-13:05:55.023171,3.0,6.0,342.0
2022-01-24-13:05:55.024166,0.0,9.0,341.0
2022-01-24-13:05:55.025160,6.0,9.0,342.0
2022-01-24-13:05:55.026159,6.0,9.0,342.0
2022-01-24-13:05:55.027155,6.0,9.0,342.0
2022-01-24-13:05:55.028152,3.0,1.0,342.0
2022-01-24-13:05:55.029129,6.0,1.0,341.0
2022-01-24-13:05:55.030147,6.0,1.0,341.0
2022-01-24-13:05:55.031144,6.0,1.0,341.0
2022-01-24-13:05:55.032144,10.0,0.0,341.0
2022-01-24-13:05:55.033139,16.0,1.0,341.0
2022-01-24-13:05:55.034138,9.0,0.0,341.0
2022-01-24-13:05:55.035133,9.0,0.0,341.0
2022-01-24-13:05:55.036170,8.0,1.0,341.0
2022-01-24-13:05:55.036170,8.0,2.0,341.0
2022-01-24-13:05:55.038167,2.0,14.0,342.0
2022-01-24-13:05:55.038167,2.0,14.0,342.0
2022-01-24-13:05:55.039218,2.0,14.0,342.0
2022-01-24-13:05:55.040216,5.0,5.0,341.0
2022-01-24-13:05:55.041322,5.0,5.0,341.0
2022-01-24-13:05:55.041322,5.0,5.0,341.0
2022-01-24-13:05:55.042378,5.0,5.0,341.0
2022-01-24-13:05:55.043374,5.0,5.0,341.0
2022-01-24-13:05:55.044370,4.0,4.0,342.0
2022-01-24-13:05:55.045315,7.0,2.0,341.0
2022-01-24-13:05:55.046311,7.0,2.0,341.0
2022-01-24-13:05:55.047342,7.0,2.0,341.0
2022-01-24-13:05:55.048307,18.0,1.0,341.0
2022-01-24-13:05:55.049304,14.0,1.0,341.0
2022-01-24-13:05:55.050301,14.0,1.0,341.0
2022-01-24-13:05:55.051299,14.0,1.0,341.0
2022-01-24-13:05:55.052296,9.0,2.0,342.0
2022-01-24-13:05:55.053293,4.0,7.0,342.0
2022-01-24-13:05:55.054291,6.0,3.0,341.0
2022-01-24-13:05:55.055320,6.0,3.0,341.0
2022-01-24-13:05:55.056285,6.0,3.0,341.0
2022-01-24-13:05:55.057283,2.0,5.0,341.0
2022-01-24-13:05:55.058280,2.0,5.0,341.0
2022-01-24-13:05:55.059277,2.0,5.0,341.0
2022-01-24-13:05:55.060275,2.0,2.0,342.0
2022-01-24-13:05:55.061272,4.0,1.0,341.0
2022-01-24-13:05:55.062269,4.0,1.0,341.0
2022-01-24-13:05:55.063267,4.0,1.0,341.0
2022-01-24-13:05:55.064297,9.0,1.0,341.0
2022-01-24-13:05:55.065261,16.0,7.0,342.0
2022-01-24-13:05:55.066259,16.0,7.0,342.0
2022-01-24-13:05:55.067256,16.0,7.0,342.0
2022-01-24-13:05:55.068253,8.0,4.0,341.0
2022-01-24-13:05:55.069251,6.0,6.0,341.0
2022-01-24-13:05:55.070248,6.0,6.0,341.0
2022-01-24-13:05:55.072242,6.0,6.0,341.0
2022-01-24-13:05:55.072242,3.0,2.0,341.0
2022-01-24-13:05:55.073239,3.0,10.0,342.0
2022-01-24-13:05:55.074235,1.0,10.0,341.0
2022-01-24-13:05:55.075234,1.0,10.0,341.0
2022-01-24-13:05:55.076264,1.0,10.0,341.0
2022-01-24-13:05:55.077228,11.0,9.0,341.0
2022-01-24-13:05:55.078226,0.0,2.0,341.0
2022-01-24-13:05:55.079256,6.0,0.0,342.0
2022-01-24-13:05:55.080221,6.0,0.0,342.0
2022-01-24-13:05:55.081218,6.0,1.0,341.0
2022-01-24-13:05:55.082215,8.0,1.0,341.0
2022-01-24-13:05:55.083212,14.0,1.0,342.0
2022-01-24-13:05:55.084209,14.0,1.0,342.0
2022-01-24-13:05:55.085207,12.0,0.0,342.0
2022-01-24-13:05:55.086204,7.0,4.0,341.0
2022-01-24-13:05:55.087201,6.0,1.0,342.0
2022-01-24-13:05:55.088199,6.0,1.0,342.0
2022-01-24-13:05:55.089197,6.0,1.0,342.0
2022-01-24-13:05:55.090222,3.0,1.0,341.0
2022-01-24-13:05:55.091217,2.0,8.0,341.0
2022-01-24-13:05:55.092192,3.0,14.0,341.0
2022-01-24-13:05:55.093241,4.0,4.0,342.0
2022-01-24-13:05:55.094452,6.0,5.0,342.0
2022-01-24-13:05:55.094452,5.0,2.0,341.0
2022-01-24-13:05:55.095618,5.0,2.0,341.0
2022-01-24-13:05:55.095618,5.0,2.0,341.0
2022-01-24-13:05:55.096677,5.0,2.0,341.0
2022-01-24-13:05:55.097888,5.0,3.0,342.0
2022-01-24-13:05:55.097888,10.0,1.0,341.0
2022-01-24-13:05:55.098933,15.0,2.0,341.0
2022-01-24-13:05:55.099993,15.0,2.0,341.0
2022-01-24-13:05:55.100979,15.0,2.0,341.0
2022-01-24-13:05:55.102184,12.0,3.0,342.0
2022-01-24-13:05:55.102184,8.0,0.0,342.0
2022-01-24-13:05:55.103239,2.0,7.0,341.0
2022-01-24-13:05:55.104181,2.0,7.0,341.0
2022-01-24-13:05:55.105233,0.0,7.0,341.0
2022-01-24-13:05:55.106234,2.0,9.0,341.0
2022-01-24-13:05:55.108171,2.0,9.0,341.0
2022-01-24-13:05:55.108171,2.0,1.0,342.0
2022-01-24-13:05:55.109199,3.0,2.0,342.0
2022-01-24-13:05:55.110199,3.0,2.0,342.0
2022-01-24-13:05:55.111194,3.0,2.0,342.0
2022-01-24-13:05:55.112192,3.0,2.0,342.0
2022-01-24-13:05:55.113191,3.0,2.0,342.0
2022-01-24-13:05:55.114190,8.0,3.0,341.0
2022-01-24-13:05:55.115183,11.0,4.0,341.0
2022-01-24-13:05:55.116240,11.0,4.0,341.0
2022-01-24-13:05:55.116240,11.0,4.0,341.0
2022-01-24-13:05:55.117296,11.0,4.0,341.0
2022-01-24-13:05:55.118297,14.0,3.0,341.0
2022-01-24-13:05:55.119290,11.0,4.0,341.0
2022-01-24-13:05:55.120322,5.0,6.0,342.0
2022-01-24-13:05:55.120322,5.0,6.0,342.0
2022-01-24-13:05:55.121353,1.0,14.0,341.0
2022-01-24-13:05:55.122350,2.0,13.0,341.0
2022-01-24-13:05:55.123351,2.0,13.0,341.0
2022-01-24-13:05:55.124313,2.0,13.0,341.0
2022-01-24-13:05:55.125310,2.0,13.0,341.0
2022-01-24-13:05:55.126327,7.0,7.0,342.0
2022-01-24-13:05:55.127340,0.0,2.0,341.0
2022-01-24-13:05:55.128356,0.0,2.0,341.0
2022-01-24-13:05:55.129324,0.0,2.0,341.0
2022-01-24-13:05:55.130353,2.0,1.0,342.0
2022-01-24-13:05:55.131353,12.0,1.0,341.0
2022-01-24-13:05:55.132350,14.0,2.0,341.0
2022-01-24-13:05:55.133343,14.0,2.0,341.0
2022-01-24-13:05:55.134333,13.0,0.0,341.0
2022-01-24-13:05:55.135331,7.0,2.0,341.0
2022-01-24-13:05:55.136328,4.0,4.0,341.0
2022-01-24-13:05:55.137326,4.0,4.0,341.0
2022-01-24-13:05:55.138323,2.0,12.0,342.0
2022-01-24-13:05:55.140295,2.0,12.0,342.0
2022-01-24-13:05:55.140295,2.0,12.0,342.0
2022-01-24-13:05:55.141321,2.0,12.0,342.0
2022-01-24-13:05:55.142436,2.0,3.0,341.0
2022-01-24-13:05:55.142436,2.0,3.0,341.0
2022-01-24-13:05:55.143492,2.0,3.0,341.0
2022-01-24-13:05:55.144490,2.0,3.0,341.0
2022-01-24-13:05:55.145488,2.0,3.0,341.0
2022-01-24-13:05:55.146640,2.0,5.0,341.0
2022-01-24-13:05:55.146640,12.0,3.0,342.0
2022-01-24-13:05:55.147688,17.0,1.0,342.0
2022-01-24-13:05:55.148684,17.0,1.0,342.0
2022-01-24-13:05:55.149682,17.0,1.0,342.0
2022-01-24-13:05:55.150680,14.0,2.0,342.0
2022-01-24-13:05:55.151676,12.0,3.0,342.0
2022-01-24-13:05:55.152674,7.0,2.0,342.0
2022-01-24-13:05:55.153672,7.0,2.0,342.0
2022-01-24-13:05:55.154669,4.0,7.0,342.0
2022-01-24-13:05:55.155666,2.0,9.0,342.0
2022-01-24-13:05:55.156663,2.0,10.0,342.0
2022-01-24-13:05:55.157661,2.0,10.0,342.0
2022-01-24-13:05:55.158659,2.0,10.0,342.0
2022-01-24-13:05:55.159655,8.0,9.0,342.0
2022-01-24-13:05:55.160652,6.0,8.0,341.0
2022-01-24-13:05:55.161602,6.0,8.0,341.0
2022-01-24-13:05:55.162603,1.0,5.0,342.0
2022-01-24-13:05:55.163646,2.0,2.0,342.0
2022-01-24-13:05:55.164642,5.0,0.0,342.0
2022-01-24-13:05:55.165601,12.0,3.0,341.0
2022-01-24-13:05:55.166637,15.0,1.0,341.0
2022-01-24-13:05:55.167634,9.0,2.0,341.0
2022-01-24-13:05:55.168636,11.0,2.0,341.0
2022-01-24-13:05:55.169629,11.0,2.0,341.0
2022-01-24-13:05:55.170626,5.0,4.0,341.0
2022-01-24-13:05:55.171623,5.0,4.0,341.0
2022-01-24-13:05:55.173622,2.0,3.0,342.0
2022-01-24-13:05:55.173622,0.0,7.0,341.0
2022-01-24-13:05:55.174706,2.0,4.0,341.0
2022-01-24-13:05:55.174706,2.0,4.0,341.0
2022-01-24-13:05:55.175752,2.0,4.0,341.0
2022-01-24-13:05:55.176750,2.0,4.0,341.0
2022-01-24-13:05:55.177747,2.0,4.0,341.0
2022-01-24-13:05:55.178747,2.0,4.0,341.0
2022-01-24-13:05:55.179906,1.0,3.0,342.0
2022-01-24-13:05:55.179906,5.0,1.0,341.0
2022-01-24-13:05:55.180954,7.0,2.0,341.0
2022-01-24-13:05:55.181949,7.0,2.0,341.0
2022-01-24-13:05:55.182949,17.0,3.0,341.0
2022-01-24-13:05:55.183947,10.0,3.0,342.0
2022-01-24-13:05:55.184946,7.0,3.0,342.0
2022-01-24-13:05:55.185939,7.0,3.0,342.0
2022-01-24-13:05:55.186918,4.0,0.0,341.0
2022-01-24-13:05:55.187933,1.0,7.0,341.0
2022-01-24-13:05:55.188936,1.0,7.0,341.0
2022-01-24-13:05:55.189933,1.0,7.0,341.0
2022-01-24-13:05:55.190926,4.0,11.0,342.0
2022-01-24-13:05:55.191923,3.0,8.0,341.0
2022-01-24-13:05:55.192920,3.0,8.0,341.0
2022-01-24-13:05:55.193917,3.0,8.0,341.0
2022-01-24-13:05:55.194921,3.0,8.0,341.0
2022-01-24-13:05:55.195877,5.0,2.0,342.0
2022-01-24-13:05:55.196909,5.0,4.0,341.0
2022-01-24-13:05:55.197906,11.0,5.0,342.0
2022-01-24-13:05:55.198906,11.0,5.0,342.0
2022-01-24-13:05:55.199902,14.0,1.0,342.0
2022-01-24-13:05:55.200899,12.0,2.0,342.0
2022-01-24-13:05:55.201896,6.0,2.0,342.0
2022-01-24-13:05:55.202846,6.0,2.0,342.0
2022-01-24-13:05:55.203893,4.0,6.0,342.0
2022-01-24-13:05:55.204930,3.0,12.0,341.0
2022-01-24-13:05:55.204930,1.0,12.0,341.0
2022-01-24-13:05:55.206927,1.0,12.0,341.0
2022-01-24-13:05:55.206927,1.0,12.0,341.0
2022-01-24-13:05:55.207981,1.0,13.0,341.0
2022-01-24-13:05:55.209016,5.0,12.0,341.0
2022-01-24-13:05:55.209289,4.0,2.0,341.0
2022-01-24-13:05:55.209289,4.0,2.0,341.0
2022-01-24-13:05:55.210336,4.0,2.0,341.0
2022-01-24-13:05:55.211503,4.0,2.0,341.0
2022-01-24-13:05:55.211503,1.0,0.0,341.0
2022-01-24-13:05:55.212528,13.0,2.0,341.0
2022-01-24-13:05:55.213547,16.0,4.0,342.0
2022-01-24-13:05:55.214544,16.0,4.0,342.0
2022-01-24-13:05:55.215542,16.0,4.0,342.0
2022-01-24-13:05:55.216538,16.0,1.0,341.0
2022-01-24-13:05:55.217536,12.0,2.0,341.0
2022-01-24-13:05:55.218532,12.0,2.0,341.0
2022-01-24-13:05:55.219531,12.0,2.0,341.0
2022-01-24-13:05:55.220530,8.0,4.0,341.0
2022-01-24-13:05:55.221526,0.0,6.0,341.0
2022-01-24-13:05:55.222523,2.0,10.0,342.0
2022-01-24-13:05:55.223520,2.0,10.0,342.0
2022-01-24-13:05:55.224516,3.0,5.0,341.0
2022-01-24-13:05:55.225517,3.0,5.0,341.0
2022-01-24-13:05:55.226511,3.0,5.0,341.0
2022-01-24-13:05:55.227510,3.0,5.0,341.0
2022-01-24-13:05:55.228509,0.0,2.0,341.0
2022-01-24-13:05:55.229471,9.0,1.0,341.0
2022-01-24-13:05:55.230601,11.0,2.0,341.0
2022-01-24-13:05:55.230601,11.0,2.0,341.0
2022-01-24-13:05:55.231649,11.0,2.0,341.0
2022-01-24-13:05:55.232648,17.0,1.0,341.0
2022-01-24-13:05:55.233597,7.0,4.0,341.0
2022-01-24-13:05:55.234620,7.0,4.0,341.0
2022-01-24-13:05:55.235637,7.0,4.0,341.0
2022-01-24-13:05:55.236635,4.0,5.0,341.0
2022-01-24-13:05:55.237630,0.0,5.0,341.0
2022-01-24-13:05:55.238629,0.0,5.0,341.0
2022-01-24-13:05:55.239867,0.0,5.0,341.0
2022-01-24-13:05:55.239867,2.0,9.0,341.0
2022-01-24-13:05:55.241911,7.0,0.0,341.0
2022-01-24-13:05:55.241911,7.0,0.0,341.0
2022-01-24-13:05:55.243029,7.0,0.0,341.0
2022-01-24-13:05:55.243029,7.0,0.0,341.0
2022-01-24-13:05:55.244264,7.0,0.0,341.0
2022-01-24-13:05:55.244264,3.0,3.0,341.0
2022-01-24-13:05:55.245318,0.0,3.0,341.0
2022-01-24-13:05:55.246426,8.0,2.0,341.0
2022-01-24-13:05:55.246426,8.0,2.0,341.0
2022-01-24-13:05:55.247472,8.0,2.0,341.0
2022-01-24-13:05:55.248469,8.0,2.0,341.0
2022-01-24-13:05:55.249473,13.0,3.0,341.0
2022-01-24-13:05:55.250465,13.0,3.0,341.0
2022-01-24-13:05:55.251464,13.0,3.0,341.0
2022-01-24-13:05:55.252699,13.0,3.0,341.0
2022-01-24-13:05:55.252699,4.0,8.0,341.0
2022-01-24-13:05:55.253753,4.0,11.0,342.0
2022-01-24-13:05:55.254786,4.0,11.0,342.0
2022-01-24-13:05:55.254786,4.0,11.0,342.0
2022-01-24-13:05:55.255825,4.0,11.0,342.0
2022-01-24-13:05:55.257040,4.0,11.0,342.0
2022-01-24-13:05:55.257040,5.0,7.0,341.0
2022-01-24-13:05:55.258095,5.0,7.0,341.0
2022-01-24-13:05:55.259091,5.0,7.0,341.0
2022-01-24-13:05:55.260090,5.0,7.0,341.0
2022-01-24-13:05:55.261086,3.0,3.0,341.0
2022-01-24-13:05:55.262085,3.0,2.0,342.0
2022-01-24-13:05:55.263027,7.0,4.0,341.0
2022-01-24-13:05:55.264024,7.0,4.0,341.0
2022-01-24-13:05:55.265056,16.0,1.0,342.0
2022-01-24-13:05:55.266073,8.0,1.0,341.0
2022-01-24-13:05:55.267075,8.0,1.0,341.0
2022-01-24-13:05:55.268013,8.0,1.0,341.0
2022-01-24-13:05:55.269123,8.0,1.0,341.0
2022-01-24-13:05:55.269123,4.0,5.0,342.0
2022-01-24-13:05:55.270170,3.0,3.0,341.0
2022-01-24-13:05:55.271170,3.0,3.0,341.0
2022-01-24-13:05:55.272157,3.0,3.0,341.0
2022-01-24-13:05:55.273484,4.0,6.0,341.0
2022-01-24-13:05:55.273484,4.0,5.0,342.0
2022-01-24-13:05:55.275481,4.0,5.0,342.0
2022-01-24-13:05:55.275481,4.0,5.0,342.0
2022-01-24-13:05:55.276512,4.0,5.0,342.0
2022-01-24-13:05:55.277753,5.0,5.0,341.0
2022-01-24-13:05:55.277753,4.0,1.0,341.0
2022-01-24-13:05:55.278809,8.0,1.0,341.0
2022-01-24-13:05:55.279806,8.0,1.0,341.0
2022-01-24-13:05:55.280782,8.0,1.0,341.0
2022-01-24-13:05:55.281802,11.0,5.0,342.0
2022-01-24-13:05:55.282797,17.0,8.0,341.0
2022-01-24-13:05:55.283796,15.0,6.0,341.0
2022-01-24-13:05:55.284794,15.0,6.0,341.0
2022-01-24-13:05:55.285789,13.0,3.0,341.0
2022-01-24-13:05:55.286788,3.0,5.0,341.0
2022-01-24-13:05:55.287784,3.0,5.0,341.0
2022-01-24-13:05:55.288781,3.0,5.0,341.0
2022-01-24-13:05:55.289773,2.0,5.0,341.0
2022-01-24-13:05:55.290777,3.0,8.0,341.0
2022-01-24-13:05:55.291766,3.0,8.0,341.0
2022-01-24-13:05:55.292716,3.0,8.0,341.0
2022-01-24-13:05:55.293764,9.0,10.0,341.0
2022-01-24-13:05:55.294765,4.0,1.0,341.0
2022-01-24-13:05:55.295755,6.0,1.0,342.0
2022-01-24-13:05:55.296705,6.0,1.0,342.0
2022-01-24-13:05:55.297752,9.0,0.0,342.0
2022-01-24-13:05:55.298747,21.0,4.0,342.0
2022-01-24-13:05:55.299746,13.0,0.0,341.0
2022-01-24-13:05:55.300747,13.0,0.0,341.0
2022-01-24-13:05:55.301739,12.0,2.0,342.0
2022-01-24-13:05:55.302737,4.0,2.0,341.0
2022-01-24-13:05:55.303734,3.0,9.0,341.0
2022-01-24-13:05:55.304730,3.0,9.0,341.0
2022-01-24-13:05:55.305731,1.0,10.0,341.0
2022-01-24-13:05:55.306818,1.0,9.0,342.0
2022-01-24-13:05:55.306818,1.0,9.0,342.0
2022-01-24-13:05:55.308815,1.0,9.0,342.0
2022-01-24-13:05:55.308815,3.0,5.0,342.0
2022-01-24-13:05:55.309905,2.0,4.0,341.0
2022-01-24-13:05:55.309905,4.0,3.0,342.0
2022-01-24-13:05:55.310961,4.0,3.0,342.0
2022-01-24-13:05:55.311940,4.0,3.0,342.0
2022-01-24-13:05:55.312908,4.0,3.0,342.0
2022-01-24-13:05:55.313952,4.0,3.0,342.0
2022-01-24-13:05:55.314954,6.0,2.0,341.0
2022-01-24-13:05:55.315986,18.0,1.0,341.0
2022-01-24-13:05:55.315986,16.0,1.0,342.0
2022-01-24-13:05:55.317036,16.0,1.0,342.0
2022-01-24-13:05:55.318029,16.0,1.0,342.0
2022-01-24-13:05:55.319031,11.0,0.0,341.0
2022-01-24-13:05:55.320129,2.0,7.0,341.0
2022-01-24-13:05:55.320129,2.0,7.0,341.0
2022-01-24-13:05:55.321176,2.0,7.0,341.0
2022-01-24-13:05:55.322494,2.0,7.0,341.0
2022-01-24-13:05:55.322494,4.0,13.0,341.0
2022-01-24-13:05:55.323541,2.0,16.0,341.0
2022-01-24-13:05:55.324540,2.0,16.0,341.0
2022-01-24-13:05:55.325488,2.0,16.0,341.0
2022-01-24-13:05:55.326533,8.0,8.0,342.0
2022-01-24-13:05:55.327533,5.0,2.0,341.0
2022-01-24-13:05:55.328528,2.0,1.0,341.0
2022-01-24-13:05:55.329478,2.0,1.0,341.0
2022-01-24-13:05:55.330500,3.0,1.0,341.0
2022-01-24-13:05:55.331520,15.0,5.0,341.0
2022-01-24-13:05:55.332518,16.0,4.0,342.0
2022-01-24-13:05:55.333515,16.0,4.0,342.0
2022-01-24-13:05:55.334514,16.0,4.0,342.0
2022-01-24-13:05:55.335512,6.0,2.0,342.0
2022-01-24-13:05:55.336507,6.0,6.0,341.0
2022-01-24-13:05:55.337503,6.0,6.0,341.0
2022-01-24-13:05:55.338504,6.0,6.0,341.0
2022-01-24-13:05:55.339499,4.0,4.0,342.0
2022-01-24-13:05:55.340496,1.0,4.0,342.0
2022-01-24-13:05:55.341494,0.0,4.0,341.0
2022-01-24-13:05:55.342492,0.0,4.0,341.0
2022-01-24-13:05:55.344486,3.0,0.0,341.0
2022-01-24-13:05:55.344486,1.0,0.0,341.0
2022-01-24-13:05:55.345483,1.0,0.0,341.0
2022-01-24-13:05:55.346484,1.0,0.0,341.0
2022-01-24-13:05:55.347480,5.0,0.0,342.0
2022-01-24-13:05:55.348476,17.0,2.0,341.0
2022-01-24-13:05:55.349472,14.0,7.0,341.0
2022-01-24-13:05:55.350469,14.0,7.0,341.0
2022-01-24-13:05:55.351469,12.0,4.0,342.0
2022-01-24-13:05:55.352464,9.0,4.0,341.0
2022-01-24-13:05:55.353460,4.0,1.0,342.0
2022-01-24-13:05:55.354461,4.0,1.0,342.0
2022-01-24-13:05:55.355456,4.0,1.0,341.0
2022-01-24-13:05:55.356488,0.0,7.0,342.0
2022-01-24-13:05:55.356488,2.0,7.0,341.0
2022-01-24-13:05:55.357520,2.0,7.0,341.0
2022-01-24-13:05:55.358519,2.0,7.0,341.0
2022-01-24-13:05:55.359515,3.0,4.0,341.0
2022-01-24-13:05:55.360512,2.0,6.0,341.0
2022-01-24-13:05:55.361511,2.0,1.0,341.0
2022-01-24-13:05:55.362567,2.0,1.0,341.0
2022-01-24-13:05:55.362567,5.0,5.0,342.0
2022-01-24-13:05:55.363568,16.0,5.0,341.0
2022-01-24-13:05:55.364616,16.0,5.0,341.0
2022-01-24-13:05:55.365609,16.0,5.0,341.0
2022-01-24-13:05:55.366763,16.0,5.0,341.0
2022-01-24-13:05:55.366763,16.0,1.0,341.0
2022-01-24-13:05:55.367811,7.0,3.0,341.0
2022-01-24-13:05:55.368809,8.0,3.0,341.0
2022-01-24-13:05:55.369809,8.0,3.0,341.0
2022-01-24-13:05:55.370803,8.0,3.0,341.0
2022-01-24-13:05:55.371800,1.0,5.0,342.0
2022-01-24-13:05:55.372797,2.0,8.0,341.0
2022-01-24-13:05:55.373775,2.0,11.0,342.0
2022-01-24-13:05:55.375797,2.0,11.0,342.0
2022-01-24-13:05:55.375797,7.0,1.0,341.0
2022-01-24-13:05:55.376794,7.0,1.0,341.0
2022-01-24-13:05:55.377788,7.0,1.0,341.0
2022-01-24-13:05:55.378734,7.0,1.0,341.0
2022-01-24-13:05:55.379778,1.0,2.0,341.0
2022-01-24-13:05:55.380776,7.0,1.0,341.0
2022-01-24-13:05:55.381773,17.0,5.0,341.0
2022-01-24-13:05:55.382723,17.0,5.0,341.0
2022-01-24-13:05:55.383773,16.0,1.0,342.0
2022-01-24-13:05:55.384768,9.0,2.0,341.0
2022-01-24-13:05:55.385761,4.0,4.0,341.0
2022-01-24-13:05:55.386760,4.0,4.0,341.0
2022-01-24-13:05:55.387757,7.0,6.0,341.0
2022-01-24-13:05:55.388754,3.0,6.0,342.0
2022-01-24-13:05:55.389752,2.0,8.0,342.0
2022-01-24-13:05:55.390734,2.0,8.0,342.0
2022-01-24-13:05:55.391747,2.0,8.0,342.0
2022-01-24-13:05:55.392744,3.0,10.0,341.0
2022-01-24-13:05:55.393745,3.0,5.0,342.0
2022-01-24-13:05:55.394738,3.0,5.0,342.0
2022-01-24-13:05:55.395737,3.0,5.0,342.0
2022-01-24-13:05:55.396735,2.0,0.0,342.0
2022-01-24-13:05:55.397730,10.0,1.0,342.0
2022-01-24-13:05:55.398728,18.0,1.0,341.0
2022-01-24-13:05:55.399725,18.0,1.0,341.0
2022-01-24-13:05:55.400722,18.0,2.0,341.0
2022-01-24-13:05:55.401724,7.0,4.0,342.0
2022-01-24-13:05:55.402717,6.0,7.0,342.0
2022-01-24-13:05:55.403716,6.0,7.0,342.0
2022-01-24-13:05:55.404712,2.0,7.0,342.0
2022-01-24-13:05:55.405709,1.0,9.0,341.0
2022-01-24-13:05:55.406705,0.0,6.0,341.0
2022-01-24-13:05:55.407704,0.0,6.0,341.0
2022-01-24-13:05:55.408700,1.0,10.0,341.0
2022-01-24-13:05:55.409696,3.0,2.0,341.0
2022-01-24-13:05:55.411695,3.0,2.0,341.0
2022-01-24-13:05:55.411695,2.0,1.0,341.0
2022-01-24-13:05:55.412690,6.0,4.0,341.0
2022-01-24-13:05:55.413687,9.0,0.0,342.0
2022-01-24-13:05:55.414683,9.0,0.0,342.0
2022-01-24-13:05:55.415688,9.0,0.0,342.0
2022-01-24-13:05:55.416679,17.0,2.0,341.0
2022-01-24-13:05:55.417680,11.0,1.0,341.0
2022-01-24-13:05:55.418674,6.0,3.0,341.0
2022-01-24-13:05:55.419625,6.0,3.0,341.0
2022-01-24-13:05:55.420668,8.0,3.0,341.0
2022-01-24-13:05:55.421665,5.0,4.0,341.0
2022-01-24-13:05:55.422667,0.0,8.0,342.0
2022-01-24-13:05:55.423645,0.0,8.0,342.0
2022-01-24-13:05:55.424659,2.0,10.0,342.0
2022-01-24-13:05:55.425658,2.0,10.0,342.0
2022-01-24-13:05:55.426652,2.0,10.0,342.0
2022-01-24-13:05:55.427649,2.0,10.0,342.0
2022-01-24-13:05:55.428647,5.0,7.0,342.0
2022-01-24-13:05:55.429617,9.0,0.0,342.0
2022-01-24-13:05:55.430726,16.0,4.0,342.0
2022-01-24-13:05:55.430726,16.0,4.0,342.0
2022-01-24-13:05:55.431998,16.0,4.0,342.0
2022-01-24-13:05:55.431998,11.0,1.0,342.0
2022-01-24-13:05:55.433044,10.0,2.0,341.0
2022-01-24-13:05:55.434042,10.0,2.0,341.0
2022-01-24-13:05:55.435040,10.0,2.0,341.0
2022-01-24-13:05:55.435990,10.0,2.0,341.0
2022-01-24-13:05:55.437033,5.0,3.0,342.0
2022-01-24-13:05:55.438032,3.0,10.0,341.0
2022-01-24-13:05:55.439028,3.0,8.0,341.0
2022-01-24-13:05:55.440026,3.0,8.0,341.0
2022-01-24-13:05:55.441026,1.0,11.0,342.0
2022-01-24-13:05:55.442020,1.0,11.0,342.0
2022-01-24-13:05:55.443019,4.0,8.0,342.0
2022-01-24-13:05:55.444018,4.0,8.0,342.0
2022-01-24-13:05:55.445976,1.0,1.0,342.0
2022-01-24-13:05:55.445976,15.0,3.0,341.0
2022-01-24-13:05:55.447007,15.0,3.0,341.0
2022-01-24-13:05:55.448003,15.0,3.0,341.0
2022-01-24-13:05:55.449001,15.0,3.0,341.0
2022-01-24-13:05:55.449998,14.0,6.0,341.0
2022-01-24-13:05:55.450995,7.0,0.0,341.0
2022-01-24-13:05:55.451997,5.0,5.0,342.0
2022-01-24-13:05:55.452990,5.0,5.0,342.0
2022-01-24-13:05:55.453989,5.0,4.0,341.0
2022-01-24-13:05:55.454985,3.0,6.0,342.0
2022-01-24-13:05:55.455984,0.0,1.0,342.0
2022-01-24-13:05:55.456979,0.0,1.0,342.0
2022-01-24-13:05:55.457979,1.0,6.0,341.0
2022-01-24-13:05:55.458974,9.0,10.0,342.0
2022-01-24-13:05:55.459975,9.0,4.0,341.0
2022-01-24-13:05:55.460970,9.0,4.0,341.0
2022-01-24-13:05:55.461968,7.0,2.0,341.0
2022-01-24-13:05:55.462944,15.0,3.0,342.0
2022-01-24-13:05:55.463961,15.0,3.0,342.0
2022-01-24-13:05:55.464958,15.0,3.0,342.0
2022-01-24-13:05:55.465956,18.0,1.0,342.0
2022-01-24-13:05:55.466953,9.0,4.0,341.0
2022-01-24-13:05:55.467954,9.0,4.0,341.0
2022-01-24-13:05:55.468949,9.0,4.0,341.0
2022-01-24-13:05:55.469949,6.0,4.0,341.0
2022-01-24-13:05:55.471043,2.0,9.0,342.0
2022-01-24-13:05:55.471043,4.0,7.0,342.0
2022-01-24-13:05:55.472101,4.0,7.0,342.0
2022-01-24-13:05:55.473287,4.0,7.0,342.0
2022-01-24-13:05:55.473287,0.0,8.0,341.0
2022-01-24-13:05:55.474333,4.0,4.0,341.0
2022-01-24-13:05:55.475331,4.0,4.0,341.0
2022-01-24-13:05:55.476332,4.0,4.0,341.0
2022-01-24-13:05:55.477328,4.0,4.0,341.0
2022-01-24-13:05:55.479321,5.0,1.0,341.0
2022-01-24-13:05:55.479321,11.0,1.0,341.0
2022-01-24-13:05:55.480317,11.0,1.0,341.0
2022-01-24-13:05:55.481314,11.0,1.0,341.0
2022-01-24-13:05:55.482311,18.0,3.0,342.0
2022-01-24-13:05:55.483350,12.0,2.0,341.0
2022-01-24-13:05:55.483350,9.0,1.0,342.0
2022-01-24-13:05:55.484384,9.0,1.0,342.0
2022-01-24-13:05:55.485378,9.0,1.0,342.0
2022-01-24-13:05:55.486447,8.0,1.0,341.0
2022-01-24-13:05:55.486766,1.0,5.0,341.0
2022-01-24-13:05:55.486766,1.0,5.0,341.0
2022-01-24-13:05:55.487821,1.0,5.0,341.0
2022-01-24-13:05:55.488820,1.0,5.0,341.0
2022-01-24-13:05:55.489816,1.0,5.0,341.0
2022-01-24-13:05:55.490814,3.0,10.0,341.0
2022-01-24-13:05:55.492149,2.0,7.0,341.0
2022-01-24-13:05:55.492149,1.0,8.0,342.0
2022-01-24-13:05:55.493201,4.0,6.0,341.0
2022-01-24-13:05:55.494194,5.0,2.0,342.0
2022-01-24-13:05:55.495192,11.0,2.0,342.0
2022-01-24-13:05:55.496189,11.0,2.0,342.0
2022-01-24-13:05:55.497186,11.0,2.0,342.0
2022-01-24-13:05:55.498184,11.0,2.0,342.0
2022-01-24-13:05:55.499181,15.0,5.0,342.0
2022-01-24-13:05:55.500183,16.0,0.0,342.0
2022-01-24-13:05:55.501273,7.0,2.0,342.0
2022-01-24-13:05:55.501273,7.0,2.0,342.0
2022-01-24-13:05:55.502488,7.0,2.0,342.0
2022-01-24-13:05:55.502488,4.0,1.0,341.0
2022-01-24-13:05:55.503538,6.0,4.0,342.0
2022-01-24-13:05:55.504532,3.0,2.0,341.0
2022-01-24-13:05:55.505531,3.0,2.0,341.0
2022-01-24-13:05:55.506527,3.0,2.0,341.0
2022-01-24-13:05:55.507524,4.0,13.0,342.0
2022-01-24-13:05:55.508521,6.0,14.0,342.0
2022-01-24-13:05:55.509518,6.0,14.0,342.0
2022-01-24-13:05:55.511517,6.0,14.0,342.0
2022-01-24-13:05:55.511517,4.0,3.0,342.0
2022-01-24-13:05:55.512511,7.0,1.0,341.0
2022-01-24-13:05:55.513510,7.0,1.0,341.0
2022-01-24-13:05:55.514505,7.0,1.0,341.0
2022-01-24-13:05:55.515483,9.0,1.0,342.0
2022-01-24-13:05:55.516500,15.0,5.0,341.0
2022-01-24-13:05:55.517497,11.0,3.0,342.0
2022-01-24-13:05:55.518495,11.0,3.0,342.0
2022-01-24-13:05:55.519495,9.0,1.0,341.0
2022-01-24-13:05:55.520490,3.0,6.0,342.0
2022-01-24-13:05:55.521489,2.0,8.0,341.0
2022-01-24-13:05:55.522484,2.0,8.0,341.0
2022-01-24-13:05:55.523482,1.0,10.0,342.0
2022-01-24-13:05:55.524479,1.0,10.0,341.0
2022-01-24-13:05:55.525612,6.0,3.0,341.0
2022-01-24-13:05:55.525612,6.0,3.0,341.0
2022-01-24-13:05:55.526989,6.0,3.0,341.0
2022-01-24-13:05:55.526989,4.0,4.0,342.0
2022-01-24-13:05:55.528037,2.0,0.0,341.0
2022-01-24-13:05:55.529034,6.0,2.0,342.0
2022-01-24-13:05:55.530034,6.0,2.0,342.0
2022-01-24-13:05:55.531006,6.0,2.0,342.0
2022-01-24-13:05:55.532028,17.0,3.0,341.0
2022-01-24-13:05:55.533022,16.0,3.0,341.0
2022-01-24-13:05:55.534020,16.0,3.0,341.0
2022-01-24-13:05:55.535018,16.0,3.0,341.0
2022-01-24-13:05:55.536014,8.0,4.0,342.0
2022-01-24-13:05:55.537012,3.0,5.0,341.0
2022-01-24-13:05:55.538013,5.0,3.0,341.0
2022-01-24-13:05:55.539006,5.0,3.0,341.0
2022-01-24-13:05:55.540006,5.0,2.0,342.0
2022-01-24-13:05:55.541007,1.0,10.0,341.0
2022-01-24-13:05:55.541998,4.0,10.0,342.0
2022-01-24-13:05:55.543995,4.0,10.0,342.0
2022-01-24-13:05:55.543995,8.0,8.0,342.0
2022-01-24-13:05:55.544993,9.0,3.0,341.0
2022-01-24-13:05:55.545991,9.0,3.0,341.0
2022-01-24-13:05:55.546985,9.0,3.0,341.0
2022-01-24-13:05:55.547985,10.0,1.0,341.0
2022-01-24-13:05:55.548980,15.0,3.0,342.0
2022-01-24-13:05:55.549977,16.0,0.0,342.0
2022-01-24-13:05:55.550975,16.0,0.0,342.0
2022-01-24-13:05:55.551971,8.0,2.0,341.0
2022-01-24-13:05:55.552969,8.0,3.0,342.0
2022-01-24-13:05:55.553970,5.0,8.0,342.0
2022-01-24-13:05:55.554916,5.0,8.0,342.0
2022-01-24-13:05:55.555962,6.0,6.0,341.0
2022-01-24-13:05:55.556957,1.0,7.0,341.0
2022-01-24-13:05:55.557941,2.0,11.0,342.0
2022-01-24-13:05:55.558906,2.0,11.0,342.0
2022-01-24-13:05:55.559952,4.0,5.0,342.0
2022-01-24-13:05:55.560946,1.0,3.0,341.0
2022-01-24-13:05:55.561948,1.0,3.0,341.0
2022-01-24-13:05:55.562925,1.0,3.0,341.0
2022-01-24-13:05:55.563926,11.0,2.0,341.0
2022-01-24-13:05:55.565054,16.0,1.0,342.0
2022-01-24-13:05:55.565054,20.0,0.0,342.0
2022-01-24-13:05:55.566109,20.0,0.0,342.0
2022-01-24-13:05:55.567284,20.0,0.0,342.0
2022-01-24-13:05:55.567284,10.0,3.0,342.0
2022-01-24-13:05:55.568331,0.0,5.0,342.0
2022-01-24-13:05:55.569330,0.0,5.0,342.0
2022-01-24-13:05:55.570325,0.0,5.0,342.0
2022-01-24-13:05:55.571276,0.0,5.0,342.0
2022-01-24-13:05:55.572319,2.0,5.0,342.0
2022-01-24-13:05:55.573317,1.0,9.0,341.0
2022-01-24-13:05:55.574316,1.0,9.0,341.0
2022-01-24-13:05:55.575265,1.0,9.0,341.0
2022-01-24-13:05:55.576309,3.0,3.0,341.0
2022-01-24-13:05:55.578256,4.0,4.0,342.0
2022-01-24-13:05:55.578256,2.0,0.0,341.0
2022-01-24-13:05:55.579254,2.0,0.0,341.0
2022-01-24-13:05:55.580251,9.0,2.0,342.0
2022-01-24-13:05:55.581364,18.0,5.0,341.0
2022-01-24-13:05:55.581364,18.0,5.0,341.0
2022-01-24-13:05:55.582412,18.0,5.0,341.0
2022-01-24-13:05:55.583597,18.0,5.0,341.0
2022-01-24-13:05:55.583597,12.0,1.0,341.0
2022-01-24-13:05:55.584655,9.0,7.0,342.0
2022-01-24-13:05:55.585649,2.0,6.0,341.0
2022-01-24-13:05:55.586648,2.0,6.0,341.0
2022-01-24-13:05:55.587589,2.0,6.0,341.0
2022-01-24-13:05:55.588641,1.0,10.0,342.0
2022-01-24-13:05:55.589639,2.0,8.0,342.0
2022-01-24-13:05:55.590641,2.0,5.0,342.0
2022-01-24-13:05:55.591604,2.0,5.0,342.0
2022-01-24-13:05:55.592634,2.0,5.0,341.0
2022-01-24-13:05:55.593629,5.0,1.0,342.0
2022-01-24-13:05:55.594627,2.0,2.0,341.0
2022-01-24-13:05:55.595623,2.0,2.0,341.0
2022-01-24-13:05:55.596567,6.0,2.0,342.0
2022-01-24-13:05:55.597617,14.0,2.0,341.0
2022-01-24-13:05:55.598612,12.0,3.0,341.0
2022-01-24-13:05:55.599604,12.0,3.0,341.0
2022-01-24-13:05:55.600604,12.0,3.0,341.0
2022-01-24-13:05:55.601599,17.0,1.0,342.0
2022-01-24-13:05:55.602598,9.0,3.0,342.0
2022-01-24-13:05:55.603593,8.0,5.0,342.0
2022-01-24-13:05:55.604591,8.0,5.0,342.0
2022-01-24-13:05:55.605591,3.0,5.0,342.0
2022-01-24-13:05:55.606589,6.0,4.0,342.0
2022-01-24-13:05:55.607590,0.0,8.0,342.0
2022-01-24-13:05:55.608583,0.0,8.0,342.0
2022-01-24-13:05:55.609577,4.0,9.0,341.0
2022-01-24-13:05:55.610577,1.0,4.0,342.0
2022-01-24-13:05:55.611572,1.0,4.0,342.0
2022-01-24-13:05:55.613567,1.0,4.0,342.0
2022-01-24-13:05:55.613567,4.0,2.0,341.0
2022-01-24-13:05:55.614564,4.0,2.0,341.0
2022-01-24-13:05:55.615569,8.0,0.0,342.0
2022-01-24-13:05:55.616562,20.0,4.0,342.0
2022-01-24-13:05:55.617556,18.0,1.0,342.0
2022-01-24-13:05:55.618555,6.0,5.0,341.0
2022-01-24-13:05:55.619551,4.0,2.0,341.0
2022-01-24-13:05:55.620548,4.0,2.0,341.0
2022-01-24-13:05:55.621545,3.0,7.0,341.0
2022-01-24-13:05:55.622543,6.0,14.0,342.0
2022-01-24-13:05:55.623540,2.0,13.0,342.0
2022-01-24-13:05:55.624490,2.0,13.0,342.0
2022-01-24-13:05:55.625500,3.0,8.0,342.0
2022-01-24-13:05:55.626486,1.0,4.0,342.0
2022-01-24-13:05:55.627507,0.0,4.0,342.0
2022-01-24-13:05:55.628479,0.0,4.0,342.0
2022-01-24-13:05:55.629483,1.0,4.0,342.0
2022-01-24-13:05:55.630500,9.0,1.0,342.0
2022-01-24-13:05:55.631500,16.0,3.0,342.0
2022-01-24-13:05:55.632494,16.0,3.0,342.0
2022-01-24-13:05:55.633474,16.0,4.0,342.0
2022-01-24-13:05:55.634482,9.0,3.0,342.0
2022-01-24-13:05:55.635461,9.0,3.0,342.0
2022-01-24-13:05:55.636459,9.0,3.0,342.0
2022-01-24-13:05:55.637455,9.0,3.0,342.0
2022-01-24-13:05:55.638453,6.0,3.0,342.0
2022-01-24-13:05:55.639450,1.0,5.0,342.0
2022-01-24-13:05:55.640448,0.0,10.0,342.0
