2022-01-24-12:59:52.174746,23.0,1.0,364.0
2022-01-24-12:59:52.174746,10.0,1.0,363.0
2022-01-24-12:59:52.176706,6.0,6.0,364.0
2022-01-24-12:59:52.176706,36.0,10.0,364.0
2022-01-24-12:59:52.177704,46.0,14.0,364.0
2022-01-24-12:59:52.178700,8.0,10.0,364.0
2022-01-24-12:59:52.179732,46.0,1.0,364.0
2022-01-24-12:59:52.180696,46.0,7.0,363.0
2022-01-24-12:59:52.181694,10.0,0.0,364.0
2022-01-24-12:59:52.182690,15.0,4.0,364.0
2022-01-24-12:59:52.184711,50.0,12.0,364.0
2022-01-24-12:59:52.185699,9.0,12.0,364.0
2022-01-24-12:59:52.185699,6.0,3.0,364.0
2022-01-24-12:59:52.186679,18.0,10.0,364.0
2022-01-24-12:59:52.187696,6.0,6.0,364.0
2022-01-24-12:59:52.188681,8.0,14.0,364.0
2022-01-24-12:59:52.189673,2.0,8.0,364.0
2022-01-24-12:59:52.190695,19.0,1.0,364.0
2022-01-24-12:59:52.191693,21.0,1.0,364.0
2022-01-24-12:59:52.192688,1.0,6.0,364.0
2022-01-24-12:59:52.193660,10.0,1.0,364.0
2022-01-24-12:59:52.194682,8.0,1.0,364.0
2022-01-24-12:59:52.195656,10.0,2.0,365.0
2022-01-24-12:59:52.196683,6.0,7.0,364.0
2022-01-24-12:59:52.197675,1.0,11.0,365.0
2022-01-24-12:59:52.198648,13.0,13.0,366.0
2022-01-24-12:59:52.199644,5.0,2.0,365.0
2022-01-24-12:59:52.200668,17.0,2.0,366.0
2022-01-24-12:59:52.201667,50.0,12.0,367.0
2022-01-24-12:59:52.202662,6.0,0.0,367.0
2022-01-24-12:59:52.203660,20.0,8.0,368.0
2022-01-24-12:59:52.204661,1.0,4.0,368.0
2022-01-24-12:59:52.205628,2.0,8.0,368.0
2022-01-24-12:59:52.206626,5.0,8.0,369.0
2022-01-24-12:59:52.207624,0.0,11.0,369.0
2022-01-24-12:59:52.208621,7.0,13.0,369.0
2022-01-24-12:59:52.209619,17.0,2.0,369.0
2022-01-24-12:59:52.210616,24.0,1.0,370.0
2022-01-24-12:59:52.211628,14.0,7.0,370.0
2022-01-24-12:59:52.212611,8.0,9.0,371.0
2022-01-24-12:59:52.214135,2.0,7.0,371.0
2022-01-24-12:59:52.215194,1.0,9.0,371.0
2022-01-24-12:59:52.215194,12.0,1.0,370.0
2022-01-24-12:59:52.216136,3.0,8.0,371.0
2022-01-24-12:59:52.217163,5.0,14.0,371.0
2022-01-24-12:59:52.218161,1.0,4.0,371.0
2022-01-24-12:59:52.219161,23.0,3.0,371.0
2022-01-24-12:59:52.220149,19.0,1.0,372.0
2022-01-24-12:59:52.221121,12.0,3.0,371.0
2022-01-24-12:59:52.222118,13.0,3.0,371.0
2022-01-24-12:59:52.223114,12.0,5.0,371.0
2022-01-24-12:59:52.224114,3.0,3.0,372.0
2022-01-24-12:59:52.225110,16.0,5.0,371.0
2022-01-24-12:59:52.226140,18.0,11.0,371.0
2022-01-24-12:59:52.227105,1.0,7.0,371.0
2022-01-24-12:59:52.228101,10.0,11.0,371.0
2022-01-24-12:59:52.229100,11.0,6.0,371.0
2022-01-24-12:59:52.230104,11.0,4.0,372.0
2022-01-24-12:59:52.231095,6.0,1.0,371.0
2022-01-24-12:59:52.232091,10.0,2.0,371.0
2022-01-24-12:59:52.233088,30.0,2.0,371.0
2022-01-24-12:59:52.234119,18.0,2.0,371.0
2022-01-24-12:59:52.235115,13.0,2.0,371.0
2022-01-24-12:59:52.236080,18.0,7.0,371.0
2022-01-24-12:59:52.237078,20.0,0.0,372.0
2022-01-24-12:59:52.238107,17.0,2.0,371.0
2022-01-24-12:59:52.239082,12.0,6.0,371.0
2022-01-24-12:59:52.240095,10.0,7.0,372.0
2022-01-24-12:59:52.241081,9.0,14.0,371.0
2022-01-24-12:59:52.242064,8.0,14.0,371.0
2022-01-24-12:59:52.243062,9.0,10.0,371.0
2022-01-24-12:59:52.244058,6.0,3.0,371.0
2022-01-24-12:59:52.245056,13.0,4.0,371.0
2022-01-24-12:59:52.246053,12.0,5.0,371.0
2022-01-24-12:59:52.247050,21.0,1.0,371.0
2022-01-24-12:59:52.248048,23.0,1.0,371.0
2022-01-24-12:59:52.249045,5.0,9.0,371.0
2022-01-24-12:59:52.251040,4.0,11.0,371.0
2022-01-24-12:59:52.251040,7.0,0.0,371.0
2022-01-24-12:59:52.252036,11.0,0.0,371.0
2022-01-24-12:59:52.253033,18.0,1.0,371.0
2022-01-24-12:59:52.254031,8.0,1.0,371.0
2022-01-24-12:59:52.255029,7.0,9.0,372.0
2022-01-24-12:59:52.256026,5.0,10.0,371.0
2022-01-24-12:59:52.257024,5.0,4.0,371.0
2022-01-24-12:59:52.258020,5.0,1.0,371.0
2022-01-24-12:59:52.259017,19.0,2.0,371.0
2022-01-24-12:59:52.260015,8.0,2.0,371.0
2022-01-24-12:59:52.261013,1.0,6.0,371.0
2022-01-24-12:59:52.262010,1.0,12.0,371.0
2022-01-24-12:59:52.263008,9.0,2.0,371.0
2022-01-24-12:59:52.264005,17.0,1.0,371.0
2022-01-24-12:59:52.265002,2.0,3.0,371.0
2022-01-24-12:59:52.265999,1.0,8.0,371.0
2022-01-24-12:59:52.266997,2.0,10.0,372.0
2022-01-24-12:59:52.267994,0.0,11.0,371.0
2022-01-24-12:59:52.268993,8.0,1.0,371.0
2022-01-24-12:59:52.269988,22.0,2.0,371.0
2022-01-24-12:59:52.270986,8.0,4.0,371.0
2022-01-24-12:59:52.271983,1.0,6.0,371.0
2022-01-24-12:59:52.272981,8.0,9.0,371.0
2022-01-24-12:59:52.273977,3.0,5.0,371.0
2022-01-24-12:59:52.274975,21.0,5.0,371.0
2022-01-24-12:59:52.275972,7.0,5.0,371.0
2022-01-24-12:59:52.276969,0.0,5.0,371.0
2022-01-24-12:59:52.277968,5.0,2.0,371.0
2022-01-24-12:59:52.278965,8.0,1.0,371.0
2022-01-24-12:59:52.279962,21.0,8.0,372.0
2022-01-24-12:59:52.280960,2.0,13.0,371.0
2022-01-24-12:59:52.282954,13.0,7.0,371.0
2022-01-24-12:59:52.282954,5.0,0.0,371.0
2022-01-24-12:59:52.283952,2.0,1.0,371.0
2022-01-24-12:59:52.284949,1.0,8.0,372.0
2022-01-24-12:59:52.285946,6.0,9.0,371.0
2022-01-24-12:59:52.286944,4.0,5.0,371.0
2022-01-24-12:59:52.287940,21.0,3.0,371.0
2022-01-24-12:59:52.288937,8.0,6.0,371.0
2022-01-24-12:59:52.289935,1.0,10.0,371.0
2022-01-24-12:59:52.290932,4.0,4.0,371.0
2022-01-24-12:59:52.291930,10.0,0.0,371.0
2022-01-24-12:59:52.292927,20.0,1.0,371.0
2022-01-24-12:59:52.293925,13.0,10.0,371.0
2022-01-24-12:59:52.294922,13.0,10.0,371.0
2022-01-24-12:59:52.295920,13.0,10.0,371.0
2022-01-24-12:59:52.296917,2.0,14.0,371.0
2022-01-24-12:59:52.297914,1.0,13.0,371.0
2022-01-24-12:59:52.298912,1.0,13.0,371.0
2022-01-24-12:59:52.299908,1.0,13.0,371.0
2022-01-24-12:59:52.301215,7.0,4.0,371.0
2022-01-24-12:59:52.301215,2.0,0.0,371.0
2022-01-24-12:59:52.302214,2.0,0.0,371.0
2022-01-24-12:59:52.303212,2.0,0.0,371.0
2022-01-24-12:59:52.304209,2.0,0.0,371.0
2022-01-24-12:59:52.305206,12.0,4.0,371.0
2022-01-24-12:59:52.306204,19.0,2.0,371.0
2022-01-24-12:59:52.307201,19.0,2.0,371.0
2022-01-24-12:59:52.308200,19.0,2.0,371.0
2022-01-24-12:59:52.309196,5.0,6.0,371.0
2022-01-24-12:59:52.310193,6.0,4.0,371.0
2022-01-24-12:59:52.311191,6.0,4.0,371.0
2022-01-24-12:59:52.312188,6.0,4.0,371.0
2022-01-24-12:59:52.313187,5.0,6.0,371.0
2022-01-24-12:59:52.314522,4.0,11.0,371.0
2022-01-24-12:59:52.315551,4.0,11.0,371.0
2022-01-24-12:59:52.315551,4.0,11.0,371.0
2022-01-24-12:59:52.316520,4.0,11.0,371.0
2022-01-24-12:59:52.317543,2.0,5.0,371.0
2022-01-24-12:59:52.318540,7.0,2.0,371.0
2022-01-24-12:59:52.319512,7.0,2.0,371.0
2022-01-24-12:59:52.320510,7.0,2.0,371.0
2022-01-24-12:59:52.321507,16.0,4.0,371.0
2022-01-24-12:59:52.322504,24.0,2.0,371.0
2022-01-24-12:59:52.323501,24.0,2.0,371.0
2022-01-24-12:59:52.324548,24.0,2.0,371.0
2022-01-24-12:59:52.324548,5.0,3.0,371.0
2022-01-24-12:59:52.325548,7.0,7.0,371.0
2022-01-24-12:59:52.326544,7.0,7.0,371.0
2022-01-24-12:59:52.327544,7.0,7.0,371.0
2022-01-24-12:59:52.328540,7.0,7.0,371.0
2022-01-24-12:59:52.329537,16.0,7.0,371.0
2022-01-24-12:59:52.330536,16.0,7.0,371.0
2022-01-24-12:59:52.331531,16.0,7.0,371.0
2022-01-24-12:59:52.332528,16.0,7.0,371.0
2022-01-24-12:59:52.333526,16.0,7.0,371.0
2022-01-24-12:59:52.334523,0.0,2.0,371.0
2022-01-24-12:59:52.335521,0.0,2.0,371.0
2022-01-24-12:59:52.336523,0.0,2.0,371.0
2022-01-24-12:59:52.337515,0.0,2.0,371.0
2022-01-24-12:59:52.338512,7.0,2.0,371.0
2022-01-24-12:59:52.339510,12.0,4.0,371.0
2022-01-24-12:59:52.340507,12.0,4.0,371.0
2022-01-24-12:59:52.341504,12.0,4.0,371.0
2022-01-24-12:59:52.342501,7.0,4.0,371.0
2022-01-24-12:59:52.343534,9.0,4.0,371.0
2022-01-24-12:59:52.344529,9.0,4.0,371.0
2022-01-24-12:59:52.345527,9.0,4.0,371.0
2022-01-24-12:59:52.346526,11.0,10.0,371.0
2022-01-24-12:59:52.347521,7.0,8.0,371.0
2022-01-24-12:59:52.348526,7.0,8.0,371.0
2022-01-24-12:59:52.350505,7.0,8.0,371.0
2022-01-24-12:59:52.350505,6.0,5.0,371.0
2022-01-24-12:59:52.351513,6.0,5.0,371.0
2022-01-24-12:59:52.352476,6.0,5.0,371.0
2022-01-24-12:59:52.353496,6.0,5.0,371.0
2022-01-24-12:59:52.354498,19.0,2.0,371.0
2022-01-24-12:59:52.355491,22.0,4.0,372.0
2022-01-24-12:59:52.356490,22.0,4.0,372.0
2022-01-24-12:59:52.357486,22.0,4.0,372.0
2022-01-24-12:59:52.358483,11.0,6.0,371.0
2022-01-24-12:59:52.359483,12.0,9.0,371.0
2022-01-24-12:59:52.360479,12.0,9.0,371.0
2022-01-24-12:59:52.361452,12.0,9.0,371.0
2022-01-24-12:59:52.362724,1.0,9.0,371.0
2022-01-24-12:59:52.362964,1.0,9.0,371.0
2022-01-24-12:59:52.363203,1.0,9.0,371.0
2022-01-24-12:59:52.363419,1.0,9.0,371.0
2022-01-24-12:59:52.363630,1.0,9.0,371.0
2022-01-24-12:59:52.363831,1.0,9.0,371.0
2022-01-24-12:59:52.364030,1.0,9.0,371.0
2022-01-24-12:59:52.364030,1.0,9.0,371.0
2022-01-24-12:59:52.365029,1.0,9.0,371.0
2022-01-24-12:59:52.366062,1.0,9.0,371.0
2022-01-24-12:59:52.366062,4.0,1.0,371.0
2022-01-24-12:59:52.367095,10.0,6.0,371.0
2022-01-24-12:59:52.368093,10.0,6.0,371.0
2022-01-24-12:59:52.369092,10.0,6.0,371.0
2022-01-24-12:59:52.370086,10.0,6.0,371.0
2022-01-24-12:59:52.371344,9.0,3.0,371.0
2022-01-24-12:59:52.371557,17.0,3.0,372.0
2022-01-24-12:59:52.371775,17.0,3.0,372.0
2022-01-24-12:59:52.371992,17.0,3.0,372.0
2022-01-24-12:59:52.372091,17.0,3.0,372.0
2022-01-24-12:59:52.372091,17.0,3.0,372.0
2022-01-24-12:59:52.373115,17.0,3.0,372.0
2022-01-24-12:59:52.374112,17.0,3.0,372.0
2022-01-24-12:59:52.375112,18.0,4.0,371.0
2022-01-24-12:59:52.376106,12.0,11.0,371.0
2022-01-24-12:59:52.377106,12.0,11.0,371.0
2022-01-24-12:59:52.378106,12.0,11.0,371.0
2022-01-24-12:59:52.379378,13.0,11.0,371.0
2022-01-24-12:59:52.379597,7.0,15.0,371.0
2022-01-24-12:59:52.379809,7.0,15.0,371.0
2022-01-24-12:59:52.380019,7.0,15.0,371.0
2022-01-24-12:59:52.380019,7.0,15.0,371.0
2022-01-24-12:59:52.381018,7.0,15.0,371.0
2022-01-24-12:59:52.382016,7.0,15.0,371.0
2022-01-24-12:59:52.383013,1.0,6.0,371.0
2022-01-24-12:59:52.385068,2.0,1.0,371.0
2022-01-24-12:59:52.385068,2.0,1.0,371.0
2022-01-24-12:59:52.386307,2.0,1.0,371.0
2022-01-24-12:59:52.386307,10.0,3.0,371.0
2022-01-24-12:59:52.387339,19.0,4.0,371.0
2022-01-24-12:59:52.388339,19.0,4.0,371.0
2022-01-24-12:59:52.389333,19.0,4.0,371.0
2022-01-24-12:59:52.390330,19.0,4.0,371.0
2022-01-24-12:59:52.391296,33.0,1.0,371.0
2022-01-24-12:59:52.392327,13.0,2.0,371.0
2022-01-24-12:59:52.393327,13.0,2.0,371.0
2022-01-24-12:59:52.394288,13.0,2.0,371.0
2022-01-24-12:59:52.395557,4.0,4.0,371.0
2022-01-24-12:59:52.395767,4.0,8.0,371.0
2022-01-24-12:59:52.395971,4.0,8.0,371.0
2022-01-24-12:59:52.396173,4.0,8.0,371.0
2022-01-24-12:59:52.396262,4.0,8.0,371.0
2022-01-24-12:59:52.396262,4.0,8.0,371.0
2022-01-24-12:59:52.397289,4.0,8.0,371.0
2022-01-24-12:59:52.398300,4.0,8.0,371.0
2022-01-24-12:59:52.399551,10.0,9.0,371.0
2022-01-24-12:59:52.399551,23.0,3.0,371.0
2022-01-24-12:59:52.400584,17.0,6.0,371.0
2022-01-24-12:59:52.401581,17.0,6.0,371.0
2022-01-24-12:59:52.402545,17.0,6.0,371.0
2022-01-24-12:59:52.403568,7.0,0.0,371.0
2022-01-24-12:59:52.404565,6.0,3.0,371.0
2022-01-24-12:59:52.405564,6.0,3.0,371.0
2022-01-24-12:59:52.406534,6.0,3.0,371.0
2022-01-24-12:59:52.407558,8.0,2.0,371.0
2022-01-24-12:59:52.408556,1.0,1.0,371.0
2022-01-24-12:59:52.409552,1.0,1.0,371.0
2022-01-24-12:59:52.410535,1.0,1.0,371.0
2022-01-24-12:59:52.411551,7.0,10.0,371.0
2022-01-24-12:59:52.412546,5.0,12.0,371.0
2022-01-24-12:59:52.413542,5.0,12.0,371.0
2022-01-24-12:59:52.414540,5.0,12.0,371.0
2022-01-24-12:59:52.415537,5.0,12.0,371.0
2022-01-24-12:59:52.416537,6.0,6.0,371.0
2022-01-24-12:59:52.417531,6.0,6.0,371.0
2022-01-24-12:59:52.419525,6.0,6.0,371.0
2022-01-24-12:59:52.419525,12.0,1.0,371.0
2022-01-24-12:59:52.420523,23.0,7.0,371.0
2022-01-24-12:59:52.421521,23.0,7.0,371.0
2022-01-24-12:59:52.422518,23.0,7.0,371.0
2022-01-24-12:59:52.423516,23.0,7.0,371.0
2022-01-24-12:59:52.424513,20.0,1.0,371.0
2022-01-24-12:59:52.425510,14.0,4.0,371.0
2022-01-24-12:59:52.426506,9.0,0.0,371.0
2022-01-24-12:59:52.427509,9.0,0.0,371.0
2022-01-24-12:59:52.428514,8.0,1.0,371.0
2022-01-24-12:59:52.429618,9.0,8.0,371.0
2022-01-24-12:59:52.429618,3.0,12.0,371.0
2022-01-24-12:59:52.430651,3.0,12.0,371.0
2022-01-24-12:59:52.431849,3.0,12.0,371.0
2022-01-24-12:59:52.431849,1.0,12.0,371.0
2022-01-24-12:59:52.432874,4.0,5.0,371.0
2022-01-24-12:59:52.433872,4.0,5.0,371.0
2022-01-24-12:59:52.434868,4.0,5.0,371.0
2022-01-24-12:59:52.435866,0.0,4.0,371.0
2022-01-24-12:59:52.436863,16.0,0.0,371.0
2022-01-24-12:59:52.437863,16.0,0.0,371.0
2022-01-24-12:59:52.438859,16.0,0.0,371.0
2022-01-24-12:59:52.439862,16.0,0.0,371.0
2022-01-24-12:59:52.440853,18.0,3.0,371.0
2022-01-24-12:59:52.441856,16.0,1.0,371.0
2022-01-24-12:59:52.442928,8.0,5.0,371.0
2022-01-24-12:59:52.442928,8.0,5.0,371.0
2022-01-24-12:59:52.443961,8.0,5.0,371.0
2022-01-24-12:59:52.444959,5.0,6.0,371.0
2022-01-24-12:59:52.445990,5.0,8.0,371.0
2022-01-24-12:59:52.445990,5.0,8.0,371.0
2022-01-24-12:59:52.447026,5.0,8.0,371.0
2022-01-24-12:59:52.448021,5.0,8.0,371.0
2022-01-24-12:59:52.449021,8.0,13.0,371.0
2022-01-24-12:59:52.450015,3.0,7.0,371.0
2022-01-24-12:59:52.451019,1.0,1.0,371.0
2022-01-24-12:59:52.452010,1.0,1.0,371.0
2022-01-24-12:59:52.453008,1.0,1.0,371.0
2022-01-24-12:59:52.454006,8.0,2.0,371.0
2022-01-24-12:59:52.456020,10.0,1.0,371.0
2022-01-24-12:59:52.456020,10.0,1.0,371.0
2022-01-24-12:59:52.457020,10.0,1.0,371.0
2022-01-24-12:59:52.458020,8.0,1.0,371.0
2022-01-24-12:59:52.459013,13.0,2.0,371.0
2022-01-24-12:59:52.460009,13.0,2.0,371.0
2022-01-24-12:59:52.461009,4.0,3.0,371.0
2022-01-24-12:59:52.461991,6.0,3.0,371.0
2022-01-24-12:59:52.463006,5.0,0.0,371.0
2022-01-24-12:59:52.463999,5.0,0.0,371.0
2022-01-24-12:59:52.464999,8.0,5.0,371.0
2022-01-24-12:59:52.465994,10.0,1.0,371.0
2022-01-24-12:59:52.466971,19.0,4.0,371.0
2022-01-24-12:59:52.467984,19.0,4.0,371.0
2022-01-24-12:59:52.468964,1.0,0.0,371.0
2022-01-24-12:59:52.469980,12.0,2.0,371.0
2022-01-24-12:59:52.470980,12.0,2.0,371.0
2022-01-24-12:59:52.471978,12.0,2.0,371.0
2022-01-24-12:59:52.472978,12.0,2.0,371.0
2022-01-24-12:59:52.473972,18.0,3.0,371.0
2022-01-24-12:59:52.474969,18.0,3.0,371.0
2022-01-24-12:59:52.475972,18.0,3.0,371.0
2022-01-24-12:59:52.476965,18.0,3.0,371.0
2022-01-24-12:59:52.477963,10.0,6.0,371.0
2022-01-24-12:59:52.479036,4.0,8.0,371.0
2022-01-24-12:59:52.479036,4.0,8.0,371.0
2022-01-24-12:59:52.480091,4.0,8.0,371.0
2022-01-24-12:59:52.481089,4.0,8.0,371.0
2022-01-24-12:59:52.482064,2.0,10.0,371.0
2022-01-24-12:59:52.483083,3.0,12.0,371.0
2022-01-24-12:59:52.484083,3.0,8.0,371.0
2022-01-24-12:59:52.485078,4.0,5.0,371.0
2022-01-24-12:59:52.486079,1.0,3.0,371.0
2022-01-24-12:59:52.487065,13.0,0.0,372.0
2022-01-24-12:59:52.488062,13.0,0.0,372.0
2022-01-24-12:59:52.489062,13.0,0.0,372.0
2022-01-24-12:59:52.490056,29.0,1.0,371.0
2022-01-24-12:59:52.492054,21.0,5.0,371.0
2022-01-24-12:59:52.492054,21.0,5.0,371.0
2022-01-24-12:59:52.493271,21.0,5.0,371.0
2022-01-24-12:59:52.493271,12.0,2.0,371.0
2022-01-24-12:59:52.494302,12.0,2.0,371.0
2022-01-24-12:59:52.495478,4.0,7.0,372.0
2022-01-24-12:59:52.495478,4.0,7.0,372.0
2022-01-24-12:59:52.496722,4.0,7.0,372.0
2022-01-24-12:59:52.496722,8.0,10.0,371.0
2022-01-24-12:59:52.497754,8.0,10.0,371.0
2022-01-24-12:59:52.498751,24.0,3.0,371.0
2022-01-24-12:59:52.499749,24.0,3.0,371.0
2022-01-24-12:59:52.500714,24.0,3.0,371.0
2022-01-24-12:59:52.501745,7.0,3.0,371.0
2022-01-24-12:59:52.502769,9.0,0.0,372.0
2022-01-24-12:59:52.503761,9.0,0.0,372.0
2022-01-24-12:59:52.504751,9.0,0.0,372.0
2022-01-24-12:59:52.505758,14.0,3.0,371.0
2022-01-24-12:59:52.506745,16.0,2.0,372.0
2022-01-24-12:59:52.507743,16.0,2.0,372.0
2022-01-24-12:59:52.508740,16.0,2.0,372.0
2022-01-24-12:59:52.509723,16.0,2.0,372.0
2022-01-24-12:59:52.510737,8.0,3.0,371.0
2022-01-24-12:59:52.511747,1.0,8.0,371.0
2022-01-24-12:59:52.512731,1.0,8.0,371.0
2022-01-24-12:59:52.513729,1.0,8.0,371.0
2022-01-24-12:59:52.514724,2.0,10.0,371.0
2022-01-24-12:59:52.515723,0.0,13.0,371.0
2022-01-24-12:59:52.516697,1.0,5.0,372.0
2022-01-24-12:59:52.517716,1.0,5.0,372.0
2022-01-24-12:59:52.518715,2.0,8.0,371.0
2022-01-24-12:59:52.519713,11.0,0.0,371.0
2022-01-24-12:59:52.520707,16.0,1.0,371.0
2022-01-24-12:59:52.521708,16.0,1.0,371.0
2022-01-24-12:59:52.522703,27.0,3.0,371.0
2022-01-24-12:59:52.523701,17.0,2.0,372.0
2022-01-24-12:59:52.525694,17.0,2.0,372.0
2022-01-24-12:59:52.525694,7.0,2.0,371.0
2022-01-24-12:59:52.526694,2.0,5.0,372.0
2022-01-24-12:59:52.527761,3.0,8.0,371.0
2022-01-24-12:59:52.527761,3.0,8.0,371.0
2022-01-24-12:59:52.528761,3.0,8.0,371.0
2022-01-24-12:59:52.529805,3.0,8.0,371.0
2022-01-24-12:59:52.530803,9.0,9.0,371.0
2022-01-24-12:59:52.531754,10.0,11.0,372.0
2022-01-24-12:59:52.532784,9.0,5.0,371.0
2022-01-24-12:59:52.533781,9.0,5.0,371.0
2022-01-24-12:59:52.534999,13.0,2.0,371.0
2022-01-24-12:59:52.535104,11.0,2.0,371.0
2022-01-24-12:59:52.535104,1.0,0.0,372.0
2022-01-24-12:59:52.536160,1.0,0.0,372.0
2022-01-24-12:59:52.537153,1.0,0.0,372.0
2022-01-24-12:59:52.538146,1.0,0.0,372.0
2022-01-24-12:59:52.539146,13.0,5.0,372.0
2022-01-24-12:59:52.540374,16.0,2.0,372.0
2022-01-24-12:59:52.540374,16.0,2.0,372.0
2022-01-24-12:59:52.541700,16.0,2.0,372.0
2022-01-24-12:59:52.541700,8.0,5.0,371.0
2022-01-24-12:59:52.542747,8.0,3.0,372.0
2022-01-24-12:59:52.543744,12.0,9.0,371.0
2022-01-24-12:59:52.544742,12.0,9.0,371.0
2022-01-24-12:59:52.545691,12.0,9.0,371.0
2022-01-24-12:59:52.546736,8.0,10.0,371.0
2022-01-24-12:59:52.547712,1.0,9.0,371.0
2022-01-24-12:59:52.548711,0.0,11.0,371.0
2022-01-24-12:59:52.549707,5.0,10.0,372.0
2022-01-24-12:59:52.550706,5.0,10.0,372.0
2022-01-24-12:59:52.551701,2.0,6.0,371.0
2022-01-24-12:59:52.552698,3.0,3.0,371.0
2022-01-24-12:59:52.553717,9.0,2.0,371.0
2022-01-24-12:59:52.555690,16.0,1.0,371.0
2022-01-24-12:59:52.555690,8.0,2.0,371.0
2022-01-24-12:59:52.556709,8.0,2.0,371.0
2022-01-24-12:59:52.557706,8.0,2.0,371.0
2022-01-24-12:59:52.558705,8.0,2.0,371.0
2022-01-24-12:59:52.559702,0.0,0.0,372.0
2022-01-24-12:59:52.560700,2.0,7.0,371.0
2022-01-24-12:59:52.561696,1.0,7.0,371.0
2022-01-24-12:59:52.562694,1.0,7.0,371.0
2022-01-24-12:59:52.563691,1.0,9.0,371.0
2022-01-24-12:59:52.564688,2.0,13.0,372.0
2022-01-24-12:59:52.565685,1.0,9.0,371.0
2022-01-24-12:59:52.566683,1.0,9.0,371.0
2022-01-24-12:59:52.567685,2.0,12.0,371.0
2022-01-24-12:59:52.568683,8.0,3.0,371.0
2022-01-24-12:59:52.569675,12.0,1.0,371.0
2022-01-24-12:59:52.570672,12.0,1.0,371.0
2022-01-24-12:59:52.571670,27.0,1.0,372.0
2022-01-24-12:59:52.572668,21.0,3.0,372.0
2022-01-24-12:59:52.573664,21.0,3.0,372.0
2022-01-24-12:59:52.574666,21.0,3.0,372.0
2022-01-24-12:59:52.575658,14.0,0.0,372.0
2022-01-24-12:59:52.576657,1.0,5.0,371.0
2022-01-24-12:59:52.577653,2.0,9.0,371.0
2022-01-24-12:59:52.578603,2.0,9.0,371.0
2022-01-24-12:59:52.579627,3.0,7.0,371.0
2022-01-24-12:59:52.580716,11.0,8.0,371.0
2022-01-24-12:59:52.580716,11.0,8.0,371.0
2022-01-24-12:59:52.581752,11.0,8.0,371.0
2022-01-24-12:59:52.582751,11.0,8.0,371.0
2022-01-24-12:59:52.583796,12.0,7.0,372.0
2022-01-24-12:59:52.584870,4.0,0.0,372.0
2022-01-24-12:59:52.584870,4.0,0.0,372.0
2022-01-24-12:59:52.585921,4.0,0.0,372.0
2022-01-24-12:59:52.586914,4.0,0.0,372.0
2022-01-24-12:59:52.587914,7.0,0.0,372.0
2022-01-24-12:59:52.589179,7.0,0.0,372.0
2022-01-24-12:59:52.590179,11.0,3.0,372.0
2022-01-24-12:59:52.590179,20.0,3.0,371.0
2022-01-24-12:59:52.591279,20.0,3.0,371.0
2022-01-24-12:59:52.591279,10.0,3.0,371.0
2022-01-24-12:59:52.592326,7.0,5.0,371.0
2022-01-24-12:59:52.593323,7.0,5.0,371.0
2022-01-24-12:59:52.594326,7.0,5.0,371.0
2022-01-24-12:59:52.595319,7.0,5.0,371.0
2022-01-24-12:59:52.596320,1.0,6.0,371.0
2022-01-24-12:59:52.597313,0.0,14.0,371.0
2022-01-24-12:59:52.598310,0.0,11.0,372.0
2022-01-24-12:59:52.599318,0.0,11.0,372.0
2022-01-24-12:59:52.600305,5.0,7.0,372.0
2022-01-24-12:59:52.601302,3.0,2.0,371.0
2022-01-24-12:59:52.602288,1.0,0.0,371.0
2022-01-24-12:59:52.603250,1.0,0.0,371.0
2022-01-24-12:59:52.604300,3.0,2.0,371.0
2022-01-24-12:59:52.605292,11.0,2.0,371.0
2022-01-24-12:59:52.606384,12.0,2.0,372.0
2022-01-24-12:59:52.606384,12.0,2.0,372.0
2022-01-24-12:59:52.607733,12.0,2.0,372.0
2022-01-24-12:59:52.607733,16.0,2.0,371.0
2022-01-24-12:59:52.608780,16.0,0.0,372.0
2022-01-24-12:59:52.609811,12.0,3.0,372.0
2022-01-24-12:59:52.609811,12.0,3.0,372.0
2022-01-24-12:59:52.610845,12.0,3.0,372.0
2022-01-24-12:59:52.611842,12.0,3.0,372.0
2022-01-24-12:59:52.612868,2.0,10.0,371.0
2022-01-24-12:59:52.613858,5.0,10.0,372.0
2022-01-24-12:59:52.614856,5.0,9.0,371.0
2022-01-24-12:59:52.615853,5.0,9.0,371.0
2022-01-24-12:59:52.616850,5.0,6.0,371.0
2022-01-24-12:59:52.617847,4.0,2.0,372.0
2022-01-24-12:59:52.618845,1.0,2.0,371.0
2022-01-24-12:59:52.619844,1.0,2.0,371.0
2022-01-24-12:59:52.620839,10.0,6.0,371.0
2022-01-24-12:59:52.621837,17.0,3.0,371.0
2022-01-24-12:59:52.623776,21.0,3.0,372.0
2022-01-24-12:59:52.623776,16.0,2.0,372.0
2022-01-24-12:59:52.624805,6.0,2.0,372.0
2022-01-24-12:59:52.625803,0.0,5.0,372.0
2022-01-24-12:59:52.626802,0.0,5.0,372.0
2022-01-24-12:59:52.627801,0.0,5.0,372.0
2022-01-24-12:59:52.628763,1.0,11.0,372.0
2022-01-24-12:59:52.629873,3.0,8.0,371.0
2022-01-24-12:59:52.630180,7.0,9.0,371.0
2022-01-24-12:59:52.630180,7.0,9.0,371.0
2022-01-24-12:59:52.631228,7.0,9.0,371.0
2022-01-24-12:59:52.632381,7.0,9.0,371.0
2022-01-24-12:59:52.632381,2.0,10.0,371.0
2022-01-24-12:59:52.633438,5.0,3.0,371.0
2022-01-24-12:59:52.634436,2.0,1.0,372.0
2022-01-24-12:59:52.635431,2.0,1.0,372.0
2022-01-24-12:59:52.636429,2.0,1.0,372.0
2022-01-24-12:59:52.637427,5.0,6.0,371.0
2022-01-24-12:59:52.638423,17.0,1.0,371.0
2022-01-24-12:59:52.639554,20.0,1.0,372.0
2022-01-24-12:59:52.639554,20.0,1.0,372.0
2022-01-24-12:59:52.640587,20.0,1.0,372.0
2022-01-24-12:59:52.641584,20.0,1.0,372.0
2022-01-24-12:59:52.642581,20.0,3.0,372.0
2022-01-24-12:59:52.643686,17.0,8.0,371.0
2022-01-24-12:59:52.643686,17.0,8.0,371.0
2022-01-24-12:59:52.644892,17.0,8.0,371.0
2022-01-24-12:59:52.644892,6.0,7.0,372.0
2022-01-24-12:59:52.645949,2.0,10.0,372.0
2022-01-24-12:59:52.646951,4.0,10.0,372.0
2022-01-24-12:59:52.647943,4.0,10.0,372.0
2022-01-24-12:59:52.648938,4.0,10.0,372.0
2022-01-24-12:59:52.649936,1.0,14.0,371.0
2022-01-24-12:59:52.650933,4.0,7.0,372.0
2022-01-24-12:59:52.651934,2.0,2.0,371.0
2022-01-24-12:59:52.652920,2.0,2.0,371.0
2022-01-24-12:59:52.653920,3.0,0.0,372.0
2022-01-24-12:59:52.654915,17.0,2.0,371.0
2022-01-24-12:59:52.655912,15.0,0.0,371.0
2022-01-24-12:59:52.656910,15.0,0.0,371.0
2022-01-24-12:59:52.658858,4.0,3.0,372.0
2022-01-24-12:59:52.658858,2.0,1.0,372.0
2022-01-24-12:59:52.659878,2.0,1.0,372.0
2022-01-24-12:59:52.660875,2.0,1.0,372.0
2022-01-24-12:59:52.661875,7.0,5.0,371.0
2022-01-24-12:59:52.662870,2.0,7.0,371.0
2022-01-24-12:59:52.663870,6.0,8.0,372.0
2022-01-24-12:59:52.664867,6.0,8.0,372.0
2022-01-24-12:59:52.665862,4.0,9.0,372.0
2022-01-24-12:59:52.666862,11.0,6.0,372.0
2022-01-24-12:59:52.667857,11.0,6.0,372.0
2022-01-24-12:59:52.668854,11.0,6.0,372.0
2022-01-24-12:59:52.669853,1.0,3.0,371.0
2022-01-24-12:59:52.670849,20.0,1.0,371.0
2022-01-24-12:59:52.671848,20.0,1.0,371.0
2022-01-24-12:59:52.672819,20.0,1.0,371.0
2022-01-24-12:59:52.673841,20.0,1.0,371.0
2022-01-24-12:59:52.674949,21.0,1.0,372.0
2022-01-24-12:59:52.674949,12.0,4.0,371.0
2022-01-24-12:59:52.676004,12.0,4.0,371.0
2022-01-24-12:59:52.677166,12.0,4.0,371.0
2022-01-24-12:59:52.677166,8.0,6.0,372.0
2022-01-24-12:59:52.678189,8.0,6.0,372.0
2022-01-24-12:59:52.679283,2.0,6.0,371.0
2022-01-24-12:59:52.679283,2.0,6.0,371.0
2022-01-24-12:59:52.680338,2.0,6.0,371.0
2022-01-24-12:59:52.681527,2.0,6.0,371.0
2022-01-24-12:59:52.681527,2.0,12.0,372.0
2022-01-24-12:59:52.682551,2.0,12.0,372.0
2022-01-24-12:59:52.683549,11.0,1.0,371.0
2022-01-24-12:59:52.684545,11.0,1.0,371.0
2022-01-24-12:59:52.685545,11.0,1.0,371.0
2022-01-24-12:59:52.686540,6.0,1.0,372.0
2022-01-24-12:59:52.687537,16.0,1.0,371.0
2022-01-24-12:59:52.688536,16.0,1.0,371.0
2022-01-24-12:59:52.689533,16.0,1.0,371.0
2022-01-24-12:59:52.690792,9.0,3.0,371.0
2022-01-24-12:59:52.691791,9.0,3.0,371.0
2022-01-24-12:59:52.691791,9.0,3.0,371.0
2022-01-24-12:59:52.692846,9.0,3.0,371.0
2022-01-24-12:59:52.693843,9.0,3.0,371.0
2022-01-24-12:59:52.694890,4.0,4.0,371.0
2022-01-24-12:59:52.694890,2.0,8.0,371.0
2022-01-24-12:59:52.696033,2.0,8.0,371.0
2022-01-24-12:59:52.696033,2.0,8.0,371.0
2022-01-24-12:59:52.697089,2.0,8.0,371.0
2022-01-24-12:59:52.698087,2.0,8.0,371.0
2022-01-24-12:59:52.699325,12.0,10.0,371.0
2022-01-24-12:59:52.699325,10.0,8.0,371.0
2022-01-24-12:59:52.700476,10.0,8.0,371.0
2022-01-24-12:59:52.700476,10.0,8.0,371.0
2022-01-24-12:59:52.701709,10.0,8.0,371.0
2022-01-24-12:59:52.701709,9.0,6.0,372.0
2022-01-24-12:59:52.702741,9.0,6.0,372.0
2022-01-24-12:59:52.703796,24.0,1.0,371.0
2022-01-24-12:59:52.703796,24.0,1.0,371.0
2022-01-24-12:59:52.704851,24.0,1.0,371.0
2022-01-24-12:59:52.705848,24.0,1.0,371.0
2022-01-24-12:59:52.706846,28.0,1.0,371.0
2022-01-24-12:59:52.707843,17.0,3.0,372.0
2022-01-24-12:59:52.708839,17.0,3.0,372.0
2022-01-24-12:59:52.709837,17.0,3.0,372.0
2022-01-24-12:59:52.710836,8.0,3.0,372.0
2022-01-24-12:59:52.711833,8.0,2.0,371.0
2022-01-24-12:59:52.712832,7.0,6.0,371.0
2022-01-24-12:59:52.713822,7.0,6.0,371.0
2022-01-24-12:59:52.714824,11.0,8.0,371.0
2022-01-24-12:59:52.715822,10.0,7.0,371.0
2022-01-24-12:59:52.716818,14.0,5.0,371.0
2022-01-24-12:59:52.717786,14.0,5.0,371.0
2022-01-24-12:59:52.718814,8.0,2.0,371.0
2022-01-24-12:59:52.719811,5.0,2.0,372.0
2022-01-24-12:59:52.720786,9.0,3.0,372.0
2022-01-24-12:59:52.721860,9.0,3.0,372.0
2022-01-24-12:59:52.721860,9.0,3.0,372.0
2022-01-24-12:59:52.722919,9.0,3.0,372.0
2022-01-24-12:59:52.724231,15.0,1.0,371.0
2022-01-24-12:59:52.724231,15.0,1.0,371.0
2022-01-24-12:59:52.725262,15.0,1.0,371.0
2022-01-24-12:59:52.726261,14.0,6.0,371.0
2022-01-24-12:59:52.728254,8.0,2.0,372.0
2022-01-24-12:59:52.728254,4.0,9.0,371.0
2022-01-24-12:59:52.729254,4.0,9.0,371.0
2022-01-24-12:59:52.730218,4.0,9.0,371.0
2022-01-24-12:59:52.731249,0.0,11.0,371.0
2022-01-24-12:59:52.732362,8.0,7.0,371.0
2022-01-24-12:59:52.732362,8.0,7.0,371.0
2022-01-24-12:59:52.733416,8.0,7.0,371.0
2022-01-24-12:59:52.734416,8.0,7.0,371.0
2022-01-24-12:59:52.735412,4.0,6.0,371.0
2022-01-24-12:59:52.736355,4.0,2.0,372.0
2022-01-24-12:59:52.737572,4.0,2.0,372.0
2022-01-24-12:59:52.737572,9.0,1.0,371.0
2022-01-24-12:59:52.738604,9.0,1.0,371.0
2022-01-24-12:59:52.739602,27.0,0.0,372.0
2022-01-24-12:59:52.740603,23.0,3.0,372.0
2022-01-24-12:59:52.741596,23.0,3.0,372.0
2022-01-24-12:59:52.742596,23.0,3.0,372.0
2022-01-24-12:59:52.743591,14.0,4.0,371.0
2022-01-24-12:59:52.744581,3.0,6.0,371.0
2022-01-24-12:59:52.745579,3.0,6.0,371.0
2022-01-24-12:59:52.746551,3.0,6.0,371.0
2022-01-24-12:59:52.747573,3.0,7.0,371.0
2022-01-24-12:59:52.748573,0.0,8.0,372.0
2022-01-24-12:59:52.749566,0.0,8.0,372.0
2022-01-24-12:59:52.750578,0.0,8.0,372.0
2022-01-24-12:59:52.750578,11.0,5.0,372.0
2022-01-24-12:59:52.751752,14.0,1.0,372.0
2022-01-24-12:59:52.751752,8.0,4.0,371.0
2022-01-24-12:59:52.752808,8.0,4.0,371.0
2022-01-24-12:59:52.753805,8.0,4.0,371.0
2022-01-24-12:59:52.754991,8.0,4.0,371.0
2022-01-24-12:59:52.754991,2.0,0.0,372.0
2022-01-24-12:59:52.756014,2.0,0.0,372.0
2022-01-24-12:59:52.757014,5.0,1.0,371.0
2022-01-24-12:59:52.758009,5.0,1.0,371.0
2022-01-24-12:59:52.760016,5.0,1.0,371.0
2022-01-24-12:59:52.760016,8.0,7.0,371.0
2022-01-24-12:59:52.761009,8.0,7.0,371.0
2022-01-24-12:59:52.762006,4.0,8.0,371.0
2022-01-24-12:59:52.762972,4.0,8.0,371.0
2022-01-24-12:59:52.764001,4.0,8.0,372.0
2022-01-24-12:59:52.765001,2.0,6.0,372.0
2022-01-24-12:59:52.765996,2.0,6.0,372.0
2022-01-24-12:59:52.766962,2.0,6.0,372.0
2022-01-24-12:59:52.768018,4.0,12.0,371.0
2022-01-24-12:59:52.768999,2.0,6.0,372.0
2022-01-24-12:59:52.770012,7.0,1.0,372.0
2022-01-24-12:59:52.771006,7.0,1.0,372.0
2022-01-24-12:59:52.772003,13.0,6.0,371.0
2022-01-24-12:59:52.773001,19.0,2.0,371.0
2022-01-24-12:59:52.773998,13.0,1.0,371.0
2022-01-24-12:59:52.774999,13.0,1.0,371.0
2022-01-24-12:59:52.775990,8.0,0.0,371.0
2022-01-24-12:59:52.776982,6.0,4.0,371.0
2022-01-24-12:59:52.777978,6.0,4.0,371.0
2022-01-24-12:59:52.778986,6.0,4.0,371.0
2022-01-24-12:59:52.779974,6.0,4.0,371.0
2022-01-24-12:59:52.780972,5.0,9.0,372.0
2022-01-24-12:59:52.781974,5.0,7.0,372.0
2022-01-24-12:59:52.782920,5.0,7.0,372.0
2022-01-24-12:59:52.783945,5.0,7.0,372.0
2022-01-24-12:59:52.784939,1.0,7.0,371.0
2022-01-24-12:59:52.785937,14.0,3.0,371.0
2022-01-24-12:59:52.786934,13.0,3.0,372.0
2022-01-24-12:59:52.787934,13.0,3.0,372.0
2022-01-24-12:59:52.788929,18.0,2.0,371.0
2022-01-24-12:59:52.789926,28.0,0.0,371.0
2022-01-24-12:59:52.790923,22.0,1.0,371.0
2022-01-24-12:59:52.791924,22.0,1.0,371.0
2022-01-24-12:59:52.792917,16.0,3.0,371.0
2022-01-24-12:59:52.793916,3.0,4.0,372.0
2022-01-24-12:59:52.795911,3.0,4.0,372.0
2022-01-24-12:59:52.795911,6.0,8.0,372.0
2022-01-24-12:59:52.796908,16.0,5.0,372.0
2022-01-24-12:59:52.797910,16.0,5.0,372.0
2022-01-24-12:59:52.798902,16.0,5.0,372.0
2022-01-24-12:59:52.799903,16.0,5.0,372.0
2022-01-24-12:59:52.800896,24.0,6.0,372.0
2022-01-24-12:59:52.801894,3.0,4.0,371.0
2022-01-24-12:59:52.802891,3.0,4.0,371.0
2022-01-24-12:59:52.803863,3.0,4.0,371.0
2022-01-24-12:59:52.804886,0.0,1.0,372.0
2022-01-24-12:59:52.805883,5.0,2.0,372.0
2022-01-24-12:59:52.806881,10.0,2.0,371.0
2022-01-24-12:59:52.807860,10.0,2.0,371.0
2022-01-24-12:59:52.808875,6.0,10.0,372.0
2022-01-24-12:59:52.809873,6.0,10.0,372.0
2022-01-24-12:59:52.810869,6.0,10.0,372.0
2022-01-24-12:59:52.811867,6.0,10.0,372.0
2022-01-24-12:59:52.812868,6.0,10.0,372.0
2022-01-24-12:59:52.813861,6.0,9.0,371.0
2022-01-24-12:59:52.814859,2.0,9.0,371.0
2022-01-24-12:59:52.815860,2.0,9.0,371.0
2022-01-24-12:59:52.816856,2.0,9.0,371.0
2022-01-24-12:59:52.817852,4.0,9.0,372.0
2022-01-24-12:59:52.818848,0.0,5.0,371.0
2022-01-24-12:59:52.819845,0.0,5.0,371.0
2022-01-24-12:59:52.820843,0.0,5.0,371.0
2022-01-24-12:59:52.821840,7.0,7.0,371.0
2022-01-24-12:59:52.822838,25.0,1.0,372.0
2022-01-24-12:59:52.823840,25.0,1.0,372.0
2022-01-24-12:59:52.824832,25.0,1.0,372.0
2022-01-24-12:59:52.826851,9.0,1.0,371.0
2022-01-24-12:59:52.826851,5.0,4.0,371.0
2022-01-24-12:59:52.827846,5.0,4.0,371.0
2022-01-24-12:59:52.828844,5.0,4.0,371.0
2022-01-24-12:59:52.829841,2.0,5.0,371.0
2022-01-24-12:59:52.830929,2.0,9.0,371.0
2022-01-24-12:59:52.830929,2.0,13.0,371.0
2022-01-24-12:59:52.831987,2.0,13.0,371.0
2022-01-24-12:59:52.833177,2.0,13.0,371.0
2022-01-24-12:59:52.833177,3.0,3.0,371.0
2022-01-24-12:59:52.834324,6.0,4.0,371.0
2022-01-24-12:59:52.834324,6.0,4.0,371.0
2022-01-24-12:59:52.835379,6.0,4.0,371.0
2022-01-24-12:59:52.836377,6.0,4.0,371.0
2022-01-24-12:59:52.837605,6.0,4.0,371.0
2022-01-24-12:59:52.837605,15.0,1.0,371.0
2022-01-24-12:59:52.838659,17.0,5.0,372.0
2022-01-24-12:59:52.839654,17.0,5.0,372.0
2022-01-24-12:59:52.840639,17.0,5.0,372.0
2022-01-24-12:59:52.841646,10.0,5.0,370.0
2022-01-24-12:59:52.842620,0.0,9.0,371.0
2022-01-24-12:59:52.843617,0.0,9.0,371.0
2022-01-24-12:59:52.844625,0.0,9.0,371.0
2022-01-24-12:59:52.846641,0.0,9.0,371.0
2022-01-24-12:59:52.846641,3.0,9.0,371.0
2022-01-24-12:59:52.847636,3.0,9.0,371.0
2022-01-24-12:59:52.848634,3.0,9.0,371.0
2022-01-24-12:59:52.849631,3.0,9.0,371.0
2022-01-24-12:59:52.850632,4.0,3.0,370.0
2022-01-24-12:59:52.851604,4.0,3.0,370.0
2022-01-24-12:59:52.852604,4.0,3.0,370.0
2022-01-24-12:59:52.853600,4.0,3.0,370.0
2022-01-24-12:59:52.854624,8.0,1.0,371.0
2022-01-24-12:59:52.855615,16.0,1.0,371.0
2022-01-24-12:59:52.856612,16.0,1.0,371.0
2022-01-24-12:59:52.857618,16.0,1.0,371.0
2022-01-24-12:59:52.858611,18.0,3.0,371.0
2022-01-24-12:59:52.859603,18.0,3.0,371.0
2022-01-24-12:59:52.861603,13.0,4.0,371.0
2022-01-24-12:59:52.861603,13.0,4.0,371.0
2022-01-24-12:59:52.862541,0.0,7.0,371.0
2022-01-24-12:59:52.863592,0.0,11.0,370.0
2022-01-24-12:59:52.864590,0.0,11.0,370.0
2022-01-24-12:59:52.865595,0.0,11.0,370.0
2022-01-24-12:59:52.866584,10.0,7.0,371.0
2022-01-24-12:59:52.867582,20.0,5.0,371.0
2022-01-24-12:59:52.868582,8.0,2.0,371.0
2022-01-24-12:59:52.869522,8.0,2.0,371.0
2022-01-24-12:59:52.870575,3.0,0.0,371.0
2022-01-24-12:59:52.871572,15.0,1.0,371.0
2022-01-24-12:59:52.872570,15.0,2.0,371.0
2022-01-24-12:59:52.873512,15.0,2.0,371.0
2022-01-24-12:59:52.874568,17.0,1.0,371.0
2022-01-24-12:59:52.875563,12.0,3.0,371.0
2022-01-24-12:59:52.876562,11.0,6.0,371.0
2022-01-24-12:59:52.877513,11.0,6.0,371.0
2022-01-24-12:59:52.878554,11.0,6.0,371.0
2022-01-24-12:59:52.879544,7.0,9.0,370.0
2022-01-24-12:59:52.880643,3.0,11.0,371.0
2022-01-24-12:59:52.880643,3.0,11.0,371.0
2022-01-24-12:59:52.881881,3.0,11.0,371.0
2022-01-24-12:59:52.881881,1.0,13.0,371.0
2022-01-24-12:59:52.882930,5.0,4.0,371.0
2022-01-24-12:59:52.883927,6.0,1.0,370.0
2022-01-24-12:59:52.884928,6.0,1.0,370.0
2022-01-24-12:59:52.885873,6.0,1.0,370.0
2022-01-24-12:59:52.886922,3.0,0.0,371.0
2022-01-24-12:59:52.887915,11.0,1.0,371.0
2022-01-24-12:59:52.888912,21.0,2.0,371.0
2022-01-24-12:59:52.889863,21.0,2.0,371.0
2022-01-24-12:59:52.890907,18.0,5.0,371.0
2022-01-24-12:59:52.891884,10.0,1.0,370.0
2022-01-24-12:59:52.892902,5.0,5.0,370.0
2022-01-24-12:59:52.893899,5.0,5.0,370.0
2022-01-24-12:59:52.895872,4.0,6.0,371.0
2022-01-24-12:59:52.895872,4.0,10.0,371.0
2022-01-24-12:59:52.896890,4.0,10.0,371.0
2022-01-24-12:59:52.897887,4.0,10.0,371.0
2022-01-24-12:59:52.898889,4.0,10.0,371.0
2022-01-24-12:59:52.899991,6.0,7.0,371.0
2022-01-24-12:59:52.899991,2.0,3.0,371.0
2022-01-24-12:59:52.901024,2.0,3.0,371.0
2022-01-24-12:59:52.902021,2.0,3.0,371.0
2022-01-24-12:59:52.903239,2.0,3.0,371.0
2022-01-24-12:59:52.903239,8.0,1.0,370.0
2022-01-24-12:59:52.904401,13.0,0.0,370.0
2022-01-24-12:59:52.904401,13.0,0.0,370.0
2022-01-24-12:59:52.905434,13.0,0.0,370.0
2022-01-24-12:59:52.906436,13.0,0.0,370.0
2022-01-24-12:59:52.907659,18.0,1.0,370.0
2022-01-24-12:59:52.907659,17.0,1.0,371.0
2022-01-24-12:59:52.908705,13.0,7.0,371.0
2022-01-24-12:59:52.909706,13.0,7.0,371.0
2022-01-24-12:59:52.910705,13.0,7.0,371.0
2022-01-24-12:59:52.912085,10.0,7.0,370.0
2022-01-24-12:59:52.912085,1.0,12.0,371.0
2022-01-24-12:59:52.913110,1.0,12.0,371.0
2022-01-24-12:59:52.914108,1.0,12.0,371.0
2022-01-24-12:59:52.915104,1.0,12.0,371.0
2022-01-24-12:59:52.916344,4.0,7.0,370.0
2022-01-24-12:59:52.916344,10.0,2.0,370.0
2022-01-24-12:59:52.917467,6.0,4.0,370.0
2022-01-24-12:59:52.917467,6.0,4.0,370.0
2022-01-24-12:59:52.918496,6.0,4.0,370.0
2022-01-24-12:59:52.919490,4.0,3.0,371.0
2022-01-24-12:59:52.920485,8.0,2.0,370.0
2022-01-24-12:59:52.921483,12.0,1.0,371.0
2022-01-24-12:59:52.922534,12.0,1.0,371.0
2022-01-24-12:59:52.922534,15.0,2.0,370.0
2022-01-24-12:59:52.923592,13.0,5.0,371.0
2022-01-24-12:59:52.924587,13.0,5.0,371.0
2022-01-24-12:59:52.925586,13.0,5.0,371.0
2022-01-24-12:59:52.926582,13.0,5.0,371.0
2022-01-24-12:59:52.927584,11.0,6.0,371.0
2022-01-24-12:59:52.928578,4.0,3.0,370.0
2022-01-24-12:59:52.929574,4.0,3.0,370.0
2022-01-24-12:59:52.931571,4.0,3.0,370.0
2022-01-24-12:59:52.931571,1.0,4.0,370.0
2022-01-24-12:59:52.932565,10.0,0.0,370.0
2022-01-24-12:59:52.933557,2.0,4.0,371.0
2022-01-24-12:59:52.934552,2.0,4.0,371.0
2022-01-24-12:59:52.935549,2.0,4.0,371.0
2022-01-24-12:59:52.936527,4.0,4.0,371.0
2022-01-24-12:59:52.937544,11.0,1.0,370.0
2022-01-24-12:59:52.938544,12.0,3.0,370.0
2022-01-24-12:59:52.939541,12.0,3.0,370.0
2022-01-24-12:59:52.940537,14.0,3.0,371.0
2022-01-24-12:59:52.941535,12.0,4.0,371.0
2022-01-24-12:59:52.942531,12.0,4.0,371.0
2022-01-24-12:59:52.943529,12.0,4.0,371.0
2022-01-24-12:59:52.944635,5.0,10.0,370.0
2022-01-24-12:59:52.944635,5.0,10.0,370.0
2022-01-24-12:59:52.945637,5.0,10.0,370.0
2022-01-24-12:59:52.946671,5.0,10.0,370.0
2022-01-24-12:59:52.947687,5.0,10.0,370.0
2022-01-24-12:59:52.948682,0.0,11.0,370.0
2022-01-24-12:59:52.949679,9.0,6.0,371.0
2022-01-24-12:59:52.950761,10.0,9.0,371.0
2022-01-24-12:59:52.950761,10.0,9.0,371.0
2022-01-24-12:59:52.951788,10.0,9.0,371.0
2022-01-24-12:59:52.952797,8.0,4.0,370.0
2022-01-24-12:59:52.953779,4.0,1.0,371.0
2022-01-24-12:59:52.955006,10.0,5.0,371.0
2022-01-24-12:59:52.955176,16.0,0.0,370.0
2022-01-24-12:59:52.955176,16.0,0.0,370.0
2022-01-24-12:59:52.956199,16.0,0.0,370.0
2022-01-24-12:59:52.957445,23.0,2.0,370.0
2022-01-24-12:59:52.957445,14.0,3.0,371.0
2022-01-24-12:59:52.958500,10.0,2.0,370.0
2022-01-24-12:59:52.959443,10.0,2.0,370.0
2022-01-24-12:59:52.960499,5.0,4.0,371.0
2022-01-24-12:59:52.961495,5.0,4.0,371.0
2022-01-24-12:59:52.962591,4.0,10.0,370.0
2022-01-24-12:59:52.963590,4.0,10.0,370.0
2022-01-24-12:59:52.963590,4.0,10.0,370.0
2022-01-24-12:59:52.964643,4.0,11.0,370.0
2022-01-24-12:59:52.965725,13.0,3.0,370.0
2022-01-24-12:59:52.965725,13.0,3.0,370.0
2022-01-24-12:59:52.966748,13.0,3.0,370.0
2022-01-24-12:59:52.967747,13.0,3.0,370.0
2022-01-24-12:59:52.968743,3.0,3.0,370.0
2022-01-24-12:59:52.970012,4.0,2.0,370.0
2022-01-24-12:59:52.970177,9.0,0.0,371.0
2022-01-24-12:59:52.970177,9.0,0.0,371.0
2022-01-24-12:59:52.971208,9.0,0.0,371.0
2022-01-24-12:59:52.972380,9.0,0.0,371.0
2022-01-24-12:59:52.972380,14.0,0.0,370.0
2022-01-24-12:59:52.973437,19.0,1.0,370.0
2022-01-24-12:59:52.974434,16.0,0.0,370.0
2022-01-24-12:59:52.975432,16.0,0.0,370.0
2022-01-24-12:59:52.976430,16.0,0.0,370.0
2022-01-24-12:59:52.977426,10.0,5.0,370.0
2022-01-24-12:59:52.978422,10.0,5.0,370.0
2022-01-24-12:59:52.979364,8.0,4.0,371.0
2022-01-24-12:59:52.980419,0.0,5.0,370.0
2022-01-24-12:59:52.981415,0.0,9.0,371.0
2022-01-24-12:59:52.982405,8.0,12.0,370.0
2022-01-24-12:59:52.983403,8.0,12.0,370.0
2022-01-24-12:59:52.984407,8.0,12.0,370.0
2022-01-24-12:59:52.985396,11.0,9.0,370.0
2022-01-24-12:59:52.986393,1.0,1.0,370.0
2022-01-24-12:59:52.987390,7.0,1.0,371.0
2022-01-24-12:59:52.988390,7.0,1.0,371.0
2022-01-24-12:59:52.989385,11.0,0.0,370.0
2022-01-24-12:59:52.990384,19.0,3.0,371.0
2022-01-24-12:59:52.991382,17.0,0.0,370.0
2022-01-24-12:59:52.992329,17.0,0.0,370.0
2022-01-24-12:59:52.993375,14.0,1.0,371.0
2022-01-24-12:59:52.994371,7.0,2.0,370.0
2022-01-24-12:59:52.995369,9.0,2.0,371.0
2022-01-24-12:59:52.996320,7.0,8.0,370.0
2022-01-24-12:59:52.997363,5.0,8.0,370.0
2022-01-24-12:59:52.999360,11.0,11.0,370.0
2022-01-24-12:59:52.999360,11.0,11.0,370.0
2022-01-24-12:59:53.000355,11.0,11.0,370.0
2022-01-24-12:59:53.001354,11.0,8.0,370.0
2022-01-24-12:59:53.002332,6.0,2.0,370.0
2022-01-24-12:59:53.003349,13.0,0.0,370.0
2022-01-24-12:59:53.004347,13.0,0.0,370.0
2022-01-24-12:59:53.005342,13.0,0.0,370.0
2022-01-24-12:59:53.006341,21.0,0.0,370.0
2022-01-24-12:59:53.007339,13.0,7.0,371.0
2022-01-24-12:59:53.008335,13.0,7.0,371.0
2022-01-24-12:59:53.009332,13.0,7.0,371.0
2022-01-24-12:59:53.010329,11.0,5.0,370.0
2022-01-24-12:59:53.011326,2.0,6.0,371.0
2022-01-24-12:59:53.012326,1.0,8.0,370.0
2022-01-24-12:59:53.013321,1.0,8.0,370.0
2022-01-24-12:59:53.014320,3.0,7.0,370.0
2022-01-24-12:59:53.015317,8.0,7.0,370.0
2022-01-24-12:59:53.016319,8.0,7.0,370.0
2022-01-24-12:59:53.017311,8.0,7.0,370.0
2022-01-24-12:59:53.018307,8.0,7.0,370.0
2022-01-24-12:59:53.019304,1.0,1.0,370.0
2022-01-24-12:59:53.020305,7.0,2.0,370.0
2022-01-24-12:59:53.021303,7.0,2.0,370.0
2022-01-24-12:59:53.022296,12.0,0.0,370.0
2022-01-24-12:59:53.023296,19.0,2.0,371.0
2022-01-24-12:59:53.024292,10.0,0.0,371.0
2022-01-24-12:59:53.025290,10.0,0.0,371.0
2022-01-24-12:59:53.026286,10.0,3.0,371.0
2022-01-24-12:59:53.027283,7.0,2.0,371.0
2022-01-24-12:59:53.028283,1.0,3.0,370.0
2022-01-24-12:59:53.029231,1.0,3.0,370.0
2022-01-24-12:59:53.030277,4.0,9.0,370.0
2022-01-24-12:59:53.032270,4.0,9.0,370.0
2022-01-24-12:59:53.032270,4.0,9.0,370.0
2022-01-24-12:59:53.033220,4.0,9.0,370.0
2022-01-24-12:59:53.034264,4.0,9.0,370.0
2022-01-24-12:59:53.035261,7.0,0.0,370.0
2022-01-24-12:59:53.036262,12.0,0.0,370.0
2022-01-24-12:59:53.037256,12.0,0.0,370.0
2022-01-24-12:59:53.038255,20.0,2.0,370.0
2022-01-24-12:59:53.039356,31.0,3.0,370.0
2022-01-24-12:59:53.039356,24.0,1.0,371.0
2022-01-24-12:59:53.040393,24.0,1.0,371.0
2022-01-24-12:59:53.041630,24.0,1.0,371.0
2022-01-24-12:59:53.041630,17.0,1.0,370.0
2022-01-24-12:59:53.042683,6.0,6.0,370.0
2022-01-24-12:59:53.043679,2.0,8.0,370.0
2022-01-24-12:59:53.044673,2.0,8.0,370.0
2022-01-24-12:59:53.045622,2.0,8.0,370.0
2022-01-24-12:59:53.046667,4.0,11.0,370.0
2022-01-24-12:59:53.047663,8.0,5.0,370.0
2022-01-24-12:59:53.048660,8.0,5.0,370.0
2022-01-24-12:59:53.049612,8.0,5.0,370.0
2022-01-24-12:59:53.050657,12.0,4.0,371.0
2022-01-24-12:59:53.051759,10.0,1.0,370.0
2022-01-24-12:59:53.051759,3.0,1.0,370.0
2022-01-24-12:59:53.052794,3.0,1.0,370.0
2022-01-24-12:59:53.053788,3.0,1.0,370.0
2022-01-24-12:59:53.055017,0.0,1.0,370.0
2022-01-24-12:59:53.055017,9.0,2.0,371.0
2022-01-24-12:59:53.056064,5.0,3.0,371.0
2022-01-24-12:59:53.057061,5.0,3.0,371.0
2022-01-24-12:59:53.058059,5.0,3.0,371.0
2022-01-24-12:59:53.059056,3.0,4.0,370.0
2022-01-24-12:59:53.060053,3.0,4.0,371.0
2022-01-24-12:59:53.061051,1.0,10.0,370.0
2022-01-24-12:59:53.062001,1.0,10.0,370.0
2022-01-24-12:59:53.063045,3.0,23.0,371.0
2022-01-24-12:59:53.064042,2.0,15.0,370.0
2022-01-24-12:59:53.065990,2.0,15.0,370.0
2022-01-24-12:59:53.065990,7.0,11.0,371.0
2022-01-24-12:59:53.067035,7.0,8.0,370.0
2022-01-24-12:59:53.068033,3.0,7.0,371.0
2022-01-24-12:59:53.069008,3.0,7.0,371.0
2022-01-24-12:59:53.070032,3.0,7.0,371.0
2022-01-24-12:59:53.071022,8.0,9.0,370.0
2022-01-24-12:59:53.072022,21.0,4.0,370.0
2022-01-24-12:59:53.073018,21.0,4.0,370.0
2022-01-24-12:59:53.074016,21.0,4.0,370.0
2022-01-24-12:59:53.075014,21.0,4.0,370.0
2022-01-24-12:59:53.075964,6.0,20.0,370.0
2022-01-24-12:59:53.076962,6.0,20.0,370.0
2022-01-24-12:59:53.078004,6.0,20.0,370.0
2022-01-24-12:59:53.079002,6.0,20.0,370.0
2022-01-24-12:59:53.079980,3.0,14.0,370.0
2022-01-24-12:59:53.080998,7.0,23.0,371.0
2022-01-24-12:59:53.081994,5.0,36.0,371.0
2022-01-24-12:59:53.082991,5.0,36.0,371.0
2022-01-24-12:59:53.083988,5.0,11.0,371.0
2022-01-24-12:59:53.084987,2.0,16.0,370.0
2022-01-24-12:59:53.085983,2.0,16.0,370.0
2022-01-24-12:59:53.086986,2.0,16.0,370.0
2022-01-24-12:59:53.087979,8.0,14.0,370.0
2022-01-24-12:59:53.088977,22.0,8.0,371.0
2022-01-24-12:59:53.089973,20.0,0.0,370.0
2022-01-24-12:59:53.090973,20.0,0.0,370.0
2022-01-24-12:59:53.091968,16.0,2.0,370.0
2022-01-24-12:59:53.092971,7.0,15.0,370.0
2022-01-24-12:59:53.093962,0.0,25.0,371.0
2022-01-24-12:59:53.094959,0.0,25.0,371.0
2022-01-24-12:59:53.095957,4.0,14.0,371.0
2022-01-24-12:59:53.096927,7.0,15.0,371.0
2022-01-24-12:59:53.097952,7.0,15.0,371.0
2022-01-24-12:59:53.099926,7.0,15.0,371.0
2022-01-24-12:59:53.099926,11.0,12.0,370.0
2022-01-24-12:59:53.100944,14.0,9.0,370.0
2022-01-24-12:59:53.101940,4.0,7.0,370.0
2022-01-24-12:59:53.102891,4.0,7.0,370.0
2022-01-24-12:59:53.103936,6.0,15.0,370.0
2022-01-24-12:59:53.104933,11.0,3.0,371.0
2022-01-24-12:59:53.105931,15.0,2.0,371.0
2022-01-24-12:59:53.106911,15.0,2.0,371.0
2022-01-24-12:59:53.107926,14.0,2.0,370.0
2022-01-24-12:59:53.108923,10.0,21.0,371.0
2022-01-24-12:59:53.109920,10.0,21.0,371.0
2022-01-24-12:59:53.110957,10.0,21.0,371.0
2022-01-24-12:59:53.110957,6.0,5.0,370.0
2022-01-24-12:59:53.112012,6.0,15.0,370.0
2022-01-24-12:59:53.113011,5.0,5.0,371.0
2022-01-24-12:59:53.114008,5.0,5.0,371.0
2022-01-24-12:59:53.115050,5.0,5.0,371.0
2022-01-24-12:59:53.115050,5.0,5.0,371.0
2022-01-24-12:59:53.116105,5.0,23.0,370.0
2022-01-24-12:59:53.117105,1.0,9.0,371.0
2022-01-24-12:59:53.118109,1.0,9.0,371.0
2022-01-24-12:59:53.119042,1.0,9.0,371.0
2022-01-24-12:59:53.120094,1.0,9.0,371.0
2022-01-24-12:59:53.121097,11.0,31.0,370.0
2022-01-24-12:59:53.122089,15.0,30.0,371.0
2022-01-24-12:59:53.123087,15.0,30.0,371.0
2022-01-24-12:59:53.124083,15.0,30.0,371.0
2022-01-24-12:59:53.125085,10.0,28.0,370.0
2022-01-24-12:59:53.126070,9.0,19.0,371.0
2022-01-24-12:59:53.127075,9.0,19.0,371.0
2022-01-24-12:59:53.128065,9.0,19.0,371.0
2022-01-24-12:59:53.129015,3.0,17.0,370.0
2022-01-24-12:59:53.130059,6.0,18.0,371.0
2022-01-24-12:59:53.131060,6.0,18.0,371.0
2022-01-24-12:59:53.133030,1.0,0.0,371.0
2022-01-24-12:59:53.133030,10.0,13.0,370.0
2022-01-24-12:59:53.134048,10.0,13.0,370.0
2022-01-24-12:59:53.135045,10.0,13.0,370.0
2022-01-24-12:59:53.136048,10.0,13.0,370.0
2022-01-24-12:59:53.137040,2.0,12.0,371.0
2022-01-24-12:59:53.138037,10.0,4.0,370.0
2022-01-24-12:59:53.139037,15.0,8.0,371.0
2022-01-24-12:59:53.140032,15.0,8.0,371.0
2022-01-24-12:59:53.141030,16.0,15.0,370.0
2022-01-24-12:59:53.142028,12.0,27.0,371.0
2022-01-24-12:59:53.143003,13.0,42.0,370.0
2022-01-24-12:59:53.143975,13.0,42.0,370.0
2022-01-24-12:59:53.145019,10.0,21.0,370.0
2022-01-24-12:59:53.145995,4.0,2.0,370.0
2022-01-24-12:59:53.147016,1.0,4.0,370.0
2022-01-24-12:59:53.147964,1.0,4.0,370.0
2022-01-24-12:59:53.149007,1.0,7.0,370.0
2022-01-24-12:59:53.150005,7.0,4.0,370.0
2022-01-24-12:59:53.151003,9.0,4.0,371.0
2022-01-24-12:59:53.151954,9.0,4.0,371.0
2022-01-24-12:59:53.152997,1.0,0.0,370.0
2022-01-24-12:59:53.153995,8.0,12.0,371.0
2022-01-24-12:59:53.154995,13.0,21.0,370.0
2022-01-24-12:59:53.155989,13.0,21.0,370.0
2022-01-24-12:59:53.156986,16.0,16.0,370.0
2022-01-24-12:59:53.157983,14.0,0.0,370.0
2022-01-24-12:59:53.158936,12.0,4.0,370.0
2022-01-24-12:59:53.159933,12.0,4.0,370.0
2022-01-24-12:59:53.160929,12.0,4.0,370.0
2022-01-24-12:59:53.161927,6.0,0.0,371.0
2022-01-24-12:59:53.162931,6.0,11.0,371.0
2022-01-24-12:59:53.163922,4.0,14.0,370.0
2022-01-24-12:59:53.164919,3.0,19.0,370.0
2022-01-24-12:59:53.165915,4.0,17.0,370.0
2022-01-24-12:59:53.166913,2.0,11.0,370.0
2022-01-24-12:59:53.167911,2.0,7.0,370.0
2022-01-24-12:59:53.168908,2.0,7.0,370.0
2022-01-24-12:59:53.169905,1.0,0.0,370.0
2022-01-24-12:59:53.171906,7.0,13.0,370.0
2022-01-24-12:59:53.171906,7.0,13.0,370.0
2022-01-24-12:59:53.172907,13.0,14.0,371.0
2022-01-24-12:59:53.173894,7.0,6.0,370.0
2022-01-24-12:59:53.174892,7.0,6.0,370.0
2022-01-24-12:59:53.175890,7.0,6.0,370.0
2022-01-24-12:59:53.176919,7.0,6.0,370.0
2022-01-24-12:59:53.177916,9.0,9.0,370.0
2022-01-24-12:59:53.178916,5.0,31.0,370.0
2022-01-24-12:59:53.179879,0.0,54.0,370.0
2022-01-24-12:59:53.180910,0.0,54.0,370.0
2022-01-24-12:59:53.181906,1.0,46.0,370.0
2022-01-24-12:59:53.182902,5.0,2.0,370.0
2022-01-24-12:59:53.183903,10.0,46.0,370.0
2022-01-24-12:59:53.184866,10.0,46.0,370.0
2022-01-24-12:59:53.185902,6.0,41.0,370.0
2022-01-24-12:59:53.186895,6.0,12.0,370.0
2022-01-24-12:59:53.187881,6.0,12.0,370.0
2022-01-24-12:59:53.188855,11.0,7.0,370.0
2022-01-24-12:59:53.189876,18.0,12.0,371.0
2022-01-24-12:59:53.190849,16.0,14.0,370.0
2022-01-24-12:59:53.191847,11.0,16.0,371.0
2022-01-24-12:59:53.192867,11.0,16.0,371.0
2022-01-24-12:59:53.193874,0.0,11.0,370.0
2022-01-24-12:59:53.194846,3.0,10.0,370.0
2022-01-24-12:59:53.195860,5.0,17.0,371.0
2022-01-24-12:59:53.196875,5.0,17.0,371.0
2022-01-24-12:59:53.197865,5.0,17.0,371.0
2022-01-24-12:59:53.198863,8.0,28.0,371.0
2022-01-24-12:59:53.199860,1.0,28.0,370.0
2022-01-24-12:59:53.200849,1.0,28.0,370.0
2022-01-24-12:59:53.201846,1.0,28.0,370.0
2022-01-24-12:59:53.203841,17.0,4.0,370.0
2022-01-24-12:59:53.203841,17.0,4.0,370.0
2022-01-24-12:59:53.204859,17.0,4.0,370.0
2022-01-24-12:59:53.205841,17.0,4.0,370.0
2022-01-24-12:59:53.206834,21.0,2.0,371.0
2022-01-24-12:59:53.207830,4.0,12.0,371.0
2022-01-24-12:59:53.208827,4.0,12.0,371.0
2022-01-24-12:59:53.209845,4.0,12.0,371.0
2022-01-24-12:59:53.210845,2.0,33.0,371.0
2022-01-24-12:59:53.211840,1.0,18.0,371.0
2022-01-24-12:59:53.212791,2.0,2.0,370.0
2022-01-24-12:59:53.213840,2.0,2.0,370.0
2022-01-24-12:59:53.214831,1.0,6.0,371.0
2022-01-24-12:59:53.215829,1.0,12.0,370.0
2022-01-24-12:59:53.216832,8.0,18.0,370.0
2022-01-24-12:59:53.217823,8.0,18.0,370.0
2022-01-24-12:59:53.218825,5.0,52.0,370.0
2022-01-24-12:59:53.219798,29.0,15.0,370.0
2022-01-24-12:59:53.220815,29.0,15.0,370.0
2022-01-24-12:59:53.221767,29.0,15.0,370.0
2022-01-24-12:59:53.222810,40.0,5.0,370.0
2022-01-24-12:59:53.223807,16.0,10.0,370.0
2022-01-24-12:59:53.224805,16.0,10.0,370.0
2022-01-24-12:59:53.225756,16.0,10.0,370.0
2022-01-24-12:59:53.226803,3.0,4.0,370.0
2022-01-24-12:59:53.227797,9.0,13.0,371.0
2022-01-24-12:59:53.228794,9.0,13.0,371.0
2022-01-24-12:59:53.229764,9.0,13.0,371.0
2022-01-24-12:59:53.230788,14.0,10.0,370.0
2022-01-24-12:59:53.231786,13.0,10.0,371.0
2022-01-24-12:59:53.232784,13.0,10.0,371.0
2022-01-24-12:59:53.233780,13.0,10.0,371.0
2022-01-24-12:59:53.234781,13.0,10.0,371.0
2022-01-24-12:59:53.235775,1.0,10.0,371.0
2022-01-24-12:59:53.236773,2.0,5.0,370.0
2022-01-24-12:59:53.238769,2.0,5.0,370.0
2022-01-24-12:59:53.238769,8.0,0.0,370.0
2022-01-24-12:59:53.239765,9.0,1.0,371.0
2022-01-24-12:59:53.240762,3.0,7.0,370.0
2022-01-24-12:59:53.241760,3.0,7.0,370.0
2022-01-24-12:59:53.242760,3.0,7.0,370.0
2022-01-24-12:59:53.243754,1.0,14.0,370.0
2022-01-24-12:59:53.244751,1.0,29.0,370.0
2022-01-24-12:59:53.245733,1.0,29.0,370.0
2022-01-24-12:59:53.246746,1.0,29.0,370.0
2022-01-24-12:59:53.247743,3.0,28.0,370.0
2022-01-24-12:59:53.248741,1.0,19.0,370.0
2022-01-24-12:59:53.249738,2.0,5.0,371.0
2022-01-24-12:59:53.250739,2.0,5.0,371.0
2022-01-24-12:59:53.251733,3.0,15.0,370.0
2022-01-24-12:59:53.252711,16.0,19.0,371.0
2022-01-24-12:59:53.253708,16.0,19.0,371.0
2022-01-24-12:59:53.254680,16.0,19.0,371.0
2022-01-24-12:59:53.255693,25.0,12.0,370.0
2022-01-24-12:59:53.256673,23.0,12.0,371.0
2022-01-24-12:59:53.257697,16.0,3.0,371.0
2022-01-24-12:59:53.258677,16.0,3.0,371.0
2022-01-24-12:59:53.259679,11.0,12.0,370.0
2022-01-24-12:59:53.260697,1.0,18.0,370.0
2022-01-24-12:59:53.261660,1.0,18.0,370.0
2022-01-24-12:59:53.262658,1.0,18.0,370.0
2022-01-24-12:59:53.263681,2.0,12.0,371.0
2022-01-24-12:59:53.264652,8.0,6.0,370.0
2022-01-24-12:59:53.265686,8.0,6.0,370.0
2022-01-24-12:59:53.266647,8.0,6.0,370.0
2022-01-24-12:59:53.267692,6.0,5.0,370.0
2022-01-24-12:59:53.268658,2.0,16.0,371.0
2022-01-24-12:59:53.269638,6.0,38.0,370.0
2022-01-24-12:59:53.270661,10.0,43.0,371.0
2022-01-24-12:59:53.271660,25.0,58.0,370.0
2022-01-24-12:59:53.273652,15.0,5.0,371.0
2022-01-24-12:59:53.273652,15.0,5.0,371.0
2022-01-24-12:59:53.274652,15.0,5.0,371.0
2022-01-24-12:59:53.275655,15.0,5.0,371.0
2022-01-24-12:59:53.276621,3.0,65.0,371.0
2022-01-24-12:59:53.277623,6.0,65.0,370.0
2022-01-24-12:59:53.278640,6.0,65.0,370.0
2022-01-24-12:59:53.279613,6.0,65.0,370.0
2022-01-24-12:59:53.280610,6.0,65.0,370.0
2022-01-24-12:59:53.281633,6.0,10.0,370.0
2022-01-24-12:59:53.282604,6.0,10.0,370.0
2022-01-24-12:59:53.283603,6.0,10.0,370.0
2022-01-24-12:59:53.284599,1.0,24.0,371.0
2022-01-24-12:59:53.285596,11.0,26.0,370.0
2022-01-24-12:59:53.286594,11.0,26.0,370.0
2022-01-24-12:59:53.287618,11.0,26.0,370.0
2022-01-24-12:59:53.288588,14.0,29.0,371.0
2022-01-24-12:59:53.289586,15.0,15.0,371.0
2022-01-24-12:59:53.290583,22.0,26.0,370.0
2022-01-24-12:59:53.291580,22.0,26.0,370.0
2022-01-24-12:59:53.292577,22.0,10.0,370.0
2022-01-24-12:59:53.293574,3.0,21.0,371.0
2022-01-24-12:59:53.294572,5.0,35.0,371.0
2022-01-24-12:59:53.295569,5.0,35.0,371.0
2022-01-24-12:59:53.296567,2.0,59.0,370.0
2022-01-24-12:59:53.297564,1.0,57.0,370.0
2022-01-24-12:59:53.298595,0.0,41.0,371.0
2022-01-24-12:59:53.299560,0.0,41.0,371.0
2022-01-24-12:59:53.300590,5.0,25.0,370.0
2022-01-24-12:59:53.301586,3.0,7.0,371.0
2022-01-24-12:59:53.302583,4.0,7.0,370.0
2022-01-24-12:59:53.303549,4.0,7.0,370.0
2022-01-24-12:59:53.305575,19.0,9.0,370.0
2022-01-24-12:59:53.305575,19.0,9.0,370.0
2022-01-24-12:59:53.306575,19.0,9.0,370.0
2022-01-24-12:59:53.307569,19.0,9.0,370.0
2022-01-24-12:59:53.308569,13.0,11.0,371.0
2022-01-24-12:59:53.309566,7.0,5.0,370.0
2022-01-24-12:59:53.310529,7.0,5.0,370.0
2022-01-24-12:59:53.311561,7.0,5.0,370.0
2022-01-24-12:59:53.312563,7.0,5.0,370.0
2022-01-24-12:59:53.313521,3.0,71.0,371.0
2022-01-24-12:59:53.314519,3.0,57.0,371.0
2022-01-24-12:59:53.315516,3.0,57.0,371.0
2022-01-24-12:59:53.316514,3.0,57.0,371.0
2022-01-24-12:59:53.317510,1.0,6.0,371.0
2022-01-24-12:59:53.318508,12.0,30.0,371.0
2022-01-24-12:59:53.319541,12.0,30.0,371.0
2022-01-24-12:59:53.320536,12.0,30.0,371.0
2022-01-24-12:59:53.321501,12.0,19.0,370.0
2022-01-24-12:59:53.322497,20.0,1.0,371.0
2022-01-24-12:59:53.323494,12.0,20.0,371.0
2022-01-24-12:59:53.324492,12.0,20.0,371.0
2022-01-24-12:59:53.325523,7.0,16.0,370.0
2022-01-24-12:59:53.326525,4.0,22.0,370.0
2022-01-24-12:59:53.327518,7.0,13.0,371.0
2022-01-24-12:59:53.328514,7.0,13.0,371.0
2022-01-24-12:59:53.329479,1.0,13.0,370.0
2022-01-24-12:59:53.330512,0.0,5.0,370.0
2022-01-24-12:59:53.331508,0.0,5.0,370.0
2022-01-24-12:59:53.332471,0.0,5.0,370.0
2022-01-24-12:59:53.333468,5.0,4.0,370.0
2022-01-24-12:59:53.334466,1.0,16.0,370.0
2022-01-24-12:59:53.335498,1.0,16.0,370.0
2022-01-24-12:59:53.336460,1.0,16.0,370.0
2022-01-24-12:59:53.337457,4.0,24.0,370.0
2022-01-24-12:59:53.338482,19.0,24.0,370.0
2022-01-24-12:59:53.340449,17.0,22.0,370.0
2022-01-24-12:59:53.340449,7.0,20.0,371.0
2022-01-24-12:59:53.341447,1.0,12.0,370.0
2022-01-24-12:59:53.342445,1.0,12.0,370.0
2022-01-24-12:59:53.343442,1.0,12.0,370.0
2022-01-24-12:59:53.344439,1.0,12.0,370.0
2022-01-24-12:59:53.345436,1.0,12.0,370.0
2022-01-24-12:59:53.346435,1.0,12.0,370.0
2022-01-24-12:59:53.347457,3.0,27.0,371.0
2022-01-24-12:59:53.348454,7.0,16.0,370.0
2022-01-24-12:59:53.349452,2.0,15.0,371.0
2022-01-24-12:59:53.350448,2.0,55.0,371.0
2022-01-24-12:59:53.351420,2.0,55.0,371.0
2022-01-24-12:59:53.352417,2.0,55.0,371.0
2022-01-24-12:59:53.353415,2.0,55.0,371.0
2022-01-24-12:59:53.354440,8.0,54.0,371.0
2022-01-24-12:59:53.355412,15.0,32.0,370.0
2022-01-24-12:59:53.356407,14.0,25.0,370.0
2022-01-24-12:59:53.357404,18.0,44.0,370.0
2022-01-24-12:59:53.358402,7.0,2.0,370.0
2022-01-24-12:59:53.359400,7.0,2.0,370.0
2022-01-24-12:59:53.360396,7.0,2.0,370.0
2022-01-24-12:59:53.361393,7.0,2.0,370.0
2022-01-24-12:59:53.362427,5.0,4.0,370.0
2022-01-24-12:59:53.363389,0.0,13.0,370.0
2022-01-24-12:59:53.364385,0.0,13.0,370.0
2022-01-24-12:59:53.365384,0.0,13.0,370.0
2022-01-24-12:59:53.366407,0.0,9.0,371.0
2022-01-24-12:59:53.367404,8.0,42.0,370.0
2022-01-24-12:59:53.368400,4.0,64.0,371.0
2022-01-24-12:59:53.369398,4.0,64.0,371.0
2022-01-24-12:59:53.370397,1.0,49.0,370.0
2022-01-24-12:59:53.371393,6.0,3.0,370.0
2022-01-24-12:59:53.372390,15.0,24.0,371.0
2022-01-24-12:59:53.373386,15.0,24.0,371.0
2022-01-24-12:59:53.374359,14.0,45.0,370.0
2022-01-24-12:59:53.376354,15.0,43.0,370.0
2022-01-24-12:59:53.376354,9.0,12.0,370.0
2022-01-24-12:59:53.377351,9.0,12.0,370.0
2022-01-24-12:59:53.378348,7.0,13.0,371.0
2022-01-24-12:59:53.379345,4.0,2.0,370.0
2022-01-24-12:59:53.380369,4.0,2.0,370.0
2022-01-24-12:59:53.381341,4.0,2.0,370.0
2022-01-24-12:59:53.382338,1.0,4.0,370.0
2022-01-24-12:59:53.383336,7.0,11.0,370.0
2022-01-24-12:59:53.384331,7.0,11.0,370.0
2022-01-24-12:59:53.385330,7.0,11.0,370.0
2022-01-24-12:59:53.386327,3.0,5.0,370.0
2022-01-24-12:59:53.387324,14.0,6.0,370.0
2022-01-24-12:59:53.388353,14.0,6.0,370.0
2022-01-24-12:59:53.389319,14.0,6.0,370.0
2022-01-24-12:59:53.390316,12.0,4.0,370.0
2022-01-24-12:59:53.391339,7.0,2.0,370.0
2022-01-24-12:59:53.392340,7.0,2.0,370.0
2022-01-24-12:59:53.393334,7.0,2.0,370.0
2022-01-24-12:59:53.394326,7.0,2.0,370.0
2022-01-24-12:59:53.395329,3.0,2.0,371.0
2022-01-24-12:59:53.396300,1.0,6.0,370.0
2022-01-24-12:59:53.397297,1.0,6.0,370.0
2022-01-24-12:59:53.398295,1.0,6.0,370.0
2022-01-24-12:59:53.399320,1.0,15.0,370.0
2022-01-24-12:59:53.400289,8.0,3.0,371.0
2022-01-24-12:59:53.401286,6.0,3.0,370.0
2022-01-24-12:59:53.402284,6.0,3.0,370.0
2022-01-24-12:59:53.403281,2.0,1.0,370.0
2022-01-24-12:59:53.404279,5.0,1.0,371.0
2022-01-24-12:59:53.405276,10.0,0.0,371.0
2022-01-24-12:59:53.407270,15.0,2.0,371.0
2022-01-24-12:59:53.408268,9.0,2.0,371.0
2022-01-24-12:59:53.408268,9.0,2.0,371.0
2022-01-24-12:59:53.409265,9.0,2.0,371.0
2022-01-24-12:59:53.410263,9.0,2.0,371.0
2022-01-24-12:59:53.411260,3.0,2.0,370.0
2022-01-24-12:59:53.412257,5.0,17.0,370.0
2022-01-24-12:59:53.413280,5.0,17.0,370.0
2022-01-24-12:59:53.414252,5.0,17.0,370.0
2022-01-24-12:59:53.415250,3.0,21.0,370.0
2022-01-24-12:59:53.416247,1.0,17.0,370.0
2022-01-24-12:59:53.417268,5.0,12.0,370.0
2022-01-24-12:59:53.418241,7.0,16.0,370.0
2022-01-24-12:59:53.419264,2.0,15.0,371.0
2022-01-24-12:59:53.420237,1.0,1.0,370.0
2022-01-24-12:59:53.421259,10.0,6.0,370.0
2022-01-24-12:59:53.422256,10.0,6.0,370.0
2022-01-24-12:59:53.423227,18.0,3.0,371.0
2022-01-24-12:59:53.424225,15.0,8.0,370.0
2022-01-24-12:59:53.425222,14.0,3.0,370.0
2022-01-24-12:59:53.426220,14.0,3.0,370.0
2022-01-24-12:59:53.427217,14.0,3.0,370.0
2022-01-24-12:59:53.428215,9.0,5.0,371.0
2022-01-24-12:59:53.429212,2.0,13.0,371.0
2022-01-24-12:59:53.430210,2.0,13.0,371.0
2022-01-24-12:59:53.431241,9.0,24.0,370.0
2022-01-24-12:59:53.432204,9.0,24.0,370.0
2022-01-24-12:59:53.433201,9.0,24.0,370.0
2022-01-24-12:59:53.434198,9.0,24.0,370.0
2022-01-24-12:59:53.435196,9.0,24.0,370.0
2022-01-24-12:59:53.436193,1.0,26.0,371.0
2022-01-24-12:59:53.437215,11.0,4.0,371.0
2022-01-24-12:59:53.438214,11.0,4.0,371.0
2022-01-24-12:59:53.439212,11.0,4.0,371.0
2022-01-24-12:59:53.440183,18.0,27.0,371.0
2022-01-24-12:59:53.441180,11.0,37.0,371.0
2022-01-24-12:59:53.442177,11.0,37.0,371.0
2022-01-24-12:59:53.444172,11.0,37.0,371.0
2022-01-24-12:59:53.444172,7.0,26.0,370.0
2022-01-24-12:59:53.445169,4.0,21.0,370.0
2022-01-24-12:59:53.446167,2.0,12.0,371.0
2022-01-24-12:59:53.447190,2.0,12.0,371.0
2022-01-24-12:59:53.448186,1.0,9.0,370.0
2022-01-24-12:59:53.449185,6.0,4.0,370.0
2022-01-24-12:59:53.450183,7.0,1.0,370.0
2022-01-24-12:59:53.451179,7.0,1.0,370.0
2022-01-24-12:59:53.452177,2.0,1.0,370.0
2022-01-24-12:59:53.453149,15.0,1.0,370.0
2022-01-24-12:59:53.454178,15.0,1.0,370.0
2022-01-24-12:59:53.455143,15.0,1.0,370.0
2022-01-24-12:59:53.456173,20.0,0.0,371.0
2022-01-24-12:59:53.457171,13.0,4.0,370.0
2022-01-24-12:59:53.458171,8.0,12.0,370.0
2022-01-24-12:59:53.459131,8.0,12.0,370.0
2022-01-24-12:59:53.460155,8.0,15.0,371.0
2022-01-24-12:59:53.461127,5.0,5.0,370.0
2022-01-24-12:59:53.462124,5.0,5.0,370.0
2022-01-24-12:59:53.463121,5.0,5.0,370.0
2022-01-24-12:59:53.464118,5.0,5.0,370.0
2022-01-24-12:59:53.465116,2.0,2.0,371.0
2022-01-24-12:59:53.466149,10.0,23.0,370.0
2022-01-24-12:59:53.467143,10.0,23.0,370.0
2022-01-24-12:59:53.468108,10.0,23.0,370.0
2022-01-24-12:59:53.469107,9.0,0.0,370.0
2022-01-24-12:59:53.470103,13.0,5.0,371.0
2022-01-24-12:59:53.471099,13.0,5.0,371.0
2022-01-24-12:59:53.472130,13.0,5.0,371.0
2022-01-24-12:59:53.473129,16.0,11.0,370.0
2022-01-24-12:59:53.474128,12.0,5.0,370.0
2022-01-24-12:59:53.475122,12.0,5.0,370.0
2022-01-24-12:59:53.476122,12.0,5.0,370.0
2022-01-24-12:59:53.477116,6.0,4.0,370.0
2022-01-24-12:59:53.479113,3.0,6.0,370.0
2022-01-24-12:59:53.479113,2.0,10.0,371.0
2022-01-24-12:59:53.480076,2.0,10.0,371.0
2022-01-24-12:59:53.481073,1.0,4.0,370.0
2022-01-24-12:59:53.482071,1.0,4.0,370.0
2022-01-24-12:59:53.483100,1.0,4.0,370.0
2022-01-24-12:59:53.484091,1.0,4.0,370.0
2022-01-24-12:59:53.485088,2.0,2.0,370.0
2022-01-24-12:59:53.486059,10.0,2.0,371.0
2022-01-24-12:59:53.487058,10.0,2.0,371.0
2022-01-24-12:59:53.488054,10.0,2.0,371.0
2022-01-24-12:59:53.489051,12.0,3.0,371.0
2022-01-24-12:59:53.490049,10.0,0.0,371.0
2022-01-24-12:59:53.491047,10.0,0.0,371.0
2022-01-24-12:59:53.492044,10.0,0.0,371.0
2022-01-24-12:59:53.493041,1.0,6.0,370.0
2022-01-24-12:59:53.494038,1.0,6.0,370.0
2022-01-24-12:59:53.495036,1.0,6.0,370.0
2022-01-24-12:59:53.496032,1.0,6.0,370.0
2022-01-24-12:59:53.497031,4.0,12.0,371.0
2022-01-24-12:59:53.498028,9.0,9.0,371.0
2022-01-24-12:59:53.499025,9.0,9.0,371.0
2022-01-24-12:59:53.500023,9.0,9.0,371.0
2022-01-24-12:59:53.501020,9.0,9.0,371.0
2022-01-24-12:59:53.502017,2.0,0.0,370.0
2022-01-24-12:59:53.503015,7.0,1.0,371.0
2022-01-24-12:59:53.504013,10.0,1.0,371.0
2022-01-24-12:59:53.505010,10.0,1.0,371.0
2022-01-24-12:59:53.506006,20.0,0.0,370.0
2022-01-24-12:59:53.507037,13.0,2.0,370.0
2022-01-24-12:59:53.508036,13.0,2.0,370.0
2022-01-24-12:59:53.509030,13.0,2.0,370.0
2022-01-24-12:59:53.510027,11.0,5.0,371.0
2022-01-24-12:59:53.511027,8.0,4.0,370.0
2022-01-24-12:59:53.512988,8.0,4.0,370.0
2022-01-24-12:59:53.512988,7.0,9.0,370.0
2022-01-24-12:59:53.514148,3.0,8.0,371.0
2022-01-24-12:59:53.514461,9.0,1.0,370.0
2022-01-24-12:59:53.514461,9.0,1.0,370.0
2022-01-24-12:59:53.515485,9.0,1.0,370.0
2022-01-24-12:59:53.516483,9.0,1.0,370.0
2022-01-24-12:59:53.517480,16.0,1.0,370.0
2022-01-24-12:59:53.518480,5.0,2.0,371.0
2022-01-24-12:59:53.519475,2.0,0.0,370.0
2022-01-24-12:59:53.520472,2.0,0.0,370.0
2022-01-24-12:59:53.521471,2.0,0.0,370.0
2022-01-24-12:59:53.522675,18.0,2.0,371.0
2022-01-24-12:59:53.522843,15.0,6.0,371.0
2022-01-24-12:59:53.522843,15.0,6.0,371.0
2022-01-24-12:59:53.523871,15.0,6.0,371.0
2022-01-24-12:59:53.524866,15.0,6.0,371.0
2022-01-24-12:59:53.525864,13.0,4.0,371.0
2022-01-24-12:59:53.527100,13.0,4.0,371.0
2022-01-24-12:59:53.527100,9.0,4.0,371.0
2022-01-24-12:59:53.528134,7.0,5.0,371.0
2022-01-24-12:59:53.529129,7.0,5.0,371.0
2022-01-24-12:59:53.530135,5.0,8.0,370.0
2022-01-24-12:59:53.531125,2.0,8.0,371.0
2022-01-24-12:59:53.532121,3.0,9.0,371.0
2022-01-24-12:59:53.533118,3.0,9.0,371.0
2022-01-24-12:59:53.534084,7.0,9.0,370.0
2022-01-24-12:59:53.535113,1.0,0.0,370.0
2022-01-24-12:59:53.536168,1.0,0.0,370.0
2022-01-24-12:59:53.536168,1.0,0.0,370.0
2022-01-24-12:59:53.537224,1.0,0.0,370.0
2022-01-24-12:59:53.538218,11.0,2.0,370.0
2022-01-24-12:59:53.539215,16.0,0.0,371.0
2022-01-24-12:59:53.540311,15.0,0.0,370.0
2022-01-24-12:59:53.540311,15.0,0.0,370.0
2022-01-24-12:59:53.541335,15.0,0.0,370.0
2022-01-24-12:59:53.542657,12.0,1.0,371.0
2022-01-24-12:59:53.542657,12.0,1.0,371.0
2022-01-24-12:59:53.543689,9.0,3.0,370.0
2022-01-24-12:59:53.545683,2.0,2.0,370.0
2022-01-24-12:59:53.545683,2.0,2.0,370.0
2022-01-24-12:59:53.546827,0.0,12.0,370.0
2022-01-24-12:59:53.546827,0.0,12.0,370.0
2022-01-24-12:59:53.547851,0.0,12.0,370.0
2022-01-24-12:59:53.548848,0.0,12.0,370.0
2022-01-24-12:59:53.549848,0.0,12.0,370.0
2022-01-24-12:59:53.550820,5.0,5.0,370.0
2022-01-24-12:59:53.551817,3.0,2.0,371.0
2022-01-24-12:59:53.552814,3.0,2.0,371.0
2022-01-24-12:59:53.553812,3.0,2.0,371.0
2022-01-24-12:59:53.554809,15.0,1.0,370.0
2022-01-24-12:59:53.555829,20.0,2.0,370.0
2022-01-24-12:59:53.556827,20.0,2.0,370.0
2022-01-24-12:59:53.557826,20.0,2.0,370.0
2022-01-24-12:59:53.558798,8.0,4.0,370.0
2022-01-24-12:59:53.559819,8.0,4.0,370.0
2022-01-24-12:59:53.560793,8.0,4.0,370.0
2022-01-24-12:59:53.561789,8.0,4.0,370.0
2022-01-24-12:59:53.562787,3.0,8.0,370.0
2022-01-24-12:59:53.563810,2.0,9.0,370.0
2022-01-24-12:59:53.564807,2.0,9.0,370.0
2022-01-24-12:59:53.565805,2.0,9.0,370.0
2022-01-24-12:59:53.566777,8.0,3.0,370.0
2022-01-24-12:59:53.567774,5.0,3.0,371.0
2022-01-24-12:59:53.568798,5.0,3.0,371.0
2022-01-24-12:59:53.569821,5.0,3.0,371.0
2022-01-24-12:59:53.570766,11.0,2.0,371.0
2022-01-24-12:59:53.571764,17.0,1.0,370.0
2022-01-24-12:59:53.572761,17.0,1.0,370.0
2022-01-24-12:59:53.573758,17.0,1.0,370.0
2022-01-24-12:59:53.574756,17.0,1.0,370.0
2022-01-24-12:59:53.575753,8.0,5.0,371.0
2022-01-24-12:59:53.576750,4.0,9.0,370.0
2022-01-24-12:59:53.578770,4.0,9.0,370.0
2022-01-24-12:59:53.578770,3.0,10.0,370.0
2022-01-24-12:59:53.579742,3.0,10.0,370.0
2022-01-24-12:59:53.580740,3.0,10.0,370.0
2022-01-24-12:59:53.581737,3.0,10.0,370.0
2022-01-24-12:59:53.582734,3.0,10.0,370.0
2022-01-24-12:59:53.583732,7.0,9.0,370.0
2022-01-24-12:59:53.584729,1.0,2.0,370.0
2022-01-24-12:59:53.585726,1.0,2.0,370.0
2022-01-24-12:59:53.586724,1.0,2.0,370.0
2022-01-24-12:59:53.587721,10.0,6.0,371.0
2022-01-24-12:59:53.588718,17.0,0.0,371.0
2022-01-24-12:59:53.589716,17.0,0.0,371.0
2022-01-24-12:59:53.590713,17.0,0.0,371.0
2022-01-24-12:59:53.591710,14.0,6.0,371.0
2022-01-24-12:59:53.592734,10.0,4.0,370.0
2022-01-24-12:59:53.593730,10.0,4.0,370.0
2022-01-24-12:59:53.594702,10.0,4.0,370.0
2022-01-24-12:59:53.595700,7.0,4.0,370.0
2022-01-24-12:59:53.596697,2.0,6.0,371.0
2022-01-24-12:59:53.597720,1.0,7.0,371.0
2022-01-24-12:59:53.598718,1.0,7.0,371.0
2022-01-24-12:59:53.599689,5.0,6.0,371.0
2022-01-24-12:59:53.600686,3.0,0.0,370.0
2022-01-24-12:59:53.601708,3.0,0.0,370.0
2022-01-24-12:59:53.602707,3.0,0.0,370.0
2022-01-24-12:59:53.603678,6.0,4.0,370.0
2022-01-24-12:59:53.604676,18.0,1.0,371.0
2022-01-24-12:59:53.605698,18.0,1.0,371.0
2022-01-24-12:59:53.606696,18.0,1.0,371.0
2022-01-24-12:59:53.607668,13.0,2.0,370.0
2022-01-24-12:59:53.608665,11.0,2.0,370.0
2022-01-24-12:59:53.609687,11.0,2.0,370.0
2022-01-24-12:59:53.610685,11.0,2.0,370.0
2022-01-24-12:59:53.611657,4.0,4.0,370.0
2022-01-24-12:59:53.613677,5.0,10.0,370.0
2022-01-24-12:59:53.613677,5.0,10.0,370.0
2022-01-24-12:59:53.614649,5.0,10.0,370.0
2022-01-24-12:59:53.615671,5.0,10.0,370.0
2022-01-24-12:59:53.616644,4.0,9.0,370.0
2022-01-24-12:59:53.617641,6.0,6.0,370.0
2022-01-24-12:59:53.618638,6.0,6.0,370.0
2022-01-24-12:59:53.619636,6.0,6.0,370.0
2022-01-24-12:59:53.620633,2.0,3.0,370.0
2022-01-24-12:59:53.621630,17.0,1.0,370.0
2022-01-24-12:59:53.622628,17.0,1.0,370.0
2022-01-24-12:59:53.623625,17.0,1.0,370.0
2022-01-24-12:59:53.624622,14.0,3.0,370.0
2022-01-24-12:59:53.625620,7.0,3.0,370.0
2022-01-24-12:59:53.626643,7.0,3.0,370.0
2022-01-24-12:59:53.627639,7.0,3.0,370.0
2022-01-24-12:59:53.628612,1.0,4.0,370.0
2022-01-24-12:59:53.629609,7.0,12.0,370.0
2022-01-24-12:59:53.630606,7.0,12.0,370.0
2022-01-24-12:59:53.631604,7.0,12.0,370.0
2022-01-24-12:59:53.632601,4.0,15.0,370.0
2022-01-24-12:59:53.633598,1.0,4.0,370.0
2022-01-24-12:59:53.634596,1.0,4.0,370.0
2022-01-24-12:59:53.635594,1.0,4.0,370.0
2022-01-24-12:59:53.636590,0.0,2.0,370.0
2022-01-24-12:59:53.637588,0.0,1.0,370.0
2022-01-24-12:59:53.638610,12.0,2.0,371.0
2022-01-24-12:59:53.639607,12.0,2.0,371.0
2022-01-24-12:59:53.640580,19.0,1.0,370.0
2022-01-24-12:59:53.641577,10.0,5.0,371.0
2022-01-24-12:59:53.642599,10.0,5.0,371.0
2022-01-24-12:59:53.643597,10.0,5.0,371.0
2022-01-24-12:59:53.645591,5.0,5.0,371.0
2022-01-24-12:59:53.645591,10.0,4.0,371.0
2022-01-24-12:59:53.646564,10.0,4.0,371.0
2022-01-24-12:59:53.647561,10.0,4.0,371.0
2022-01-24-12:59:53.648558,4.0,6.0,370.0
2022-01-24-12:59:53.649556,1.0,0.0,370.0
2022-01-24-12:59:53.650553,1.0,0.0,370.0
2022-01-24-12:59:53.651550,1.0,0.0,370.0
2022-01-24-12:59:53.652548,1.0,0.0,370.0
2022-01-24-12:59:53.653545,3.0,5.0,371.0
2022-01-24-12:59:53.654567,3.0,5.0,371.0
2022-01-24-12:59:53.655564,3.0,5.0,371.0
2022-01-24-12:59:53.656563,3.0,5.0,371.0
2022-01-24-12:59:53.657534,8.0,6.0,370.0
2022-01-24-12:59:53.658532,9.0,2.0,371.0
2022-01-24-12:59:53.659528,9.0,2.0,371.0
2022-01-24-12:59:53.660551,9.0,2.0,371.0
2022-01-24-12:59:53.661523,5.0,4.0,370.0
2022-01-24-12:59:53.662521,1.0,5.0,371.0
2022-01-24-12:59:53.663518,1.0,5.0,371.0
2022-01-24-12:59:53.664516,1.0,5.0,371.0
2022-01-24-12:59:53.665513,0.0,6.0,370.0
2022-01-24-12:59:53.666510,9.0,10.0,370.0
2022-01-24-12:59:53.667533,15.0,8.0,370.0
2022-01-24-12:59:53.668530,15.0,8.0,370.0
2022-01-24-12:59:53.669529,9.0,1.0,370.0
2022-01-24-12:59:53.670500,3.0,1.0,371.0
2022-01-24-12:59:53.671496,3.0,1.0,371.0
2022-01-24-12:59:53.672493,7.0,3.0,371.0
2022-01-24-12:59:53.673492,12.0,4.0,370.0
2022-01-24-12:59:53.674488,12.0,4.0,370.0
2022-01-24-12:59:53.681471,12.0,4.0,370.0
2022-01-24-12:59:53.683463,1.0,12.0,370.0
2022-01-24-12:59:53.683463,0.0,8.0,370.0
2022-01-24-12:59:53.684461,0.0,8.0,370.0
2022-01-24-12:59:53.685458,0.0,8.0,370.0
2022-01-24-12:59:53.686456,0.0,8.0,370.0
2022-01-24-12:59:53.687453,0.0,8.0,370.0
2022-01-24-12:59:53.688450,0.0,8.0,370.0
2022-01-24-12:59:53.697427,0.0,8.0,370.0
2022-01-24-12:59:53.698424,13.0,8.0,371.0
2022-01-24-12:59:53.699421,13.0,8.0,371.0
2022-01-24-12:59:53.700419,13.0,8.0,371.0
2022-01-24-12:59:53.701416,13.0,8.0,371.0
2022-01-24-12:59:53.702413,13.0,8.0,371.0
2022-01-24-12:59:53.703410,19.0,4.0,370.0
2022-01-24-12:59:53.704408,19.0,4.0,370.0
2022-01-24-12:59:53.705405,19.0,4.0,370.0
2022-01-24-12:59:53.706402,19.0,4.0,370.0
2022-01-24-12:59:53.707400,19.0,4.0,370.0
2022-01-24-12:59:53.708398,19.0,4.0,370.0
2022-01-24-12:59:53.709395,19.0,4.0,370.0
2022-01-24-12:59:53.710393,19.0,4.0,370.0
2022-01-24-12:59:53.711390,24.0,1.0,371.0
2022-01-24-12:59:53.712387,24.0,1.0,371.0
2022-01-24-12:59:53.713384,24.0,1.0,371.0
2022-01-24-12:59:53.714383,24.0,1.0,371.0
2022-01-24-12:59:53.715380,24.0,1.0,371.0
2022-01-24-12:59:53.722360,24.0,1.0,371.0
2022-01-24-12:59:53.723360,24.0,1.0,371.0
2022-01-24-12:59:53.724369,24.0,1.0,371.0
2022-01-24-12:59:53.725354,24.0,1.0,371.0
2022-01-24-12:59:53.726350,24.0,1.0,371.0
2022-01-24-12:59:53.727347,24.0,1.0,371.0
2022-01-24-12:59:53.728346,24.0,1.0,371.0
2022-01-24-12:59:53.734329,24.0,1.0,371.0
2022-01-24-12:59:53.735327,24.0,1.0,371.0
2022-01-24-12:59:53.736323,24.0,1.0,371.0
2022-01-24-12:59:53.737329,24.0,1.0,371.0
2022-01-24-12:59:53.738344,24.0,1.0,371.0
2022-01-24-12:59:53.739315,24.0,1.0,371.0
2022-01-24-12:59:53.740312,24.0,1.0,371.0
2022-01-24-12:59:53.746296,24.0,5.0,370.0
2022-01-24-12:59:53.747293,24.0,5.0,370.0
2022-01-24-12:59:53.748290,24.0,5.0,370.0
2022-01-24-12:59:53.749305,24.0,5.0,370.0
2022-01-24-12:59:53.750286,24.0,5.0,370.0
2022-01-24-12:59:53.751283,24.0,5.0,370.0
2022-01-24-12:59:53.752281,24.0,5.0,370.0
2022-01-24-12:59:53.753278,24.0,5.0,370.0
2022-01-24-12:59:53.754275,24.0,5.0,370.0
2022-01-24-12:59:53.755273,24.0,5.0,370.0
2022-01-24-12:59:53.756269,24.0,5.0,370.0
2022-01-24-12:59:53.757268,24.0,5.0,370.0
2022-01-24-12:59:53.764247,24.0,5.0,370.0
2022-01-24-12:59:53.765245,24.0,5.0,370.0
2022-01-24-12:59:53.766243,21.0,2.0,370.0
2022-01-24-12:59:53.767240,19.0,1.0,370.0
2022-01-24-12:59:53.768237,12.0,2.0,371.0
2022-01-24-12:59:53.769251,20.0,8.0,371.0
2022-01-24-12:59:53.770231,33.0,13.0,371.0
2022-01-24-12:59:53.772227,34.0,10.0,370.0
2022-01-24-12:59:53.772227,1.0,15.0,370.0
2022-01-24-12:59:53.773235,17.0,8.0,371.0
2022-01-24-12:59:53.774222,8.0,1.0,370.0
2022-01-24-12:59:53.775219,1.0,3.0,371.0
2022-01-24-12:59:53.776216,7.0,2.0,370.0
2022-01-24-12:59:53.777213,2.0,6.0,370.0
2022-01-24-12:59:53.778211,3.0,5.0,370.0
2022-01-24-12:59:53.779208,7.0,11.0,370.0
2022-01-24-12:59:53.780206,14.0,10.0,370.0
2022-01-24-12:59:53.781203,37.0,3.0,371.0
2022-01-24-12:59:53.782201,11.0,7.0,371.0
2022-01-24-12:59:53.783198,7.0,5.0,371.0
2022-01-24-12:59:53.784196,6.0,0.0,370.0
2022-01-24-12:59:53.785193,4.0,1.0,371.0
2022-01-24-12:59:53.786191,9.0,6.0,370.0
2022-01-24-12:59:53.787188,15.0,9.0,370.0
2022-01-24-12:59:53.788185,29.0,9.0,370.0
2022-01-24-12:59:53.789182,34.0,5.0,371.0
2022-01-24-12:59:53.790180,13.0,7.0,370.0
2022-01-24-12:59:53.791176,10.0,1.0,371.0
2022-01-24-12:59:53.792174,10.0,1.0,371.0
2022-01-24-12:59:53.793171,13.0,2.0,371.0
2022-01-24-12:59:53.794169,24.0,0.0,370.0
2022-01-24-12:59:53.795166,32.0,1.0,370.0
2022-01-24-12:59:53.796164,27.0,6.0,370.0
2022-01-24-12:59:53.797161,11.0,4.0,370.0
2022-01-24-12:59:53.798158,12.0,9.0,370.0
2022-01-24-12:59:53.799156,20.0,2.0,370.0
2022-01-24-12:59:53.800153,7.0,5.0,370.0
2022-01-24-12:59:53.801150,17.0,4.0,370.0
2022-01-24-12:59:53.802147,21.0,7.0,371.0
2022-01-24-12:59:53.803145,22.0,9.0,371.0
2022-01-24-12:59:53.805139,17.0,9.0,371.0
2022-01-24-12:59:53.805139,12.0,10.0,370.0
2022-01-24-12:59:53.806137,1.0,15.0,370.0
2022-01-24-12:59:53.807134,15.0,3.0,370.0
2022-01-24-12:59:53.808131,8.0,2.0,370.0
2022-01-24-12:59:53.809129,0.0,5.0,371.0
2022-01-24-12:59:53.810126,16.0,1.0,370.0
2022-01-24-12:59:53.811123,25.0,4.0,370.0
2022-01-24-12:59:53.812120,24.0,1.0,371.0
2022-01-24-12:59:53.813117,12.0,5.0,371.0
2022-01-24-12:59:53.814115,9.0,5.0,371.0
2022-01-24-12:59:53.815148,4.0,5.0,371.0
2022-01-24-12:59:53.815148,3.0,4.0,370.0
2022-01-24-12:59:53.816180,6.0,10.0,371.0
2022-01-24-12:59:53.817177,5.0,9.0,371.0
2022-01-24-12:59:53.818174,2.0,8.0,370.0
2022-01-24-12:59:53.819172,3.0,10.0,370.0
2022-01-24-12:59:53.820169,9.0,6.0,370.0
2022-01-24-12:59:53.821169,8.0,6.0,370.0
2022-01-24-12:59:53.822462,5.0,3.0,371.0
2022-01-24-12:59:53.822566,5.0,3.0,371.0
2022-01-24-12:59:53.822566,16.0,1.0,371.0
2022-01-24-12:59:53.823601,16.0,5.0,370.0
2022-01-24-12:59:53.824595,7.0,2.0,371.0
2022-01-24-12:59:53.825593,0.0,0.0,371.0
2022-01-24-12:59:53.826597,1.0,6.0,370.0
2022-01-24-12:59:53.827588,1.0,10.0,371.0
2022-01-24-12:59:53.828585,7.0,8.0,371.0
2022-01-24-12:59:53.829576,4.0,2.0,371.0
2022-01-24-12:59:53.830572,18.0,3.0,371.0
2022-01-24-12:59:53.831571,33.0,3.0,370.0
2022-01-24-12:59:53.832567,11.0,1.0,371.0
2022-01-24-12:59:53.833563,5.0,7.0,370.0
2022-01-24-12:59:53.834562,3.0,8.0,370.0
2022-01-24-12:59:53.835558,2.0,0.0,371.0
2022-01-24-12:59:53.837530,5.0,1.0,371.0
2022-01-24-12:59:53.837530,2.0,3.0,371.0
2022-01-24-12:59:53.838550,10.0,1.0,370.0
2022-01-24-12:59:53.839550,10.0,1.0,370.0
2022-01-24-12:59:53.840521,10.0,1.0,370.0
2022-01-24-12:59:53.841796,5.0,4.0,370.0
2022-01-24-12:59:53.841796,3.0,3.0,371.0
2022-01-24-12:59:53.842795,3.0,3.0,371.0
2022-01-24-12:59:53.843792,3.0,3.0,371.0
2022-01-24-12:59:53.844790,3.0,3.0,371.0
2022-01-24-12:59:53.845787,1.0,9.0,370.0
2022-01-24-12:59:53.846785,6.0,10.0,371.0
2022-01-24-12:59:53.847851,6.0,10.0,371.0
2022-01-24-12:59:53.847851,6.0,10.0,371.0
2022-01-24-12:59:53.848904,6.0,10.0,371.0
2022-01-24-12:59:53.849849,4.0,9.0,370.0
2022-01-24-12:59:53.851235,4.0,9.0,370.0
2022-01-24-12:59:53.851778,4.0,9.0,370.0
2022-01-24-12:59:53.851998,4.0,9.0,370.0
2022-01-24-12:59:53.852186,4.0,9.0,370.0
2022-01-24-12:59:53.852186,4.0,9.0,370.0
2022-01-24-12:59:53.853186,4.0,9.0,370.0
2022-01-24-12:59:53.854218,15.0,1.0,370.0
2022-01-24-12:59:53.855214,17.0,1.0,370.0
2022-01-24-12:59:53.856210,17.0,1.0,370.0
2022-01-24-12:59:53.857207,17.0,1.0,370.0
2022-01-24-12:59:53.858199,12.0,0.0,371.0
2022-01-24-12:59:53.859194,0.0,4.0,370.0
2022-01-24-12:59:53.860173,0.0,4.0,370.0
2022-01-24-12:59:53.861165,0.0,4.0,370.0
2022-01-24-12:59:53.862161,3.0,7.0,370.0
2022-01-24-12:59:53.863159,6.0,7.0,371.0
2022-01-24-12:59:53.864156,6.0,7.0,371.0
2022-01-24-12:59:53.865178,6.0,7.0,371.0
2022-01-24-12:59:53.866177,8.0,6.0,371.0
2022-01-24-12:59:53.867179,3.0,6.0,370.0
2022-01-24-12:59:53.868170,3.0,6.0,370.0
2022-01-24-12:59:53.869169,3.0,6.0,370.0
2022-01-24-12:59:53.870165,17.0,5.0,370.0
2022-01-24-12:59:53.872180,17.0,5.0,370.0
2022-01-24-12:59:53.872180,18.0,4.0,370.0
2022-01-24-12:59:53.873132,18.0,4.0,370.0
2022-01-24-12:59:53.874155,4.0,5.0,370.0
2022-01-24-12:59:53.875151,3.0,4.0,370.0
2022-01-24-12:59:53.876148,3.0,4.0,370.0
2022-01-24-12:59:53.877121,3.0,4.0,370.0
2022-01-24-12:59:53.878143,5.0,3.0,371.0
2022-01-24-12:59:53.879142,3.0,4.0,370.0
2022-01-24-12:59:53.880138,3.0,4.0,370.0
2022-01-24-12:59:53.881111,3.0,4.0,370.0
2022-01-24-12:59:53.882134,7.0,7.0,370.0
2022-01-24-12:59:53.883130,1.0,0.0,371.0
2022-01-24-12:59:53.884128,1.0,0.0,371.0
2022-01-24-12:59:53.885127,1.0,0.0,371.0
2022-01-24-12:59:53.886123,16.0,1.0,370.0
2022-01-24-12:59:53.887121,20.0,1.0,371.0
2022-01-24-12:59:53.888116,20.0,1.0,371.0
2022-01-24-12:59:53.889114,20.0,1.0,371.0
2022-01-24-12:59:53.890113,18.0,4.0,371.0
2022-01-24-12:59:53.891109,14.0,6.0,370.0
2022-01-24-12:59:53.892081,12.0,1.0,371.0
2022-01-24-12:59:53.893106,12.0,1.0,371.0
2022-01-24-12:59:53.894100,12.0,1.0,371.0
2022-01-24-12:59:53.895100,0.0,5.0,370.0
2022-01-24-12:59:53.896095,5.0,10.0,370.0
2022-01-24-12:59:53.897093,5.0,10.0,370.0
2022-01-24-12:59:53.898091,5.0,10.0,370.0
2022-01-24-12:59:53.899087,1.0,9.0,371.0
2022-01-24-12:59:53.900084,7.0,6.0,370.0
2022-01-24-12:59:53.901084,7.0,4.0,370.0
2022-01-24-12:59:53.902080,7.0,4.0,370.0
2022-01-24-12:59:53.903078,9.0,2.0,371.0
2022-01-24-12:59:53.905072,15.0,4.0,371.0
2022-01-24-12:59:53.905072,15.0,4.0,371.0
2022-01-24-12:59:53.906088,15.0,4.0,371.0
2022-01-24-12:59:53.907066,19.0,3.0,370.0
2022-01-24-12:59:53.908068,5.0,0.0,370.0
2022-01-24-12:59:53.909063,5.0,0.0,370.0
2022-01-24-12:59:53.910058,5.0,0.0,370.0
2022-01-24-12:59:53.911057,1.0,2.0,370.0
2022-01-24-12:59:53.912053,3.0,4.0,370.0
2022-01-24-12:59:53.913026,3.0,11.0,370.0
2022-01-24-12:59:53.914023,3.0,11.0,370.0
2022-01-24-12:59:53.915045,6.0,8.0,371.0
2022-01-24-12:59:53.916042,10.0,9.0,370.0
2022-01-24-12:59:53.917041,5.0,5.0,371.0
2022-01-24-12:59:53.918012,5.0,5.0,371.0
2022-01-24-12:59:53.919009,1.0,4.0,370.0
2022-01-24-12:59:53.920031,7.0,3.0,371.0
2022-01-24-12:59:53.921029,20.0,3.0,370.0
2022-01-24-12:59:53.922001,20.0,3.0,370.0
2022-01-24-12:59:53.923023,12.0,1.0,371.0
2022-01-24-12:59:53.924021,9.0,2.0,371.0
2022-01-24-12:59:53.925020,9.0,2.0,371.0
2022-01-24-12:59:53.926016,9.0,2.0,371.0
2022-01-24-12:59:53.927014,9.0,2.0,371.0
2022-01-24-12:59:53.928010,5.0,4.0,370.0
2022-01-24-12:59:53.929008,2.0,5.0,370.0
2022-01-24-12:59:53.930011,2.0,5.0,370.0
2022-01-24-12:59:53.931002,2.0,5.0,370.0
2022-01-24-12:59:53.931999,1.0,4.0,370.0
2022-01-24-12:59:53.932999,4.0,4.0,370.0
2022-01-24-12:59:53.933997,5.0,5.0,370.0
2022-01-24-12:59:53.934993,5.0,5.0,370.0
2022-01-24-12:59:53.935988,4.0,3.0,370.0
2022-01-24-12:59:53.936986,4.0,3.0,370.0
2022-01-24-12:59:53.937985,6.0,4.0,371.0
2022-01-24-12:59:53.939978,13.0,2.0,371.0
2022-01-24-12:59:53.939978,13.0,2.0,371.0
2022-01-24-12:59:53.940997,22.0,1.0,370.0
2022-01-24-12:59:53.941993,12.0,0.0,370.0
2022-01-24-12:59:53.942989,12.0,0.0,370.0
2022-01-24-12:59:53.943987,8.0,3.0,371.0
2022-01-24-12:59:53.944984,2.0,8.0,370.0
2022-01-24-12:59:53.945981,2.0,8.0,370.0
2022-01-24-12:59:53.946981,2.0,8.0,370.0
2022-01-24-12:59:53.947976,2.0,9.0,371.0
2022-01-24-12:59:53.948976,5.0,5.0,370.0
2022-01-24-12:59:53.949972,3.0,4.0,371.0
2022-01-24-12:59:53.950924,3.0,4.0,371.0
2022-01-24-12:59:53.951966,5.0,5.0,371.0
2022-01-24-12:59:53.952964,8.0,2.0,370.0
2022-01-24-12:59:53.953960,8.0,2.0,370.0
2022-01-24-12:59:53.954914,12.0,2.0,370.0
2022-01-24-12:59:53.955955,12.0,2.0,370.0
2022-01-24-12:59:53.956958,18.0,1.0,370.0
2022-01-24-12:59:53.957951,9.0,4.0,371.0
2022-01-24-12:59:53.958903,9.0,4.0,371.0
2022-01-24-12:59:53.959944,11.0,6.0,371.0
2022-01-24-12:59:53.960942,6.0,7.0,370.0
2022-01-24-12:59:53.961938,6.0,7.0,370.0
2022-01-24-12:59:53.962927,6.0,7.0,370.0
2022-01-24-12:59:53.963915,4.0,4.0,371.0
2022-01-24-12:59:53.964933,10.0,6.0,371.0
2022-01-24-12:59:53.965929,10.0,6.0,371.0
2022-01-24-12:59:53.966925,10.0,6.0,371.0
2022-01-24-12:59:53.967923,10.0,6.0,371.0
2022-01-24-12:59:53.968876,6.0,1.0,370.0
2022-01-24-12:59:53.969900,4.0,1.0,370.0
2022-01-24-12:59:53.970895,12.0,2.0,370.0
2022-01-24-12:59:53.972901,25.0,3.0,371.0
2022-01-24-12:59:53.972901,20.0,3.0,371.0
2022-01-24-12:59:53.974021,20.0,3.0,371.0
2022-01-24-12:59:53.974021,20.0,3.0,371.0
2022-01-24-12:59:53.975076,20.0,3.0,371.0
2022-01-24-12:59:53.976076,20.0,3.0,371.0
2022-01-24-12:59:53.977281,24.0,1.0,371.0
2022-01-24-12:59:53.977281,18.0,1.0,371.0
2022-01-24-12:59:53.978337,7.0,7.0,370.0
2022-01-24-12:59:53.979335,7.0,7.0,370.0
2022-01-24-12:59:53.980330,6.0,9.0,370.0
2022-01-24-12:59:53.981328,12.0,11.0,370.0
2022-01-24-12:59:53.982326,23.0,13.0,371.0
2022-01-24-12:59:53.983323,23.0,13.0,371.0
2022-01-24-12:59:53.984322,23.0,13.0,371.0
2022-01-24-12:59:53.985317,14.0,1.0,371.0
2022-01-24-12:59:53.986315,7.0,2.0,370.0
2022-01-24-12:59:53.987314,7.0,2.0,370.0
2022-01-24-12:59:53.988311,7.0,2.0,370.0
2022-01-24-12:59:53.989307,9.0,3.0,371.0
2022-01-24-12:59:53.990296,13.0,0.0,371.0
2022-01-24-12:59:53.991294,13.0,0.0,371.0
2022-01-24-12:59:53.992300,13.0,0.0,371.0
2022-01-24-12:59:53.993288,9.0,5.0,371.0
2022-01-24-12:59:53.994286,6.0,4.0,371.0
2022-01-24-12:59:53.995284,3.0,7.0,371.0
2022-01-24-12:59:53.996280,3.0,7.0,371.0
2022-01-24-12:59:53.997257,1.0,9.0,371.0
2022-01-24-12:59:53.998281,3.0,4.0,370.0
2022-01-24-12:59:53.999272,3.0,4.0,370.0
2022-01-24-12:59:54.000271,3.0,4.0,370.0
2022-01-24-12:59:54.001267,4.0,9.0,370.0
2022-01-24-12:59:54.002262,2.0,0.0,371.0
2022-01-24-12:59:54.003263,10.0,3.0,370.0
2022-01-24-12:59:54.004267,10.0,3.0,370.0
2022-01-24-12:59:54.005256,7.0,0.0,371.0
2022-01-24-12:59:54.007368,16.0,2.0,371.0
2022-01-24-12:59:54.007368,16.0,2.0,371.0
2022-01-24-12:59:54.008398,16.0,2.0,371.0
2022-01-24-12:59:54.009395,10.0,3.0,371.0
2022-01-24-12:59:54.010396,6.0,7.0,370.0
2022-01-24-12:59:54.011392,4.0,4.0,371.0
2022-01-24-12:59:54.012387,4.0,4.0,371.0
2022-01-24-12:59:54.013352,2.0,4.0,370.0
2022-01-24-12:59:54.014385,8.0,10.0,370.0
2022-01-24-12:59:54.015385,5.0,8.0,370.0
2022-01-24-12:59:54.016378,5.0,8.0,370.0
2022-01-24-12:59:54.017374,9.0,7.0,371.0
2022-01-24-12:59:54.018375,1.0,2.0,371.0
2022-01-24-12:59:54.019369,5.0,5.0,370.0
2022-01-24-12:59:54.020366,5.0,5.0,370.0
2022-01-24-12:59:54.021364,12.0,4.0,370.0
2022-01-24-12:59:54.022360,22.0,3.0,370.0
2022-01-24-12:59:54.023358,20.0,7.0,370.0
2022-01-24-12:59:54.024356,20.0,7.0,370.0
2022-01-24-12:59:54.025353,20.0,7.0,370.0
2022-01-24-12:59:54.026354,9.0,5.0,371.0
2022-01-24-12:59:54.027347,8.0,9.0,371.0
2022-01-24-12:59:54.028344,8.0,9.0,371.0
2022-01-24-12:59:54.029343,8.0,9.0,371.0
2022-01-24-12:59:54.030420,2.0,9.0,370.0
2022-01-24-12:59:54.030420,6.0,5.0,370.0
2022-01-24-12:59:54.031477,1.0,10.0,370.0
2022-01-24-12:59:54.032451,1.0,10.0,370.0
2022-01-24-12:59:54.033470,1.0,10.0,370.0
2022-01-24-12:59:54.034468,7.0,2.0,370.0
2022-01-24-12:59:54.035467,4.0,0.0,371.0
2022-01-24-12:59:54.036465,4.0,0.0,371.0
2022-01-24-12:59:54.037461,7.0,1.0,370.0
2022-01-24-12:59:54.038459,23.0,0.0,370.0
2022-01-24-12:59:54.039717,23.0,0.0,370.0
2022-01-24-12:59:54.040717,23.0,0.0,370.0
2022-01-24-12:59:54.041306,16.0,4.0,370.0
2022-01-24-12:59:54.041306,14.0,5.0,371.0
2022-01-24-12:59:54.042463,11.0,6.0,370.0
2022-01-24-12:59:54.042463,11.0,6.0,370.0
2022-01-24-12:59:54.043530,11.0,6.0,370.0
2022-01-24-12:59:54.044584,11.0,6.0,370.0
2022-01-24-12:59:54.045584,11.0,6.0,370.0
2022-01-24-12:59:54.046580,9.0,5.0,371.0
2022-01-24-12:59:54.047577,6.0,11.0,371.0
2022-01-24-12:59:54.048574,6.0,10.0,370.0
2022-01-24-12:59:54.049574,6.0,10.0,370.0
2022-01-24-12:59:54.050569,4.0,3.0,371.0
2022-01-24-12:59:54.051561,0.0,3.0,370.0
2022-01-24-12:59:54.052556,3.0,0.0,370.0
2022-01-24-12:59:54.053563,3.0,0.0,370.0
2022-01-24-12:59:54.054654,10.0,1.0,371.0
2022-01-24-12:59:54.054654,10.0,1.0,371.0
2022-01-24-12:59:54.055685,10.0,1.0,371.0
2022-01-24-12:59:54.056685,10.0,1.0,371.0
2022-01-24-12:59:54.057680,10.0,1.0,371.0
2022-01-24-12:59:54.058677,6.0,1.0,370.0
2022-01-24-12:59:54.059677,7.0,4.0,370.0
2022-01-24-12:59:54.060673,14.0,3.0,371.0
2022-01-24-12:59:54.061749,14.0,3.0,371.0
2022-01-24-12:59:54.061749,10.0,2.0,370.0
2022-01-24-12:59:54.062804,16.0,11.0,371.0
2022-01-24-12:59:54.063803,6.0,11.0,370.0
2022-01-24-12:59:54.064799,6.0,11.0,370.0
2022-01-24-12:59:54.066005,6.0,11.0,370.0
2022-01-24-12:59:54.066005,0.0,7.0,370.0
2022-01-24-12:59:54.067059,12.0,4.0,370.0
2022-01-24-12:59:54.068058,11.0,1.0,370.0
2022-01-24-12:59:54.069054,11.0,1.0,370.0
2022-01-24-12:59:54.070088,11.0,1.0,370.0
2022-01-24-12:59:54.070088,4.0,0.0,371.0
2022-01-24-12:59:54.072085,14.0,1.0,371.0
2022-01-24-12:59:54.072085,14.0,1.0,371.0
2022-01-24-12:59:54.073116,14.0,1.0,371.0
2022-01-24-12:59:54.074111,14.0,1.0,371.0
2022-01-24-12:59:54.075108,19.0,1.0,371.0
2022-01-24-12:59:54.076105,2.0,3.0,370.0
2022-01-24-12:59:54.077103,6.0,3.0,370.0
2022-01-24-12:59:54.078103,6.0,3.0,370.0
2022-01-24-12:59:54.079174,3.0,0.0,370.0
2022-01-24-12:59:54.079174,7.0,8.0,370.0
2022-01-24-12:59:54.080229,8.0,11.0,370.0
2022-01-24-12:59:54.081226,8.0,11.0,370.0
2022-01-24-12:59:54.082223,8.0,11.0,370.0
2022-01-24-12:59:54.083203,9.0,11.0,370.0
2022-01-24-12:59:54.084218,10.0,7.0,371.0
2022-01-24-12:59:54.085217,5.0,7.0,370.0
2022-01-24-12:59:54.086215,5.0,7.0,370.0
2022-01-24-12:59:54.087190,11.0,0.0,370.0
2022-01-24-12:59:54.088186,19.0,2.0,371.0
2022-01-24-12:59:54.089183,19.0,2.0,371.0
2022-01-24-12:59:54.090147,19.0,2.0,371.0
2022-01-24-12:59:54.091178,15.0,3.0,371.0
2022-01-24-12:59:54.092179,9.0,0.0,370.0
2022-01-24-12:59:54.093195,9.0,0.0,370.0
2022-01-24-12:59:54.094136,9.0,0.0,370.0
2022-01-24-12:59:54.095136,8.0,5.0,370.0
2022-01-24-12:59:54.096163,6.0,8.0,371.0
2022-01-24-12:59:54.097160,6.0,8.0,371.0
2022-01-24-12:59:54.098166,6.0,8.0,371.0
2022-01-24-12:59:54.099155,6.0,8.0,371.0
2022-01-24-12:59:54.100266,3.0,5.0,370.0
2022-01-24-12:59:54.100266,1.0,2.0,371.0
2022-01-24-12:59:54.101314,1.0,2.0,371.0
2022-01-24-12:59:54.102330,1.0,2.0,371.0
2022-01-24-12:59:54.103601,18.0,2.0,371.0
2022-01-24-12:59:54.103601,18.0,2.0,371.0
2022-01-24-12:59:54.104632,18.0,2.0,371.0
2022-01-24-12:59:54.105630,33.0,0.0,370.0
2022-01-24-12:59:54.107593,30.0,5.0,371.0
2022-01-24-12:59:54.107593,20.0,0.0,370.0
2022-01-24-12:59:54.108623,20.0,0.0,370.0
2022-01-24-12:59:54.109619,20.0,0.0,370.0
2022-01-24-12:59:54.110585,20.0,0.0,370.0
2022-01-24-12:59:54.111613,20.0,0.0,371.0
2022-01-24-12:59:54.112610,15.0,2.0,370.0
2022-01-24-12:59:54.113609,2.0,9.0,370.0
2022-01-24-12:59:54.114574,2.0,9.0,370.0
2022-01-24-12:59:54.115603,0.0,7.0,370.0
2022-01-24-12:59:54.116747,0.0,7.0,371.0
2022-01-24-12:59:54.116747,0.0,7.0,371.0
2022-01-24-12:59:54.117794,0.0,7.0,371.0
2022-01-24-12:59:54.118795,0.0,7.0,371.0
2022-01-24-12:59:54.119775,10.0,0.0,371.0
2022-01-24-12:59:54.120786,26.0,1.0,370.0
2022-01-24-12:59:54.122224,21.0,0.0,371.0
2022-01-24-12:59:54.122224,21.0,0.0,371.0
2022-01-24-12:59:54.123457,21.0,0.0,371.0
2022-01-24-12:59:54.123457,5.0,4.0,370.0
2022-01-24-12:59:54.124494,5.0,4.0,370.0
2022-01-24-12:59:54.125487,2.0,3.0,371.0
2022-01-24-12:59:54.126483,2.0,3.0,371.0
2022-01-24-12:59:54.127481,2.0,3.0,371.0
2022-01-24-12:59:54.128477,2.0,8.0,371.0
2022-01-24-12:59:54.129477,8.0,5.0,370.0
2022-01-24-12:59:54.130473,8.0,5.0,370.0
2022-01-24-12:59:54.131472,8.0,5.0,370.0
2022-01-24-12:59:54.132472,9.0,7.0,371.0
2022-01-24-12:59:54.133464,15.0,0.0,370.0
2022-01-24-12:59:54.134461,15.0,0.0,370.0
2022-01-24-12:59:54.135459,15.0,0.0,370.0
2022-01-24-12:59:54.136457,7.0,0.0,370.0
2022-01-24-12:59:54.137456,20.0,5.0,371.0
2022-01-24-12:59:54.138445,20.0,5.0,371.0
2022-01-24-12:59:54.140438,20.0,5.0,371.0
2022-01-24-12:59:54.140438,22.0,2.0,370.0
2022-01-24-12:59:54.141435,22.0,2.0,370.0
2022-01-24-12:59:54.142436,17.0,1.0,371.0
2022-01-24-12:59:54.143406,15.0,4.0,370.0
2022-01-24-12:59:54.144428,15.0,8.0,371.0
2022-01-24-12:59:54.145557,1.0,9.0,371.0
2022-01-24-12:59:54.145557,1.0,9.0,371.0
2022-01-24-12:59:54.146613,1.0,9.0,371.0
2022-01-24-12:59:54.147771,1.0,9.0,371.0
2022-01-24-12:59:54.147771,4.0,13.0,371.0
2022-01-24-12:59:54.148797,4.0,13.0,371.0
2022-01-24-12:59:54.149792,1.0,4.0,370.0
2022-01-24-12:59:54.150789,1.0,4.0,370.0
2022-01-24-12:59:54.151788,1.0,4.0,370.0
2022-01-24-12:59:54.152785,6.0,3.0,370.0
2022-01-24-12:59:54.153782,22.0,3.0,371.0
2022-01-24-12:59:54.154779,22.0,3.0,371.0
2022-01-24-12:59:54.155776,22.0,3.0,371.0
2022-01-24-12:59:54.156776,29.0,1.0,370.0
2022-01-24-12:59:54.157770,37.0,1.0,371.0
2022-01-24-12:59:54.158768,37.0,2.0,370.0
2022-01-24-12:59:54.159741,37.0,2.0,370.0
2022-01-24-12:59:54.160762,37.0,5.0,371.0
2022-01-24-12:59:54.161760,41.0,6.0,370.0
2022-01-24-12:59:54.162758,41.0,6.0,370.0
2022-01-24-12:59:54.163731,41.0,6.0,370.0
2022-01-24-12:59:54.164758,30.0,11.0,371.0
2022-01-24-12:59:54.165861,45.0,2.0,371.0
2022-01-24-12:59:54.165861,45.0,2.0,371.0
2022-01-24-12:59:54.166917,45.0,2.0,371.0
2022-01-24-12:59:54.167913,45.0,2.0,371.0
2022-01-24-12:59:54.168921,54.0,0.0,371.0
2022-01-24-12:59:54.169907,56.0,4.0,371.0
2022-01-24-12:59:54.170908,35.0,2.0,370.0
2022-01-24-12:59:54.171912,35.0,2.0,370.0
2022-01-24-12:59:54.172901,23.0,0.0,371.0
2022-01-24-12:59:54.174163,23.0,4.0,370.0
2022-01-24-12:59:54.175163,24.0,1.0,371.0
2022-01-24-12:59:54.175163,24.0,1.0,371.0
2022-01-24-12:59:54.176421,24.0,1.0,371.0
2022-01-24-12:59:54.176421,15.0,2.0,371.0
2022-01-24-12:59:54.177453,15.0,2.0,371.0
2022-01-24-12:59:54.178450,19.0,12.0,370.0
2022-01-24-12:59:54.179449,19.0,12.0,370.0
2022-01-24-12:59:54.180445,19.0,12.0,370.0
2022-01-24-12:59:54.181447,28.0,14.0,370.0
2022-01-24-12:59:54.182441,73.0,4.0,370.0
2022-01-24-12:59:54.183437,73.0,4.0,370.0
2022-01-24-12:59:54.184435,73.0,4.0,370.0
2022-01-24-12:59:54.185434,59.0,2.0,370.0
2022-01-24-12:59:54.186438,13.0,1.0,370.0
2022-01-24-12:59:54.187427,13.0,1.0,370.0
2022-01-24-12:59:54.195408,13.0,1.0,370.0
2022-01-24-12:59:54.196370,42.0,2.0,371.0
2022-01-24-12:59:54.196370,20.0,2.0,370.0
2022-01-24-12:59:54.197374,3.0,1.0,370.0
2022-01-24-12:59:54.198397,12.0,7.0,371.0
2022-01-24-12:59:54.199394,1.0,9.0,371.0
2022-01-24-12:59:54.200393,41.0,9.0,371.0
2022-01-24-12:59:54.201389,41.0,9.0,371.0
2022-01-24-12:59:54.202392,76.0,3.0,371.0
2022-01-24-12:59:54.203384,176.0,5.0,370.0
2022-01-24-12:59:54.204365,122.0,3.0,370.0
2022-01-24-12:59:54.205382,122.0,3.0,370.0
2022-01-24-12:59:54.206376,2.0,2.0,370.0
2022-01-24-12:59:54.207374,102.0,4.0,370.0
2022-01-24-12:59:54.209337,102.0,4.0,370.0
2022-01-24-12:59:54.209337,111.0,7.0,371.0
2022-01-24-12:59:54.210341,111.0,7.0,371.0
2022-01-24-12:59:54.211363,77.0,5.0,370.0
2022-01-24-12:59:54.212359,77.0,5.0,370.0
2022-01-24-12:59:54.213364,77.0,5.0,370.0
2022-01-24-12:59:54.214354,50.0,7.0,370.0
2022-01-24-12:59:54.215357,19.0,1.0,370.0
2022-01-24-12:59:54.216350,14.0,2.0,370.0
2022-01-24-12:59:54.217346,14.0,2.0,370.0
2022-01-24-12:59:54.218350,1.0,1.0,370.0
2022-01-24-12:59:54.219342,55.0,0.0,371.0
2022-01-24-12:59:54.220306,68.0,3.0,371.0
2022-01-24-12:59:54.221303,68.0,3.0,371.0
2022-01-24-12:59:54.222300,55.0,6.0,370.0
2022-01-24-12:59:54.223298,20.0,13.0,371.0
2022-01-24-12:59:54.224329,20.0,13.0,371.0
2022-01-24-12:59:54.225293,20.0,13.0,371.0
2022-01-24-12:59:54.226323,13.0,18.0,370.0
2022-01-24-12:59:54.227321,70.0,9.0,370.0
2022-01-24-12:59:54.228317,71.0,4.0,370.0
2022-01-24-12:59:54.229283,71.0,4.0,370.0
2022-01-24-12:59:54.230299,58.0,1.0,371.0
2022-01-24-12:59:54.231315,39.0,5.0,371.0
2022-01-24-12:59:54.232308,11.0,4.0,370.0
2022-01-24-12:59:54.233304,11.0,4.0,370.0
2022-01-24-12:59:54.234301,8.0,1.0,370.0
2022-01-24-12:59:54.235300,9.0,7.0,370.0
2022-01-24-12:59:54.236400,12.0,2.0,371.0
2022-01-24-12:59:54.236400,12.0,2.0,371.0
2022-01-24-12:59:54.237644,12.0,2.0,371.0
2022-01-24-12:59:54.237644,76.0,3.0,371.0
2022-01-24-12:59:54.238676,126.0,4.0,371.0
2022-01-24-12:59:54.239699,126.0,4.0,371.0
2022-01-24-12:59:54.240672,126.0,4.0,371.0
2022-01-24-12:59:54.241636,126.0,4.0,371.0
2022-01-24-12:59:54.243634,129.0,9.0,370.0
2022-01-24-12:59:54.244628,65.0,6.0,370.0
2022-01-24-12:59:54.244628,29.0,9.0,371.0
2022-01-24-12:59:54.245648,29.0,9.0,371.0
2022-01-24-12:59:54.246624,44.0,7.0,371.0
2022-01-24-12:59:54.247647,57.0,0.0,371.0
2022-01-24-12:59:54.248648,4.0,9.0,371.0
2022-01-24-12:59:54.249662,4.0,9.0,371.0
2022-01-24-12:59:54.250614,68.0,14.0,370.0
2022-01-24-12:59:54.251636,94.0,12.0,370.0
2022-01-24-12:59:54.252633,85.0,4.0,371.0
2022-01-24-12:59:54.253631,85.0,4.0,371.0
2022-01-24-12:59:54.254601,85.0,4.0,371.0
2022-01-24-12:59:54.255600,89.0,8.0,371.0
2022-01-24-12:59:54.256625,58.0,10.0,371.0
2022-01-24-12:59:54.257619,56.0,14.0,371.0
2022-01-24-12:59:54.258618,56.0,14.0,371.0
2022-01-24-12:59:54.259614,61.0,11.0,370.0
2022-01-24-12:59:54.260611,55.0,5.0,371.0
2022-01-24-12:59:54.261608,55.0,5.0,371.0
2022-01-24-12:59:54.262605,55.0,5.0,371.0
2022-01-24-12:59:54.263578,21.0,5.0,371.0
2022-01-24-12:59:54.264604,58.0,17.0,371.0
2022-01-24-12:59:54.265598,58.0,17.0,371.0
2022-01-24-12:59:54.266602,58.0,17.0,371.0
2022-01-24-12:59:54.267592,58.0,14.0,370.0
2022-01-24-12:59:54.268589,68.0,14.0,370.0
2022-01-24-12:59:54.269588,68.0,14.0,370.0
2022-01-24-12:59:54.270585,68.0,14.0,370.0
2022-01-24-12:59:54.271582,32.0,5.0,371.0
2022-01-24-12:59:54.272604,15.0,1.0,370.0
2022-01-24-12:59:54.273576,29.0,7.0,370.0
2022-01-24-12:59:54.274575,29.0,7.0,370.0
2022-01-24-12:59:54.275571,50.0,1.0,370.0
2022-01-24-12:59:54.276569,42.0,1.0,370.0
2022-01-24-12:59:54.278539,42.0,1.0,370.0
2022-01-24-12:59:54.278539,12.0,6.0,370.0
2022-01-24-12:59:54.279559,27.0,3.0,371.0
2022-01-24-12:59:54.280532,27.0,3.0,371.0
2022-01-24-12:59:54.281577,27.0,3.0,371.0
2022-01-24-12:59:54.282529,27.0,3.0,371.0
2022-01-24-12:59:54.283548,27.0,3.0,371.0
2022-01-24-12:59:54.284546,15.0,5.0,371.0
2022-01-24-12:59:54.285545,2.0,5.0,370.0
2022-01-24-12:59:54.286541,2.0,5.0,370.0
2022-01-24-12:59:54.287537,9.0,2.0,370.0
2022-01-24-12:59:54.288534,20.0,7.0,371.0
2022-01-24-12:59:54.289532,20.0,7.0,371.0
2022-01-24-12:59:54.290532,20.0,7.0,371.0
2022-01-24-12:59:54.291526,39.0,4.0,370.0
2022-01-24-12:59:54.292524,54.0,4.0,370.0
2022-01-24-12:59:54.293524,54.0,4.0,370.0
2022-01-24-12:59:54.294518,54.0,4.0,370.0
2022-01-24-12:59:54.295516,54.0,4.0,370.0
2022-01-24-12:59:54.296513,42.0,8.0,370.0
2022-01-24-12:59:54.297511,17.0,9.0,371.0
2022-01-24-12:59:54.298512,17.0,9.0,371.0
2022-01-24-12:59:54.299505,17.0,9.0,371.0
2022-01-24-12:59:54.300503,9.0,3.0,371.0
2022-01-24-12:59:54.301503,7.0,7.0,370.0
2022-01-24-12:59:54.302498,8.0,3.0,370.0
2022-01-24-12:59:54.303495,8.0,3.0,370.0
2022-01-24-12:59:54.304491,17.0,1.0,370.0
2022-01-24-12:59:54.305489,10.0,5.0,371.0
2022-01-24-12:59:54.306490,2.0,1.0,371.0
2022-01-24-12:59:54.307485,2.0,1.0,371.0
2022-01-24-12:59:54.308482,11.0,2.0,371.0
2022-01-24-12:59:54.309481,21.0,8.0,370.0
2022-01-24-12:59:54.311473,21.0,8.0,370.0
2022-01-24-12:59:54.311473,21.0,10.0,370.0
2022-01-24-12:59:54.312475,21.0,10.0,370.0
2022-01-24-12:59:54.313473,123.0,7.0,370.0
2022-01-24-12:59:54.314468,123.0,7.0,370.0
2022-01-24-12:59:54.315439,123.0,7.0,370.0
2022-01-24-12:59:54.316460,116.0,7.0,370.0
2022-01-24-12:59:54.317461,54.0,1.0,370.0
2022-01-24-12:59:54.318455,54.0,1.0,370.0
2022-01-24-12:59:54.319428,54.0,1.0,370.0
2022-01-24-12:59:54.320449,55.0,7.0,370.0
2022-01-24-12:59:54.321446,19.0,9.0,370.0
2022-01-24-12:59:54.322448,19.0,9.0,370.0
2022-01-24-12:59:54.323452,19.0,9.0,370.0
2022-01-24-12:59:54.324440,73.0,5.0,371.0
2022-01-24-12:59:54.325438,61.0,9.0,371.0
2022-01-24-12:59:54.326792,111.0,9.0,370.0
2022-01-24-12:59:54.326792,111.0,9.0,370.0
2022-01-24-12:59:54.327846,111.0,9.0,370.0
2022-01-24-12:59:54.328847,140.0,6.0,371.0
2022-01-24-12:59:54.329842,144.0,6.0,370.0
2022-01-24-12:59:54.331032,128.0,2.0,370.0
2022-01-24-12:59:54.331032,80.0,3.0,371.0
2022-01-24-12:59:54.332059,80.0,3.0,371.0
2022-01-24-12:59:54.333053,45.0,6.0,371.0
2022-01-24-12:59:54.334053,17.0,16.0,370.0
2022-01-24-12:59:54.335047,17.0,16.0,370.0
2022-01-24-12:59:54.336049,17.0,16.0,370.0
2022-01-24-12:59:54.337045,2.0,6.0,371.0
2022-01-24-12:59:54.338040,32.0,6.0,370.0
2022-01-24-12:59:54.339038,44.0,2.0,371.0
2022-01-24-12:59:54.340010,44.0,2.0,371.0
2022-01-24-12:59:54.341031,28.0,3.0,370.0
2022-01-24-12:59:54.342032,28.0,3.0,370.0
2022-01-24-12:59:54.344000,30.0,5.0,370.0
2022-01-24-12:59:54.344000,22.0,7.0,370.0
2022-01-24-12:59:54.345023,22.0,7.0,370.0
2022-01-24-12:59:54.346134,21.0,1.0,371.0
2022-01-24-12:59:54.346134,21.0,1.0,371.0
2022-01-24-12:59:54.347189,21.0,1.0,371.0
2022-01-24-12:59:54.348165,21.0,1.0,371.0
2022-01-24-12:59:54.349381,15.0,1.0,371.0
2022-01-24-12:59:54.349381,9.0,2.0,370.0
2022-01-24-12:59:54.350521,9.0,2.0,370.0
2022-01-24-12:59:54.350521,24.0,5.0,370.0
2022-01-24-12:59:54.351575,24.0,5.0,370.0
2022-01-24-12:59:54.352574,24.0,5.0,370.0
2022-01-24-12:59:54.353771,30.0,5.0,370.0
2022-01-24-12:59:54.353771,33.0,6.0,370.0
2022-01-24-12:59:54.354906,33.0,6.0,370.0
2022-01-24-12:59:54.354906,30.0,6.0,370.0
2022-01-24-12:59:54.355961,30.0,6.0,370.0
2022-01-24-12:59:54.356959,30.0,6.0,370.0
2022-01-24-12:59:54.357958,29.0,4.0,370.0
2022-01-24-12:59:54.358953,15.0,3.0,371.0
2022-01-24-12:59:54.359943,14.0,0.0,371.0
2022-01-24-12:59:54.360962,14.0,0.0,371.0
2022-01-24-12:59:54.360962,14.0,0.0,371.0
2022-01-24-12:59:54.361994,14.0,0.0,371.0
2022-01-24-12:59:54.362993,1.0,18.0,370.0
2022-01-24-12:59:54.364060,1.0,18.0,370.0
2022-01-24-12:59:54.364060,1.0,18.0,370.0
2022-01-24-12:59:54.365270,1.0,18.0,370.0
2022-01-24-12:59:54.365270,9.0,15.0,370.0
2022-01-24-12:59:54.366301,9.0,15.0,370.0
2022-01-24-12:59:54.367301,27.0,5.0,370.0
2022-01-24-12:59:54.368296,27.0,5.0,370.0
2022-01-24-12:59:54.369293,27.0,5.0,370.0
2022-01-24-12:59:54.370291,29.0,1.0,371.0
2022-01-24-12:59:54.371288,95.0,3.0,371.0
2022-01-24-12:59:54.372285,95.0,3.0,371.0
2022-01-24-12:59:54.373283,95.0,3.0,371.0
2022-01-24-12:59:54.374280,95.0,3.0,371.0
2022-01-24-12:59:54.375279,95.0,3.0,371.0
2022-01-24-12:59:54.377275,19.0,2.0,371.0
2022-01-24-12:59:54.377275,19.0,2.0,371.0
2022-01-24-12:59:54.378292,27.0,1.0,370.0
2022-01-24-12:59:54.379291,92.0,3.0,371.0
2022-01-24-12:59:54.380234,92.0,3.0,371.0
2022-01-24-12:59:54.381285,92.0,3.0,371.0
2022-01-24-12:59:54.382282,97.0,3.0,371.0
2022-01-24-12:59:54.383279,35.0,6.0,371.0
2022-01-24-12:59:54.384271,21.0,8.0,370.0
2022-01-24-12:59:54.385274,21.0,8.0,370.0
2022-01-24-12:59:54.386264,12.0,8.0,370.0
2022-01-24-12:59:54.387262,58.0,12.0,371.0
2022-01-24-12:59:54.388259,39.0,10.0,371.0
2022-01-24-12:59:54.389208,39.0,10.0,371.0
2022-01-24-12:59:54.390253,3.0,11.0,370.0
2022-01-24-12:59:54.391250,27.0,3.0,371.0
2022-01-24-12:59:54.392249,11.0,6.0,370.0
2022-01-24-12:59:54.393197,11.0,6.0,370.0
2022-01-24-12:59:54.394243,13.0,10.0,370.0
2022-01-24-12:59:54.395241,26.0,8.0,370.0
2022-01-24-12:59:54.396236,29.0,13.0,370.0
2022-01-24-12:59:54.397201,29.0,13.0,370.0
2022-01-24-12:59:54.398210,23.0,12.0,370.0
2022-01-24-12:59:54.399344,17.0,5.0,370.0
2022-01-24-12:59:54.399344,16.0,2.0,371.0
2022-01-24-12:59:54.400400,16.0,2.0,371.0
2022-01-24-12:59:54.401386,16.0,2.0,371.0
2022-01-24-12:59:54.402588,4.0,0.0,370.0
2022-01-24-12:59:54.402588,2.0,5.0,371.0
2022-01-24-12:59:54.403727,26.0,9.0,371.0
2022-01-24-12:59:54.403727,26.0,9.0,371.0
2022-01-24-12:59:54.404774,26.0,9.0,371.0
2022-01-24-12:59:54.405772,26.0,9.0,371.0
2022-01-24-12:59:54.406774,31.0,5.0,370.0
2022-01-24-12:59:54.407766,11.0,0.0,370.0
2022-01-24-12:59:54.408770,1.0,2.0,371.0
2022-01-24-12:59:54.409762,1.0,2.0,371.0
2022-01-24-12:59:54.410760,3.0,3.0,371.0
2022-01-24-12:59:54.411758,4.0,10.0,371.0
2022-01-24-12:59:54.413702,4.0,10.0,371.0
2022-01-24-12:59:54.414332,0.0,17.0,370.0
2022-01-24-12:59:54.414473,4.0,9.0,371.0
2022-01-24-12:59:54.414473,4.0,9.0,371.0
2022-01-24-12:59:54.415520,4.0,9.0,371.0
2022-01-24-12:59:54.416519,4.0,9.0,371.0
2022-01-24-12:59:54.417516,4.0,9.0,371.0
2022-01-24-12:59:54.418512,4.0,9.0,371.0
2022-01-24-12:59:54.419514,17.0,2.0,370.0
2022-01-24-12:59:54.420507,29.0,2.0,371.0
2022-01-24-12:59:54.421507,29.0,2.0,371.0
2022-01-24-12:59:54.422505,29.0,2.0,371.0
2022-01-24-12:59:54.423499,40.0,2.0,370.0
2022-01-24-12:59:54.424499,40.0,0.0,371.0
2022-01-24-12:59:54.425493,27.0,1.0,370.0
2022-01-24-12:59:54.426795,27.0,1.0,370.0
2022-01-24-12:59:54.426795,3.0,6.0,371.0
2022-01-24-12:59:54.427850,6.0,7.0,370.0
2022-01-24-12:59:54.428848,6.0,7.0,370.0
2022-01-24-12:59:54.429846,6.0,7.0,370.0
2022-01-24-12:59:54.430842,6.0,7.0,370.0
2022-01-24-12:59:54.431840,5.0,11.0,371.0
2022-01-24-12:59:54.432838,1.0,7.0,370.0
2022-01-24-12:59:54.433834,3.0,6.0,370.0
2022-01-24-12:59:54.434832,3.0,6.0,370.0
2022-01-24-12:59:54.435828,7.0,5.0,370.0
2022-01-24-12:59:54.436819,9.0,3.0,371.0
2022-01-24-12:59:54.437860,10.0,7.0,370.0
2022-01-24-12:59:54.437860,10.0,7.0,370.0
2022-01-24-12:59:54.438915,10.0,7.0,370.0
2022-01-24-12:59:54.439912,28.0,5.0,371.0
2022-01-24-12:59:54.440910,28.0,2.0,371.0
2022-01-24-12:59:54.441907,12.0,3.0,370.0
2022-01-24-12:59:54.442908,12.0,3.0,370.0
2022-01-24-12:59:54.443908,5.0,3.0,370.0
2022-01-24-12:59:54.445896,10.0,8.0,371.0
2022-01-24-12:59:54.445896,10.0,8.0,371.0
2022-01-24-12:59:54.446878,10.0,8.0,371.0
2022-01-24-12:59:54.447900,20.0,3.0,370.0
2022-01-24-12:59:54.448889,20.0,3.0,370.0
2022-01-24-12:59:54.449886,20.0,3.0,370.0
2022-01-24-12:59:54.450886,20.0,3.0,370.0
2022-01-24-12:59:54.451881,8.0,1.0,370.0
2022-01-24-12:59:54.452880,9.0,2.0,370.0
2022-01-24-12:59:54.453867,13.0,2.0,371.0
2022-01-24-12:59:54.454865,13.0,2.0,371.0
2022-01-24-12:59:54.455865,16.0,0.0,371.0
2022-01-24-12:59:54.456859,17.0,6.0,370.0
2022-01-24-12:59:54.457856,11.0,1.0,371.0
2022-01-24-12:59:54.458857,11.0,1.0,371.0
2022-01-24-12:59:54.460389,6.0,6.0,371.0
2022-01-24-12:59:54.460389,0.0,7.0,371.0
2022-01-24-12:59:54.461445,5.0,11.0,371.0
2022-01-24-12:59:54.462444,5.0,11.0,371.0
2022-01-24-12:59:54.463418,5.0,11.0,371.0
2022-01-24-12:59:54.464437,6.0,11.0,370.0
2022-01-24-12:59:54.465436,28.0,9.0,370.0
2022-01-24-12:59:54.466540,40.0,7.0,370.0
2022-01-24-12:59:54.466540,40.0,7.0,370.0
2022-01-24-12:59:54.467587,40.0,7.0,370.0
2022-01-24-12:59:54.468585,40.0,0.0,371.0
2022-01-24-12:59:54.469584,78.0,4.0,371.0
2022-01-24-12:59:54.470580,52.0,3.0,371.0
2022-01-24-12:59:54.471577,52.0,3.0,371.0
2022-01-24-12:59:54.472574,9.0,2.0,370.0
2022-01-24-12:59:54.473770,55.0,3.0,370.0
2022-01-24-12:59:54.473908,59.0,3.0,370.0
2022-01-24-12:59:54.473908,59.0,3.0,370.0
2022-01-24-12:59:54.474955,59.0,3.0,370.0
2022-01-24-12:59:54.476248,59.0,3.0,370.0
2022-01-24-12:59:54.476248,39.0,8.0,370.0
2022-01-24-12:59:54.477302,26.0,10.0,370.0
2022-01-24-12:59:54.478300,26.0,10.0,370.0
2022-01-24-12:59:54.480241,26.0,10.0,370.0
2022-01-24-12:59:54.480241,23.0,10.0,370.0
2022-01-24-12:59:54.481296,0.0,6.0,371.0
2022-01-24-12:59:54.482287,4.0,4.0,371.0
2022-01-24-12:59:54.483257,4.0,4.0,371.0
2022-01-24-12:59:54.484276,12.0,5.0,371.0
2022-01-24-12:59:54.485273,20.0,4.0,370.0
2022-01-24-12:59:54.486250,9.0,4.0,371.0
2022-01-24-12:59:54.487268,9.0,4.0,371.0
2022-01-24-12:59:54.488265,4.0,2.0,370.0
2022-01-24-12:59:54.489267,32.0,7.0,370.0
2022-01-24-12:59:54.490260,32.0,5.0,371.0
2022-01-24-12:59:54.491257,32.0,5.0,371.0
2022-01-24-12:59:54.492256,32.0,5.0,371.0
2022-01-24-12:59:54.493254,26.0,3.0,371.0
2022-01-24-12:59:54.494249,24.0,6.0,370.0
2022-01-24-12:59:54.495246,10.0,6.0,371.0
2022-01-24-12:59:54.496250,10.0,6.0,371.0
2022-01-24-12:59:54.497208,20.0,8.0,370.0
2022-01-24-12:59:54.498239,30.0,5.0,370.0
2022-01-24-12:59:54.499236,15.0,1.0,371.0
2022-01-24-12:59:54.500234,15.0,1.0,371.0
2022-01-24-12:59:54.501231,2.0,4.0,371.0
2022-01-24-12:59:54.502298,17.0,3.0,370.0
2022-01-24-12:59:54.502298,17.0,3.0,370.0
2022-01-24-12:59:54.503347,17.0,3.0,370.0
2022-01-24-12:59:54.504343,17.0,3.0,370.0
2022-01-24-12:59:54.505536,5.0,3.0,371.0
2022-01-24-12:59:54.505536,0.0,4.0,371.0
2022-01-24-12:59:54.506672,8.0,3.0,370.0
2022-01-24-12:59:54.506672,8.0,3.0,370.0
2022-01-24-12:59:54.507719,8.0,3.0,370.0
2022-01-24-12:59:54.508715,8.0,3.0,370.0
2022-01-24-12:59:54.510047,3.0,4.0,371.0
2022-01-24-12:59:54.510047,2.0,2.0,370.0
2022-01-24-12:59:54.511177,2.0,5.0,371.0
2022-01-24-12:59:54.512177,2.0,5.0,371.0
2022-01-24-12:59:54.512177,7.0,7.0,371.0
2022-01-24-12:59:54.513229,4.0,6.0,370.0
2022-01-24-12:59:54.514277,0.0,9.0,371.0
2022-01-24-12:59:54.514277,0.0,9.0,371.0
2022-01-24-12:59:54.515325,0.0,9.0,371.0
2022-01-24-12:59:54.516300,0.0,9.0,371.0
2022-01-24-12:59:54.517318,9.0,7.0,370.0
2022-01-24-12:59:54.518318,5.0,1.0,370.0
2022-01-24-12:59:54.519315,5.0,1.0,370.0
2022-01-24-12:59:54.520488,5.0,1.0,370.0
2022-01-24-12:59:54.520488,13.0,1.0,371.0
2022-01-24-12:59:54.521543,22.0,2.0,371.0
2022-01-24-12:59:54.522541,19.0,2.0,371.0
2022-01-24-12:59:54.523538,19.0,2.0,371.0
2022-01-24-12:59:54.524535,19.0,2.0,371.0
2022-01-24-12:59:54.525533,18.0,0.0,371.0
2022-01-24-12:59:54.526534,18.0,0.0,371.0
2022-01-24-12:59:54.527528,10.0,7.0,370.0
2022-01-24-12:59:54.528470,9.0,7.0,371.0
2022-01-24-12:59:54.529514,9.0,7.0,371.0
2022-01-24-12:59:54.530465,6.0,9.0,370.0
2022-01-24-12:59:54.531487,1.0,10.0,370.0
2022-01-24-12:59:54.532460,1.0,10.0,370.0
2022-01-24-12:59:54.533483,1.0,7.0,370.0
2022-01-24-12:59:54.534585,4.0,1.0,370.0
2022-01-24-12:59:54.534585,4.0,1.0,370.0
2022-01-24-12:59:54.535627,4.0,1.0,370.0
2022-01-24-12:59:54.536797,4.0,1.0,370.0
2022-01-24-12:59:54.536797,7.0,0.0,370.0
2022-01-24-12:59:54.537830,7.0,0.0,370.0
2022-01-24-12:59:54.538829,21.0,3.0,371.0
2022-01-24-12:59:54.539824,21.0,3.0,371.0
2022-01-24-12:59:54.540823,21.0,3.0,371.0
2022-01-24-12:59:54.541819,19.0,0.0,370.0
2022-01-24-12:59:54.543808,19.0,0.0,370.0
2022-01-24-12:59:54.543808,2.0,5.0,370.0
2022-01-24-12:59:54.544778,2.0,5.0,370.0
2022-01-24-12:59:54.545803,3.0,10.0,371.0
2022-01-24-12:59:54.546811,1.0,9.0,370.0
2022-01-24-12:59:54.547771,0.0,10.0,370.0
2022-01-24-12:59:54.548769,0.0,10.0,370.0
2022-01-24-12:59:54.549797,14.0,7.0,371.0
2022-01-24-12:59:54.550795,6.0,1.0,371.0
2022-01-24-12:59:54.551794,6.0,1.0,371.0
2022-01-24-12:59:54.552789,6.0,1.0,371.0
2022-01-24-12:59:54.553786,6.0,1.0,371.0
2022-01-24-12:59:54.554779,12.0,1.0,371.0
2022-01-24-12:59:54.555774,12.0,1.0,371.0
2022-01-24-12:59:54.556780,12.0,1.0,371.0
2022-01-24-12:59:54.557775,12.0,1.0,371.0
2022-01-24-12:59:54.558765,7.0,9.0,370.0
2022-01-24-12:59:54.559764,7.0,9.0,370.0
2022-01-24-12:59:54.560759,7.0,9.0,370.0
2022-01-24-12:59:54.561759,6.0,8.0,370.0
2022-01-24-12:59:54.562824,2.0,7.0,371.0
2022-01-24-12:59:54.562824,1.0,6.0,370.0
2022-01-24-12:59:54.563859,1.0,6.0,370.0
2022-01-24-12:59:54.564850,1.0,6.0,370.0
2022-01-24-12:59:54.566007,1.0,6.0,370.0
2022-01-24-12:59:54.566007,5.0,1.0,371.0
2022-01-24-12:59:54.567111,6.0,3.0,371.0
2022-01-24-12:59:54.567111,6.0,3.0,371.0
2022-01-24-12:59:54.568141,6.0,3.0,371.0
2022-01-24-12:59:54.569133,6.0,3.0,371.0
2022-01-24-12:59:54.570292,6.0,3.0,371.0
2022-01-24-12:59:54.570292,12.0,7.0,371.0
2022-01-24-12:59:54.571317,17.0,1.0,371.0
2022-01-24-12:59:54.572315,23.0,4.0,371.0
2022-01-24-12:59:54.573310,23.0,4.0,371.0
2022-01-24-12:59:54.574310,18.0,3.0,370.0
2022-01-24-12:59:54.575305,7.0,2.0,371.0
2022-01-24-12:59:54.576303,4.0,6.0,371.0
2022-01-24-12:59:54.578297,4.0,6.0,371.0
2022-01-24-12:59:54.578297,2.0,19.0,370.0
2022-01-24-12:59:54.579455,2.0,19.0,370.0
2022-01-24-12:59:54.579455,2.0,19.0,370.0
2022-01-24-12:59:54.580455,2.0,19.0,370.0
2022-01-24-12:59:54.581499,2.0,19.0,370.0
2022-01-24-12:59:54.582665,6.0,11.0,370.0
2022-01-24-12:59:54.582665,6.0,8.0,371.0
2022-01-24-12:59:54.583689,6.0,8.0,371.0
2022-01-24-12:59:54.584688,6.0,3.0,370.0
2022-01-24-12:59:54.585668,6.0,3.0,370.0
2022-01-24-12:59:54.586691,7.0,2.0,371.0
2022-01-24-12:59:54.587790,6.0,6.0,371.0
2022-01-24-12:59:54.587790,6.0,6.0,371.0
2022-01-24-12:59:54.588838,6.0,6.0,371.0
2022-01-24-12:59:54.589839,6.0,6.0,371.0
2022-01-24-12:59:54.590836,8.0,4.0,371.0
2022-01-24-12:59:54.592138,11.0,0.0,371.0
2022-01-24-12:59:54.592138,3.0,3.0,371.0
2022-01-24-12:59:54.593169,3.0,3.0,371.0
2022-01-24-12:59:54.594168,3.0,3.0,371.0
2022-01-24-12:59:54.595156,7.0,3.0,371.0
2022-01-24-12:59:54.596274,1.0,14.0,370.0
2022-01-24-12:59:54.596274,1.0,14.0,370.0
2022-01-24-12:59:54.597275,1.0,14.0,370.0
2022-01-24-12:59:54.598322,1.0,14.0,370.0
2022-01-24-12:59:54.599556,1.0,15.0,370.0
2022-01-24-12:59:54.599556,6.0,14.0,370.0
2022-01-24-12:59:54.600580,6.0,14.0,370.0
2022-01-24-12:59:54.601579,0.0,5.0,371.0
2022-01-24-12:59:54.602574,0.0,5.0,371.0
2022-01-24-12:59:54.603571,5.0,1.0,371.0
2022-01-24-12:59:54.604672,11.0,1.0,370.0
2022-01-24-12:59:54.604672,18.0,0.0,370.0
2022-01-24-12:59:54.605720,18.0,0.0,370.0
2022-01-24-12:59:54.606717,18.0,0.0,370.0
2022-01-24-12:59:54.607716,20.0,0.0,371.0
2022-01-24-12:59:54.608711,17.0,0.0,370.0
2022-01-24-12:59:54.609765,8.0,2.0,370.0
2022-01-24-12:59:54.609765,6.0,0.0,371.0
2022-01-24-12:59:54.611762,6.0,0.0,371.0
2022-01-24-12:59:54.611762,2.0,7.0,371.0
2022-01-24-12:59:54.612791,2.0,7.0,371.0
2022-01-24-12:59:54.613757,0.0,8.0,371.0
2022-01-24-12:59:54.614787,0.0,8.0,371.0
2022-01-24-12:59:54.615783,3.0,4.0,370.0
2022-01-24-12:59:54.616782,4.0,2.0,370.0
2022-01-24-12:59:54.617879,4.0,2.0,370.0
2022-01-24-12:59:54.617879,4.0,2.0,370.0
2022-01-24-12:59:54.619110,4.0,2.0,370.0
2022-01-24-12:59:54.619110,2.0,0.0,370.0
2022-01-24-12:59:54.620144,2.0,0.0,370.0
2022-01-24-12:59:54.621139,21.0,1.0,371.0
2022-01-24-12:59:54.622136,21.0,1.0,371.0
2022-01-24-12:59:54.623133,21.0,1.0,371.0
2022-01-24-12:59:54.624131,21.0,5.0,370.0
2022-01-24-12:59:54.625128,15.0,7.0,371.0
2022-01-24-12:59:54.626131,9.0,13.0,371.0
2022-01-24-12:59:54.627123,9.0,13.0,371.0
2022-01-24-12:59:54.628122,4.0,9.0,370.0
2022-01-24-12:59:54.629109,1.0,9.0,370.0
2022-01-24-12:59:54.630107,1.0,9.0,370.0
2022-01-24-12:59:54.631105,1.0,9.0,370.0
2022-01-24-12:59:54.632101,2.0,11.0,370.0
2022-01-24-12:59:54.633098,4.0,9.0,371.0
2022-01-24-12:59:54.634096,6.0,5.0,371.0
2022-01-24-12:59:54.635094,6.0,5.0,371.0
2022-01-24-12:59:54.636093,4.0,0.0,370.0
2022-01-24-12:59:54.637204,18.0,0.0,370.0
2022-01-24-12:59:54.637204,18.0,0.0,370.0
2022-01-24-12:59:54.638251,18.0,0.0,370.0
2022-01-24-12:59:54.639252,18.0,0.0,370.0
2022-01-24-12:59:54.640247,17.0,0.0,371.0
2022-01-24-12:59:54.641245,11.0,4.0,370.0
2022-01-24-12:59:54.643490,8.0,1.0,370.0
2022-01-24-12:59:54.643490,8.0,1.0,370.0
2022-01-24-12:59:54.644520,8.0,1.0,370.0
2022-01-24-12:59:54.645575,0.0,2.0,370.0
2022-01-24-12:59:54.645575,1.0,7.0,371.0
2022-01-24-12:59:54.646606,1.0,7.0,371.0
2022-01-24-12:59:54.647604,1.0,7.0,371.0
2022-01-24-12:59:54.648603,0.0,14.0,371.0
2022-01-24-12:59:54.649757,4.0,4.0,370.0
2022-01-24-12:59:54.649757,4.0,4.0,370.0
2022-01-24-12:59:54.650804,4.0,4.0,370.0
2022-01-24-12:59:54.651991,4.0,4.0,370.0
2022-01-24-12:59:54.651991,3.0,0.0,370.0
2022-01-24-12:59:54.653026,3.0,0.0,370.0
2022-01-24-12:59:54.654168,11.0,2.0,371.0
2022-01-24-12:59:54.654168,11.0,2.0,371.0
2022-01-24-12:59:54.655215,11.0,2.0,371.0
2022-01-24-12:59:54.656213,11.0,2.0,371.0
2022-01-24-12:59:54.657209,17.0,2.0,370.0
2022-01-24-12:59:54.658185,8.0,8.0,371.0
2022-01-24-12:59:54.659186,8.0,8.0,371.0
2022-01-24-12:59:54.660405,8.0,8.0,371.0
2022-01-24-12:59:54.660405,8.0,8.0,371.0
2022-01-24-12:59:54.661441,3.0,9.0,371.0
2022-01-24-12:59:54.662487,3.0,10.0,371.0
2022-01-24-12:59:54.662487,2.0,8.0,370.0
2022-01-24-12:59:54.663487,2.0,8.0,370.0
2022-01-24-12:59:54.664520,1.0,8.0,370.0
2022-01-24-12:59:54.665513,8.0,7.0,370.0
2022-01-24-12:59:54.666511,8.0,8.0,371.0
2022-01-24-12:59:54.667512,8.0,8.0,371.0
2022-01-24-12:59:54.668506,4.0,5.0,371.0
2022-01-24-12:59:54.669505,10.0,1.0,371.0
2022-01-24-12:59:54.670500,14.0,4.0,370.0
2022-01-24-12:59:54.671499,14.0,4.0,370.0
2022-01-24-12:59:54.672497,14.0,4.0,370.0
2022-01-24-12:59:54.673492,19.0,3.0,370.0
2022-01-24-12:59:54.674490,10.0,1.0,371.0
2022-01-24-12:59:54.675483,6.0,1.0,370.0
2022-01-24-12:59:54.676477,6.0,1.0,370.0
2022-01-24-12:59:54.678471,1.0,8.0,371.0
2022-01-24-12:59:54.678471,1.0,8.0,371.0
2022-01-24-12:59:54.679467,1.0,8.0,371.0
2022-01-24-12:59:54.680459,1.0,8.0,371.0
2022-01-24-12:59:54.681463,2.0,13.0,371.0
2022-01-24-12:59:54.682560,9.0,7.0,371.0
2022-01-24-12:59:54.682560,9.0,7.0,371.0
2022-01-24-12:59:54.683608,9.0,7.0,371.0
2022-01-24-12:59:54.684606,9.0,7.0,371.0
2022-01-24-12:59:54.685807,5.0,3.0,371.0
2022-01-24-12:59:54.685807,2.0,4.0,371.0
2022-01-24-12:59:54.686840,2.0,4.0,371.0
2022-01-24-12:59:54.687842,9.0,3.0,371.0
2022-01-24-12:59:54.688836,9.0,3.0,371.0
2022-01-24-12:59:54.689830,19.0,1.0,371.0
2022-01-24-12:59:54.690828,14.0,1.0,370.0
2022-01-24-12:59:54.691827,14.0,1.0,370.0
2022-01-24-12:59:54.692822,14.0,1.0,370.0
2022-01-24-12:59:54.693820,5.0,4.0,371.0
2022-01-24-12:59:54.694810,5.0,4.0,371.0
2022-01-24-12:59:54.695806,5.0,4.0,371.0
2022-01-24-12:59:54.696810,5.0,4.0,371.0
2022-01-24-12:59:54.697802,1.0,7.0,370.0
2022-01-24-12:59:54.698798,5.0,10.0,370.0
2022-01-24-12:59:54.699798,5.0,10.0,370.0
2022-01-24-12:59:54.700793,5.0,10.0,370.0
2022-01-24-12:59:54.701791,3.0,9.0,371.0
2022-01-24-12:59:54.702789,9.0,3.0,370.0
2022-01-24-12:59:54.703785,9.0,3.0,370.0
2022-01-24-12:59:54.704785,9.0,3.0,370.0
2022-01-24-12:59:54.705781,15.0,0.0,371.0
2022-01-24-12:59:54.706877,14.0,0.0,370.0
2022-01-24-12:59:54.706877,14.0,0.0,370.0
2022-01-24-12:59:54.707925,14.0,0.0,370.0
2022-01-24-12:59:54.709281,14.0,0.0,370.0
2022-01-24-12:59:54.709453,0.0,10.0,371.0
2022-01-24-12:59:54.710453,0.0,10.0,371.0
2022-01-24-12:59:54.710453,0.0,10.0,371.0
2022-01-24-12:59:54.711506,0.0,10.0,371.0
2022-01-24-12:59:54.712506,0.0,10.0,371.0
2022-01-24-12:59:54.713500,0.0,10.0,371.0
2022-01-24-12:59:54.714617,4.0,12.0,370.0
2022-01-24-12:59:54.714617,10.0,10.0,371.0
2022-01-24-12:59:54.715667,10.0,10.0,371.0
2022-01-24-12:59:54.716662,10.0,10.0,371.0
2022-01-24-12:59:54.717660,10.0,10.0,371.0
2022-01-24-12:59:54.718656,4.0,7.0,370.0
2022-01-24-12:59:54.719807,3.0,2.0,370.0
2022-01-24-12:59:54.719807,6.0,2.0,371.0
2022-01-24-12:59:54.720854,6.0,2.0,371.0
2022-01-24-12:59:54.721836,21.0,2.0,371.0
2022-01-24-12:59:54.722833,22.0,1.0,371.0
2022-01-24-12:59:54.723832,22.0,1.0,371.0
2022-01-24-12:59:54.724827,22.0,1.0,371.0
2022-01-24-12:59:54.725828,22.0,1.0,371.0
2022-01-24-12:59:54.727265,13.0,4.0,371.0
2022-01-24-12:59:54.727265,11.0,0.0,371.0
2022-01-24-12:59:54.728322,11.0,0.0,371.0
2022-01-24-12:59:54.729317,11.0,0.0,371.0
2022-01-24-12:59:54.730288,3.0,7.0,370.0
2022-01-24-12:59:54.731313,10.0,3.0,371.0
2022-01-24-12:59:54.732310,10.0,3.0,371.0
2022-01-24-12:59:54.733312,10.0,3.0,371.0
2022-01-24-12:59:54.734303,13.0,6.0,370.0
2022-01-24-12:59:54.735302,7.0,0.0,370.0
2022-01-24-12:59:54.736343,1.0,0.0,370.0
2022-01-24-12:59:54.736343,1.0,0.0,370.0
2022-01-24-12:59:54.737562,1.0,0.0,370.0
2022-01-24-12:59:54.737562,1.0,3.0,371.0
2022-01-24-12:59:54.738597,1.0,3.0,371.0
2022-01-24-12:59:54.739590,15.0,1.0,371.0
2022-01-24-12:59:54.740590,15.0,1.0,371.0
2022-01-24-12:59:54.741586,15.0,1.0,371.0
2022-01-24-12:59:54.742582,10.0,2.0,370.0
2022-01-24-12:59:54.743581,10.0,2.0,370.0
2022-01-24-12:59:54.745543,10.0,3.0,371.0
2022-01-24-12:59:54.745543,6.0,5.0,370.0
2022-01-24-12:59:54.746573,1.0,11.0,371.0
2022-01-24-12:59:54.747684,8.0,9.0,371.0
2022-01-24-12:59:54.747684,8.0,9.0,371.0
2022-01-24-12:59:54.748734,8.0,9.0,371.0
2022-01-24-12:59:54.749728,8.0,9.0,371.0
2022-01-24-12:59:54.750679,13.0,10.0,370.0
2022-01-24-12:59:54.751920,6.0,3.0,370.0
2022-01-24-12:59:54.751920,1.0,0.0,371.0
2022-01-24-12:59:54.752944,1.0,0.0,371.0
2022-01-24-12:59:54.753942,1.0,0.0,371.0
2022-01-24-12:59:54.754945,11.0,1.0,370.0
2022-01-24-12:59:54.756045,19.0,3.0,371.0
2022-01-24-12:59:54.756045,19.0,3.0,371.0
2022-01-24-12:59:54.757092,19.0,3.0,371.0
2022-01-24-12:59:54.758089,19.0,3.0,371.0
2022-01-24-12:59:54.759322,11.0,2.0,371.0
2022-01-24-12:59:54.759518,3.0,5.0,371.0
2022-01-24-12:59:54.759518,3.0,5.0,371.0
2022-01-24-12:59:54.760574,3.0,5.0,371.0
2022-01-24-12:59:54.761573,3.0,5.0,371.0
2022-01-24-12:59:54.762568,3.0,5.0,371.0
2022-01-24-12:59:54.763565,2.0,10.0,370.0
2022-01-24-12:59:54.764542,1.0,14.0,371.0
2022-01-24-12:59:54.765538,1.0,14.0,371.0
2022-01-24-12:59:54.766536,1.0,14.0,371.0
2022-01-24-12:59:54.767577,3.0,9.0,370.0
2022-01-24-12:59:54.767577,7.0,3.0,370.0
2022-01-24-12:59:54.768615,0.0,2.0,371.0
2022-01-24-12:59:54.769608,0.0,2.0,371.0
2022-01-24-12:59:54.770603,0.0,2.0,371.0
2022-01-24-12:59:54.771601,2.0,1.0,370.0
2022-01-24-12:59:54.772600,20.0,5.0,370.0
2022-01-24-12:59:54.773596,18.0,2.0,370.0
2022-01-24-12:59:54.774595,18.0,2.0,370.0
2022-01-24-12:59:54.775590,17.0,3.0,371.0
2022-01-24-12:59:54.776587,12.0,4.0,371.0
2022-01-24-12:59:54.777587,12.0,4.0,371.0
2022-01-24-12:59:54.779570,8.0,8.0,370.0
2022-01-24-12:59:54.779570,3.0,7.0,370.0
2022-01-24-12:59:54.780570,3.0,7.0,370.0
2022-01-24-12:59:54.781570,1.0,14.0,371.0
2022-01-24-12:59:54.782565,1.0,14.0,371.0
2022-01-24-12:59:54.783561,3.0,11.0,370.0
2022-01-24-12:59:54.784558,1.0,1.0,370.0
2022-01-24-12:59:54.785558,1.0,1.0,370.0
2022-01-24-12:59:54.786528,1.0,1.0,370.0
2022-01-24-12:59:54.787550,4.0,7.0,371.0
2022-01-24-12:59:54.788549,15.0,3.0,371.0
2022-01-24-12:59:54.789545,15.0,1.0,371.0
2022-01-24-12:59:54.790518,15.0,1.0,371.0
2022-01-24-12:59:54.791539,11.0,3.0,370.0
2022-01-24-12:59:54.792536,3.0,8.0,370.0
2022-01-24-12:59:54.793536,3.0,8.0,370.0
2022-01-24-12:59:54.794529,3.0,8.0,370.0
2022-01-24-12:59:54.795531,2.0,13.0,370.0
2022-01-24-12:59:54.796528,2.0,9.0,371.0
2022-01-24-12:59:54.797499,2.0,9.0,371.0
2022-01-24-12:59:54.798523,2.0,9.0,371.0
2022-01-24-12:59:54.799518,2.0,9.0,371.0
2022-01-24-12:59:54.800516,3.0,6.0,370.0
2022-01-24-12:59:54.801514,6.0,2.0,371.0
2022-01-24-12:59:54.802509,6.0,2.0,371.0
2022-01-24-12:59:54.803508,6.0,2.0,371.0
2022-01-24-12:59:54.804506,11.0,3.0,371.0
2022-01-24-12:59:54.805502,26.0,1.0,371.0
2022-01-24-12:59:54.806501,26.0,1.0,371.0
2022-01-24-12:59:54.807497,26.0,1.0,371.0
2022-01-24-12:59:54.808494,21.0,1.0,370.0
2022-01-24-12:59:54.809493,4.0,5.0,371.0
2022-01-24-12:59:54.810489,4.0,5.0,371.0
2022-01-24-12:59:54.811486,4.0,5.0,371.0
2022-01-24-12:59:54.813480,2.0,6.0,371.0
2022-01-24-12:59:54.813480,2.0,8.0,370.0
2022-01-24-12:59:54.814480,2.0,8.0,370.0
2022-01-24-12:59:54.815476,14.0,9.0,371.0
2022-01-24-12:59:54.816473,8.0,5.0,370.0
2022-01-24-12:59:54.817578,2.0,6.0,371.0
2022-01-24-12:59:54.817578,3.0,2.0,371.0
2022-01-24-12:59:54.818633,3.0,2.0,371.0
2022-01-24-12:59:54.819631,3.0,2.0,371.0
2022-01-24-12:59:54.820820,2.0,0.0,370.0
2022-01-24-12:59:54.820820,3.0,4.0,371.0
2022-01-24-12:59:54.821957,3.0,4.0,371.0
2022-01-24-12:59:54.821957,7.0,4.0,371.0
2022-01-24-12:59:54.823013,7.0,4.0,371.0
2022-01-24-12:59:54.824009,7.0,4.0,371.0
2022-01-24-12:59:54.825007,5.0,3.0,370.0
2022-01-24-12:59:54.826006,3.0,5.0,371.0
2022-01-24-12:59:54.827001,2.0,5.0,370.0
2022-01-24-12:59:54.828000,2.0,5.0,370.0
2022-01-24-12:59:54.828998,3.0,6.0,371.0
2022-01-24-12:59:54.830172,5.0,11.0,371.0
2022-01-24-12:59:54.830172,9.0,10.0,370.0
2022-01-24-12:59:54.831324,9.0,10.0,370.0
2022-01-24-12:59:54.831324,7.0,13.0,370.0
2022-01-24-12:59:54.832590,7.0,13.0,370.0
2022-01-24-12:59:54.832590,13.0,4.0,370.0
2022-01-24-12:59:54.833621,13.0,4.0,370.0
2022-01-24-12:59:54.834619,9.0,3.0,371.0
2022-01-24-12:59:54.835584,9.0,3.0,371.0
2022-01-24-12:59:54.836613,5.0,1.0,371.0
2022-01-24-12:59:54.837613,14.0,4.0,370.0
2022-01-24-12:59:54.838607,14.0,4.0,370.0
2022-01-24-12:59:54.839605,14.0,4.0,370.0
2022-01-24-12:59:54.840604,16.0,2.0,371.0
2022-01-24-12:59:54.841713,6.0,7.0,371.0
2022-01-24-12:59:54.841713,6.0,7.0,371.0
2022-01-24-12:59:54.842761,6.0,7.0,371.0
2022-01-24-12:59:54.843753,6.0,7.0,371.0
2022-01-24-12:59:54.844774,10.0,8.0,371.0
2022-01-24-12:59:54.844774,1.0,10.0,370.0
2022-01-24-12:59:54.846803,1.0,10.0,370.0
2022-01-24-12:59:54.846803,1.0,10.0,370.0
2022-01-24-12:59:54.847813,1.0,10.0,370.0
2022-01-24-12:59:54.848798,1.0,7.0,370.0
2022-01-24-12:59:54.849796,0.0,1.0,370.0
2022-01-24-12:59:54.850795,0.0,1.0,370.0
2022-01-24-12:59:54.851791,0.0,1.0,370.0
2022-01-24-12:59:54.852788,0.0,1.0,370.0
2022-01-24-12:59:54.853786,19.0,2.0,371.0
2022-01-24-12:59:54.854782,19.0,2.0,371.0
2022-01-24-12:59:54.855779,19.0,2.0,371.0
2022-01-24-12:59:54.856776,19.0,2.0,371.0
2022-01-24-12:59:54.857773,17.0,0.0,371.0
2022-01-24-12:59:54.858770,9.0,5.0,370.0
2022-01-24-12:59:54.859769,9.0,5.0,370.0
2022-01-24-12:59:54.860766,9.0,5.0,370.0
2022-01-24-12:59:54.861758,4.0,6.0,370.0
2022-01-24-12:59:54.863091,5.0,14.0,371.0
2022-01-24-12:59:54.863298,5.0,14.0,371.0
2022-01-24-12:59:54.863298,5.0,14.0,371.0
2022-01-24-12:59:54.864475,5.0,14.0,371.0
2022-01-24-12:59:54.864475,5.0,11.0,370.0
2022-01-24-12:59:54.865614,7.0,6.0,371.0
2022-01-24-12:59:54.865614,8.0,2.0,371.0
2022-01-24-12:59:54.866647,8.0,2.0,371.0
2022-01-24-12:59:54.867644,8.0,2.0,371.0
2022-01-24-12:59:54.868644,8.0,2.0,371.0
2022-01-24-12:59:54.869840,0.0,0.0,370.0
2022-01-24-12:59:54.869840,3.0,4.0,371.0
2022-01-24-12:59:54.870873,3.0,4.0,371.0
2022-01-24-12:59:54.871988,16.0,2.0,371.0
2022-01-24-12:59:54.871988,16.0,2.0,371.0
2022-01-24-12:59:54.873021,16.0,2.0,371.0
2022-01-24-12:59:54.874020,17.0,0.0,370.0
2022-01-24-12:59:54.874983,8.0,5.0,371.0
2022-01-24-12:59:54.875980,8.0,5.0,371.0
2022-01-24-12:59:54.877438,8.0,5.0,371.0
2022-01-24-12:59:54.877438,8.0,3.0,370.0
2022-01-24-12:59:54.879435,8.0,7.0,371.0
2022-01-24-12:59:54.879435,2.0,11.0,371.0
2022-01-24-12:59:54.880434,2.0,11.0,371.0
2022-01-24-12:59:54.881462,1.0,16.0,371.0
2022-01-24-12:59:54.882463,4.0,11.0,371.0
2022-01-24-12:59:54.883459,2.0,3.0,370.0
2022-01-24-12:59:54.884494,2.0,3.0,370.0
2022-01-24-12:59:54.884494,2.0,3.0,370.0
2022-01-24-12:59:54.885543,17.0,5.0,370.0
2022-01-24-12:59:54.886491,17.0,5.0,370.0
2022-01-24-12:59:54.887512,17.0,5.0,370.0
2022-01-24-12:59:54.888512,17.0,5.0,370.0
2022-01-24-12:59:54.889507,17.0,5.0,370.0
2022-01-24-12:59:54.890500,18.0,3.0,370.0
2022-01-24-12:59:54.891477,12.0,2.0,371.0
2022-01-24-12:59:54.892474,9.0,2.0,370.0
2022-01-24-12:59:54.893472,9.0,2.0,370.0
2022-01-24-12:59:54.894495,3.0,1.0,371.0
2022-01-24-12:59:54.895492,3.0,1.0,371.0
2022-01-24-12:59:54.896490,2.0,3.0,370.0
2022-01-24-12:59:54.897460,3.0,9.0,370.0
2022-01-24-12:59:54.898488,8.0,3.0,371.0
2022-01-24-12:59:54.899484,8.0,3.0,371.0
2022-01-24-12:59:54.900480,8.0,3.0,371.0
2022-01-24-12:59:54.901478,8.0,3.0,371.0
2022-01-24-12:59:54.902475,2.0,4.0,370.0
2022-01-24-12:59:54.903471,14.0,2.0,370.0
2022-01-24-12:59:54.904469,17.0,2.0,371.0
2022-01-24-12:59:54.905467,17.0,2.0,371.0
2022-01-24-12:59:54.906442,21.0,1.0,370.0
2022-01-24-12:59:54.907461,16.0,1.0,371.0
2022-01-24-12:59:54.908462,16.0,1.0,371.0
2022-01-24-12:59:54.909456,10.0,5.0,371.0
