# 
# 
# 
# 
# 
# 
# 
# 
# 
# 
# time,realtime,ref,inp,inp0,inp1,dis,state...
0.000000000000000000e+00,1.685055104428957939e+09,0.000000000000000000e+00,-6.249696650926014896e-02,0.000000000000000000e+00,-1.249939330185202979e-01,0.000000000000000000e+00,0.000000000000000000e+00,0.000000000000000000e+00
1.666666666666666644e-02,1.685055104431982994e+09,1.077634519539740859e-06,-4.647210330175770288e-02,0.000000000000000000e+00,-9.294420660351540575e-02,0.000000000000000000e+00,-6.418750096279617949e-06,-7.681163049330153644e-04
3.333333333333333287e-02,1.685055104434957266e+09,4.517618882675110085e-06,-6.249696650926014896e-02,0.000000000000000000e+00,-1.249939330185202979e-01,0.000000000000000000e+00,-2.774670810296958568e-05,-1.788404455413994442e-03
5.000000000000000278e-02,1.685055104450981140e+09,1.069610474090279038e-05,-6.249696650926014896e-02,0.000000000000000000e+00,-1.249939330185202979e-01,0.000000000000000000e+00,-6.593854590923703646e-05,-2.791828726095396153e-03
6.666666666666666574e-02,1.685055104468003750e+09,2.007634352895757825e-05,-6.249696650926014896e-02,0.000000000000000000e+00,-1.249939330185202979e-01,0.000000000000000000e+00,-1.207155280992481953e-04,-3.778667852393054020e-03
8.333333333333332871e-02,1.685055104486990929e+09,3.320679013456385656e-05,-6.249696650926014896e-02,0.000000000000000000e+00,-1.249939330185202979e-01,0.000000000000000000e+00,-1.918035263483584732e-04,-4.749195962631612769e-03
1.000000000000000056e-01,1.685055104502002716e+09,5.071735659602139061e-05,-6.249696650926014896e-02,0.000000000000000000e+00,-1.249939330185202979e-01,0.000000000000000000e+00,-2.789329432745930024e-04,-5.703682654193047673e-03
1.166666666666666685e-01,1.685055104520001888e+09,7.331385704490675807e-05,-6.249696650926014896e-02,0.000000000000000000e+00,-1.249939330185202979e-01,0.000000000000000000e+00,-3.818386375487515974e-04,-6.642393068406558104e-03
1.333333333333333315e-01,1.685055104536986113e+09,1.017707127854032746e-04,-4.647210330175770288e-02,0.000000000000000000e+00,-9.294420660351540575e-02,0.000000000000000000e+00,-4.980464881401693803e-04,-7.300720272844435539e-03
1.499999999999999944e-01,1.685055104553982735e+09,1.369220134732673029e-04,-4.647210330175770288e-02,0.000000000000000000e+00,-9.294420660351540575e-02,0.000000000000000000e+00,-6.251355303235885076e-04,-7.948166285690311250e-03
1.666666666666666574e-01,1.685055104570983410e+09,1.796510564325559667e-04,-4.647210330175770288e-02,0.000000000000000000e+00,-9.294420660351540575e-02,0.000000000000000000e+00,-7.629259138214211124e-04,-8.584910957221773484e-03
1.833333333333333204e-01,1.685055104586983919e+09,2.308785108416292321e-04,-6.249696650926014896e-02,0.000000000000000000e+00,-1.249939330185202979e-01,0.000000000000000000e+00,-9.134541231218609725e-04,-9.475998856409002108e-03
2.000000000000000111e-01,1.685055104603982210e+09,2.915493764599351618e-04,-4.647210330175770288e-02,0.000000000000000000e+00,-9.294420660351540575e-02,0.000000000000000000e+00,-1.076497357801326372e-03,-1.008749067675883231e-02
2.166666666666666741e-01,1.685055104622991085e+09,3.626189274011540711e-04,-4.647210330175770288e-02,0.000000000000000000e+00,-9.294420660351540575e-02,0.000000000000000000e+00,-1.249647663264612067e-03,-1.068887542632484221e-02
2.333333333333333370e-01,1.685055104638990879e+09,4.450378498580702174e-04,-6.249696650926014896e-02,0.000000000000000000e+00,-1.249939330185202979e-01,0.000000000000000000e+00,-1.434951346427812933e-03,-1.154518785164931026e-02
2.500000000000000000e-01,1.685055104656990767e+09,5.397367983507890933e-04,-6.249696650926014896e-02,0.000000000000000000e+00,-1.249939330185202979e-01,0.000000000000000000e+00,-1.634408629046960526e-03,-1.238734667751783224e-02
2.666666666666666630e-01,1.685055104673985481e+09,6.476106077371350999e-04,-6.249696650926014896e-02,0.000000000000000000e+00,-1.249939330185202979e-01,0.000000000000000000e+00,-1.847785572700008086e-03,-1.321558584235245359e-02
2.833333333333333259e-01,1.685055104690957308e+09,7.695024076643642132e-04,-6.249696650926014896e-02,0.000000000000000000e+00,-1.249939330185202979e-01,0.000000000000000000e+00,-2.074852105626918096e-03,-1.403013541791321185e-02
2.999999999999999889e-01,1.685055104707983971e+09,9.061878921685204060e-04,-6.249696650926014896e-02,0.000000000000000000e+00,-1.249939330185202979e-01,0.000000000000000000e+00,-2.315381958819360750e-03,-1.483122167320843898e-02
3.166666666666666519e-01,1.685055104724005699e+09,1.058359999600294284e-03,-6.249696650926014896e-02,0.000000000000000000e+00,-1.249939330185202979e-01,0.000000000000000000e+00,-2.569152603166756886e-03,-1.561906713734871263e-02
3.333333333333333148e-01,1.685055104740005493e+09,1.226614256879708480e-03,-6.249696650926014896e-02,0.000000000000000000e+00,-1.249939330185202979e-01,0.000000000000000000e+00,-2.835945187641204963e-03,-1.639389066136193174e-02
3.499999999999999778e-01,1.685055104757992983e+09,1.411435037211462590e-03,-4.647210330175770288e-02,0.000000000000000000e+00,-9.294420660351540575e-02,0.000000000000000000e+00,-3.113331116401957081e-03,-1.689103978763047478e-02
3.666666666666666408e-01,1.685055104776993752e+09,1.613182971834071231e-03,-6.249696650926014896e-02,0.000000000000000000e+00,-1.249939330185202979e-01,0.000000000000000000e+00,-3.401147559550633456e-03,-1.764483945296946646e-02
3.833333333333333037e-01,1.685055104793014288e+09,1.832083744185912088e-03,-6.249696650926014896e-02,0.000000000000000000e+00,-1.249939330185202979e-01,0.000000000000000000e+00,-3.701423215269058781e-03,-1.838617990573870875e-02
4.000000000000000222e-01,1.685055104808013439e+09,2.068218479158645626e-03,-4.647210330175770288e-02,0.000000000000000000e+00,-9.294420660351540575e-02,0.000000000000000000e+00,-4.011738788784895843e-03,-1.885039938725216815e-02
4.166666666666666852e-01,1.685055104825005054e+09,2.321515921032312607e-03,-6.249696650926014896e-02,0.000000000000000000e+00,-1.249939330185202979e-01,0.000000000000000000e+00,-4.331940597535036477e-03,-1.957181368698969470e-02
4.333333333333333481e-01,1.685055104843957424e+09,2.591746571455287845e-03,-6.249696650926014896e-02,0.000000000000000000e+00,-1.249939330185202979e-01,0.000000000000000000e+00,-4.664066335844424885e-03,-2.028130405716797521e-02
4.500000000000000111e-01,1.685055104860957146e+09,2.878518933702071871e-03,-4.647210330175770288e-02,0.000000000000000000e+00,-9.294420660351540575e-02,0.000000000000000000e+00,-5.005705556390674903e-03,-2.071419989165101949e-02
4.666666666666666741e-01,1.685055104877957106e+09,3.181277981713239063e-03,-6.249696650926014896e-02,0.000000000000000000e+00,-1.249939330185202979e-01,0.000000000000000000e+00,-5.356713277825146495e-03,-2.140480827870421682e-02
4.833333333333333370e-01,1.685055104895982981e+09,3.499305942436104280e-03,-6.249696650926014896e-02,0.000000000000000000e+00,-1.249939330185202979e-01,0.000000000000000000e+00,-5.719135751868824336e-03,-2.208400191314820876e-02
5.000000000000000000e-01,1.685055104910962582e+09,3.831725448121235666e-03,-4.647210330175770288e-02,0.000000000000000000e+00,-9.294420660351540575e-02,0.000000000000000000e+00,-6.090570947154049647e-03,-2.248710177289228035e-02
5.166666666666666075e-01,1.685055104928018808e+09,4.177505081900069819e-03,-4.647210330175770288e-02,0.000000000000000000e+00,-9.294420660351540575e-02,0.000000000000000000e+00,-6.468668797081245959e-03,-2.288353897799437833e-02
5.333333333333333259e-01,1.685055104945986509e+09,4.535467305612231326e-03,-4.647210330175770288e-02,0.000000000000000000e+00,-9.294420660351540575e-02,0.000000000000000000e+00,-6.853319177655564816e-03,-2.327342365244935637e-02
5.500000000000000444e-01,1.685055104963014603e+09,4.904298723929463762e-03,-6.249696650926014896e-02,0.000000000000000000e+00,-1.249939330185202979e-01,0.000000000000000000e+00,-7.246627147173854977e-03,-2.392173179141873426e-02
5.666666666666666519e-01,1.685055104979984045e+09,5.282562603813840268e-03,-4.647210330175770288e-02,0.000000000000000000e+00,-9.294420660351540575e-02,0.000000000000000000e+00,-7.648437345595827247e-03,-2.429445664802605542e-02
5.833333333333333703e-01,1.685055104997008324e+09,5.668713533739863641e-03,-4.647210330175770288e-02,0.000000000000000000e+00,-9.294420660351540575e-02,0.000000000000000000e+00,-8.056408144018081460e-03,-2.466102090463309637e-02
5.999999999999999778e-01,1.685055105016993284e+09,6.061114073394483458e-03,-4.647210330175770288e-02,0.000000000000000000e+00,-9.294420660351540575e-02,0.000000000000000000e+00,-8.470437716679091872e-03,-2.502152638700138113e-02
6.166666666666666963e-01,1.685055105030982733e+09,6.458053212235563383e-03,-4.647210330175770288e-02,0.000000000000000000e+00,-9.294420660351540575e-02,0.000000000000000000e+00,-8.890425920849133468e-03,-2.537607323786063296e-02
6.333333333333333037e-01,1.685055105046983242e+09,6.857766424817104620e-03,-4.647210330175770288e-02,0.000000000000000000e+00,-9.294420660351540575e-02,0.000000000000000000e+00,-9.316274269012214670e-03,-2.572475994472684865e-02
6.500000000000000222e-01,1.685055105065014362e+09,7.258457082642089629e-03,-6.249696650926014896e-02,0.000000000000000000e+00,-1.249939330185202979e-01,0.000000000000000000e+00,-9.750099263609960168e-03,-2.633255105861677034e-02
6.666666666666666297e-01,1.685055105082993984e+09,7.658318956922313854e-03,-4.647210330175770288e-02,0.000000000000000000e+00,-9.294420660351540575e-02,0.000000000000000000e+00,-1.019175679959178488e-02,-2.666542857766424079e-02
6.833333333333333481e-01,1.685055105100005150e+09,8.055559524420576739e-03,-6.249696650926014896e-02,0.000000000000000000e+00,-1.249939330185202979e-01,0.000000000000000000e+00,-1.064112967911753915e-02,-2.725767180662615544e-02
6.999999999999999556e-01,1.685055105116956234e+09,8.448423769901085637e-03,-6.249696650926014896e-02,0.000000000000000000e+00,-1.249939330185202979e-01,0.000000000000000000e+00,-1.110029147819569656e-02,-2.784012611603566695e-02
7.166666666666666741e-01,1.685055105132992744e+09,8.835218163954763546e-03,-6.249696650926014896e-02,0.000000000000000000e+00,-1.249939330185202979e-01,0.000000000000000000e+00,-1.156908040021750218e-02,-2.841295330250153198e-02
7.333333333333332815e-01,1.685055105151992559e+09,9.214334484388245899e-03,-4.647210330175770288e-02,0.000000000000000000e+00,-9.294420660351540575e-02,0.000000000000000000e+00,-1.204512396073475350e-02,-2.871144479701357582e-02
7.500000000000000000e-01,1.685055105167991877e+09,9.584273143206466575e-03,-6.249696650926014896e-02,0.000000000000000000e+00,-1.249939330185202979e-01,0.000000000000000000e+00,-1.252831451380187651e-02,-2.926987035243412000e-02
7.666666666666666075e-01,1.685055105187002897e+09,9.943665679664908524e-03,-6.249696650926014896e-02,0.000000000000000000e+00,-1.249939330185202979e-01,0.000000000000000000e+00,-1.302073502944299001e-02,-2.981906594528067542e-02
7.833333333333333259e-01,1.685055105202005386e+09,1.029129608304325469e-02,-4.647210330175770288e-02,0.000000000000000000e+00,-9.294420660351540575e-02,0.000000000000000000e+00,-1.352001958769339686e-02,-3.009431644205956199e-02
8.000000000000000444e-01,1.685055105218004465e+09,1.062612061676303579e-02,-6.249696650926014896e-02,0.000000000000000000e+00,-1.249939330185202979e-01,0.000000000000000000e+00,-1.402606699858966084e-02,-3.062988513965096693e-02
8.166666666666666519e-01,1.685055105236003160e+09,1.094728582823785608e-02,-6.249696650926014896e-02,0.000000000000000000e+00,-1.249939330185202979e-01,0.000000000000000000e+00,-1.454096658143003672e-02,-3.115660166529825997e-02
8.333333333333333703e-01,1.685055105252983093e+09,1.125414444634355998e-02,-6.249696650926014896e-02,0.000000000000000000e+00,-1.249939330185202979e-01,0.000000000000000000e+00,-1.506457202268186163e-02,-3.167461233253410224e-02
8.499999999999999778e-01,1.685055105268982887e+09,1.154626889049752657e-02,-4.647210330175770288e-02,0.000000000000000000e+00,-9.294420660351540575e-02,0.000000000000000000e+00,-1.559452606506028793e-02,-3.191919334518496937e-02
8.666666666666666963e-01,1.685055105285983801e+09,1.182346214184839227e-02,-4.647210330175770288e-02,0.000000000000000000e+00,-9.294420660351540575e-02,0.000000000000000000e+00,-1.612852267599805545e-02,-3.215973178927649528e-02
8.833333333333333037e-01,1.685055105303002834e+09,1.208576575774260309e-02,-4.647210330175770288e-02,0.000000000000000000e+00,-9.294420660351540575e-02,0.000000000000000000e+00,-1.666649503771409566e-02,-3.239629448258975197e-02
9.000000000000000222e-01,1.685055105320983410e+09,1.233346484513343777e-02,-6.249696650926014896e-02,0.000000000000000000e+00,-1.249939330185202979e-01,0.000000000000000000e+00,-1.721059079893028435e-02,-3.289381482986123567e-02
9.166666666666666297e-01,1.685055105337982178e+09,1.256708984655574568e-02,-4.647210330175770288e-02,0.000000000000000000e+00,-9.294420660351540575e-02,0.000000000000000000e+00,-1.776069648607355236e-02,-3.311824419774726108e-02
9.333333333333333481e-01,1.685055105352957487e+09,1.278741503327145666e-02,-6.249696650926014896e-02,0.000000000000000000e+00,-1.249939330185202979e-01,0.000000000000000000e+00,-1.831672502648747439e-02,-3.360383176582100451e-02
9.499999999999999556e-01,1.685055105370987892e+09,1.299545364371744102e-02,-6.249696650926014896e-02,0.000000000000000000e+00,-1.249939330185202979e-01,0.000000000000000000e+00,-1.888077962343876273e-02,-3.408139327735738161e-02
9.666666666666666741e-01,1.685055105387003660e+09,1.319244965092860808e-02,-6.249696650926014896e-02,0.000000000000000000e+00,-1.249939330185202979e-01,0.000000000000000000e+00,-1.945272761788139487e-02,-3.455106139140241839e-02
9.833333333333332815e-01,1.685055105404955864e+09,1.337986618960088775e-02,-4.647210330175770288e-02,0.000000000000000000e+00,-9.294420660351540575e-02,0.000000000000000000e+00,-2.003022518132835036e-02,-3.474809888298475979e-02
1.000000000000000000e+00,1.685055105424957514e+09,1.355937072130044413e-02,-6.249696650926014896e-02,0.000000000000000000e+00,-1.249939330185202979e-01,0.000000000000000000e+00,-2.061319285015385597e-02,-3.520674732264691964e-02
1.016666666666666607e+00,1.685055105439983130e+09,1.373281706439271645e-02,-4.647210330175770288e-02,0.000000000000000000e+00,-9.294420660351540575e-02,0.000000000000000000e+00,-2.120152794878689406e-02,-3.539294727904317844e-02
1.033333333333333215e+00,1.685055105457984924e+09,1.390222446291666282e-02,-6.249696650926014896e-02,0.000000000000000000e+00,-1.249939330185202979e-01,0.000000000000000000e+00,-2.179515402409781463e-02,-3.584093731221992679e-02
1.050000000000000044e+00,1.685055105474982977e+09,1.406975391521025735e-02,-6.249696650926014896e-02,0.000000000000000000e+00,-1.249939330185202979e-01,0.000000000000000000e+00,-2.239618472335476451e-02,-3.628152272145064583e-02
1.066666666666666652e+00,1.685055105492012501e+09,1.423768202795238844e-02,-4.647210330175770288e-02,0.000000000000000000e+00,-9.294420660351540575e-02,0.000000000000000000e+00,-2.300228429678683253e-02,-3.644995820304787471e-02
1.083333333333333259e+00,1.685055105506984234e+09,1.440837270377315002e-02,-6.249696650926014896e-02,0.000000000000000000e+00,-1.249939330185202979e-01,0.000000000000000000e+00,-2.361338122595492417e-02,-3.688047738236745199e-02
1.100000000000000089e+00,1.685055105523984909e+09,1.458424701006769998e-02,-6.249696650926014896e-02,0.000000000000000000e+00,-1.249939330185202979e-01,0.000000000000000000e+00,-2.423159401125447865e-02,-3.730388070555556990e-02
1.116666666666666696e+00,1.685055105541984081e+09,1.476775161252172341e-02,-6.249696650926014896e-02,0.000000000000000000e+00,-1.249939330185202979e-01,0.000000000000000000e+00,-2.485680503792890225e-02,-3.772028578736881521e-02
1.133333333333333304e+00,1.685055105559005022e+09,1.496132618853806759e-02,-6.249696650926014896e-02,0.000000000000000000e+00,-1.249939330185202979e-01,0.000000000000000000e+00,-2.548889863522254065e-02,-3.812980829856284920e-02
1.149999999999999911e+00,1.685055105575005293e+09,1.516737026271250920e-02,-4.647210330175770288e-02,0.000000000000000000e+00,-9.294420660351540575e-02,0.000000000000000000e+00,-2.612554768214699411e-02,-3.826769430666768917e-02
1.166666666666666741e+00,1.685055105592003345e+09,1.538820992825106967e-02,-4.647210330175770288e-02,0.000000000000000000e+00,-9.294420660351540575e-02,0.000000000000000000e+00,-2.676447578432228705e-02,-3.840330125952168966e-02
1.183333333333333348e+00,1.685055105610994101e+09,1.562606493431813182e-02,-4.647210330175770288e-02,0.000000000000000000e+00,-9.294420660351540575e-02,0.000000000000000000e+00,-2.740564527227848726e-02,-3.853666682659478288e-02
1.199999999999999956e+00,1.685055105627958059e+09,1.588301662938647676e-02,-6.249696650926014896e-02,0.000000000000000000e+00,-1.249939330185202979e-01,0.000000000000000000e+00,-2.805123246126940348e-02,-3.893269574609153905e-02
1.216666666666666563e+00,1.685055105642994165e+09,1.616097725441979077e-02,-6.249696650926014896e-02,0.000000000000000000e+00,-1.249939330185202979e-01,0.000000000000000000e+00,-2.870336543253996370e-02,-3.932217888330864775e-02
1.233333333333333393e+00,1.685055105661957502e+09,1.646166107693205344e-02,-4.647210330175770288e-02,0.000000000000000000e+00,-9.294420660351540575e-02,0.000000000000000000e+00,-2.935972263172339017e-02,-3.944035673915451817e-02
1.250000000000000000e+00,1.685055105677958488e+09,1.678655784748150914e-02,-6.249696650926014896e-02,0.000000000000000000e+00,-1.249939330185202979e-01,0.000000000000000000e+00,-3.002024650115532947e-02,-3.982144897821024432e-02
1.266666666666666607e+00,1.685055105696990490e+09,1.713690904390584996e-02,-6.249696650926014896e-02,0.000000000000000000e+00,-1.249939330185202979e-01,0.000000000000000000e+00,-3.068706927125465153e-02,-4.019624231659858771e-02
1.283333333333333215e+00,1.685055105713982582e+09,1.751368734560361171e-02,-6.249696650926014896e-02,0.000000000000000000e+00,-1.249939330185202979e-01,0.000000000000000000e+00,-3.136008683035087369e-02,-4.056484086599003447e-02
1.300000000000000044e+00,1.685055105730990887e+09,1.791757975052143265e-02,-4.647210330175770288e-02,0.000000000000000000e+00,-9.294420660351540575e-02,0.000000000000000000e+00,-3.203698342548588762e-02,-4.066247932588431396e-02
1.316666666666666652e+00,1.685055105748990297e+09,1.834897471140727043e-02,-6.249696650926014896e-02,0.000000000000000000e+00,-1.249939330185202979e-01,0.000000000000000000e+00,-3.271770720451517428e-02,-4.102337165534269969e-02
1.333333333333333259e+00,1.685055105763991356e+09,1.880795362561677592e-02,-6.249696650926014896e-02,0.000000000000000000e+00,-1.249939330185202979e-01,0.000000000000000000e+00,-3.340439600907348094e-02,-4.137829895927206542e-02
1.350000000000000089e+00,1.685055105782989979e+09,1.929428696467626672e-02,-6.249696650926014896e-02,0.000000000000000000e+00,-1.249939330185202979e-01,0.000000000000000000e+00,-3.409695124596096028e-02,-4.172735983087225847e-02
1.366666666666666696e+00,1.685055105799981833e+09,1.980743527636342691e-02,-4.647210330175770288e-02,0.000000000000000000e+00,-9.294420660351540575e-02,0.000000000000000000e+00,-3.479306258947785502e-02,-4.180578354238465716e-02
1.383333333333333304e+00,1.685055105817004919e+09,2.034655523378882738e-02,-4.647210330175770288e-02,0.000000000000000000e+00,-9.294420660351540575e-02,0.000000000000000000e+00,-3.549047016293112311e-02,-4.188291102396068250e-02
1.399999999999999911e+00,1.685055105834985018e+09,2.091051084345809177e-02,-6.249696650926014896e-02,0.000000000000000000e+00,-1.249939330185202979e-01,0.000000000000000000e+00,-3.619136590362658640e-02,-4.222363139175289160e-02
1.416666666666666741e+00,1.685055105851016521e+09,2.149788985823134282e-02,-6.249696650926014896e-02,0.000000000000000000e+00,-1.249939330185202979e-01,0.000000000000000000e+00,-3.689789325665137482e-02,-4.255872014721577556e-02
1.433333333333333348e+00,1.685055105867019892e+09,2.210702537221675285e-02,-6.249696650926014896e-02,0.000000000000000000e+00,-1.249939330185202979e-01,0.000000000000000000e+00,-3.760995913964110954e-02,-4.288827037271371323e-02
1.449999999999999956e+00,1.685055105885982037e+09,2.273602250372521935e-02,-4.647210330175770288e-02,0.000000000000000000e+00,-9.294420660351540575e-02,0.000000000000000000e+00,-3.832525864664539095e-02,-4.294750592073872525e-02
1.466666666666666563e+00,1.685055105901984453e+09,2.338279000031424915e-02,-6.249696650926014896e-02,0.000000000000000000e+00,-1.249939330185202979e-01,0.000000000000000000e+00,-3.904375059324213804e-02,-4.327063008262964361e-02
1.483333333333333393e+00,1.685055105920981407e+09,2.404507652753610017e-02,-6.249696650926014896e-02,0.000000000000000000e+00,-1.249939330185202979e-01,0.000000000000000000e+00,-3.976758331246659645e-02,-4.358841347189285065e-02
1.500000000000000000e+00,1.685055105935982466e+09,2.472051133118370950e-02,-4.647210330175770288e-02,0.000000000000000000e+00,-9.294420660351540575e-02,0.000000000000000000e+00,-4.049445516700965475e-02,-4.363607667237908577e-02
1.516666666666666607e+00,1.685055105954005241e+09,2.540664889251858377e-02,-4.647210330175770288e-02,0.000000000000000000e+00,-9.294420660351540575e-02,0.000000000000000000e+00,-4.122211482496244972e-02,-4.368295206945558423e-02
1.533333333333333215e+00,1.685055105970004559e+09,2.610101712809594771e-02,-3.044724009425465311e-02,0.000000000000000000e+00,-6.089448018850930622e-02,0.000000000000000000e+00,-4.194833590297778608e-02,-4.346418499301115540e-02
1.550000000000000044e+00,1.685055105986003160e+09,2.680116862130072983e-02,-1.442237688675220356e-02,0.000000000000000000e+00,-2.884475377350440711e-02,0.000000000000000000e+00,-4.266872771716797436e-02,-4.298416612693350264e-02
1.566666666666666652e+00,1.685055106003983259e+09,2.750473431247782083e-02,-1.442237688675220356e-02,0.000000000000000000e+00,-2.884475377350440711e-02,0.000000000000000000e+00,-4.338118551736883793e-02,-4.251208127484518151e-02
1.583333333333333259e+00,1.685055106021984577e+09,2.820947901946611186e-02,1.762734952825329576e-02,0.000000000000000000e+00,3.525469905650659153e-02,0.000000000000000000e+00,-4.408141371709255879e-02,-4.151806391631723825e-02
1.600000000000000089e+00,1.685055106038987160e+09,2.891335811126898719e-02,3.365221273575574185e-02,0.000000000000000000e+00,6.730442547151148369e-02,0.000000000000000000e+00,-4.476299889291219386e-02,-4.027560852823500875e-02
1.616666666666666696e+00,1.685055106053983450e+09,2.961457461530632787e-02,4.967707594325939530e-02,0.000000000000000000e+00,9.935415188651879059e-02,0.000000000000000000e+00,-4.542183472538643962e-02,-3.878882143003976879e-02
1.633333333333333304e+00,1.685055106072005272e+09,3.031163600392920016e-02,8.172680235826429440e-02,0.000000000000000000e+00,1.634536047165285888e-01,0.000000000000000000e+00,-4.605166940446230039e-02,-3.679687337832616978e-02
1.649999999999999911e+00,1.685055106090004921e+09,3.100340987929690179e-02,9.775166556576674048e-02,0.000000000000000000e+00,1.955033311315334810e-01,0.000000000000000000e+00,-4.664636671609959789e-02,-3.457298164059275508e-02
1.666666666666666741e+00,1.685055106106005192e+09,3.168917775789883984e-02,1.137765287732703939e-01,0.000000000000000000e+00,2.275530575465407879e-01,0.000000000000000000e+00,-4.720209296837565155e-02,-3.212097990876219833e-02
1.683333333333333348e+00,1.685055106122984171e+09,3.236868614744301681e-02,1.137765287732703939e-01,0.000000000000000000e+00,2.275530575465407879e-01,0.000000000000000000e+00,-4.771729119682387166e-02,-2.970950620075947166e-02
1.699999999999999956e+00,1.685055106141983986e+09,3.304219410991940387e-02,1.137765287732703939e-01,0.000000000000000000e+00,2.275530575465407879e-01,0.000000000000000000e+00,-4.819263127075718717e-02,-2.733789064727165305e-02
1.716666666666666563e+00,1.685055106159003973e+09,3.371051651567018304e-02,1.298013919807728400e-01,0.000000000000000000e+00,2.596027839615456800e-01,0.000000000000000000e+00,-4.862655862542048651e-02,-2.474060675959547165e-02
1.733333333333333393e+00,1.685055106174005270e+09,3.437506221443818039e-02,1.298013919807728400e-01,0.000000000000000000e+00,2.596027839615456800e-01,0.000000000000000000e+00,-4.901755665343571905e-02,-2.218625219856735706e-02
1.750000000000000000e+00,1.685055106194982052e+09,3.503786638067901693e-02,1.458262551882752722e-01,0.000000000000000000e+00,2.916525103765505444e-01,0.000000000000000000e+00,-4.936412155205816693e-02,-1.940924971347365163e-02
1.766666666666666607e+00,1.685055106208982944e+09,3.570161633185666566e-02,1.618511183957777322e-01,0.000000000000000000e+00,3.237022367915554644e-01,0.000000000000000000e+00,-4.966257327479577793e-02,-1.641327935080641454e-02
1.783333333333333215e+00,1.685055106225980997e+09,3.636967016981106776e-02,1.618511183957777322e-01,0.000000000000000000e+00,3.237022367915554644e-01,0.000000000000000000e+00,-4.991150596307699500e-02,-1.346682802259556964e-02
1.800000000000000044e+00,1.685055106243985891e+09,3.704606765630007875e-02,1.778759816032801921e-01,0.000000000000000000e+00,3.557519632065603843e-01,0.000000000000000000e+00,-5.010952473244684180e-02,-1.030420955983771605e-02
1.816666666666666652e+00,1.685055106258986712e+09,3.773553280403212778e-02,1.778759816032801921e-01,0.000000000000000000e+00,3.557519632065603843e-01,0.000000000000000000e+00,-5.025527001654419429e-02,-7.193864582352361980e-03
1.833333333333333259e+00,1.685055106277014017e+09,3.844346774339814365e-02,1.778759816032801921e-01,0.000000000000000000e+00,3.557519632065603843e-01,0.000000000000000000e+00,-5.034960582008372182e-02,-4.134929085424834602e-03
1.849999999999999867e+00,1.685055106293984175e+09,3.917593751200011687e-02,1.778759816032801921e-01,0.000000000000000000e+00,3.557519632065603843e-01,0.000000000000000000e+00,-5.039338186703827549e-02,-1.126553345082275878e-03
1.866666666666666696e+00,1.685055106310957193e+09,3.993964550819981835e-02,1.939008448107838178e-01,0.000000000000000000e+00,3.878016896215676357e-01,0.000000000000000000e+00,-5.038522047457663633e-02,2.096966009302483284e-03
1.883333333333333304e+00,1.685055106329983234e+09,4.074189945038358268e-02,2.099257080182862778e-01,0.000000000000000000e+00,4.198514160365725556e-01,0.000000000000000000e+00,-5.032156563154142198e-02,5.532072966572043615e-03
1.899999999999999911e+00,1.685055106348984718e+09,4.159056778948936467e-02,2.099257080182862778e-01,0.000000000000000000e+00,4.198514160365725556e-01,0.000000000000000000e+00,-5.020113346457200781e-02,8.910402599907401092e-03
1.916666666666666741e+00,1.685055106361007690e+09,4.249402663249326334e-02,2.259505712257887378e-01,0.000000000000000000e+00,4.519011424515774755e-01,0.000000000000000000e+00,-5.002264905818615270e-02,1.249776104728469138e-02
1.933333333333333348e+00,1.685055106380004644e+09,4.346109734786678114e-02,2.259505712257887378e-01,0.000000000000000000e+00,4.519011424515774755e-01,0.000000000000000000e+00,-4.978487083208275182e-02,1.602582567494443416e-02
1.949999999999999956e+00,1.685055106396957397e+09,4.450097513927075282e-02,2.419754344332911700e-01,0.000000000000000000e+00,4.839508688665823399e-01,0.000000000000000000e+00,-4.948656546479629492e-02,1.976044421487949815e-02
1.966666666666666563e+00,1.685055106412985325e+09,4.562314898968171384e-02,2.419754344332911700e-01,0.000000000000000000e+00,4.839508688665823399e-01,0.000000000000000000e+00,-4.912653228255379340e-02,2.343333493985851404e-02
1.983333333333333393e+00,1.685055106429955721e+09,4.683731349343411843e-02,2.419754344332911700e-01,0.000000000000000000e+00,4.839508688665823399e-01,0.000000000000000000e+00,-4.870579155639457453e-02,2.704551812092081259e-02
2.000000000000000000e+00,1.685055106449985266e+09,4.815327320697318503e-02,2.580002976407948512e-01,0.000000000000000000e+00,5.160005952815897023e-01,0.000000000000000000e+00,-4.822313333165882676e-02,3.086286485686497855e-02
2.016666666666666607e+00,1.685055106465958118e+09,4.958084025908206238e-02,2.580002976407948512e-01,0.000000000000000000e+00,5.160005952815897023e-01,0.000000000000000000e+00,-4.767737991515992590e-02,3.461711640104599141e-02
2.033333333333333215e+00,1.685055106480991840e+09,5.112972606663120090e-02,2.580002976407948512e-01,0.000000000000000000e+00,5.160005952815897023e-01,0.000000000000000000e+00,-4.706957417868788685e-02,3.830931562525386608e-02
2.049999999999999822e+00,1.685055106498983860e+09,5.280942810115079461e-02,2.580002976407948512e-01,0.000000000000000000e+00,5.160005952815897023e-01,0.000000000000000000e+00,-4.640074175687819436e-02,4.194048816412408731e-02
2.066666666666666430e+00,1.685055106516982079e+09,5.462911274345397944e-02,2.740251608482972556e-01,0.000000000000000000e+00,5.480503216965945112e-01,0.000000000000000000e+00,-4.566967797001475482e-02,4.577651039139893352e-02
2.083333333333333481e+00,1.685055106532006264e+09,5.659749534687177897e-02,2.740251608482972556e-01,0.000000000000000000e+00,5.480503216965945112e-01,0.000000000000000000e+00,-4.487521031266749477e-02,4.954912874818996615e-02
2.100000000000000089e+00,1.685055106551983118e+09,5.872271870321652681e-02,2.900500240557997156e-01,0.000000000000000000e+00,5.801000481115994312e-01,0.000000000000000000e+00,-4.401617339653475514e-02,5.352425889965389122e-02
2.116666666666666696e+00,1.685055106564957142e+09,6.101223116825284926e-02,2.900500240557997156e-01,0.000000000000000000e+00,5.801000481115994312e-01,0.000000000000000000e+00,-4.309143335817094966e-02,5.743368592888674351e-02
2.133333333333333304e+00,1.685055106583993196e+09,6.347266575419502344e-02,3.060748872633021755e-01,0.000000000000000000e+00,6.121497745266043511e-01,0.000000000000000000e+00,-4.209986281256306723e-02,6.154336350433389780e-02
2.149999999999999911e+00,1.685055106600983620e+09,6.610972153466337931e-02,3.060748872633021755e-01,0.000000000000000000e+00,6.121497745266043511e-01,0.000000000000000000e+00,-4.104036527141505936e-02,6.558511408424093359e-02
2.166666666666666519e+00,1.685055106618983507e+09,6.892804873181640479e-02,3.060748872633021755e-01,0.000000000000000000e+00,6.121497745266043511e-01,0.000000000000000000e+00,-3.991406346920874787e-02,6.956006040308966576e-02
2.183333333333333126e+00,1.685055106635985374e+09,7.193113886536771362e-02,3.220997504708058012e-01,0.000000000000000000e+00,6.441995009416116025e-01,0.000000000000000000e+00,-3.871984822115506764e-02,7.373417432954941508e-02
2.200000000000000178e+00,1.685055106652983427e+09,7.512122133837408067e-02,3.220997504708058012e-01,0.000000000000000000e+00,6.441995009416116025e-01,0.000000000000000000e+00,-3.745664093835868180e-02,7.783929622126645187e-02
2.216666666666666785e+00,1.685055106668005466e+09,7.849916781467773663e-02,3.381246136783082612e-01,0.000000000000000000e+00,6.762492273566165224e-01,0.000000000000000000e+00,-3.612336859674886852e-02,8.214143410762843323e-02
2.233333333333333393e+00,1.685055106685983181e+09,8.206440570747659813e-02,3.381246136783082612e-01,0.000000000000000000e+00,6.762492273566165224e-01,0.000000000000000000e+00,-3.471898817046452368e-02,8.637246390931589690e-02
2.250000000000000000e+00,1.685055106703955650e+09,8.581484204764848467e-02,3.381246136783082612e-01,0.000000000000000000e+00,6.762492273566165224e-01,0.000000000000000000e+00,-3.324467497276609174e-02,9.053356093958926654e-02
2.266666666666666607e+00,1.685055106719988108e+09,8.974679893427427169e-02,3.541494768858107212e-01,0.000000000000000000e+00,7.082989537716214423e-01,0.000000000000000000e+00,-3.169937152859236135e-02,9.489074877684572362e-02
2.283333333333333215e+00,1.685055106736957312e+09,9.385496168860026078e-02,3.541494768858107212e-01,0.000000000000000000e+00,7.082989537716214423e-01,0.000000000000000000e+00,-3.008205010408921895e-02,9.917591863377275829e-02
2.299999999999999822e+00,1.685055106752985239e+09,9.813234073689831860e-02,3.541494768858107212e-01,0.000000000000000000e+00,7.082989537716214423e-01,0.000000000000000000e+00,-2.839390105176944207e-02,1.033902608628831654e-01
2.316666666666666430e+00,1.685055106769004822e+09,1.025702481379793252e-01,3.541494768858107212e-01,0.000000000000000000e+00,7.082989537716214423e-01,0.000000000000000000e+00,-2.663609504934934258e-02,1.075349461418932395e-01
2.333333333333333481e+00,1.685055106789983034e+09,1.071582895482793979e-01,3.701743400933131811e-01,0.000000000000000000e+00,7.403486801866263622e-01,0.000000000000000000e+00,-2.480757006284239202e-02,1.118759934902748415e-01
2.350000000000000089e+00,1.685055106805005074e+09,1.118843722824506698e-01,3.701743400933131811e-01,0.000000000000000000e+00,7.403486801866263622e-01,0.000000000000000000e+00,-2.290729387482156459e-02,1.161452896371425736e-01
2.366666666666666696e+00,1.685055106820981741e+09,1.167347299813662337e-01,3.701743400933131811e-01,0.000000000000000000e+00,7.403486801866263622e-01,0.000000000000000000e+00,-2.093645242833366837e-02,1.203440205255432299e-01
2.383333333333333304e+00,1.685055106837005138e+09,1.216939642436651869e-01,3.701743400933131811e-01,0.000000000000000000e+00,7.403486801866263622e-01,0.000000000000000000e+00,-1.889621206451111424e-02,1.244733524966092353e-01
2.399999999999999911e+00,1.685055106854982376e+09,1.267451034128325715e-01,3.701743400933131811e-01,0.000000000000000000e+00,7.403486801866263622e-01,0.000000000000000000e+00,-1.678771984656305533e-02,1.285344326135497428e-01
2.416666666666666519e+00,1.685055106872982264e+09,1.318696785408617622e-01,3.701743400933131811e-01,0.000000000000000000e+00,7.403486801866263622e-01,0.000000000000000000e+00,-1.461210387841143515e-02,1.325283889802866821e-01
2.433333333333333126e+00,1.685055106890005589e+09,1.370478163734258070e-01,3.701743400933131811e-01,0.000000000000000000e+00,7.403486801866263622e-01,0.000000000000000000e+00,-1.237047361806044299e-02,1.364563310548242425e-01
2.450000000000000178e+00,1.685055106905982018e+09,1.422583490219385960e-01,3.701743400933131811e-01,0.000000000000000000e+00,7.403486801866263622e-01,0.000000000000000000e+00,-1.006392018578642147e-02,1.403193499574387770e-01
2.466666666666666785e+00,1.685055106922983408e+09,1.474789398067272439e-01,3.861992033008168068e-01,0.000000000000000000e+00,7.723984066016336136e-01,0.000000000000000000e+00,-7.691303305131690776e-03,1.443833864651309917e-01
2.483333333333333393e+00,1.685055106940979958e+09,1.526862245746486990e-01,3.701743400933131811e-01,0.000000000000000000e+00,7.403486801866263622e-01,0.000000000000000000e+00,-5.253727171534535410e-03,1.481153826664223794e-01
2.500000000000000000e+00,1.685055106956994534e+09,1.578559676157910985e-01,3.861992033008168068e-01,0.000000000000000000e+00,7.723984066016336136e-01,0.000000000000000000e+00,-2.752253204324505310e-03,1.520505620875592934e-01
2.516666666666666607e+00,1.685055106971990585e+09,1.629632311293375824e-01,3.861992033008168068e-01,0.000000000000000000e+00,7.723984066016336136e-01,0.000000000000000000e+00,-1.857364423740481309e-04,1.559206987139557798e-01
2.533333333333333215e+00,1.685055106989981651e+09,1.679825570201988749e-01,3.861992033008168068e-01,0.000000000000000000e+00,7.723984066016336136e-01,0.000000000000000000e+00,2.444748051481092019e-03,1.597268676084475925e-01
2.549999999999999822e+00,1.685055107008992910e+09,1.728881596475523308e-01,3.861992033008168068e-01,0.000000000000000000e+00,7.723984066016336136e-01,0.000000000000000000e+00,5.138142983630886867e-03,1.634701260646447551e-01
2.566666666666666430e+00,1.685055107026991129e+09,1.776541279958491482e-01,3.861992033008168068e-01,0.000000000000000000e+00,7.723984066016336136e-01,0.000000000000000000e+00,7.893408535991552552e-03,1.671515139006310435e-01
2.583333333333333481e+00,1.685055107042990923e+09,1.822546356000037393e-01,3.861992033008168068e-01,0.000000000000000000e+00,7.723984066016336136e-01,0.000000000000000000e+00,1.070952207716050972e-02,1.707720537478090439e-01
2.600000000000000089e+00,1.685055107058993101e+09,1.866641564310766443e-01,3.861992033008168068e-01,0.000000000000000000e+00,7.723984066016336136e-01,0.000000000000000000e+00,1.358547787834553031e-02,1.743327513349709756e-01
2.616666666666666696e+00,1.685055107075983047e+09,1.908576848384752334e-01,3.861992033008168068e-01,0.000000000000000000e+00,7.723984066016336136e-01,0.000000000000000000e+00,1.652028683398915759e-02,1.778345957676742972e-01
2.633333333333333304e+00,1.685055107094983339e+09,1.948109575510108549e-01,3.861992033008168068e-01,0.000000000000000000e+00,7.723984066016336136e-01,0.000000000000000000e+00,1.951297618701081094e-02,1.812785598029995893e-01
2.649999999999999911e+00,1.685055107109004736e+09,1.985006756634626057e-01,3.861992033008168068e-01,0.000000000000000000e+00,7.723984066016336136e-01,0.000000000000000000e+00,2.256258925859021963e-02,1.846656001197671260e-01
2.666666666666666519e+00,1.685055107126983166e+09,2.019047244788180484e-01,3.861992033008168068e-01,0.000000000000000000e+00,7.723984066016336136e-01,0.000000000000000000e+00,2.566818518241716779e-02,1.879966575842871301e-01
2.683333333333333126e+00,1.685055107144985914e+09,2.050023890401242443e-01,3.861992033008168068e-01,0.000000000000000000e+00,7.723984066016336136e-01,0.000000000000000000e+00,2.882883864333368046e-02,1.912726575117175698e-01
2.700000000000000178e+00,1.685055107159984112e+09,2.077745631707470508e-01,3.701743400933131811e-01,0.000000000000000000e+00,7.403486801866263622e-01,0.000000000000000000e+00,3.204142625819392937e-02,1.942296422317458804e-01
2.716666666666666785e+00,1.685055107178004980e+09,2.102039498484546964e-01,3.861992033008168068e-01,0.000000000000000000e+00,7.723984066016336136e-01,0.000000000000000000e+00,3.530510189361850404e-02,1.974026199846682650e-01
2.733333333333333393e+00,1.685055107194983006e+09,2.122752507675418066e-01,3.861992033008168068e-01,0.000000000000000000e+00,7.723984066016336136e-01,0.000000000000000000e+00,3.862122223832132467e-02,2.005231530283123897e-01
2.750000000000000000e+00,1.685055107211982965e+09,2.139753429944021568e-01,3.861992033008168068e-01,0.000000000000000000e+00,7.723984066016336136e-01,0.000000000000000000e+00,4.198892045750383939e-02,2.035921081974768343e-01
2.766666666666666607e+00,1.685055107228986502e+09,2.152934406955489821e-01,3.861992033008168068e-01,0.000000000000000000e+00,7.723984066016336136e-01,0.000000000000000000e+00,4.540734404388647311e-02,2.066103379994411460e-01
2.783333333333333215e+00,1.685055107247981787e+09,2.162212400127883072e-01,3.861992033008168068e-01,0.000000000000000000e+00,7.723984066016336136e-01,0.000000000000000000e+00,4.887565458089558612e-02,2.095786808507789645e-01
2.799999999999999822e+00,1.685055107263957500e+09,2.167530452776152416e-01,3.701743400933131811e-01,0.000000000000000000e+00,7.403486801866263622e-01,0.000000000000000000e+00,5.239081414766242478e-02,2.122330936189006922e-01
2.816666666666666430e+00,1.685055107278993130e+09,2.168858748951933979e-01,3.701743400933131811e-01,0.000000000000000000e+00,7.403486801866263622e-01,0.000000000000000000e+00,5.594984729841528254e-02,2.148436328030363940e-01
2.833333333333333481e+00,1.685055107297985554e+09,2.166195453865449594e-01,3.861992033008168068e-01,0.000000000000000000e+00,7.723984066016336136e-01,0.000000000000000000e+00,5.955424222869786649e-02,2.176758912611007624e-01
2.850000000000000089e+00,1.685055107315004587e+09,2.159567322546379620e-01,3.861992033008168068e-01,0.000000000000000000e+00,7.723984066016336136e-01,0.000000000000000000e+00,6.320545027366342161e-02,2.204613366044821665e-01
2.866666666666666696e+00,1.685055107329957247e+09,2.149030065345239882e-01,3.861992033008168068e-01,0.000000000000000000e+00,7.723984066016336136e-01,0.000000000000000000e+00,6.690269768058464128e-02,2.232007425859078853e-01
2.883333333333333304e+00,1.685055107349982738e+09,2.134668460979325944e-01,3.701743400933131811e-01,0.000000000000000000e+00,7.403486801866263622e-01,0.000000000000000000e+00,7.064301012363975729e-02,2.256300024777413149e-01
2.899999999999999911e+00,1.685055107365982056e+09,2.116596210069749684e-01,3.861992033008168068e-01,0.000000000000000000e+00,7.723984066016336136e-01,0.000000000000000000e+00,7.442568806307253704e-02,2.282839779266554736e-01
2.916666666666666519e+00,1.685055107381982565e+09,2.094955524478683828e-01,3.861992033008168068e-01,0.000000000000000000e+00,7.723984066016336136e-01,0.000000000000000000e+00,7.825223235824062262e-02,2.308940870198343265e-01
2.933333333333333126e+00,1.685055107400009155e+09,2.069916450217157422e-01,3.861992033008168068e-01,0.000000000000000000e+00,7.723984066016336136e-01,0.000000000000000000e+00,8.212191796205803307e-02,2.334610548043638545e-01
2.950000000000000178e+00,1.685055107415984392e+09,2.041675924230670347e-01,3.861992033008168068e-01,0.000000000000000000e+00,7.723984066016336136e-01,0.000000000000000000e+00,8.603403181141303091e-02,2.359855943433558090e-01
2.966666666666666785e+00,1.685055107432984591e+09,2.010456567958598117e-01,3.861992033008168068e-01,0.000000000000000000e+00,7.723984066016336136e-01,0.000000000000000000e+00,8.998787262909042906e-02,2.384684069140253493e-01
2.983333333333333393e+00,1.685055107451983213e+09,1.976505223178403048e-01,3.861992033008168068e-01,0.000000000000000000e+00,7.723984066016336136e-01,0.000000000000000000e+00,9.398275072896787596e-02,2.409101822024948547e-01
3.000000000000000000e+00,1.685055107470968723e+09,1.940091238261532625e-01,3.861992033008168068e-01,0.000000000000000000e+00,7.723984066016336136e-01,0.000000000000000000e+00,9.801798782443192637e-02,2.433115984953777566e-01
3.016666666666666607e+00,1.685055107485983610e+09,1.901504515557917441e-01,3.861992033008168068e-01,0.000000000000000000e+00,7.723984066016336136e-01,0.000000000000000000e+00,1.020929168399607456e-01,2.456733228681958758e-01
3.033333333333333215e+00,1.685055107502011061e+09,1.861053333163674162e-01,3.861992033008168068e-01,0.000000000000000000e+00,7.723984066016336136e-01,0.000000000000000000e+00,1.062068817258210590e-01,2.479960113706825009e-01
3.049999999999999822e+00,1.685055107521982193e+09,1.819061956785434919e-01,3.861992033008168068e-01,0.000000000000000000e+00,7.723984066016336136e-01,0.000000000000000000e+00,1.103592372758279011e-01,2.502803092090226111e-01
3.066666666666666430e+00,1.685055107535012722e+09,1.775868059768258289e-01,3.861992033008168068e-01,0.000000000000000000e+00,7.723984066016336136e-01,0.000000000000000000e+00,1.145493489481165111e-01,2.525268509250809257e-01
3.083333333333333481e+00,1.685055107554981709e+09,1.731819971576773198e-01,3.861992033008168068e-01,0.000000000000000000e+00,7.723984066016336136e-01,0.000000000000000000e+00,1.187765926888766504e-01,2.547362605726677387e-01
3.100000000000000089e+00,1.685055107571983814e+09,1.687273777086071846e-01,3.861992033008168068e-01,0.000000000000000000e+00,7.723984066016336136e-01,0.000000000000000000e+00,1.230403547590002838e-01,2.569091518908910299e-01
3.116666666666666696e+00,1.685055107586983681e+09,1.642590290926435881e-01,3.861992033008168068e-01,0.000000000000000000e+00,7.723984066016336136e-01,0.000000000000000000e+00,1.273400315635945523e-01,2.590461284746436998e-01
3.133333333333333304e+00,1.685055107604002714e+09,1.598131932811547029e-01,4.022240665083192668e-01,0.000000000000000000e+00,8.044481330166385336e-01,0.000000000000000000e+00,1.316772428464148270e-01,2.614126516336287565e-01
3.149999999999999911e+00,1.685055107621003389e+09,1.554259531243317449e-01,4.022240665083192668e-01,0.000000000000000000e+00,8.044481330166385336e-01,0.000000000000000000e+00,1.360535693165252913e-01,2.637400596053235957e-01
3.166666666666666519e+00,1.685055107638008833e+09,1.511329084208365148e-01,4.022240665083192668e-01,0.000000000000000000e+00,8.044481330166385336e-01,0.000000000000000000e+00,1.404683644567469858e-01,2.660289989069072325e-01
3.183333333333333126e+00,1.685055107655003548e+09,1.469688506445574749e-01,4.022240665083192668e-01,0.000000000000000000e+00,8.044481330166385336e-01,0.000000000000000000e+00,1.449209924358899615e-01,2.682801053695695881e-01
3.200000000000000178e+00,1.685055107673984051e+09,1.429674393556052692e-01,4.022240665083192668e-01,0.000000000000000000e+00,8.044481330166385336e-01,0.000000000000000000e+00,1.494108279321294530e-01,2.704940043151354279e-01
3.216666666666666785e+00,1.685055107688983440e+09,1.391608833634863929e-01,4.022240665083192668e-01,0.000000000000000000e+00,8.044481330166385336e-01,0.000000000000000000e+00,1.539372559593013279e-01,2.726713107297688565e-01
3.233333333333333393e+00,1.685055107704983234e+09,1.355796297218663515e-01,4.022240665083192668e-01,0.000000000000000000e+00,8.044481330166385336e-01,0.000000000000000000e+00,1.584996716960687113e-01,2.748126294348067766e-01
3.250000000000000000e+00,1.685055107724005222e+09,1.322520636158501794e-01,4.022240665083192668e-01,0.000000000000000000e+00,8.044481330166385336e-01,0.000000000000000000e+00,1.630974803179120469e-01,2.769185552547687723e-01
3.266666666666666607e+00,1.685055107740983486e+09,1.292042221539236035e-01,4.022240665083192668e-01,0.000000000000000000e+00,8.044481330166385336e-01,0.000000000000000000e+00,1.677300968318963803e-01,2.789896731825897702e-01
3.283333333333333215e+00,1.685055107756957293e+09,1.264595249975677960e-01,4.022240665083192668e-01,0.000000000000000000e+00,8.044481330166385336e-01,0.000000000000000000e+00,1.723969459141694305e-01,2.810265585421220513e-01
3.299999999999999822e+00,1.685055107775981665e+09,1.240385246523362656e-01,4.022240665083192668e-01,0.000000000000000000e+00,8.044481330166385336e-01,0.000000000000000000e+00,1.770974617501458181e-01,2.830297771479509672e-01
3.316666666666666430e+00,1.685055107794004917e+09,1.219586791054485392e-01,4.022240665083192668e-01,0.000000000000000000e+00,8.044481330166385336e-01,0.000000000000000000e+00,1.818310878773326256e-01,2.849998854625694911e-01
3.333333333333333481e+00,1.685055107809005737e+09,1.202341493275699696e-01,4.022240665083192668e-01,0.000000000000000000e+00,8.044481330166385336e-01,0.000000000000000000e+00,1.865972770307529893e-01,2.869374307509544586e-01
3.350000000000000089e+00,1.685055107827983618e+09,1.188756239615954280e-01,3.861992033008168068e-01,0.000000000000000000e+00,7.723984066016336136e-01,0.000000000000000000e+00,1.913932776288222448e-01,2.885780835412321554e-01
3.366666666666666696e+00,1.685055107845985889e+09,1.178901733004220492e-01,3.381246136783082612e-01,0.000000000000000000e+00,6.762492273566165224e-01,0.000000000000000000e+00,1.962097557459742680e-01,2.893970156520519477e-01
3.383333333333333304e+00,1.685055107861985683e+09,1.172811344106028247e-01,2.900500240557997156e-01,0.000000000000000000e+00,5.801000481115994312e-01,0.000000000000000000e+00,2.010331295340216928e-01,2.894078089316011737e-01
3.399999999999999911e+00,1.685055107877986908e+09,1.170480289915042660e-01,2.419754344332911700e-01,0.000000000000000000e+00,4.839508688665823399e-01,0.000000000000000000e+00,2.058500416329819560e-01,2.886238207398624245e-01
3.416666666666666519e+00,1.685055107897983789e+09,1.171865152723730596e-01,1.778759816032801921e-01,0.000000000000000000e+00,3.557519632065603843e-01,0.000000000000000000e+00,2.106451420985114842e-01,2.867933199677208944e-01
3.433333333333333126e+00,1.685055107913007021e+09,1.176883749451177741e-01,1.458262551882752722e-01,0.000000000000000000e+00,2.916525103765505444e-01,0.000000000000000000e+00,2.154055603233143157e-01,2.844633393293893309e-01
3.449999999999999734e+00,1.685055107929956913e+09,1.185415358113375700e-01,6.570193915076183444e-02,0.000000000000000000e+00,1.314038783015236689e-01,0.000000000000000000e+00,2.201164005450558236e-01,2.808475314268271683e-01
3.466666666666666785e+00,1.685055107946957350e+09,1.197301304911072423e-01,-1.442237688675220356e-02,0.000000000000000000e+00,-2.884475377350440711e-02,0.000000000000000000e+00,2.247564099084354838e-01,2.759671491153349865e-01
3.483333333333333393e+00,1.685055107964983940e+09,1.212345912013639698e-01,-7.852182971676319179e-02,0.000000000000000000e+00,-1.570436594335263836e-01,0.000000000000000000e+00,2.293069001990549749e-01,2.701079616627694024e-01
3.500000000000000000e+00,1.685055107979957104e+09,1.230317802666227173e-01,-1.426212825467741974e-01,0.000000000000000000e+00,-2.852425650935483947e-01,0.000000000000000000e+00,2.337516931909509044e-01,2.632861472950939197e-01
3.516666666666666607e+00,1.685055107999983311e+09,1.250951556775323770e-01,-2.227455985842876351e-01,0.000000000000000000e+00,-4.454911971685752703e-01,0.000000000000000000e+00,2.380726646986124351e-01,2.552527491443609131e-01
3.533333333333333215e+00,1.685055108014984369e+09,1.273949706668240367e-01,-2.547953249992931379e-01,0.000000000000000000e+00,-5.095906499985862759e-01,0.000000000000000000e+00,2.422564290898517603e-01,2.468223960031333541e-01
3.549999999999999822e+00,1.685055108033983231e+09,1.298985059309921419e-01,-3.028699146218016836e-01,0.000000000000000000e+00,-6.057398292436033671e-01,0.000000000000000000e+00,2.462942119136798391e-01,2.377367812689419047e-01
3.566666666666666430e+00,1.685055108047957659e+09,1.325703327929397823e-01,-3.188947778293041435e-01,0.000000000000000000e+00,-6.377895556586082870e-01,0.000000000000000000e+00,2.501796093728097525e-01,2.285364708459902416e-01
3.583333333333333481e+00,1.685055108065982342e+09,1.353726052792963430e-01,-3.349196410368071586e-01,0.000000000000000000e+00,-6.698392820736143172e-01,0.000000000000000000e+00,2.539107257142546592e-01,2.192233604872652342e-01
3.600000000000000089e+00,1.685055108082989931e+09,1.382653787794625444e-01,-3.669693674518120785e-01,0.000000000000000000e+00,-7.339387349036241570e-01,0.000000000000000000e+00,2.574834831569661753e-01,2.095344469203568316e-01
3.616666666666666696e+00,1.685055108098993301e+09,1.412069526649165074e-01,-3.829942306593151491e-01,0.000000000000000000e+00,-7.659884613186302982e-01,0.000000000000000000e+00,2.608938835823700897e-01,1.997408093172976795e-01
3.633333333333333304e+00,1.685055108115995884e+09,1.441542339800129802e-01,-4.150439570743206241e-01,0.000000000000000000e+00,-8.300879141486412482e-01,0.000000000000000000e+00,2.641379826922978236e-01,1.895793109227979500e-01
3.649999999999999911e+00,1.685055108133992910e+09,1.470631190723951931e-01,-4.310688202818230841e-01,0.000000000000000000e+00,-8.621376405636461682e-01,0.000000000000000000e+00,2.672119136447769217e-01,1.793208996322884496e-01
3.666666666666666519e+00,1.685055108151992798e+09,1.498888898148820203e-01,-4.470936834893260992e-01,0.000000000000000000e+00,-8.941873669786521983e-01,0.000000000000000000e+00,2.701140746105314960e-01,1.689671772750451217e-01
3.683333333333333126e+00,1.685055108169996738e+09,1.525866208838970450e-01,-4.791434099043316297e-01,0.000000000000000000e+00,-9.582868198086632594e-01,0.000000000000000000e+00,2.728406768740925248e-01,1.582548515130785816e-01
3.699999999999999734e+00,1.685055108183983564e+09,1.551115944043129080e-01,-4.791434099043316297e-01,0.000000000000000000e+00,-9.582868198086632594e-01,0.000000000000000000e+00,2.753902199667335182e-01,1.477195849220320767e-01
3.716666666666666785e+00,1.685055108201984406e+09,1.574197181490420150e-01,-4.951682731118340897e-01,0.000000000000000000e+00,-9.903365462236681793e-01,0.000000000000000000e+00,2.777634170570332239e-01,1.370935832798684806e-01
3.733333333333333393e+00,1.685055108219967604e+09,1.594679433954212244e-01,-5.111931363193371602e-01,0.000000000000000000e+00,-1.022386272638674320e+00,0.000000000000000000e+00,2.799587684265102405e-01,1.263783463050691669e-01
3.750000000000000000e+00,1.685055108236982107e+09,1.612146784907562969e-01,-5.272179995268395647e-01,0.000000000000000000e+00,-1.054435999053679129e+00,0.000000000000000000e+00,2.819747991448493529e-01,1.155753489279494062e-01
3.766666666666666607e+00,1.685055108253981829e+09,1.626201941672965334e-01,-5.432428627343426353e-01,0.000000000000000000e+00,-1.086485725468685271e+00,0.000000000000000000e+00,2.838100586601890463e-01,1.046860417003706439e-01
3.783333333333333215e+00,1.685055108270981550e+09,1.636470166730086273e-01,-5.432428627343426353e-01,0.000000000000000000e+00,-1.086485725468685271e+00,0.000000000000000000e+00,2.854653337582835348e-01,9.397671889003714196e-02
3.799999999999999822e+00,1.685055108286982298e+09,1.642603048490891005e-01,-5.432428627343426353e-01,0.000000000000000000e+00,-1.086485725468685271e+00,0.000000000000000000e+00,2.869435993198826695e-01,8.344440561619898000e-02
3.816666666666666430e+00,1.685055108305991888e+09,1.644282073880151129e-01,-5.592677259418450397e-01,0.000000000000000000e+00,-1.118535451883690079e+00,0.000000000000000000e+00,2.882455676931803268e-01,7.282130847720388878e-02
3.833333333333333481e+00,1.685055108320983648e+09,1.641221966466495097e-01,-5.592677259418450397e-01,0.000000000000000000e+00,-1.118535451883690079e+00,0.000000000000000000e+00,2.893719517149722087e-01,6.237379568971458677e-02
3.850000000000000089e+00,1.685055108337992430e+09,1.633173755665122684e-01,-5.752925891493481103e-01,0.000000000000000000e+00,-1.150585178298696221e+00,0.000000000000000000e+00,2.903234401772163409e-01,5.183409740831466939e-02
3.866666666666666696e+00,1.685055108355982304e+09,1.619927544666063812e-01,-5.752925891493481103e-01,0.000000000000000000e+00,-1.150585178298696221e+00,0.000000000000000000e+00,2.911007227498227379e-01,4.146860501655245251e-02
3.883333333333333304e+00,1.685055108374004841e+09,1.601314947214557416e-01,-5.752925891493481103e-01,0.000000000000000000e+00,-1.150585178298696221e+00,0.000000000000000000e+00,2.917066788028810365e-01,3.127443914433837568e-02
3.899999999999999911e+00,1.685055108389984131e+09,1.577211166163002831e-01,-5.913174523568505148e-01,0.000000000000000000e+00,-1.182634904713701030e+00,0.000000000000000000e+00,2.921419267525771080e-01,2.098390032202812616e-02
3.916666666666666519e+00,1.685055108406985283e+09,1.547536689803631349e-01,-6.073423155643535853e-01,0.000000000000000000e+00,-1.214684631128707171e+00,0.000000000000000000e+00,2.924048736941560200e-01,1.059858145437667445e-02
3.933333333333333126e+00,1.685055108421012640e+09,1.512258585350713946e-01,-6.073423155643535853e-01,0.000000000000000000e+00,-1.214684631128707171e+00,0.000000000000000000e+00,2.924961664133646777e-01,3.849168090954389887e-04
3.949999999999999734e+00,1.685055108439983845e+09,1.471391372541457632e-01,-6.233671787718561008e-01,0.000000000000000000e+00,-1.246734357543712202e+00,0.000000000000000000e+00,2.924164287428402953e-01,-9.924798499911118010e-03
3.966666666666666785e+00,1.685055108456980944e+09,1.424997464133161140e-01,-6.233671787718561008e-01,0.000000000000000000e+00,-1.246734357543712202e+00,0.000000000000000000e+00,2.921662864668552184e-01,-2.006410920345696319e-02
3.983333333333333393e+00,1.685055108472981453e+09,1.373187164055955367e-01,-6.393920419793590604e-01,0.000000000000000000e+00,-1.278784083958718121e+00,0.000000000000000000e+00,2.917463427636958206e-01,-3.030069953328685950e-02
4.000000000000000000e+00,1.685055108493957758e+09,1.316118218098747406e-01,-6.554169051868615758e-01,0.000000000000000000e+00,-1.310833810373723152e+00,0.000000000000000000e+00,2.911549897425678712e-01,-4.063296159860659007e-02
4.016666666666666607e+00,1.685055108508014679e+09,1.253994916221893019e-01,-6.714417683943646464e-01,0.000000000000000000e+00,-1.342883536788729293e+00,0.000000000000000000e+00,2.903906460887743513e-01,-5.105931408471917066e-02
4.033333333333333215e+00,1.685055108526978970e+09,1.187066749863713300e-01,-6.874666316018670509e-01,0.000000000000000000e+00,-1.374933263203734102e+00,0.000000000000000000e+00,2.894517566244513285e-01,-6.157820181376057883e-02
4.049999999999999822e+00,1.685055108541983366e+09,1.115626631898025550e-01,-6.874666316018670509e-01,0.000000000000000000e+00,-1.374933263203734102e+00,0.000000000000000000e+00,2.883390052386660130e-01,-7.192322762133972203e-02
4.066666666666666430e+00,1.685055108560983896e+09,1.040008691164448773e-01,-7.034914948093701215e-01,0.000000000000000000e+00,-1.406982989618740243e+00,0.000000000000000000e+00,2.870530522541119844e-01,-8.236213288360851037e-02
4.083333333333333037e+00,1.685055108575983763e+09,9.605856576907309541e-02,-7.195163580168725259e-01,0.000000000000000000e+00,-1.439032716033745052e+00,0.000000000000000000e+00,2.855923459798881403e-01,-9.289336590966590368e-02
4.099999999999999645e+00,1.685055108592983723e+09,8.777658588145302587e-02,-7.195163580168725259e-01,0.000000000000000000e+00,-1.439032716033745052e+00,0.000000000000000000e+00,2.839575737343903450e-01,-1.032505329644493458e-01
4.116666666666666252e+00,1.685055108612983227e+09,7.919898503498269682e-02,-7.034914948093701215e-01,0.000000000000000000e+00,-1.406982989618740243e+00,0.000000000000000000e+00,2.821538259371632051e-01,-1.131716434140450506e-01
4.133333333333332860e+00,1.685055108628002882e+09,7.037267106908123848e-02,-7.195163580168725259e-01,0.000000000000000000e+00,-1.439032716033745052e+00,0.000000000000000000e+00,2.801838832457329564e-01,-1.231936400228960116e-01
4.150000000000000355e+00,1.685055108643983841e+09,6.134700292639740093e-02,-7.195163580168725259e-01,0.000000000000000000e+00,-1.439032716033745052e+00,0.000000000000000000e+00,2.780482915206608507e-01,-1.330499875981051017e-01
4.166666666666666963e+00,1.685055108662003756e+09,5.217336239916171153e-02,-7.195163580168725259e-01,0.000000000000000000e+00,-1.439032716033745052e+00,0.000000000000000000e+00,2.757497886996470582e-01,-1.427434240773725049e-01
4.183333333333333570e+00,1.685055108679002762e+09,4.290470253809634121e-02,-7.195163580168725259e-01,0.000000000000000000e+00,-1.439032716033745052e+00,0.000000000000000000e+00,2.732910674662620276e-01,-1.522766421442686979e-01
4.200000000000000178e+00,1.685055108695983410e+09,3.359507674723944542e-02,-7.195163580168725259e-01,0.000000000000000000e+00,-1.439032716033745052e+00,0.000000000000000000e+00,2.706747759979316048e-01,-1.616522899762194987e-01
4.216666666666666785e+00,1.685055108712981939e+09,2.429915281366907751e-02,-7.195163580168725259e-01,0.000000000000000000e+00,-1.439032716033745052e+00,0.000000000000000000e+00,2.679035187015587627e-01,-1.708729719801278524e-01
4.233333333333333393e+00,1.685055108729004145e+09,1.507171630810147378e-02,-7.195163580168725259e-01,0.000000000000000000e+00,-1.439032716033745052e+00,0.000000000000000000e+00,2.649798569369866685e-01,-1.799412495158369540e-01
4.250000000000000000e+00,1.685055108745984077e+09,5.967167938256999656e-03,-7.195163580168725259e-01,0.000000000000000000e+00,-1.439032716033745052e+00,0.000000000000000000e+00,2.619063097285040942e-01,-1.888596416076356033e-01
4.266666666666666607e+00,1.685055108763957739e+09,-2.960980459943569117e-03,-7.355412212243755965e-01,0.000000000000000000e+00,-1.471082442448751193e+00,0.000000000000000000e+00,2.586831411024884675e-01,-1.978954933353595791e-01
4.283333333333333215e+00,1.685055108782013655e+09,-1.166060654943971465e-02,-7.355412212243755965e-01,0.000000000000000000e+00,-1.471082442448751193e+00,0.000000000000000000e+00,2.553106229840267360e-01,-2.067819955706374224e-01
4.299999999999999822e+00,1.685055108797957182e+09,-2.008146997982090953e-02,-7.355412212243755965e-01,0.000000000000000000e+00,-1.471082442448751193e+00,0.000000000000000000e+00,2.517912239030998811e-01,-2.155216168434501423e-01
4.316666666666666430e+00,1.685055108813957691e+09,-2.817569201056373263e-02,-7.355412212243755965e-01,0.000000000000000000e+00,-1.471082442448751193e+00,0.000000000000000000e+00,2.481273715884771414e-01,-2.241167848825670050e-01
4.333333333333333037e+00,1.685055108831984282e+09,-3.589821762265912181e-02,-7.355412212243755965e-01,0.000000000000000000e+00,-1.471082442448751193e+00,0.000000000000000000e+00,2.443214536421007554e-01,-2.325698872899302216e-01
4.349999999999999645e+00,1.685055108848992586e+09,-4.320725559546377548e-02,-7.515660844318780009e-01,0.000000000000000000e+00,-1.503132168863756002e+00,0.000000000000000000e+00,2.403736048402218550e-01,-2.411481398952492750e-01
4.366666666666666252e+00,1.685055108865991116e+09,-5.006469219435688567e-02,-7.515660844318780009e-01,0.000000000000000000e+00,-1.503132168863756002e+00,0.000000000000000000e+00,2.362839699941177707e-01,-2.495846064563431721e-01
4.383333333333332860e+00,1.685055108883997202e+09,-5.643647432720902413e-02,-7.515660844318780009e-01,0.000000000000000000e+00,-1.503132168863756002e+00,0.000000000000000000e+00,2.320548926209664298e-01,-2.578816304903898127e-01
4.400000000000000355e+00,1.685055108899981260e+09,-6.229295828206517921e-02,-7.675909476393810715e-01,0.000000000000000000e+00,-1.535181895278762143e+00,0.000000000000000000e+00,2.276864641409117040e-01,-2.663063844709914196e-01
4.416666666666666963e+00,1.685055108919987440e+09,-6.760922045270474634e-02,-7.675909476393810715e-01,0.000000000000000000e+00,-1.535181895278762143e+00,0.000000000000000000e+00,2.231787867257371272e-01,-2.745918895164732310e-01
4.433333333333333570e+00,1.685055108935982704e+09,-7.236532679041930705e-02,-7.836158108468835870e-01,0.000000000000000000e+00,-1.567231621693767174e+00,0.000000000000000000e+00,2.185319485957934738e-01,-2.830053149006442892e-01
4.450000000000000178e+00,1.685055108952005148e+09,-7.654655808641415426e-02,-7.996406740543865466e-01,0.000000000000000000e+00,-1.599281348108773093e+00,0.000000000000000000e+00,2.137438354138569141e-01,-2.915445462862808479e-01
4.466666666666666785e+00,1.685055108969003916e+09,-8.014358858657966156e-02,-8.156655372618890620e-01,0.000000000000000000e+00,-1.631331074523778124e+00,0.000000000000000000e+00,2.088123677896240871e-01,-3.002075042830794627e-01
4.483333333333333393e+00,1.685055108985003948e+09,-8.315261586522708359e-02,-8.316904004693921326e-01,0.000000000000000000e+00,-1.663380800938784265e+00,0.000000000000000000e+00,2.037355007020901776e-01,-3.089921438700354295e-01
4.500000000000000000e+00,1.685055109003003597e+09,-8.557544033293465469e-02,-8.477152636768945371e-01,0.000000000000000000e+00,-1.695430527353789074e+00,0.000000000000000000e+00,1.985112229314745513e-01,-3.178964538273680307e-01
4.516666666666666607e+00,1.685055109021986485e+09,-8.741949322170064485e-02,-8.477152636768945371e-01,0.000000000000000000e+00,-1.695430527353789074e+00,0.000000000000000000e+00,1.931397698626376724e-01,-3.266535884864794070e-01
4.533333333333333215e+00,1.685055109037998676e+09,-8.869781237366140825e-02,-8.797649900919000121e-01,0.000000000000000000e+00,-1.759529980183800024e+00,0.000000000000000000e+00,1.876191473650866137e-01,-3.357957158237933615e-01
4.549999999999999822e+00,1.685055109056012869e+09,-8.942896565325282598e-02,-8.957898532994025276e-01,0.000000000000000000e+00,-1.791579706598805055e+00,0.000000000000000000e+00,1.819452054316676448e-01,-3.450516047786977847e-01
4.566666666666666430e+00,1.685055109071983576e+09,-8.963692230196453059e-02,-8.957898532994025276e-01,0.000000000000000000e+00,-1.791579706598805055e+00,0.000000000000000000e+00,1.761182771103344813e-01,-3.541545073456879855e-01
4.583333333333333037e+00,1.685055109088003159e+09,-8.935087305508097877e-02,-9.118147165069054871e-01,0.000000000000000000e+00,-1.823629433013810974e+00,0.000000000000000000e+00,1.701386776815606294e-01,-3.633718198586958770e-01
4.599999999999999645e+00,1.685055109104983807e+09,-8.860500033598117664e-02,-9.278395797144080026e-01,0.000000000000000000e+00,-1.855679159428816005e+00,0.000000000000000000e+00,1.640045161152712816e-01,-3.727016512876466514e-01
4.616666666666666252e+00,1.685055109122990131e+09,-8.743820033094433508e-02,-9.438644429219110732e-01,0.000000000000000000e+00,-1.887728885843822146e+00,0.000000000000000000e+00,1.577139326373695472e-01,-3.821421418584434182e-01
4.633333333333332860e+00,1.685055109139014006e+09,-8.589375922099061478e-02,-9.438644429219110732e-01,0.000000000000000000e+00,-1.887728885843822146e+00,0.000000000000000000e+00,1.512673115752226904e-01,-3.914265948449950905e-01
4.650000000000000355e+00,1.685055109155983210e+09,-8.401898630246729116e-02,-9.598893061294134776e-01,0.000000000000000000e+00,-1.919778612258826955e+00,0.000000000000000000e+00,1.446650186411436445e-01,-4.008224570130729525e-01
4.666666666666666963e+00,1.685055109173981905e+09,-8.186480716017734138e-02,-9.598893061294134776e-01,0.000000000000000000e+00,-1.919778612258826955e+00,0.000000000000000000e+00,1.379074257654342162e-01,-4.100630192395204321e-01
4.683333333333333570e+00,1.685055109190004826e+09,-7.948532046144533847e-02,-9.759141693369165482e-01,0.000000000000000000e+00,-1.951828338673833096e+00,0.000000000000000000e+00,1.309948864682473346e-01,-4.194157160979488097e-01
4.700000000000000178e+00,1.685055109207987309e+09,-7.693732231253121168e-02,-9.759141693369165482e-01,0.000000000000000000e+00,-1.951828338673833096e+00,0.000000000000000000e+00,1.239277606892434519e-01,-4.286138264745602000e-01
4.716666666666666785e+00,1.685055109223005295e+09,-7.427980245620514899e-02,-9.759141693369165482e-01,0.000000000000000000e+00,-1.951828338673833096e+00,0.000000000000000000e+00,1.167086035182241938e-01,-4.376599054591562288e-01
4.733333333333333393e+00,1.685055109241983414e+09,-7.157341688766633014e-02,-9.759141693369165482e-01,0.000000000000000000e+00,-1.951828338673833096e+00,0.000000000000000000e+00,1.093399278130714192e-01,-4.465564659096187272e-01
4.750000000000000000e+00,1.685055109258990049e+09,-6.887994172199468634e-02,-9.919390325444189527e-01,0.000000000000000000e+00,-1.983878065088837905e+00,0.000000000000000000e+00,1.018219915356773225e-01,-4.555708468412982826e-01
4.766666666666666607e+00,1.685055109275016308e+09,-6.626171335722326472e-02,-9.919390325444189527e-01,0.000000000000000000e+00,-1.983878065088837905e+00,0.000000000000000000e+00,9.415506064688075605e-02,-4.644362331615753958e-01
4.783333333333333215e+00,1.685055109292980671e+09,-6.378106014049611527e-02,-9.919390325444189527e-01,0.000000000000000000e+00,-1.983878065088837905e+00,0.000000000000000000e+00,8.634159781099504105e-02,-4.731550875347633189e-01
4.799999999999999822e+00,1.685055109309983253e+09,-6.149973085869540890e-02,-9.919390325444189527e-01,0.000000000000000000e+00,-1.983878065088837905e+00,0.000000000000000000e+00,7.838402498807267582e-02,-4.817298319209146196e-01
4.816666666666666430e+00,1.685055109325989485e+09,-5.947832543788938303e-02,-9.919390325444189527e-01,0.000000000000000000e+00,-1.983878065088837905e+00,0.000000000000000000e+00,7.028472410668762382e-02,-4.901628482486032334e-01
4.833333333333333037e+00,1.685055109344991446e+09,-5.777573324710984226e-02,-9.919390325444189527e-01,0.000000000000000000e+00,-1.983878065088837905e+00,0.000000000000000000e+00,6.204603772559744157e-02,-4.984564790765866893e-01
4.849999999999999645e+00,1.685055109362003326e+09,-5.644858436064496832e-02,-9.919390325444189527e-01,0.000000000000000000e+00,-1.983878065088837905e+00,0.000000000000000000e+00,5.367026968446911295e-02,-5.066130282445320265e-01
4.866666666666666252e+00,1.685055109376991987e+09,-5.555071903956726453e-02,-9.759141693369165482e-01,0.000000000000000000e+00,-1.951828338673833096e+00,0.000000000000000000e+00,4.516189910595148210e-02,-5.143698938216296757e-01
4.883333333333332860e+00,1.685055109395994902e+09,-5.513268054787108519e-02,-9.759141693369165482e-01,0.000000000000000000e+00,-1.951828338673833096e+00,0.000000000000000000e+00,3.652531881662618440e-02,-5.219985496879196996e-01
4.900000000000000355e+00,1.685055109410987377e+09,-5.524123622271876616e-02,-9.759141693369165482e-01,0.000000000000000000e+00,-1.951828338673833096e+00,0.000000000000000000e+00,2.776264793661745167e-02,-5.295011149635262537e-01
4.916666666666666963e+00,1.685055109429983139e+09,-5.591893147331777891e-02,-9.759141693369165482e-01,0.000000000000000000e+00,-1.951828338673833096e+00,0.000000000000000000e+00,1.887597056007470769e-02,-5.368796737425988175e-01
4.933333333333333570e+00,1.685055109446982384e+09,-5.720368109104836951e-02,-9.759141693369165482e-01,0.000000000000000000e+00,-1.951828338673833096e+00,0.000000000000000000e+00,9.867336334101008133e-03,-5.441362756722404326e-01
4.950000000000000178e+00,1.685055109463995457e+09,-5.912840191716892124e-02,-9.598893061294134776e-01,0.000000000000000000e+00,-1.919778612258826955e+00,0.000000000000000000e+00,7.409743902148033246e-04,-5.510080688305111218e-01
4.966666666666666785e+00,1.685055109478991985e+09,-6.172069053680308975e-02,-9.278395797144080026e-01,0.000000000000000000e+00,-1.855679159428816005e+00,0.000000000000000000e+00,-8.494541579938400672e-03,-5.572365458555980089e-01
4.983333333333333393e+00,1.685055109497969866e+09,-6.500254925240245285e-02,-8.477152636768945371e-01,0.000000000000000000e+00,-1.695430527353789074e+00,0.000000000000000000e+00,-1.782193840964435561e-02,-5.620377367538402780e-01
5.000000000000000000e+00,1.685055109516984940e+09,-6.899016314031439223e-02,-7.836158108468835870e-01,0.000000000000000000e+00,-1.567231621693767174e+00,0.000000000000000000e+00,-2.721983849636316899e-02,-5.657001001812361762e-01
5.016666666666666607e+00,1.685055109532958031e+09,-7.320488456342875982e-02,-7.034914948093701215e-01,0.000000000000000000e+00,-1.406982989618740243e+00,0.000000000000000000e+00,-3.666720531556374313e-02,-5.679775916088584120e-01
5.033333333333333215e+00,1.685055109550957441e+09,-7.807290662383239987e-02,-5.913174523568505148e-01,0.000000000000000000e+00,-1.182634904713701030e+00,0.000000000000000000e+00,-4.613672222225714825e-02,-5.683633655747791780e-01
5.049999999999999822e+00,1.685055109565958738e+09,-8.357901758505527356e-02,-5.111931363193371602e-01,0.000000000000000000e+00,-1.022386272638674320e+00,0.000000000000000000e+00,-5.560154860124574133e-02,-5.674184248011128195e-01
5.066666666666666430e+00,1.685055109586004019e+09,-8.970232218476331676e-02,-3.829942306593151491e-01,0.000000000000000000e+00,-7.659884613186302982e-01,0.000000000000000000e+00,-6.503304958621372589e-02,-5.643701609938001074e-01
5.083333333333333037e+00,1.685055109602004290e+09,-9.641648606109720632e-02,-2.868450514142986130e-01,0.000000000000000000e+00,-5.736901028285972259e-01,0.000000000000000000e+00,-7.440088702949823607e-02,-5.597830744074205889e-01
5.099999999999999645e+00,1.685055109618983984e+09,-1.036900273400701844e-01,-1.746710089617797002e-01,0.000000000000000000e+00,-3.493420179235594003e-01,0.000000000000000000e+00,-8.367741306564939474e-02,-5.534177318539656998e-01
5.116666666666666252e+00,1.685055109635981083e+09,-1.114866522626076217e-01,-7.852182971676319179e-02,0.000000000000000000e+00,-1.570436594335263836e-01,0.000000000000000000e+00,-9.283544907091959009e-02,-5.455683930106415280e-01
5.133333333333332860e+00,1.685055109652981520e+09,-1.197656313434739828e-01,1.762734952825329576e-02,0.000000000000000000e+00,3.525469905650659153e-02,0.000000000000000000e+00,-1.018504667441190170e-01,-5.362595861786378926e-01
5.150000000000000355e+00,1.685055109669981003e+09,-1.284822122038736802e-01,9.775166556576674048e-02,0.000000000000000000e+00,1.955033311315334810e-01,0.000000000000000000e+00,-1.107005565633186889e-01,-5.257803019333421313e-01
5.166666666666666963e+00,1.685055109687984228e+09,-1.375880649078600193e-01,1.778759816032801921e-01,0.000000000000000000e+00,3.557519632065603843e-01,0.000000000000000000e+00,-1.193663722385547576e-01,-5.141498865647180505e-01
5.183333333333333570e+00,1.685055109704981089e+09,-1.470317553625745122e-01,2.419754344332911700e-01,0.000000000000000000e+00,4.839508688665823399e-01,0.000000000000000000e+00,-1.278311006080123935e-01,-5.016522342880388452e-01
5.200000000000000178e+00,1.685055109721992970e+09,-1.567592421161324023e-01,2.900500240557997156e-01,0.000000000000000000e+00,5.801000481115994312e-01,0.000000000000000000e+00,-1.360826208685206318e-01,-4.885665469599339561e-01
5.216666666666666785e+00,1.685055109738990307e+09,-1.667143917063643177e-01,3.220997504708058012e-01,0.000000000000000000e+00,6.441995009416116025e-01,0.000000000000000000e+00,-1.441134270176859244e-01,-4.751674116362551992e-01
5.233333333333333393e+00,1.685055109756981850e+09,-1.768395075802506600e-01,3.701743400933131811e-01,0.000000000000000000e+00,7.403486801866263622e-01,0.000000000000000000e+00,-1.519161248537401199e-01,-4.611951414653124859e-01
5.250000000000000000e+00,1.685055109773981571e+09,-1.870758675184208131e-01,3.861992033008168068e-01,0.000000000000000000e+00,7.723984066016336136e-01,0.000000000000000000e+00,-1.594856680151041928e-01,-4.471889449156014607e-01
5.266666666666666607e+00,1.685055109789981365e+09,-1.973642644623439246e-01,4.022240665083192668e-01,0.000000000000000000e+00,8.044481330166385336e-01,0.000000000000000000e+00,-1.668214957480603777e-01,-4.331493827408399167e-01
5.283333333333333215e+00,1.685055109805981874e+09,-2.076455456535090671e-01,4.182489297158217267e-01,0.000000000000000000e+00,8.364978594316434535e-01,0.000000000000000000e+00,-1.739230565673346440e-01,-4.190770064263019679e-01
5.299999999999999822e+00,1.685055109823992491e+09,-2.178611450538359695e-01,4.342737929233241867e-01,0.000000000000000000e+00,8.685475858466483734e-01,0.000000000000000000e+00,-1.807898081029027104e-01,-4.049723583420118400e-01
5.316666666666666430e+00,1.685055109841957092e+09,-2.279536041236391031e-01,4.342737929233241867e-01,0.000000000000000000e+00,8.685475858466483734e-01,0.000000000000000000e+00,-1.874234303114304945e-01,-3.911008395847619945e-01
5.333333333333333037e+00,1.685055109858004093e+09,-2.378670761865156469e-01,4.342737929233241867e-01,0.000000000000000000e+00,8.685475858466483734e-01,0.000000000000000000e+00,-1.938277764817630255e-01,-3.774585968657074297e-01
5.349999999999999645e+00,1.685055109874005079e+09,-2.475478098077019407e-01,4.342737929233241867e-01,0.000000000000000000e+00,8.685475858466483734e-01,0.000000000000000000e+00,-2.000066362134827469e-01,-3.640418405852656192e-01
5.366666666666666252e+00,1.685055109893005133e+09,-2.569446068514894543e-01,4.502986561308278124e-01,0.000000000000000000e+00,9.005973122616556248e-01,0.000000000000000000e+00,-2.059615231074982955e-01,-3.505819760890696024e-01
5.383333333333332860e+00,1.685055109909981966e+09,-2.660092511618569189e-01,4.502986561308278124e-01,0.000000000000000000e+00,9.005973122616556248e-01,0.000000000000000000e+00,-2.116939380097775381e-01,-3.373445835846098917e-01
5.400000000000000355e+00,1.685055109925987959e+09,-2.746969041253192745e-01,4.502986561308278124e-01,0.000000000000000000e+00,9.005973122616556248e-01,0.000000000000000000e+00,-2.172075580589069299e-01,-3.243259859333000317e-01
5.416666666666666963e+00,1.685055109943984032e+09,-2.829664637231653623e-01,4.502986561308278124e-01,0.000000000000000000e+00,9.005973122616556248e-01,0.000000000000000000e+00,-2.225059996157179865e-01,-3.115225667743085070e-01
5.433333333333333570e+00,1.685055109961004019e+09,-2.907808840579799714e-01,4.502986561308278124e-01,0.000000000000000000e+00,9.005973122616556248e-01,0.000000000000000000e+00,-2.275928192678552953e-01,-2.989307695199907577e-01
5.450000000000000178e+00,1.685055109978012085e+09,-2.981074527428619891e-01,4.502986561308278124e-01,0.000000000000000000e+00,9.005973122616556248e-01,0.000000000000000000e+00,-2.324715148177403379e-01,-2.865470963679252470e-01
5.466666666666666785e+00,1.685055109996982813e+09,-3.049180239670838954e-01,4.502986561308278124e-01,0.000000000000000000e+00,9.005973122616556248e-01,0.000000000000000000e+00,-2.371455262542058184e-01,-2.743681073292792982e-01
5.483333333333333393e+00,1.685055110011983871e+09,-3.111892054947543729e-01,4.502986561308278124e-01,0.000000000000000000e+00,9.005973122616556248e-01,0.000000000000000000e+00,-2.416182367080701998e-01,-2.623904192732344764e-01
5.500000000000000000e+00,1.685055110029982328e+09,-3.169024983090140690e-01,4.502986561308278124e-01,0.000000000000000000e+00,9.005973122616556248e-01,0.000000000000000000e+00,-2.458929733919179850e-01,-2.506107049872062231e-01
5.516666666666666607e+00,1.685055110046983957e+09,-3.220443880790156976e-01,4.342737929233241867e-01,0.000000000000000000e+00,8.685475858466483734e-01,0.000000000000000000e+00,-2.499752218864490505e-01,-2.392905599439530961e-01
5.533333333333333215e+00,1.685055110062994003e+09,-3.266063880957430499e-01,4.502986561308278124e-01,0.000000000000000000e+00,9.005973122616556248e-01,0.000000000000000000e+00,-2.538681514789055127e-01,-2.278926527493161380e-01
5.549999999999999822e+00,1.685055110080987215e+09,-3.305850337912175640e-01,4.502986561308278124e-01,0.000000000000000000e+00,9.005973122616556248e-01,0.000000000000000000e+00,-2.575726902360803150e-01,-2.166831363899608676e-01
5.566666666666666430e+00,1.685055110098957062e+09,-3.339818294192641868e-01,4.502986561308278124e-01,0.000000000000000000e+00,9.005973122616556248e-01,0.000000000000000000e+00,-2.610919519845920078e-01,-2.056588970392687343e-01
5.583333333333333037e+00,1.685055110113957405e+09,-3.368031479302510123e-01,4.502986561308278124e-01,0.000000000000000000e+00,9.005973122616556248e-01,0.000000000000000000e+00,-2.644289990840320570e-01,-1.948168723376482447e-01
5.599999999999999645e+00,1.685055110130986214e+09,-3.390600855130033731e-01,4.342737929233241867e-01,0.000000000000000000e+00,8.685475858466483734e-01,0.000000000000000000e+00,-2.675890566397422510e-01,-1.844189182332159893e-01
5.616666666666666252e+00,1.685055110152006149e+09,-3.407682726999164968e-01,4.502986561308278124e-01,0.000000000000000000e+00,9.005973122616556248e-01,0.000000000000000000e+00,-2.705750377688855846e-01,-1.739279595018922153e-01
5.633333333333332860e+00,1.685055110163981915e+09,-3.419476443326232573e-01,4.502986561308278124e-01,0.000000000000000000e+00,9.005973122616556248e-01,0.000000000000000000e+00,-2.733876186022948240e-01,-1.636104010663025077e-01
5.650000000000000355e+00,1.685055110181957483e+09,-3.426221710612840643e-01,4.502986561308278124e-01,0.000000000000000000e+00,9.005973122616556248e-01,0.000000000000000000e+00,-2.760296651947635183e-01,-1.534633768716533453e-01
5.666666666666666963e+00,1.685055110198991776e+09,-3.428195553975318943e-01,4.502986561308278124e-01,0.000000000000000000e+00,9.005973122616556248e-01,0.000000000000000000e+00,-2.785039962293662241e-01,-1.434840682348701435e-01
5.683333333333333570e+00,1.685055110218004227e+09,-3.425708956559783691e-01,4.342737929233241867e-01,0.000000000000000000e+00,8.685475858466483734e-01,0.000000000000000000e+00,-2.808155971625463376e-01,-1.339345707529679408e-01
5.700000000000000178e+00,1.685055110233983517e+09,-3.419103213992688572e-01,4.342737929233241867e-01,0.000000000000000000e+00,8.685475858466483734e-01,0.000000000000000000e+00,-2.829693587857185499e-01,-1.245429125810736393e-01
5.716666666666666785e+00,1.685055110251004219e+09,-3.408746042444155133e-01,4.342737929233241867e-01,0.000000000000000000e+00,8.685475858466483734e-01,0.000000000000000000e+00,-2.849678899532053777e-01,-1.153064848648647223e-01
5.733333333333333393e+00,1.685055110267957211e+09,-3.395027480915411289e-01,4.182489297158217267e-01,0.000000000000000000e+00,8.364978594316434535e-01,0.000000000000000000e+00,-2.868159697608624326e-01,-1.064875895619439572e-01
5.750000000000000000e+00,1.685055110285981417e+09,-3.378355629984901576e-01,4.182489297158217267e-01,0.000000000000000000e+00,8.364978594316434535e-01,0.000000000000000000e+00,-2.885182860503571201e-01,-9.781445777718558721e-02
5.766666666666666607e+00,1.685055110303990841e+09,-3.359152270447166577e-01,3.861992033008168068e-01,0.000000000000000000e+00,7.723984066016336136e-01,0.000000000000000000e+00,-2.900816748049332428e-01,-8.981441563426251218e-02
5.783333333333333215e+00,1.685055110318990707e+09,-3.337848406046760030e-01,3.541494768858107212e-01,0.000000000000000000e+00,7.082989537716214423e-01,0.000000000000000000e+00,-2.915172612178109079e-01,-8.247633793995469420e-02
5.799999999999999822e+00,1.685055110336993694e+09,-3.314879774840457927e-01,3.381246136783082612e-01,0.000000000000000000e+00,6.762492273566165224e-01,0.000000000000000000e+00,-2.928337732368382351e-01,-7.552441569295557933e-02
5.816666666666666430e+00,1.685055110355007410e+09,-3.290682373616379830e-01,3.060748872633021755e-01,0.000000000000000000e+00,6.121497745266043511e-01,0.000000000000000000e+00,-2.940398068122561104e-01,-6.921713399648266041e-02
5.833333333333333037e+00,1.685055110372006416e+09,-3.265688039261282483e-01,2.740251608482972556e-01,0.000000000000000000e+00,5.480503216965945112e-01,0.000000000000000000e+00,-2.951460169151655100e-01,-6.354383787943497508e-02
5.849999999999999645e+00,1.685055110389005184e+09,-3.240320130006216215e-01,2.580002976407948512e-01,0.000000000000000000e+00,5.160005952815897023e-01,0.000000000000000000e+00,-2.961606690433834510e-01,-5.822918079053712725e-02
5.866666666666666252e+00,1.685055110406984091e+09,-3.214989348108198142e-01,2.259505712257887378e-01,0.000000000000000000e+00,4.519011424515774755e-01,0.000000000000000000e+00,-2.970919043407463933e-01,-5.353210263941103608e-02
5.883333333333332860e+00,1.685055110423004866e+09,-3.190089743758049434e-01,2.259505712257887378e-01,0.000000000000000000e+00,4.519011424515774755e-01,0.000000000000000000e+00,-2.979455037650352023e-01,-4.891266036135910600e-02
5.900000000000000355e+00,1.685055110441004992e+09,-3.165994937861865699e-01,1.939008448107838178e-01,0.000000000000000000e+00,3.878016896215676357e-01,0.000000000000000000e+00,-2.987271772485665111e-01,-4.489930613098137846e-02
5.916666666666666963e+00,1.685055110458992481e+09,-3.143054598849580605e-01,1.778759816032801921e-01,0.000000000000000000e+00,3.557519632065603843e-01,0.000000000000000000e+00,-2.994447291835158897e-01,-4.121715450264399477e-02
5.933333333333333570e+00,1.685055110473987341e+09,-3.121591205845886674e-01,1.618511183957777322e-01,0.000000000000000000e+00,3.237022367915554644e-01,0.000000000000000000e+00,-3.001036338673819803e-01,-3.786073117884825034e-02
5.950000000000000178e+00,1.685055110491019011e+09,-3.101897127425360390e-01,1.458262551882752722e-01,0.000000000000000000e+00,2.916525103765505444e-01,0.000000000000000000e+00,-3.007092751154845645e-01,-3.482465234427439826e-02
5.966666666666666785e+00,1.685055110510004759e+09,-3.084232041799166990e-01,1.298013919807728400e-01,0.000000000000000000e+00,2.596027839615456800e-01,0.000000000000000000e+00,-3.012669477565033116e-01,-3.210362317024277601e-02
5.983333333333333393e+00,1.685055110525965691e+09,-3.068820720677797875e-01,1.137765287732703939e-01,0.000000000000000000e+00,2.275530575465407879e-01,0.000000000000000000e+00,-3.017818591032975784e-01,-2.969243634389398881e-02
6.000000000000000000e+00,1.685055110545976639e+09,-3.055851195262958564e-01,9.775166556576674048e-02,0.000000000000000000e+00,1.955033311315334810e-01,0.000000000000000000e+00,-3.022591303994157652e-01,-2.758597062167967434e-02
6.016666666666666607e+00,1.685055110561983585e+09,-3.045473318876393276e-01,6.570193915076183444e-02,0.000000000000000000e+00,1.314038783015236689e-01,0.000000000000000000e+00,-3.027060116037980086e-01,-2.604405709811806469e-02
6.033333333333333215e+00,1.685055110577005148e+09,-3.037797736679079263e-01,4.967707594325939530e-02,0.000000000000000000e+00,9.935415188651879059e-02,0.000000000000000000e+00,-3.031296205814216216e-01,-2.479249685477344714e-02
6.049999999999999822e+00,1.685055110595004320e+09,-3.032895268805150812e-01,3.365221273575574185e-02,0.000000000000000000e+00,6.730442547151148369e-02,0.000000000000000000e+00,-3.035347564498836470e-01,-2.382649077404883076e-02
6.066666666666666430e+00,1.685055110610983849e+09,-3.030796709078859008e-01,1.762734952825329576e-02,0.000000000000000000e+00,3.525469905650659153e-02,0.000000000000000000e+00,-3.039261390043442868e-01,-2.314131906078395473e-02
6.083333333333333037e+00,1.685055110627986908e+09,-3.031493037334969665e-01,-1.442237688675220356e-02,0.000000000000000000e+00,-2.884475377350440711e-02,0.000000000000000000e+00,-3.043106233907137970e-01,-2.299720762252700432e-02
6.099999999999999645e+00,1.685055110644983530e+09,-3.034936039267960295e-01,-3.044724009425465311e-02,0.000000000000000000e+00,-6.089448018850930622e-02,0.000000000000000000e+00,-3.046949391866249357e-01,-2.312034582818678352e-02
6.116666666666666252e+00,1.685055110664983749e+09,-3.041039323731161148e-01,-4.647210330175770288e-02,0.000000000000000000e+00,-9.294420660351540575e-02,0.000000000000000000e+00,-3.050835036401554623e-01,-2.350631642968552953e-02
6.133333333333332860e+00,1.685055110677984476e+09,-3.049679723532885967e-01,-4.647210330175770288e-02,0.000000000000000000e+00,-9.294420660351540575e-02,0.000000000000000000e+00,-3.054784476265922644e-01,-2.388590749827802784e-02
6.150000000000000355e+00,1.685055110696004391e+09,-3.060699062069648368e-01,-7.852182971676319179e-02,0.000000000000000000e+00,-1.570436594335263836e-01,0.000000000000000000e+00,-3.058840924257354432e-01,-2.478895986108087951e-02
6.166666666666666963e+00,1.685055110713003159e+09,-3.073906264632692009e-01,-9.454669292426565175e-02,0.000000000000000000e+00,-1.890933858485313035e-01,0.000000000000000000e+00,-3.063068767296512340e-01,-2.594195377256950513e-02
6.183333333333333570e+00,1.685055110730007410e+09,-3.089079789955212485e-01,-1.105715561317686946e-01,0.000000000000000000e+00,-2.211431122635373892e-01,0.000000000000000000e+00,-3.067509317087663279e-01,-2.734075806231723790e-02
6.200000000000000178e+00,1.685055110746983528e+09,-3.105970354565815716e-01,-1.265964193392711545e-01,0.000000000000000000e+00,-2.531928386785423091e-01,0.000000000000000000e+00,-3.072203202512662212e-01,-2.898130984213851541e-02
6.216666666666666785e+00,1.685055110762981892e+09,-3.124303919805381247e-01,-1.426212825467741974e-01,0.000000000000000000e+00,-2.852425650935483947e-01,0.000000000000000000e+00,-3.077190380917015911e-01,-3.085961337748274053e-02
6.233333333333333393e+00,1.685055110779957056e+09,-3.143784908975318371e-01,-1.586461457542766296e-01,0.000000000000000000e+00,-3.172922915085532591e-01,0.000000000000000000e+00,-3.082510149209399808e-01,-3.297173897748228999e-02
6.250000000000000000e+00,1.685055110799956799e+09,-3.164099620035897287e-01,-1.906958721692821324e-01,0.000000000000000000e+00,-3.813917443385642647e-01,0.000000000000000000e+00,-3.088223288398742605e-01,-3.557868959470270043e-02
6.266666666666666607e+00,1.685055110813007832e+09,-3.184919797582000944e-01,-1.906958721692821324e-01,0.000000000000000000e+00,-3.813917443385642647e-01,0.000000000000000000e+00,-3.094367318624421936e-01,-3.814255110828948525e-02
6.283333333333333215e+00,1.685055110830981970e+09,-3.205906326504905923e-01,-2.067207353767851752e-01,0.000000000000000000e+00,-4.134414707535703504e-01,0.000000000000000000e+00,-3.100957251505071510e-01,-4.092890340983759007e-02
6.299999999999999822e+00,1.685055110848011017e+09,-3.226713008812119865e-01,-2.227455985842876351e-01,0.000000000000000000e+00,-4.454911971685752703e-01,0.000000000000000000e+00,-3.108029861533299076e-01,-4.393406905008630237e-02
6.316666666666666430e+00,1.685055110864015341e+09,-3.246990384531045493e-01,-2.387704617917906780e-01,0.000000000000000000e+00,-4.775409235835813559e-01,0.000000000000000000e+00,-3.115621315372812394e-01,-4.715443136266481150e-02
6.333333333333333037e+00,1.685055110882005215e+09,-3.266389557466826687e-01,-2.547953249992931379e-01,0.000000000000000000e+00,-5.095906499985862759e-01,0.000000000000000000e+00,-3.123767181904948953e-01,-5.058643345943936859e-02
6.349999999999999645e+00,1.685055110900983810e+09,-3.284565986821821326e-01,-2.708201882067962085e-01,0.000000000000000000e+00,-5.416403764135924170e-01,0.000000000000000000e+00,-3.132502442109149077e-01,-5.422657724246597588e-02
6.366666666666666252e+00,1.685055110916972876e+09,-3.301183206306139151e-01,-2.868450514142986130e-01,0.000000000000000000e+00,-5.736901028285972259e-01,0.000000000000000000e+00,-3.141861498780118556e-01,-5.807142243227399192e-02
6.383333333333332860e+00,1.685055110933957338e+09,-3.315916433368357175e-01,-3.028699146218016836e-01,0.000000000000000000e+00,-6.057398292436033671e-01,0.000000000000000000e+00,-3.151878186084383637e-01,-6.211758561221084052e-02
6.400000000000000355e+00,1.685055110949984074e+09,-3.328456032540456633e-01,-3.188947778293041435e-01,0.000000000000000000e+00,-6.377895556586082870e-01,0.000000000000000000e+00,-3.162585778958886817e-01,-6.636173928858228599e-02
6.416666666666666963e+00,1.685055110968981504e+09,-3.338510798603921970e-01,-3.188947778293041435e-01,0.000000000000000000e+00,-6.377895556586082870e-01,0.000000000000000000e+00,-3.173994868733217012e-01,-7.053574327497103003e-02
6.433333333333333570e+00,1.685055110983981848e+09,-3.345811027327517673e-01,-3.349196410368071586e-01,0.000000000000000000e+00,-6.698392820736143172e-01,0.000000000000000000e+00,-3.186115994304500321e-01,-7.490562473512281383e-02
6.450000000000000178e+00,1.685055111000012875e+09,-3.350111343876994163e-01,-3.349196410368071586e-01,0.000000000000000000e+00,-6.698392820736143172e-01,0.000000000000000000e+00,-3.198959397750398281e-01,-7.920327840781313244e-02
6.466666666666666785e+00,1.685055111019984245e+09,-3.351193261629315523e-01,-3.509445042443096185e-01,0.000000000000000000e+00,-7.018890084886192371e-01,0.000000000000000000e+00,-3.212535274488736436e-01,-8.369476580471782445e-02
6.483333333333333393e+00,1.685055111036987782e+09,-3.348867447009672427e-01,-3.509445042443096185e-01,0.000000000000000000e+00,-7.018890084886192371e-01,0.000000000000000000e+00,-3.226853528795087800e-01,-8.811201544482115400e-02
6.500000000000000000e+00,1.685055111051002979e+09,-3.342975669079062406e-01,-3.669693674518120785e-01,0.000000000000000000e+00,-7.339387349036241570e-01,0.000000000000000000e+00,-3.241924023868568150e-01,-9.272112206167000548e-02
6.516666666666666607e+00,1.685055111068984985e+09,-3.333392415900969241e-01,-3.829942306593151491e-01,0.000000000000000000e+00,-7.659884613186302982e-01,0.000000000000000000e+00,-3.257778470878154309e-01,-9.751891453836666890e-02
6.533333333333333215e+00,1.685055111084983587e+09,-3.320026163173498968e-01,-3.829942306593151491e-01,0.000000000000000000e+00,-7.659884613186302982e-01,0.000000000000000000e+00,-3.274425923232281432e-01,-1.022374064806092220e-01
6.549999999999999822e+00,1.685055111102005720e+09,-3.302820284193508926e-01,-4.150439570743206241e-01,0.000000000000000000e+00,-8.300879141486412482e-01,0.000000000000000000e+00,-3.291897540947544276e-01,-1.074076439936549471e-01
6.566666666666666430e+00,1.685055111119956970e+09,-3.281753593884546016e-01,-4.310688202818230841e-01,0.000000000000000000e+00,-8.621376405636461682e-01,0.000000000000000000e+00,-3.310245857378151801e-01,-1.127572926886245552e-01
6.583333333333333037e+00,1.685055111138988495e+09,-3.256840523334831317e-01,-4.470936834893260992e-01,0.000000000000000000e+00,-8.941873669786521983e-01,0.000000000000000000e+00,-3.329500526584138753e-01,-1.182833871595146275e-01
6.599999999999999645e+00,1.685055111154982567e+09,-3.228130925017323460e-01,-4.631185466968285591e-01,0.000000000000000000e+00,-9.262370933936571182e-01,0.000000000000000000e+00,-3.349690712487038979e-01,-1.239830110141717512e-01
6.616666666666666252e+00,1.685055111170981646e+09,-3.195709512564055554e-01,-4.791434099043316297e-01,0.000000000000000000e+00,-9.582868198086632594e-01,0.000000000000000000e+00,-3.370845096971162858e-01,-1.298532960641649026e-01
6.633333333333332860e+00,1.685055111188994884e+09,-3.159694942605224544e-01,-4.791434099043316297e-01,0.000000000000000000e+00,-9.582868198086632594e-01,0.000000000000000000e+00,-3.392969754229950285e-01,-1.356265538366916990e-01
6.649999999999999467e+00,1.685055111206990480e+09,-3.120238549724157484e-01,-4.951682731118340897e-01,0.000000000000000000e+00,-9.903365462236681793e-01,0.000000000000000000e+00,-3.416070780686071284e-01,-1.415692557429434895e-01
6.666666666666666963e+00,1.685055111222994328e+09,-3.077522748986906698e-01,-4.951682731118340897e-01,0.000000000000000000e+00,-9.903365462236681793e-01,0.000000000000000000e+00,-3.440154049370375833e-01,-1.474137334263769528e-01
6.683333333333333570e+00,1.685055111237984180e+09,-3.031759123749253049e-01,-5.111931363193371602e-01,0.000000000000000000e+00,-1.022386272638674320e+00,0.000000000000000000e+00,-3.465225458867868813e-01,-1.534264780819499241e-01
6.700000000000000178e+00,1.685055111256983995e+09,-2.983186219489221136e-01,-5.111931363193371602e-01,0.000000000000000000e+00,-1.022386272638674320e+00,0.000000000000000000e+00,-3.491290687641703805e-01,-1.593398408098886943e-01
6.716666666666666785e+00,1.685055111274007559e+09,-2.932067067236135971e-01,-5.272179995268395647e-01,0.000000000000000000e+00,-1.054435999053679129e+00,0.000000000000000000e+00,-3.518355442925111265e-01,-1.654203319403286243e-01
6.733333333333333393e+00,1.685055111290982246e+09,-2.878686462735480234e-01,-5.272179995268395647e-01,0.000000000000000000e+00,-1.054435999053679129e+00,0.000000000000000000e+00,-3.546425214992235952e-01,-1.714003213923968039e-01
6.750000000000000000e+00,1.685055111305985212e+09,-2.823348029784010782e-01,-5.432428627343426353e-01,0.000000000000000000e+00,-1.086485725468685271e+00,0.000000000000000000e+00,-3.575505525997790812e-01,-1.775463380040803729e-01
6.766666666666666607e+00,1.685055111323005438e+09,-2.766371098166128806e-01,-5.432428627343426353e-01,0.000000000000000000e+00,-1.086485725468685271e+00,0.000000000000000000e+00,-3.605601684196482193e-01,-1.835907698964502899e-01
6.783333333333333215e+00,1.685055111344004869e+09,-2.708087428306011346e-01,-5.432428627343426353e-01,0.000000000000000000e+00,-1.086485725468685271e+00,0.000000000000000000e+00,-3.636696899111078740e-01,-1.895352961172296902e-01
6.799999999999999822e+00,1.685055111360982418e+09,-2.648837816103858378e-01,-5.592677259418450397e-01,0.000000000000000000e+00,-1.118535451883690079e+00,0.000000000000000000e+00,-3.668796791407549218e-01,-1.956464356532800763e-01
6.816666666666666430e+00,1.685055111375983715e+09,-2.588968612437873018e-01,-5.592677259418450397e-01,0.000000000000000000e+00,-1.118535451883690079e+00,0.000000000000000000e+00,-3.701906766223607703e-01,-2.016565669373716063e-01
6.833333333333333037e+00,1.685055111394001961e+09,-2.528828192479531389e-01,-5.592677259418450397e-01,0.000000000000000000e+00,-1.118535451883690079e+00,0.000000000000000000e+00,-3.736010128363696503e-01,-2.075673594890601326e-01
6.849999999999999645e+00,1.685055111409984112e+09,-2.468763410282522885e-01,-5.592677259418450397e-01,0.000000000000000000e+00,-1.118535451883690079e+00,0.000000000000000000e+00,-3.771090458579567928e-01,-2.133804552331703963e-01
6.866666666666666252e+00,1.685055111427001715e+09,-2.409116074065697777e-01,-5.592677259418450397e-01,0.000000000000000000e+00,-1.118535451883690079e+00,0.000000000000000000e+00,-3.807131609009277162e-01,-2.190974689558969069e-01
6.883333333333332860e+00,1.685055111445981979e+09,-2.350219477220236719e-01,-5.592677259418450397e-01,0.000000000000000000e+00,-1.118535451883690079e+00,0.000000000000000000e+00,-3.844117698691560392e-01,-2.247199887533659901e-01
6.899999999999999467e+00,1.685055111460983992e+09,-2.292395019336446182e-01,-5.592677259418450397e-01,0.000000000000000000e+00,-1.118535451883690079e+00,0.000000000000000000e+00,-3.882033109154356398e-01,-2.302495764727838234e-01
6.916666666666666963e+00,1.685055111478008032e+09,-2.235948950476885910e-01,-5.592677259418450397e-01,0.000000000000000000e+00,-1.118535451883690079e+00,0.000000000000000000e+00,-3.920862480076239276e-01,-2.356877681462929419e-01
6.933333333333333570e+00,1.685055111495003700e+09,-2.181169270531783111e-01,-5.592677259418450397e-01,0.000000000000000000e+00,-1.118535451883690079e+00,0.000000000000000000e+00,-3.960590705019566005e-01,-2.410360744176576753e-01
6.950000000000000178e+00,1.685055111513003111e+09,-2.128322813796942881e-01,-5.592677259418450397e-01,0.000000000000000000e+00,-1.118535451883690079e+00,0.000000000000000000e+00,-4.001202927234144835e-01,-2.462959809618971707e-01
6.966666666666666785e+00,1.685055111528983116e+09,-2.077652546931260669e-01,-5.592677259418450397e-01,0.000000000000000000e+00,-1.118535451883690079e+00,0.000000000000000000e+00,-4.042684535530265966e-01,-2.514689488979824361e-01
6.983333333333333393e+00,1.685055111548012495e+09,-2.029375106203422652e-01,-5.592677259418450397e-01,0.000000000000000000e+00,-1.118535451883690079e+00,0.000000000000000000e+00,-4.085021160219943215e-01,-2.565564151947121174e-01
7.000000000000000000e+00,1.685055111565958023e+09,-1.983678597449168302e-01,-5.592677259418450397e-01,0.000000000000000000e+00,-1.118535451883690079e+00,0.000000000000000000e+00,-4.128198669125241471e-01,-2.615597930698796980e-01
7.016666666666666607e+00,1.685055111580983639e+09,-1.940720679457298425e-01,-5.592677259418450397e-01,0.000000000000000000e+00,-1.118535451883690079e+00,0.000000000000000000e+00,-4.172203163652580815e-01,-2.664804723828431698e-01
7.033333333333333215e+00,1.685055111597983837e+09,-1.900626948613791389e-01,-5.592677259418450397e-01,0.000000000000000000e+00,-1.118535451883690079e+00,0.000000000000000000e+00,-4.217020974931927624e-01,-2.713198200206058952e-01
7.049999999999999822e+00,1.685055111615981340e+09,-1.863489639588696845e-01,-5.592677259418450397e-01,0.000000000000000000e+00,-1.118535451883690079e+00,0.000000000000000000e+00,-4.262638660019797410e-01,-2.760791802775163228e-01
7.066666666666666430e+00,1.685055111631957054e+09,-1.829366653680447874e-01,-5.272179995268395647e-01,0.000000000000000000e+00,-1.054435999053679129e+00,0.000000000000000000e+00,-4.308998730922974363e-01,-2.802301398459792758e-01
7.083333333333333037e+00,1.685055111650986910e+09,-1.798280923170489376e-01,-4.791434099043316297e-01,0.000000000000000000e+00,-9.582868198086632594e-01,0.000000000000000000e+00,-4.355978494231761977e-01,-2.835178870135060536e-01
7.099999999999999645e+00,1.685055111666990519e+09,-1.770220116719455339e-01,-3.990190938668175535e-01,0.000000000000000000e+00,-7.980381877336351071e-01,0.000000000000000000e+00,-4.403391006243903005e-01,-2.854269540434055674e-01
7.116666666666666252e+00,1.685055111683957815e+09,-1.745136687489332039e-01,-3.028699146218016836e-01,0.000000000000000000e+00,-6.057398292436033671e-01,0.000000000000000000e+00,-4.450986257555323289e-01,-2.857152608226268820e-01
7.133333333333332860e+00,1.685055111700957775e+09,-1.722948262335769753e-01,-1.906958721692821324e-01,0.000000000000000000e+00,-3.813917443385642647e-01,0.000000000000000000e+00,-4.498474226438700652e-01,-2.841447284704438636e-01
7.149999999999999467e+00,1.685055111719983101e+09,-1.703538367115910446e-01,-4.647210330175770288e-02,0.000000000000000000e+00,-9.294420660351540575e-02,0.000000000000000000e+00,-4.545503406567973914e-01,-2.802163455125458724e-01
7.166666666666666963e+00,1.685055111735994577e+09,-1.686757479930642567e-01,6.570193915076183444e-02,0.000000000000000000e+00,1.314038783015236689e-01,0.000000000000000000e+00,-4.591728346759255119e-01,-2.744988191742383510e-01
7.183333333333333570e+00,1.685055111752982378e+09,-1.672424400998560323e-01,1.618511183957777322e-01,0.000000000000000000e+00,3.237022367915554644e-01,0.000000000000000000e+00,-4.636875461243929464e-01,-2.672865890858412974e-01
7.200000000000000178e+00,1.685055111768982410e+09,-1.660327924871825567e-01,2.419754344332911700e-01,0.000000000000000000e+00,4.839508688665823399e-01,0.000000000000000000e+00,-4.680719830843614315e-01,-2.588692282186513260e-01
7.216666666666666785e+00,1.685055111787014008e+09,-1.650228797880005649e-01,3.381246136783082612e-01,0.000000000000000000e+00,6.762492273566165224e-01,0.000000000000000000e+00,-4.723040131340134340e-01,-2.490017879410275359e-01
7.233333333333333393e+00,1.685055111804983139e+09,-1.641861941054159890e-01,4.022240665083192668e-01,0.000000000000000000e+00,8.044481330166385336e-01,0.000000000000000000e+00,-4.763640952930710548e-01,-2.382379713401645838e-01
7.250000000000000000e+00,1.685055111821985006e+09,-1.634938916363857520e-01,7.391097604321757997e-01,6.096719350177035590e-01,8.685475858466483734e-01,0.000000000000000000e+00,-4.801997363923596884e-01,-2.220838342336730054e-01
7.266666666666666607e+00,1.685055111838981867e+09,-1.629150611917045410e-01,7.673658859783930586e-01,6.661841861101379658e-01,8.685475858466483734e-01,0.000000000000000000e+00,-4.837644703405249991e-01,-2.057296688525345196e-01
7.283333333333333215e+00,1.685055111854989290e+09,-1.624170119846694016e-01,8.266579414285419869e-01,7.527185705954282380e-01,9.005973122616556248e-01,0.000000000000000000e+00,-4.870507042628702266e-01,-1.886658025730469368e-01
7.299999999999999822e+00,1.685055111872990131e+09,-1.619655778955021719e-01,8.964152513707656089e-01,8.922331904798754820e-01,9.005973122616556248e-01,0.000000000000000000e+00,-4.900452623691594622e-01,-1.707309902772449761e-01
7.316666666666666430e+00,1.685055111889969587e+09,-1.615254352821287875e-01,9.516029965782211164e-01,1.002608680894786497e+00,9.005973122616556248e-01,0.000000000000000000e+00,-4.927357615435034033e-01,-1.521804411599306794e-01
7.333333333333333037e+00,1.685055111905982733e+09,-1.610604313012260758e-01,1.121581251817183711e+00,1.342565191372712130e+00,9.005973122616556248e-01,0.000000000000000000e+00,-4.950961696288978531e-01,-1.311270122109164937e-01
7.349999999999999645e+00,1.685055111923983097e+09,-1.605339196274243596e-01,1.133943306743653956e+00,1.367289301225652398e+00,9.005973122616556248e-01,0.000000000000000000e+00,-4.971068876887254628e-01,-1.102172390386946393e-01
7.366666666666666252e+00,1.685055111941987038e+09,-1.599091004137290772e-01,1.202376110800898568e+00,1.504154909340141399e+00,9.005973122616556248e-01,0.000000000000000000e+00,-4.987625456242775757e-01,-8.852197925646086707e-02
7.383333333333332860e+00,1.685055111958984375e+09,-1.591493613225984094e-01,1.283170969784613424e+00,1.665744627307571113e+00,9.005973122616556248e-01,0.000000000000000000e+00,-5.000484530306618103e-01,-6.584988902033311886e-02
7.399999999999999467e+00,1.685055111971957207e+09,-1.582186164747243218e-01,1.326438162027258727e+00,1.752279011792861718e+00,9.005973122616556248e-01,0.000000000000000000e+00,-5.009536476606784028e-01,-4.283739168986225310e-02
7.416666666666666963e+00,1.685055111991005182e+09,-1.570816402107789167e-01,1.343215236570324933e+00,1.785833160878994352e+00,9.005973122616556248e-01,0.000000000000000000e+00,-5.014761619082271915e-01,-1.992795683280809693e-02
7.433333333333333570e+00,1.685055112010014296e+09,-1.557043926395607347e-01,1.392663456276205247e+00,1.884729600290754759e+00,9.005973122616556248e-01,0.000000000000000000e+00,-5.016131866912862947e-01,3.420125554854415439e-03
7.450000000000000178e+00,1.685055112026978016e+09,-1.540543340529268446e-01,4.806690077303135689e-01,2.079873467344317106e+00,-1.118535451883690079e+00,0.000000000000000000e+00,-5.014902667449658846e-01,1.130835573737254927e-02
7.466666666666666785e+00,1.685055112041981459e+09,-1.521007254223463168e-01,1.494650409419582937e+00,2.088703506577510360e+00,9.005973122616556248e-01,0.000000000000000000e+00,-5.010969142047434488e-01,3.582584335414317617e-02
7.483333333333333393e+00,1.685055112059005260e+09,-1.498149123522249104e-01,1.531736574198993006e+00,2.162875836136330054e+00,9.005973122616556248e-01,0.000000000000000000e+00,-5.002932008789471308e-01,6.055107293166334809e-02
7.500000000000000000e+00,1.685055112076992035e+09,-1.471705900494138797e-01,1.576328272326616764e+00,2.252059232391578014e+00,9.005973122616556248e-01,0.000000000000000000e+00,-4.990746564269764596e-01,8.560466635180298545e-02
7.516666666666666607e+00,1.685055112092005014e+09,-1.441440470745036229e-01,1.553370170320315324e+00,2.206143028378975579e+00,9.005973122616556248e-01,0.000000000000000000e+00,-4.974451834839989095e-01,1.098646962474973537e-01
7.533333333333333215e+00,1.685055112111008406e+09,-1.407143858662505131e-01,1.533502582045631613e+00,2.166407851829607267e+00,9.005973122616556248e-01,0.000000000000000000e+00,-4.954174716380665422e-01,1.333953607689921939e-01
7.549999999999999822e+00,1.685055112128982782e+09,-1.368637182733485613e-01,1.551604162473676940e+00,2.202611012685698366e+00,9.005973122616556248e-01,0.000000000000000000e+00,-4.929983319179132017e-01,1.568362904234001376e-01
7.566666666666666430e+00,1.685055112146005154e+09,-1.325773345851223861e-01,1.496857919227881251e+00,2.093118526194106543e+00,9.005973122616556248e-01,0.000000000000000000e+00,-4.901993092881872238e-01,1.789848997808055064e-01
7.583333333333333037e+00,1.685055112162005424e+09,-1.278438448217646684e-01,1.518050013387543862e+00,2.135502714513431766e+00,9.005973122616556248e-01,0.000000000000000000e+00,-4.870312752835275205e-01,2.011176993326048712e-01
7.599999999999999645e+00,1.685055112179013729e+09,-1.226552913226929969e-01,1.585158311559809796e+00,2.269719310857963634e+00,9.005973122616556248e-01,0.000000000000000000e+00,-4.834881492480269105e-01,2.239938784897677337e-01
7.616666666666666252e+00,1.685055112194005013e+09,-1.170072319555259949e-01,1.649176096000458003e+00,2.397754879739260936e+00,9.005973122616556248e-01,0.000000000000000000e+00,-4.795580710608566832e-01,2.475500685692717806e-01
7.633333333333332860e+00,1.685055112211984396e+09,-1.108987935550937443e-01,1.485820370186390127e+00,2.071043428111124296e+00,9.005973122616556248e-01,0.000000000000000000e+00,-4.752612060727816057e-01,2.680168764176364959e-01
7.649999999999999467e+00,1.685055112229961872e+09,-1.043326954889060854e-01,1.484495864301411006e+00,2.068394416341166497e+00,9.005973122616556248e-01,0.000000000000000000e+00,-4.706262374476931631e-01,2.881235055309049331e-01
7.666666666666666963e+00,1.685055112245004892e+09,-9.731524352967653446e-02,1.502155942767796848e+00,2.103714573273937738e+00,9.005973122616556248e-01,0.000000000000000000e+00,-4.656564962561797194e-01,3.081896967188547665e-01
7.683333333333333570e+00,1.685055112262984514e+09,-8.985629449392000534e-02,1.499948432959498534e+00,2.099299553657341555e+00,9.005973122616556248e-01,0.000000000000000000e+00,-4.603553949995626282e-01,3.278877360115626804e-01
7.700000000000000178e+00,1.685055112278983831e+09,-8.196919237565405969e-02,1.469926299566642891e+00,2.039255286871629824e+00,9.005973122616556248e-01,0.000000000000000000e+00,-4.547328604631273308e-01,3.467639731345714682e-01
7.716666666666666785e+00,1.685055112296981096e+09,-7.367067696303306046e-02,1.328204169873897111e+00,1.755811027486138487e+00,9.005973122616556248e-01,0.000000000000000000e+00,-4.488179039012004656e-01,3.629857527372095660e-01
7.733333333333333393e+00,1.685055112313981771e+09,-6.498076617093762053e-02,1.363965828768328281e+00,1.827334345275000604e+00,9.005973122616556248e-01,0.000000000000000000e+00,-4.426298854880186817e-01,3.795304981368332609e-01
7.750000000000000000e+00,1.685055112329988241e+09,-5.592261355172892245e-02,1.328645671835556819e+00,1.756694031409458123e+00,9.005973122616556248e-01,0.000000000000000000e+00,-4.361732849243657451e-01,3.952179921037728971e-01
7.766666666666666607e+00,1.685055112346990108e+09,-4.652234265737449637e-02,1.350720769918539066e+00,1.800844227575422396e+00,9.005973122616556248e-01,0.000000000000000000e+00,-4.294543438688627202e-01,4.110110638802455529e-01
7.783333333333333215e+00,1.685055112363994837e+09,-3.680886011708500716e-02,1.390014444506247449e+00,1.879431576750838717e+00,9.005973122616556248e-01,0.000000000000000000e+00,-4.224689390354320895e-01,4.271925664552523871e-01
7.799999999999999822e+00,1.685055112380991697e+09,-2.681364946369059477e-02,1.357784801305093270e+00,1.814972290348531025e+00,9.005973122616556248e-01,0.000000000000000000e+00,-4.152205290640283986e-01,4.425739031722669137e-01
7.816666666666666430e+00,1.685055112399983644e+09,-1.657054788778787591e-02,1.306129071790914864e+00,1.711660831320174214e+00,9.005973122616556248e-01,0.000000000000000000e+00,-4.077250226737118566e-01,4.568472146451322824e-01
7.833333333333333037e+00,1.685055112414984226e+09,-6.115508220014054253e-03,1.332619189490493516e+00,1.764641066719331519e+00,9.005973122616556248e-01,0.000000000000000000e+00,-3.999899403674757048e-01,4.713224521637376929e-01
7.849999999999999645e+00,1.685055112433983564e+09,4.513651462337286979e-03,1.379418397426415810e+00,1.858239482591175884e+00,9.005973122616556248e-01,0.000000000000000000e+00,-3.920091394996733647e-01,4.863319579197089570e-01
7.866666666666666252e+00,1.685055112448983431e+09,1.527750813832774029e-02,1.333502193413812931e+00,1.766407074565970126e+00,9.005973122616556248e-01,0.000000000000000000e+00,-3.837865952920382351e-01,5.003344502689707207e-01
7.883333333333332860e+00,1.685055112466957569e+09,2.613530154669282957e-02,1.372795868001521091e+00,1.844994423741386891e+00,9.005973122616556248e-01,0.000000000000000000e+00,-3.753271829812050431e-01,5.147549690914962062e-01
7.899999999999999467e+00,1.685055112483003616e+09,3.704520676336224561e-02,1.359992311113391361e+00,1.819387309965127208e+00,9.005973122616556248e-01,0.000000000000000000e+00,-3.666311888929176255e-01,5.287255135217653335e-01
7.916666666666666963e+00,1.685055112499984026e+09,4.796460913669055304e-02,1.357343299343433562e+00,1.814089286425211611e+00,9.005973122616556248e-01,0.000000000000000000e+00,-3.577046478988540890e-01,5.424213608500924044e-01
7.933333333333333570e+00,1.685055112517991066e+09,5.885037909939213469e-02,1.258446859931673600e+00,1.616296407601691465e+00,9.005973122616556248e-01,0.000000000000000000e+00,-3.485653940854766542e-01,5.542562213689095074e-01
7.950000000000000178e+00,1.685055112535003185e+09,6.965914443683751678e-02,1.272574922704782008e+00,1.644552533147908280e+00,9.005973122616556248e-01,0.000000000000000000e+00,-3.392285758585459887e-01,5.661289851870585643e-01
7.966666666666666785e+00,1.685055112551981211e+09,8.034755767612528077e-02,1.259902158404407668e+00,1.587157278132154792e+00,9.326470386766605447e-01,0.000000000000000000e+00,-3.296972684752373928e-01,5.775960471104900629e-01
7.983333333333333393e+00,1.685055112568982124e+09,9.087255636803581726e-02,1.209570934775208162e+00,1.486494830873756001e+00,9.326470386766605447e-01,0.000000000000000000e+00,-3.199833790032410308e-01,5.880416732180805406e-01
8.000000000000000000e+00,1.685055112586969137e+09,1.011916141630294641e-01,1.198091883772057553e+00,1.463536728867454562e+00,9.326470386766605447e-01,0.000000000000000000e+00,-3.100984240101271605e-01,5.981249162878342629e-01
8.016666666666665719e+00,1.685055112602957726e+09,1.112629807312120189e-01,1.238840856832500004e+00,1.512984948573334432e+00,9.646967650916654646e-01,0.000000000000000000e+00,-3.000411793999230858e-01,6.087150192915051772e-01
8.033333333333333215e+00,1.685055112619958401e+09,1.210459087427378094e-01,1.256500935298885624e+00,1.548305105506105894e+00,9.646967650916654646e-01,0.000000000000000000e+00,-2.898064565644525303e-01,6.194219787110161191e-01
8.050000000000000711e+00,1.685055112637983799e+09,1.305008663073675967e-01,1.267227774966472653e+00,1.537709058426274922e+00,9.967464915066702735e-01,0.000000000000000000e+00,-2.793932816594537072e-01,6.301292667221252142e-01
8.066666666666666430e+00,1.685055112654980183e+09,1.395897334676750312e-01,1.315792990749033331e+00,1.634839489991396277e+00,9.967464915066702735e-01,0.000000000000000000e+00,-2.687964229983959008e-01,6.414622912402179189e-01
8.083333333333333925e+00,1.685055112669982910e+09,1.482759815472514675e-01,1.258839237694939328e+00,1.520931983883208272e+00,9.967464915066702735e-01,0.000000000000000000e+00,-2.580201123991612833e-01,6.516666346025656864e-01
8.099999999999999645e+00,1.685055112685992718e+09,1.565248343708300349e-01,1.275174810276346049e+00,1.553603129046021714e+00,9.967464915066702735e-01,0.000000000000000000e+00,-2.470728825621151814e-01,6.619723182701253705e-01
8.116666666666667140e+00,1.685055112703006268e+09,1.643034105950296198e-01,1.239854653343574586e+00,1.482962815180478788e+00,9.967464915066702735e-01,0.000000000000000000e+00,-2.359601931944794451e-01,6.715238731248824866e-01
8.133333333333332860e+00,1.685055112722004414e+09,1.715808466136986565e-01,1.246477182768469083e+00,1.496207874030268004e+00,9.967464915066702735e-01,0.000000000000000000e+00,-2.246887158043849586e-01,6.810270154475958071e-01
8.150000000000000355e+00,1.685055112737957239e+09,1.783283997282682498e-01,1.286212359317837173e+00,1.575678227129003961e+00,9.967464915066702735e-01,0.000000000000000000e+00,-2.132546770452596052e-01,6.910298493437677658e-01
8.166666666666666075e+00,1.685055112756982803e+09,1.845195314982956414e-01,1.257514731809960207e+00,1.518282972113250251e+00,9.967464915066702735e-01,0.000000000000000000e+00,-2.016592697149042768e-01,7.003930208769117982e-01
8.183333333333333570e+00,1.685055112773005724e+09,1.901299714081883252e-01,1.265592559707590326e+00,1.502388901493503015e+00,1.028796217921677636e+00,0.000000000000000000e+00,-1.899079870579674922e-01,7.097349475484349135e-01
8.199999999999999289e+00,1.685055112789014101e+09,1.951377612002975492e-01,1.248684692576767397e+00,1.500622893646864631e+00,9.967464915066702735e-01,0.000000000000000000e+00,-1.780046312577898693e-01,7.186430032912034527e-01
8.216666666666666785e+00,1.685055112804005384e+09,1.995232804299649776e-01,1.209080308615156030e+00,1.389364399308634423e+00,1.028796217921677636e+00,0.000000000000000000e+00,-1.659595084242777019e-01,7.267492189346105302e-01
8.233333333333332504e+00,1.685055112822984695e+09,2.032692539923322828e-01,1.222194574877188966e+00,1.447642658247707548e+00,9.967464915066702735e-01,0.000000000000000000e+00,-1.537785902822584316e-01,7.349382103738777428e-01
8.250000000000000000e+00,1.685055112840008259e+09,2.063607425517796357e-01,1.190537226225450995e+00,1.352278234529224354e+00,1.028796217921677636e+00,0.000000000000000000e+00,-1.414666925459602542e-01,7.424685997413370542e-01
8.266666666666665719e+00,1.685055112856008053e+09,2.087851169707381493e-01,1.066033673037431351e+00,1.103271128153185066e+00,1.028796217921677636e+00,0.000000000000000000e+00,-1.290475249142313263e-01,7.478166599935652803e-01
8.283333333333333215e+00,1.685055112875983715e+09,2.105320179836696615e-01,1.023649484718105462e+00,1.018502751514533511e+00,1.028796217921677636e+00,0.000000000000000000e+00,-1.165458157469549810e-01,7.523757755715907436e-01
8.300000000000000711e+00,1.685055112891992331e+09,2.115933024926254236e-01,9.918613434786113237e-01,9.549264690355449003e-01,1.028796217921677636e+00,0.000000000000000000e+00,-1.039731416212927584e-01,7.563341238372387476e-01
8.316666666666666430e+00,1.685055112907983780e+09,2.119629779717223661e-01,9.466973508015711358e-01,8.966482100964719981e-01,9.967464915066702735e-01,0.000000000000000000e+00,-9.134127982677803237e-02,7.594805512227501554e-01
8.333333333333333925e+00,1.685055112923988104e+09,2.116371265579841121e-01,9.534506728142221332e-01,8.781051277067667415e-01,1.028796217921677636e+00,0.000000000000000000e+00,-7.865647938975248166e-02,7.626865953326282810e-01
8.349999999999999645e+00,1.685055112941983700e+09,2.106138204745472420e-01,8.828103589486793190e-01,7.368244999756811131e-01,1.028796217921677636e+00,0.000000000000000000e+00,-6.592844458003972730e-02,7.646720665053935440e-01
8.366666666666667140e+00,1.685055112958982706e+09,2.088930304785473202e-01,7.896534450384944392e-01,5.505106721553112425e-01,1.028796217921677636e+00,0.000000000000000000e+00,-5.318045969781519389e-02,7.650849723738105679e-01
8.383333333333332860e+00,1.685055112975989819e+09,2.064765290498738193e-01,5.143981089608388180e-01,0.000000000000000000e+00,1.028796217921677636e+00,0.000000000000000000e+00,-4.046366848624514262e-02,7.609414829782544798e-01
8.400000000000000355e+00,1.685055112994983196e+09,2.033677900382677706e-01,4.983732457533351368e-01,0.000000000000000000e+00,9.967464915066702735e-01,0.000000000000000000e+00,-2.781757649254706227e-02,7.566016117471119351e-01
8.416666666666666075e+00,1.685055113010005236e+09,1.995718864652712699e-01,5.143981089608388180e-01,0.000000000000000000e+00,1.028796217921677636e+00,0.000000000000000000e+00,-1.524100289875261055e-02,7.525983399693314535e-01
8.433333333333333570e+00,1.685055113028006315e+09,1.950953881346251806e-01,5.143981089608388180e-01,0.000000000000000000e+00,1.028796217921677636e+00,0.000000000000000000e+00,-2.730597567359034292e-03,7.486612364539518838e-01
8.449999999999999289e+00,1.685055113043982029e+09,1.899462606407719689e-01,4.983732457533351368e-01,0.000000000000000000e+00,9.967464915066702735e-01,0.000000000000000000e+00,9.712519804711428756e-03,7.445243398444369998e-01
8.466666666666666785e+00,1.685055113061981916e+09,1.841337672809862658e-01,5.143981089608388180e-01,0.000000000000000000e+00,1.028796217921677636e+00,0.000000000000000000e+00,2.208947365228270884e-02,7.407206878128796967e-01
8.483333333333332504e+00,1.685055113077956915e+09,1.776683752735579991e-01,5.143981089608388180e-01,0.000000000000000000e+00,1.028796217921677636e+00,0.000000000000000000e+00,3.440355866164454546e-02,7.369799046195318892e-01
8.500000000000000000e+00,1.685055113097004890e+09,1.705616675638783608e-01,4.983732457533351368e-01,0.000000000000000000e+00,9.967464915066702735e-01,0.000000000000000000e+00,4.665360060118962926e-02,7.330360834425423411e-01
8.516666666666665719e+00,1.685055113112007380e+09,1.628262613637680434e-01,4.983732457533351368e-01,0.000000000000000000e+00,9.967464915066702735e-01,0.000000000000000000e+00,5.883845691033370850e-02,7.291574478959538252e-01
8.533333333333333215e+00,1.685055113129005671e+09,1.544757344187999704e-01,5.143981089608388180e-01,0.000000000000000000e+00,1.028796217921677636e+00,0.000000000000000000e+00,7.096141837488049997e-02,7.256077882474210039e-01
8.550000000000000711e+00,1.685055113149008274e+09,1.455245598356554315e-01,5.143981089608388180e-01,0.000000000000000000e+00,1.028796217921677636e+00,0.000000000000000000e+00,8.302570912604691211e-02,7.221167993122685758e-01
8.566666666666666430e+00,1.685055113164983511e+09,1.359880501288094345e-01,5.143981089608388180e-01,0.000000000000000000e+00,1.028796217921677636e+00,0.000000000000000000e+00,9.503229890542773395e-02,7.186835113489017379e-01
8.583333333333333925e+00,1.685055113181983709e+09,1.258823109653495753e-01,4.983732457533351368e-01,0.000000000000000000e+00,9.967464915066702735e-01,0.000000000000000000e+00,1.069799280640968964e-01,7.150421029527881389e-01
8.599999999999999645e+00,1.685055113198006630e+09,1.152242049007223823e-01,4.983732457533351368e-01,0.000000000000000000e+00,9.967464915066702735e-01,0.000000000000000000e+00,1.188673700359754587e-01,7.114608817434651122e-01
8.616666666666667140e+00,1.685055113215984344e+09,1.040313252091004115e-01,5.143981089608388180e-01,0.000000000000000000e+00,1.028796217921677636e+00,0.000000000000000000e+00,1.306978329898611513e-01,7.082037206055934453e-01
8.633333333333332860e+00,1.685055113231983662e+09,9.232197972233582850e-02,4.983732457533351368e-01,0.000000000000000000e+00,9.967464915066702735e-01,0.000000000000000000e+00,1.424722464434017566e-01,7.047355279146084728e-01
8.650000000000000355e+00,1.685055113249976397e+09,8.011518440338141755e-02,4.983732457533351368e-01,0.000000000000000000e+00,9.967464915066702735e-01,0.000000000000000000e+00,1.541893357139309528e-01,7.013246594066349093e-01
8.666666666666666075e+00,1.685055113265990496e+09,6.743066619625542879e-02,5.143981089608388180e-01,0.000000000000000000e+00,1.028796217921677636e+00,0.000000000000000000e+00,1.658522616489563339e-01,6.982350352876235400e-01
8.683333333333333570e+00,1.685055113283982277e+09,5.428887451717259727e-02,5.143981089608388180e-01,0.000000000000000000e+00,1.028796217921677636e+00,0.000000000000000000e+00,1.774641205890898077e-01,6.951964781635040502e-01
8.699999999999999289e+00,1.685055113300957203e+09,4.071100058301406477e-02,4.983732457533351368e-01,0.000000000000000000e+00,9.967464915066702735e-01,0.000000000000000000e+00,1.890235432354119283e-01,6.919432762797375069e-01
8.716666666666666785e+00,1.685055113316986322e+09,2.671900361558376957e-02,4.983732457533351368e-01,0.000000000000000000e+00,9.967464915066702735e-01,0.000000000000000000e+00,2.005291951842053666e-01,6.887438450934996181e-01
8.733333333333332504e+00,1.685055113333993196e+09,1.233564281570213861e-02,8.102732446487411755e-01,6.237999977908121885e-01,9.967464915066702735e-01,0.000000000000000000e+00,2.120250449704032536e-01,6.907525493847807008e-01
8.750000000000000000e+00,1.685055113352993011e+09,-2.415486128485258566e-03,8.274918211534673107e-01,6.582371508002644589e-01,9.967464915066702735e-01,0.000000000000000000e+00,2.235564739565952530e-01,6.930126507511464862e-01
