2022-01-28-09:41:49.291788,8.0,2.0,364.0
2022-01-28-09:41:49.292744,3.0,20.0,364.0
2022-01-28-09:41:49.293741,1.0,7.0,364.0
2022-01-28-09:41:49.293741,7.0,5.0,364.0
2022-01-28-09:41:49.295751,7.0,9.0,364.0
2022-01-28-09:41:49.295751,11.0,8.0,364.0
2022-01-28-09:41:49.296736,13.0,3.0,364.0
2022-01-28-09:41:49.297757,13.0,9.0,364.0
2022-01-28-09:41:49.298727,2.0,23.0,365.0
2022-01-28-09:41:49.299780,3.0,10.0,364.0
2022-01-28-09:41:49.300723,3.0,6.0,364.0
2022-01-28-09:41:49.301755,4.0,4.0,364.0
2022-01-28-09:41:49.303750,3.0,1.0,364.0
2022-01-28-09:41:49.304712,8.0,13.0,364.0
2022-01-28-09:41:49.305709,10.0,6.0,364.0
2022-01-28-09:41:49.306740,2.0,19.0,364.0
2022-01-28-09:41:49.307737,3.0,11.0,364.0
2022-01-28-09:41:49.308734,3.0,5.0,364.0
2022-01-28-09:41:49.309698,4.0,8.0,364.0
2022-01-28-09:41:49.310702,6.0,14.0,364.0
2022-01-28-09:41:49.311692,7.0,6.0,364.0
2022-01-28-09:41:49.312717,12.0,20.0,364.0
2022-01-28-09:41:49.313714,9.0,11.0,364.0
2022-01-28-09:41:49.314720,6.0,1.0,364.0
2022-01-28-09:41:49.315717,4.0,4.0,364.0
2022-01-28-09:41:49.316716,2.0,21.0,365.0
2022-01-28-09:41:49.317712,1.0,23.0,365.0
2022-01-28-09:41:49.319686,6.0,23.0,364.0
2022-01-28-09:41:49.319686,4.0,3.0,364.0
2022-01-28-09:41:49.320669,10.0,9.0,364.0
2022-01-28-09:41:49.321701,7.0,11.0,364.0
2022-01-28-09:41:49.322664,6.0,1.0,364.0
2022-01-28-09:41:49.323696,4.0,5.0,364.0
2022-01-28-09:41:49.324696,4.0,7.0,364.0
2022-01-28-09:41:49.325692,5.0,20.0,364.0
2022-01-28-09:41:49.326688,7.0,12.0,364.0
2022-01-28-09:41:49.327685,3.0,10.0,364.0
2022-01-28-09:41:49.328684,7.0,14.0,364.0
2022-01-28-09:41:49.329672,5.0,7.0,364.0
2022-01-28-09:41:49.330668,10.0,6.0,364.0
2022-01-28-09:41:49.331663,9.0,6.0,364.0
2022-01-28-09:41:49.332659,7.0,21.0,364.0
2022-01-28-09:41:49.333634,0.0,20.0,364.0
2022-01-28-09:41:49.334659,2.0,9.0,365.0
2022-01-28-09:41:49.335655,2.0,9.0,365.0
2022-01-28-09:41:49.337649,1.0,8.0,364.0
2022-01-28-09:41:49.337649,2.0,7.0,364.0
2022-01-28-09:41:49.338648,13.0,5.0,364.0
2022-01-28-09:41:49.339618,7.0,20.0,364.0
2022-01-28-09:41:49.340615,2.0,33.0,364.0
2022-01-28-09:41:49.341641,1.0,27.0,364.0
2022-01-28-09:41:49.342637,0.0,16.0,364.0
2022-01-28-09:41:49.343634,3.0,7.0,364.0
2022-01-28-09:41:49.344631,1.0,19.0,364.0
2022-01-28-09:41:49.345628,0.0,11.0,364.0
2022-01-28-09:41:49.346626,4.0,11.0,364.0
2022-01-28-09:41:49.347623,8.0,29.0,364.0
2022-01-28-09:41:49.348623,10.0,27.0,364.0
2022-01-28-09:41:49.349620,14.0,24.0,364.0
2022-01-28-09:41:49.350622,16.0,4.0,364.0
2022-01-28-09:41:49.351612,11.0,22.0,364.0
2022-01-28-09:41:49.352609,5.0,24.0,364.0
2022-01-28-09:41:49.353617,2.0,20.0,364.0
2022-01-28-09:41:49.354604,0.0,16.0,364.0
2022-01-28-09:41:49.355592,4.0,8.0,364.0
2022-01-28-09:41:49.356572,4.0,4.0,364.0
2022-01-28-09:41:49.357598,3.0,29.0,365.0
2022-01-28-09:41:49.358567,15.0,6.0,364.0
2022-01-28-09:41:49.359593,7.0,7.0,364.0
2022-01-28-09:41:49.360586,3.0,22.0,364.0
2022-01-28-09:41:49.361590,1.0,24.0,364.0
2022-01-28-09:41:49.362583,2.0,10.0,364.0
2022-01-28-09:41:49.363579,1.0,8.0,364.0
2022-01-28-09:41:49.364576,5.0,6.0,364.0
2022-01-28-09:41:49.365566,6.0,21.0,364.0
2022-01-28-09:41:49.366571,9.0,12.0,364.0
2022-01-28-09:41:49.367569,12.0,5.0,364.0
2022-01-28-09:41:49.368567,3.0,25.0,364.0
2022-01-28-09:41:49.369573,4.0,20.0,365.0
2022-01-28-09:41:49.371578,2.0,11.0,364.0
2022-01-28-09:41:49.371578,5.0,6.0,364.0
2022-01-28-09:41:49.372555,11.0,14.0,365.0
2022-01-28-09:41:49.373575,10.0,5.0,365.0
2022-01-28-09:41:49.374571,9.0,9.0,364.0
2022-01-28-09:41:49.375548,1.0,8.0,364.0
2022-01-28-09:41:49.376565,1.0,9.0,365.0
2022-01-28-09:41:49.377795,4.0,4.0,364.0
2022-01-28-09:41:49.377795,5.0,2.0,364.0
2022-01-28-09:41:49.378827,13.0,10.0,364.0
2022-01-28-09:41:49.379827,7.0,8.0,364.0
2022-01-28-09:41:49.380822,2.0,16.0,364.0
2022-01-28-09:41:49.381819,1.0,6.0,364.0
2022-01-28-09:41:49.382819,2.0,4.0,364.0
2022-01-28-09:41:49.383813,5.0,3.0,364.0
2022-01-28-09:41:49.384814,10.0,8.0,364.0
2022-01-28-09:41:49.385808,3.0,23.0,365.0
2022-01-28-09:41:49.386798,2.0,10.0,364.0
2022-01-28-09:41:49.387798,2.0,4.0,364.0
2022-01-28-09:41:49.388784,4.0,7.0,364.0
2022-01-28-09:41:49.389766,8.0,10.0,364.0
2022-01-28-09:41:49.390792,8.0,3.0,364.0
2022-01-28-09:41:49.391786,12.0,4.0,364.0
2022-01-28-09:41:49.392784,2.0,5.0,364.0
2022-01-28-09:41:49.393782,3.0,6.0,364.0
2022-01-28-09:41:49.394778,1.0,16.0,364.0
2022-01-28-09:41:49.395777,4.0,7.0,364.0
2022-01-28-09:41:49.396772,4.0,18.0,364.0
2022-01-28-09:41:49.397769,12.0,8.0,364.0
2022-01-28-09:41:49.398769,11.0,21.0,364.0
2022-01-28-09:41:49.399763,12.0,33.0,364.0
2022-01-28-09:41:49.400805,3.0,7.0,364.0
2022-01-28-09:41:49.400805,3.0,9.0,364.0
2022-01-28-09:41:49.401832,3.0,11.0,364.0
2022-01-28-09:41:49.403176,2.0,11.0,364.0
2022-01-28-09:41:49.403176,4.0,8.0,364.0
2022-01-28-09:41:49.405172,4.0,3.0,365.0
2022-01-28-09:41:49.405172,10.0,5.0,364.0
2022-01-28-09:41:49.406170,11.0,3.0,364.0
2022-01-28-09:41:49.407192,2.0,15.0,364.0
2022-01-28-09:41:49.408192,0.0,8.0,364.0
2022-01-28-09:41:49.409240,0.0,0.0,364.0
2022-01-28-09:41:49.409240,2.0,5.0,364.0
2022-01-28-09:41:49.410439,2.0,5.0,364.0
2022-01-28-09:41:49.410439,1.0,3.0,364.0
2022-01-28-09:41:49.411463,8.0,10.0,364.0
2022-01-28-09:41:49.412460,11.0,3.0,364.0
2022-01-28-09:41:49.413457,9.0,7.0,364.0
2022-01-28-09:41:49.414455,2.0,20.0,364.0
2022-01-28-09:41:49.415451,0.0,10.0,364.0
2022-01-28-09:41:49.416449,1.0,6.0,365.0
2022-01-28-09:41:49.417448,2.0,6.0,364.0
2022-01-28-09:41:49.418443,3.0,4.0,363.0
2022-01-28-09:41:49.419445,8.0,8.0,364.0
2022-01-28-09:41:49.420414,15.0,1.0,364.0
2022-01-28-09:41:49.421436,4.0,8.0,365.0
2022-01-28-09:41:49.422426,1.0,18.0,364.0
2022-01-28-09:41:49.423433,4.0,12.0,365.0
2022-01-28-09:41:49.424428,2.0,8.0,364.0
2022-01-28-09:41:49.425431,2.0,6.0,364.0
2022-01-28-09:41:49.426423,8.0,7.0,364.0
2022-01-28-09:41:49.427420,10.0,5.0,364.0
2022-01-28-09:41:49.428418,13.0,28.0,364.0
2022-01-28-09:41:49.429416,10.0,24.0,364.0
2022-01-28-09:41:49.430415,1.0,18.0,365.0
2022-01-28-09:41:49.431412,1.0,14.0,364.0
2022-01-28-09:41:49.432407,1.0,24.0,364.0
2022-01-28-09:41:49.433406,7.0,12.0,364.0
2022-01-28-09:41:49.434402,6.0,1.0,364.0
2022-01-28-09:41:49.435399,9.0,3.0,364.0
2022-01-28-09:41:49.436418,7.0,8.0,364.0
2022-01-28-09:41:49.438413,3.0,9.0,364.0
2022-01-28-09:41:49.438413,1.0,5.0,364.0
2022-01-28-09:41:49.439388,1.0,5.0,364.0
2022-01-28-09:41:49.440408,2.0,1.0,364.0
2022-01-28-09:41:49.441404,5.0,3.0,364.0
2022-01-28-09:41:49.442404,8.0,11.0,364.0
2022-01-28-09:41:49.443389,11.0,5.0,364.0
2022-01-28-09:41:49.444397,8.0,16.0,364.0
2022-01-28-09:41:49.445396,3.0,17.0,364.0
2022-01-28-09:41:49.446398,2.0,12.0,364.0
2022-01-28-09:41:49.447389,1.0,7.0,364.0
2022-01-28-09:41:49.448423,1.0,2.0,364.0
2022-01-28-09:41:49.448423,4.0,8.0,364.0
2022-01-28-09:41:49.449470,7.0,11.0,364.0
2022-01-28-09:41:49.450528,10.0,3.0,364.0
2022-01-28-09:41:49.450528,7.0,9.0,364.0
2022-01-28-09:41:49.451527,2.0,23.0,364.0
2022-01-28-09:41:49.452583,1.0,12.0,364.0
2022-01-28-09:41:49.453558,4.0,8.0,364.0
2022-01-28-09:41:49.454520,3.0,7.0,364.0
2022-01-28-09:41:49.455517,4.0,7.0,364.0
2022-01-28-09:41:49.456515,5.0,11.0,364.0
2022-01-28-09:41:49.457558,0.0,11.0,364.0
2022-01-28-09:41:49.458555,5.0,7.0,364.0
2022-01-28-09:41:49.459553,2.0,5.0,364.0
2022-01-28-09:41:49.460550,6.0,7.0,364.0
2022-01-28-09:41:49.461548,13.0,7.0,364.0
2022-01-28-09:41:49.462551,15.0,6.0,364.0
2022-01-28-09:41:49.463542,9.0,8.0,364.0
2022-01-28-09:41:49.464540,4.0,18.0,364.0
2022-01-28-09:41:49.465536,2.0,16.0,364.0
2022-01-28-09:41:49.466534,1.0,8.0,364.0
2022-01-28-09:41:49.467531,2.0,7.0,364.0
2022-01-28-09:41:49.468529,4.0,9.0,364.0
2022-01-28-09:41:49.469527,1.0,1.0,364.0
2022-01-28-09:41:49.471502,1.0,1.0,364.0
2022-01-28-09:41:49.471502,5.0,11.0,364.0
2022-01-28-09:41:49.472498,1.0,14.0,364.0
2022-01-28-09:41:49.473517,2.0,15.0,364.0
2022-01-28-09:41:49.474513,0.0,15.0,364.0
2022-01-28-09:41:49.475510,1.0,16.0,364.0
2022-01-28-09:41:49.476507,4.0,5.0,364.0
2022-01-28-09:41:49.477506,10.0,27.0,364.0
2022-01-28-09:41:49.478505,12.0,19.0,364.0
2022-01-28-09:41:49.479499,13.0,15.0,364.0
2022-01-28-09:41:49.480498,7.0,19.0,364.0
2022-01-28-09:41:49.481495,3.0,11.0,364.0
2022-01-28-09:41:49.482491,0.0,12.0,364.0
2022-01-28-09:41:49.483492,2.0,10.0,364.0
2022-01-28-09:41:49.484440,3.0,4.0,364.0
2022-01-28-09:41:49.485485,7.0,9.0,364.0
2022-01-28-09:41:49.486484,11.0,8.0,365.0
2022-01-28-09:41:49.487460,11.0,8.0,365.0
2022-01-28-09:41:49.488429,10.0,0.0,364.0
2022-01-28-09:41:49.489473,4.0,23.0,364.0
2022-01-28-09:41:49.490470,1.0,11.0,364.0
2022-01-28-09:41:49.491467,3.0,6.0,364.0
2022-01-28-09:41:49.492452,2.0,5.0,364.0
2022-01-28-09:41:49.493463,1.0,1.0,364.0
2022-01-28-09:41:49.494462,7.0,6.0,364.0
2022-01-28-09:41:49.495456,11.0,9.0,364.0
2022-01-28-09:41:49.496455,11.0,7.0,364.0
2022-01-28-09:41:49.497451,8.0,17.0,365.0
2022-01-28-09:41:49.498449,1.0,11.0,364.0
2022-01-28-09:41:49.499449,2.0,5.0,364.0
2022-01-28-09:41:49.500445,1.0,8.0,364.0
2022-01-28-09:41:49.501442,3.0,14.0,364.0
2022-01-28-09:41:49.502441,6.0,7.0,364.0
2022-01-28-09:41:49.503442,10.0,3.0,364.0
2022-01-28-09:41:49.504433,10.0,3.0,364.0
2022-01-28-09:41:49.505408,12.0,3.0,364.0
2022-01-28-09:41:49.507433,0.0,20.0,364.0
2022-01-28-09:41:49.507433,1.0,4.0,364.0
2022-01-28-09:41:49.508426,0.0,4.0,364.0
2022-01-28-09:41:49.509421,3.0,7.0,364.0
2022-01-28-09:41:49.510420,6.0,3.0,364.0
2022-01-28-09:41:49.511414,7.0,0.0,364.0
2022-01-28-09:41:49.512412,11.0,1.0,364.0
2022-01-28-09:41:49.513409,3.0,13.0,364.0
2022-01-28-09:41:49.514406,0.0,19.0,365.0
2022-01-28-09:41:49.515403,0.0,13.0,364.0
2022-01-28-09:41:49.516400,2.0,7.0,364.0
2022-01-28-09:41:49.517399,6.0,9.0,364.0
2022-01-28-09:41:49.518398,5.0,13.0,365.0
2022-01-28-09:41:49.519393,12.0,18.0,365.0
2022-01-28-09:41:49.520344,10.0,15.0,364.0
2022-01-28-09:41:49.521341,2.0,19.0,364.0
2022-01-28-09:41:49.522338,2.0,19.0,364.0
2022-01-28-09:41:49.523390,1.0,3.0,364.0
2022-01-28-09:41:49.524380,5.0,2.0,364.0
2022-01-28-09:41:49.525331,5.0,2.0,364.0
2022-01-28-09:41:49.526377,8.0,4.0,364.0
2022-01-28-09:41:49.527372,6.0,2.0,365.0
2022-01-28-09:41:49.528369,7.0,5.0,364.0
2022-01-28-09:41:49.529325,7.0,5.0,364.0
2022-01-28-09:41:49.530363,9.0,6.0,364.0
2022-01-28-09:41:49.531360,11.0,4.0,364.0
2022-01-28-09:41:49.532358,12.0,0.0,364.0
2022-01-28-09:41:49.533356,12.0,0.0,364.0
2022-01-28-09:41:49.534357,12.0,0.0,364.0
2022-01-28-09:41:49.535350,6.0,17.0,364.0
2022-01-28-09:41:49.536348,1.0,15.0,364.0
2022-01-28-09:41:49.537344,1.0,15.0,364.0
2022-01-28-09:41:49.538342,1.0,15.0,364.0
2022-01-28-09:41:49.539322,3.0,11.0,365.0
2022-01-28-09:41:49.541321,4.0,5.0,364.0
2022-01-28-09:41:49.541321,4.0,5.0,364.0
2022-01-28-09:41:49.542309,5.0,3.0,364.0
2022-01-28-09:41:49.543332,3.0,1.0,364.0
2022-01-28-09:41:49.544327,3.0,1.0,364.0
2022-01-28-09:41:49.545323,3.0,1.0,364.0
2022-01-28-09:41:49.546275,3.0,1.0,364.0
2022-01-28-09:41:49.547327,7.0,9.0,364.0
2022-01-28-09:41:49.548315,11.0,8.0,364.0
2022-01-28-09:41:49.549314,12.0,5.0,364.0
2022-01-28-09:41:49.550313,12.0,5.0,364.0
2022-01-28-09:41:49.551307,9.0,0.0,364.0
2022-01-28-09:41:49.552305,8.0,17.0,364.0
2022-01-28-09:41:49.553301,2.0,21.0,364.0
2022-01-28-09:41:49.554300,2.0,21.0,364.0
2022-01-28-09:41:49.555414,1.0,9.0,364.0
2022-01-28-09:41:49.555414,1.0,9.0,364.0
2022-01-28-09:41:49.556451,1.0,9.0,364.0
2022-01-28-09:41:49.557437,1.0,9.0,364.0
2022-01-28-09:41:49.558613,1.0,9.0,364.0
2022-01-28-09:41:49.558613,0.0,7.0,364.0
2022-01-28-09:41:49.559646,2.0,7.0,364.0
2022-01-28-09:41:49.560644,0.0,1.0,364.0
2022-01-28-09:41:49.561677,0.0,1.0,364.0
2022-01-28-09:41:49.561677,0.0,1.0,364.0
2022-01-28-09:41:49.562865,0.0,1.0,364.0
2022-01-28-09:41:49.562865,6.0,7.0,364.0
2022-01-28-09:41:49.563898,9.0,16.0,364.0
2022-01-28-09:41:49.564896,11.0,15.0,364.0
2022-01-28-09:41:49.565939,11.0,15.0,364.0
2022-01-28-09:41:49.565939,11.0,15.0,364.0
2022-01-28-09:41:49.566964,11.0,15.0,364.0
2022-01-28-09:41:49.568180,10.0,8.0,364.0
2022-01-28-09:41:49.568180,6.0,0.0,364.0
2022-01-28-09:41:49.569214,5.0,19.0,364.0
2022-01-28-09:41:49.570212,5.0,19.0,364.0
2022-01-28-09:41:49.571207,5.0,19.0,364.0
2022-01-28-09:41:49.573202,2.0,16.0,364.0
2022-01-28-09:41:49.573202,3.0,13.0,364.0
2022-01-28-09:41:49.574198,3.0,13.0,364.0
2022-01-28-09:41:49.575198,3.0,13.0,364.0
2022-01-28-09:41:49.576199,0.0,17.0,364.0
2022-01-28-09:41:49.577158,7.0,5.0,364.0
2022-01-28-09:41:49.578155,7.0,5.0,364.0
2022-01-28-09:41:49.579186,7.0,5.0,364.0
2022-01-28-09:41:49.580221,5.0,1.0,364.0
2022-01-28-09:41:49.580667,7.0,15.0,364.0
2022-01-28-09:41:49.580795,7.0,5.0,364.0
2022-01-28-09:41:49.580795,7.0,5.0,364.0
2022-01-28-09:41:49.581821,7.0,5.0,364.0
2022-01-28-09:41:49.582977,7.0,5.0,364.0
2022-01-28-09:41:49.582977,5.0,12.0,364.0
2022-01-28-09:41:49.584003,6.0,33.0,364.0
2022-01-28-09:41:49.585000,0.0,30.0,364.0
2022-01-28-09:41:49.585999,0.0,30.0,364.0
2022-01-28-09:41:49.586970,0.0,30.0,364.0
2022-01-28-09:41:49.587992,3.0,26.0,364.0
2022-01-28-09:41:49.588964,4.0,4.0,364.0
2022-01-28-09:41:49.590037,4.0,4.0,364.0
2022-01-28-09:41:49.590037,4.0,4.0,364.0
2022-01-28-09:41:49.591065,4.0,4.0,364.0
2022-01-28-09:41:49.592060,2.0,10.0,364.0
2022-01-28-09:41:49.593064,6.0,18.0,365.0
2022-01-28-09:41:49.594157,9.0,15.0,364.0
2022-01-28-09:41:49.594157,9.0,15.0,364.0
2022-01-28-09:41:49.595191,9.0,15.0,364.0
2022-01-28-09:41:49.596188,18.0,21.0,364.0
2022-01-28-09:41:49.597185,10.0,28.0,364.0
2022-01-28-09:41:49.598218,8.0,27.0,364.0
2022-01-28-09:41:49.598218,8.0,27.0,364.0
2022-01-28-09:41:49.599258,8.0,27.0,364.0
2022-01-28-09:41:49.600250,9.0,2.0,365.0
2022-01-28-09:41:49.601246,2.0,26.0,364.0
2022-01-28-09:41:49.602244,0.0,25.0,365.0
2022-01-28-09:41:49.603207,0.0,25.0,365.0
2022-01-28-09:41:49.604237,2.0,25.0,365.0
2022-01-28-09:41:49.605228,1.0,19.0,364.0
2022-01-28-09:41:49.607197,0.0,13.0,364.0
2022-01-28-09:41:49.607197,4.0,6.0,364.0
2022-01-28-09:41:49.608339,1.0,1.0,364.0
2022-01-28-09:41:49.608339,1.0,1.0,364.0
2022-01-28-09:41:49.609385,1.0,1.0,364.0
2022-01-28-09:41:49.610388,1.0,1.0,364.0
2022-01-28-09:41:49.611530,1.0,1.0,364.0
2022-01-28-09:41:49.611530,3.0,11.0,364.0
2022-01-28-09:41:49.612563,3.0,11.0,364.0
2022-01-28-09:41:49.613664,13.0,2.0,364.0
2022-01-28-09:41:49.613664,13.0,2.0,364.0
2022-01-28-09:41:49.614709,13.0,2.0,364.0
2022-01-28-09:41:49.615880,13.0,2.0,364.0
2022-01-28-09:41:49.615880,8.0,5.0,365.0
2022-01-28-09:41:49.616911,8.0,5.0,365.0
2022-01-28-09:41:49.618050,3.0,18.0,364.0
2022-01-28-09:41:49.618050,3.0,18.0,364.0
2022-01-28-09:41:49.619096,3.0,18.0,364.0
2022-01-28-09:41:49.620093,3.0,18.0,364.0
2022-01-28-09:41:49.621044,3.0,14.0,364.0
2022-01-28-09:41:49.622092,2.0,8.0,364.0
2022-01-28-09:41:49.623039,2.0,8.0,364.0
2022-01-28-09:41:49.624063,2.0,8.0,364.0
2022-01-28-09:41:49.625060,5.0,4.0,364.0
2022-01-28-09:41:49.626056,5.0,4.0,364.0
2022-01-28-09:41:49.627054,2.0,4.0,364.0
2022-01-28-09:41:49.628053,1.0,3.0,365.0
2022-01-28-09:41:49.629048,12.0,13.0,364.0
2022-01-28-09:41:49.630045,12.0,6.0,364.0
2022-01-28-09:41:49.631043,12.0,6.0,364.0
2022-01-28-09:41:49.632197,12.0,6.0,364.0
2022-01-28-09:41:49.632197,14.0,1.0,364.0
2022-01-28-09:41:49.633230,9.0,13.0,364.0
2022-01-28-09:41:49.634265,5.0,17.0,364.0
2022-01-28-09:41:49.634265,5.0,17.0,364.0
2022-01-28-09:41:49.635292,5.0,17.0,364.0
2022-01-28-09:41:49.636289,5.0,17.0,364.0
2022-01-28-09:41:49.637285,1.0,13.0,364.0
2022-01-28-09:41:49.638282,4.0,9.0,364.0
2022-01-28-09:41:49.639309,3.0,9.0,364.0
2022-01-28-09:41:49.640308,3.0,9.0,364.0
2022-01-28-09:41:49.640308,3.0,9.0,364.0
2022-01-28-09:41:49.641337,3.0,9.0,364.0
2022-01-28-09:41:49.642405,1.0,1.0,365.0
2022-01-28-09:41:49.642405,4.0,5.0,364.0
2022-01-28-09:41:49.643455,4.0,5.0,364.0
2022-01-28-09:41:49.644621,4.0,5.0,364.0
2022-01-28-09:41:49.644621,4.0,1.0,364.0
2022-01-28-09:41:49.645652,4.0,1.0,364.0
2022-01-28-09:41:49.646650,8.0,7.0,364.0
2022-01-28-09:41:49.647651,8.0,7.0,364.0
2022-01-28-09:41:49.648648,8.0,7.0,364.0
2022-01-28-09:41:49.649645,10.0,5.0,364.0
2022-01-28-09:41:49.650639,6.0,13.0,364.0
2022-01-28-09:41:49.651637,6.0,13.0,364.0
2022-01-28-09:41:49.652698,6.0,13.0,364.0
2022-01-28-09:41:49.652698,3.0,16.0,364.0
2022-01-28-09:41:49.653729,1.0,9.0,364.0
2022-01-28-09:41:49.654749,1.0,9.0,364.0
2022-01-28-09:41:49.655750,1.0,9.0,364.0
2022-01-28-09:41:49.656729,1.0,9.0,364.0
2022-01-28-09:41:49.657745,7.0,4.0,364.0
2022-01-28-09:41:49.658738,7.0,4.0,364.0
2022-01-28-09:41:49.659736,7.0,4.0,364.0
2022-01-28-09:41:49.660733,7.0,4.0,364.0
2022-01-28-09:41:49.661730,2.0,1.0,364.0
2022-01-28-09:41:49.662728,7.0,11.0,364.0
2022-01-28-09:41:49.663729,9.0,11.0,364.0
2022-01-28-09:41:49.664723,9.0,11.0,364.0
2022-01-28-09:41:49.665923,11.0,4.0,365.0
2022-01-28-09:41:49.665923,13.0,1.0,364.0
2022-01-28-09:41:49.666979,7.0,15.0,364.0
2022-01-28-09:41:49.667975,7.0,15.0,364.0
2022-01-28-09:41:49.668972,7.0,15.0,364.0
2022-01-28-09:41:49.670022,1.0,17.0,364.0
2022-01-28-09:41:49.670022,1.0,11.0,364.0
2022-01-28-09:41:49.671068,1.0,5.0,364.0
2022-01-28-09:41:49.672066,1.0,5.0,364.0
2022-01-28-09:41:49.673065,1.0,5.0,364.0
2022-01-28-09:41:49.675058,2.0,10.0,364.0
2022-01-28-09:41:49.675593,5.0,3.0,364.0
2022-01-28-09:41:49.675593,2.0,3.0,364.0
2022-01-28-09:41:49.676646,2.0,3.0,364.0
2022-01-28-09:41:49.677643,2.0,3.0,364.0
2022-01-28-09:41:49.678641,6.0,11.0,364.0
2022-01-28-09:41:49.679644,11.0,11.0,365.0
2022-01-28-09:41:49.680637,11.0,11.0,365.0
2022-01-28-09:41:49.681637,11.0,11.0,365.0
2022-01-28-09:41:49.682632,10.0,3.0,364.0
2022-01-28-09:41:49.683630,9.0,15.0,364.0
2022-01-28-09:41:49.684626,7.0,21.0,364.0
2022-01-28-09:41:49.685624,7.0,21.0,364.0
2022-01-28-09:41:49.686621,5.0,32.0,365.0
2022-01-28-09:41:49.687622,1.0,21.0,364.0
2022-01-28-09:41:49.688647,3.0,25.0,364.0
2022-01-28-09:41:49.688647,3.0,25.0,364.0
2022-01-28-09:41:49.689691,2.0,2.0,364.0
2022-01-28-09:41:49.689691,3.0,13.0,364.0
2022-01-28-09:41:49.690716,3.0,13.0,364.0
2022-01-28-09:41:49.691714,3.0,13.0,364.0
2022-01-28-09:41:49.692717,3.0,13.0,364.0
2022-01-28-09:41:49.693710,3.0,13.0,364.0
2022-01-28-09:41:49.694706,5.0,8.0,364.0
2022-01-28-09:41:49.695703,5.0,11.0,364.0
2022-01-28-09:41:49.696701,8.0,14.0,364.0
2022-01-28-09:41:49.697734,8.0,14.0,364.0
2022-01-28-09:41:49.697734,11.0,7.0,365.0
2022-01-28-09:41:49.698768,10.0,2.0,364.0
2022-01-28-09:41:49.699769,5.0,16.0,364.0
2022-01-28-09:41:49.700783,5.0,16.0,364.0
2022-01-28-09:41:49.701783,5.0,16.0,364.0
2022-01-28-09:41:49.702778,4.0,15.0,364.0
2022-01-28-09:41:49.703781,1.0,9.0,365.0
2022-01-28-09:41:49.704774,1.0,4.0,364.0
2022-01-28-09:41:49.705751,1.0,4.0,364.0
2022-01-28-09:41:49.706768,0.0,5.0,364.0
2022-01-28-09:41:49.708762,0.0,5.0,364.0
2022-01-28-09:41:49.708762,9.0,6.0,364.0
2022-01-28-09:41:49.709761,9.0,6.0,364.0
2022-01-28-09:41:49.710757,6.0,11.0,364.0
2022-01-28-09:41:49.711959,8.0,4.0,364.0
2022-01-28-09:41:49.712107,8.0,24.0,364.0
2022-01-28-09:41:49.712107,8.0,24.0,364.0
2022-01-28-09:41:49.713154,8.0,24.0,364.0
2022-01-28-09:41:49.714153,8.0,24.0,364.0
2022-01-28-09:41:49.715148,8.0,24.0,364.0
2022-01-28-09:41:49.716145,10.0,7.0,364.0
2022-01-28-09:41:49.717142,7.0,10.0,364.0
2022-01-28-09:41:49.718146,7.0,10.0,364.0
2022-01-28-09:41:49.719140,3.0,17.0,364.0
2022-01-28-09:41:49.720135,3.0,14.0,365.0
2022-01-28-09:41:49.721096,2.0,12.0,364.0
2022-01-28-09:41:49.722132,2.0,12.0,364.0
2022-01-28-09:41:49.723405,3.0,6.0,365.0
2022-01-28-09:41:49.723730,6.0,0.0,364.0
2022-01-28-09:41:49.723989,6.0,0.0,364.0
2022-01-28-09:41:49.723989,6.0,0.0,364.0
2022-01-28-09:41:49.725035,6.0,0.0,364.0
2022-01-28-09:41:49.726172,6.0,0.0,364.0
2022-01-28-09:41:49.726172,5.0,4.0,364.0
2022-01-28-09:41:49.727226,7.0,4.0,364.0
2022-01-28-09:41:49.728223,9.0,7.0,365.0
2022-01-28-09:41:49.729222,9.0,7.0,365.0
2022-01-28-09:41:49.730164,9.0,7.0,365.0
2022-01-28-09:41:49.731194,13.0,7.0,364.0
2022-01-28-09:41:49.732192,12.0,7.0,364.0
2022-01-28-09:41:49.733190,12.0,7.0,364.0
2022-01-28-09:41:49.734155,12.0,7.0,364.0
2022-01-28-09:41:49.735187,3.0,18.0,364.0
2022-01-28-09:41:49.736147,2.0,15.0,364.0
2022-01-28-09:41:49.737145,2.0,15.0,364.0
2022-01-28-09:41:49.738143,2.0,15.0,364.0
2022-01-28-09:41:49.739141,2.0,15.0,364.0
2022-01-28-09:41:49.740137,2.0,9.0,364.0
2022-01-28-09:41:49.741169,3.0,5.0,364.0
2022-01-28-09:41:49.743129,3.0,5.0,364.0
2022-01-28-09:41:49.743129,2.0,6.0,364.0
2022-01-28-09:41:49.744153,6.0,5.0,364.0
2022-01-28-09:41:49.745123,7.0,7.0,364.0
2022-01-28-09:41:49.746121,7.0,7.0,364.0
2022-01-28-09:41:49.747119,7.0,7.0,364.0
2022-01-28-09:41:49.748142,8.0,3.0,364.0
2022-01-28-09:41:49.749141,11.0,3.0,364.0
2022-01-28-09:41:49.750137,11.0,3.0,364.0
2022-01-28-09:41:49.751133,11.0,3.0,364.0
2022-01-28-09:41:49.752130,9.0,9.0,364.0
2022-01-28-09:41:49.753128,2.0,20.0,365.0
2022-01-28-09:41:49.754127,0.0,23.0,364.0
2022-01-28-09:41:49.755123,0.0,23.0,364.0
2022-01-28-09:41:49.756101,2.0,0.0,364.0
2022-01-28-09:41:49.757119,2.0,0.0,364.0
2022-01-28-09:41:49.758114,2.0,0.0,364.0
2022-01-28-09:41:49.759087,2.0,0.0,364.0
2022-01-28-09:41:49.760135,6.0,4.0,364.0
2022-01-28-09:41:49.761129,4.0,7.0,364.0
2022-01-28-09:41:49.762125,4.0,1.0,364.0
2022-01-28-09:41:49.763272,4.0,1.0,364.0
2022-01-28-09:41:49.763272,8.0,6.0,364.0
2022-01-28-09:41:49.764318,12.0,4.0,364.0
2022-01-28-09:41:49.765315,13.0,1.0,364.0
2022-01-28-09:41:49.766312,13.0,1.0,364.0
2022-01-28-09:41:49.767346,13.0,1.0,364.0
2022-01-28-09:41:49.767346,9.0,11.0,364.0
2022-01-28-09:41:49.768403,3.0,21.0,364.0
2022-01-28-09:41:49.769401,2.0,13.0,364.0
2022-01-28-09:41:49.770396,2.0,13.0,364.0
2022-01-28-09:41:49.771393,2.0,13.0,364.0
2022-01-28-09:41:49.773387,0.0,6.0,364.0
2022-01-28-09:41:49.774065,0.0,4.0,364.0
2022-01-28-09:41:49.774065,0.0,4.0,364.0
2022-01-28-09:41:49.775118,0.0,4.0,364.0
2022-01-28-09:41:49.776110,0.0,6.0,364.0
2022-01-28-09:41:49.777106,3.0,9.0,363.0
2022-01-28-09:41:49.778082,5.0,1.0,364.0
2022-01-28-09:41:49.779100,5.0,1.0,364.0
2022-01-28-09:41:49.780103,5.0,1.0,364.0
2022-01-28-09:41:49.781141,7.0,3.0,364.0
2022-01-28-09:41:49.781141,8.0,14.0,364.0
2022-01-28-09:41:49.782187,8.0,14.0,364.0
2022-01-28-09:41:49.783188,8.0,14.0,364.0
2022-01-28-09:41:49.784181,8.0,14.0,364.0
2022-01-28-09:41:49.785180,9.0,13.0,364.0
2022-01-28-09:41:49.786155,3.0,6.0,364.0
2022-01-28-09:41:49.787127,3.0,6.0,364.0
2022-01-28-09:41:49.788171,3.0,6.0,364.0
2022-01-28-09:41:49.789122,1.0,9.0,364.0
2022-01-28-09:41:49.790121,0.0,7.0,364.0
2022-01-28-09:41:49.791166,0.0,7.0,364.0
2022-01-28-09:41:49.792164,0.0,7.0,364.0
2022-01-28-09:41:49.793159,2.0,3.0,364.0
2022-01-28-09:41:49.794108,5.0,7.0,364.0
2022-01-28-09:41:49.795152,5.0,7.0,364.0
2022-01-28-09:41:49.796311,5.0,7.0,364.0
2022-01-28-09:41:49.796311,4.0,10.0,364.0
2022-01-28-09:41:49.797335,9.0,1.0,364.0
2022-01-28-09:41:49.798381,9.0,1.0,364.0
2022-01-28-09:41:49.799378,9.0,1.0,364.0
2022-01-28-09:41:49.800562,9.0,1.0,364.0
2022-01-28-09:41:49.800562,10.0,1.0,364.0
2022-01-28-09:41:49.801723,0.0,5.0,364.0
2022-01-28-09:41:49.801723,0.0,5.0,364.0
2022-01-28-09:41:49.802772,0.0,5.0,364.0
2022-01-28-09:41:49.803914,0.0,5.0,364.0
2022-01-28-09:41:49.803914,1.0,4.0,364.0
2022-01-28-09:41:49.804967,4.0,0.0,364.0
2022-01-28-09:41:49.805912,1.0,2.0,364.0
2022-01-28-09:41:49.806963,1.0,2.0,364.0
2022-01-28-09:41:49.807929,1.0,2.0,364.0
2022-01-28-09:41:49.808957,2.0,10.0,364.0
2022-01-28-09:41:49.810897,5.0,8.0,364.0
2022-01-28-09:41:49.810897,2.0,10.0,364.0
2022-01-28-09:41:49.811927,2.0,10.0,364.0
2022-01-28-09:41:49.812924,11.0,2.0,364.0
2022-01-28-09:41:49.813923,8.0,7.0,364.0
2022-01-28-09:41:49.814921,8.0,7.0,364.0
2022-01-28-09:41:49.815929,8.0,7.0,364.0
2022-01-28-09:41:49.816913,8.0,7.0,364.0
2022-01-28-09:41:49.817879,7.0,17.0,364.0
2022-01-28-09:41:49.818910,7.0,22.0,364.0
2022-01-28-09:41:49.819874,2.0,25.0,364.0
2022-01-28-09:41:49.820896,1.0,15.0,364.0
2022-01-28-09:41:49.821894,3.0,9.0,364.0
2022-01-28-09:41:49.822865,2.0,3.0,364.0
2022-01-28-09:41:49.823909,2.0,3.0,364.0
2022-01-28-09:41:49.824906,2.0,3.0,364.0
2022-01-28-09:41:49.825903,3.0,3.0,364.0
2022-01-28-09:41:49.826901,4.0,2.0,364.0
2022-01-28-09:41:49.828084,4.0,2.0,364.0
2022-01-28-09:41:49.828084,4.0,2.0,364.0
2022-01-28-09:41:49.829115,4.0,2.0,364.0
2022-01-28-09:41:49.830113,7.0,7.0,364.0
2022-01-28-09:41:49.831112,10.0,2.0,364.0
2022-01-28-09:41:49.832107,10.0,2.0,364.0
2022-01-28-09:41:49.833105,10.0,2.0,364.0
2022-01-28-09:41:49.834104,11.0,1.0,364.0
2022-01-28-09:41:49.835100,5.0,12.0,364.0
2022-01-28-09:41:49.836100,3.0,13.0,364.0
2022-01-28-09:41:49.837094,3.0,13.0,364.0
2022-01-28-09:41:49.838084,0.0,13.0,364.0
2022-01-28-09:41:49.839084,4.0,7.0,364.0
2022-01-28-09:41:49.840137,4.0,7.0,364.0
2022-01-28-09:41:49.840137,4.0,7.0,364.0
2022-01-28-09:41:49.842134,4.0,7.0,364.0
2022-01-28-09:41:49.842134,4.0,2.0,364.0
2022-01-28-09:41:49.843162,4.0,2.0,364.0
2022-01-28-09:41:49.844202,4.0,2.0,364.0
2022-01-28-09:41:49.844202,4.0,2.0,364.0
2022-01-28-09:41:49.845381,4.0,2.0,364.0
2022-01-28-09:41:49.845381,7.0,8.0,364.0
2022-01-28-09:41:49.846412,10.0,14.0,364.0
2022-01-28-09:41:49.847411,9.0,11.0,364.0
2022-01-28-09:41:49.848406,9.0,11.0,364.0
2022-01-28-09:41:49.849404,9.0,11.0,364.0
2022-01-28-09:41:49.850403,12.0,13.0,364.0
2022-01-28-09:41:49.851399,1.0,3.0,364.0
2022-01-28-09:41:49.852398,0.0,9.0,365.0
2022-01-28-09:41:49.853393,0.0,9.0,365.0
2022-01-28-09:41:49.854391,3.0,10.0,364.0
2022-01-28-09:41:49.855390,3.0,19.0,364.0
2022-01-28-09:41:49.856411,3.0,19.0,364.0
2022-01-28-09:41:49.857452,3.0,19.0,364.0
2022-01-28-09:41:49.857452,6.0,15.0,364.0
2022-01-28-09:41:49.858508,0.0,17.0,364.0
2022-01-28-09:41:49.859505,2.0,11.0,364.0
2022-01-28-09:41:49.860503,2.0,11.0,364.0
2022-01-28-09:41:49.861498,2.0,11.0,364.0
2022-01-28-09:41:49.862495,3.0,3.0,364.0
2022-01-28-09:41:49.863494,10.0,16.0,364.0
2022-01-28-09:41:49.864490,13.0,14.0,364.0
2022-01-28-09:41:49.865488,13.0,14.0,364.0
2022-01-28-09:41:49.866485,16.0,1.0,364.0
2022-01-28-09:41:49.867527,11.0,1.0,364.0
2022-01-28-09:41:49.867888,2.0,19.0,364.0
2022-01-28-09:41:49.867888,2.0,19.0,364.0
2022-01-28-09:41:49.868912,2.0,19.0,364.0
2022-01-28-09:41:49.869909,2.0,19.0,364.0
2022-01-28-09:41:49.870908,3.0,9.0,365.0
2022-01-28-09:41:49.872235,2.0,9.0,364.0
2022-01-28-09:41:49.872235,1.0,6.0,364.0
2022-01-28-09:41:49.874231,1.0,6.0,364.0
2022-01-28-09:41:49.874231,1.0,16.0,364.0
2022-01-28-09:41:49.875260,1.0,16.0,364.0
2022-01-28-09:41:49.876258,7.0,11.0,365.0
2022-01-28-09:41:49.877255,7.0,11.0,365.0
2022-01-28-09:41:49.878255,7.0,11.0,365.0
2022-01-28-09:41:49.879249,6.0,1.0,364.0
2022-01-28-09:41:49.880247,10.0,15.0,365.0
2022-01-28-09:41:49.881246,8.0,13.0,364.0
2022-01-28-09:41:49.882242,8.0,13.0,364.0
2022-01-28-09:41:49.883239,9.0,13.0,364.0
2022-01-28-09:41:49.884237,10.0,5.0,364.0
2022-01-28-09:41:49.885234,9.0,17.0,364.0
2022-01-28-09:41:49.886234,9.0,17.0,364.0
2022-01-28-09:41:49.887230,1.0,8.0,364.0
2022-01-28-09:41:49.888206,1.0,8.0,364.0
2022-01-28-09:41:49.889207,1.0,8.0,364.0
2022-01-28-09:41:49.890410,1.0,8.0,364.0
2022-01-28-09:41:49.890410,0.0,6.0,364.0
2022-01-28-09:41:49.891442,3.0,4.0,364.0
2022-01-28-09:41:49.892433,3.0,4.0,364.0
2022-01-28-09:41:49.893432,3.0,4.0,364.0
2022-01-28-09:41:49.894586,3.0,4.0,364.0
2022-01-28-09:41:49.894586,4.0,4.0,364.0
2022-01-28-09:41:49.895611,14.0,5.0,365.0
2022-01-28-09:41:49.896608,9.0,2.0,364.0
2022-01-28-09:41:49.897605,9.0,2.0,364.0
2022-01-28-09:41:49.898603,9.0,2.0,364.0
2022-01-28-09:41:49.899600,11.0,0.0,364.0
2022-01-28-09:41:49.900598,10.0,11.0,364.0
2022-01-28-09:41:49.901597,6.0,17.0,364.0
2022-01-28-09:41:49.902592,6.0,17.0,364.0
2022-01-28-09:41:49.903570,3.0,15.0,364.0
2022-01-28-09:41:49.904586,0.0,19.0,364.0
2022-01-28-09:41:49.905590,1.0,13.0,364.0
2022-01-28-09:41:49.906556,1.0,13.0,364.0
2022-01-28-09:41:49.907579,1.0,3.0,364.0
2022-01-28-09:41:49.909547,4.0,2.0,364.0
2022-01-28-09:41:49.909547,4.0,2.0,364.0
2022-01-28-09:41:49.910591,4.0,2.0,364.0
2022-01-28-09:41:49.911568,10.0,5.0,364.0
2022-01-28-09:41:49.912586,9.0,8.0,364.0
2022-01-28-09:41:49.913583,9.0,8.0,364.0
2022-01-28-09:41:49.914534,9.0,8.0,364.0
2022-01-28-09:41:49.915577,9.0,10.0,364.0
2022-01-28-09:41:49.916575,8.0,8.0,364.0
2022-01-28-09:41:49.917575,5.0,7.0,364.0
2022-01-28-09:41:49.918523,5.0,7.0,364.0
2022-01-28-09:41:49.919567,2.0,20.0,364.0
2022-01-28-09:41:49.920569,1.0,11.0,364.0
2022-01-28-09:41:49.921563,2.0,8.0,364.0
2022-01-28-09:41:49.922539,2.0,8.0,364.0
2022-01-28-09:41:49.923537,1.0,6.0,364.0
2022-01-28-09:41:49.924533,3.0,7.0,364.0
2022-01-28-09:41:49.925533,3.0,7.0,364.0
2022-01-28-09:41:49.926549,3.0,7.0,364.0
2022-01-28-09:41:49.927546,3.0,7.0,364.0
2022-01-28-09:41:49.928543,8.0,19.0,364.0
2022-01-28-09:41:49.929540,14.0,19.0,364.0
2022-01-28-09:41:49.930538,14.0,19.0,364.0
2022-01-28-09:41:49.931541,14.0,19.0,364.0
2022-01-28-09:41:49.932532,11.0,9.0,364.0
2022-01-28-09:41:49.933532,7.0,8.0,364.0
2022-01-28-09:41:49.934506,4.0,18.0,364.0
2022-01-28-09:41:49.935507,4.0,18.0,364.0
2022-01-28-09:41:49.936476,0.0,25.0,364.0
2022-01-28-09:41:49.937522,1.0,22.0,365.0
2022-01-28-09:41:49.938519,2.0,18.0,364.0
2022-01-28-09:41:49.939468,2.0,18.0,364.0
2022-01-28-09:41:49.940511,3.0,17.0,364.0
2022-01-28-09:41:49.941511,5.0,28.0,365.0
2022-01-28-09:41:49.943457,5.0,28.0,365.0
2022-01-28-09:41:49.943457,3.0,25.0,364.0
2022-01-28-09:41:49.944597,3.0,25.0,364.0
2022-01-28-09:41:49.944597,11.0,6.0,364.0
2022-01-28-09:41:49.945652,11.0,6.0,364.0
2022-01-28-09:41:49.946651,11.0,6.0,364.0
2022-01-28-09:41:49.947646,11.0,6.0,364.0
2022-01-28-09:41:49.948903,11.0,4.0,364.0
2022-01-28-09:41:49.948903,9.0,2.0,364.0
2022-01-28-09:41:49.949936,9.0,2.0,364.0
2022-01-28-09:41:49.950931,12.0,7.0,364.0
2022-01-28-09:41:49.952119,12.0,7.0,364.0
2022-01-28-09:41:49.952119,12.0,14.0,364.0
2022-01-28-09:41:49.953151,12.0,14.0,364.0
2022-01-28-09:41:49.954287,3.0,5.0,364.0
2022-01-28-09:41:49.954287,3.0,5.0,364.0
2022-01-28-09:41:49.955351,3.0,5.0,364.0
2022-01-28-09:41:49.956284,2.0,14.0,364.0
2022-01-28-09:41:49.957685,5.0,11.0,364.0
2022-01-28-09:41:49.958139,3.0,9.0,364.0
2022-01-28-09:41:49.958139,3.0,9.0,364.0
2022-01-28-09:41:49.959188,3.0,9.0,364.0
2022-01-28-09:41:49.960184,3.0,9.0,364.0
2022-01-28-09:41:49.961180,6.0,3.0,364.0
2022-01-28-09:41:49.962178,8.0,16.0,364.0
2022-01-28-09:41:49.963177,8.0,16.0,364.0
2022-01-28-09:41:49.964174,8.0,16.0,364.0
2022-01-28-09:41:49.965124,8.0,16.0,364.0
2022-01-28-09:41:49.966167,12.0,1.0,364.0
2022-01-28-09:41:49.967166,6.0,0.0,364.0
2022-01-28-09:41:49.968338,6.0,0.0,364.0
2022-01-28-09:41:49.968338,10.0,11.0,364.0
2022-01-28-09:41:49.969394,0.0,11.0,364.0
2022-01-28-09:41:49.970374,2.0,14.0,364.0
2022-01-28-09:41:49.970374,2.0,14.0,364.0
2022-01-28-09:41:49.971421,2.0,14.0,364.0
2022-01-28-09:41:49.972418,2.0,14.0,364.0
2022-01-28-09:41:49.973368,1.0,13.0,364.0
2022-01-28-09:41:49.974765,2.0,11.0,365.0
2022-01-28-09:41:49.974765,2.0,11.0,365.0
2022-01-28-09:41:49.975822,2.0,11.0,365.0
2022-01-28-09:41:49.977759,6.0,9.0,364.0
2022-01-28-09:41:49.977759,12.0,5.0,365.0
2022-01-28-09:41:49.978810,12.0,5.0,365.0
2022-01-28-09:41:49.979808,12.0,5.0,365.0
2022-01-28-09:41:49.980754,9.0,10.0,364.0
2022-01-28-09:41:49.981786,9.0,19.0,364.0
2022-01-28-09:41:49.982779,14.0,10.0,364.0
2022-01-28-09:41:49.983848,14.0,10.0,364.0
2022-01-28-09:41:49.983848,14.0,10.0,364.0
2022-01-28-09:41:49.985114,14.0,10.0,364.0
2022-01-28-09:41:49.985114,4.0,14.0,364.0
2022-01-28-09:41:49.986145,4.0,14.0,364.0
2022-01-28-09:41:49.987111,1.0,5.0,365.0
2022-01-28-09:41:49.988130,1.0,5.0,365.0
2022-01-28-09:41:49.989137,1.0,17.0,364.0
2022-01-28-09:41:49.990136,1.0,8.0,364.0
2022-01-28-09:41:49.991132,1.0,8.0,364.0
2022-01-28-09:41:49.992131,1.0,8.0,364.0
2022-01-28-09:41:49.993126,1.0,8.0,364.0
2022-01-28-09:41:49.994116,4.0,3.0,364.0
2022-01-28-09:41:49.995115,4.0,3.0,364.0
2022-01-28-09:41:49.996087,4.0,3.0,364.0
2022-01-28-09:41:49.997116,4.0,3.0,364.0
2022-01-28-09:41:49.998114,7.0,7.0,364.0
2022-01-28-09:41:49.999182,8.0,8.0,364.0
2022-01-28-09:41:49.999182,11.0,3.0,364.0
2022-01-28-09:41:50.000233,11.0,3.0,364.0
2022-01-28-09:41:50.001381,11.0,3.0,364.0
2022-01-28-09:41:50.001381,6.0,1.0,364.0
2022-01-28-09:41:50.002419,6.0,1.0,364.0
2022-01-28-09:41:50.003519,2.0,11.0,365.0
2022-01-28-09:41:50.003519,2.0,11.0,365.0
2022-01-28-09:41:50.004570,2.0,11.0,365.0
2022-01-28-09:41:50.005574,2.0,12.0,364.0
2022-01-28-09:41:50.006568,3.0,15.0,364.0
2022-01-28-09:41:50.007567,4.0,11.0,364.0
2022-01-28-09:41:50.008563,4.0,11.0,364.0
2022-01-28-09:41:50.010558,2.0,0.0,364.0
2022-01-28-09:41:50.010558,3.0,10.0,364.0
2022-01-28-09:41:50.011533,3.0,10.0,364.0
2022-01-28-09:41:50.012546,3.0,10.0,364.0
2022-01-28-09:41:50.013553,3.0,10.0,364.0
2022-01-28-09:41:50.014547,9.0,9.0,364.0
2022-01-28-09:41:50.015537,13.0,5.0,364.0
2022-01-28-09:41:50.016533,13.0,5.0,364.0
2022-01-28-09:41:50.017530,13.0,5.0,364.0
2022-01-28-09:41:50.018528,8.0,10.0,364.0
2022-01-28-09:41:50.019525,2.0,20.0,364.0
2022-01-28-09:41:50.020524,0.0,12.0,364.0
2022-01-28-09:41:50.021523,0.0,12.0,364.0
2022-01-28-09:41:50.022518,1.0,3.0,364.0
2022-01-28-09:41:50.023505,5.0,10.0,364.0
2022-01-28-09:41:50.024513,5.0,10.0,364.0
2022-01-28-09:41:50.025510,5.0,10.0,364.0
2022-01-28-09:41:50.026506,6.0,2.0,364.0
2022-01-28-09:41:50.027687,2.0,1.0,364.0
2022-01-28-09:41:50.027687,5.0,6.0,364.0
2022-01-28-09:41:50.028742,8.0,10.0,364.0
2022-01-28-09:41:50.029739,8.0,10.0,364.0
2022-01-28-09:41:50.030737,10.0,9.0,364.0
2022-01-28-09:41:50.031781,9.0,1.0,364.0
2022-01-28-09:41:50.031781,12.0,12.0,364.0
2022-01-28-09:41:50.032830,12.0,12.0,364.0
2022-01-28-09:41:50.033997,12.0,12.0,364.0
2022-01-28-09:41:50.033997,7.0,16.0,365.0
2022-01-28-09:41:50.035056,4.0,24.0,364.0
2022-01-28-09:41:50.036048,1.0,20.0,365.0
2022-01-28-09:41:50.036991,1.0,20.0,365.0
2022-01-28-09:41:50.038043,1.0,20.0,365.0
2022-01-28-09:41:50.039040,2.0,2.0,364.0
2022-01-28-09:41:50.040017,0.0,14.0,364.0
2022-01-28-09:41:50.041036,0.0,14.0,364.0
2022-01-28-09:41:50.042033,0.0,14.0,364.0
2022-01-28-09:41:50.043030,0.0,14.0,364.0
2022-01-28-09:41:50.044969,3.0,7.0,364.0
2022-01-28-09:41:50.044969,5.0,27.0,365.0
2022-01-28-09:41:50.046116,5.0,27.0,365.0
2022-01-28-09:41:50.046116,13.0,6.0,364.0
2022-01-28-09:41:50.047146,13.0,6.0,364.0
2022-01-28-09:41:50.048144,12.0,5.0,364.0
2022-01-28-09:41:50.049144,12.0,5.0,364.0
2022-01-28-09:41:50.050319,12.0,5.0,364.0
2022-01-28-09:41:50.050319,9.0,10.0,365.0
2022-01-28-09:41:50.051353,9.0,10.0,365.0
2022-01-28-09:41:50.052464,1.0,19.0,364.0
2022-01-28-09:41:50.052464,1.0,19.0,364.0
2022-01-28-09:41:50.053510,1.0,19.0,364.0
2022-01-28-09:41:50.054461,4.0,20.0,365.0
2022-01-28-09:41:50.055504,1.0,10.0,364.0
2022-01-28-09:41:50.056456,1.0,10.0,364.0
2022-01-28-09:41:50.057499,1.0,10.0,364.0
2022-01-28-09:41:50.058452,3.0,3.0,364.0
2022-01-28-09:41:50.059830,3.0,3.0,364.0
2022-01-28-09:41:50.059830,5.0,9.0,364.0
2022-01-28-09:41:50.060865,5.0,9.0,364.0
2022-01-28-09:41:50.061864,5.0,9.0,364.0
2022-01-28-09:41:50.062858,4.0,20.0,364.0
2022-01-28-09:41:50.063902,12.0,9.0,364.0
2022-01-28-09:41:50.063902,11.0,1.0,364.0
2022-01-28-09:41:50.064927,11.0,1.0,364.0
2022-01-28-09:41:50.066104,11.0,1.0,364.0
2022-01-28-09:41:50.066104,10.0,20.0,364.0
2022-01-28-09:41:50.067137,2.0,17.0,364.0
2022-01-28-09:41:50.068134,2.0,17.0,364.0
2022-01-28-09:41:50.069132,2.0,17.0,364.0
2022-01-28-09:41:50.070096,2.0,17.0,364.0
2022-01-28-09:41:50.071127,2.0,9.0,364.0
2022-01-28-09:41:50.072145,2.0,4.0,364.0
2022-01-28-09:41:50.073145,1.0,3.0,364.0
2022-01-28-09:41:50.074128,1.0,3.0,364.0
2022-01-28-09:41:50.076135,2.0,5.0,365.0
2022-01-28-09:41:50.076135,6.0,7.0,364.0
2022-01-28-09:41:50.077131,6.0,7.0,364.0
2022-01-28-09:41:50.078129,6.0,7.0,364.0
2022-01-28-09:41:50.079126,6.0,7.0,364.0
2022-01-28-09:41:50.080123,7.0,8.0,364.0
2022-01-28-09:41:50.081123,14.0,14.0,364.0
2022-01-28-09:41:50.082165,14.0,14.0,364.0
2022-01-28-09:41:50.082165,14.0,14.0,364.0
2022-01-28-09:41:50.083425,14.0,14.0,364.0
2022-01-28-09:41:50.083425,9.0,11.0,364.0
2022-01-28-09:41:50.084588,4.0,17.0,364.0
2022-01-28-09:41:50.084588,4.0,17.0,364.0
2022-01-28-09:41:50.085638,4.0,17.0,364.0
2022-01-28-09:41:50.086633,4.0,17.0,364.0
2022-01-28-09:41:50.087629,2.0,15.0,364.0
2022-01-28-09:41:50.088625,3.0,1.0,364.0
2022-01-28-09:41:50.089603,3.0,1.0,364.0
2022-01-28-09:41:50.090609,3.0,1.0,364.0
2022-01-28-09:41:50.091655,3.0,1.0,364.0
2022-01-28-09:41:50.091655,3.0,1.0,364.0
2022-01-28-09:41:50.092819,2.0,2.0,364.0
2022-01-28-09:41:50.092819,2.0,2.0,364.0
2022-01-28-09:41:50.093865,2.0,2.0,364.0
2022-01-28-09:41:50.094862,2.0,2.0,364.0
2022-01-28-09:41:50.095860,8.0,10.0,364.0
2022-01-28-09:41:50.096860,9.0,4.0,365.0
2022-01-28-09:41:50.097855,12.0,4.0,364.0
2022-01-28-09:41:50.098840,12.0,4.0,364.0
2022-01-28-09:41:50.099848,6.0,3.0,365.0
2022-01-28-09:41:50.100846,7.0,16.0,364.0
2022-01-28-09:41:50.101852,6.0,24.0,364.0
2022-01-28-09:41:50.102860,6.0,24.0,364.0
2022-01-28-09:41:50.103838,2.0,16.0,364.0
2022-01-28-09:41:50.104788,1.0,6.0,364.0
2022-01-28-09:41:50.105793,3.0,7.0,364.0
2022-01-28-09:41:50.106783,3.0,7.0,364.0
2022-01-28-09:41:50.107780,3.0,7.0,364.0
2022-01-28-09:41:50.108778,5.0,5.0,365.0
2022-01-28-09:41:50.109802,8.0,7.0,364.0
2022-01-28-09:41:50.111818,8.0,7.0,364.0
2022-01-28-09:41:50.111818,6.0,16.0,364.0
2022-01-28-09:41:50.112817,13.0,6.0,365.0
2022-01-28-09:41:50.113812,13.0,6.0,365.0
2022-01-28-09:41:50.114810,13.0,6.0,365.0
2022-01-28-09:41:50.115812,13.0,6.0,365.0
2022-01-28-09:41:50.116803,9.0,1.0,364.0
2022-01-28-09:41:50.117800,5.0,14.0,365.0
2022-01-28-09:41:50.118798,1.0,20.0,365.0
2022-01-28-09:41:50.119796,1.0,20.0,365.0
2022-01-28-09:41:50.120795,1.0,20.0,365.0
2022-01-28-09:41:50.121790,0.0,12.0,364.0
2022-01-28-09:41:50.122779,2.0,5.0,364.0
2022-01-28-09:41:50.123909,2.0,5.0,364.0
2022-01-28-09:41:50.123909,2.0,3.0,364.0
2022-01-28-09:41:50.124943,5.0,3.0,364.0
2022-01-28-09:41:50.125940,5.0,3.0,364.0
2022-01-28-09:41:50.126937,5.0,3.0,364.0
2022-01-28-09:41:50.127937,5.0,3.0,364.0
2022-01-28-09:41:50.128932,9.0,13.0,364.0
2022-01-28-09:41:50.130237,9.0,13.0,364.0
2022-01-28-09:41:50.130237,11.0,7.0,364.0
2022-01-28-09:41:50.131284,11.0,7.0,364.0
2022-01-28-09:41:50.132445,11.0,7.0,364.0
2022-01-28-09:41:50.132445,14.0,1.0,365.0
2022-01-28-09:41:50.133499,7.0,13.0,365.0
2022-01-28-09:41:50.134499,5.0,21.0,364.0
2022-01-28-09:41:50.135494,5.0,21.0,364.0
2022-01-28-09:41:50.136471,5.0,21.0,364.0
2022-01-28-09:41:50.137489,1.0,12.0,364.0
2022-01-28-09:41:50.138486,1.0,8.0,364.0
2022-01-28-09:41:50.139430,1.0,8.0,364.0
2022-01-28-09:41:50.140481,1.0,8.0,364.0
2022-01-28-09:41:50.141481,0.0,5.0,364.0
2022-01-28-09:41:50.142478,3.0,1.0,364.0
2022-01-28-09:41:50.143473,3.0,1.0,364.0
2022-01-28-09:41:50.144470,3.0,1.0,364.0
2022-01-28-09:41:50.146466,8.0,4.0,364.0
2022-01-28-09:41:50.146466,8.0,4.0,364.0
2022-01-28-09:41:50.147585,15.0,9.0,364.0
2022-01-28-09:41:50.147585,15.0,9.0,364.0
2022-01-28-09:41:50.148609,15.0,9.0,364.0
2022-01-28-09:41:50.149608,13.0,2.0,364.0
2022-01-28-09:41:50.150604,10.0,9.0,364.0
2022-01-28-09:41:50.151601,2.0,17.0,364.0
2022-01-28-09:41:50.152602,2.0,17.0,364.0
2022-01-28-09:41:50.153592,3.0,21.0,364.0
2022-01-28-09:41:50.154679,1.0,8.0,364.0
2022-01-28-09:41:50.154679,1.0,8.0,364.0
2022-01-28-09:41:50.155734,1.0,8.0,364.0
2022-01-28-09:41:50.156732,1.0,8.0,364.0
2022-01-28-09:41:50.157728,1.0,2.0,364.0
2022-01-28-09:41:50.158726,2.0,7.0,364.0
2022-01-28-09:41:50.159724,1.0,3.0,364.0
2022-01-28-09:41:50.160698,1.0,3.0,364.0
2022-01-28-09:41:50.161721,9.0,11.0,365.0
2022-01-28-09:41:50.162721,9.0,11.0,365.0
2022-01-28-09:41:50.163712,9.0,11.0,365.0
2022-01-28-09:41:50.164710,9.0,11.0,365.0
2022-01-28-09:41:50.165707,10.0,8.0,364.0
2022-01-28-09:41:50.166705,8.0,9.0,364.0
2022-01-28-09:41:50.167702,5.0,12.0,364.0
2022-01-28-09:41:50.168699,5.0,12.0,364.0
2022-01-28-09:41:50.169700,5.0,21.0,364.0
2022-01-28-09:41:50.170694,1.0,2.0,364.0
2022-01-28-09:41:50.171692,1.0,2.0,364.0
2022-01-28-09:41:50.172688,1.0,2.0,364.0
2022-01-28-09:41:50.173664,2.0,13.0,364.0
2022-01-28-09:41:50.174683,3.0,8.0,364.0
2022-01-28-09:41:50.175681,3.0,8.0,364.0
2022-01-28-09:41:50.176657,3.0,8.0,364.0
2022-01-28-09:41:50.177656,3.0,2.0,364.0
2022-01-28-09:41:50.178673,6.0,0.0,364.0
2022-01-28-09:41:50.180652,9.0,7.0,364.0
2022-01-28-09:41:50.180652,1.0,20.0,364.0
2022-01-28-09:41:50.181664,1.0,20.0,364.0
2022-01-28-09:41:50.182662,1.0,20.0,364.0
2022-01-28-09:41:50.183660,1.0,20.0,364.0
2022-01-28-09:41:50.184656,1.0,20.0,364.0
2022-01-28-09:41:50.185657,1.0,20.0,364.0
2022-01-28-09:41:50.186651,3.0,3.0,364.0
2022-01-28-09:41:50.187629,1.0,14.0,364.0
2022-01-28-09:41:50.188645,1.0,14.0,364.0
2022-01-28-09:41:50.189643,1.0,14.0,364.0
2022-01-28-09:41:50.190640,2.0,12.0,364.0
2022-01-28-09:41:50.191638,4.0,12.0,365.0
2022-01-28-09:41:50.192637,3.0,8.0,364.0
2022-01-28-09:41:50.193636,3.0,8.0,364.0
2022-01-28-09:41:50.194630,6.0,7.0,364.0
2022-01-28-09:41:50.195627,6.0,8.0,364.0
2022-01-28-09:41:50.196624,6.0,8.0,364.0
2022-01-28-09:41:50.197621,6.0,8.0,364.0
2022-01-28-09:41:50.198619,8.0,7.0,364.0
2022-01-28-09:41:50.199617,14.0,0.0,364.0
2022-01-28-09:41:50.200591,9.0,8.0,364.0
2022-01-28-09:41:50.201614,9.0,8.0,364.0
2022-01-28-09:41:50.202608,7.0,12.0,364.0
2022-01-28-09:41:50.203810,2.0,10.0,364.0
2022-01-28-09:41:50.203963,1.0,11.0,364.0
2022-01-28-09:41:50.203963,1.0,11.0,364.0
2022-01-28-09:41:50.205019,1.0,11.0,364.0
2022-01-28-09:41:50.206017,1.0,11.0,364.0
2022-01-28-09:41:50.206989,2.0,3.0,364.0
2022-01-28-09:41:50.208136,3.0,2.0,364.0
2022-01-28-09:41:50.208136,3.0,2.0,364.0
2022-01-28-09:41:50.209190,3.0,2.0,364.0
2022-01-28-09:41:50.210190,3.0,2.0,364.0
2022-01-28-09:41:50.211185,1.0,3.0,364.0
2022-01-28-09:41:50.213180,5.0,1.0,364.0
2022-01-28-09:41:50.213180,5.0,6.0,364.0
2022-01-28-09:41:50.214177,12.0,2.0,364.0
2022-01-28-09:41:50.215175,12.0,9.0,364.0
2022-01-28-09:41:50.216171,12.0,9.0,364.0
2022-01-28-09:41:50.217168,12.0,9.0,364.0
2022-01-28-09:41:50.218169,12.0,9.0,364.0
2022-01-28-09:41:50.219163,4.0,14.0,364.0
2022-01-28-09:41:50.220161,0.0,21.0,364.0
2022-01-28-09:41:50.221140,1.0,12.0,364.0
2022-01-28-09:41:50.222156,1.0,12.0,364.0
2022-01-28-09:41:50.223136,5.0,5.0,364.0
2022-01-28-09:41:50.224150,2.0,11.0,364.0
2022-01-28-09:41:50.225149,3.0,6.0,364.0
2022-01-28-09:41:50.226147,3.0,6.0,364.0
2022-01-28-09:41:50.227143,4.0,5.0,364.0
2022-01-28-09:41:50.228140,4.0,5.0,364.0
2022-01-28-09:41:50.229115,10.0,4.0,364.0
2022-01-28-09:41:50.230126,6.0,5.0,364.0
2022-01-28-09:41:50.231124,12.0,14.0,364.0
2022-01-28-09:41:50.232121,7.0,3.0,364.0
2022-01-28-09:41:50.233119,7.0,3.0,364.0
2022-01-28-09:41:50.234118,7.0,3.0,364.0
2022-01-28-09:41:50.235357,4.0,4.0,364.0
2022-01-28-09:41:50.235357,1.0,24.0,364.0
2022-01-28-09:41:50.236411,4.0,20.0,364.0
2022-01-28-09:41:50.237387,4.0,20.0,364.0
2022-01-28-09:41:50.238405,4.0,20.0,364.0
2022-01-28-09:41:50.239402,0.0,18.0,364.0
2022-01-28-09:41:50.240378,2.0,2.0,364.0
2022-01-28-09:41:50.241397,2.0,4.0,364.0
2022-01-28-09:41:50.242394,2.0,4.0,364.0
2022-01-28-09:41:50.243393,5.0,6.0,364.0
2022-01-28-09:41:50.244389,3.0,1.0,364.0
2022-01-28-09:41:50.246330,2.0,34.0,365.0
2022-01-28-09:41:50.246330,15.0,3.0,364.0
2022-01-28-09:41:50.247327,15.0,1.0,364.0
2022-01-28-09:41:50.248378,13.0,2.0,364.0
2022-01-28-09:41:50.249427,13.0,2.0,364.0
2022-01-28-09:41:50.249427,13.0,2.0,364.0
2022-01-28-09:41:50.250659,13.0,2.0,364.0
2022-01-28-09:41:50.250659,8.0,5.0,365.0
2022-01-28-09:41:50.251713,3.0,26.0,364.0
2022-01-28-09:41:50.252710,3.0,5.0,364.0
2022-01-28-09:41:50.253698,3.0,5.0,364.0
2022-01-28-09:41:50.253698,3.0,5.0,364.0
2022-01-28-09:41:50.254938,3.0,5.0,364.0
2022-01-28-09:41:50.254938,2.0,1.0,364.0
2022-01-28-09:41:50.255994,5.0,3.0,364.0
2022-01-28-09:41:50.256970,4.0,0.0,364.0
2022-01-28-09:41:50.257965,4.0,0.0,364.0
2022-01-28-09:41:50.258970,4.0,0.0,364.0
2022-01-28-09:41:50.259953,0.0,0.0,364.0
2022-01-28-09:41:50.260950,7.0,7.0,364.0
2022-01-28-09:41:50.261950,9.0,8.0,364.0
2022-01-28-09:41:50.263115,9.0,8.0,364.0
2022-01-28-09:41:50.263115,10.0,0.0,364.0
2022-01-28-09:41:50.264140,7.0,10.0,364.0
2022-01-28-09:41:50.265137,7.0,10.0,364.0
2022-01-28-09:41:50.266135,7.0,10.0,364.0
2022-01-28-09:41:50.267133,7.0,10.0,364.0
2022-01-28-09:41:50.268131,8.0,20.0,364.0
2022-01-28-09:41:50.269127,4.0,21.0,364.0
2022-01-28-09:41:50.270124,3.0,12.0,365.0
2022-01-28-09:41:50.271122,3.0,12.0,365.0
2022-01-28-09:41:50.272167,1.0,13.0,364.0
2022-01-28-09:41:50.272167,4.0,5.0,364.0
2022-01-28-09:41:50.273200,4.0,1.0,364.0
2022-01-28-09:41:50.274194,4.0,1.0,364.0
2022-01-28-09:41:50.275187,4.0,1.0,364.0
2022-01-28-09:41:50.276184,7.0,6.0,364.0
2022-01-28-09:41:50.277182,5.0,2.0,364.0
2022-01-28-09:41:50.278184,4.0,6.0,364.0
2022-01-28-09:41:50.279176,4.0,6.0,364.0
2022-01-28-09:41:50.280147,5.0,3.0,364.0
2022-01-28-09:41:50.281145,8.0,3.0,364.0
2022-01-28-09:41:50.282169,8.0,3.0,364.0
2022-01-28-09:41:50.284139,8.0,3.0,364.0
2022-01-28-09:41:50.284139,8.0,13.0,364.0
2022-01-28-09:41:50.285134,1.0,3.0,364.0
2022-01-28-09:41:50.286159,1.0,3.0,364.0
2022-01-28-09:41:50.287166,1.0,3.0,364.0
2022-01-28-09:41:50.288128,4.0,4.0,364.0
2022-01-28-09:41:50.289150,0.0,4.0,364.0
2022-01-28-09:41:50.290148,3.0,2.0,364.0
2022-01-28-09:41:50.291146,3.0,2.0,364.0
2022-01-28-09:41:50.292142,3.0,2.0,364.0
2022-01-28-09:41:50.293139,6.0,4.0,364.0
2022-01-28-09:41:50.294136,7.0,7.0,364.0
2022-01-28-09:41:50.295133,9.0,6.0,364.0
2022-01-28-09:41:50.296135,9.0,6.0,364.0
2022-01-28-09:41:50.297102,12.0,8.0,364.0
2022-01-28-09:41:50.298099,9.0,3.0,365.0
2022-01-28-09:41:50.299123,9.0,3.0,365.0
2022-01-28-09:41:50.300095,9.0,3.0,365.0
2022-01-28-09:41:50.301091,0.0,17.0,364.0
2022-01-28-09:41:50.302116,0.0,17.0,364.0
2022-01-28-09:41:50.303112,0.0,17.0,364.0
2022-01-28-09:41:50.304134,0.0,17.0,364.0
2022-01-28-09:41:50.305128,1.0,16.0,364.0
2022-01-28-09:41:50.306126,3.0,9.0,364.0
2022-01-28-09:41:50.307102,3.0,9.0,364.0
2022-01-28-09:41:50.308099,3.0,9.0,364.0
2022-01-28-09:41:50.309098,2.0,2.0,364.0
2022-01-28-09:41:50.310068,0.0,2.0,364.0
2022-01-28-09:41:50.311065,0.0,2.0,364.0
2022-01-28-09:41:50.312062,8.0,6.0,364.0
2022-01-28-09:41:50.313087,8.0,11.0,364.0
2022-01-28-09:41:50.314085,14.0,20.0,364.0
2022-01-28-09:41:50.315081,13.0,8.0,365.0
2022-01-28-09:41:50.316079,13.0,8.0,365.0
2022-01-28-09:41:50.317077,11.0,2.0,364.0
2022-01-28-09:41:50.319435,1.0,20.0,364.0
2022-01-28-09:41:50.319435,0.0,16.0,364.0
2022-01-28-09:41:50.320432,0.0,16.0,364.0
2022-01-28-09:41:50.321584,1.0,8.0,365.0
2022-01-28-09:41:50.321584,1.0,11.0,364.0
2022-01-28-09:41:50.322631,1.0,11.0,364.0
2022-01-28-09:41:50.323607,1.0,11.0,364.0
2022-01-28-09:41:50.324627,1.0,11.0,364.0
2022-01-28-09:41:50.325629,4.0,12.0,364.0
2022-01-28-09:41:50.325629,5.0,10.0,364.0
2022-01-28-09:41:50.326687,6.0,5.0,364.0
2022-01-28-09:41:50.327681,6.0,5.0,364.0
2022-01-28-09:41:50.328624,6.0,5.0,364.0
2022-01-28-09:41:50.329624,8.0,3.0,364.0
2022-01-28-09:41:50.330619,10.0,5.0,364.0
2022-01-28-09:41:50.331670,11.0,10.0,364.0
2022-01-28-09:41:50.332668,11.0,10.0,364.0
2022-01-28-09:41:50.333659,1.0,18.0,364.0
2022-01-28-09:41:50.334655,6.0,21.0,364.0
2022-01-28-09:41:50.335651,6.0,21.0,364.0
2022-01-28-09:41:50.336654,6.0,21.0,364.0
2022-01-28-09:41:50.337647,1.0,19.0,364.0
2022-01-28-09:41:50.338643,1.0,7.0,364.0
2022-01-28-09:41:50.339595,3.0,9.0,364.0
2022-01-28-09:41:50.340592,3.0,9.0,364.0
2022-01-28-09:41:50.341639,9.0,5.0,364.0
2022-01-28-09:41:50.342634,6.0,14.0,364.0
2022-01-28-09:41:50.343631,3.0,11.0,364.0
2022-01-28-09:41:50.344581,3.0,11.0,364.0
2022-01-28-09:41:50.345664,2.0,5.0,364.0
2022-01-28-09:41:50.345664,13.0,1.0,364.0
2022-01-28-09:41:50.346712,14.0,2.0,365.0
2022-01-28-09:41:50.347710,14.0,2.0,365.0
2022-01-28-09:41:50.348689,14.0,2.0,365.0
2022-01-28-09:41:50.349702,13.0,4.0,364.0
2022-01-28-09:41:50.351697,13.0,4.0,364.0
2022-01-28-09:41:50.352184,0.0,25.0,364.0
2022-01-28-09:41:50.352184,0.0,25.0,364.0
2022-01-28-09:41:50.353230,0.0,25.0,364.0
2022-01-28-09:41:50.354232,4.0,8.0,365.0
2022-01-28-09:41:50.355178,5.0,1.0,364.0
2022-01-28-09:41:50.356204,5.0,1.0,364.0
2022-01-28-09:41:50.357221,5.0,1.0,364.0
2022-01-28-09:41:50.358170,1.0,0.0,364.0
2022-01-28-09:41:50.359217,5.0,2.0,364.0
2022-01-28-09:41:50.360211,5.0,2.0,364.0
2022-01-28-09:41:50.361371,5.0,2.0,364.0
2022-01-28-09:41:50.361371,5.0,4.0,364.0
2022-01-28-09:41:50.362425,12.0,11.0,364.0
2022-01-28-09:41:50.363423,12.0,5.0,364.0
2022-01-28-09:41:50.364420,12.0,5.0,364.0
2022-01-28-09:41:50.365419,12.0,5.0,364.0
2022-01-28-09:41:50.366392,9.0,1.0,364.0
2022-01-28-09:41:50.367390,4.0,19.0,364.0
2022-01-28-09:41:50.368411,4.0,19.0,364.0
2022-01-28-09:41:50.369407,4.0,19.0,364.0
2022-01-28-09:41:50.370350,0.0,13.0,364.0
2022-01-28-09:41:50.371393,0.0,11.0,364.0
2022-01-28-09:41:50.372344,1.0,6.0,364.0
2022-01-28-09:41:50.373341,1.0,6.0,364.0
2022-01-28-09:41:50.374373,1.0,6.0,364.0
2022-01-28-09:41:50.375337,5.0,3.0,364.0
2022-01-28-09:41:50.376333,5.0,3.0,364.0
2022-01-28-09:41:50.377343,5.0,3.0,364.0
2022-01-28-09:41:50.378328,2.0,3.0,364.0
2022-01-28-09:41:50.379326,8.0,6.0,364.0
2022-01-28-09:41:50.380324,11.0,8.0,364.0
2022-01-28-09:41:50.381356,12.0,8.0,364.0
2022-01-28-09:41:50.382318,6.0,9.0,364.0
2022-01-28-09:41:50.384312,4.0,15.0,364.0
2022-01-28-09:41:50.384312,4.0,15.0,364.0
2022-01-28-09:41:50.385311,4.0,15.0,364.0
2022-01-28-09:41:50.386315,4.0,15.0,364.0
2022-01-28-09:41:50.387350,2.0,18.0,364.0
2022-01-28-09:41:50.389300,3.0,8.0,364.0
2022-01-28-09:41:50.389300,3.0,4.0,364.0
2022-01-28-09:41:50.390298,5.0,6.0,364.0
2022-01-28-09:41:50.391331,3.0,3.0,364.0
2022-01-28-09:41:50.392323,5.0,6.0,364.0
2022-01-28-09:41:50.393323,5.0,6.0,364.0
2022-01-28-09:41:50.394319,5.0,6.0,364.0
2022-01-28-09:41:50.395319,6.0,3.0,364.0
2022-01-28-09:41:50.396315,9.0,13.0,364.0
2022-01-28-09:41:50.397287,11.0,8.0,364.0
2022-01-28-09:41:50.398275,11.0,8.0,364.0
2022-01-28-09:41:50.399272,11.0,8.0,364.0
2022-01-28-09:41:50.400269,4.0,26.0,364.0
2022-01-28-09:41:50.401266,4.0,26.0,364.0
2022-01-28-09:41:50.402264,4.0,26.0,364.0
2022-01-28-09:41:50.403261,0.0,16.0,364.0
2022-01-28-09:41:50.404258,1.0,12.0,364.0
2022-01-28-09:41:50.405257,1.0,12.0,364.0
2022-01-28-09:41:50.406254,1.0,12.0,364.0
2022-01-28-09:41:50.407285,2.0,8.0,364.0
2022-01-28-09:41:50.408248,5.0,21.0,364.0
2022-01-28-09:41:50.409245,11.0,16.0,364.0
2022-01-28-09:41:50.410242,11.0,16.0,364.0
2022-01-28-09:41:50.411239,9.0,8.0,364.0
2022-01-28-09:41:50.412237,14.0,0.0,364.0
2022-01-28-09:41:50.413234,14.0,0.0,364.0
2022-01-28-09:41:50.414231,14.0,0.0,364.0
2022-01-28-09:41:50.415229,12.0,1.0,364.0
2022-01-28-09:41:50.416226,11.0,6.0,364.0
2022-01-28-09:41:50.417224,8.0,4.0,364.0
2022-01-28-09:41:50.418221,8.0,4.0,364.0
2022-01-28-09:41:50.420216,2.0,15.0,364.0
2022-01-28-09:41:50.420216,1.0,16.0,364.0
2022-01-28-09:41:50.421213,3.0,18.0,364.0
2022-01-28-09:41:50.422210,3.0,20.0,364.0
2022-01-28-09:41:50.423242,5.0,11.0,364.0
2022-01-28-09:41:50.424207,4.0,4.0,364.0
2022-01-28-09:41:50.425203,1.0,8.0,364.0
2022-01-28-09:41:50.426234,1.0,8.0,364.0
2022-01-28-09:41:50.427223,1.0,8.0,364.0
2022-01-28-09:41:50.428196,9.0,11.0,364.0
2022-01-28-09:41:50.429192,9.0,11.0,364.0
2022-01-28-09:41:50.430189,9.0,11.0,364.0
2022-01-28-09:41:50.431186,9.0,11.0,364.0
2022-01-28-09:41:50.432183,13.0,2.0,364.0
2022-01-28-09:41:50.433181,6.0,11.0,364.0
2022-01-28-09:41:50.434211,6.0,11.0,364.0
2022-01-28-09:41:50.435176,6.0,11.0,364.0
2022-01-28-09:41:50.436208,6.0,11.0,364.0
2022-01-28-09:41:50.437171,5.0,19.0,364.0
2022-01-28-09:41:50.438168,4.0,15.0,364.0
2022-01-28-09:41:50.439165,4.0,15.0,364.0
2022-01-28-09:41:50.440164,6.0,9.0,364.0
2022-01-28-09:41:50.441160,2.0,3.0,364.0
2022-01-28-09:41:50.442173,2.0,3.0,364.0
2022-01-28-09:41:50.443154,2.0,3.0,364.0
2022-01-28-09:41:50.444151,5.0,6.0,364.0
2022-01-28-09:41:50.445149,6.0,11.0,364.0
2022-01-28-09:41:50.446146,6.0,11.0,364.0
2022-01-28-09:41:50.447158,6.0,11.0,364.0
2022-01-28-09:41:50.448142,12.0,1.0,364.0
2022-01-28-09:41:50.449139,11.0,1.0,364.0
2022-01-28-09:41:50.450168,11.0,1.0,364.0
2022-01-28-09:41:50.451137,11.0,1.0,364.0
2022-01-28-09:41:50.452165,2.0,22.0,364.0
2022-01-28-09:41:50.453162,3.0,12.0,364.0
2022-01-28-09:41:50.455123,3.0,12.0,364.0
2022-01-28-09:41:50.455123,3.0,12.0,364.0
2022-01-28-09:41:50.456155,2.0,9.0,364.0
2022-01-28-09:41:50.457152,4.0,6.0,364.0
2022-01-28-09:41:50.458115,4.0,6.0,364.0
2022-01-28-09:41:50.459111,4.0,6.0,364.0
2022-01-28-09:41:50.460109,7.0,11.0,364.0
2022-01-28-09:41:50.461106,7.0,11.0,364.0
2022-01-28-09:41:50.462103,7.0,11.0,364.0
2022-01-28-09:41:50.463101,7.0,11.0,364.0
2022-01-28-09:41:50.464102,7.0,11.0,364.0
2022-01-28-09:41:50.465098,11.0,10.0,364.0
2022-01-28-09:41:50.466094,10.0,5.0,364.0
2022-01-28-09:41:50.467090,10.0,5.0,364.0
2022-01-28-09:41:50.468087,10.0,5.0,364.0
2022-01-28-09:41:50.469085,6.0,10.0,364.0
2022-01-28-09:41:50.470117,0.0,18.0,364.0
2022-01-28-09:41:50.471081,4.0,9.0,364.0
2022-01-28-09:41:50.472103,4.0,9.0,364.0
2022-01-28-09:41:50.473075,0.0,10.0,364.0
2022-01-28-09:41:50.474071,5.0,4.0,364.0
2022-01-28-09:41:50.475069,2.0,5.0,364.0
2022-01-28-09:41:50.476066,2.0,7.0,364.0
2022-01-28-09:41:50.477063,6.0,1.0,364.0
2022-01-28-09:41:50.478094,7.0,7.0,364.0
2022-01-28-09:41:50.479058,7.0,7.0,364.0
2022-01-28-09:41:50.480089,7.0,7.0,364.0
2022-01-28-09:41:50.481053,10.0,4.0,364.0
2022-01-28-09:41:50.482085,5.0,14.0,364.0
2022-01-28-09:41:50.483047,5.0,14.0,364.0
2022-01-28-09:41:50.484045,5.0,14.0,364.0
2022-01-28-09:41:50.485043,2.0,26.0,364.0
2022-01-28-09:41:50.486042,7.0,2.0,364.0
2022-01-28-09:41:50.487037,7.0,2.0,364.0
2022-01-28-09:41:50.488034,7.0,2.0,364.0
2022-01-28-09:41:50.490063,6.0,5.0,364.0
2022-01-28-09:41:50.490063,4.0,6.0,364.0
2022-01-28-09:41:50.491061,4.0,6.0,364.0
2022-01-28-09:41:50.492024,4.0,6.0,364.0
2022-01-28-09:41:50.493048,3.0,19.0,364.0
2022-01-28-09:41:50.494044,12.0,4.0,364.0
2022-01-28-09:41:50.495040,13.0,4.0,365.0
2022-01-28-09:41:50.496012,13.0,4.0,365.0
2022-01-28-09:41:50.497038,13.0,2.0,364.0
2022-01-28-09:41:50.498033,8.0,8.0,364.0
2022-01-28-09:41:50.499005,8.0,15.0,364.0
2022-01-28-09:41:50.500002,8.0,15.0,364.0
2022-01-28-09:41:50.501000,8.0,15.0,364.0
2022-01-28-09:41:50.501997,0.0,14.0,365.0
2022-01-28-09:41:50.502994,0.0,12.0,364.0
2022-01-28-09:41:50.504026,0.0,12.0,364.0
2022-01-28-09:41:50.504989,0.0,12.0,364.0
2022-01-28-09:41:50.505986,5.0,3.0,364.0
2022-01-28-09:41:50.507021,5.0,3.0,364.0
2022-01-28-09:41:50.507981,5.0,3.0,364.0
2022-01-28-09:41:50.508978,5.0,3.0,364.0
2022-01-28-09:41:50.509975,1.0,4.0,365.0
2022-01-28-09:41:50.511003,5.0,9.0,364.0
2022-01-28-09:41:50.511992,6.0,7.0,364.0
2022-01-28-09:41:50.512996,6.0,7.0,364.0
2022-01-28-09:41:50.513966,11.0,9.0,364.0
2022-01-28-09:41:50.514989,8.0,3.0,364.0
2022-01-28-09:41:50.515987,8.0,3.0,364.0
2022-01-28-09:41:50.516984,8.0,3.0,364.0
2022-01-28-09:41:50.517979,1.0,9.0,364.0
2022-01-28-09:41:50.518981,0.0,11.0,364.0
2022-01-28-09:41:50.519950,0.0,11.0,364.0
2022-01-28-09:41:50.520975,0.0,11.0,364.0
2022-01-28-09:41:50.522942,2.0,11.0,364.0
2022-01-28-09:41:50.522942,5.0,13.0,364.0
2022-01-28-09:41:50.523965,5.0,13.0,364.0
2022-01-28-09:41:50.524937,5.0,13.0,364.0
2022-01-28-09:41:50.525933,2.0,0.0,364.0
2022-01-28-09:41:50.526930,8.0,3.0,364.0
2022-01-28-09:41:50.527929,8.0,3.0,364.0
2022-01-28-09:41:50.528926,8.0,3.0,364.0
2022-01-28-09:41:50.529923,13.0,16.0,364.0
2022-01-28-09:41:50.530922,11.0,7.0,364.0
2022-01-28-09:41:50.531917,11.0,7.0,364.0
2022-01-28-09:41:50.532914,11.0,7.0,364.0
2022-01-28-09:41:50.533912,2.0,14.0,364.0
2022-01-28-09:41:50.534909,4.0,13.0,364.0
2022-01-28-09:41:50.535906,4.0,13.0,364.0
2022-01-28-09:41:50.536905,4.0,13.0,364.0
2022-01-28-09:41:50.537903,0.0,7.0,364.0
2022-01-28-09:41:50.538923,0.0,5.0,364.0
2022-01-28-09:41:50.539897,1.0,5.0,364.0
2022-01-28-09:41:50.540894,1.0,5.0,364.0
2022-01-28-09:41:50.541916,1.0,5.0,364.0
2022-01-28-09:41:50.542920,1.0,4.0,364.0
2022-01-28-09:41:50.543918,2.0,6.0,364.0
2022-01-28-09:41:50.544882,5.0,4.0,365.0
2022-01-28-09:41:50.545879,5.0,4.0,365.0
2022-01-28-09:41:50.546877,10.0,7.0,364.0
2022-01-28-09:41:50.547874,10.0,1.0,364.0
2022-01-28-09:41:50.548871,10.0,1.0,364.0
2022-01-28-09:41:50.549869,10.0,1.0,364.0
2022-01-28-09:41:50.550866,9.0,2.0,364.0
2022-01-28-09:41:50.551864,5.0,9.0,365.0
2022-01-28-09:41:50.552861,3.0,11.0,364.0
2022-01-28-09:41:50.553859,3.0,11.0,364.0
2022-01-28-09:41:50.554856,0.0,13.0,364.0
2022-01-28-09:41:50.555853,1.0,13.0,364.0
2022-01-28-09:41:50.557847,2.0,7.0,364.0
2022-01-28-09:41:50.557847,4.0,5.0,364.0
2022-01-28-09:41:50.558845,6.0,3.0,364.0
2022-01-28-09:41:50.559845,8.0,1.0,364.0
2022-01-28-09:41:50.560841,8.0,1.0,364.0
2022-01-28-09:41:50.561839,8.0,1.0,364.0
2022-01-28-09:41:50.562836,13.0,10.0,364.0
2022-01-28-09:41:50.563833,14.0,15.0,364.0
2022-01-28-09:41:50.564831,10.0,12.0,364.0
2022-01-28-09:41:50.565828,11.0,4.0,364.0
2022-01-28-09:41:50.566824,7.0,3.0,364.0
2022-01-28-09:41:50.567822,5.0,12.0,364.0
2022-01-28-09:41:50.568818,2.0,20.0,364.0
2022-01-28-09:41:50.569815,2.0,18.0,364.0
2022-01-28-09:41:50.570814,2.0,0.0,364.0
2022-01-28-09:41:50.571811,2.0,0.0,364.0
2022-01-28-09:41:50.572807,2.0,0.0,364.0
2022-01-28-09:41:50.573805,2.0,0.0,364.0
2022-01-28-09:41:50.574802,5.0,2.0,364.0
2022-01-28-09:41:50.575800,5.0,2.0,364.0
2022-01-28-09:41:50.576800,5.0,2.0,364.0
2022-01-28-09:41:50.577795,5.0,2.0,364.0
2022-01-28-09:41:50.578791,5.0,2.0,364.0
2022-01-28-09:41:50.579790,11.0,6.0,364.0
2022-01-28-09:41:50.580788,13.0,6.0,364.0
2022-01-28-09:41:50.581784,13.0,6.0,364.0
2022-01-28-09:41:50.582781,13.0,6.0,364.0
2022-01-28-09:41:50.583779,10.0,1.0,364.0
2022-01-28-09:41:50.584775,2.0,1.0,364.0
2022-01-28-09:41:50.585775,2.0,1.0,364.0
2022-01-28-09:41:50.586771,2.0,1.0,364.0
2022-01-28-09:41:50.587803,5.0,3.0,364.0
2022-01-28-09:41:50.588792,4.0,18.0,364.0
2022-01-28-09:41:50.589764,4.0,19.0,364.0
2022-01-28-09:41:50.590786,4.0,19.0,364.0
2022-01-28-09:41:50.592754,0.0,13.0,364.0
2022-01-28-09:41:50.592754,6.0,5.0,364.0
2022-01-28-09:41:50.593776,6.0,5.0,364.0
2022-01-28-09:41:50.594773,6.0,5.0,364.0
2022-01-28-09:41:50.595777,5.0,3.0,364.0
2022-01-28-09:41:50.596743,13.0,11.0,365.0
2022-01-28-09:41:50.597740,14.0,4.0,364.0
2022-01-28-09:41:50.598738,14.0,4.0,364.0
2022-01-28-09:41:50.599735,8.0,7.0,364.0
2022-01-28-09:41:50.600733,3.0,17.0,364.0
2022-01-28-09:41:50.601730,3.0,17.0,364.0
2022-01-28-09:41:50.602727,3.0,17.0,364.0
2022-01-28-09:41:50.603726,0.0,12.0,364.0
2022-01-28-09:41:50.604723,3.0,1.0,364.0
2022-01-28-09:41:50.605719,3.0,1.0,364.0
2022-01-28-09:41:50.606717,3.0,1.0,364.0
2022-01-28-09:41:50.607714,2.0,10.0,364.0
2022-01-28-09:41:50.608711,3.0,3.0,364.0
2022-01-28-09:41:50.609743,3.0,3.0,364.0
2022-01-28-09:41:50.610742,3.0,3.0,364.0
2022-01-28-09:41:50.611738,10.0,12.0,364.0
2022-01-28-09:41:50.612735,12.0,2.0,364.0
2022-01-28-09:41:50.613732,12.0,2.0,364.0
2022-01-28-09:41:50.614738,12.0,2.0,364.0
2022-01-28-09:41:50.615705,12.0,2.0,364.0
2022-01-28-09:41:50.616690,12.0,3.0,364.0
2022-01-28-09:41:50.617721,3.0,16.0,364.0
2022-01-28-09:41:50.618717,3.0,16.0,364.0
2022-01-28-09:41:50.619716,3.0,16.0,364.0
2022-01-28-09:41:50.620713,0.0,17.0,364.0
2022-01-28-09:41:50.621709,2.0,13.0,365.0
2022-01-28-09:41:50.622707,1.0,8.0,364.0
2022-01-28-09:41:50.623705,1.0,8.0,364.0
2022-01-28-09:41:50.624671,4.0,2.0,364.0
2022-01-28-09:41:50.625699,4.0,2.0,364.0
2022-01-28-09:41:50.627661,4.0,2.0,364.0
2022-01-28-09:41:50.627661,7.0,14.0,364.0
2022-01-28-09:41:50.628690,12.0,6.0,364.0
2022-01-28-09:41:50.629688,12.0,6.0,364.0
2022-01-28-09:41:50.630685,12.0,6.0,364.0
2022-01-28-09:41:50.631686,12.0,6.0,364.0
2022-01-28-09:41:50.632687,16.0,5.0,364.0
2022-01-28-09:41:50.633677,3.0,17.0,364.0
2022-01-28-09:41:50.634675,3.0,17.0,364.0
2022-01-28-09:41:50.635674,3.0,17.0,364.0
2022-01-28-09:41:50.636662,1.0,22.0,364.0
2022-01-28-09:41:50.637660,0.0,8.0,364.0
2022-01-28-09:41:50.638656,0.0,8.0,364.0
2022-01-28-09:41:50.639661,0.0,8.0,364.0
2022-01-28-09:41:50.640654,1.0,0.0,364.0
2022-01-28-09:41:50.641648,2.0,4.0,364.0
2022-01-28-09:41:50.642645,2.0,4.0,364.0
2022-01-28-09:41:50.643879,2.0,4.0,364.0
2022-01-28-09:41:50.643879,5.0,4.0,364.0
2022-01-28-09:41:50.644902,5.0,6.0,364.0
2022-01-28-09:41:50.645902,9.0,3.0,364.0
2022-01-28-09:41:50.646897,9.0,3.0,364.0
2022-01-28-09:41:50.647895,9.0,3.0,364.0
2022-01-28-09:41:50.648895,13.0,4.0,364.0
2022-01-28-09:41:50.649890,8.0,8.0,364.0
2022-01-28-09:41:50.650887,5.0,21.0,364.0
2022-01-28-09:41:50.651861,5.0,21.0,364.0
2022-01-28-09:41:50.652881,0.0,27.0,364.0
2022-01-28-09:41:50.653882,4.0,11.0,364.0
2022-01-28-09:41:50.654876,4.0,11.0,364.0
2022-01-28-09:41:50.655850,4.0,11.0,364.0
2022-01-28-09:41:50.656847,5.0,10.0,364.0
2022-01-28-09:41:50.657869,3.0,5.0,364.0
2022-01-28-09:41:50.659839,2.0,1.0,364.0
2022-01-28-09:41:50.659839,6.0,7.0,364.0
2022-01-28-09:41:50.660860,10.0,9.0,364.0
2022-01-28-09:41:50.661860,10.0,9.0,364.0
2022-01-28-09:41:50.662854,10.0,9.0,364.0
2022-01-28-09:41:50.663852,10.0,9.0,364.0
2022-01-28-09:41:50.664852,10.0,9.0,364.0
2022-01-28-09:41:50.665847,7.0,2.0,364.0
2022-01-28-09:41:50.666844,7.0,13.0,364.0
2022-01-28-09:41:50.667844,7.0,13.0,364.0
2022-01-28-09:41:50.668839,7.0,13.0,364.0
2022-01-28-09:41:50.669838,2.0,19.0,365.0
2022-01-28-09:41:50.670834,0.0,17.0,364.0
2022-01-28-09:41:50.671832,0.0,17.0,364.0
2022-01-28-09:41:50.672836,0.0,17.0,364.0
2022-01-28-09:41:50.673853,1.0,11.0,364.0
2022-01-28-09:41:50.674799,1.0,2.0,364.0
2022-01-28-09:41:50.675843,1.0,2.0,364.0
2022-01-28-09:41:50.676840,1.0,2.0,364.0
2022-01-28-09:41:50.677817,7.0,17.0,364.0
2022-01-28-09:41:50.678816,9.0,20.0,364.0
2022-01-28-09:41:50.679810,9.0,20.0,364.0
2022-01-28-09:41:50.680783,9.0,20.0,364.0
2022-01-28-09:41:50.681807,13.0,3.0,364.0
2022-01-28-09:41:50.682822,10.0,11.0,364.0
2022-01-28-09:41:50.683822,10.0,11.0,364.0
2022-01-28-09:41:50.684818,10.0,11.0,364.0
2022-01-28-09:41:50.685769,2.0,4.0,364.0
2022-01-28-09:41:50.686766,1.0,7.0,364.0
2022-01-28-09:41:50.687764,1.0,7.0,364.0
2022-01-28-09:41:50.688761,1.0,7.0,364.0
2022-01-28-09:41:50.689759,4.0,6.0,364.0
2022-01-28-09:41:50.690756,7.0,8.0,364.0
2022-01-28-09:41:50.691753,7.0,8.0,364.0
2022-01-28-09:41:50.692750,7.0,8.0,364.0
2022-01-28-09:41:50.694745,7.0,18.0,364.0
2022-01-28-09:41:50.694745,11.0,12.0,364.0
2022-01-28-09:41:50.695742,11.0,12.0,364.0
2022-01-28-09:41:50.696740,11.0,12.0,364.0
2022-01-28-09:41:50.697737,13.0,10.0,364.0
2022-01-28-09:41:50.698734,5.0,16.0,364.0
2022-01-28-09:41:50.699732,5.0,16.0,364.0
2022-01-28-09:41:50.700729,5.0,16.0,364.0
2022-01-28-09:41:50.701726,5.0,16.0,364.0
2022-01-28-09:41:50.702724,2.0,10.0,364.0
2022-01-28-09:41:50.703721,1.0,11.0,364.0
2022-01-28-09:41:50.704718,1.0,11.0,364.0
2022-01-28-09:41:50.705716,1.0,11.0,364.0
2022-01-28-09:41:50.706713,1.0,7.0,364.0
2022-01-28-09:41:50.707711,2.0,7.0,364.0
2022-01-28-09:41:50.708708,2.0,7.0,364.0
2022-01-28-09:41:50.709705,2.0,7.0,364.0
2022-01-28-09:41:50.710702,5.0,0.0,364.0
2022-01-28-09:41:50.711700,5.0,9.0,364.0
2022-01-28-09:41:50.712697,7.0,12.0,364.0
2022-01-28-09:41:50.713694,7.0,12.0,364.0
2022-01-28-09:41:50.714691,12.0,6.0,365.0
2022-01-28-09:41:50.715689,5.0,2.0,364.0
2022-01-28-09:41:50.716686,5.0,2.0,364.0
2022-01-28-09:41:50.717683,5.0,2.0,364.0
2022-01-28-09:41:50.718681,2.0,16.0,364.0
2022-01-28-09:41:50.719678,0.0,17.0,364.0
2022-01-28-09:41:50.720676,0.0,17.0,364.0
2022-01-28-09:41:50.721673,0.0,17.0,364.0
2022-01-28-09:41:50.722670,1.0,7.0,364.0
2022-01-28-09:41:50.723668,3.0,2.0,364.0
2022-01-28-09:41:50.724665,3.0,2.0,364.0
2022-01-28-09:41:50.725662,3.0,2.0,364.0
2022-01-28-09:41:50.727657,6.0,5.0,364.0
2022-01-28-09:41:50.727657,4.0,4.0,364.0
2022-01-28-09:41:50.728654,11.0,12.0,364.0
2022-01-28-09:41:50.729652,11.0,12.0,364.0
2022-01-28-09:41:50.730649,14.0,2.0,364.0
2022-01-28-09:41:50.731646,7.0,1.0,364.0
2022-01-28-09:41:50.732644,7.0,1.0,364.0
2022-01-28-09:41:50.733675,7.0,1.0,364.0
2022-01-28-09:41:50.734690,2.0,14.0,364.0
2022-01-28-09:41:50.735688,2.0,20.0,364.0
2022-01-28-09:41:50.736686,1.0,18.0,364.0
2022-01-28-09:41:50.737686,1.0,18.0,364.0
2022-01-28-09:41:50.738681,1.0,18.0,364.0
2022-01-28-09:41:50.739680,3.0,9.0,364.0
2022-01-28-09:41:50.740677,2.0,6.0,365.0
2022-01-28-09:41:50.741672,2.0,6.0,365.0
2022-01-28-09:41:50.742651,2.0,6.0,365.0
2022-01-28-09:41:50.743667,10.0,3.0,364.0
2022-01-28-09:41:50.744724,10.0,8.0,364.0
2022-01-28-09:41:50.744724,10.0,8.0,364.0
2022-01-28-09:41:50.745777,10.0,8.0,364.0
2022-01-28-09:41:50.746723,10.0,8.0,364.0
2022-01-28-09:41:50.747719,10.0,7.0,364.0
2022-01-28-09:41:50.748740,10.0,7.0,364.0
2022-01-28-09:41:50.749748,10.0,7.0,364.0
2022-01-28-09:41:50.750755,10.0,7.0,364.0
2022-01-28-09:41:50.751757,3.0,19.0,364.0
2022-01-28-09:41:50.751757,1.0,13.0,364.0
2022-01-28-09:41:50.752789,1.0,13.0,364.0
2022-01-28-09:41:50.753835,1.0,13.0,364.0
2022-01-28-09:41:50.754991,1.0,13.0,364.0
2022-01-28-09:41:50.754991,1.0,10.0,364.0
2022-01-28-09:41:50.756047,0.0,6.0,365.0
2022-01-28-09:41:50.756988,4.0,6.0,364.0
2022-01-28-09:41:50.758042,4.0,6.0,364.0
2022-01-28-09:41:50.759037,4.0,6.0,364.0
2022-01-28-09:41:50.760036,7.0,7.0,364.0
2022-01-28-09:41:50.761032,0.0,4.0,364.0
2022-01-28-09:41:50.762030,7.0,9.0,364.0
2022-01-28-09:41:50.763969,7.0,9.0,364.0
2022-01-28-09:41:50.763969,10.0,5.0,364.0
2022-01-28-09:41:50.765027,9.0,5.0,364.0
2022-01-28-09:41:50.766058,9.0,5.0,364.0
2022-01-28-09:41:50.766058,9.0,5.0,364.0
2022-01-28-09:41:50.767105,9.0,5.0,364.0
2022-01-28-09:41:50.768308,9.0,2.0,364.0
2022-01-28-09:41:50.768308,6.0,15.0,364.0
2022-01-28-09:41:50.769362,0.0,15.0,364.0
2022-01-28-09:41:50.770306,0.0,15.0,364.0
2022-01-28-09:41:50.771304,0.0,15.0,364.0
2022-01-28-09:41:50.772300,1.0,2.0,364.0
2022-01-28-09:41:50.773298,4.0,8.0,364.0
2022-01-28-09:41:50.774295,4.0,8.0,364.0
2022-01-28-09:41:50.775324,4.0,8.0,364.0
2022-01-28-09:41:50.776321,4.0,5.0,364.0
2022-01-28-09:41:50.777318,4.0,1.0,364.0
2022-01-28-09:41:50.778316,6.0,4.0,364.0
2022-01-28-09:41:50.779313,6.0,4.0,364.0
2022-01-28-09:41:50.780312,11.0,6.0,364.0
2022-01-28-09:41:50.781307,11.0,5.0,364.0
2022-01-28-09:41:50.782306,11.0,5.0,364.0
2022-01-28-09:41:50.783308,11.0,5.0,364.0
2022-01-28-09:41:50.784299,6.0,8.0,364.0
2022-01-28-09:41:50.785339,2.0,23.0,364.0
2022-01-28-09:41:50.785339,0.0,20.0,364.0
2022-01-28-09:41:50.786366,0.0,20.0,364.0
2022-01-28-09:41:50.787538,0.0,20.0,364.0
2022-01-28-09:41:50.787538,3.0,14.0,364.0
2022-01-28-09:41:50.788570,4.0,17.0,364.0
2022-01-28-09:41:50.789569,4.0,19.0,364.0
2022-01-28-09:41:50.790565,4.0,19.0,364.0
2022-01-28-09:41:50.791562,4.0,19.0,364.0
2022-01-28-09:41:50.792562,6.0,8.0,364.0
2022-01-28-09:41:50.793559,5.0,10.0,365.0
2022-01-28-09:41:50.795633,5.0,30.0,365.0
2022-01-28-09:41:50.795633,5.0,30.0,365.0
2022-01-28-09:41:50.796652,5.0,30.0,365.0
2022-01-28-09:41:50.797648,8.0,18.0,364.0
2022-01-28-09:41:50.798765,6.0,10.0,364.0
2022-01-28-09:41:50.798765,6.0,10.0,364.0
2022-01-28-09:41:50.799819,6.0,10.0,364.0
2022-01-28-09:41:50.800817,10.0,9.0,364.0
2022-01-28-09:41:50.801818,0.0,22.0,364.0
2022-01-28-09:41:50.802812,0.0,15.0,364.0
2022-01-28-09:41:50.803821,0.0,15.0,364.0
2022-01-28-09:41:50.804806,0.0,9.0,364.0
2022-01-28-09:41:50.805803,1.0,10.0,364.0
2022-01-28-09:41:50.806801,3.0,7.0,364.0
2022-01-28-09:41:50.807799,3.0,7.0,364.0
2022-01-28-09:41:50.808795,2.0,1.0,364.0
2022-01-28-09:41:50.809792,7.0,2.0,364.0
2022-01-28-09:41:50.810790,4.0,2.0,364.0
2022-01-28-09:41:50.811789,4.0,2.0,364.0
2022-01-28-09:41:50.812785,4.0,2.0,364.0
2022-01-28-09:41:50.813782,10.0,7.0,364.0
2022-01-28-09:41:50.814779,13.0,1.0,364.0
2022-01-28-09:41:50.815782,13.0,1.0,364.0
2022-01-28-09:41:50.816766,8.0,3.0,364.0
2022-01-28-09:41:50.817975,5.0,20.0,364.0
2022-01-28-09:41:50.818124,2.0,23.0,364.0
2022-01-28-09:41:50.818124,2.0,23.0,364.0
2022-01-28-09:41:50.819171,2.0,23.0,364.0
2022-01-28-09:41:50.820336,2.0,23.0,364.0
2022-01-28-09:41:50.820336,3.0,13.0,364.0
2022-01-28-09:41:50.821390,0.0,7.0,364.0
2022-01-28-09:41:50.822393,1.0,10.0,364.0
2022-01-28-09:41:50.823332,1.0,10.0,364.0
2022-01-28-09:41:50.824384,1.0,10.0,364.0
2022-01-28-09:41:50.825379,2.0,5.0,364.0
2022-01-28-09:41:50.826376,6.0,1.0,364.0
2022-01-28-09:41:50.828467,6.0,0.0,364.0
2022-01-28-09:41:50.828467,6.0,12.0,364.0
2022-01-28-09:41:50.829466,10.0,13.0,364.0
2022-01-28-09:41:50.830461,10.0,8.0,364.0
2022-01-28-09:41:50.831459,11.0,3.0,364.0
2022-01-28-09:41:50.832457,11.0,3.0,364.0
2022-01-28-09:41:50.833453,14.0,1.0,365.0
2022-01-28-09:41:50.834453,1.0,23.0,364.0
2022-01-28-09:41:50.835447,1.0,23.0,364.0
2022-01-28-09:41:50.836446,1.0,23.0,364.0
2022-01-28-09:41:50.837445,4.0,14.0,364.0
2022-01-28-09:41:50.838440,0.0,12.0,364.0
2022-01-28-09:41:50.839437,0.0,1.0,364.0
2022-01-28-09:41:50.840417,0.0,1.0,364.0
2022-01-28-09:41:50.841637,7.0,3.0,364.0
2022-01-28-09:41:50.841637,2.0,2.0,364.0
2022-01-28-09:41:50.842693,1.0,3.0,364.0
2022-01-28-09:41:50.843690,1.0,3.0,364.0
2022-01-28-09:41:50.844685,1.0,3.0,364.0
2022-01-28-09:41:50.845662,3.0,12.0,364.0
2022-01-28-09:41:50.846660,13.0,4.0,364.0
2022-01-28-09:41:50.847679,13.0,4.0,364.0
2022-01-28-09:41:50.848675,13.0,4.0,364.0
2022-01-28-09:41:50.849672,12.0,2.0,364.0
2022-01-28-09:41:50.850780,5.0,20.0,364.0
2022-01-28-09:41:50.850780,5.0,20.0,364.0
2022-01-28-09:41:50.851826,5.0,20.0,364.0
2022-01-28-09:41:50.852827,5.0,20.0,364.0
2022-01-28-09:41:50.853821,1.0,18.0,365.0
2022-01-28-09:41:50.855009,1.0,13.0,364.0
2022-01-28-09:41:50.855151,0.0,6.0,364.0
2022-01-28-09:41:50.855151,0.0,6.0,364.0
2022-01-28-09:41:50.856197,0.0,6.0,364.0
2022-01-28-09:41:50.857194,0.0,6.0,364.0
2022-01-28-09:41:50.858191,1.0,8.0,364.0
2022-01-28-09:41:50.859188,0.0,4.0,364.0
2022-01-28-09:41:50.860186,0.0,4.0,364.0
2022-01-28-09:41:50.861184,0.0,4.0,364.0
2022-01-28-09:41:50.862183,5.0,7.0,364.0
2022-01-28-09:41:50.864129,8.0,11.0,364.0
2022-01-28-09:41:50.864129,12.0,0.0,364.0
2022-01-28-09:41:50.865428,13.0,1.0,364.0
2022-01-28-09:41:50.865428,6.0,16.0,364.0
2022-01-28-09:41:50.866483,4.0,17.0,365.0
2022-01-28-09:41:50.867482,4.0,17.0,365.0
2022-01-28-09:41:50.868476,4.0,17.0,365.0
2022-01-28-09:41:50.869474,4.0,17.0,365.0
2022-01-28-09:41:50.870417,1.0,15.0,364.0
2022-01-28-09:41:50.871468,2.0,7.0,364.0
2022-01-28-09:41:50.872510,1.0,1.0,364.0
2022-01-28-09:41:50.872510,1.0,1.0,364.0
2022-01-28-09:41:50.873535,1.0,1.0,364.0
2022-01-28-09:41:50.874777,7.0,3.0,364.0
2022-01-28-09:41:50.874777,9.0,15.0,364.0
2022-01-28-09:41:50.875833,1.0,9.0,364.0
2022-01-28-09:41:50.876832,1.0,9.0,364.0
2022-01-28-09:41:50.877826,1.0,9.0,364.0
2022-01-28-09:41:50.878826,6.0,11.0,364.0
2022-01-28-09:41:50.879821,7.0,9.0,364.0
2022-01-28-09:41:50.880817,12.0,9.0,364.0
2022-01-28-09:41:50.881810,12.0,9.0,364.0
2022-01-28-09:41:50.882805,10.0,4.0,364.0
2022-01-28-09:41:50.883802,4.0,11.0,364.0
2022-01-28-09:41:50.884799,4.0,10.0,364.0
2022-01-28-09:41:50.885751,4.0,10.0,364.0
2022-01-28-09:41:50.886747,0.0,14.0,364.0
2022-01-28-09:41:50.887781,2.0,16.0,365.0
2022-01-28-09:41:50.888769,2.0,16.0,365.0
2022-01-28-09:41:50.889765,2.0,16.0,365.0
2022-01-28-09:41:50.890737,2.0,14.0,364.0
2022-01-28-09:41:50.891805,7.0,16.0,364.0
2022-01-28-09:41:50.891805,3.0,9.0,364.0
2022-01-28-09:41:50.892830,3.0,9.0,364.0
2022-01-28-09:41:50.893827,3.0,9.0,364.0
2022-01-28-09:41:50.894825,3.0,5.0,364.0
2022-01-28-09:41:50.895822,6.0,2.0,364.0
2022-01-28-09:41:50.896793,12.0,7.0,364.0
2022-01-28-09:41:50.898824,12.0,7.0,364.0
2022-01-28-09:41:50.898824,6.0,11.0,364.0
2022-01-28-09:41:50.899832,6.0,11.0,364.0
2022-01-28-09:41:50.900829,6.0,11.0,364.0
2022-01-28-09:41:50.901981,6.0,11.0,364.0
2022-01-28-09:41:50.901981,2.0,24.0,364.0
2022-01-28-09:41:50.903014,2.0,24.0,364.0
2022-01-28-09:41:50.904127,2.0,0.0,364.0
2022-01-28-09:41:50.904127,2.0,0.0,364.0
2022-01-28-09:41:50.905182,2.0,0.0,364.0
2022-01-28-09:41:50.906181,2.0,0.0,364.0
2022-01-28-09:41:50.907130,1.0,1.0,364.0
2022-01-28-09:41:50.908377,2.0,9.0,364.0
2022-01-28-09:41:50.908377,4.0,12.0,364.0
2022-01-28-09:41:50.909431,3.0,8.0,364.0
2022-01-28-09:41:50.910431,3.0,8.0,364.0
2022-01-28-09:41:50.911428,2.0,5.0,364.0
2022-01-28-09:41:50.912423,9.0,9.0,364.0
2022-01-28-09:41:50.913422,9.0,9.0,364.0
2022-01-28-09:41:50.914418,9.0,9.0,364.0
2022-01-28-09:41:50.915416,9.0,0.0,364.0
2022-01-28-09:41:50.916415,9.0,13.0,364.0
2022-01-28-09:41:50.917425,9.0,13.0,364.0
2022-01-28-09:41:50.917602,9.0,13.0,364.0
2022-01-28-09:41:50.917602,9.0,13.0,364.0
2022-01-28-09:41:50.918792,9.0,13.0,364.0
2022-01-28-09:41:50.918792,5.0,14.0,364.0
2022-01-28-09:41:50.919824,1.0,16.0,364.0
2022-01-28-09:41:50.920824,1.0,10.0,364.0
2022-01-28-09:41:50.921868,1.0,10.0,364.0
2022-01-28-09:41:50.921868,1.0,10.0,364.0
2022-01-28-09:41:50.923110,1.0,10.0,364.0
2022-01-28-09:41:50.923110,1.0,4.0,364.0
2022-01-28-09:41:50.924144,2.0,2.0,364.0
2022-01-28-09:41:50.925162,2.0,2.0,364.0
2022-01-28-09:41:50.926175,2.0,2.0,364.0
2022-01-28-09:41:50.927161,8.0,3.0,364.0
2022-01-28-09:41:50.928160,9.0,11.0,364.0
2022-01-28-09:41:50.929151,10.0,10.0,364.0
2022-01-28-09:41:50.930150,10.0,10.0,364.0
2022-01-28-09:41:50.931125,10.0,10.0,364.0
2022-01-28-09:41:50.932143,3.0,9.0,365.0
2022-01-28-09:41:50.934082,3.0,9.0,365.0
2022-01-28-09:41:50.934082,3.0,9.0,365.0
2022-01-28-09:41:50.935116,1.0,17.0,364.0
2022-01-28-09:41:50.936219,4.0,12.0,365.0
2022-01-28-09:41:50.936219,4.0,12.0,365.0
2022-01-28-09:41:50.937275,4.0,12.0,365.0
2022-01-28-09:41:50.938309,4.0,12.0,365.0
2022-01-28-09:41:50.938309,4.0,12.0,365.0
2022-01-28-09:41:50.939355,4.0,12.0,365.0
2022-01-28-09:41:50.940335,7.0,5.0,364.0
2022-01-28-09:41:50.941350,3.0,7.0,364.0
2022-01-28-09:41:50.942349,3.0,7.0,364.0
2022-01-28-09:41:50.943344,3.0,7.0,364.0
2022-01-28-09:41:50.944342,3.0,2.0,364.0
2022-01-28-09:41:50.945341,7.0,4.0,364.0
2022-01-28-09:41:50.946343,10.0,12.0,364.0
2022-01-28-09:41:50.947334,10.0,12.0,364.0
2022-01-28-09:41:50.948285,3.0,4.0,364.0
2022-01-28-09:41:50.949309,3.0,4.0,364.0
2022-01-28-09:41:50.950306,3.0,4.0,364.0
2022-01-28-09:41:50.951303,3.0,4.0,364.0
2022-01-28-09:41:50.952299,4.0,15.0,364.0
2022-01-28-09:41:50.953302,2.0,17.0,364.0
2022-01-28-09:41:50.954296,0.0,10.0,364.0
2022-01-28-09:41:50.955450,0.0,10.0,364.0
2022-01-28-09:41:50.955450,4.0,12.0,365.0
2022-01-28-09:41:50.956484,5.0,7.0,364.0
2022-01-28-09:41:50.957480,3.0,1.0,364.0
2022-01-28-09:41:50.958498,3.0,1.0,364.0
2022-01-28-09:41:50.959497,3.0,1.0,364.0
2022-01-28-09:41:50.960495,2.0,2.0,364.0
2022-01-28-09:41:50.961491,7.0,8.0,364.0
2022-01-28-09:41:50.962489,8.0,8.0,364.0
2022-01-28-09:41:50.963433,8.0,8.0,364.0
2022-01-28-09:41:50.965474,13.0,7.0,364.0
2022-01-28-09:41:50.965474,11.0,2.0,364.0
2022-01-28-09:41:50.966470,10.0,5.0,364.0
2022-01-28-09:41:50.967468,7.0,11.0,364.0
2022-01-28-09:41:50.968466,0.0,19.0,364.0
2022-01-28-09:41:50.969508,4.0,12.0,364.0
2022-01-28-09:41:50.969508,1.0,12.0,364.0
2022-01-28-09:41:50.970559,1.0,12.0,364.0
2022-01-28-09:41:50.971703,1.0,12.0,364.0
2022-01-28-09:41:50.971703,2.0,12.0,365.0
2022-01-28-09:41:50.972750,5.0,12.0,364.0
2022-01-28-09:41:50.973701,5.0,14.0,364.0
2022-01-28-09:41:50.974745,5.0,14.0,364.0
2022-01-28-09:41:50.975743,5.0,14.0,364.0
2022-01-28-09:41:50.976743,4.0,9.0,364.0
2022-01-28-09:41:50.977737,5.0,13.0,364.0
2022-01-28-09:41:50.978719,4.0,8.0,364.0
2022-01-28-09:41:50.979709,4.0,8.0,364.0
2022-01-28-09:41:50.980681,7.0,23.0,364.0
2022-01-28-09:41:50.981679,4.0,22.0,365.0
2022-01-28-09:41:50.982702,4.0,22.0,365.0
2022-01-28-09:41:50.983673,4.0,22.0,365.0
2022-01-28-09:41:50.984697,1.0,14.0,364.0
2022-01-28-09:41:50.985694,1.0,14.0,364.0
2022-01-28-09:41:50.986693,1.0,14.0,364.0
2022-01-28-09:41:50.987663,1.0,14.0,364.0
2022-01-28-09:41:50.988686,4.0,14.0,364.0
2022-01-28-09:41:50.989683,6.0,7.0,364.0
2022-01-28-09:41:50.990655,6.0,7.0,364.0
2022-01-28-09:41:50.991685,6.0,7.0,364.0
2022-01-28-09:41:50.992675,4.0,5.0,364.0
2022-01-28-09:41:50.993673,4.0,10.0,364.0
2022-01-28-09:41:50.994672,4.0,10.0,364.0
2022-01-28-09:41:50.995641,4.0,10.0,364.0
2022-01-28-09:41:50.996689,4.0,10.0,364.0
2022-01-28-09:41:50.997683,8.0,5.0,364.0
2022-01-28-09:41:50.998680,9.0,2.0,364.0
2022-01-28-09:41:50.999678,9.0,2.0,364.0
2022-01-28-09:41:51.000652,6.0,13.0,364.0
2022-01-28-09:41:51.002622,1.0,19.0,364.0
2022-01-28-09:41:51.002622,1.0,19.0,364.0
2022-01-28-09:41:51.003770,2.0,16.0,364.0
2022-01-28-09:41:51.003770,2.0,16.0,364.0
2022-01-28-09:41:51.004818,2.0,16.0,364.0
2022-01-28-09:41:51.005813,3.0,15.0,364.0
2022-01-28-09:41:51.006782,1.0,8.0,364.0
2022-01-28-09:41:51.007788,3.0,5.0,364.0
2022-01-28-09:41:51.008785,3.0,5.0,364.0
2022-01-28-09:41:51.009781,7.0,9.0,364.0
2022-01-28-09:41:51.010779,10.0,12.0,364.0
2022-01-28-09:41:51.011797,10.0,12.0,364.0
2022-01-28-09:41:51.012796,10.0,12.0,364.0
2022-01-28-09:41:51.013793,7.0,12.0,364.0
2022-01-28-09:41:51.014793,8.0,5.0,364.0
2022-01-28-09:41:51.015787,10.0,3.0,364.0
2022-01-28-09:41:51.016785,10.0,3.0,364.0
2022-01-28-09:41:51.017783,8.0,12.0,364.0
2022-01-28-09:41:51.018780,2.0,22.0,364.0
2022-01-28-09:41:51.019777,1.0,18.0,364.0
2022-01-28-09:41:51.020775,1.0,18.0,364.0
2022-01-28-09:41:51.021772,1.0,11.0,364.0
2022-01-28-09:41:51.022769,1.0,8.0,364.0
2022-01-28-09:41:51.023719,2.0,8.0,364.0
2022-01-28-09:41:51.024763,2.0,8.0,364.0
2022-01-28-09:41:51.025762,2.0,6.0,364.0
2022-01-28-09:41:51.026761,7.0,3.0,364.0
2022-01-28-09:41:51.027790,8.0,9.0,364.0
2022-01-28-09:41:51.027790,8.0,9.0,364.0
2022-01-28-09:41:51.028821,8.0,9.0,364.0
2022-01-28-09:41:51.029818,9.0,10.0,364.0
2022-01-28-09:41:51.030817,11.0,4.0,363.0
2022-01-28-09:41:51.031814,13.0,2.0,364.0
2022-01-28-09:41:51.032813,13.0,2.0,364.0
2022-01-28-09:41:51.033809,10.0,3.0,364.0
2022-01-28-09:41:51.034806,5.0,11.0,364.0
2022-01-28-09:41:51.036800,3.0,19.0,365.0
2022-01-28-09:41:51.036800,1.0,9.0,364.0
2022-01-28-09:41:51.037798,2.0,9.0,364.0
2022-01-28-09:41:51.038788,5.0,10.0,364.0
2022-01-28-09:41:51.039790,5.0,10.0,364.0
2022-01-28-09:41:51.040783,5.0,10.0,364.0
2022-01-28-09:41:51.041828,5.0,10.0,364.0
2022-01-28-09:41:51.041828,5.0,6.0,364.0
2022-01-28-09:41:51.042991,9.0,3.0,364.0
2022-01-28-09:41:51.042991,9.0,3.0,364.0
2022-01-28-09:41:51.044039,9.0,3.0,364.0
2022-01-28-09:41:51.045010,9.0,3.0,364.0
2022-01-28-09:41:51.046035,8.0,10.0,364.0
2022-01-28-09:41:51.047030,9.0,19.0,364.0
2022-01-28-09:41:51.048029,15.0,5.0,364.0
2022-01-28-09:41:51.049040,15.0,5.0,364.0
2022-01-28-09:41:51.050023,15.0,5.0,364.0
2022-01-28-09:41:51.050974,0.0,19.0,364.0
2022-01-28-09:41:51.052016,0.0,19.0,364.0
2022-01-28-09:41:51.053018,0.0,19.0,364.0
2022-01-28-09:41:51.054013,0.0,19.0,364.0
2022-01-28-09:41:51.055011,1.0,9.0,364.0
2022-01-28-09:41:51.056005,2.0,8.0,364.0
2022-01-28-09:41:51.056981,2.0,8.0,364.0
2022-01-28-09:41:51.058017,2.0,8.0,364.0
2022-01-28-09:41:51.058017,3.0,5.0,364.0
2022-01-28-09:41:51.059052,5.0,3.0,365.0
2022-01-28-09:41:51.060086,5.0,3.0,365.0
2022-01-28-09:41:51.061081,5.0,3.0,365.0
2022-01-28-09:41:51.062081,5.0,3.0,365.0
2022-01-28-09:41:51.063323,3.0,9.0,364.0
2022-01-28-09:41:51.063323,5.0,13.0,364.0
2022-01-28-09:41:51.064469,14.0,8.0,364.0
2022-01-28-09:41:51.064469,14.0,8.0,364.0
2022-01-28-09:41:51.065487,14.0,8.0,364.0
2022-01-28-09:41:51.066514,10.0,1.0,364.0
2022-01-28-09:41:51.067510,10.0,1.0,364.0
2022-01-28-09:41:51.069515,2.0,19.0,364.0
2022-01-28-09:41:51.069825,2.0,12.0,364.0
2022-01-28-09:41:51.069825,2.0,12.0,364.0
2022-01-28-09:41:51.070871,2.0,12.0,364.0
2022-01-28-09:41:51.071868,2.0,12.0,364.0
2022-01-28-09:41:51.072866,2.0,12.0,364.0
2022-01-28-09:41:51.073832,2.0,12.0,364.0
2022-01-28-09:41:51.074843,3.0,12.0,364.0
2022-01-28-09:41:51.075858,3.0,5.0,364.0
2022-01-28-09:41:51.076855,2.0,1.0,364.0
2022-01-28-09:41:51.078018,2.0,1.0,364.0
2022-01-28-09:41:51.078018,6.0,3.0,364.0
2022-01-28-09:41:51.079072,13.0,13.0,364.0
2022-01-28-09:41:51.080077,13.0,8.0,364.0
2022-01-28-09:41:51.081120,13.0,8.0,364.0
2022-01-28-09:41:51.081120,13.0,8.0,364.0
2022-01-28-09:41:51.082167,13.0,8.0,364.0
2022-01-28-09:41:51.083483,13.0,4.0,364.0
2022-01-28-09:41:51.083483,13.0,4.0,364.0
2022-01-28-09:41:51.084516,7.0,23.0,364.0
2022-01-28-09:41:51.085538,7.0,23.0,364.0
2022-01-28-09:41:51.086532,7.0,23.0,364.0
2022-01-28-09:41:51.087529,2.0,24.0,364.0
2022-01-28-09:41:51.088526,1.0,13.0,364.0
2022-01-28-09:41:51.089502,3.0,6.0,365.0
2022-01-28-09:41:51.090650,3.0,6.0,365.0
2022-01-28-09:41:51.090650,2.0,5.0,364.0
2022-01-28-09:41:51.091675,4.0,2.0,364.0
2022-01-28-09:41:51.092673,5.0,4.0,364.0
2022-01-28-09:41:51.093674,5.0,4.0,364.0
2022-01-28-09:41:51.094820,5.0,4.0,364.0
2022-01-28-09:41:51.094820,5.0,11.0,364.0
2022-01-28-09:41:51.095844,6.0,7.0,364.0
2022-01-28-09:41:51.096844,6.0,11.0,364.0
2022-01-28-09:41:51.097844,6.0,11.0,364.0
2022-01-28-09:41:51.098837,6.0,11.0,364.0
2022-01-28-09:41:51.100805,9.0,2.0,364.0
2022-01-28-09:41:51.100805,1.0,14.0,364.0
2022-01-28-09:41:51.101803,1.0,14.0,364.0
2022-01-28-09:41:51.102848,1.0,14.0,364.0
2022-01-28-09:41:51.103848,4.0,17.0,364.0
2022-01-28-09:41:51.104795,2.0,9.0,364.0
2022-01-28-09:41:51.105818,4.0,16.0,364.0
2022-01-28-09:41:51.106791,4.0,16.0,364.0
2022-01-28-09:41:51.107814,4.0,5.0,364.0
2022-01-28-09:41:51.108810,6.0,9.0,364.0
2022-01-28-09:41:51.109807,6.0,9.0,364.0
2022-01-28-09:41:51.110806,6.0,9.0,364.0
2022-01-28-09:41:51.111802,3.0,4.0,364.0
2022-01-28-09:41:51.112840,10.0,5.0,364.0
2022-01-28-09:41:51.112840,11.0,4.0,364.0
2022-01-28-09:41:51.113865,11.0,4.0,364.0
2022-01-28-09:41:51.114864,11.0,4.0,364.0
2022-01-28-09:41:51.115860,8.0,3.0,364.0
2022-01-28-09:41:51.116858,9.0,4.0,364.0
2022-01-28-09:41:51.117864,6.0,10.0,364.0
2022-01-28-09:41:51.117864,6.0,10.0,364.0
2022-01-28-09:41:51.118897,6.0,10.0,364.0
2022-01-28-09:41:51.119895,5.0,15.0,365.0
2022-01-28-09:41:51.121080,2.0,17.0,364.0
2022-01-28-09:41:51.121080,1.0,18.0,364.0
2022-01-28-09:41:51.122106,1.0,11.0,365.0
2022-01-28-09:41:51.123103,1.0,11.0,365.0
2022-01-28-09:41:51.124100,3.0,7.0,364.0
2022-01-28-09:41:51.125148,2.0,8.0,364.0
2022-01-28-09:41:51.125148,2.0,5.0,364.0
2022-01-28-09:41:51.126173,2.0,5.0,364.0
2022-01-28-09:41:51.127171,2.0,5.0,364.0
2022-01-28-09:41:51.128169,5.0,8.0,364.0
2022-01-28-09:41:51.129166,10.0,9.0,365.0
2022-01-28-09:41:51.130163,9.0,9.0,364.0
2022-01-28-09:41:51.131315,9.0,9.0,364.0
2022-01-28-09:41:51.131315,11.0,6.0,364.0
2022-01-28-09:41:51.132340,10.0,7.0,364.0
2022-01-28-09:41:51.133339,4.0,15.0,365.0
2022-01-28-09:41:51.134335,4.0,15.0,365.0
2022-01-28-09:41:51.135333,4.0,15.0,365.0
2022-01-28-09:41:51.137327,2.0,19.0,364.0
2022-01-28-09:41:51.137327,1.0,10.0,364.0
2022-01-28-09:41:51.138324,1.0,10.0,364.0
2022-01-28-09:41:51.139296,1.0,10.0,364.0
2022-01-28-09:41:51.140340,4.0,8.0,364.0
2022-01-28-09:41:51.141339,4.0,10.0,364.0
2022-01-28-09:41:51.142423,0.0,3.0,364.0
2022-01-28-09:41:51.142423,0.0,3.0,364.0
2022-01-28-09:41:51.143482,0.0,3.0,364.0
2022-01-28-09:41:51.144475,4.0,5.0,364.0
2022-01-28-09:41:51.145472,10.0,6.0,364.0
2022-01-28-09:41:51.146470,9.0,5.0,364.0
2022-01-28-09:41:51.147608,9.0,5.0,364.0
2022-01-28-09:41:51.147608,13.0,2.0,364.0
2022-01-28-09:41:51.148655,9.0,8.0,365.0
2022-01-28-09:41:51.149654,3.0,17.0,364.0
2022-01-28-09:41:51.150652,3.0,17.0,364.0
2022-01-28-09:41:51.151599,3.0,17.0,364.0
2022-01-28-09:41:51.152624,5.0,2.0,364.0
2022-01-28-09:41:51.153595,4.0,10.0,364.0
2022-01-28-09:41:51.154591,4.0,10.0,364.0
2022-01-28-09:41:51.155591,4.0,10.0,364.0
2022-01-28-09:41:51.156632,7.0,9.0,365.0
2022-01-28-09:41:51.157712,8.0,8.0,364.0
2022-01-28-09:41:51.157712,8.0,8.0,364.0
2022-01-28-09:41:51.158739,8.0,8.0,364.0
2022-01-28-09:41:51.159883,8.0,8.0,364.0
2022-01-28-09:41:51.159883,3.0,1.0,364.0
2022-01-28-09:41:51.160907,7.0,11.0,364.0
2022-01-28-09:41:51.161906,13.0,9.0,364.0
2022-01-28-09:41:51.162906,13.0,9.0,364.0
2022-01-28-09:41:51.163874,13.0,9.0,364.0
2022-01-28-09:41:51.164898,8.0,8.0,364.0
2022-01-28-09:41:51.165895,7.0,11.0,364.0
2022-01-28-09:41:51.166892,3.0,20.0,364.0
2022-01-28-09:41:51.167871,3.0,20.0,364.0
2022-01-28-09:41:51.168861,2.0,23.0,364.0
2022-01-28-09:41:51.170855,4.0,9.0,364.0
2022-01-28-09:41:51.170855,4.0,9.0,364.0
2022-01-28-09:41:51.171877,4.0,9.0,364.0
2022-01-28-09:41:51.172877,5.0,8.0,364.0
2022-01-28-09:41:51.173849,1.0,2.0,364.0
2022-01-28-09:41:51.174930,1.0,2.0,364.0
2022-01-28-09:41:51.174930,1.0,2.0,364.0
2022-01-28-09:41:51.175976,1.0,2.0,364.0
2022-01-28-09:41:51.176978,1.0,2.0,364.0
2022-01-28-09:41:51.177971,3.0,3.0,364.0
2022-01-28-09:41:51.178970,4.0,7.0,364.0
2022-01-28-09:41:51.179966,6.0,13.0,364.0
2022-01-28-09:41:51.180964,6.0,13.0,364.0
2022-01-28-09:41:51.181969,11.0,8.0,364.0
2022-01-28-09:41:51.182959,10.0,1.0,364.0
2022-01-28-09:41:51.183908,7.0,7.0,365.0
2022-01-28-09:41:51.185178,6.0,20.0,364.0
2022-01-28-09:41:51.185178,4.0,22.0,364.0
2022-01-28-09:41:51.186224,6.0,7.0,365.0
2022-01-28-09:41:51.187226,6.0,7.0,365.0
2022-01-28-09:41:51.188259,6.0,7.0,365.0
2022-01-28-09:41:51.188259,6.0,7.0,365.0
2022-01-28-09:41:51.189316,3.0,6.0,364.0
2022-01-28-09:41:51.190264,3.0,8.0,364.0
2022-01-28-09:41:51.191288,3.0,8.0,364.0
2022-01-28-09:41:51.192284,3.0,8.0,364.0
2022-01-28-09:41:51.193282,3.0,8.0,364.0
2022-01-28-09:41:51.194279,4.0,2.0,364.0
2022-01-28-09:41:51.195276,11.0,11.0,364.0
2022-01-28-09:41:51.196273,11.0,11.0,364.0
2022-01-28-09:41:51.197272,11.0,11.0,364.0
2022-01-28-09:41:51.198234,8.0,11.0,364.0
2022-01-28-09:41:51.199287,10.0,8.0,364.0
2022-01-28-09:41:51.200283,10.0,8.0,364.0
2022-01-28-09:41:51.202258,9.0,15.0,364.0
2022-01-28-09:41:51.202258,3.0,11.0,364.0
2022-01-28-09:41:51.203275,2.0,2.0,364.0
2022-01-28-09:41:51.204281,2.0,2.0,364.0
2022-01-28-09:41:51.205273,2.0,2.0,364.0
2022-01-28-09:41:51.206267,2.0,5.0,364.0
2022-01-28-09:41:51.207248,4.0,6.0,364.0
2022-01-28-09:41:51.208300,4.0,6.0,364.0
2022-01-28-09:41:51.208300,4.0,6.0,364.0
2022-01-28-09:41:51.209357,4.0,6.0,364.0
2022-01-28-09:41:51.210352,5.0,2.0,364.0
2022-01-28-09:41:51.211350,9.0,6.0,364.0
2022-01-28-09:41:51.212347,10.0,8.0,364.0
2022-01-28-09:41:51.213344,10.0,8.0,364.0
2022-01-28-09:41:51.214320,14.0,6.0,364.0
2022-01-28-09:41:51.215338,9.0,9.0,364.0
2022-01-28-09:41:51.216335,9.0,9.0,364.0
2022-01-28-09:41:51.217377,9.0,9.0,364.0
2022-01-28-09:41:51.217377,5.0,22.0,364.0
2022-01-28-09:41:51.218411,3.0,12.0,364.0
2022-01-28-09:41:51.219428,3.0,12.0,364.0
2022-01-28-09:41:51.220426,3.0,12.0,364.0
2022-01-28-09:41:51.221423,3.0,12.0,364.0
2022-01-28-09:41:51.222421,1.0,2.0,364.0
2022-01-28-09:41:51.223419,2.0,7.0,364.0
2022-01-28-09:41:51.224419,2.0,3.0,364.0
2022-01-28-09:41:51.225418,2.0,3.0,364.0
2022-01-28-09:41:51.226411,4.0,7.0,364.0
2022-01-28-09:41:51.227454,2.0,6.0,364.0
2022-01-28-09:41:51.227454,7.0,5.0,364.0
2022-01-28-09:41:51.228509,7.0,5.0,364.0
2022-01-28-09:41:51.229451,7.0,5.0,364.0
2022-01-28-09:41:51.230539,9.0,9.0,364.0
2022-01-28-09:41:51.230539,12.0,1.0,364.0
2022-01-28-09:41:51.231586,11.0,4.0,364.0
2022-01-28-09:41:51.232582,11.0,4.0,364.0
2022-01-28-09:41:51.233583,11.0,4.0,364.0
2022-01-28-09:41:51.234530,3.0,24.0,364.0
2022-01-28-09:41:51.235759,2.0,10.0,364.0
2022-01-28-09:41:51.235759,2.0,10.0,364.0
2022-01-28-09:41:51.237756,2.0,10.0,364.0
2022-01-28-09:41:51.237756,5.0,8.0,365.0
2022-01-28-09:41:51.238906,1.0,7.0,365.0
2022-01-28-09:41:51.238906,2.0,1.0,365.0
2022-01-28-09:41:51.239962,2.0,1.0,365.0
2022-01-28-09:41:51.240957,2.0,1.0,365.0
2022-01-28-09:41:51.241955,2.0,1.0,365.0
2022-01-28-09:41:51.242952,0.0,2.0,364.0
2022-01-28-09:41:51.243950,2.0,2.0,364.0
2022-01-28-09:41:51.244948,4.0,1.0,364.0
2022-01-28-09:41:51.245952,9.0,7.0,364.0
2022-01-28-09:41:51.246942,10.0,11.0,364.0
2022-01-28-09:41:51.247978,9.0,2.0,364.0
2022-01-28-09:41:51.247978,8.0,4.0,365.0
2022-01-28-09:41:51.249014,8.0,4.0,365.0
2022-01-28-09:41:51.249976,8.0,4.0,365.0
2022-01-28-09:41:51.251009,10.0,15.0,364.0
2022-01-28-09:41:51.252233,3.0,12.0,365.0
2022-01-28-09:41:51.252233,3.0,12.0,365.0
2022-01-28-09:41:51.253375,3.0,12.0,365.0
2022-01-28-09:41:51.253375,3.0,12.0,365.0
2022-01-28-09:41:51.254508,3.0,12.0,365.0
2022-01-28-09:41:51.254508,2.0,8.0,364.0
2022-01-28-09:41:51.255542,2.0,8.0,364.0
2022-01-28-09:41:51.256537,2.0,2.0,364.0
2022-01-28-09:41:51.257557,2.0,2.0,364.0
2022-01-28-09:41:51.258554,2.0,2.0,364.0
2022-01-28-09:41:51.259552,4.0,10.0,364.0
2022-01-28-09:41:51.260649,6.0,7.0,364.0
2022-01-28-09:41:51.260649,6.0,7.0,364.0
2022-01-28-09:41:51.261704,6.0,7.0,364.0
2022-01-28-09:41:51.262703,6.0,7.0,364.0
2022-01-28-09:41:51.263698,9.0,13.0,364.0
2022-01-28-09:41:51.264892,11.0,5.0,364.0
2022-01-28-09:41:51.265035,8.0,0.0,364.0
2022-01-28-09:41:51.265035,8.0,0.0,364.0
2022-01-28-09:41:51.266081,8.0,0.0,364.0
2022-01-28-09:41:51.267079,8.0,0.0,364.0
2022-01-28-09:41:51.269074,8.0,4.0,364.0
2022-01-28-09:41:51.269730,3.0,22.0,364.0
2022-01-28-09:41:51.269886,1.0,17.0,364.0
2022-01-28-09:41:51.269886,1.0,17.0,364.0
2022-01-28-09:41:51.271105,1.0,17.0,364.0
2022-01-28-09:41:51.271105,3.0,14.0,364.0
2022-01-28-09:41:51.272162,3.0,7.0,364.0
2022-01-28-09:41:51.273156,3.0,5.0,364.0
2022-01-28-09:41:51.274099,3.0,5.0,364.0
2022-01-28-09:41:51.275150,3.0,5.0,364.0
2022-01-28-09:41:51.276148,3.0,9.0,364.0
2022-01-28-09:41:51.277146,4.0,0.0,364.0
2022-01-28-09:41:51.278143,7.0,9.0,364.0
2022-01-28-09:41:51.279140,7.0,9.0,364.0
2022-01-28-09:41:51.280140,7.0,15.0,364.0
2022-01-28-09:41:51.281135,12.0,9.0,364.0
2022-01-28-09:41:51.282125,13.0,2.0,364.0
2022-01-28-09:41:51.283121,13.0,2.0,364.0
2022-01-28-09:41:51.284119,9.0,9.0,364.0
2022-01-28-09:41:51.285332,2.0,20.0,364.0
2022-01-28-09:41:51.285588,2.0,20.0,364.0
2022-01-28-09:41:51.285588,2.0,20.0,364.0
2022-01-28-09:41:51.286643,2.0,20.0,364.0
2022-01-28-09:41:51.287631,1.0,11.0,364.0
2022-01-28-09:41:51.288828,1.0,3.0,364.0
2022-01-28-09:41:51.288957,0.0,1.0,365.0
2022-01-28-09:41:51.288957,0.0,1.0,365.0
2022-01-28-09:41:51.290003,0.0,1.0,365.0
2022-01-28-09:41:51.291003,0.0,1.0,365.0
2022-01-28-09:41:51.291962,3.0,2.0,364.0
2022-01-28-09:41:51.293182,4.0,6.0,364.0
2022-01-28-09:41:51.293328,8.0,4.0,364.0
2022-01-28-09:41:51.293328,8.0,4.0,364.0
2022-01-28-09:41:51.294374,8.0,4.0,364.0
2022-01-28-09:41:51.295373,8.0,4.0,364.0
2022-01-28-09:41:51.296369,6.0,12.0,364.0
2022-01-28-09:41:51.297370,13.0,12.0,365.0
2022-01-28-09:41:51.298367,10.0,3.0,364.0
2022-01-28-09:41:51.299361,10.0,3.0,364.0
2022-01-28-09:41:51.300358,12.0,3.0,364.0
2022-01-28-09:41:51.301309,12.0,19.0,364.0
2022-01-28-09:41:51.302306,7.0,16.0,365.0
2022-01-28-09:41:51.304300,0.0,11.0,364.0
2022-01-28-09:41:51.304300,2.0,2.0,364.0
2022-01-28-09:41:51.305299,2.0,2.0,364.0
2022-01-28-09:41:51.306295,1.0,9.0,365.0
2022-01-28-09:41:51.307321,1.0,9.0,365.0
2022-01-28-09:41:51.308317,3.0,3.0,364.0
2022-01-28-09:41:51.309335,2.0,2.0,365.0
2022-01-28-09:41:51.310327,2.0,2.0,365.0
2022-01-28-09:41:51.311297,2.0,2.0,365.0
2022-01-28-09:41:51.312326,4.0,5.0,364.0
2022-01-28-09:41:51.313327,11.0,15.0,364.0
2022-01-28-09:41:51.314322,8.0,5.0,364.0
2022-01-28-09:41:51.315319,8.0,5.0,364.0
2022-01-28-09:41:51.316316,8.0,7.0,364.0
2022-01-28-09:41:51.317651,9.0,17.0,364.0
2022-01-28-09:41:51.317651,9.0,17.0,364.0
2022-01-28-09:41:51.318699,1.0,22.0,364.0
2022-01-28-09:41:51.319700,1.0,22.0,364.0
2022-01-28-09:41:51.320693,3.0,14.0,364.0
2022-01-28-09:41:51.321690,2.0,11.0,364.0
2022-01-28-09:41:51.322641,4.0,10.0,364.0
2022-01-28-09:41:51.323638,4.0,10.0,364.0
2022-01-28-09:41:51.324636,3.0,2.0,364.0
2022-01-28-09:41:51.325636,0.0,5.0,364.0
2022-01-28-09:41:51.326631,5.0,7.0,364.0
2022-01-28-09:41:51.327628,5.0,7.0,364.0
2022-01-28-09:41:51.328624,7.0,12.0,364.0
2022-01-28-09:41:51.329657,9.0,7.0,364.0
2022-01-28-09:41:51.330654,9.0,7.0,364.0
2022-01-28-09:41:51.331671,9.0,7.0,364.0
2022-01-28-09:41:51.332672,9.0,7.0,364.0
2022-01-28-09:41:51.333666,15.0,0.0,364.0
2022-01-28-09:41:51.334663,10.0,13.0,364.0
2022-01-28-09:41:51.335663,10.0,13.0,364.0
2022-01-28-09:41:51.336639,10.0,13.0,364.0
2022-01-28-09:41:51.338598,4.0,24.0,364.0
2022-01-28-09:41:51.338598,0.0,9.0,364.0
2022-01-28-09:41:51.339630,0.0,9.0,364.0
2022-01-28-09:41:51.340593,0.0,9.0,364.0
2022-01-28-09:41:51.341622,1.0,6.0,364.0
2022-01-28-09:41:51.342625,2.0,1.0,364.0
2022-01-28-09:41:51.343621,6.0,1.0,364.0
2022-01-28-09:41:51.344618,6.0,1.0,364.0
2022-01-28-09:41:51.345612,5.0,1.0,364.0
2022-01-28-09:41:51.346617,10.0,10.0,364.0
2022-01-28-09:41:51.347608,7.0,11.0,364.0
2022-01-28-09:41:51.348606,7.0,11.0,364.0
2022-01-28-09:41:51.349609,11.0,5.0,364.0
2022-01-28-09:41:51.350604,6.0,12.0,364.0
2022-01-28-09:41:51.351588,4.0,18.0,364.0
2022-01-28-09:41:51.352588,4.0,18.0,364.0
2022-01-28-09:41:51.353558,1.0,15.0,364.0
2022-01-28-09:41:51.354603,2.0,6.0,364.0
2022-01-28-09:41:51.355598,2.0,6.0,364.0
2022-01-28-09:41:51.356599,2.0,6.0,364.0
2022-01-28-09:41:51.357549,5.0,4.0,364.0
2022-01-28-09:41:51.358579,2.0,6.0,364.0
2022-01-28-09:41:51.359591,2.0,6.0,364.0
2022-01-28-09:41:51.360539,2.0,6.0,364.0
2022-01-28-09:41:51.361583,2.0,6.0,364.0
2022-01-28-09:41:51.362580,7.0,5.0,364.0
2022-01-28-09:41:51.363577,13.0,9.0,364.0
2022-01-28-09:41:51.364529,13.0,9.0,364.0
2022-01-28-09:41:51.365572,10.0,2.0,364.0
2022-01-28-09:41:51.366570,8.0,7.0,364.0
2022-01-28-09:41:51.367569,1.0,15.0,364.0
2022-01-28-09:41:51.368567,1.0,15.0,364.0
2022-01-28-09:41:51.369542,4.0,13.0,364.0
2022-01-28-09:41:51.370563,4.0,13.0,364.0
2022-01-28-09:41:51.371556,2.0,6.0,364.0
2022-01-28-09:41:51.373504,2.0,6.0,364.0
2022-01-28-09:41:51.373504,3.0,6.0,364.0
2022-01-28-09:41:51.374502,0.0,1.0,364.0
2022-01-28-09:41:51.375499,0.0,1.0,364.0
2022-01-28-09:41:51.376555,0.0,1.0,364.0
2022-01-28-09:41:51.377519,0.0,1.0,364.0
2022-01-28-09:41:51.378516,6.0,7.0,364.0
2022-01-28-09:41:51.379535,12.0,14.0,364.0
2022-01-28-09:41:51.380540,13.0,10.0,364.0
2022-01-28-09:41:51.381530,13.0,10.0,364.0
2022-01-28-09:41:51.382528,10.0,1.0,364.0
2022-01-28-09:41:51.383527,11.0,18.0,364.0
2022-01-28-09:41:51.384522,7.0,23.0,364.0
2022-01-28-09:41:51.385519,7.0,23.0,364.0
2022-01-28-09:41:51.386516,2.0,18.0,364.0
2022-01-28-09:41:51.387494,2.0,5.0,364.0
2022-01-28-09:41:51.388513,2.0,5.0,364.0
2022-01-28-09:41:51.389511,2.0,5.0,364.0
2022-01-28-09:41:51.390460,4.0,8.0,364.0
2022-01-28-09:41:51.391575,3.0,7.0,364.0
2022-01-28-09:41:51.391575,3.0,7.0,364.0
2022-01-28-09:41:51.392622,3.0,7.0,364.0
2022-01-28-09:41:51.393782,3.0,7.0,364.0
2022-01-28-09:41:51.393782,2.0,0.0,364.0
2022-01-28-09:41:51.394833,12.0,13.0,364.0
2022-01-28-09:41:51.395826,13.0,9.0,364.0
2022-01-28-09:41:51.396825,13.0,9.0,364.0
2022-01-28-09:41:51.397820,13.0,9.0,364.0
2022-01-28-09:41:51.398821,15.0,5.0,364.0
2022-01-28-09:41:51.399816,9.0,14.0,364.0
2022-01-28-09:41:51.400791,5.0,16.0,364.0
2022-01-28-09:41:51.401809,5.0,16.0,364.0
2022-01-28-09:41:51.402807,4.0,21.0,364.0
2022-01-28-09:41:51.403804,0.0,12.0,364.0
2022-01-28-09:41:51.404804,1.0,9.0,364.0
2022-01-28-09:41:51.406749,1.0,9.0,364.0
2022-01-28-09:41:51.406749,1.0,3.0,364.0
2022-01-28-09:41:51.407747,3.0,4.0,364.0
2022-01-28-09:41:51.408773,4.0,5.0,364.0
2022-01-28-09:41:51.409768,4.0,5.0,364.0
2022-01-28-09:41:51.410763,6.0,1.0,364.0
2022-01-28-09:41:51.411760,9.0,9.0,364.0
2022-01-28-09:41:51.412761,10.0,7.0,364.0
2022-01-28-09:41:51.413731,10.0,7.0,364.0
2022-01-28-09:41:51.414754,12.0,2.0,364.0
2022-01-28-09:41:51.415751,10.0,1.0,364.0
2022-01-28-09:41:51.416748,6.0,13.0,364.0
2022-01-28-09:41:51.417719,6.0,13.0,364.0
2022-01-28-09:41:51.418742,6.0,21.0,364.0
2022-01-28-09:41:51.419739,2.0,12.0,364.0
2022-01-28-09:41:51.420741,1.0,12.0,364.0
2022-01-28-09:41:51.421900,1.0,12.0,364.0
2022-01-28-09:41:51.421900,1.0,12.0,364.0
2022-01-28-09:41:51.422925,5.0,9.0,364.0
2022-01-28-09:41:51.423898,3.0,2.0,365.0
2022-01-28-09:41:51.424922,3.0,2.0,365.0
2022-01-28-09:41:51.425895,3.0,2.0,365.0
2022-01-28-09:41:51.426915,6.0,3.0,364.0
2022-01-28-09:41:51.427911,8.0,8.0,365.0
2022-01-28-09:41:51.428909,10.0,9.0,364.0
2022-01-28-09:41:51.429907,10.0,9.0,364.0
2022-01-28-09:41:51.430903,10.0,9.0,364.0
2022-01-28-09:41:51.431900,10.0,7.0,364.0
2022-01-28-09:41:51.432900,6.0,17.0,364.0
2022-01-28-09:41:51.433894,6.0,17.0,364.0
2022-01-28-09:41:51.434895,6.0,17.0,364.0
2022-01-28-09:41:51.435929,1.0,18.0,364.0
2022-01-28-09:41:51.435929,1.0,12.0,364.0
2022-01-28-09:41:51.436954,0.0,13.0,364.0
2022-01-28-09:41:51.437950,0.0,13.0,364.0
2022-01-28-09:41:51.438950,0.0,13.0,364.0
2022-01-28-09:41:51.439975,5.0,5.0,364.0
2022-01-28-09:41:51.440975,5.0,5.0,364.0
2022-01-28-09:41:51.440975,5.0,5.0,364.0
2022-01-28-09:41:51.442121,5.0,5.0,364.0
2022-01-28-09:41:51.442121,5.0,5.0,364.0
2022-01-28-09:41:51.443170,5.0,5.0,364.0
2022-01-28-09:41:51.444165,2.0,3.0,365.0
2022-01-28-09:41:51.445162,9.0,10.0,364.0
2022-01-28-09:41:51.446163,11.0,15.0,364.0
2022-01-28-09:41:51.447157,14.0,10.0,364.0
2022-01-28-09:41:51.448154,12.0,9.0,364.0
2022-01-28-09:41:51.449151,11.0,4.0,364.0
2022-01-28-09:41:51.450149,8.0,5.0,364.0
2022-01-28-09:41:51.451294,8.0,5.0,364.0
2022-01-28-09:41:51.451294,1.0,13.0,364.0
2022-01-28-09:41:51.452343,2.0,13.0,364.0
2022-01-28-09:41:51.453337,2.0,13.0,364.0
2022-01-28-09:41:51.454328,2.0,13.0,364.0
2022-01-28-09:41:51.455342,2.0,13.0,364.0
2022-01-28-09:41:51.456337,5.0,11.0,364.0
2022-01-28-09:41:51.457282,5.0,6.0,364.0
2022-01-28-09:41:51.458332,5.0,6.0,364.0
2022-01-28-09:41:51.459329,5.0,6.0,364.0
2022-01-28-09:41:51.460326,7.0,9.0,364.0
2022-01-28-09:41:51.461326,7.0,7.0,364.0
2022-01-28-09:41:51.462322,10.0,22.0,364.0
2022-01-28-09:41:51.463477,10.0,22.0,364.0
2022-01-28-09:41:51.463477,12.0,14.0,364.0
2022-01-28-09:41:51.464523,18.0,3.0,364.0
2022-01-28-09:41:51.465624,11.0,0.0,364.0
2022-01-28-09:41:51.465624,11.0,0.0,364.0
2022-01-28-09:41:51.466671,11.0,0.0,364.0
2022-01-28-09:41:51.467838,11.0,0.0,364.0
2022-01-28-09:41:51.467838,4.0,4.0,365.0
2022-01-28-09:41:51.468898,1.0,19.0,364.0
2022-01-28-09:41:51.469884,4.0,10.0,364.0
2022-01-28-09:41:51.470879,4.0,10.0,364.0
2022-01-28-09:41:51.472164,4.0,10.0,364.0
2022-01-28-09:41:51.473164,3.0,6.0,364.0
2022-01-28-09:41:51.473164,3.0,6.0,364.0
2022-01-28-09:41:51.474208,3.0,6.0,364.0
2022-01-28-09:41:51.475159,3.0,6.0,364.0
2022-01-28-09:41:51.476203,4.0,6.0,364.0
2022-01-28-09:41:51.477200,9.0,9.0,364.0
2022-01-28-09:41:51.478199,9.0,9.0,364.0
2022-01-28-09:41:51.479165,9.0,9.0,364.0
2022-01-28-09:41:51.480196,10.0,12.0,364.0
2022-01-28-09:41:51.481195,15.0,2.0,364.0
2022-01-28-09:41:51.482189,12.0,5.0,364.0
2022-01-28-09:41:51.483184,12.0,5.0,364.0
2022-01-28-09:41:51.484181,12.0,5.0,364.0
2022-01-28-09:41:51.485179,4.0,18.0,364.0
2022-01-28-09:41:51.486183,1.0,13.0,364.0
2022-01-28-09:41:51.487187,1.0,13.0,364.0
2022-01-28-09:41:51.488148,2.0,10.0,364.0
2022-01-28-09:41:51.489169,2.0,10.0,364.0
2022-01-28-09:41:51.490165,2.0,7.0,364.0
2022-01-28-09:41:51.491164,2.0,7.0,364.0
2022-01-28-09:41:51.492160,2.0,7.0,364.0
2022-01-28-09:41:51.493162,2.0,8.0,364.0
2022-01-28-09:41:51.494156,6.0,2.0,364.0
2022-01-28-09:41:51.495152,6.0,7.0,364.0
2022-01-28-09:41:51.496295,6.0,7.0,364.0
2022-01-28-09:41:51.496295,11.0,13.0,364.0
2022-01-28-09:41:51.497505,13.0,14.0,364.0
2022-01-28-09:41:51.497505,13.0,4.0,364.0
2022-01-28-09:41:51.498551,9.0,1.0,364.0
2022-01-28-09:41:51.499548,9.0,1.0,364.0
2022-01-28-09:41:51.500548,9.0,1.0,364.0
2022-01-28-09:41:51.501543,8.0,19.0,365.0
2022-01-28-09:41:51.502540,2.0,17.0,364.0
2022-01-28-09:41:51.503497,2.0,17.0,364.0
2022-01-28-09:41:51.504534,2.0,17.0,364.0
2022-01-28-09:41:51.506529,0.0,8.0,364.0
2022-01-28-09:41:51.506529,2.0,5.0,364.0
2022-01-28-09:41:51.507505,2.0,5.0,364.0
2022-01-28-09:41:51.508527,2.0,5.0,364.0
2022-01-28-09:41:51.509500,3.0,5.0,364.0
2022-01-28-09:41:51.510564,3.0,5.0,364.0
2022-01-28-09:41:51.510564,3.0,5.0,364.0
2022-01-28-09:41:51.511612,3.0,5.0,364.0
2022-01-28-09:41:51.512771,3.0,5.0,364.0
2022-01-28-09:41:51.512771,7.0,9.0,364.0
2022-01-28-09:41:51.513818,12.0,5.0,364.0
2022-01-28-09:41:51.514862,11.0,0.0,364.0
2022-01-28-09:41:51.514862,11.0,0.0,364.0
2022-01-28-09:41:51.515908,11.0,0.0,364.0
2022-01-28-09:41:51.516905,11.0,0.0,364.0
2022-01-28-09:41:51.517909,10.0,5.0,364.0
2022-01-28-09:41:51.518902,6.0,16.0,365.0
2022-01-28-09:41:51.519897,4.0,15.0,364.0
2022-01-28-09:41:51.521218,4.0,15.0,364.0
2022-01-28-09:41:51.521218,1.0,10.0,364.0
2022-01-28-09:41:51.522273,1.0,6.0,364.0
2022-01-28-09:41:51.523240,4.0,2.0,365.0
2022-01-28-09:41:51.524213,4.0,2.0,365.0
2022-01-28-09:41:51.525256,6.0,1.0,364.0
2022-01-28-09:41:51.526253,6.0,1.0,364.0
2022-01-28-09:41:51.527250,6.0,2.0,364.0
2022-01-28-09:41:51.528252,6.0,2.0,364.0
2022-01-28-09:41:51.529245,6.0,2.0,364.0
2022-01-28-09:41:51.530244,10.0,9.0,364.0
2022-01-28-09:41:51.531240,10.0,1.0,365.0
2022-01-28-09:41:51.532280,10.0,1.0,365.0
2022-01-28-09:41:51.532280,10.0,1.0,365.0
2022-01-28-09:41:51.533487,10.0,1.0,365.0
2022-01-28-09:41:51.533487,9.0,5.0,364.0
2022-01-28-09:41:51.534646,1.0,19.0,364.0
2022-01-28-09:41:51.534646,1.0,19.0,364.0
2022-01-28-09:41:51.535693,1.0,19.0,364.0
2022-01-28-09:41:51.536690,1.0,19.0,364.0
2022-01-28-09:41:51.537926,2.0,9.0,364.0
2022-01-28-09:41:51.538925,1.0,1.0,364.0
2022-01-28-09:41:51.538925,1.0,1.0,364.0
2022-01-28-09:41:51.539973,1.0,1.0,364.0
2022-01-28-09:41:51.541126,1.0,1.0,364.0
2022-01-28-09:41:51.541126,0.0,0.0,364.0
2022-01-28-09:41:51.542269,7.0,1.0,364.0
2022-01-28-09:41:51.542269,7.0,1.0,364.0
2022-01-28-09:41:51.543315,7.0,1.0,364.0
2022-01-28-09:41:51.544313,7.0,1.0,364.0
2022-01-28-09:41:51.545481,7.0,1.0,364.0
2022-01-28-09:41:51.545481,8.0,7.0,364.0
2022-01-28-09:41:51.546535,11.0,11.0,364.0
2022-01-28-09:41:51.547533,9.0,4.0,364.0
2022-01-28-09:41:51.548530,9.0,4.0,364.0
2022-01-28-09:41:51.549685,9.0,4.0,364.0
2022-01-28-09:41:51.549685,6.0,3.0,364.0
2022-01-28-09:41:51.550740,4.0,21.0,364.0
2022-01-28-09:41:51.551736,2.0,24.0,364.0
2022-01-28-09:41:51.552737,2.0,24.0,364.0
2022-01-28-09:41:51.553677,2.0,24.0,364.0
2022-01-28-09:41:51.554728,2.0,24.0,364.0
2022-01-28-09:41:51.555725,2.0,14.0,364.0
2022-01-28-09:41:51.556715,2.0,7.0,364.0
2022-01-28-09:41:51.557666,2.0,7.0,364.0
2022-01-28-09:41:51.558768,5.0,6.0,364.0
2022-01-28-09:41:51.559138,4.0,5.0,364.0
2022-01-28-09:41:51.559281,6.0,4.0,364.0
2022-01-28-09:41:51.559281,6.0,4.0,364.0
2022-01-28-09:41:51.560332,6.0,4.0,364.0
2022-01-28-09:41:51.561487,6.0,4.0,364.0
2022-01-28-09:41:51.561487,3.0,11.0,364.0
2022-01-28-09:41:51.562536,16.0,3.0,364.0
2022-01-28-09:41:51.563580,15.0,7.0,364.0
2022-01-28-09:41:51.563580,15.0,7.0,364.0
2022-01-28-09:41:51.564626,15.0,7.0,364.0
2022-01-28-09:41:51.565772,15.0,7.0,364.0
2022-01-28-09:41:51.565772,10.0,2.0,364.0
2022-01-28-09:41:51.566822,9.0,17.0,364.0
2022-01-28-09:41:51.567817,8.0,24.0,364.0
2022-01-28-09:41:51.568824,8.0,24.0,364.0
2022-01-28-09:41:51.569823,8.0,24.0,364.0
2022-01-28-09:41:51.570808,3.0,19.0,364.0
2022-01-28-09:41:51.573753,5.0,14.0,365.0
2022-01-28-09:41:51.573753,3.0,14.0,364.0
2022-01-28-09:41:51.574801,3.0,4.0,364.0
2022-01-28-09:41:51.575795,7.0,0.0,364.0
2022-01-28-09:41:51.576794,7.0,0.0,364.0
2022-01-28-09:41:51.577790,7.0,0.0,364.0
2022-01-28-09:41:51.578822,2.0,12.0,364.0
2022-01-28-09:41:51.578822,13.0,8.0,364.0
2022-01-28-09:41:51.579846,13.0,8.0,364.0
2022-01-28-09:41:51.580850,13.0,8.0,364.0
2022-01-28-09:41:51.581843,13.0,8.0,364.0
2022-01-28-09:41:51.582838,11.0,2.0,364.0
2022-01-28-09:41:51.584054,6.0,14.0,364.0
2022-01-28-09:41:51.584200,3.0,19.0,364.0
2022-01-28-09:41:51.584200,3.0,19.0,364.0
2022-01-28-09:41:51.585223,3.0,19.0,364.0
2022-01-28-09:41:51.586224,3.0,19.0,364.0
2022-01-28-09:41:51.587219,2.0,18.0,364.0
2022-01-28-09:41:51.588589,4.0,13.0,364.0
2022-01-28-09:41:51.588589,0.0,8.0,364.0
2022-01-28-09:41:51.589636,5.0,5.0,364.0
2022-01-28-09:41:51.590591,5.0,0.0,364.0
2022-01-28-09:41:51.591666,6.0,5.0,364.0
2022-01-28-09:41:51.591666,6.0,5.0,364.0
2022-01-28-09:41:51.592724,6.0,5.0,364.0
2022-01-28-09:41:51.593717,6.0,5.0,364.0
2022-01-28-09:41:51.594714,6.0,5.0,364.0
2022-01-28-09:41:51.595716,8.0,14.0,364.0
2022-01-28-09:41:51.596709,11.0,2.0,364.0
2022-01-28-09:41:51.597708,11.0,2.0,364.0
2022-01-28-09:41:51.598704,11.0,2.0,364.0
2022-01-28-09:41:51.599702,9.0,3.0,364.0
2022-01-28-09:41:51.600699,2.0,16.0,365.0
2022-01-28-09:41:51.601697,6.0,22.0,364.0
2022-01-28-09:41:51.602932,6.0,22.0,364.0
2022-01-28-09:41:51.602932,2.0,14.0,364.0
2022-01-28-09:41:51.603988,4.0,8.0,364.0
2022-01-28-09:41:51.604984,0.0,7.0,364.0
2022-01-28-09:41:51.605985,0.0,7.0,364.0
2022-01-28-09:41:51.606979,1.0,7.0,364.0
2022-01-28-09:41:51.608919,1.0,3.0,364.0
2022-01-28-09:41:51.608919,7.0,1.0,365.0
2022-01-28-09:41:51.610061,7.0,1.0,365.0
2022-01-28-09:41:51.610415,7.0,1.0,365.0
2022-01-28-09:41:51.610415,8.0,12.0,364.0
2022-01-28-09:41:51.611563,9.0,5.0,364.0
2022-01-28-09:41:51.611563,9.0,5.0,364.0
2022-01-28-09:41:51.612587,9.0,5.0,364.0
2022-01-28-09:41:51.613587,9.0,5.0,364.0
2022-01-28-09:41:51.614582,9.0,5.0,364.0
2022-01-28-09:41:51.615841,9.0,1.0,364.0
2022-01-28-09:41:51.615841,7.0,18.0,364.0
2022-01-28-09:41:51.616895,1.0,24.0,364.0
2022-01-28-09:41:51.617892,1.0,24.0,364.0
2022-01-28-09:41:51.618838,1.0,24.0,364.0
2022-01-28-09:41:51.619867,0.0,11.0,364.0
2022-01-28-09:41:51.620862,4.0,6.0,364.0
2022-01-28-09:41:51.621859,4.0,6.0,364.0
2022-01-28-09:41:51.622859,4.0,6.0,364.0
2022-01-28-09:41:51.623857,5.0,4.0,364.0
2022-01-28-09:41:51.624867,6.0,4.0,364.0
2022-01-28-09:41:51.625849,6.0,4.0,364.0
2022-01-28-09:41:51.626846,6.0,4.0,364.0
2022-01-28-09:41:51.627846,7.0,7.0,364.0
2022-01-28-09:41:51.628840,10.0,7.0,364.0
2022-01-28-09:41:51.629838,10.0,7.0,364.0
2022-01-28-09:41:51.630804,10.0,7.0,364.0
2022-01-28-09:41:51.631839,10.0,4.0,364.0
2022-01-28-09:41:51.632833,9.0,14.0,365.0
2022-01-28-09:41:51.633828,7.0,16.0,364.0
2022-01-28-09:41:51.634822,7.0,16.0,364.0
2022-01-28-09:41:51.635824,2.0,22.0,365.0
2022-01-28-09:41:51.636806,0.0,10.0,364.0
2022-01-28-09:41:51.637816,0.0,9.0,364.0
2022-01-28-09:41:51.638816,0.0,9.0,364.0
2022-01-28-09:41:51.640138,0.0,9.0,364.0
2022-01-28-09:41:51.641138,6.0,6.0,364.0
2022-01-28-09:41:51.641138,6.0,6.0,364.0
2022-01-28-09:41:51.642167,6.0,6.0,364.0
2022-01-28-09:41:51.643134,6.0,6.0,364.0
2022-01-28-09:41:51.644202,7.0,3.0,364.0
2022-01-28-09:41:51.644202,11.0,9.0,364.0
2022-01-28-09:41:51.645226,11.0,9.0,364.0
2022-01-28-09:41:51.646227,11.0,9.0,364.0
2022-01-28-09:41:51.647223,11.0,9.0,364.0
2022-01-28-09:41:51.648218,10.0,7.0,364.0
2022-01-28-09:41:51.649219,9.0,8.0,364.0
2022-01-28-09:41:51.650212,4.0,17.0,364.0
2022-01-28-09:41:51.651208,4.0,17.0,364.0
2022-01-28-09:41:51.652208,1.0,21.0,365.0
2022-01-28-09:41:51.653338,1.0,11.0,365.0
2022-01-28-09:41:51.653338,0.0,6.0,364.0
2022-01-28-09:41:51.654397,0.0,6.0,364.0
2022-01-28-09:41:51.655394,0.0,6.0,364.0
2022-01-28-09:41:51.656388,6.0,1.0,364.0
2022-01-28-09:41:51.657385,5.0,7.0,364.0
2022-01-28-09:41:51.658381,5.0,7.0,364.0
2022-01-28-09:41:51.659380,5.0,7.0,364.0
2022-01-28-09:41:51.660377,5.0,5.0,364.0
2022-01-28-09:41:51.661375,10.0,9.0,364.0
2022-01-28-09:41:51.662371,10.0,9.0,364.0
2022-01-28-09:41:51.663372,10.0,9.0,364.0
2022-01-28-09:41:51.664644,10.0,9.0,364.0
2022-01-28-09:41:51.664644,11.0,5.0,364.0
2022-01-28-09:41:51.665697,7.0,12.0,364.0
2022-01-28-09:41:51.666695,7.0,12.0,364.0
2022-01-28-09:41:51.667638,7.0,12.0,364.0
2022-01-28-09:41:51.668690,3.0,21.0,364.0
2022-01-28-09:41:51.669687,0.0,14.0,364.0
2022-01-28-09:41:51.670684,4.0,9.0,364.0
2022-01-28-09:41:51.671682,4.0,9.0,364.0
2022-01-28-09:41:51.673622,4.0,6.0,364.0
2022-01-28-09:41:51.673622,1.0,3.0,364.0
2022-01-28-09:41:51.674679,1.0,3.0,364.0
2022-01-28-09:41:51.675673,1.0,3.0,364.0
2022-01-28-09:41:51.676668,1.0,3.0,364.0
2022-01-28-09:41:51.677666,13.0,9.0,364.0
2022-01-28-09:41:51.678663,8.0,9.0,365.0
2022-01-28-09:41:51.679660,8.0,9.0,365.0
2022-01-28-09:41:51.680660,8.0,9.0,365.0
2022-01-28-09:41:51.681695,10.0,5.0,364.0
2022-01-28-09:41:51.681695,12.0,12.0,364.0
2022-01-28-09:41:51.682719,12.0,12.0,364.0
2022-01-28-09:41:51.683717,12.0,12.0,364.0
2022-01-28-09:41:51.684713,12.0,12.0,364.0
2022-01-28-09:41:51.685711,1.0,20.0,364.0
2022-01-28-09:41:51.686711,1.0,16.0,364.0
2022-01-28-09:41:51.687869,1.0,15.0,364.0
2022-01-28-09:41:51.687869,1.0,15.0,364.0
2022-01-28-09:41:51.688925,4.0,6.0,364.0
2022-01-28-09:41:51.689965,4.0,6.0,364.0
2022-01-28-09:41:51.689965,4.0,6.0,364.0
2022-01-28-09:41:51.690995,4.0,6.0,364.0
2022-01-28-09:41:51.691987,4.0,6.0,364.0
2022-01-28-09:41:51.692986,4.0,6.0,364.0
2022-01-28-09:41:51.693982,4.0,3.0,364.0
2022-01-28-09:41:51.695038,7.0,11.0,364.0
2022-01-28-09:41:51.695038,8.0,13.0,364.0
2022-01-28-09:41:51.696038,8.0,13.0,364.0
2022-01-28-09:41:51.697073,8.0,13.0,364.0
2022-01-28-09:41:51.698272,7.0,9.0,364.0
2022-01-28-09:41:51.698272,9.0,5.0,364.0
2022-01-28-09:41:51.699400,7.0,11.0,364.0
2022-01-28-09:41:51.699400,7.0,11.0,364.0
2022-01-28-09:41:51.700590,7.0,11.0,364.0
2022-01-28-09:41:51.700590,6.0,20.0,364.0
2022-01-28-09:41:51.701624,1.0,8.0,364.0
2022-01-28-09:41:51.702656,0.0,7.0,364.0
2022-01-28-09:41:51.702656,0.0,7.0,364.0
2022-01-28-09:41:51.703682,0.0,7.0,364.0
2022-01-28-09:41:51.705011,0.0,7.0,364.0
2022-01-28-09:41:51.705011,0.0,12.0,365.0
2022-01-28-09:41:51.707008,1.0,9.0,364.0
2022-01-28-09:41:51.707008,5.0,3.0,364.0
2022-01-28-09:41:51.708033,5.0,3.0,364.0
2022-01-28-09:41:51.709046,5.0,3.0,364.0
2022-01-28-09:41:51.710031,3.0,7.0,365.0
2022-01-28-09:41:51.711029,5.0,1.0,364.0
2022-01-28-09:41:51.712027,6.0,12.0,364.0
2022-01-28-09:41:51.713024,6.0,12.0,364.0
2022-01-28-09:41:51.714025,10.0,10.0,364.0
2022-01-28-09:41:51.715022,8.0,4.0,364.0
2022-01-28-09:41:51.716017,8.0,4.0,364.0
2022-01-28-09:41:51.716982,8.0,4.0,364.0
2022-01-28-09:41:51.718013,1.0,20.0,364.0
2022-01-28-09:41:51.719008,1.0,14.0,364.0
2022-01-28-09:41:51.720006,1.0,14.0,364.0
2022-01-28-09:41:51.720971,1.0,14.0,364.0
2022-01-28-09:41:51.721999,3.0,4.0,364.0
2022-01-28-09:41:51.722998,3.0,6.0,364.0
2022-01-28-09:41:51.724009,3.0,6.0,364.0
2022-01-28-09:41:51.724960,3.0,6.0,364.0
2022-01-28-09:41:51.726014,5.0,5.0,364.0
2022-01-28-09:41:51.727010,10.0,11.0,364.0
2022-01-28-09:41:51.728008,10.0,11.0,364.0
2022-01-28-09:41:51.729006,10.0,11.0,364.0
2022-01-28-09:41:51.730001,12.0,10.0,364.0
2022-01-28-09:41:51.731106,12.0,5.0,364.0
2022-01-28-09:41:51.731325,10.0,1.0,364.0
2022-01-28-09:41:51.731325,10.0,1.0,364.0
2022-01-28-09:41:51.732356,10.0,1.0,364.0
2022-01-28-09:41:51.733558,10.0,1.0,364.0
2022-01-28-09:41:51.733558,3.0,11.0,364.0
2022-01-28-09:41:51.734613,2.0,15.0,364.0
2022-01-28-09:41:51.735671,3.0,11.0,365.0
2022-01-28-09:41:51.735671,3.0,11.0,365.0
2022-01-28-09:41:51.736702,3.0,11.0,365.0
2022-01-28-09:41:51.737699,3.0,11.0,365.0
2022-01-28-09:41:51.738699,0.0,11.0,364.0
2022-01-28-09:41:51.739694,0.0,11.0,364.0
2022-01-28-09:41:51.741657,2.0,9.0,364.0
2022-01-28-09:41:51.741657,5.0,6.0,365.0
2022-01-28-09:41:51.742654,4.0,6.0,364.0
2022-01-28-09:41:51.743685,4.0,6.0,364.0
2022-01-28-09:41:51.744680,4.0,6.0,364.0
2022-01-28-09:41:51.745890,4.0,6.0,364.0
2022-01-28-09:41:51.745890,11.0,13.0,364.0
2022-01-28-09:41:51.746944,16.0,7.0,364.0
2022-01-28-09:41:51.747942,10.0,3.0,364.0
2022-01-28-09:41:51.748988,10.0,3.0,364.0
2022-01-28-09:41:51.748988,10.0,3.0,364.0
2022-01-28-09:41:51.750219,10.0,3.0,364.0
2022-01-28-09:41:51.750219,9.0,10.0,364.0
2022-01-28-09:41:51.751273,9.0,10.0,364.0
2022-01-28-09:41:51.752269,1.0,20.0,364.0
2022-01-28-09:41:51.753324,0.0,16.0,364.0
2022-01-28-09:41:51.753324,0.0,16.0,364.0
2022-01-28-09:41:51.754358,0.0,16.0,364.0
2022-01-28-09:41:51.755718,2.0,13.0,364.0
2022-01-28-09:41:51.755718,2.0,13.0,364.0
2022-01-28-09:41:51.756772,1.0,10.0,364.0
2022-01-28-09:41:51.757716,5.0,6.0,364.0
2022-01-28-09:41:51.758767,1.0,6.0,365.0
2022-01-28-09:41:51.759769,3.0,7.0,365.0
2022-01-28-09:41:51.760761,10.0,19.0,365.0
2022-01-28-09:41:51.761761,10.0,19.0,365.0
2022-01-28-09:41:51.762760,10.0,19.0,365.0
2022-01-28-09:41:51.763802,9.0,15.0,364.0
2022-01-28-09:41:51.763802,9.0,3.0,365.0
2022-01-28-09:41:51.764826,9.0,3.0,365.0
2022-01-28-09:41:51.765822,9.0,3.0,365.0
2022-01-28-09:41:51.766820,9.0,3.0,365.0
2022-01-28-09:41:51.767819,7.0,16.0,364.0
2022-01-28-09:41:51.768815,0.0,17.0,364.0
2022-01-28-09:41:51.769812,0.0,17.0,364.0
2022-01-28-09:41:51.770812,0.0,17.0,364.0
2022-01-28-09:41:51.771782,3.0,15.0,364.0
2022-01-28-09:41:51.772804,3.0,7.0,364.0
2022-01-28-09:41:51.773777,3.0,7.0,364.0
2022-01-28-09:41:51.774775,0.0,4.0,364.0
2022-01-28-09:41:51.775798,3.0,4.0,364.0
2022-01-28-09:41:51.777791,7.0,0.0,364.0
2022-01-28-09:41:51.777791,7.0,0.0,364.0
2022-01-28-09:41:51.778835,12.0,5.0,364.0
2022-01-28-09:41:51.779170,12.0,5.0,365.0
2022-01-28-09:41:51.779170,12.0,5.0,365.0
2022-01-28-09:41:51.780197,12.0,5.0,365.0
2022-01-28-09:41:51.781191,12.0,5.0,365.0
2022-01-28-09:41:51.782396,12.0,5.0,365.0
2022-01-28-09:41:51.782396,9.0,1.0,364.0
2022-01-28-09:41:51.783450,3.0,18.0,364.0
2022-01-28-09:41:51.784452,2.0,20.0,364.0
2022-01-28-09:41:51.785444,2.0,20.0,364.0
2022-01-28-09:41:51.786397,2.0,20.0,364.0
2022-01-28-09:41:51.787441,5.0,16.0,364.0
2022-01-28-09:41:51.788441,4.0,8.0,364.0
2022-01-28-09:41:51.789433,3.0,4.0,364.0
2022-01-28-09:41:51.790434,3.0,4.0,364.0
2022-01-28-09:41:51.791429,3.0,4.0,364.0
2022-01-28-09:41:51.792406,5.0,3.0,364.0
2022-01-28-09:41:51.793423,5.0,3.0,364.0
2022-01-28-09:41:51.794420,5.0,3.0,364.0
2022-01-28-09:41:51.795417,5.0,3.0,364.0
2022-01-28-09:41:51.796414,10.0,9.0,364.0
2022-01-28-09:41:51.797413,8.0,10.0,364.0
2022-01-28-09:41:51.798412,8.0,10.0,364.0
2022-01-28-09:41:51.799407,8.0,10.0,364.0
2022-01-28-09:41:51.800405,12.0,7.0,364.0
2022-01-28-09:41:51.801402,7.0,22.0,365.0
2022-01-28-09:41:51.802391,2.0,20.0,364.0
2022-01-28-09:41:51.803388,2.0,20.0,364.0
2022-01-28-09:41:51.804385,2.0,15.0,364.0
2022-01-28-09:41:51.805362,2.0,9.0,364.0
2022-01-28-09:41:51.806382,2.0,9.0,364.0
2022-01-28-09:41:51.807378,2.0,9.0,364.0
2022-01-28-09:41:51.809372,2.0,2.0,364.0
2022-01-28-09:41:51.809372,3.0,3.0,364.0
2022-01-28-09:41:51.810451,6.0,11.0,364.0
2022-01-28-09:41:51.810451,6.0,11.0,364.0
2022-01-28-09:41:51.811503,6.0,11.0,364.0
2022-01-28-09:41:51.812497,11.0,10.0,364.0
2022-01-28-09:41:51.813661,12.0,8.0,364.0
2022-01-28-09:41:51.813792,12.0,1.0,364.0
2022-01-28-09:41:51.813792,12.0,1.0,364.0
2022-01-28-09:41:51.814839,12.0,1.0,364.0
2022-01-28-09:41:51.815835,12.0,1.0,364.0
2022-01-28-09:41:51.816836,10.0,5.0,364.0
2022-01-28-09:41:51.817995,1.0,20.0,364.0
2022-01-28-09:41:51.818132,1.0,21.0,364.0
2022-01-28-09:41:51.818132,1.0,21.0,364.0
2022-01-28-09:41:51.819162,1.0,21.0,364.0
2022-01-28-09:41:51.820158,3.0,12.0,364.0
2022-01-28-09:41:51.821127,0.0,6.0,364.0
2022-01-28-09:41:51.822170,0.0,6.0,364.0
2022-01-28-09:41:51.823168,0.0,6.0,364.0
2022-01-28-09:41:51.824132,0.0,6.0,364.0
2022-01-28-09:41:51.825150,6.0,3.0,364.0
2022-01-28-09:41:51.826160,6.0,3.0,364.0
2022-01-28-09:41:51.827156,6.0,3.0,364.0
2022-01-28-09:41:51.828334,6.0,3.0,364.0
2022-01-28-09:41:51.828334,10.0,10.0,364.0
2022-01-28-09:41:51.829388,12.0,6.0,364.0
2022-01-28-09:41:51.830385,10.0,6.0,364.0
2022-01-28-09:41:51.831382,10.0,6.0,364.0
2022-01-28-09:41:51.832382,10.0,6.0,364.0
2022-01-28-09:41:51.833377,7.0,11.0,364.0
2022-01-28-09:41:51.834375,3.0,25.0,364.0
2022-01-28-09:41:51.835374,3.0,25.0,364.0
2022-01-28-09:41:51.836369,3.0,25.0,364.0
2022-01-28-09:41:51.837366,0.0,13.0,364.0
2022-01-28-09:41:51.838363,2.0,9.0,364.0
2022-01-28-09:41:51.839364,2.0,9.0,364.0
2022-01-28-09:41:51.840360,2.0,9.0,364.0
2022-01-28-09:41:51.841356,4.0,2.0,365.0
2022-01-28-09:41:51.843296,4.0,4.0,364.0
2022-01-28-09:41:51.843296,4.0,4.0,364.0
2022-01-28-09:41:51.844325,4.0,4.0,364.0
2022-01-28-09:41:51.845396,15.0,9.0,364.0
2022-01-28-09:41:51.845396,13.0,7.0,364.0
2022-01-28-09:41:51.846442,13.0,7.0,364.0
2022-01-28-09:41:51.847441,13.0,7.0,364.0
2022-01-28-09:41:51.848437,13.0,7.0,364.0
2022-01-28-09:41:51.849434,12.0,3.0,364.0
2022-01-28-09:41:51.850431,6.0,16.0,364.0
2022-01-28-09:41:51.851429,4.0,23.0,364.0
2022-01-28-09:41:51.852428,4.0,23.0,364.0
2022-01-28-09:41:51.853424,2.0,20.0,364.0
2022-01-28-09:41:51.854576,1.0,15.0,364.0
2022-01-28-09:41:51.854576,1.0,7.0,364.0
2022-01-28-09:41:51.855717,1.0,7.0,364.0
2022-01-28-09:41:51.855717,1.0,7.0,364.0
2022-01-28-09:41:51.856763,1.0,7.0,364.0
2022-01-28-09:41:51.857754,3.0,5.0,364.0
2022-01-28-09:41:51.858758,9.0,8.0,364.0
2022-01-28-09:41:51.859758,4.0,4.0,364.0
2022-01-28-09:41:51.860906,4.0,4.0,364.0
2022-01-28-09:41:51.860906,7.0,3.0,364.0
2022-01-28-09:41:51.861960,9.0,20.0,365.0
2022-01-28-09:41:51.863000,10.0,9.0,364.0
2022-01-28-09:41:51.863000,10.0,9.0,364.0
2022-01-28-09:41:51.864046,10.0,9.0,364.0
2022-01-28-09:41:51.865267,10.0,9.0,364.0
2022-01-28-09:41:51.865267,10.0,5.0,364.0
2022-01-28-09:41:51.866321,5.0,18.0,364.0
2022-01-28-09:41:51.867321,5.0,18.0,364.0
2022-01-28-09:41:51.868298,5.0,18.0,364.0
2022-01-28-09:41:51.869313,1.0,16.0,364.0
2022-01-28-09:41:51.870256,2.0,11.0,364.0
2022-01-28-09:41:51.871310,1.0,11.0,364.0
2022-01-28-09:41:51.872305,1.0,11.0,364.0
2022-01-28-09:41:51.873281,0.0,6.0,364.0
2022-01-28-09:41:51.874247,3.0,6.0,365.0
2022-01-28-09:41:51.875271,5.0,1.0,364.0
2022-01-28-09:41:51.877237,5.0,1.0,364.0
2022-01-28-09:41:51.877237,11.0,5.0,364.0
2022-01-28-09:41:51.878258,11.0,5.0,364.0
2022-01-28-09:41:51.879255,11.0,5.0,364.0
2022-01-28-09:41:51.880253,11.0,5.0,364.0
2022-01-28-09:41:51.881250,11.0,5.0,364.0
2022-01-28-09:41:51.882256,14.0,4.0,364.0
2022-01-28-09:41:51.883245,1.0,13.0,364.0
2022-01-28-09:41:51.884250,1.0,13.0,364.0
2022-01-28-09:41:51.885250,1.0,13.0,364.0
2022-01-28-09:41:51.886237,3.0,14.0,364.0
2022-01-28-09:41:51.887236,1.0,9.0,364.0
2022-01-28-09:41:51.888232,1.0,9.0,364.0
2022-01-28-09:41:51.889230,1.0,9.0,364.0
2022-01-28-09:41:51.890226,1.0,7.0,364.0
2022-01-28-09:41:51.891201,3.0,5.0,364.0
2022-01-28-09:41:51.892224,3.0,5.0,364.0
2022-01-28-09:41:51.893241,3.0,5.0,364.0
2022-01-28-09:41:51.894241,4.0,9.0,364.0
2022-01-28-09:41:51.895236,11.0,8.0,364.0
2022-01-28-09:41:51.896233,11.0,8.0,364.0
2022-01-28-09:41:51.897233,11.0,8.0,364.0
2022-01-28-09:41:51.898235,11.0,2.0,365.0
2022-01-28-09:41:51.899225,11.0,12.0,364.0
2022-01-28-09:41:51.900222,8.0,18.0,364.0
2022-01-28-09:41:51.901173,8.0,18.0,364.0
2022-01-28-09:41:51.902261,1.0,20.0,364.0
2022-01-28-09:41:51.902658,2.0,14.0,364.0
2022-01-28-09:41:51.902792,1.0,11.0,364.0
2022-01-28-09:41:51.902792,1.0,11.0,364.0
2022-01-28-09:41:51.903841,1.0,11.0,364.0
2022-01-28-09:41:51.904836,1.0,11.0,364.0
2022-01-28-09:41:51.905835,1.0,11.0,364.0
2022-01-28-09:41:51.906833,1.0,7.0,364.0
2022-01-28-09:41:51.908174,4.0,0.0,364.0
2022-01-28-09:41:51.908174,4.0,0.0,364.0
2022-01-28-09:41:51.909222,4.0,0.0,364.0
2022-01-28-09:41:51.911168,8.0,11.0,364.0
2022-01-28-09:41:51.911168,9.0,20.0,365.0
2022-01-28-09:41:51.912300,9.0,20.0,365.0
2022-01-28-09:41:51.912300,9.0,20.0,365.0
2022-01-28-09:41:51.913348,9.0,20.0,365.0
2022-01-28-09:41:51.914343,9.0,17.0,364.0
2022-01-28-09:41:51.915340,7.0,3.0,364.0
2022-01-28-09:41:51.916337,9.0,23.0,364.0
2022-01-28-09:41:51.917335,9.0,23.0,364.0
2022-01-28-09:41:51.918332,9.0,23.0,364.0
2022-01-28-09:41:51.919334,0.0,21.0,364.0
2022-01-28-09:41:51.920395,2.0,15.0,364.0
2022-01-28-09:41:51.920395,2.0,15.0,364.0
2022-01-28-09:41:51.921449,2.0,15.0,364.0
2022-01-28-09:41:51.922446,2.0,15.0,364.0
2022-01-28-09:41:51.923444,2.0,1.0,364.0
2022-01-28-09:41:51.924420,3.0,0.0,364.0
2022-01-28-09:41:51.925528,3.0,7.0,364.0
2022-01-28-09:41:51.925528,3.0,7.0,364.0
2022-01-28-09:41:51.926583,3.0,7.0,364.0
2022-01-28-09:41:51.927572,6.0,2.0,365.0
2022-01-28-09:41:51.928569,5.0,12.0,364.0
2022-01-28-09:41:51.929569,8.0,13.0,364.0
2022-01-28-09:41:51.930711,8.0,13.0,364.0
2022-01-28-09:41:51.930711,10.0,12.0,364.0
2022-01-28-09:41:51.931767,16.0,3.0,364.0
2022-01-28-09:41:51.932811,11.0,9.0,364.0
2022-01-28-09:41:51.932811,11.0,9.0,364.0
2022-01-28-09:41:51.934039,11.0,9.0,364.0
2022-01-28-09:41:51.934039,4.0,16.0,364.0
2022-01-28-09:41:51.935183,0.0,16.0,365.0
2022-01-28-09:41:51.935183,0.0,16.0,365.0
2022-01-28-09:41:51.936230,0.0,16.0,365.0
2022-01-28-09:41:51.937226,0.0,16.0,365.0
2022-01-28-09:41:51.938396,0.0,16.0,365.0
2022-01-28-09:41:51.938396,1.0,7.0,364.0
2022-01-28-09:41:51.939449,2.0,5.0,365.0
2022-01-28-09:41:51.940449,5.0,11.0,364.0
2022-01-28-09:41:51.941596,5.0,11.0,364.0
2022-01-28-09:41:51.941596,5.0,11.0,364.0
