2023-05-30-12:55:12.732768,4.0,0.0,430.0
2023-05-30-12:55:12.733753,6.0,19.0,430.0
2023-05-30-12:55:12.733753,7.0,30.0,430.0
2023-05-30-12:55:12.735755,6.0,23.0,430.0
2023-05-30-12:55:12.736766,3.0,17.0,430.0
2023-05-30-12:55:12.737756,4.0,5.0,430.0
2023-05-30-12:55:12.737756,8.0,11.0,430.0
2023-05-30-12:55:12.738759,9.0,17.0,430.0
2023-05-30-12:55:12.740755,2.0,27.0,430.0
2023-05-30-12:55:12.741756,8.0,5.0,430.0
2023-05-30-12:55:12.741756,5.0,15.0,430.0
2023-05-30-12:55:12.742790,6.0,21.0,430.0
2023-05-30-12:55:12.743756,3.0,3.0,430.0
2023-05-30-12:55:12.744790,2.0,22.0,430.0
2023-05-30-12:55:12.745796,2.0,21.0,430.0
2023-05-30-12:55:12.746790,4.0,13.0,430.0
2023-05-30-12:55:12.747790,8.0,23.0,430.0
2023-05-30-12:55:12.748758,6.0,0.0,430.0
2023-05-30-12:55:12.749754,0.0,6.0,430.0
2023-05-30-12:55:12.750771,1.0,16.0,430.0
2023-05-30-12:55:12.751757,8.0,30.0,430.0
2023-05-30-12:55:12.752793,7.0,19.0,430.0
2023-05-30-12:55:12.753793,4.0,10.0,430.0
2023-05-30-12:55:12.754791,4.0,9.0,430.0
2023-05-30-12:55:12.755791,2.0,16.0,430.0
2023-05-30-12:55:12.756755,3.0,13.0,430.0
2023-05-30-12:55:12.757781,3.0,4.0,430.0
2023-05-30-12:55:12.758781,5.0,9.0,430.0
2023-05-30-12:55:12.759782,10.0,14.0,430.0
2023-05-30-12:55:12.760781,3.0,18.0,430.0
2023-05-30-12:55:12.761787,11.0,37.0,430.0
2023-05-30-12:55:12.762781,2.0,1.0,430.0
2023-05-30-12:55:12.763782,2.0,36.0,430.0
2023-05-30-12:55:12.764781,3.0,24.0,430.0
2023-05-30-12:55:12.765753,5.0,2.0,430.0
2023-05-30-12:55:12.766755,3.0,4.0,430.0
2023-05-30-12:55:12.767771,4.0,10.0,430.0
2023-05-30-12:55:12.768753,5.0,12.0,430.0
2023-05-30-12:55:12.769788,2.0,10.0,430.0
2023-05-30-12:55:12.770755,5.0,11.0,430.0
2023-05-30-12:55:12.771790,4.0,16.0,430.0
2023-05-30-12:55:12.772786,0.0,34.0,430.0
2023-05-30-12:55:12.775840,3.0,18.0,430.0
2023-05-30-12:55:12.776773,8.0,11.0,430.0
2023-05-30-12:55:12.776773,9.0,18.0,430.0
2023-05-30-12:55:12.777783,2.0,14.0,430.0
2023-05-30-12:55:12.778805,4.0,3.0,430.0
2023-05-30-12:55:12.779783,3.0,1.0,430.0
2023-05-30-12:55:12.780783,4.0,3.0,430.0
2023-05-30-12:55:12.781770,5.0,7.0,430.0
2023-05-30-12:55:12.782755,5.0,8.0,430.0
2023-05-30-12:55:12.783755,6.0,9.0,430.0
2023-05-30-12:55:12.784756,3.0,19.0,430.0
2023-05-30-12:55:12.785756,4.0,7.0,430.0
2023-05-30-12:55:12.786777,4.0,1.0,430.0
2023-05-30-12:55:12.787778,5.0,8.0,430.0
2023-05-30-12:55:12.788767,5.0,16.0,430.0
2023-05-30-12:55:12.789753,3.0,11.0,430.0
2023-05-30-12:55:12.790774,6.0,8.0,430.0
2023-05-30-12:55:12.791773,5.0,5.0,430.0
2023-05-30-12:55:12.792802,5.0,15.0,430.0
2023-05-30-12:55:12.793804,4.0,17.0,430.0
2023-05-30-12:55:12.794803,7.0,2.0,430.0
2023-05-30-12:55:12.795803,8.0,31.0,430.0
2023-05-30-12:55:12.796807,4.0,18.0,430.0
2023-05-30-12:55:12.797783,3.0,21.0,430.0
2023-05-30-12:55:12.798756,8.0,9.0,430.0
2023-05-30-12:55:12.799783,1.0,33.0,430.0
2023-05-30-12:55:12.800766,2.0,4.0,430.0
2023-05-30-12:55:12.801754,0.0,4.0,430.0
2023-05-30-12:55:12.802782,5.0,8.0,430.0
2023-05-30-12:55:12.803781,5.0,7.0,430.0
2023-05-30-12:55:12.804782,3.0,6.0,430.0
2023-05-30-12:55:12.805781,6.0,20.0,430.0
2023-05-30-12:55:12.806780,8.0,3.0,430.0
2023-05-30-12:55:12.808801,3.0,9.0,430.0
2023-05-30-12:55:12.808801,5.0,8.0,430.0
2023-05-30-12:55:12.809802,3.0,3.0,430.0
2023-05-30-12:55:12.810802,7.0,5.0,430.0
2023-05-30-12:55:12.811801,6.0,2.0,430.0
2023-05-30-12:55:12.812803,5.0,6.0,430.0
2023-05-30-12:55:12.813753,5.0,7.0,430.0
2023-05-30-12:55:12.814781,2.0,20.0,430.0
2023-05-30-12:55:12.815757,5.0,13.0,430.0
2023-05-30-12:55:12.816784,5.0,5.0,430.0
2023-05-30-12:55:12.817780,6.0,3.0,430.0
2023-05-30-12:55:12.818782,4.0,13.0,430.0
2023-05-30-12:55:12.819780,5.0,12.0,430.0
2023-05-30-12:55:12.820788,4.0,9.0,430.0
2023-05-30-12:55:12.821780,2.0,25.0,430.0
2023-05-30-12:55:12.822781,6.0,19.0,430.0
2023-05-30-12:55:12.823780,7.0,7.0,430.0
2023-05-30-12:55:12.824780,6.0,17.0,430.0
2023-05-30-12:55:12.825782,7.0,23.0,430.0
2023-05-30-12:55:12.826780,6.0,10.0,430.0
2023-05-30-12:55:12.827782,5.0,1.0,430.0
2023-05-30-12:55:12.828780,4.0,8.0,430.0
2023-05-30-12:55:12.829783,5.0,9.0,430.0
2023-05-30-12:55:12.830780,6.0,19.0,430.0
2023-05-30-12:55:12.831780,1.0,1.0,430.0
2023-05-30-12:55:12.832784,6.0,4.0,430.0
2023-05-30-12:55:12.833780,8.0,32.0,430.0
2023-05-30-12:55:12.834783,5.0,35.0,430.0
2023-05-30-12:55:12.835780,5.0,9.0,430.0
2023-05-30-12:55:12.836782,3.0,9.0,430.0
2023-05-30-12:55:12.837780,5.0,5.0,430.0
2023-05-30-12:55:12.838780,8.0,29.0,430.0
2023-05-30-12:55:12.839781,5.0,1.0,430.0
2023-05-30-12:55:12.841780,4.0,13.0,430.0
2023-05-30-12:55:12.842755,5.0,3.0,430.0
2023-05-30-12:55:12.842755,5.0,2.0,430.0
2023-05-30-12:55:12.843786,4.0,5.0,430.0
2023-05-30-12:55:12.844781,3.0,7.0,430.0
2023-05-30-12:55:12.845785,4.0,19.0,430.0
2023-05-30-12:55:12.846782,9.0,1.0,430.0
2023-05-30-12:55:12.847780,3.0,21.0,430.0
2023-05-30-12:55:12.848757,4.0,6.0,430.0
2023-05-30-12:55:12.849756,4.0,6.0,430.0
2023-05-30-12:55:12.850782,1.0,12.0,430.0
2023-05-30-12:55:12.851781,5.0,10.0,430.0
2023-05-30-12:55:12.852782,2.0,14.0,430.0
2023-05-30-12:55:12.853781,2.0,11.0,430.0
2023-05-30-12:55:12.854780,6.0,7.0,430.0
2023-05-30-12:55:12.855781,3.0,8.0,430.0
2023-05-30-12:55:12.856780,4.0,1.0,430.0
2023-05-30-12:55:12.857781,6.0,8.0,430.0
2023-05-30-12:55:12.858781,2.0,3.0,430.0
2023-05-30-12:55:12.859783,5.0,0.0,430.0
2023-05-30-12:55:12.860780,3.0,48.0,430.0
2023-05-30-12:55:12.861780,4.0,28.0,430.0
2023-05-30-12:55:12.862780,4.0,18.0,430.0
2023-05-30-12:55:12.863780,6.0,5.0,430.0
2023-05-30-12:55:12.864794,3.0,18.0,430.0
2023-05-30-12:55:12.865756,5.0,7.0,430.0
2023-05-30-12:55:12.866784,3.0,8.0,430.0
2023-05-30-12:55:12.867781,3.0,4.0,430.0
2023-05-30-12:55:12.868782,4.0,10.0,430.0
2023-05-30-12:55:12.869780,4.0,32.0,430.0
2023-05-30-12:55:12.870781,6.0,6.0,430.0
2023-05-30-12:55:12.871781,4.0,34.0,430.0
2023-05-30-12:55:12.872780,7.0,5.0,430.0
2023-05-30-12:55:12.873787,6.0,25.0,430.0
2023-05-30-12:55:12.874780,3.0,26.0,430.0
2023-05-30-12:55:12.876780,4.0,6.0,430.0
2023-05-30-12:55:12.876780,6.0,8.0,430.0
2023-05-30-12:55:12.877788,6.0,11.0,430.0
2023-05-30-12:55:12.878786,6.0,26.0,430.0
2023-05-30-12:55:12.879801,4.0,9.0,430.0
2023-05-30-12:55:12.880804,4.0,9.0,430.0
2023-05-30-12:55:12.881800,4.0,9.0,430.0
2023-05-30-12:55:12.882802,2.0,26.0,430.0
2023-05-30-12:55:12.883805,3.0,11.0,430.0
2023-05-30-12:55:12.884801,3.0,11.0,430.0
2023-05-30-12:55:12.885801,3.0,11.0,430.0
2023-05-30-12:55:12.886801,4.0,10.0,430.0
2023-05-30-12:55:12.887801,6.0,6.0,429.0
2023-05-30-12:55:12.888801,6.0,6.0,429.0
2023-05-30-12:55:12.889801,6.0,6.0,429.0
2023-05-30-12:55:12.890802,6.0,15.0,430.0
2023-05-30-12:55:12.891754,4.0,7.0,430.0
2023-05-30-12:55:12.892780,4.0,7.0,430.0
2023-05-30-12:55:12.893801,4.0,7.0,430.0
2023-05-30-12:55:12.894801,4.0,4.0,430.0
2023-05-30-12:55:12.895801,2.0,17.0,430.0
2023-05-30-12:55:12.896804,4.0,15.0,430.0
2023-05-30-12:55:12.897801,4.0,15.0,430.0
2023-05-30-12:55:12.898757,5.0,20.0,430.0
2023-05-30-12:55:12.899781,8.0,24.0,430.0
2023-05-30-12:55:12.900800,8.0,24.0,430.0
2023-05-30-12:55:12.901755,8.0,24.0,430.0
2023-05-30-12:55:12.902801,7.0,16.0,429.0
2023-05-30-12:55:12.903801,4.0,13.0,430.0
2023-05-30-12:55:12.904802,6.0,6.0,430.0
2023-05-30-12:55:12.905755,6.0,6.0,430.0
2023-05-30-12:55:12.906802,5.0,10.0,430.0
2023-05-30-12:55:12.907801,5.0,3.0,430.0
2023-05-30-12:55:12.908802,4.0,11.0,430.0
2023-05-30-12:55:12.910754,4.0,11.0,430.0
2023-05-30-12:55:12.910754,2.0,7.0,430.0
2023-05-30-12:55:12.911802,2.0,7.0,430.0
2023-05-30-12:55:12.912805,2.0,7.0,430.0
2023-05-30-12:55:12.913801,2.0,7.0,430.0
2023-05-30-12:55:12.914801,2.0,7.0,430.0
2023-05-30-12:55:12.915804,5.0,5.0,430.0
2023-05-30-12:55:12.916782,4.0,7.0,430.0
2023-05-30-12:55:12.917810,4.0,7.0,430.0
2023-05-30-12:55:12.918800,4.0,7.0,430.0
2023-05-30-12:55:12.919814,7.0,3.0,430.0
2023-05-30-12:55:12.920800,4.0,6.0,430.0
2023-05-30-12:55:12.921802,4.0,6.0,430.0
2023-05-30-12:55:12.922801,4.0,6.0,430.0
2023-05-30-12:55:12.923800,5.0,1.0,430.0
2023-05-30-12:55:12.924802,3.0,6.0,430.0
2023-05-30-12:55:12.925800,3.0,6.0,430.0
2023-05-30-12:55:12.926801,3.0,6.0,430.0
2023-05-30-12:55:12.927802,6.0,1.0,430.0
2023-05-30-12:55:12.928801,6.0,1.0,430.0
2023-05-30-12:55:12.929815,6.0,1.0,430.0
2023-05-30-12:55:12.930801,6.0,1.0,430.0
2023-05-30-12:55:12.931804,3.0,2.0,430.0
2023-05-30-12:55:12.932801,8.0,7.0,430.0
2023-05-30-12:55:12.933801,2.0,15.0,430.0
2023-05-30-12:55:12.934801,2.0,15.0,430.0
2023-05-30-12:55:12.935802,3.0,19.0,430.0
2023-05-30-12:55:12.936801,3.0,8.0,430.0
2023-05-30-12:55:12.937802,5.0,12.0,429.0
2023-05-30-12:55:12.938802,5.0,12.0,429.0
2023-05-30-12:55:12.939809,5.0,6.0,430.0
2023-05-30-12:55:12.940802,5.0,15.0,430.0
2023-05-30-12:55:12.941802,5.0,15.0,430.0
2023-05-30-12:55:12.943802,5.0,15.0,430.0
2023-05-30-12:55:12.943802,6.0,12.0,429.0
2023-05-30-12:55:12.944756,6.0,12.0,429.0
2023-05-30-12:55:12.945801,6.0,12.0,429.0
2023-05-30-12:55:12.946755,6.0,12.0,429.0
2023-05-30-12:55:12.947804,5.0,0.0,429.0
2023-05-30-12:55:12.948757,2.0,11.0,430.0
2023-05-30-12:55:12.949756,2.0,11.0,430.0
2023-05-30-12:55:12.950781,2.0,11.0,430.0
2023-05-30-12:55:12.951801,3.0,9.0,429.0
2023-05-30-12:55:12.952801,5.0,10.0,429.0
2023-05-30-12:55:12.953801,5.0,10.0,429.0
2023-05-30-12:55:12.954801,5.0,10.0,429.0
2023-05-30-12:55:12.955801,5.0,11.0,430.0
2023-05-30-12:55:12.956802,4.0,34.0,429.0
2023-05-30-12:55:12.957792,5.0,26.0,429.0
2023-05-30-12:55:12.958811,5.0,26.0,429.0
2023-05-30-12:55:12.959811,5.0,26.0,429.0
2023-05-30-12:55:12.960783,8.0,23.0,429.0
2023-05-30-12:55:12.961802,8.0,4.0,429.0
2023-05-30-12:55:12.962801,8.0,4.0,429.0
2023-05-30-12:55:12.963813,8.0,4.0,429.0
2023-05-30-12:55:12.964811,2.0,17.0,429.0
2023-05-30-12:55:12.965758,2.0,26.0,430.0
2023-05-30-12:55:12.966811,3.0,21.0,430.0
2023-05-30-12:55:12.967812,3.0,21.0,430.0
2023-05-30-12:55:12.968811,3.0,8.0,429.0
2023-05-30-12:55:12.969811,0.0,0.0,429.0
2023-05-30-12:55:12.970811,6.0,17.0,429.0
2023-05-30-12:55:12.971812,6.0,17.0,429.0
2023-05-30-12:55:12.972816,5.0,21.0,429.0
2023-05-30-12:55:12.973792,3.0,16.0,429.0
2023-05-30-12:55:12.974790,2.0,20.0,429.0
2023-05-30-12:55:12.975790,2.0,20.0,429.0
2023-05-30-12:55:12.976791,0.0,13.0,429.0
2023-05-30-12:55:12.977789,8.0,3.0,429.0
2023-05-30-12:55:12.979753,4.0,2.0,429.0
2023-05-30-12:55:12.979753,4.0,2.0,429.0
2023-05-30-12:55:12.980790,5.0,31.0,430.0
2023-05-30-12:55:12.981805,5.0,31.0,430.0
2023-05-30-12:55:12.982788,5.0,31.0,430.0
2023-05-30-12:55:12.983758,5.0,31.0,430.0
2023-05-30-12:55:12.984801,0.0,27.0,429.0
2023-05-30-12:55:12.985802,2.0,11.0,429.0
2023-05-30-12:55:12.986802,7.0,9.0,429.0
2023-05-30-12:55:12.987755,7.0,9.0,429.0
2023-05-30-12:55:12.988807,6.0,1.0,429.0
2023-05-30-12:55:12.989803,6.0,29.0,429.0
2023-05-30-12:55:12.990802,5.0,10.0,429.0
2023-05-30-12:55:12.991756,5.0,10.0,429.0
2023-05-30-12:55:12.992805,4.0,12.0,429.0
2023-05-30-12:55:12.993802,7.0,1.0,429.0
2023-05-30-12:55:12.994802,7.0,1.0,429.0
2023-05-30-12:55:12.995803,7.0,1.0,429.0
2023-05-30-12:55:12.996803,4.0,23.0,429.0
2023-05-30-12:55:12.997809,1.0,8.0,429.0
2023-05-30-12:55:12.998757,1.0,8.0,429.0
2023-05-30-12:55:12.999803,1.0,8.0,429.0
2023-05-30-12:55:13.000803,1.0,8.0,429.0
2023-05-30-12:55:13.001802,4.0,12.0,429.0
2023-05-30-12:55:13.002802,6.0,11.0,429.0
2023-05-30-12:55:13.003802,6.0,11.0,429.0
2023-05-30-12:55:13.004806,6.0,11.0,429.0
2023-05-30-12:55:13.005782,4.0,5.0,429.0
2023-05-30-12:55:13.006781,6.0,26.0,429.0
2023-05-30-12:55:13.007780,6.0,26.0,429.0
2023-05-30-12:55:13.008783,6.0,26.0,429.0
2023-05-30-12:55:13.009781,7.0,7.0,429.0
2023-05-30-12:55:13.010782,3.0,31.0,429.0
2023-05-30-12:55:13.012754,3.0,31.0,429.0
2023-05-30-12:55:13.012754,6.0,14.0,429.0
2023-05-30-12:55:13.013804,8.0,16.0,429.0
2023-05-30-12:55:13.014809,8.0,16.0,429.0
2023-05-30-12:55:13.015755,8.0,16.0,429.0
2023-05-30-12:55:13.016816,8.0,16.0,429.0
2023-05-30-12:55:13.017817,4.0,2.0,429.0
2023-05-30-12:55:13.018812,7.0,21.0,429.0
2023-05-30-12:55:13.019812,6.0,12.0,429.0
2023-05-30-12:55:13.020815,6.0,12.0,429.0
2023-05-30-12:55:13.021792,5.0,10.0,429.0
2023-05-30-12:55:13.022811,3.0,0.0,429.0
2023-05-30-12:55:13.023812,3.0,0.0,429.0
2023-05-30-12:55:13.024814,3.0,0.0,429.0
2023-05-30-12:55:13.025795,4.0,23.0,429.0
2023-05-30-12:55:13.026812,4.0,9.0,429.0
2023-05-30-12:55:13.027812,6.0,16.0,429.0
2023-05-30-12:55:13.028755,6.0,16.0,429.0
2023-05-30-12:55:13.029790,6.0,14.0,429.0
2023-05-30-12:55:13.030789,5.0,17.0,429.0
2023-05-30-12:55:13.031812,5.0,17.0,429.0
2023-05-30-12:55:13.032755,5.0,17.0,429.0
2023-05-30-12:55:13.033812,3.0,11.0,429.0
2023-05-30-12:55:13.034817,5.0,13.0,430.0
2023-05-30-12:55:13.035813,5.0,8.0,429.0
2023-05-30-12:55:13.036805,5.0,8.0,429.0
2023-05-30-12:55:13.037811,5.0,8.0,429.0
2023-05-30-12:55:13.038812,5.0,6.0,429.0
2023-05-30-12:55:13.039812,4.0,5.0,429.0
2023-05-30-12:55:13.040814,4.0,5.0,429.0
2023-05-30-12:55:13.041813,5.0,4.0,429.0
2023-05-30-12:55:13.042819,7.0,3.0,429.0
2023-05-30-12:55:13.043790,6.0,2.0,429.0
2023-05-30-12:55:13.044791,6.0,2.0,429.0
2023-05-30-12:55:13.045790,6.0,2.0,429.0
2023-05-30-12:55:13.047754,4.0,13.0,429.0
2023-05-30-12:55:13.047754,4.0,13.0,429.0
2023-05-30-12:55:13.048763,4.0,13.0,429.0
2023-05-30-12:55:13.049814,4.0,13.0,429.0
2023-05-30-12:55:13.050810,4.0,15.0,429.0
2023-05-30-12:55:13.051811,4.0,17.0,429.0
2023-05-30-12:55:13.052754,8.0,5.0,429.0
2023-05-30-12:55:13.053811,8.0,5.0,429.0
2023-05-30-12:55:13.054812,7.0,6.0,429.0
2023-05-30-12:55:13.055812,6.0,8.0,429.0
2023-05-30-12:55:13.056814,7.0,6.0,429.0
2023-05-30-12:55:13.057812,7.0,6.0,429.0
2023-05-30-12:55:13.058812,6.0,16.0,429.0
2023-05-30-12:55:13.059813,1.0,25.0,429.0
2023-05-30-12:55:13.060794,5.0,15.0,429.0
2023-05-30-12:55:13.061818,5.0,15.0,429.0
2023-05-30-12:55:13.062812,3.0,8.0,429.0
2023-05-30-12:55:13.063812,3.0,12.0,429.0
2023-05-30-12:55:13.064804,5.0,9.0,430.0
2023-05-30-12:55:13.065757,5.0,9.0,430.0
2023-05-30-12:55:13.066817,2.0,19.0,429.0
2023-05-30-12:55:13.067812,6.0,10.0,429.0
2023-05-30-12:55:13.068815,6.0,10.0,429.0
2023-05-30-12:55:13.069756,6.0,10.0,429.0
2023-05-30-12:55:13.070812,3.0,19.0,429.0
2023-05-30-12:55:13.071812,4.0,10.0,429.0
2023-05-30-12:55:13.072814,5.0,26.0,429.0
2023-05-30-12:55:13.073755,5.0,26.0,429.0
2023-05-30-12:55:13.074812,4.0,45.0,429.0
2023-05-30-12:55:13.075812,6.0,45.0,429.0
2023-05-30-12:55:13.076812,4.0,30.0,429.0
2023-05-30-12:55:13.077785,4.0,30.0,429.0
2023-05-30-12:55:13.078812,4.0,8.0,429.0
2023-05-30-12:55:13.079812,2.0,6.0,429.0
2023-05-30-12:55:13.081754,2.0,1.0,429.0
2023-05-30-12:55:13.081754,2.0,1.0,429.0
2023-05-30-12:55:13.082791,5.0,22.0,429.0
2023-05-30-12:55:13.083811,6.0,14.0,429.0
2023-05-30-12:55:13.084793,6.0,14.0,429.0
2023-05-30-12:55:13.085812,6.0,14.0,429.0
2023-05-30-12:55:13.086812,6.0,14.0,429.0
2023-05-30-12:55:13.087812,6.0,7.0,429.0
2023-05-30-12:55:13.088814,7.0,16.0,429.0
2023-05-30-12:55:13.089812,7.0,16.0,429.0
2023-05-30-12:55:13.090812,7.0,16.0,429.0
2023-05-30-12:55:13.091812,8.0,24.0,429.0
2023-05-30-12:55:13.092812,3.0,2.0,429.0
2023-05-30-12:55:13.093813,6.0,11.0,429.0
2023-05-30-12:55:13.094812,6.0,11.0,429.0
2023-05-30-12:55:13.095811,3.0,14.0,429.0
2023-05-30-12:55:13.096812,6.0,14.0,429.0
2023-05-30-12:55:13.097790,3.0,14.0,429.0
2023-05-30-12:55:13.098798,3.0,14.0,429.0
2023-05-30-12:55:13.099791,4.0,0.0,429.0
2023-05-30-12:55:13.100815,3.0,13.0,429.0
2023-05-30-12:55:13.101791,5.0,28.0,429.0
2023-05-30-12:55:13.102790,5.0,28.0,429.0
2023-05-30-12:55:13.103812,5.0,21.0,429.0
2023-05-30-12:55:13.104814,4.0,9.0,429.0
2023-05-30-12:55:13.105816,8.0,2.0,429.0
2023-05-30-12:55:13.106812,8.0,2.0,429.0
2023-05-30-12:55:13.107813,9.0,1.0,429.0
2023-05-30-12:55:13.108812,6.0,14.0,430.0
2023-05-30-12:55:13.109813,5.0,4.0,429.0
2023-05-30-12:55:13.110812,5.0,4.0,429.0
2023-05-30-12:55:13.111812,6.0,9.0,429.0
2023-05-30-12:55:13.112812,2.0,1.0,429.0
2023-05-30-12:55:13.113812,4.0,40.0,429.0
2023-05-30-12:55:13.114755,4.0,40.0,429.0
2023-05-30-12:55:13.115757,4.0,15.0,429.0
2023-05-30-12:55:13.117791,2.0,21.0,429.0
2023-05-30-12:55:13.118754,1.0,24.0,429.0
2023-05-30-12:55:13.119756,5.0,6.0,430.0
2023-05-30-12:55:13.119756,6.0,11.0,429.0
2023-05-30-12:55:13.120813,6.0,11.0,429.0
2023-05-30-12:55:13.121811,6.0,11.0,429.0
2023-05-30-12:55:13.122807,6.0,11.0,429.0
2023-05-30-12:55:13.123812,6.0,16.0,429.0
2023-05-30-12:55:13.124812,4.0,9.0,429.0
2023-05-30-12:55:13.125813,5.0,13.0,429.0
2023-05-30-12:55:13.126812,5.0,13.0,429.0
2023-05-30-12:55:13.127812,5.0,13.0,429.0
2023-05-30-12:55:13.128790,1.0,1.0,429.0
2023-05-30-12:55:13.129812,1.0,1.0,429.0
2023-05-30-12:55:13.130812,1.0,1.0,429.0
2023-05-30-12:55:13.131812,1.0,1.0,429.0
2023-05-30-12:55:13.132790,6.0,8.0,429.0
2023-05-30-12:55:13.133792,4.0,8.0,430.0
2023-05-30-12:55:13.134790,5.0,12.0,429.0
2023-05-30-12:55:13.135790,5.0,12.0,429.0
2023-05-30-12:55:13.136795,5.0,4.0,429.0
2023-05-30-12:55:13.137790,4.0,12.0,429.0
2023-05-30-12:55:13.138791,6.0,6.0,429.0
2023-05-30-12:55:13.139790,6.0,6.0,429.0
2023-05-30-12:55:13.140791,4.0,12.0,429.0
2023-05-30-12:55:13.141790,3.0,6.0,429.0
2023-05-30-12:55:13.142790,2.0,1.0,429.0
2023-05-30-12:55:13.143790,2.0,1.0,429.0
2023-05-30-12:55:13.144791,1.0,3.0,429.0
2023-05-30-12:55:13.145792,6.0,5.0,429.0
2023-05-30-12:55:13.146791,5.0,6.0,429.0
2023-05-30-12:55:13.147791,5.0,6.0,429.0
2023-05-30-12:55:13.149793,4.0,8.0,429.0
2023-05-30-12:55:13.149793,4.0,8.0,429.0
2023-05-30-12:55:13.150790,4.0,8.0,429.0
2023-05-30-12:55:13.151790,4.0,8.0,429.0
2023-05-30-12:55:13.152792,6.0,6.0,429.0
2023-05-30-12:55:13.153791,5.0,29.0,429.0
2023-05-30-12:55:13.154790,8.0,5.0,429.0
2023-05-30-12:55:13.155755,8.0,5.0,429.0
2023-05-30-12:55:13.156791,6.0,4.0,429.0
2023-05-30-12:55:13.157790,2.0,1.0,429.0
2023-05-30-12:55:13.158790,5.0,10.0,429.0
2023-05-30-12:55:13.159755,5.0,10.0,429.0
2023-05-30-12:55:13.160790,4.0,12.0,429.0
2023-05-30-12:55:13.161789,3.0,20.0,429.0
2023-05-30-12:55:13.162791,5.0,18.0,429.0
2023-05-30-12:55:13.163765,5.0,18.0,429.0
2023-05-30-12:55:13.164791,1.0,9.0,429.0
2023-05-30-12:55:13.165756,1.0,9.0,429.0
2023-05-30-12:55:13.166756,3.0,6.0,429.0
2023-05-30-12:55:13.167790,6.0,30.0,429.0
2023-05-30-12:55:13.168792,5.0,16.0,429.0
2023-05-30-12:55:13.169791,4.0,20.0,429.0
2023-05-30-12:55:13.170812,3.0,19.0,429.0
2023-05-30-12:55:13.171812,3.0,19.0,429.0
2023-05-30-12:55:13.172812,3.0,19.0,429.0
2023-05-30-12:55:13.173813,7.0,54.0,430.0
2023-05-30-12:55:13.174812,6.0,13.0,429.0
2023-05-30-12:55:13.175812,6.0,13.0,429.0
2023-05-30-12:55:13.176812,6.0,13.0,429.0
2023-05-30-12:55:13.177816,7.0,15.0,429.0
2023-05-30-12:55:13.178812,8.0,24.0,429.0
2023-05-30-12:55:13.179812,5.0,24.0,429.0
2023-05-30-12:55:13.180790,5.0,24.0,429.0
2023-05-30-12:55:13.181791,4.0,25.0,429.0
2023-05-30-12:55:13.182756,1.0,10.0,429.0
2023-05-30-12:55:13.184753,1.0,10.0,429.0
2023-05-30-12:55:13.184753,0.0,15.0,429.0
2023-05-30-12:55:13.185812,3.0,4.0,429.0
2023-05-30-12:55:13.186814,3.0,4.0,429.0
2023-05-30-12:55:13.187812,3.0,4.0,429.0
2023-05-30-12:55:13.188811,3.0,4.0,429.0
2023-05-30-12:55:13.189812,5.0,1.0,430.0
2023-05-30-12:55:13.190812,3.0,2.0,429.0
2023-05-30-12:55:13.191812,4.0,5.0,429.0
2023-05-30-12:55:13.192812,4.0,5.0,429.0
2023-05-30-12:55:13.193811,2.0,6.0,429.0
2023-05-30-12:55:13.194821,3.0,3.0,429.0
2023-05-30-12:55:13.195812,4.0,3.0,429.0
2023-05-30-12:55:13.196814,4.0,3.0,429.0
2023-05-30-12:55:13.197812,5.0,8.0,429.0
2023-05-30-12:55:13.198819,4.0,5.0,429.0
2023-05-30-12:55:13.199812,5.0,4.0,429.0
2023-05-30-12:55:13.200755,5.0,4.0,429.0
2023-05-30-12:55:13.201812,2.0,10.0,429.0
2023-05-30-12:55:13.202812,7.0,14.0,429.0
2023-05-30-12:55:13.203812,4.0,35.0,429.0
2023-05-30-12:55:13.204762,4.0,35.0,429.0
2023-05-30-12:55:13.205812,8.0,4.0,429.0
2023-05-30-12:55:13.206812,4.0,24.0,429.0
2023-05-30-12:55:13.207812,7.0,10.0,429.0
2023-05-30-12:55:13.208812,7.0,10.0,429.0
2023-05-30-12:55:13.209794,7.0,10.0,429.0
2023-05-30-12:55:13.210811,5.0,4.0,429.0
2023-05-30-12:55:13.211812,7.0,4.0,429.0
2023-05-30-12:55:13.212790,7.0,4.0,429.0
2023-05-30-12:55:13.213812,7.0,4.0,429.0
2023-05-30-12:55:13.214812,5.0,7.0,429.0
2023-05-30-12:55:13.215757,4.0,10.0,429.0
2023-05-30-12:55:13.216809,3.0,20.0,429.0
2023-05-30-12:55:13.217811,4.0,6.0,429.0
2023-05-30-12:55:13.219753,7.0,3.0,429.0
2023-05-30-12:55:13.219753,7.0,3.0,429.0
2023-05-30-12:55:13.220810,7.0,3.0,429.0
2023-05-30-12:55:13.221812,7.0,3.0,429.0
2023-05-30-12:55:13.222790,9.0,19.0,429.0
2023-05-30-12:55:13.223789,8.0,18.0,429.0
2023-05-30-12:55:13.224772,8.0,18.0,429.0
2023-05-30-12:55:13.225755,8.0,18.0,429.0
2023-05-30-12:55:13.226790,4.0,16.0,429.0
2023-05-30-12:55:13.227791,2.0,14.0,429.0
2023-05-30-12:55:13.228812,4.0,1.0,429.0
2023-05-30-12:55:13.229812,4.0,1.0,429.0
2023-05-30-12:55:13.230814,3.0,28.0,429.0
2023-05-30-12:55:13.231789,5.0,6.0,429.0
2023-05-30-12:55:13.232813,5.0,17.0,429.0
2023-05-30-12:55:13.233812,5.0,17.0,429.0
2023-05-30-12:55:13.234811,2.0,13.0,429.0
2023-05-30-12:55:13.235812,9.0,7.0,429.0
2023-05-30-12:55:13.236812,6.0,6.0,429.0
2023-05-30-12:55:13.237812,6.0,6.0,429.0
2023-05-30-12:55:13.238803,5.0,16.0,429.0
2023-05-30-12:55:13.239803,8.0,10.0,429.0
2023-05-30-12:55:13.240803,8.0,10.0,429.0
2023-05-30-12:55:13.241755,8.0,10.0,429.0
2023-05-30-12:55:13.242812,5.0,14.0,429.0
2023-05-30-12:55:13.243812,6.0,2.0,429.0
2023-05-30-12:55:13.244786,5.0,2.0,430.0
2023-05-30-12:55:13.245782,5.0,2.0,430.0
2023-05-30-12:55:13.246781,5.0,2.0,430.0
2023-05-30-12:55:13.247781,2.0,2.0,429.0
2023-05-30-12:55:13.248785,1.0,15.0,429.0
2023-05-30-12:55:13.249780,1.0,15.0,429.0
2023-05-30-12:55:13.250781,5.0,4.0,429.0
2023-05-30-12:55:13.251781,3.0,9.0,429.0
2023-05-30-12:55:13.253753,6.0,12.0,429.0
2023-05-30-12:55:13.253753,6.0,12.0,429.0
2023-05-30-12:55:13.254790,6.0,13.0,429.0
2023-05-30-12:55:13.255812,5.0,8.0,429.0
2023-05-30-12:55:13.256803,5.0,8.0,429.0
2023-05-30-12:55:13.257816,5.0,8.0,429.0
2023-05-30-12:55:13.258812,5.0,8.0,429.0
2023-05-30-12:55:13.259812,5.0,4.0,429.0
2023-05-30-12:55:13.260790,4.0,8.0,429.0
2023-05-30-12:55:13.261754,4.0,8.0,429.0
2023-05-30-12:55:13.262759,4.0,8.0,429.0
2023-05-30-12:55:13.263754,7.0,5.0,429.0
2023-05-30-12:55:13.264755,3.0,16.0,429.0
2023-05-30-12:55:13.265756,3.0,16.0,429.0
2023-05-30-12:55:13.266755,3.0,16.0,429.0
2023-05-30-12:55:13.267757,3.0,26.0,429.0
2023-05-30-12:55:13.268755,3.0,26.0,429.0
2023-05-30-12:55:13.269774,5.0,19.0,429.0
2023-05-30-12:55:13.270755,3.0,11.0,430.0
2023-05-30-12:55:13.271755,3.0,13.0,429.0
2023-05-30-12:55:13.272755,5.0,11.0,429.0
2023-05-30-12:55:13.273755,4.0,5.0,429.0
2023-05-30-12:55:13.274754,4.0,5.0,429.0
2023-05-30-12:55:13.275755,7.0,5.0,429.0
2023-05-30-12:55:13.276790,8.0,4.0,429.0
2023-05-30-12:55:13.277791,7.0,3.0,429.0
2023-05-30-12:55:13.278790,7.0,3.0,429.0
2023-05-30-12:55:13.279790,5.0,14.0,429.0
2023-05-30-12:55:13.280791,4.0,13.0,429.0
2023-05-30-12:55:13.281790,6.0,17.0,429.0
2023-05-30-12:55:13.282758,6.0,17.0,429.0
2023-05-30-12:55:13.283790,7.0,10.0,429.0
2023-05-30-12:55:13.284791,1.0,39.0,429.0
2023-05-30-12:55:13.285790,1.0,47.0,429.0
2023-05-30-12:55:13.286755,1.0,47.0,429.0
2023-05-30-12:55:13.287803,6.0,15.0,429.0
2023-05-30-12:55:13.289806,6.0,15.0,429.0
2023-05-30-12:55:13.289806,8.0,59.0,429.0
2023-05-30-12:55:13.290787,8.0,59.0,429.0
2023-05-30-12:55:13.291813,7.0,42.0,429.0
2023-05-30-12:55:13.292814,6.0,0.0,429.0
2023-05-30-12:55:13.293812,1.0,7.0,429.0
2023-05-30-12:55:13.294814,1.0,7.0,429.0
2023-05-30-12:55:13.295812,4.0,0.0,429.0
2023-05-30-12:55:13.296813,4.0,10.0,429.0
2023-05-30-12:55:13.297812,3.0,8.0,429.0
2023-05-30-12:55:13.298811,3.0,8.0,429.0
2023-05-30-12:55:13.299791,3.0,4.0,429.0
2023-05-30-12:55:13.300812,7.0,17.0,429.0
2023-05-30-12:55:13.301812,7.0,12.0,429.0
2023-05-30-12:55:13.302811,7.0,12.0,429.0
2023-05-30-12:55:13.303790,8.0,6.0,429.0
2023-05-30-12:55:13.304811,5.0,17.0,429.0
2023-05-30-12:55:13.305815,5.0,17.0,429.0
2023-05-30-12:55:13.306792,5.0,17.0,429.0
2023-05-30-12:55:13.307791,5.0,17.0,429.0
2023-05-30-12:55:13.308790,3.0,0.0,429.0
2023-05-30-12:55:13.309791,7.0,8.0,429.0
2023-05-30-12:55:13.310790,7.0,8.0,429.0
2023-05-30-12:55:13.311790,7.0,8.0,429.0
2023-05-30-12:55:13.312792,7.0,27.0,429.0
2023-05-30-12:55:13.313791,6.0,11.0,429.0
2023-05-30-12:55:13.314792,2.0,2.0,429.0
2023-05-30-12:55:13.315757,2.0,2.0,429.0
2023-05-30-12:55:13.316795,5.0,25.0,429.0
2023-05-30-12:55:13.317789,4.0,11.0,429.0
2023-05-30-12:55:13.318790,4.0,11.0,429.0
2023-05-30-12:55:13.319790,4.0,11.0,429.0
2023-05-30-12:55:13.320790,4.0,10.0,429.0
2023-05-30-12:55:13.322790,4.0,20.0,429.0
2023-05-30-12:55:13.322790,4.0,13.0,429.0
2023-05-30-12:55:13.323756,4.0,13.0,429.0
2023-05-30-12:55:13.324790,4.0,14.0,429.0
2023-05-30-12:55:13.325792,4.0,14.0,429.0
2023-05-30-12:55:13.326792,4.0,14.0,429.0
2023-05-30-12:55:13.327756,4.0,14.0,429.0
2023-05-30-12:55:13.328791,5.0,1.0,429.0
2023-05-30-12:55:13.329790,4.0,6.0,429.0
2023-05-30-12:55:13.330792,4.0,14.0,429.0
2023-05-30-12:55:13.331755,4.0,14.0,429.0
2023-05-30-12:55:13.332756,5.0,8.0,429.0
2023-05-30-12:55:13.333790,4.0,3.0,429.0
2023-05-30-12:55:13.334790,5.0,3.0,429.0
2023-05-30-12:55:13.335789,5.0,3.0,429.0
2023-05-30-12:55:13.336791,5.0,2.0,429.0
2023-05-30-12:55:13.337794,6.0,13.0,429.0
2023-05-30-12:55:13.338791,7.0,0.0,429.0
2023-05-30-12:55:13.339755,7.0,0.0,429.0
2023-05-30-12:55:13.340790,5.0,12.0,429.0
2023-05-30-12:55:13.341791,5.0,22.0,429.0
2023-05-30-12:55:13.342790,8.0,25.0,429.0
2023-05-30-12:55:13.343790,8.0,25.0,429.0
2023-05-30-12:55:13.344792,8.0,25.0,429.0
2023-05-30-12:55:13.345790,3.0,16.0,429.0
2023-05-30-12:55:13.346792,3.0,2.0,429.0
2023-05-30-12:55:13.347790,4.0,2.0,429.0
2023-05-30-12:55:13.348791,4.0,2.0,429.0
2023-05-30-12:55:13.349802,1.0,7.0,430.0
2023-05-30-12:55:13.350793,7.0,13.0,429.0
2023-05-30-12:55:13.351790,7.0,13.0,429.0
2023-05-30-12:55:13.352791,7.0,13.0,429.0
2023-05-30-12:55:13.353794,6.0,15.0,429.0
2023-05-30-12:55:13.354790,3.0,3.0,429.0
2023-05-30-12:55:13.355791,3.0,3.0,429.0
2023-05-30-12:55:13.357754,3.0,3.0,429.0
2023-05-30-12:55:13.357754,9.0,13.0,429.0
2023-05-30-12:55:13.358811,5.0,4.0,429.0
2023-05-30-12:55:13.359811,5.0,4.0,429.0
2023-05-30-12:55:13.360797,5.0,4.0,429.0
2023-05-30-12:55:13.361810,5.0,14.0,429.0
2023-05-30-12:55:13.362813,3.0,20.0,429.0
2023-05-30-12:55:13.363811,6.0,8.0,429.0
2023-05-30-12:55:13.364811,6.0,8.0,429.0
2023-05-30-12:55:13.365757,5.0,15.0,429.0
2023-05-30-12:55:13.366776,5.0,15.0,429.0
2023-05-30-12:55:13.367811,5.0,15.0,429.0
2023-05-30-12:55:13.368755,5.0,15.0,429.0
2023-05-30-12:55:13.369815,5.0,9.0,429.0
2023-05-30-12:55:13.370811,2.0,16.0,429.0
2023-05-30-12:55:13.371810,2.0,3.0,429.0
2023-05-30-12:55:13.372755,2.0,3.0,429.0
2023-05-30-12:55:13.373812,5.0,16.0,429.0
2023-05-30-12:55:13.374798,3.0,11.0,429.0
2023-05-30-12:55:13.375790,3.0,11.0,429.0
2023-05-30-12:55:13.376773,3.0,11.0,429.0
2023-05-30-12:55:13.377754,4.0,14.0,429.0
2023-05-30-12:55:13.378754,7.0,6.0,429.0
2023-05-30-12:55:13.379753,7.0,6.0,429.0
2023-05-30-12:55:13.380753,7.0,6.0,429.0
2023-05-30-12:55:13.381790,7.0,6.0,429.0
2023-05-30-12:55:13.382757,7.0,12.0,429.0
2023-05-30-12:55:13.383784,4.0,55.0,429.0
2023-05-30-12:55:13.384811,4.0,55.0,429.0
2023-05-30-12:55:13.385814,4.0,55.0,429.0
2023-05-30-12:55:13.386800,4.0,19.0,429.0
2023-05-30-12:55:13.387791,6.0,5.0,429.0
2023-05-30-12:55:13.388790,7.0,24.0,429.0
2023-05-30-12:55:13.389797,7.0,24.0,429.0
2023-05-30-12:55:13.391790,3.0,4.0,429.0
2023-05-30-12:55:13.392756,1.0,6.0,429.0
2023-05-30-12:55:13.392756,1.0,6.0,429.0
2023-05-30-12:55:13.393791,1.0,6.0,429.0
2023-05-30-12:55:13.394790,5.0,16.0,429.0
2023-05-30-12:55:13.395783,6.0,15.0,429.0
2023-05-30-12:55:13.396791,5.0,22.0,429.0
2023-05-30-12:55:13.397790,5.0,22.0,429.0
2023-05-30-12:55:13.398792,6.0,16.0,429.0
2023-05-30-12:55:13.399791,4.0,17.0,429.0
2023-05-30-12:55:13.400790,3.0,18.0,429.0
2023-05-30-12:55:13.401794,3.0,18.0,429.0
2023-05-30-12:55:13.402794,5.0,16.0,429.0
2023-05-30-12:55:13.403791,8.0,10.0,429.0
2023-05-30-12:55:13.404790,4.0,4.0,429.0
2023-05-30-12:55:13.405790,4.0,4.0,429.0
2023-05-30-12:55:13.406790,6.0,3.0,429.0
2023-05-30-12:55:13.407790,3.0,0.0,429.0
2023-05-30-12:55:13.408791,9.0,3.0,429.0
2023-05-30-12:55:13.409790,9.0,3.0,429.0
2023-05-30-12:55:13.410792,6.0,10.0,429.0
2023-05-30-12:55:13.411790,3.0,9.0,429.0
2023-05-30-12:55:13.412790,3.0,16.0,429.0
2023-05-30-12:55:13.413755,3.0,16.0,429.0
2023-05-30-12:55:13.414793,3.0,7.0,429.0
2023-05-30-12:55:13.415757,5.0,2.0,429.0
2023-05-30-12:55:13.416792,2.0,1.0,429.0
2023-05-30-12:55:13.417756,2.0,1.0,429.0
2023-05-30-12:55:13.418790,7.0,11.0,429.0
2023-05-30-12:55:13.419790,6.0,9.0,429.0
2023-05-30-12:55:13.420790,6.0,9.0,429.0
2023-05-30-12:55:13.421812,6.0,9.0,429.0
2023-05-30-12:55:13.422795,3.0,1.0,429.0
2023-05-30-12:55:13.423790,7.0,8.0,429.0
2023-05-30-12:55:13.425754,8.0,5.0,429.0
2023-05-30-12:55:13.425754,4.0,4.0,429.0
2023-05-30-12:55:13.426813,4.0,4.0,429.0
2023-05-30-12:55:13.427813,4.0,4.0,429.0
2023-05-30-12:55:13.428790,4.0,4.0,429.0
2023-05-30-12:55:13.429811,4.0,4.0,429.0
2023-05-30-12:55:13.430812,4.0,4.0,429.0
2023-05-30-12:55:13.431812,4.0,7.0,429.0
2023-05-30-12:55:13.432756,4.0,3.0,429.0
2023-05-30-12:55:13.433815,3.0,3.0,429.0
2023-05-30-12:55:13.434812,3.0,3.0,429.0
2023-05-30-12:55:13.435812,3.0,5.0,429.0
2023-05-30-12:55:13.436814,3.0,2.0,429.0
2023-05-30-12:55:13.437812,4.0,8.0,429.0
2023-05-30-12:55:13.438814,4.0,8.0,429.0
2023-05-30-12:55:13.439812,4.0,8.0,429.0
2023-05-30-12:55:13.440813,3.0,6.0,429.0
2023-05-30-12:55:13.441753,3.0,5.0,429.0
2023-05-30-12:55:13.442813,3.0,5.0,429.0
2023-05-30-12:55:13.443812,7.0,13.0,429.0
2023-05-30-12:55:13.444812,5.0,16.0,429.0
2023-05-30-12:55:13.445816,5.0,13.0,429.0
2023-05-30-12:55:13.446812,5.0,13.0,429.0
2023-05-30-12:55:13.447812,5.0,7.0,429.0
2023-05-30-12:55:13.448814,7.0,13.0,429.0
2023-05-30-12:55:13.449756,5.0,33.0,429.0
2023-05-30-12:55:13.450790,5.0,33.0,429.0
2023-05-30-12:55:13.451799,6.0,17.0,429.0
2023-05-30-12:55:13.452792,4.0,23.0,429.0
2023-05-30-12:55:13.453791,1.0,17.0,429.0
2023-05-30-12:55:13.454755,1.0,17.0,429.0
2023-05-30-12:55:13.455790,0.0,2.0,429.0
2023-05-30-12:55:13.456791,5.0,8.0,429.0
2023-05-30-12:55:13.457790,9.0,13.0,429.0
2023-05-30-12:55:13.458755,9.0,13.0,429.0
2023-05-30-12:55:13.460818,8.0,9.0,429.0
2023-05-30-12:55:13.460818,5.0,1.0,429.0
2023-05-30-12:55:13.461755,8.0,16.0,429.0
2023-05-30-12:55:13.462792,8.0,16.0,429.0
2023-05-30-12:55:13.463813,6.0,26.0,429.0
2023-05-30-12:55:13.464812,5.0,15.0,429.0
2023-05-30-12:55:13.465775,2.0,4.0,429.0
2023-05-30-12:55:13.466791,2.0,4.0,429.0
2023-05-30-12:55:13.467812,3.0,68.0,429.0
2023-05-30-12:55:13.468814,5.0,10.0,428.0
2023-05-30-12:55:13.469812,5.0,15.0,428.0
2023-05-30-12:55:13.470814,5.0,15.0,428.0
2023-05-30-12:55:13.471812,5.0,15.0,428.0
2023-05-30-12:55:13.472813,5.0,4.0,428.0
2023-05-30-12:55:13.473812,5.0,4.0,428.0
2023-05-30-12:55:13.474791,5.0,4.0,428.0
2023-05-30-12:55:13.475812,5.0,4.0,428.0
2023-05-30-12:55:13.476790,8.0,34.0,427.0
2023-05-30-12:55:13.477811,8.0,34.0,427.0
2023-05-30-12:55:13.478813,8.0,34.0,427.0
2023-05-30-12:55:13.479812,8.0,34.0,427.0
2023-05-30-12:55:13.480812,4.0,42.0,427.0
2023-05-30-12:55:13.481815,4.0,37.0,427.0
2023-05-30-12:55:13.482757,7.0,27.0,427.0
2023-05-30-12:55:13.483791,7.0,27.0,427.0
2023-05-30-12:55:13.484814,3.0,6.0,426.0
2023-05-30-12:55:13.485812,4.0,12.0,426.0
2023-05-30-12:55:13.486814,5.0,22.0,426.0
2023-05-30-12:55:13.487816,5.0,22.0,426.0
2023-05-30-12:55:13.488814,3.0,4.0,426.0
2023-05-30-12:55:13.489812,2.0,12.0,425.0
2023-05-30-12:55:13.490818,3.0,2.0,425.0
2023-05-30-12:55:13.491811,3.0,2.0,425.0
2023-05-30-12:55:13.492812,8.0,27.0,425.0
2023-05-30-12:55:13.494754,6.0,5.0,424.0
2023-05-30-12:55:13.494754,5.0,8.0,424.0
2023-05-30-12:55:13.495817,5.0,8.0,424.0
2023-05-30-12:55:13.496811,4.0,20.0,424.0
2023-05-30-12:55:13.497815,4.0,7.0,423.0
2023-05-30-12:55:13.498812,4.0,11.0,423.0
2023-05-30-12:55:13.499755,4.0,11.0,423.0
2023-05-30-12:55:13.500814,2.0,11.0,423.0
2023-05-30-12:55:13.501791,5.0,0.0,422.0
2023-05-30-12:55:13.502814,6.0,8.0,422.0
2023-05-30-12:55:13.503767,6.0,8.0,422.0
2023-05-30-12:55:13.504813,3.0,14.0,422.0
2023-05-30-12:55:13.505812,5.0,9.0,421.0
2023-05-30-12:55:13.506813,3.0,5.0,421.0
2023-05-30-12:55:13.507812,3.0,5.0,421.0
2023-05-30-12:55:13.508796,5.0,2.0,421.0
2023-05-30-12:55:13.509790,6.0,7.0,420.0
2023-05-30-12:55:13.510755,4.0,17.0,419.0
2023-05-30-12:55:13.511812,4.0,17.0,419.0
2023-05-30-12:55:13.512812,4.0,18.0,418.0
2023-05-30-12:55:13.513815,5.0,10.0,419.0
2023-05-30-12:55:13.514813,5.0,10.0,419.0
2023-05-30-12:55:13.515791,5.0,10.0,419.0
2023-05-30-12:55:13.516813,5.0,10.0,419.0
2023-05-30-12:55:13.517811,6.0,1.0,418.0
2023-05-30-12:55:13.518819,7.0,6.0,417.0
2023-05-30-12:55:13.519811,6.0,10.0,417.0
2023-05-30-12:55:13.520819,6.0,10.0,417.0
2023-05-30-12:55:13.521812,6.0,2.0,417.0
2023-05-30-12:55:13.522818,7.0,1.0,416.0
2023-05-30-12:55:13.523812,3.0,17.0,416.0
2023-05-30-12:55:13.524812,3.0,17.0,416.0
2023-05-30-12:55:13.525811,4.0,21.0,415.0
2023-05-30-12:55:13.526812,4.0,8.0,415.0
2023-05-30-12:55:13.527817,1.0,7.0,414.0
2023-05-30-12:55:13.529815,1.0,7.0,414.0
2023-05-30-12:55:13.529815,4.0,13.0,413.0
2023-05-30-12:55:13.530790,4.0,13.0,413.0
2023-05-30-12:55:13.531815,4.0,13.0,413.0
2023-05-30-12:55:13.532791,4.0,13.0,413.0
2023-05-30-12:55:13.533756,5.0,8.0,413.0
2023-05-30-12:55:13.534814,4.0,36.0,412.0
2023-05-30-12:55:13.535812,6.0,11.0,411.0
2023-05-30-12:55:13.536812,6.0,11.0,411.0
2023-05-30-12:55:13.537812,5.0,6.0,411.0
2023-05-30-12:55:13.538813,8.0,25.0,410.0
2023-05-30-12:55:13.539811,5.0,45.0,410.0
2023-05-30-12:55:13.540755,5.0,45.0,410.0
2023-05-30-12:55:13.541816,7.0,18.0,410.0
2023-05-30-12:55:13.542812,4.0,1.0,409.0
2023-05-30-12:55:13.543822,8.0,0.0,408.0
2023-05-30-12:55:13.544755,8.0,0.0,408.0
2023-05-30-12:55:13.545815,5.0,3.0,407.0
2023-05-30-12:55:13.546803,5.0,4.0,407.0
2023-05-30-12:55:13.547790,5.0,4.0,407.0
2023-05-30-12:55:13.548804,5.0,4.0,407.0
2023-05-30-12:55:13.549756,4.0,4.0,406.0
2023-05-30-12:55:13.550794,4.0,18.0,406.0
2023-05-30-12:55:13.551790,4.0,9.0,405.0
2023-05-30-12:55:13.552790,4.0,9.0,405.0
2023-05-30-12:55:13.553791,4.0,9.0,405.0
2023-05-30-12:55:13.554791,11.0,9.0,403.0
2023-05-30-12:55:13.555795,11.0,9.0,403.0
2023-05-30-12:55:13.556790,11.0,9.0,403.0
2023-05-30-12:55:13.557790,11.0,9.0,403.0
2023-05-30-12:55:13.558792,6.0,16.0,403.0
2023-05-30-12:55:13.559790,5.0,6.0,402.0
2023-05-30-12:55:13.560790,4.0,12.0,401.0
2023-05-30-12:55:13.561793,4.0,12.0,401.0
2023-05-30-12:55:13.563754,5.0,5.0,400.0
2023-05-30-12:55:13.563754,5.0,2.0,400.0
2023-05-30-12:55:13.564813,5.0,2.0,400.0
2023-05-30-12:55:13.565801,5.0,2.0,400.0
2023-05-30-12:55:13.566791,5.0,14.0,398.0
2023-05-30-12:55:13.567811,2.0,12.0,398.0
2023-05-30-12:55:13.568812,2.0,12.0,398.0
2023-05-30-12:55:13.569812,2.0,12.0,398.0
2023-05-30-12:55:13.570813,8.0,12.0,397.0
2023-05-30-12:55:13.571812,1.0,12.0,397.0
2023-05-30-12:55:13.572812,1.0,16.0,396.0
2023-05-30-12:55:13.573790,1.0,16.0,396.0
2023-05-30-12:55:13.574811,5.0,16.0,396.0
2023-05-30-12:55:13.575754,6.0,45.0,395.0
2023-05-30-12:55:13.576754,6.0,45.0,395.0
2023-05-30-12:55:13.577753,6.0,45.0,395.0
2023-05-30-12:55:13.578753,3.0,17.0,393.0
2023-05-30-12:55:13.579753,3.0,17.0,393.0
2023-05-30-12:55:13.580754,3.0,17.0,393.0
2023-05-30-12:55:13.581753,3.0,17.0,393.0
2023-05-30-12:55:13.582753,2.0,1.0,393.0
2023-05-30-12:55:13.583755,5.0,4.0,392.0
2023-05-30-12:55:13.584790,5.0,4.0,392.0
2023-05-30-12:55:13.585755,5.0,4.0,392.0
2023-05-30-12:55:13.586791,5.0,2.0,392.0
2023-05-30-12:55:13.587792,6.0,22.0,391.0
2023-05-30-12:55:13.588790,3.0,23.0,391.0
2023-05-30-12:55:13.589786,3.0,23.0,391.0
2023-05-30-12:55:13.590793,5.0,22.0,391.0
2023-05-30-12:55:13.591794,5.0,9.0,390.0
2023-05-30-12:55:13.592790,6.0,18.0,390.0
2023-05-30-12:55:13.593793,6.0,18.0,390.0
2023-05-30-12:55:13.594790,6.0,18.0,390.0
2023-05-30-12:55:13.596790,1.0,12.0,389.0
2023-05-30-12:55:13.596790,1.0,12.0,389.0
2023-05-30-12:55:13.597790,1.0,12.0,389.0
2023-05-30-12:55:13.598791,1.0,12.0,389.0
2023-05-30-12:55:13.599790,7.0,3.0,388.0
2023-05-30-12:55:13.600790,7.0,5.0,388.0
2023-05-30-12:55:13.601790,7.0,5.0,388.0
2023-05-30-12:55:13.602791,7.0,5.0,388.0
2023-05-30-12:55:13.603791,3.0,23.0,388.0
2023-05-30-12:55:13.604791,5.0,17.0,388.0
2023-05-30-12:55:13.605790,3.0,4.0,387.0
2023-05-30-12:55:13.606792,3.0,4.0,387.0
2023-05-30-12:55:13.607790,5.0,26.0,387.0
2023-05-30-12:55:13.608790,7.0,4.0,387.0
2023-05-30-12:55:13.609793,4.0,17.0,387.0
2023-05-30-12:55:13.610790,4.0,17.0,387.0
2023-05-30-12:55:13.611790,4.0,5.0,387.0
2023-05-30-12:55:13.612791,4.0,11.0,387.0
2023-05-30-12:55:13.613790,4.0,11.0,387.0
2023-05-30-12:55:13.614790,4.0,11.0,387.0
2023-05-30-12:55:13.615790,4.0,7.0,386.0
2023-05-30-12:55:13.616792,6.0,14.0,386.0
2023-05-30-12:55:13.617797,2.0,11.0,386.0
2023-05-30-12:55:13.618791,2.0,11.0,386.0
2023-05-30-12:55:13.619790,6.0,4.0,386.0
2023-05-30-12:55:13.620796,8.0,6.0,386.0
2023-05-30-12:55:13.622783,6.0,41.0,386.0
2023-05-30-12:55:13.622783,5.0,18.0,386.0
2023-05-30-12:55:13.623802,5.0,18.0,386.0
2023-05-30-12:55:13.624802,5.0,18.0,386.0
2023-05-30-12:55:13.625805,5.0,18.0,386.0
2023-05-30-12:55:13.626756,5.0,18.0,386.0
2023-05-30-12:55:13.627812,2.0,7.0,386.0
2023-05-30-12:55:13.628813,7.0,7.0,386.0
2023-05-30-12:55:13.630754,7.0,6.0,386.0
2023-05-30-12:55:13.630754,7.0,6.0,386.0
2023-05-30-12:55:13.631790,3.0,2.0,386.0
2023-05-30-12:55:13.632757,3.0,14.0,386.0
2023-05-30-12:55:13.633756,3.0,14.0,386.0
2023-05-30-12:55:13.634829,3.0,14.0,386.0
2023-05-30-12:55:13.635814,4.0,5.0,386.0
2023-05-30-12:55:13.636813,7.0,15.0,386.0
2023-05-30-12:55:13.637816,5.0,16.0,386.0
2023-05-30-12:55:13.638812,5.0,16.0,386.0
2023-05-30-12:55:13.639812,5.0,16.0,386.0
2023-05-30-12:55:13.640812,3.0,6.0,386.0
2023-05-30-12:55:13.641815,6.0,20.0,386.0
2023-05-30-12:55:13.642812,6.0,20.0,386.0
2023-05-30-12:55:13.643791,6.0,20.0,386.0
2023-05-30-12:55:13.644813,3.0,11.0,386.0
2023-05-30-12:55:13.645812,5.0,0.0,386.0
2023-05-30-12:55:13.646819,5.0,0.0,386.0
2023-05-30-12:55:13.647811,5.0,0.0,386.0
2023-05-30-12:55:13.648813,3.0,1.0,386.0
2023-05-30-12:55:13.649758,4.0,25.0,386.0
2023-05-30-12:55:13.650812,4.0,25.0,386.0
2023-05-30-12:55:13.651813,4.0,25.0,386.0
2023-05-30-12:55:13.652811,5.0,8.0,386.0
2023-05-30-12:55:13.653816,6.0,15.0,386.0
2023-05-30-12:55:13.654812,4.0,17.0,386.0
2023-05-30-12:55:13.655816,4.0,10.0,386.0
2023-05-30-12:55:13.656789,4.0,7.0,386.0
2023-05-30-12:55:13.657793,4.0,1.0,386.0
2023-05-30-12:55:13.658788,5.0,9.0,386.0
2023-05-30-12:55:13.659790,5.0,9.0,386.0
2023-05-30-12:55:13.660813,4.0,2.0,386.0
2023-05-30-12:55:13.661812,4.0,6.0,386.0
2023-05-30-12:55:13.662813,6.0,26.0,386.0
2023-05-30-12:55:13.664812,7.0,27.0,386.0
2023-05-30-12:55:13.664812,1.0,24.0,386.0
2023-05-30-12:55:13.665755,1.0,24.0,386.0
2023-05-30-12:55:13.666791,1.0,24.0,386.0
2023-05-30-12:55:13.667755,1.0,24.0,386.0
2023-05-30-12:55:13.668812,2.0,31.0,386.0
2023-05-30-12:55:13.669790,1.0,22.0,386.0
2023-05-30-12:55:13.670792,7.0,15.0,386.0
2023-05-30-12:55:13.671755,7.0,15.0,386.0
2023-05-30-12:55:13.672813,6.0,17.0,386.0
2023-05-30-12:55:13.673792,5.0,9.0,386.0
2023-05-30-12:55:13.674812,5.0,28.0,385.0
2023-05-30-12:55:13.675792,5.0,28.0,385.0
2023-05-30-12:55:13.676813,5.0,23.0,386.0
2023-05-30-12:55:13.677812,5.0,3.0,386.0
2023-05-30-12:55:13.678818,5.0,4.0,386.0
2023-05-30-12:55:13.679812,5.0,4.0,386.0
2023-05-30-12:55:13.680812,5.0,4.0,386.0
2023-05-30-12:55:13.681790,3.0,30.0,386.0
2023-05-30-12:55:13.682758,3.0,30.0,386.0
2023-05-30-12:55:13.683812,3.0,30.0,386.0
2023-05-30-12:55:13.684812,3.0,30.0,386.0
2023-05-30-12:55:13.685816,7.0,16.0,386.0
2023-05-30-12:55:13.686812,7.0,21.0,386.0
2023-05-30-12:55:13.687812,7.0,21.0,386.0
2023-05-30-12:55:13.688812,7.0,21.0,386.0
2023-05-30-12:55:13.689814,5.0,1.0,386.0
2023-05-30-12:55:13.690790,3.0,6.0,386.0
2023-05-30-12:55:13.691791,2.0,5.0,386.0
2023-05-30-12:55:13.692813,2.0,5.0,386.0
2023-05-30-12:55:13.693812,7.0,4.0,386.0
2023-05-30-12:55:13.694813,5.0,4.0,386.0
2023-05-30-12:55:13.695812,5.0,9.0,386.0
2023-05-30-12:55:13.696812,5.0,9.0,386.0
2023-05-30-12:55:13.697811,4.0,6.0,386.0
2023-05-30-12:55:13.699754,4.0,8.0,386.0
2023-05-30-12:55:13.699754,5.0,7.0,386.0
2023-05-30-12:55:13.700755,3.0,6.0,386.0
2023-05-30-12:55:13.701811,3.0,2.0,386.0
2023-05-30-12:55:13.702812,3.0,2.0,386.0
2023-05-30-12:55:13.703812,3.0,2.0,386.0
2023-05-30-12:55:13.704811,3.0,2.0,386.0
2023-05-30-12:55:13.705813,1.0,4.0,386.0
2023-05-30-12:55:13.706811,3.0,11.0,386.0
2023-05-30-12:55:13.707811,5.0,22.0,386.0
2023-05-30-12:55:13.708755,5.0,22.0,386.0
2023-05-30-12:55:13.709811,7.0,10.0,386.0
2023-05-30-12:55:13.710813,7.0,29.0,386.0
2023-05-30-12:55:13.711812,8.0,15.0,386.0
2023-05-30-12:55:13.712755,8.0,15.0,386.0
2023-05-30-12:55:13.713811,3.0,4.0,386.0
2023-05-30-12:55:13.714811,4.0,9.0,386.0
2023-05-30-12:55:13.715790,1.0,28.0,386.0
2023-05-30-12:55:13.716763,1.0,28.0,386.0
2023-05-30-12:55:13.717790,5.0,2.0,386.0
2023-05-30-12:55:13.718810,5.0,2.0,386.0
2023-05-30-12:55:13.719816,5.0,2.0,386.0
2023-05-30-12:55:13.720811,5.0,2.0,386.0
2023-05-30-12:55:13.721813,6.0,4.0,386.0
2023-05-30-12:55:13.722811,4.0,6.0,386.0
2023-05-30-12:55:13.723811,6.0,7.0,386.0
2023-05-30-12:55:13.724790,6.0,7.0,386.0
2023-05-30-12:55:13.725791,3.0,9.0,386.0
2023-05-30-12:55:13.726813,3.0,11.0,386.0
2023-05-30-12:55:13.727811,6.0,7.0,386.0
2023-05-30-12:55:13.728811,6.0,7.0,386.0
2023-05-30-12:55:13.729814,6.0,7.0,386.0
2023-05-30-12:55:13.730811,3.0,7.0,386.0
2023-05-30-12:55:13.731817,7.0,2.0,386.0
2023-05-30-12:55:13.732755,5.0,7.0,386.0
2023-05-30-12:55:13.733810,5.0,7.0,386.0
2023-05-30-12:55:13.734777,3.0,7.0,386.0
2023-05-30-12:55:13.735756,5.0,9.0,386.0
2023-05-30-12:55:13.737754,4.0,8.0,386.0
2023-05-30-12:55:13.737754,4.0,11.0,386.0
2023-05-30-12:55:13.738815,6.0,6.0,386.0
2023-05-30-12:55:13.739810,8.0,42.0,386.0
2023-05-30-12:55:13.740813,8.0,42.0,386.0
2023-05-30-12:55:13.741810,8.0,42.0,386.0
2023-05-30-12:55:13.742813,8.0,11.0,386.0
2023-05-30-12:55:13.743811,5.0,20.0,386.0
2023-05-30-12:55:13.744791,4.0,28.0,386.0
2023-05-30-12:55:13.745810,4.0,28.0,386.0
2023-05-30-12:55:13.746811,4.0,17.0,386.0
2023-05-30-12:55:13.747811,7.0,37.0,386.0
2023-05-30-12:55:13.748755,5.0,12.0,386.0
2023-05-30-12:55:13.749757,5.0,12.0,386.0
2023-05-30-12:55:13.750795,6.0,4.0,386.0
2023-05-30-12:55:13.751789,6.0,4.0,386.0
2023-05-30-12:55:13.752783,4.0,9.0,386.0
2023-05-30-12:55:13.753755,4.0,9.0,386.0
2023-05-30-12:55:13.754756,4.0,11.0,386.0
2023-05-30-12:55:13.755792,3.0,7.0,386.0
2023-05-30-12:55:13.756796,2.0,10.0,386.0
2023-05-30-12:55:13.757771,2.0,10.0,386.0
2023-05-30-12:55:13.758813,4.0,4.0,386.0
2023-05-30-12:55:13.759812,4.0,4.0,386.0
2023-05-30-12:55:13.760811,4.0,3.0,386.0
2023-05-30-12:55:13.761811,4.0,3.0,386.0
2023-05-30-12:55:13.762796,4.0,3.0,386.0
2023-05-30-12:55:13.763811,6.0,6.0,386.0
2023-05-30-12:55:13.764811,4.0,11.0,386.0
2023-05-30-12:55:13.765817,5.0,1.0,386.0
2023-05-30-12:55:13.767793,5.0,1.0,386.0
2023-05-30-12:55:13.768755,3.0,1.0,386.0
2023-05-30-12:55:13.769796,3.0,1.0,386.0
2023-05-30-12:55:13.770791,3.0,1.0,386.0
2023-05-30-12:55:13.771791,3.0,5.0,386.0
2023-05-30-12:55:13.772792,4.0,13.0,386.0
2023-05-30-12:55:13.773790,5.0,31.0,386.0
2023-05-30-12:55:13.774790,5.0,31.0,386.0
2023-05-30-12:55:13.775790,7.0,5.0,386.0
2023-05-30-12:55:13.776790,5.0,2.0,386.0
2023-05-30-12:55:13.777791,8.0,32.0,386.0
2023-05-30-12:55:13.778789,8.0,32.0,386.0
2023-05-30-12:55:13.779790,6.0,2.0,386.0
2023-05-30-12:55:13.780811,3.0,5.0,386.0
2023-05-30-12:55:13.781811,6.0,4.0,386.0
2023-05-30-12:55:13.782777,6.0,4.0,386.0
2023-05-30-12:55:13.783795,6.0,8.0,386.0
2023-05-30-12:55:13.784755,6.0,8.0,386.0
2023-05-30-12:55:13.785756,6.0,8.0,386.0
2023-05-30-12:55:13.786791,6.0,8.0,386.0
2023-05-30-12:55:13.787791,2.0,25.0,386.0
2023-05-30-12:55:13.788782,1.0,11.0,386.0
2023-05-30-12:55:13.789788,2.0,3.0,385.0
2023-05-30-12:55:13.790791,2.0,3.0,385.0
2023-05-30-12:55:13.791781,4.0,0.0,386.0
2023-05-30-12:55:13.792782,4.0,13.0,386.0
2023-05-30-12:55:13.793781,7.0,25.0,386.0
2023-05-30-12:55:13.794756,7.0,25.0,386.0
2023-05-30-12:55:13.795790,7.0,2.0,386.0
2023-05-30-12:55:13.796803,7.0,18.0,386.0
2023-05-30-12:55:13.797802,7.0,18.0,386.0
2023-05-30-12:55:13.798756,7.0,18.0,386.0
2023-05-30-12:55:13.799757,5.0,12.0,386.0
2023-05-30-12:55:13.800812,5.0,12.0,386.0
2023-05-30-12:55:13.801796,4.0,18.0,386.0
2023-05-30-12:55:13.803754,4.0,18.0,386.0
2023-05-30-12:55:13.803754,2.0,2.0,386.0
2023-05-30-12:55:13.804817,2.0,2.0,386.0
2023-05-30-12:55:13.805811,2.0,2.0,386.0
2023-05-30-12:55:13.806813,2.0,2.0,386.0
2023-05-30-12:55:13.807811,2.0,2.0,386.0
2023-05-30-12:55:13.808814,7.0,4.0,386.0
2023-05-30-12:55:13.809813,5.0,5.0,386.0
2023-05-30-12:55:13.810811,5.0,5.0,386.0
2023-05-30-12:55:13.811755,5.0,5.0,386.0
2023-05-30-12:55:13.812790,1.0,23.0,386.0
2023-05-30-12:55:13.813790,1.0,23.0,386.0
2023-05-30-12:55:13.814793,1.0,23.0,386.0
2023-05-30-12:55:13.815791,1.0,23.0,386.0
2023-05-30-12:55:13.816755,2.0,23.0,386.0
2023-05-30-12:55:13.817791,6.0,11.0,386.0
2023-05-30-12:55:13.818790,6.0,11.0,386.0
2023-05-30-12:55:13.819790,6.0,11.0,386.0
2023-05-30-12:55:13.820781,7.0,19.0,386.0
2023-05-30-12:55:13.821783,10.0,50.0,386.0
2023-05-30-12:55:13.822781,10.0,50.0,386.0
2023-05-30-12:55:13.823790,10.0,50.0,386.0
2023-05-30-12:55:13.824790,6.0,4.0,386.0
2023-05-30-12:55:13.825782,3.0,7.0,386.0
2023-05-30-12:55:13.826782,5.0,27.0,386.0
2023-05-30-12:55:13.827781,5.0,27.0,386.0
2023-05-30-12:55:13.828781,7.0,2.0,386.0
2023-05-30-12:55:13.829781,3.0,6.0,386.0
2023-05-30-12:55:13.830782,3.0,6.0,386.0
2023-05-30-12:55:13.831782,3.0,6.0,386.0
2023-05-30-12:55:13.832757,2.0,2.0,386.0
2023-05-30-12:55:13.833791,3.0,8.0,386.0
2023-05-30-12:55:13.834790,3.0,8.0,386.0
2023-05-30-12:55:13.835790,3.0,8.0,386.0
2023-05-30-12:55:13.837754,3.0,15.0,386.0
2023-05-30-12:55:13.837754,8.0,12.0,386.0
2023-05-30-12:55:13.838813,8.0,12.0,386.0
2023-05-30-12:55:13.839755,8.0,12.0,386.0
2023-05-30-12:55:13.840790,7.0,25.0,386.0
2023-05-30-12:55:13.841790,7.0,24.0,386.0
2023-05-30-12:55:13.842790,8.0,3.0,386.0
2023-05-30-12:55:13.843762,8.0,3.0,386.0
2023-05-30-12:55:13.844791,8.0,2.0,386.0
2023-05-30-12:55:13.845790,4.0,11.0,386.0
2023-05-30-12:55:13.846792,5.0,19.0,386.0
2023-05-30-12:55:13.847790,5.0,19.0,386.0
2023-05-30-12:55:13.848792,5.0,19.0,386.0
2023-05-30-12:55:13.849756,3.0,20.0,386.0
2023-05-30-12:55:13.850790,4.0,9.0,386.0
2023-05-30-12:55:13.851791,4.0,9.0,386.0
2023-05-30-12:55:13.852790,4.0,9.0,386.0
2023-05-30-12:55:13.853782,4.0,3.0,386.0
2023-05-30-12:55:13.854781,3.0,1.0,386.0
2023-05-30-12:55:13.855803,3.0,1.0,386.0
2023-05-30-12:55:13.856809,3.0,1.0,386.0
2023-05-30-12:55:13.857801,4.0,5.0,386.0
2023-05-30-12:55:13.858801,6.0,1.0,386.0
2023-05-30-12:55:13.859802,5.0,0.0,386.0
2023-05-30-12:55:13.860811,5.0,0.0,386.0
2023-05-30-12:55:13.861810,7.0,2.0,386.0
2023-05-30-12:55:13.862811,8.0,2.0,386.0
2023-05-30-12:55:13.863811,3.0,17.0,386.0
2023-05-30-12:55:13.864811,3.0,17.0,386.0
2023-05-30-12:55:13.865792,3.0,18.0,386.0
2023-05-30-12:55:13.866815,2.0,16.0,386.0
2023-05-30-12:55:13.867804,2.0,22.0,386.0
2023-05-30-12:55:13.868786,2.0,22.0,386.0
2023-05-30-12:55:13.870754,6.0,8.0,386.0
2023-05-30-12:55:13.870754,6.0,4.0,386.0
2023-05-30-12:55:13.871802,6.0,4.0,386.0
2023-05-30-12:55:13.872802,6.0,4.0,386.0
2023-05-30-12:55:13.873802,6.0,32.0,386.0
2023-05-30-12:55:13.874802,5.0,30.0,386.0
2023-05-30-12:55:13.875808,5.0,28.0,386.0
2023-05-30-12:55:13.876803,5.0,28.0,386.0
2023-05-30-12:55:13.877801,5.0,40.0,386.0
2023-05-30-12:55:13.878800,7.0,3.0,386.0
2023-05-30-12:55:13.879801,2.0,29.0,386.0
2023-05-30-12:55:13.880755,2.0,29.0,386.0
2023-05-30-12:55:13.881803,5.0,5.0,386.0
2023-05-30-12:55:13.882756,1.0,6.0,386.0
2023-05-30-12:55:13.883786,1.0,6.0,386.0
2023-05-30-12:55:13.884755,1.0,6.0,386.0
2023-05-30-12:55:13.885782,4.0,5.0,386.0
2023-05-30-12:55:13.886804,4.0,5.0,386.0
2023-05-30-12:55:13.887802,6.0,8.0,386.0
2023-05-30-12:55:13.888794,6.0,8.0,386.0
2023-05-30-12:55:13.889802,7.0,5.0,386.0
2023-05-30-12:55:13.890807,6.0,7.0,386.0
2023-05-30-12:55:13.891802,4.0,3.0,386.0
2023-05-30-12:55:13.892801,5.0,1.0,386.0
2023-05-30-12:55:13.893801,5.0,1.0,386.0
2023-05-30-12:55:13.894801,5.0,2.0,386.0
2023-05-30-12:55:13.895811,6.0,7.0,386.0
2023-05-30-12:55:13.896801,6.0,7.0,386.0
2023-05-30-12:55:13.897803,6.0,7.0,386.0
2023-05-30-12:55:13.898801,4.0,14.0,386.0
2023-05-30-12:55:13.899757,4.0,14.0,386.0
2023-05-30-12:55:13.900789,4.0,14.0,386.0
2023-05-30-12:55:13.901800,4.0,14.0,386.0
2023-05-30-12:55:13.902809,3.0,18.0,386.0
2023-05-30-12:55:13.903801,5.0,10.0,386.0
2023-05-30-12:55:13.905754,5.0,49.0,386.0
2023-05-30-12:55:13.905754,5.0,49.0,386.0
2023-05-30-12:55:13.906786,4.0,7.0,386.0
2023-05-30-12:55:13.907756,4.0,18.0,386.0
2023-05-30-12:55:13.908812,4.0,18.0,386.0
2023-05-30-12:55:13.909815,4.0,18.0,386.0
2023-05-30-12:55:13.910815,3.0,30.0,386.0
2023-05-30-12:55:13.911811,7.0,4.0,386.0
2023-05-30-12:55:13.912811,7.0,1.0,386.0
2023-05-30-12:55:13.913813,7.0,1.0,386.0
2023-05-30-12:55:13.914811,6.0,1.0,386.0
2023-05-30-12:55:13.915792,5.0,2.0,386.0
2023-05-30-12:55:13.916812,6.0,13.0,386.0
2023-05-30-12:55:13.917811,6.0,13.0,386.0
2023-05-30-12:55:13.918781,4.0,15.0,386.0
2023-05-30-12:55:13.919801,3.0,21.0,386.0
2023-05-30-12:55:13.920801,6.0,19.0,386.0
2023-05-30-12:55:13.921755,6.0,19.0,386.0
2023-05-30-12:55:13.922801,4.0,16.0,386.0
2023-05-30-12:55:13.923781,4.0,16.0,386.0
2023-05-30-12:55:13.924802,4.0,16.0,386.0
2023-05-30-12:55:13.925755,4.0,16.0,386.0
2023-05-30-12:55:13.926801,7.0,9.0,386.0
2023-05-30-12:55:13.927814,5.0,4.0,386.0
2023-05-30-12:55:13.928801,4.0,4.0,386.0
2023-05-30-12:55:13.929784,4.0,4.0,386.0
2023-05-30-12:55:13.930801,6.0,5.0,386.0
2023-05-30-12:55:13.931801,1.0,6.0,386.0
2023-05-30-12:55:13.932782,1.0,6.0,386.0
2023-05-30-12:55:13.933802,1.0,6.0,386.0
2023-05-30-12:55:13.934813,1.0,6.0,386.0
2023-05-30-12:55:13.935801,5.0,9.0,386.0
2023-05-30-12:55:13.936801,3.0,8.0,386.0
2023-05-30-12:55:13.938804,3.0,8.0,386.0
2023-05-30-12:55:13.938804,4.0,24.0,386.0
2023-05-30-12:55:13.939802,4.0,24.0,386.0
2023-05-30-12:55:13.940783,4.0,24.0,386.0
2023-05-30-12:55:13.941780,4.0,24.0,386.0
2023-05-30-12:55:13.942801,4.0,24.0,386.0
2023-05-30-12:55:13.943803,6.0,6.0,386.0
2023-05-30-12:55:13.944803,3.0,2.0,386.0
2023-05-30-12:55:13.945804,2.0,3.0,386.0
2023-05-30-12:55:13.946802,2.0,3.0,386.0
2023-05-30-12:55:13.947801,2.0,12.0,386.0
2023-05-30-12:55:13.948803,5.0,6.0,386.0
2023-05-30-12:55:13.949755,5.0,6.0,386.0
2023-05-30-12:55:13.950813,5.0,6.0,386.0
2023-05-30-12:55:13.951811,7.0,24.0,386.0
2023-05-30-12:55:13.952811,3.0,2.0,386.0
2023-05-30-12:55:13.953811,6.0,11.0,386.0
2023-05-30-12:55:13.954810,6.0,11.0,386.0
2023-05-30-12:55:13.955758,7.0,6.0,386.0
2023-05-30-12:55:13.956757,6.0,6.0,386.0
2023-05-30-12:55:13.957757,6.0,6.0,386.0
2023-05-30-12:55:13.958758,6.0,6.0,386.0
2023-05-30-12:55:13.959790,3.0,30.0,386.0
2023-05-30-12:55:13.960811,3.0,16.0,386.0
2023-05-30-12:55:13.961813,3.0,16.0,386.0
2023-05-30-12:55:13.962811,3.0,16.0,386.0
2023-05-30-12:55:13.963811,7.0,2.0,386.0
2023-05-30-12:55:13.964812,6.0,3.0,386.0
2023-05-30-12:55:13.965790,7.0,11.0,386.0
2023-05-30-12:55:13.966756,7.0,11.0,386.0
2023-05-30-12:55:13.967790,6.0,10.0,386.0
2023-05-30-12:55:13.968793,2.0,16.0,386.0
2023-05-30-12:55:13.969791,4.0,3.0,386.0
2023-05-30-12:55:13.970755,4.0,3.0,386.0
2023-05-30-12:55:13.971756,2.0,12.0,386.0
2023-05-30-12:55:13.972793,3.0,20.0,386.0
2023-05-30-12:55:13.974754,3.0,20.0,386.0
2023-05-30-12:55:13.974754,7.0,13.0,386.0
2023-05-30-12:55:13.975811,5.0,5.0,386.0
2023-05-30-12:55:13.976811,5.0,5.0,386.0
2023-05-30-12:55:13.977813,5.0,5.0,386.0
2023-05-30-12:55:13.978812,5.0,5.0,386.0
2023-05-30-12:55:13.979813,5.0,5.0,386.0
2023-05-30-12:55:13.980812,4.0,4.0,386.0
2023-05-30-12:55:13.981811,8.0,8.0,386.0
2023-05-30-12:55:13.982812,8.0,8.0,386.0
2023-05-30-12:55:13.983791,8.0,8.0,386.0
2023-05-30-12:55:13.984811,2.0,17.0,386.0
2023-05-30-12:55:13.985811,7.0,12.0,386.0
2023-05-30-12:55:13.986815,7.0,12.0,386.0
2023-05-30-12:55:13.987811,7.0,12.0,386.0
2023-05-30-12:55:13.988811,8.0,4.0,386.0
2023-05-30-12:55:13.989815,8.0,12.0,386.0
2023-05-30-12:55:13.990811,5.0,16.0,386.0
2023-05-30-12:55:13.991811,5.0,16.0,386.0
2023-05-30-12:55:13.992811,3.0,36.0,386.0
2023-05-30-12:55:13.993812,6.0,6.0,386.0
2023-05-30-12:55:13.994811,5.0,7.0,386.0
2023-05-30-12:55:13.995810,5.0,7.0,386.0
2023-05-30-12:55:13.996812,2.0,25.0,386.0
2023-05-30-12:55:13.997811,4.0,7.0,386.0
2023-05-30-12:55:13.998778,4.0,23.0,386.0
2023-05-30-12:55:13.999758,4.0,23.0,386.0
2023-05-30-12:55:14.000798,3.0,16.0,386.0
2023-05-30-12:55:14.001811,4.0,6.0,386.0
2023-05-30-12:55:14.002810,5.0,5.0,386.0
2023-05-30-12:55:14.003810,5.0,5.0,386.0
2023-05-30-12:55:14.004820,5.0,2.0,386.0
2023-05-30-12:55:14.005814,6.0,4.0,386.0
2023-05-30-12:55:14.006812,6.0,4.0,386.0
2023-05-30-12:55:14.007756,6.0,4.0,386.0
2023-05-30-12:55:14.009754,9.0,2.0,386.0
2023-05-30-12:55:14.009754,4.0,9.0,386.0
2023-05-30-12:55:14.010756,4.0,9.0,386.0
2023-05-30-12:55:14.011756,4.0,9.0,386.0
2023-05-30-12:55:14.012812,5.0,5.0,386.0
2023-05-30-12:55:14.013811,5.0,10.0,386.0
2023-05-30-12:55:14.014813,3.0,2.0,386.0
2023-05-30-12:55:14.015791,3.0,2.0,386.0
2023-05-30-12:55:14.016811,4.0,6.0,386.0
2023-05-30-12:55:14.017811,6.0,7.0,386.0
2023-05-30-12:55:14.018815,5.0,12.0,386.0
2023-05-30-12:55:14.019811,5.0,12.0,386.0
2023-05-30-12:55:14.020791,5.0,12.0,386.0
2023-05-30-12:55:14.021814,3.0,8.0,386.0
2023-05-30-12:55:14.022811,2.0,22.0,386.0
2023-05-30-12:55:14.023811,2.0,22.0,386.0
2023-05-30-12:55:14.024790,7.0,6.0,386.0
2023-05-30-12:55:14.025812,8.0,21.0,386.0
2023-05-30-12:55:14.026811,8.0,21.0,386.0
2023-05-30-12:55:14.027811,8.0,21.0,386.0
2023-05-30-12:55:14.028813,8.0,21.0,386.0
2023-05-30-12:55:14.029811,6.0,2.0,386.0
2023-05-30-12:55:14.030812,5.0,9.0,386.0
2023-05-30-12:55:14.031812,5.0,9.0,386.0
2023-05-30-12:55:14.032811,5.0,9.0,386.0
2023-05-30-12:55:14.033811,6.0,7.0,386.0
2023-05-30-12:55:14.034815,4.0,3.0,386.0
2023-05-30-12:55:14.035811,8.0,9.0,386.0
2023-05-30-12:55:14.036810,8.0,9.0,386.0
2023-05-30-12:55:14.037790,4.0,8.0,386.0
2023-05-30-12:55:14.038811,5.0,1.0,386.0
2023-05-30-12:55:14.039811,9.0,16.0,386.0
2023-05-30-12:55:14.040811,9.0,16.0,386.0
2023-05-30-12:55:14.041812,10.0,15.0,386.0
2023-05-30-12:55:14.043813,10.0,15.0,386.0
2023-05-30-12:55:14.043813,4.0,3.0,386.0
2023-05-30-12:55:14.044812,1.0,3.0,386.0
2023-05-30-12:55:14.045802,7.0,12.0,386.0
2023-05-30-12:55:14.046804,7.0,12.0,386.0
2023-05-30-12:55:14.047812,7.0,12.0,386.0
2023-05-30-12:55:14.048755,7.0,12.0,386.0
2023-05-30-12:55:14.049758,7.0,19.0,386.0
2023-05-30-12:55:14.050756,4.0,4.0,386.0
2023-05-30-12:55:14.051811,3.0,7.0,386.0
2023-05-30-12:55:14.052755,3.0,7.0,386.0
2023-05-30-12:55:14.053815,7.0,8.0,386.0
2023-05-30-12:55:14.054818,8.0,8.0,386.0
2023-05-30-12:55:14.055811,6.0,15.0,386.0
2023-05-30-12:55:14.056763,6.0,15.0,386.0
2023-05-30-12:55:14.057812,4.0,17.0,386.0
2023-05-30-12:55:14.058790,4.0,12.0,386.0
2023-05-30-12:55:14.059810,4.0,12.0,386.0
2023-05-30-12:55:14.060812,4.0,12.0,386.0
2023-05-30-12:55:14.061811,4.0,12.0,386.0
2023-05-30-12:55:14.062812,5.0,11.0,386.0
2023-05-30-12:55:14.063812,8.0,42.0,386.0
2023-05-30-12:55:14.064811,8.0,42.0,386.0
2023-05-30-12:55:14.065811,8.0,42.0,386.0
2023-05-30-12:55:14.066756,6.0,71.0,386.0
2023-05-30-12:55:14.067811,4.0,1.0,386.0
2023-05-30-12:55:14.068811,2.0,17.0,386.0
2023-05-30-12:55:14.069791,2.0,17.0,386.0
2023-05-30-12:55:14.070791,6.0,45.0,386.0
2023-05-30-12:55:14.071811,2.0,49.0,386.0
2023-05-30-12:55:14.072811,2.0,49.0,386.0
2023-05-30-12:55:14.073812,2.0,49.0,386.0
2023-05-30-12:55:14.075754,1.0,17.0,386.0
2023-05-30-12:55:14.076754,6.0,6.0,386.0
2023-05-30-12:55:14.076754,6.0,6.0,386.0
2023-05-30-12:55:14.077811,6.0,6.0,386.0
2023-05-30-12:55:14.078812,8.0,4.0,386.0
2023-05-30-12:55:14.079811,5.0,2.0,386.0
2023-05-30-12:55:14.080811,5.0,12.0,386.0
2023-05-30-12:55:14.081811,5.0,12.0,386.0
2023-05-30-12:55:14.082810,4.0,17.0,386.0
2023-05-30-12:55:14.083791,4.0,18.0,386.0
2023-05-30-12:55:14.084812,4.0,18.0,386.0
2023-05-30-12:55:14.085814,4.0,18.0,386.0
2023-05-30-12:55:14.086791,6.0,23.0,386.0
2023-05-30-12:55:14.087811,5.0,9.0,386.0
2023-05-30-12:55:14.088811,5.0,1.0,386.0
2023-05-30-12:55:14.089812,5.0,1.0,386.0
2023-05-30-12:55:14.090815,4.0,1.0,386.0
2023-05-30-12:55:14.091813,5.0,3.0,386.0
2023-05-30-12:55:14.092796,8.0,12.0,386.0
2023-05-30-12:55:14.093756,8.0,12.0,386.0
2023-05-30-12:55:14.094812,5.0,10.0,386.0
2023-05-30-12:55:14.095811,8.0,2.0,386.0
2023-05-30-12:55:14.096811,3.0,7.0,386.0
2023-05-30-12:55:14.097756,3.0,7.0,386.0
2023-05-30-12:55:14.098815,2.0,10.0,386.0
2023-05-30-12:55:14.099757,4.0,1.0,386.0
2023-05-30-12:55:14.100792,3.0,2.0,386.0
2023-05-30-12:55:14.101798,3.0,2.0,386.0
2023-05-30-12:55:14.102811,5.0,9.0,386.0
2023-05-30-12:55:14.103791,6.0,19.0,386.0
2023-05-30-12:55:14.104812,6.0,19.0,386.0
2023-05-30-12:55:14.105813,6.0,19.0,386.0
2023-05-30-12:55:14.106812,6.0,19.0,386.0
2023-05-30-12:55:14.107811,5.0,7.0,386.0
2023-05-30-12:55:14.108812,5.0,15.0,386.0
2023-05-30-12:55:14.109815,5.0,15.0,386.0
2023-05-30-12:55:14.111754,9.0,20.0,386.0
2023-05-30-12:55:14.111754,9.0,20.0,386.0
2023-05-30-12:55:14.112817,9.0,20.0,386.0
2023-05-30-12:55:14.113811,9.0,20.0,386.0
2023-05-30-12:55:14.114815,9.0,20.0,386.0
2023-05-30-12:55:14.115812,6.0,17.0,386.0
2023-05-30-12:55:14.116812,0.0,7.0,386.0
2023-05-30-12:55:14.117814,1.0,15.0,386.0
2023-05-30-12:55:14.118812,1.0,15.0,386.0
2023-05-30-12:55:14.119820,2.0,2.0,386.0
2023-05-30-12:55:14.120812,3.0,1.0,386.0
2023-05-30-12:55:14.121813,5.0,7.0,386.0
2023-05-30-12:55:14.122812,5.0,7.0,386.0
2023-05-30-12:55:14.123814,5.0,7.0,386.0
2023-05-30-12:55:14.124812,9.0,11.0,386.0
2023-05-30-12:55:14.125812,5.0,17.0,386.0
2023-05-30-12:55:14.126812,5.0,17.0,386.0
2023-05-30-12:55:14.127793,6.0,19.0,386.0
2023-05-30-12:55:14.128812,5.0,21.0,386.0
2023-05-30-12:55:14.129815,7.0,3.0,386.0
2023-05-30-12:55:14.130798,7.0,3.0,386.0
2023-05-30-12:55:14.131790,7.0,3.0,386.0
2023-05-30-12:55:14.132790,5.0,6.0,386.0
2023-05-30-12:55:14.133791,4.0,5.0,386.0
2023-05-30-12:55:14.134755,8.0,39.0,386.0
2023-05-30-12:55:14.135814,5.0,0.0,386.0
2023-05-30-12:55:14.136812,3.0,15.0,386.0
2023-05-30-12:55:14.137813,4.0,24.0,386.0
2023-05-30-12:55:14.138755,4.0,24.0,386.0
2023-05-30-12:55:14.139811,4.0,18.0,386.0
2023-05-30-12:55:14.140811,4.0,21.0,386.0
2023-05-30-12:55:14.141813,4.0,13.0,386.0
2023-05-30-12:55:14.142784,4.0,13.0,386.0
2023-05-30-12:55:14.143812,6.0,4.0,385.0
2023-05-30-12:55:14.144789,9.0,19.0,386.0
2023-05-30-12:55:14.145789,7.0,24.0,386.0
2023-05-30-12:55:14.147754,7.0,24.0,386.0
2023-05-30-12:55:14.147754,1.0,21.0,386.0
2023-05-30-12:55:14.148810,1.0,21.0,386.0
2023-05-30-12:55:14.149759,1.0,21.0,386.0
2023-05-30-12:55:14.150826,1.0,21.0,386.0
2023-05-30-12:55:14.151814,1.0,21.0,386.0
2023-05-30-12:55:14.152812,2.0,35.0,386.0
2023-05-30-12:55:14.153813,6.0,31.0,386.0
2023-05-30-12:55:14.154812,6.0,31.0,386.0
2023-05-30-12:55:14.155813,6.0,31.0,386.0
2023-05-30-12:55:14.156812,4.0,0.0,386.0
2023-05-30-12:55:14.157812,4.0,14.0,386.0
2023-05-30-12:55:14.158812,3.0,14.0,386.0
2023-05-30-12:55:14.159819,3.0,14.0,386.0
2023-05-30-12:55:14.160812,6.0,8.0,386.0
2023-05-30-12:55:14.161790,2.0,10.0,386.0
2023-05-30-12:55:14.162794,2.0,10.0,386.0
2023-05-30-12:55:14.163790,2.0,10.0,386.0
2023-05-30-12:55:14.164799,5.0,8.0,386.0
2023-05-30-12:55:14.165790,4.0,2.0,386.0
2023-05-30-12:55:14.166774,5.0,10.0,386.0
2023-05-30-12:55:14.167790,5.0,10.0,386.0
2023-05-30-12:55:14.168790,6.0,10.0,386.0
2023-05-30-12:55:14.169791,9.0,5.0,386.0
2023-05-30-12:55:14.170790,9.0,7.0,386.0
2023-05-30-12:55:14.171791,9.0,7.0,386.0
2023-05-30-12:55:14.172790,6.0,15.0,386.0
2023-05-30-12:55:14.173790,6.0,10.0,386.0
2023-05-30-12:55:14.174790,5.0,5.0,386.0
2023-05-30-12:55:14.175797,5.0,5.0,386.0
2023-05-30-12:55:14.176790,5.0,14.0,386.0
2023-05-30-12:55:14.177791,4.0,2.0,386.0
2023-05-30-12:55:14.178794,5.0,9.0,386.0
2023-05-30-12:55:14.180754,3.0,9.0,386.0
2023-05-30-12:55:14.180754,6.0,6.0,386.0
2023-05-30-12:55:14.181814,6.0,6.0,386.0
2023-05-30-12:55:14.182812,6.0,6.0,386.0
2023-05-30-12:55:14.183760,6.0,6.0,386.0
2023-05-30-12:55:14.184812,3.0,20.0,386.0
2023-05-30-12:55:14.185794,6.0,8.0,386.0
2023-05-30-12:55:14.186790,4.0,3.0,386.0
2023-05-30-12:55:14.187808,4.0,3.0,386.0
2023-05-30-12:55:14.188790,2.0,8.0,386.0
2023-05-30-12:55:14.189791,4.0,2.0,386.0
2023-05-30-12:55:14.190790,8.0,19.0,386.0
2023-05-30-12:55:14.191790,8.0,19.0,386.0
2023-05-30-12:55:14.192790,8.0,19.0,386.0
2023-05-30-12:55:14.193790,4.0,6.0,386.0
2023-05-30-12:55:14.194793,5.0,13.0,386.0
2023-05-30-12:55:14.195812,5.0,13.0,386.0
2023-05-30-12:55:14.196790,3.0,1.0,386.0
2023-05-30-12:55:14.197814,5.0,8.0,386.0
2023-05-30-12:55:14.198790,5.0,8.0,386.0
2023-05-30-12:55:14.199757,5.0,8.0,386.0
2023-05-30-12:55:14.200812,5.0,8.0,386.0
2023-05-30-12:55:14.201813,5.0,12.0,386.0
2023-05-30-12:55:14.202811,6.0,29.0,386.0
2023-05-30-12:55:14.203808,3.0,13.0,386.0
2023-05-30-12:55:14.204812,3.0,13.0,386.0
2023-05-30-12:55:14.205812,1.0,18.0,386.0
2023-05-30-12:55:14.206817,1.0,18.0,386.0
2023-05-30-12:55:14.207812,4.0,10.0,386.0
2023-05-30-12:55:14.208812,4.0,10.0,386.0
2023-05-30-12:55:14.209812,4.0,13.0,386.0
2023-05-30-12:55:14.210815,7.0,19.0,386.0
2023-05-30-12:55:14.211812,3.0,8.0,386.0
2023-05-30-12:55:14.212812,3.0,8.0,386.0
2023-05-30-12:55:14.213814,3.0,1.0,386.0
2023-05-30-12:55:14.215754,9.0,10.0,386.0
2023-05-30-12:55:14.215754,9.0,10.0,386.0
2023-05-30-12:55:14.216795,9.0,10.0,386.0
2023-05-30-12:55:14.217811,5.0,11.0,386.0
2023-05-30-12:55:14.218812,7.0,10.0,386.0
2023-05-30-12:55:14.219813,7.0,5.0,386.0
2023-05-30-12:55:14.220755,7.0,5.0,386.0
2023-05-30-12:55:14.221812,5.0,1.0,386.0
2023-05-30-12:55:14.222811,8.0,2.0,386.0
2023-05-30-12:55:14.223812,5.0,4.0,386.0
2023-05-30-12:55:14.224769,5.0,4.0,386.0
2023-05-30-12:55:14.225811,5.0,8.0,386.0
2023-05-30-12:55:14.226793,6.0,32.0,386.0
2023-05-30-12:55:14.227812,4.0,42.0,386.0
2023-05-30-12:55:14.228813,4.0,21.0,386.0
2023-05-30-12:55:14.229814,9.0,43.0,386.0
2023-05-30-12:55:14.230812,6.0,49.0,386.0
2023-05-30-12:55:14.231814,2.0,23.0,386.0
2023-05-30-12:55:14.232790,2.0,23.0,386.0
2023-05-30-12:55:14.233756,1.0,2.0,386.0
2023-05-30-12:55:14.234790,1.0,2.0,386.0
2023-05-30-12:55:14.235791,1.0,2.0,386.0
2023-05-30-12:55:14.236791,1.0,2.0,386.0
2023-05-30-12:55:14.237790,1.0,2.0,386.0
2023-05-30-12:55:14.238790,2.0,7.0,386.0
2023-05-30-12:55:14.239793,5.0,24.0,386.0
2023-05-30-12:55:14.240790,6.0,22.0,386.0
2023-05-30-12:55:14.241790,6.0,22.0,386.0
2023-05-30-12:55:14.242793,6.0,15.0,386.0
2023-05-30-12:55:14.243790,7.0,6.0,387.0
2023-05-30-12:55:14.244790,6.0,7.0,386.0
2023-05-30-12:55:14.245790,6.0,7.0,386.0
2023-05-30-12:55:14.246791,4.0,20.0,386.0
2023-05-30-12:55:14.247790,6.0,38.0,386.0
2023-05-30-12:55:14.249754,4.0,7.0,386.0
2023-05-30-12:55:14.249754,4.0,7.0,386.0
2023-05-30-12:55:14.250790,6.0,6.0,386.0
2023-05-30-12:55:14.251791,5.0,5.0,386.0
2023-05-30-12:55:14.252790,5.0,5.0,386.0
2023-05-30-12:55:14.253791,5.0,5.0,386.0
2023-05-30-12:55:14.254790,8.0,9.0,386.0
2023-05-30-12:55:14.255792,4.0,0.0,386.0
2023-05-30-12:55:14.256790,6.0,4.0,386.0
2023-05-30-12:55:14.257770,6.0,4.0,386.0
2023-05-30-12:55:14.258793,6.0,17.0,386.0
2023-05-30-12:55:14.259790,6.0,9.0,386.0
2023-05-30-12:55:14.260799,4.0,7.0,386.0
2023-05-30-12:55:14.261790,4.0,7.0,386.0
2023-05-30-12:55:14.262790,5.0,9.0,386.0
2023-05-30-12:55:14.263790,5.0,15.0,386.0
2023-05-30-12:55:14.264790,6.0,25.0,386.0
2023-05-30-12:55:14.265755,6.0,25.0,386.0
2023-05-30-12:55:14.266790,8.0,4.0,386.0
2023-05-30-12:55:14.267791,5.0,6.0,386.0
2023-05-30-12:55:14.268790,5.0,6.0,386.0
2023-05-30-12:55:14.269762,5.0,6.0,386.0
2023-05-30-12:55:14.270790,6.0,4.0,386.0
2023-05-30-12:55:14.271792,5.0,2.0,386.0
2023-05-30-12:55:14.272790,3.0,2.0,386.0
2023-05-30-12:55:14.273791,3.0,2.0,386.0
2023-05-30-12:55:14.274793,3.0,2.0,386.0
2023-05-30-12:55:14.275791,5.0,8.0,386.0
2023-05-30-12:55:14.276791,5.0,7.0,386.0
2023-05-30-12:55:14.277790,3.0,5.0,386.0
2023-05-30-12:55:14.278791,3.0,5.0,386.0
2023-05-30-12:55:14.279791,7.0,7.0,386.0
2023-05-30-12:55:14.280790,7.0,2.0,386.0
2023-05-30-12:55:14.281791,7.0,2.0,386.0
2023-05-30-12:55:14.282790,7.0,2.0,386.0
2023-05-30-12:55:14.283756,4.0,22.0,386.0
2023-05-30-12:55:14.285754,4.0,22.0,386.0
2023-05-30-12:55:14.285754,4.0,22.0,386.0
2023-05-30-12:55:14.286811,5.0,2.0,386.0
2023-05-30-12:55:14.287792,5.0,2.0,386.0
2023-05-30-12:55:14.288812,5.0,2.0,386.0
2023-05-30-12:55:14.289819,5.0,2.0,386.0
2023-05-30-12:55:14.290815,5.0,2.0,386.0
2023-05-30-12:55:14.291812,3.0,9.0,386.0
2023-05-30-12:55:14.292812,7.0,14.0,386.0
2023-05-30-12:55:14.293813,6.0,11.0,386.0
2023-05-30-12:55:14.294812,6.0,11.0,386.0
2023-05-30-12:55:14.295814,6.0,1.0,386.0
2023-05-30-12:55:14.296813,7.0,21.0,386.0
2023-05-30-12:55:14.297812,5.0,3.0,386.0
2023-05-30-12:55:14.298812,5.0,3.0,386.0
2023-05-30-12:55:14.299802,1.0,1.0,386.0
2023-05-30-12:55:14.300813,3.0,4.0,386.0
2023-05-30-12:55:14.301812,3.0,4.0,386.0
2023-05-30-12:55:14.302790,3.0,4.0,386.0
2023-05-30-12:55:14.303792,4.0,1.0,386.0
2023-05-30-12:55:14.304812,6.0,9.0,386.0
2023-05-30-12:55:14.305812,5.0,13.0,386.0
2023-05-30-12:55:14.306755,5.0,13.0,386.0
2023-05-30-12:55:14.307812,4.0,7.0,386.0
2023-05-30-12:55:14.308812,4.0,3.0,386.0
2023-05-30-12:55:14.309813,6.0,10.0,386.0
2023-05-30-12:55:14.310755,6.0,10.0,386.0
2023-05-30-12:55:14.311814,8.0,19.0,386.0
2023-05-30-12:55:14.312813,5.0,11.0,386.0
2023-05-30-12:55:14.313812,5.0,4.0,386.0
2023-05-30-12:55:14.314812,5.0,4.0,386.0
2023-05-30-12:55:14.315818,3.0,14.0,385.0
2023-05-30-12:55:14.316757,5.0,27.0,386.0
2023-05-30-12:55:14.317790,6.0,13.0,386.0
2023-05-30-12:55:14.318755,6.0,13.0,386.0
2023-05-30-12:55:14.320754,6.0,13.0,386.0
2023-05-30-12:55:14.320754,0.0,6.0,386.0
2023-05-30-12:55:14.321817,0.0,6.0,386.0
2023-05-30-12:55:14.322815,0.0,6.0,386.0
2023-05-30-12:55:14.323813,0.0,6.0,386.0
2023-05-30-12:55:14.324813,5.0,33.0,386.0
2023-05-30-12:55:14.325813,5.0,11.0,386.0
2023-05-30-12:55:14.326818,5.0,11.0,386.0
2023-05-30-12:55:14.327814,5.0,11.0,386.0
2023-05-30-12:55:14.328812,4.0,4.0,386.0
2023-05-30-12:55:14.329812,3.0,28.0,386.0
2023-05-30-12:55:14.330819,3.0,22.0,386.0
2023-05-30-12:55:14.331813,3.0,22.0,386.0
2023-05-30-12:55:14.332817,3.0,12.0,386.0
2023-05-30-12:55:14.333791,6.0,24.0,386.0
2023-05-30-12:55:14.334791,6.0,24.0,386.0
2023-05-30-12:55:14.335800,7.0,2.0,386.0
2023-05-30-12:55:14.336793,7.0,2.0,386.0
2023-05-30-12:55:14.337790,7.0,2.0,386.0
2023-05-30-12:55:14.338815,7.0,2.0,386.0
2023-05-30-12:55:14.339814,7.0,2.0,386.0
2023-05-30-12:55:14.340811,5.0,4.0,386.0
2023-05-30-12:55:14.341813,7.0,5.0,386.0
2023-05-30-12:55:14.342812,5.0,6.0,386.0
2023-05-30-12:55:14.343814,5.0,6.0,386.0
2023-05-30-12:55:14.344812,5.0,4.0,386.0
2023-05-30-12:55:14.345812,6.0,16.0,386.0
2023-05-30-12:55:14.346812,7.0,37.0,386.0
2023-05-30-12:55:14.347757,7.0,37.0,386.0
2023-05-30-12:55:14.348812,4.0,24.0,386.0
2023-05-30-12:55:14.349812,6.0,47.0,386.0
2023-05-30-12:55:14.350816,4.0,14.0,386.0
2023-05-30-12:55:14.351755,4.0,14.0,386.0
2023-05-30-12:55:14.352789,5.0,1.0,386.0
2023-05-30-12:55:14.354815,0.0,6.0,386.0
2023-05-30-12:55:14.354815,4.0,10.0,386.0
2023-05-30-12:55:14.355803,4.0,10.0,386.0
2023-05-30-12:55:14.356812,7.0,4.0,385.0
2023-05-30-12:55:14.357813,5.0,9.0,385.0
2023-05-30-12:55:14.358812,5.0,6.0,386.0
2023-05-30-12:55:14.359814,5.0,6.0,386.0
2023-05-30-12:55:14.360812,5.0,6.0,386.0
2023-05-30-12:55:14.361812,5.0,6.0,385.0
2023-05-30-12:55:14.362812,8.0,9.0,385.0
2023-05-30-12:55:14.363813,8.0,9.0,385.0
2023-05-30-12:55:14.364812,8.0,9.0,385.0
2023-05-30-12:55:14.365812,6.0,16.0,386.0
2023-05-30-12:55:14.366758,3.0,2.0,386.0
2023-05-30-12:55:14.367756,3.0,2.0,386.0
2023-05-30-12:55:14.368812,3.0,2.0,386.0
2023-05-30-12:55:14.369790,3.0,16.0,386.0
2023-05-30-12:55:14.370815,3.0,16.0,386.0
2023-05-30-12:55:14.371812,3.0,16.0,386.0
2023-05-30-12:55:14.372812,3.0,16.0,386.0
2023-05-30-12:55:14.373813,5.0,14.0,386.0
2023-05-30-12:55:14.374812,6.0,2.0,385.0
2023-05-30-12:55:14.375814,6.0,2.0,386.0
2023-05-30-12:55:14.376812,6.0,2.0,386.0
2023-05-30-12:55:14.377790,5.0,10.0,386.0
2023-05-30-12:55:14.378790,4.0,7.0,385.0
2023-05-30-12:55:14.379790,4.0,7.0,385.0
2023-05-30-12:55:14.380791,4.0,7.0,385.0
2023-05-30-12:55:14.381811,6.0,5.0,385.0
2023-05-30-12:55:14.382816,4.0,2.0,385.0
2023-05-30-12:55:14.383756,4.0,1.0,385.0
2023-05-30-12:55:14.384790,4.0,1.0,385.0
2023-05-30-12:55:14.385826,2.0,0.0,385.0
2023-05-30-12:55:14.386794,6.0,2.0,385.0
2023-05-30-12:55:14.388753,6.0,2.0,385.0
2023-05-30-12:55:14.389756,7.0,2.0,385.0
2023-05-30-12:55:14.389756,4.0,1.0,384.0
2023-05-30-12:55:14.390812,4.0,1.0,384.0
2023-05-30-12:55:14.391813,4.0,1.0,384.0
2023-05-30-12:55:14.392755,4.0,1.0,384.0
2023-05-30-12:55:14.393812,2.0,5.0,384.0
2023-05-30-12:55:14.394812,7.0,16.0,384.0
2023-05-30-12:55:14.395813,6.0,2.0,384.0
2023-05-30-12:55:14.396764,6.0,2.0,384.0
2023-05-30-12:55:14.397812,6.0,1.0,384.0
2023-05-30-12:55:14.398811,1.0,1.0,384.0
2023-05-30-12:55:14.399823,6.0,16.0,383.0
2023-05-30-12:55:14.400807,6.0,16.0,383.0
2023-05-30-12:55:14.401790,5.0,4.0,383.0
2023-05-30-12:55:14.402815,5.0,14.0,383.0
2023-05-30-12:55:14.403814,5.0,14.0,383.0
2023-05-30-12:55:14.404812,5.0,14.0,383.0
2023-05-30-12:55:14.405789,5.0,4.0,383.0
2023-05-30-12:55:14.406812,5.0,4.0,383.0
2023-05-30-12:55:14.407814,5.0,4.0,383.0
2023-05-30-12:55:14.408812,5.0,4.0,383.0
2023-05-30-12:55:14.409812,5.0,4.0,383.0
2023-05-30-12:55:14.410812,4.0,3.0,383.0
2023-05-30-12:55:14.411813,3.0,7.0,382.0
2023-05-30-12:55:14.412812,7.0,9.0,382.0
2023-05-30-12:55:14.413811,7.0,9.0,382.0
2023-05-30-12:55:14.414816,4.0,32.0,382.0
2023-05-30-12:55:14.415812,5.0,8.0,382.0
2023-05-30-12:55:14.416757,5.0,38.0,382.0
2023-05-30-12:55:14.417818,5.0,38.0,382.0
2023-05-30-12:55:14.418793,5.0,15.0,382.0
2023-05-30-12:55:14.419790,5.0,6.0,382.0
2023-05-30-12:55:14.421754,2.0,19.0,382.0
2023-05-30-12:55:14.421754,2.0,19.0,382.0
2023-05-30-12:55:14.422811,3.0,17.0,382.0
2023-05-30-12:55:14.423818,4.0,9.0,382.0
2023-05-30-12:55:14.424813,6.0,21.0,382.0
2023-05-30-12:55:14.425790,6.0,21.0,382.0
2023-05-30-12:55:14.426811,8.0,27.0,381.0
2023-05-30-12:55:14.427812,5.0,16.0,381.0
2023-05-30-12:55:14.428812,4.0,17.0,381.0
2023-05-30-12:55:14.429811,4.0,17.0,381.0
2023-05-30-12:55:14.430816,4.0,3.0,381.0
2023-05-30-12:55:14.431812,4.0,28.0,381.0
2023-05-30-12:55:14.432790,8.0,0.0,381.0
2023-05-30-12:55:14.433755,8.0,0.0,381.0
2023-05-30-12:55:14.434793,4.0,5.0,381.0
2023-05-30-12:55:14.435790,6.0,15.0,380.0
2023-05-30-12:55:14.436791,6.0,16.0,380.0
2023-05-30-12:55:14.437755,6.0,16.0,380.0
2023-05-30-12:55:14.438755,3.0,3.0,380.0
2023-05-30-12:55:14.439790,9.0,3.0,380.0
2023-05-30-12:55:14.440791,9.0,3.0,380.0
2023-05-30-12:55:14.441791,9.0,3.0,380.0
2023-05-30-12:55:14.442790,9.0,27.0,380.0
2023-05-30-12:55:14.443790,7.0,13.0,380.0
2023-05-30-12:55:14.444791,3.0,4.0,379.0
2023-05-30-12:55:14.445794,3.0,4.0,379.0
2023-05-30-12:55:14.446795,3.0,4.0,379.0
2023-05-30-12:55:14.447792,3.0,15.0,379.0
2023-05-30-12:55:14.448790,6.0,3.0,379.0
2023-05-30-12:55:14.449790,6.0,3.0,379.0
2023-05-30-12:55:14.450793,6.0,3.0,379.0
2023-05-30-12:55:14.451790,7.0,4.0,379.0
2023-05-30-12:55:14.452798,4.0,17.0,379.0
2023-05-30-12:55:14.453790,4.0,17.0,379.0
2023-05-30-12:55:14.455789,4.0,17.0,379.0
2023-05-30-12:55:14.456755,8.0,8.0,378.0
2023-05-30-12:55:14.456755,8.0,8.0,378.0
2023-05-30-12:55:14.457790,8.0,8.0,378.0
2023-05-30-12:55:14.458790,8.0,8.0,378.0
2023-05-30-12:55:14.459790,6.0,7.0,378.0
2023-05-30-12:55:14.460790,5.0,6.0,378.0
2023-05-30-12:55:14.461791,7.0,2.0,377.0
2023-05-30-12:55:14.462789,7.0,2.0,377.0
2023-05-30-12:55:14.463792,5.0,11.0,378.0
2023-05-30-12:55:14.464794,2.0,5.0,378.0
2023-05-30-12:55:14.465812,4.0,5.0,377.0
2023-05-30-12:55:14.466758,4.0,5.0,377.0
2023-05-30-12:55:14.467756,6.0,7.0,377.0
2023-05-30-12:55:14.468811,6.0,0.0,378.0
2023-05-30-12:55:14.469813,5.0,1.0,377.0
2023-05-30-12:55:14.470791,5.0,1.0,377.0
2023-05-30-12:55:14.471789,5.0,1.0,377.0
2023-05-30-12:55:14.472812,7.0,20.0,377.0
2023-05-30-12:55:14.473812,7.0,20.0,377.0
2023-05-30-12:55:14.474755,7.0,20.0,377.0
2023-05-30-12:55:14.475812,6.0,11.0,376.0
2023-05-30-12:55:14.476812,7.0,6.0,376.0
2023-05-30-12:55:14.477812,5.0,10.0,376.0
2023-05-30-12:55:14.478755,5.0,10.0,376.0
2023-05-30-12:55:14.479812,6.0,5.0,376.0
2023-05-30-12:55:14.480816,1.0,13.0,376.0
2023-05-30-12:55:14.481812,3.0,16.0,375.0
2023-05-30-12:55:14.482783,3.0,16.0,375.0
2023-05-30-12:55:14.483758,6.0,18.0,375.0
2023-05-30-12:55:14.484815,0.0,0.0,375.0
2023-05-30-12:55:14.485814,0.0,0.0,375.0
2023-05-30-12:55:14.486790,0.0,0.0,375.0
2023-05-30-12:55:14.487813,7.0,48.0,375.0
2023-05-30-12:55:14.488812,4.0,3.0,375.0
2023-05-30-12:55:14.489812,6.0,36.0,375.0
2023-05-30-12:55:14.491754,6.0,36.0,375.0
2023-05-30-12:55:14.491754,5.0,17.0,375.0
2023-05-30-12:55:14.492813,6.0,12.0,374.0
2023-05-30-12:55:14.493812,5.0,18.0,374.0
2023-05-30-12:55:14.494815,5.0,18.0,374.0
2023-05-30-12:55:14.495818,5.0,18.0,374.0
2023-05-30-12:55:14.496812,6.0,10.0,374.0
2023-05-30-12:55:14.497811,4.0,9.0,374.0
2023-05-30-12:55:14.498814,4.0,9.0,374.0
2023-05-30-12:55:14.499812,4.0,9.0,374.0
2023-05-30-12:55:14.500812,3.0,10.0,373.0
2023-05-30-12:55:14.501813,6.0,8.0,373.0
2023-05-30-12:55:14.502812,6.0,8.0,373.0
2023-05-30-12:55:14.503813,6.0,8.0,373.0
2023-05-30-12:55:14.504811,5.0,20.0,373.0
2023-05-30-12:55:14.505818,4.0,8.0,373.0
2023-05-30-12:55:14.506812,6.0,1.0,373.0
2023-05-30-12:55:14.507790,6.0,1.0,373.0
2023-05-30-12:55:14.508790,5.0,1.0,372.0
2023-05-30-12:55:14.509790,4.0,12.0,372.0
2023-05-30-12:55:14.510790,4.0,12.0,372.0
2023-05-30-12:55:14.511792,4.0,12.0,372.0
2023-05-30-12:55:14.512790,4.0,5.0,372.0
2023-05-30-12:55:14.513790,5.0,1.0,372.0
2023-05-30-12:55:14.514792,7.0,5.0,371.0
2023-05-30-12:55:14.515790,7.0,5.0,371.0
2023-05-30-12:55:14.516757,5.0,9.0,371.0
2023-05-30-12:55:14.517791,9.0,7.0,371.0
2023-05-30-12:55:14.518791,5.0,19.0,371.0
2023-05-30-12:55:14.519755,5.0,19.0,371.0
2023-05-30-12:55:14.520790,2.0,15.0,371.0
2023-05-30-12:55:14.521790,2.0,9.0,370.0
2023-05-30-12:55:14.522791,4.0,3.0,371.0
2023-05-30-12:55:14.523755,4.0,3.0,371.0
2023-05-30-12:55:14.524815,5.0,8.0,370.0
2023-05-30-12:55:14.526815,5.0,20.0,370.0
2023-05-30-12:55:14.526815,5.0,20.0,370.0
2023-05-30-12:55:14.527755,3.0,36.0,370.0
2023-05-30-12:55:14.528755,3.0,28.0,370.0
2023-05-30-12:55:14.529803,6.0,15.0,370.0
2023-05-30-12:55:14.530805,6.0,4.0,370.0
2023-05-30-12:55:14.531802,6.0,4.0,370.0
2023-05-30-12:55:14.532803,6.0,4.0,370.0
2023-05-30-12:55:14.533806,5.0,6.0,370.0
2023-05-30-12:55:14.534809,5.0,6.0,370.0
2023-05-30-12:55:14.535803,5.0,6.0,370.0
2023-05-30-12:55:14.536803,5.0,6.0,370.0
2023-05-30-12:55:14.537803,4.0,6.0,369.0
2023-05-30-12:55:14.538781,6.0,0.0,370.0
2023-05-30-12:55:14.539808,6.0,0.0,370.0
2023-05-30-12:55:14.540803,6.0,0.0,370.0
2023-05-30-12:55:14.541755,6.0,5.0,370.0
2023-05-30-12:55:14.542806,7.0,6.0,370.0
2023-05-30-12:55:14.543802,7.0,6.0,370.0
2023-05-30-12:55:14.544803,7.0,6.0,370.0
2023-05-30-12:55:14.545803,6.0,13.0,370.0
2023-05-30-12:55:14.546805,3.0,1.0,369.0
2023-05-30-12:55:14.547803,3.0,1.0,369.0
2023-05-30-12:55:14.548806,3.0,1.0,369.0
2023-05-30-12:55:14.549804,2.0,2.0,369.0
2023-05-30-12:55:14.550804,5.0,9.0,370.0
2023-05-30-12:55:14.551804,5.0,9.0,370.0
2023-05-30-12:55:14.552803,5.0,9.0,370.0
2023-05-30-12:55:14.553804,5.0,14.0,370.0
2023-05-30-12:55:14.554803,3.0,6.0,370.0
2023-05-30-12:55:14.555781,3.0,6.0,370.0
2023-05-30-12:55:14.557754,3.0,6.0,370.0
2023-05-30-12:55:14.558755,6.0,3.0,370.0
2023-05-30-12:55:14.558755,6.0,3.0,370.0
2023-05-30-12:55:14.559803,6.0,3.0,370.0
2023-05-30-12:55:14.560755,6.0,3.0,370.0
2023-05-30-12:55:14.561803,6.0,4.0,370.0
2023-05-30-12:55:14.562808,3.0,30.0,369.0
2023-05-30-12:55:14.563803,3.0,30.0,369.0
2023-05-30-12:55:14.564755,3.0,30.0,369.0
2023-05-30-12:55:14.565803,8.0,37.0,369.0
2023-05-30-12:55:14.566775,7.0,46.0,370.0
2023-05-30-12:55:14.567790,6.0,16.0,370.0
2023-05-30-12:55:14.568755,6.0,16.0,370.0
2023-05-30-12:55:14.569812,5.0,38.0,369.0
2023-05-30-12:55:14.570812,5.0,2.0,369.0
2023-05-30-12:55:14.571812,2.0,23.0,369.0
2023-05-30-12:55:14.572812,2.0,23.0,369.0
2023-05-30-12:55:14.573812,3.0,30.0,370.0
2023-05-30-12:55:14.574769,2.0,14.0,370.0
2023-05-30-12:55:14.575791,2.0,14.0,370.0
2023-05-30-12:55:14.576811,2.0,14.0,370.0
2023-05-30-12:55:14.577812,2.0,14.0,370.0
2023-05-30-12:55:14.578814,6.0,4.0,370.0
2023-05-30-12:55:14.579812,6.0,4.0,370.0
2023-05-30-12:55:14.580811,6.0,4.0,370.0
2023-05-30-12:55:14.581812,6.0,4.0,370.0
2023-05-30-12:55:14.582812,4.0,4.0,370.0
2023-05-30-12:55:14.583758,4.0,0.0,370.0
2023-05-30-12:55:14.584789,2.0,4.0,370.0
2023-05-30-12:55:14.585812,2.0,4.0,370.0
2023-05-30-12:55:14.586790,7.0,3.0,369.0
2023-05-30-12:55:14.587816,6.0,1.0,370.0
2023-05-30-12:55:14.588812,7.0,7.0,370.0
2023-05-30-12:55:14.589812,7.0,7.0,370.0
2023-05-30-12:55:14.590815,7.0,2.0,370.0
2023-05-30-12:55:14.592812,7.0,12.0,370.0
2023-05-30-12:55:14.592812,6.0,11.0,370.0
2023-05-30-12:55:14.593755,4.0,13.0,370.0
2023-05-30-12:55:14.594814,6.0,7.0,370.0
2023-05-30-12:55:14.595818,7.0,11.0,370.0
2023-05-30-12:55:14.596812,7.0,11.0,370.0
2023-05-30-12:55:14.597812,7.0,11.0,370.0
2023-05-30-12:55:14.598813,5.0,6.0,370.0
2023-05-30-12:55:14.599813,3.0,2.0,370.0
2023-05-30-12:55:14.600791,4.0,2.0,370.0
2023-05-30-12:55:14.601755,4.0,2.0,370.0
2023-05-30-12:55:14.602812,4.0,9.0,370.0
2023-05-30-12:55:14.603812,3.0,13.0,370.0
2023-05-30-12:55:14.604812,2.0,6.0,370.0
2023-05-30-12:55:14.605756,2.0,6.0,370.0
2023-05-30-12:55:14.606816,3.0,0.0,370.0
2023-05-30-12:55:14.607812,3.0,4.0,370.0
2023-05-30-12:55:14.608754,7.0,2.0,370.0
2023-05-30-12:55:14.609781,7.0,2.0,370.0
2023-05-30-12:55:14.610792,4.0,13.0,370.0
2023-05-30-12:55:14.611807,2.0,2.0,370.0
2023-05-30-12:55:14.612815,2.0,2.0,370.0
2023-05-30-12:55:14.613824,2.0,2.0,370.0
2023-05-30-12:55:14.614813,7.0,5.0,370.0
2023-05-30-12:55:14.615813,5.0,6.0,370.0
2023-05-30-12:55:14.616758,5.0,11.0,370.0
2023-05-30-12:55:14.617812,5.0,11.0,370.0
2023-05-30-12:55:14.618818,5.0,11.0,370.0
2023-05-30-12:55:14.619812,5.0,12.0,369.0
2023-05-30-12:55:14.620813,5.0,7.0,369.0
2023-05-30-12:55:14.621812,5.0,7.0,369.0
2023-05-30-12:55:14.622815,5.0,7.0,369.0
2023-05-30-12:55:14.623778,7.0,25.0,370.0
2023-05-30-12:55:14.624793,5.0,0.0,370.0
2023-05-30-12:55:14.625814,5.0,0.0,370.0
2023-05-30-12:55:14.626813,5.0,0.0,370.0
2023-05-30-12:55:14.628753,6.0,21.0,370.0
2023-05-30-12:55:14.628753,9.0,14.0,370.0
2023-05-30-12:55:14.629813,9.0,14.0,370.0
2023-05-30-12:55:14.630811,9.0,14.0,370.0
2023-05-30-12:55:14.631813,9.0,37.0,370.0
2023-05-30-12:55:14.632811,3.0,18.0,370.0
2023-05-30-12:55:14.633756,5.0,18.0,370.0
2023-05-30-12:55:14.634811,5.0,18.0,370.0
2023-05-30-12:55:14.635811,3.0,11.0,370.0
2023-05-30-12:55:14.636811,4.0,24.0,370.0
2023-05-30-12:55:14.637814,4.0,18.0,370.0
2023-05-30-12:55:14.638790,4.0,18.0,370.0
2023-05-30-12:55:14.639812,6.0,6.0,370.0
2023-05-30-12:55:14.640811,2.0,34.0,370.0
2023-05-30-12:55:14.641812,6.0,23.0,370.0
2023-05-30-12:55:14.642814,6.0,23.0,370.0
2023-05-30-12:55:14.643812,6.0,17.0,370.0
2023-05-30-12:55:14.644811,4.0,40.0,370.0
2023-05-30-12:55:14.645812,4.0,40.0,370.0
2023-05-30-12:55:14.646755,4.0,40.0,370.0
2023-05-30-12:55:14.647813,3.0,0.0,370.0
2023-05-30-12:55:14.648813,2.0,6.0,370.0
2023-05-30-12:55:14.649812,3.0,18.0,370.0
2023-05-30-12:55:14.650756,3.0,18.0,370.0
2023-05-30-12:55:14.651812,3.0,33.0,370.0
2023-05-30-12:55:14.652812,4.0,26.0,370.0
2023-05-30-12:55:14.653812,7.0,3.0,370.0
2023-05-30-12:55:14.654805,7.0,3.0,370.0
2023-05-30-12:55:14.655791,9.0,11.0,370.0
2023-05-30-12:55:14.656790,6.0,1.0,370.0
2023-05-30-12:55:14.657790,5.0,15.0,370.0
2023-05-30-12:55:14.658792,5.0,15.0,370.0
2023-05-30-12:55:14.659790,5.0,15.0,370.0
2023-05-30-12:55:14.661754,5.0,8.0,370.0
2023-05-30-12:55:14.661754,3.0,18.0,370.0
2023-05-30-12:55:14.662810,3.0,18.0,370.0
2023-05-30-12:55:14.663812,3.0,18.0,370.0
2023-05-30-12:55:14.664810,2.0,9.0,369.0
2023-05-30-12:55:14.665811,2.0,8.0,370.0
2023-05-30-12:55:14.666765,2.0,8.0,370.0
2023-05-30-12:55:14.667845,2.0,8.0,370.0
2023-05-30-12:55:14.668812,5.0,5.0,370.0
2023-05-30-12:55:14.669812,6.0,2.0,370.0
2023-05-30-12:55:14.670815,7.0,2.0,370.0
2023-05-30-12:55:14.671812,7.0,2.0,370.0
2023-05-30-12:55:14.672812,6.0,0.0,370.0
2023-05-30-12:55:14.673812,7.0,10.0,370.0
2023-05-30-12:55:14.674814,3.0,4.0,370.0
2023-05-30-12:55:14.675812,3.0,4.0,370.0
2023-05-30-12:55:14.676812,3.0,3.0,370.0
2023-05-30-12:55:14.677754,3.0,8.0,370.0
2023-05-30-12:55:14.678812,3.0,8.0,370.0
2023-05-30-12:55:14.679812,3.0,8.0,370.0
2023-05-30-12:55:14.680812,3.0,0.0,370.0
2023-05-30-12:55:14.681812,5.0,13.0,370.0
2023-05-30-12:55:14.682813,6.0,15.0,369.0
2023-05-30-12:55:14.683757,6.0,15.0,369.0
2023-05-30-12:55:14.684813,6.0,10.0,370.0
2023-05-30-12:55:14.685811,3.0,18.0,370.0
2023-05-30-12:55:14.686815,3.0,18.0,370.0
2023-05-30-12:55:14.687755,3.0,18.0,370.0
2023-05-30-12:55:14.688815,4.0,17.0,370.0
2023-05-30-12:55:14.689811,3.0,3.0,370.0
2023-05-30-12:55:14.690814,6.0,4.0,370.0
2023-05-30-12:55:14.691755,6.0,4.0,370.0
2023-05-30-12:55:14.692812,6.0,6.0,370.0
2023-05-30-12:55:14.693812,4.0,5.0,370.0
2023-05-30-12:55:14.695754,9.0,8.0,370.0
2023-05-30-12:55:14.695754,9.0,8.0,370.0
2023-05-30-12:55:14.696814,5.0,0.0,370.0
2023-05-30-12:55:14.697811,3.0,13.0,370.0
2023-05-30-12:55:14.698812,3.0,13.0,370.0
2023-05-30-12:55:14.699810,3.0,13.0,370.0
2023-05-30-12:55:14.700813,4.0,12.0,370.0
2023-05-30-12:55:14.701812,3.0,1.0,370.0
2023-05-30-12:55:14.702815,3.0,41.0,370.0
2023-05-30-12:55:14.703812,3.0,41.0,370.0
2023-05-30-12:55:14.704820,3.0,41.0,370.0
2023-05-30-12:55:14.705790,3.0,11.0,370.0
2023-05-30-12:55:14.706814,4.0,32.0,370.0
2023-05-30-12:55:14.707812,4.0,32.0,370.0
2023-05-30-12:55:14.708812,4.0,32.0,370.0
2023-05-30-12:55:14.709813,5.0,32.0,370.0
2023-05-30-12:55:14.710813,3.0,10.0,370.0
2023-05-30-12:55:14.711813,3.0,10.0,370.0
2023-05-30-12:55:14.712813,3.0,10.0,370.0
2023-05-30-12:55:14.713812,4.0,12.0,370.0
2023-05-30-12:55:14.714812,6.0,13.0,370.0
2023-05-30-12:55:14.715816,6.0,13.0,370.0
2023-05-30-12:55:14.716803,6.0,13.0,370.0
2023-05-30-12:55:14.717792,3.0,2.0,370.0
2023-05-30-12:55:14.718815,4.0,1.0,370.0
2023-05-30-12:55:14.719791,4.0,1.0,370.0
2023-05-30-12:55:14.720811,4.0,1.0,370.0
2023-05-30-12:55:14.721811,6.0,1.0,370.0
2023-05-30-12:55:14.722815,3.0,16.0,370.0
2023-05-30-12:55:14.723812,5.0,2.0,370.0
2023-05-30-12:55:14.724811,5.0,2.0,370.0
2023-05-30-12:55:14.725812,1.0,24.0,370.0
2023-05-30-12:55:14.726813,6.0,1.0,370.0
2023-05-30-12:55:14.727813,6.0,23.0,369.0
2023-05-30-12:55:14.728812,6.0,23.0,369.0
2023-05-30-12:55:14.729791,5.0,5.0,369.0
2023-05-30-12:55:14.731811,3.0,13.0,370.0
2023-05-30-12:55:14.731811,4.0,24.0,370.0
2023-05-30-12:55:14.732755,4.0,24.0,370.0
2023-05-30-12:55:14.733757,2.0,35.0,370.0
2023-05-30-12:55:14.734756,5.0,15.0,370.0
2023-05-30-12:55:14.735812,5.0,11.0,370.0
2023-05-30-12:55:14.736757,5.0,11.0,370.0
2023-05-30-12:55:14.737789,5.0,12.0,369.0
2023-05-30-12:55:14.738792,6.0,2.0,370.0
2023-05-30-12:55:14.739812,4.0,8.0,370.0
2023-05-30-12:55:14.740814,4.0,8.0,370.0
2023-05-30-12:55:14.741812,4.0,6.0,370.0
2023-05-30-12:55:14.742813,9.0,36.0,370.0
2023-05-30-12:55:14.743813,5.0,5.0,370.0
2023-05-30-12:55:14.744812,5.0,5.0,370.0
2023-05-30-12:55:14.745813,5.0,5.0,370.0
2023-05-30-12:55:14.746755,4.0,28.0,370.0
2023-05-30-12:55:14.747817,4.0,28.0,370.0
2023-05-30-12:55:14.748817,4.0,28.0,370.0
2023-05-30-12:55:14.749812,4.0,28.0,370.0
2023-05-30-12:55:14.750817,5.0,4.0,370.0
2023-05-30-12:55:14.751815,4.0,7.0,370.0
2023-05-30-12:55:14.752812,4.0,7.0,370.0
2023-05-30-12:55:14.753811,4.0,7.0,370.0
2023-05-30-12:55:14.754814,4.0,4.0,370.0
2023-05-30-12:55:14.755813,5.0,9.0,370.0
2023-05-30-12:55:14.756814,6.0,0.0,370.0
2023-05-30-12:55:14.757812,6.0,0.0,370.0
2023-05-30-12:55:14.758813,4.0,4.0,370.0
2023-05-30-12:55:14.759813,8.0,12.0,370.0
2023-05-30-12:55:14.760812,3.0,0.0,370.0
2023-05-30-12:55:14.761812,3.0,0.0,370.0
2023-05-30-12:55:14.762812,5.0,10.0,370.0
2023-05-30-12:55:14.763754,3.0,14.0,370.0
2023-05-30-12:55:14.764758,3.0,14.0,370.0
2023-05-30-12:55:14.765784,3.0,14.0,370.0
2023-05-30-12:55:14.768762,6.0,10.0,370.0
2023-05-30-12:55:14.768762,3.0,16.0,370.0
2023-05-30-12:55:14.769754,5.0,18.0,370.0
2023-05-30-12:55:14.770792,5.0,37.0,370.0
2023-05-30-12:55:14.771791,5.0,37.0,370.0
2023-05-30-12:55:14.772757,5.0,37.0,370.0
2023-05-30-12:55:14.773755,5.0,37.0,370.0
2023-05-30-12:55:14.774790,5.0,33.0,370.0
2023-05-30-12:55:14.775790,6.0,10.0,370.0
2023-05-30-12:55:14.776790,3.0,27.0,370.0
2023-05-30-12:55:14.777755,3.0,27.0,370.0
2023-05-30-12:55:14.778790,4.0,43.0,369.0
2023-05-30-12:55:14.779794,5.0,19.0,370.0
2023-05-30-12:55:14.780790,2.0,10.0,369.0
2023-05-30-12:55:14.781778,2.0,10.0,369.0
2023-05-30-12:55:14.782790,4.0,5.0,370.0
2023-05-30-12:55:14.783763,4.0,5.0,370.0
2023-05-30-12:55:14.784765,4.0,5.0,370.0
2023-05-30-12:55:14.785760,4.0,5.0,370.0
2023-05-30-12:55:14.786770,4.0,5.0,370.0
2023-05-30-12:55:14.787754,4.0,2.0,370.0
2023-05-30-12:55:14.788757,5.0,5.0,370.0
2023-05-30-12:55:14.789791,5.0,5.0,370.0
2023-05-30-12:55:14.790797,6.0,10.0,370.0
2023-05-30-12:55:14.791791,4.0,19.0,370.0
2023-05-30-12:55:14.792793,6.0,2.0,370.0
2023-05-30-12:55:14.793790,6.0,2.0,370.0
2023-05-30-12:55:14.794790,6.0,2.0,370.0
2023-05-30-12:55:14.795790,7.0,4.0,369.0
2023-05-30-12:55:14.796790,5.0,1.0,370.0
2023-05-30-12:55:14.797790,5.0,1.0,370.0
2023-05-30-12:55:14.799755,5.0,1.0,370.0
2023-05-30-12:55:14.800764,6.0,6.0,370.0
2023-05-30-12:55:14.801756,6.0,6.0,370.0
2023-05-30-12:55:14.802768,6.0,6.0,370.0
2023-05-30-12:55:14.803794,2.0,18.0,370.0
2023-05-30-12:55:14.804801,8.0,7.0,370.0
2023-05-30-12:55:14.805755,8.0,7.0,370.0
2023-05-30-12:55:14.806791,8.0,7.0,370.0
2023-05-30-12:55:14.807789,4.0,0.0,370.0
2023-05-30-12:55:14.808789,7.0,22.0,370.0
2023-05-30-12:55:14.809789,6.0,19.0,370.0
2023-05-30-12:55:14.810789,6.0,19.0,370.0
2023-05-30-12:55:14.811793,5.0,17.0,369.0
2023-05-30-12:55:14.812789,4.0,1.0,369.0
2023-05-30-12:55:14.813791,4.0,1.0,369.0
2023-05-30-12:55:14.814790,4.0,1.0,369.0
2023-05-30-12:55:14.815771,1.0,2.0,370.0
2023-05-30-12:55:14.816794,2.0,12.0,370.0
2023-05-30-12:55:14.817755,1.0,2.0,370.0
2023-05-30-12:55:14.818755,1.0,2.0,370.0
2023-05-30-12:55:14.819796,6.0,13.0,370.0
2023-05-30-12:55:14.820813,6.0,13.0,370.0
2023-05-30-12:55:14.821812,6.0,21.0,370.0
2023-05-30-12:55:14.822763,6.0,21.0,370.0
2023-05-30-12:55:14.823812,4.0,8.0,370.0
2023-05-30-12:55:14.824811,6.0,3.0,370.0
2023-05-30-12:55:14.825813,6.0,3.0,370.0
2023-05-30-12:55:14.826827,6.0,3.0,370.0
2023-05-30-12:55:14.827815,9.0,2.0,369.0
2023-05-30-12:55:14.828811,4.0,12.0,369.0
2023-05-30-12:55:14.829812,4.0,6.0,369.0
2023-05-30-12:55:14.830814,4.0,6.0,369.0
2023-05-30-12:55:14.832810,2.0,10.0,370.0
2023-05-30-12:55:14.832810,1.0,20.0,370.0
2023-05-30-12:55:14.833757,1.0,20.0,370.0
2023-05-30-12:55:14.834759,1.0,20.0,370.0
2023-05-30-12:55:14.835755,1.0,20.0,370.0
2023-05-30-12:55:14.836803,7.0,2.0,370.0
2023-05-30-12:55:14.837817,7.0,2.0,370.0
2023-05-30-12:55:14.838812,7.0,2.0,370.0
2023-05-30-12:55:14.839812,7.0,2.0,370.0
2023-05-30-12:55:14.840812,7.0,15.0,370.0
2023-05-30-12:55:14.841811,7.0,5.0,370.0
2023-05-30-12:55:14.842811,3.0,7.0,370.0
2023-05-30-12:55:14.843815,3.0,7.0,370.0
2023-05-30-12:55:14.844811,7.0,2.0,370.0
2023-05-30-12:55:14.845811,8.0,20.0,369.0
2023-05-30-12:55:14.846814,4.0,25.0,369.0
2023-05-30-12:55:14.847811,4.0,25.0,369.0
2023-05-30-12:55:14.848811,6.0,7.0,370.0
2023-05-30-12:55:14.849790,2.0,36.0,370.0
2023-05-30-12:55:14.850773,2.0,26.0,370.0
2023-05-30-12:55:14.851755,2.0,26.0,370.0
2023-05-30-12:55:14.852792,5.0,7.0,370.0
2023-05-30-12:55:14.853813,5.0,10.0,370.0
2023-05-30-12:55:14.854819,3.0,14.0,370.0
2023-05-30-12:55:14.855812,3.0,14.0,370.0
2023-05-30-12:55:14.856811,3.0,12.0,370.0
2023-05-30-12:55:14.857813,7.0,12.0,370.0
2023-05-30-12:55:14.858811,6.0,17.0,370.0
2023-05-30-12:55:14.859755,6.0,17.0,370.0
2023-05-30-12:55:14.860811,5.0,0.0,370.0
2023-05-30-12:55:14.861820,9.0,8.0,370.0
2023-05-30-12:55:14.862815,4.0,12.0,370.0
2023-05-30-12:55:14.863754,4.0,12.0,370.0
2023-05-30-12:55:14.864812,2.0,5.0,370.0
2023-05-30-12:55:14.865817,7.0,8.0,369.0
2023-05-30-12:55:14.867753,6.0,12.0,370.0
2023-05-30-12:55:14.868754,2.0,7.0,370.0
2023-05-30-12:55:14.869811,6.0,4.0,370.0
2023-05-30-12:55:14.870811,6.0,4.0,370.0
2023-05-30-12:55:14.871812,6.0,4.0,370.0
2023-05-30-12:55:14.872811,6.0,4.0,370.0
2023-05-30-12:55:14.873811,8.0,14.0,370.0
2023-05-30-12:55:14.874811,6.0,0.0,370.0
2023-05-30-12:55:14.875815,6.0,0.0,370.0
2023-05-30-12:55:14.876811,6.0,0.0,370.0
2023-05-30-12:55:14.877811,4.0,9.0,370.0
2023-05-30-12:55:14.878814,1.0,2.0,370.0
2023-05-30-12:55:14.879813,1.0,2.0,370.0
2023-05-30-12:55:14.880812,1.0,2.0,370.0
2023-05-30-12:55:14.881811,3.0,11.0,370.0
2023-05-30-12:55:14.882813,6.0,12.0,370.0
2023-05-30-12:55:14.883767,3.0,9.0,370.0
2023-05-30-12:55:14.884797,3.0,9.0,370.0
2023-05-30-12:55:14.885790,3.0,9.0,370.0
2023-05-30-12:55:14.886792,3.0,9.0,370.0
2023-05-30-12:55:14.887791,3.0,9.0,370.0
2023-05-30-12:55:14.888797,3.0,9.0,370.0
2023-05-30-12:55:14.889791,4.0,25.0,370.0
2023-05-30-12:55:14.890790,7.0,21.0,370.0
2023-05-30-12:55:14.891795,10.0,69.0,370.0
2023-05-30-12:55:14.892792,10.0,69.0,370.0
2023-05-30-12:55:14.893794,11.0,49.0,370.0
2023-05-30-12:55:14.894790,4.0,29.0,369.0
2023-05-30-12:55:14.895791,3.0,33.0,370.0
2023-05-30-12:55:14.896791,3.0,33.0,370.0
2023-05-30-12:55:14.897791,2.0,44.0,370.0
2023-05-30-12:55:14.898792,2.0,21.0,370.0
2023-05-30-12:55:14.899790,6.0,45.0,370.0
2023-05-30-12:55:14.900756,6.0,45.0,370.0
2023-05-30-12:55:14.901794,2.0,6.0,370.0
2023-05-30-12:55:14.903754,3.0,4.0,370.0
2023-05-30-12:55:14.903754,3.0,4.0,370.0
2023-05-30-12:55:14.904756,3.0,4.0,370.0
2023-05-30-12:55:14.905810,6.0,11.0,370.0
2023-05-30-12:55:14.906811,6.0,13.0,370.0
2023-05-30-12:55:14.907815,6.0,3.0,370.0
2023-05-30-12:55:14.908791,6.0,3.0,370.0
2023-05-30-12:55:14.909811,8.0,2.0,370.0
2023-05-30-12:55:14.910814,3.0,3.0,370.0
2023-05-30-12:55:14.911811,3.0,3.0,370.0
2023-05-30-12:55:14.912811,3.0,3.0,370.0
2023-05-30-12:55:14.913811,4.0,2.0,369.0
2023-05-30-12:55:14.914812,3.0,0.0,370.0
2023-05-30-12:55:14.915811,8.0,11.0,370.0
2023-05-30-12:55:14.916813,8.0,11.0,370.0
2023-05-30-12:55:14.917791,8.0,11.0,370.0
2023-05-30-12:55:14.918791,2.0,3.0,370.0
2023-05-30-12:55:14.919790,2.0,3.0,370.0
2023-05-30-12:55:14.920793,2.0,3.0,370.0
2023-05-30-12:55:14.921789,2.0,3.0,370.0
2023-05-30-12:55:14.922790,5.0,8.0,370.0
2023-05-30-12:55:14.923793,3.0,28.0,370.0
2023-05-30-12:55:14.924794,6.0,29.0,370.0
2023-05-30-12:55:14.925791,6.0,29.0,370.0
2023-05-30-12:55:14.926790,5.0,15.0,370.0
2023-05-30-12:55:14.927791,9.0,45.0,370.0
2023-05-30-12:55:14.928790,7.0,36.0,370.0
2023-05-30-12:55:14.929790,7.0,36.0,370.0
2023-05-30-12:55:14.930791,5.0,13.0,370.0
2023-05-30-12:55:14.931790,5.0,8.0,370.0
2023-05-30-12:55:14.932792,2.0,21.0,370.0
2023-05-30-12:55:14.933757,2.0,21.0,370.0
2023-05-30-12:55:14.935754,5.0,7.0,369.0
2023-05-30-12:55:14.935754,5.0,7.0,369.0
2023-05-30-12:55:14.936812,5.0,7.0,369.0
2023-05-30-12:55:14.937790,5.0,7.0,369.0
2023-05-30-12:55:14.938811,8.0,5.0,370.0
2023-05-30-12:55:14.939815,3.0,12.0,370.0
2023-05-30-12:55:14.940811,5.0,2.0,370.0
2023-05-30-12:55:14.941811,5.0,2.0,370.0
2023-05-30-12:55:14.942814,3.0,4.0,370.0
2023-05-30-12:55:14.943811,1.0,13.0,370.0
2023-05-30-12:55:14.944814,1.0,13.0,370.0
2023-05-30-12:55:14.945755,1.0,13.0,370.0
2023-05-30-12:55:14.946812,4.0,8.0,370.0
2023-05-30-12:55:14.947812,6.0,7.0,370.0
2023-05-30-12:55:14.948812,6.0,2.0,370.0
2023-05-30-12:55:14.949755,6.0,2.0,370.0
2023-05-30-12:55:14.950812,4.0,7.0,370.0
2023-05-30-12:55:14.951790,2.0,14.0,370.0
2023-05-30-12:55:14.952811,2.0,14.0,370.0
2023-05-30-12:55:14.953822,4.0,4.0,370.0
2023-05-30-12:55:14.954811,3.0,12.0,370.0
2023-05-30-12:55:14.955814,3.0,6.0,370.0
2023-05-30-12:55:14.956811,3.0,6.0,370.0
2023-05-30-12:55:14.957811,3.0,6.0,370.0
2023-05-30-12:55:14.958814,8.0,30.0,370.0
2023-05-30-12:55:14.959811,4.0,16.0,370.0
2023-05-30-12:55:14.960811,4.0,16.0,370.0
2023-05-30-12:55:14.961812,4.0,16.0,370.0
2023-05-30-12:55:14.962814,4.0,16.0,370.0
2023-05-30-12:55:14.963811,6.0,21.0,369.0
2023-05-30-12:55:14.964812,6.0,9.0,370.0
2023-05-30-12:55:14.965811,3.0,12.0,370.0
2023-05-30-12:55:14.966811,3.0,12.0,370.0
2023-05-30-12:55:14.967812,1.0,9.0,370.0
2023-05-30-12:55:14.969754,6.0,37.0,369.0
2023-05-30-12:55:14.969754,6.0,37.0,369.0
2023-05-30-12:55:14.970811,6.0,37.0,369.0
2023-05-30-12:55:14.971814,8.0,45.0,370.0
2023-05-30-12:55:14.972811,10.0,2.0,370.0
2023-05-30-12:55:14.973790,7.0,37.0,370.0
2023-05-30-12:55:14.975791,7.0,37.0,370.0
2023-05-30-12:55:14.975791,5.0,11.0,370.0
2023-05-30-12:55:14.976811,7.0,19.0,370.0
2023-05-30-12:55:14.977811,3.0,36.0,370.0
2023-05-30-12:55:14.978811,3.0,36.0,370.0
2023-05-30-12:55:14.979811,3.0,29.0,370.0
2023-05-30-12:55:14.980812,5.0,2.0,370.0
2023-05-30-12:55:14.981811,4.0,3.0,370.0
2023-05-30-12:55:14.982811,4.0,3.0,370.0
2023-05-30-12:55:14.983770,4.0,1.0,370.0
2023-05-30-12:55:14.984786,3.0,4.0,370.0
2023-05-30-12:55:14.985811,6.0,3.0,370.0
2023-05-30-12:55:14.986756,6.0,3.0,370.0
2023-05-30-12:55:14.987792,5.0,10.0,370.0
2023-05-30-12:55:14.988789,6.0,4.0,370.0
2023-05-30-12:55:14.989791,6.0,4.0,370.0
2023-05-30-12:55:14.990755,6.0,4.0,370.0
2023-05-30-12:55:14.991791,6.0,6.0,370.0
2023-05-30-12:55:14.992790,4.0,0.0,370.0
2023-05-30-12:55:14.993790,6.0,5.0,370.0
2023-05-30-12:55:14.994785,6.0,5.0,370.0
2023-05-30-12:55:14.995790,4.0,19.0,370.0
2023-05-30-12:55:14.996792,4.0,20.0,370.0
2023-05-30-12:55:14.997796,4.0,20.0,370.0
2023-05-30-12:55:14.998791,4.0,20.0,370.0
2023-05-30-12:55:14.999790,4.0,20.0,370.0
2023-05-30-12:55:15.000758,4.0,9.0,370.0
2023-05-30-12:55:15.001791,3.0,15.0,370.0
2023-05-30-12:55:15.002790,3.0,15.0,370.0
2023-05-30-12:55:15.004813,4.0,21.0,370.0
2023-05-30-12:55:15.004813,2.0,0.0,370.0
2023-05-30-12:55:15.005791,2.0,0.0,370.0
2023-05-30-12:55:15.006814,2.0,0.0,370.0
2023-05-30-12:55:15.007791,2.0,0.0,370.0
2023-05-30-12:55:15.008790,4.0,10.0,370.0
2023-05-30-12:55:15.009811,5.0,14.0,370.0
2023-05-30-12:55:15.010812,6.0,14.0,370.0
2023-05-30-12:55:15.011812,6.0,14.0,370.0
2023-05-30-12:55:15.012812,3.0,13.0,370.0
2023-05-30-12:55:15.013811,4.0,3.0,370.0
2023-05-30-12:55:15.014812,4.0,13.0,370.0
2023-05-30-12:55:15.015811,4.0,13.0,370.0
2023-05-30-12:55:15.016793,6.0,13.0,370.0
2023-05-30-12:55:15.017811,5.0,3.0,370.0
2023-05-30-12:55:15.018811,6.0,8.0,370.0
2023-05-30-12:55:15.019814,6.0,8.0,370.0
2023-05-30-12:55:15.020790,7.0,3.0,370.0
2023-05-30-12:55:15.021810,5.0,17.0,370.0
2023-05-30-12:55:15.022790,5.0,17.0,370.0
2023-05-30-12:55:15.023811,5.0,17.0,370.0
2023-05-30-12:55:15.024814,1.0,25.0,370.0
2023-05-30-12:55:15.025811,0.0,12.0,370.0
2023-05-30-12:55:15.026812,4.0,1.0,370.0
2023-05-30-12:55:15.027755,4.0,1.0,370.0
2023-05-30-12:55:15.028812,4.0,35.0,369.0
2023-05-30-12:55:15.029811,6.0,6.0,370.0
2023-05-30-12:55:15.030811,6.0,6.0,370.0
2023-05-30-12:55:15.031755,6.0,6.0,370.0
2023-05-30-12:55:15.032811,6.0,38.0,370.0
2023-05-30-12:55:15.033759,2.0,13.0,370.0
2023-05-30-12:55:15.034811,3.0,10.0,370.0
2023-05-30-12:55:15.036790,3.0,10.0,370.0
2023-05-30-12:55:15.037790,5.0,4.0,370.0
2023-05-30-12:55:15.037790,5.0,4.0,370.0
2023-05-30-12:55:15.038790,5.0,4.0,370.0
2023-05-30-12:55:15.039793,5.0,4.0,370.0
2023-05-30-12:55:15.040790,9.0,1.0,370.0
2023-05-30-12:55:15.041795,3.0,2.0,370.0
2023-05-30-12:55:15.042791,5.0,5.0,370.0
2023-05-30-12:55:15.043790,5.0,5.0,370.0
2023-05-30-12:55:15.044792,5.0,5.0,370.0
2023-05-30-12:55:15.045790,5.0,0.0,369.0
2023-05-30-12:55:15.046790,6.0,20.0,370.0
2023-05-30-12:55:15.047790,6.0,20.0,370.0
2023-05-30-12:55:15.048812,6.0,20.0,370.0
2023-05-30-12:55:15.049811,4.0,24.0,370.0
2023-05-30-12:55:15.050756,4.0,6.0,370.0
2023-05-30-12:55:15.051814,2.0,32.0,370.0
2023-05-30-12:55:15.052811,2.0,32.0,370.0
2023-05-30-12:55:15.053791,5.0,22.0,370.0
2023-05-30-12:55:15.054814,5.0,22.0,370.0
2023-05-30-12:55:15.055755,5.0,22.0,370.0
2023-05-30-12:55:15.056819,5.0,22.0,370.0
2023-05-30-12:55:15.057811,5.0,14.0,370.0
2023-05-30-12:55:15.058812,5.0,8.0,370.0
2023-05-30-12:55:15.059811,4.0,8.0,369.0
2023-05-30-12:55:15.060812,4.0,8.0,369.0
2023-05-30-12:55:15.061817,6.0,4.0,370.0
2023-05-30-12:55:15.062811,3.0,7.0,370.0
2023-05-30-12:55:15.063811,4.0,6.0,370.0
2023-05-30-12:55:15.064811,4.0,6.0,370.0
2023-05-30-12:55:15.065811,6.0,5.0,369.0
2023-05-30-12:55:15.066811,7.0,17.0,370.0
2023-05-30-12:55:15.067791,3.0,8.0,370.0
2023-05-30-12:55:15.068811,3.0,8.0,370.0
2023-05-30-12:55:15.070754,6.0,10.0,370.0
2023-05-30-12:55:15.071754,7.0,37.0,370.0
2023-05-30-12:55:15.071754,7.0,37.0,370.0
2023-05-30-12:55:15.072756,7.0,37.0,370.0
2023-05-30-12:55:15.073811,3.0,33.0,370.0
2023-05-30-12:55:15.074811,6.0,3.0,370.0
2023-05-30-12:55:15.075811,6.0,42.0,370.0
2023-05-30-12:55:15.076755,6.0,42.0,370.0
2023-05-30-12:55:15.077811,4.0,46.0,370.0
2023-05-30-12:55:15.078811,5.0,28.0,370.0
2023-05-30-12:55:15.079811,6.0,27.0,370.0
2023-05-30-12:55:15.080820,6.0,27.0,370.0
2023-05-30-12:55:15.081811,7.0,36.0,370.0
2023-05-30-12:55:15.082811,4.0,5.0,370.0
2023-05-30-12:55:15.083775,1.0,3.0,370.0
2023-05-30-12:55:15.084795,1.0,3.0,370.0
2023-05-30-12:55:15.085790,1.0,3.0,370.0
2023-05-30-12:55:15.086817,2.0,15.0,370.0
2023-05-30-12:55:15.087754,5.0,2.0,370.0
2023-05-30-12:55:15.088811,5.0,2.0,370.0
2023-05-30-12:55:15.089811,5.0,2.0,370.0
2023-05-30-12:55:15.090811,8.0,29.0,370.0
2023-05-30-12:55:15.091811,5.0,19.0,370.0
2023-05-30-12:55:15.092791,5.0,19.0,370.0
2023-05-30-12:55:15.093790,5.0,19.0,370.0
2023-05-30-12:55:15.094811,2.0,9.0,370.0
2023-05-30-12:55:15.095811,8.0,7.0,369.0
2023-05-30-12:55:15.096811,6.0,11.0,369.0
2023-05-30-12:55:15.097812,6.0,11.0,369.0
2023-05-30-12:55:15.098811,4.0,10.0,370.0
2023-05-30-12:55:15.099814,5.0,1.0,370.0
2023-05-30-12:55:15.100757,2.0,10.0,370.0
2023-05-30-12:55:15.101797,2.0,10.0,370.0
2023-05-30-12:55:15.102814,5.0,10.0,370.0
2023-05-30-12:55:15.103811,3.0,14.0,369.0
2023-05-30-12:55:15.105754,2.0,7.0,370.0
2023-05-30-12:55:15.105754,2.0,7.0,370.0
2023-05-30-12:55:15.106755,4.0,16.0,370.0
2023-05-30-12:55:15.107811,5.0,11.0,370.0
2023-05-30-12:55:15.108812,5.0,9.0,370.0
2023-05-30-12:55:15.109793,5.0,9.0,370.0
2023-05-30-12:55:15.110812,6.0,6.0,370.0
2023-05-30-12:55:15.111811,6.0,22.0,370.0
2023-05-30-12:55:15.112812,5.0,22.0,370.0
2023-05-30-12:55:15.113755,5.0,22.0,370.0
2023-05-30-12:55:15.114812,1.0,16.0,370.0
2023-05-30-12:55:15.115815,3.0,13.0,370.0
2023-05-30-12:55:15.116766,4.0,14.0,370.0
2023-05-30-12:55:15.117754,4.0,14.0,370.0
2023-05-30-12:55:15.118754,3.0,7.0,370.0
2023-05-30-12:55:15.119757,5.0,13.0,370.0
2023-05-30-12:55:15.120753,5.0,13.0,370.0
2023-05-30-12:55:15.121754,5.0,13.0,370.0
2023-05-30-12:55:15.122755,5.0,19.0,369.0
2023-05-30-12:55:15.123753,5.0,6.0,370.0
2023-05-30-12:55:15.124753,5.0,6.0,370.0
2023-05-30-12:55:15.125755,5.0,6.0,370.0
2023-05-30-12:55:15.126775,8.0,40.0,370.0
2023-05-30-12:55:15.127754,5.0,25.0,370.0
2023-05-30-12:55:15.128754,4.0,2.0,370.0
2023-05-30-12:55:15.129754,4.0,2.0,370.0
2023-05-30-12:55:15.130781,4.0,2.0,370.0
2023-05-30-12:55:15.131754,5.0,11.0,369.0
2023-05-30-12:55:15.132784,5.0,11.0,369.0
2023-05-30-12:55:15.133781,5.0,11.0,369.0
2023-05-30-12:55:15.134755,5.0,11.0,369.0
2023-05-30-12:55:15.135785,5.0,8.0,370.0
2023-05-30-12:55:15.136755,5.0,8.0,370.0
2023-05-30-12:55:15.137757,5.0,8.0,370.0
2023-05-30-12:55:15.138756,5.0,8.0,370.0
2023-05-30-12:55:15.139768,6.0,6.0,370.0
2023-05-30-12:55:15.141782,6.0,7.0,370.0
2023-05-30-12:55:15.141782,7.0,28.0,370.0
2023-05-30-12:55:15.142755,6.0,4.0,369.0
2023-05-30-12:55:15.143781,7.0,8.0,369.0
2023-05-30-12:55:15.144787,7.0,8.0,369.0
2023-05-30-12:55:15.145780,7.0,8.0,369.0
2023-05-30-12:55:15.146781,7.0,8.0,369.0
2023-05-30-12:55:15.147784,4.0,14.0,370.0
2023-05-30-12:55:15.148803,4.0,3.0,370.0
2023-05-30-12:55:15.149803,4.0,3.0,370.0
2023-05-30-12:55:15.150819,4.0,3.0,370.0
2023-05-30-12:55:15.151755,5.0,1.0,369.0
2023-05-30-12:55:15.152805,4.0,18.0,369.0
2023-05-30-12:55:15.153816,4.0,18.0,369.0
2023-05-30-12:55:15.154803,4.0,18.0,369.0
2023-05-30-12:55:15.155803,3.0,22.0,370.0
2023-05-30-12:55:15.156803,5.0,1.0,369.0
2023-05-30-12:55:15.157803,5.0,1.0,369.0
2023-05-30-12:55:15.158755,5.0,1.0,369.0
2023-05-30-12:55:15.159807,8.0,43.0,370.0
2023-05-30-12:55:15.160803,4.0,14.0,370.0
2023-05-30-12:55:15.161803,4.0,14.0,370.0
2023-05-30-12:55:15.162756,4.0,14.0,370.0
2023-05-30-12:55:15.163806,2.0,14.0,370.0
2023-05-30-12:55:15.164803,5.0,11.0,370.0
2023-05-30-12:55:15.165803,5.0,11.0,370.0
2023-05-30-12:55:15.166824,5.0,11.0,370.0
2023-05-30-12:55:15.167758,8.0,13.0,370.0
2023-05-30-12:55:15.168804,2.0,2.0,370.0
2023-05-30-12:55:15.169796,4.0,1.0,370.0
2023-05-30-12:55:15.170802,4.0,1.0,370.0
2023-05-30-12:55:15.171803,4.0,1.0,370.0
2023-05-30-12:55:15.172803,6.0,22.0,370.0
2023-05-30-12:55:15.173802,4.0,22.0,370.0
2023-05-30-12:55:15.175754,4.0,22.0,370.0
2023-05-30-12:55:15.175754,7.0,10.0,370.0
2023-05-30-12:55:15.176804,7.0,5.0,369.0
2023-05-30-12:55:15.177802,7.0,5.0,369.0
2023-05-30-12:55:15.178802,7.0,5.0,369.0
2023-05-30-12:55:15.179814,7.0,5.0,369.0
2023-05-30-12:55:15.180812,5.0,6.0,370.0
2023-05-30-12:55:15.181812,4.0,12.0,370.0
2023-05-30-12:55:15.182813,5.0,18.0,370.0
2023-05-30-12:55:15.183832,5.0,18.0,370.0
2023-05-30-12:55:15.184798,5.0,11.0,370.0
2023-05-30-12:55:15.185790,2.0,2.0,370.0
2023-05-30-12:55:15.186812,2.0,2.0,370.0
2023-05-30-12:55:15.187812,2.0,2.0,370.0
2023-05-30-12:55:15.188812,6.0,4.0,370.0
2023-05-30-12:55:15.189791,4.0,8.0,370.0
2023-05-30-12:55:15.190812,10.0,26.0,370.0
2023-05-30-12:55:15.191816,10.0,26.0,370.0
2023-05-30-12:55:15.192812,11.0,7.0,370.0
2023-05-30-12:55:15.193812,1.0,17.0,370.0
2023-05-30-12:55:15.194813,0.0,50.0,370.0
2023-05-30-12:55:15.195814,0.0,50.0,370.0
2023-05-30-12:55:15.196812,1.0,38.0,369.0
2023-05-30-12:55:15.197811,1.0,3.0,370.0
2023-05-30-12:55:15.198813,6.0,16.0,369.0
2023-05-30-12:55:15.199755,6.0,16.0,369.0
2023-05-30-12:55:15.200758,6.0,9.0,369.0
2023-05-30-12:55:15.201785,6.0,7.0,370.0
2023-05-30-12:55:15.202795,6.0,7.0,370.0
2023-05-30-12:55:15.203756,6.0,7.0,370.0
2023-05-30-12:55:15.204791,7.0,8.0,369.0
2023-05-30-12:55:15.205790,4.0,21.0,369.0
2023-05-30-12:55:15.206791,7.0,13.0,370.0
2023-05-30-12:55:15.208754,7.0,13.0,370.0
2023-05-30-12:55:15.208754,3.0,5.0,369.0
2023-05-30-12:55:15.209811,7.0,3.0,369.0
2023-05-30-12:55:15.210811,7.0,3.0,369.0
2023-05-30-12:55:15.211814,7.0,3.0,369.0
2023-05-30-12:55:15.212811,5.0,5.0,369.0
2023-05-30-12:55:15.213811,6.0,1.0,370.0
2023-05-30-12:55:15.214813,6.0,1.0,370.0
2023-05-30-12:55:15.215811,6.0,1.0,370.0
2023-05-30-12:55:15.216813,6.0,1.0,370.0
2023-05-30-12:55:15.217815,7.0,0.0,369.0
2023-05-30-12:55:15.218812,7.0,5.0,369.0
2023-05-30-12:55:15.219811,5.0,7.0,369.0
2023-05-30-12:55:15.220811,5.0,7.0,369.0
2023-05-30-12:55:15.221811,5.0,3.0,369.0
2023-05-30-12:55:15.222811,5.0,1.0,370.0
2023-05-30-12:55:15.223817,3.0,7.0,369.0
2023-05-30-12:55:15.224811,3.0,7.0,369.0
2023-05-30-12:55:15.225811,3.0,23.0,369.0
2023-05-30-12:55:15.226802,5.0,10.0,369.0
2023-05-30-12:55:15.227783,5.0,10.0,369.0
2023-05-30-12:55:15.228781,5.0,10.0,369.0
2023-05-30-12:55:15.229802,6.0,7.0,369.0
2023-05-30-12:55:15.230804,7.0,13.0,369.0
2023-05-30-12:55:15.231802,7.0,11.0,369.0
2023-05-30-12:55:15.232804,7.0,11.0,369.0
2023-05-30-12:55:15.233800,7.0,22.0,369.0
2023-05-30-12:55:15.234802,3.0,2.0,369.0
2023-05-30-12:55:15.235801,5.0,8.0,369.0
2023-05-30-12:55:15.236802,5.0,8.0,369.0
2023-05-30-12:55:15.237802,1.0,17.0,369.0
2023-05-30-12:55:15.238782,5.0,3.0,369.0
2023-05-30-12:55:15.239780,5.0,3.0,369.0
2023-05-30-12:55:15.240780,5.0,3.0,369.0
2023-05-30-12:55:15.242754,5.0,13.0,369.0
2023-05-30-12:55:15.242754,4.0,1.0,369.0
2023-05-30-12:55:15.243755,4.0,1.0,369.0
2023-05-30-12:55:15.244755,4.0,1.0,369.0
2023-05-30-12:55:15.245811,6.0,11.0,369.0
2023-05-30-12:55:15.246813,1.0,12.0,369.0
2023-05-30-12:55:15.247811,1.0,12.0,369.0
2023-05-30-12:55:15.248777,1.0,12.0,369.0
2023-05-30-12:55:15.249811,4.0,3.0,369.0
2023-05-30-12:55:15.250757,3.0,11.0,369.0
2023-05-30-12:55:15.251756,4.0,14.0,369.0
2023-05-30-12:55:15.252790,4.0,14.0,369.0
2023-05-30-12:55:15.253811,7.0,6.0,369.0
2023-05-30-12:55:15.254811,7.0,1.0,369.0
2023-05-30-12:55:15.255811,7.0,3.0,369.0
2023-05-30-12:55:15.256811,7.0,3.0,369.0
2023-05-30-12:55:15.257811,7.0,3.0,369.0
2023-05-30-12:55:15.258790,6.0,17.0,369.0
2023-05-30-12:55:15.259813,7.0,2.0,369.0
2023-05-30-12:55:15.260811,7.0,2.0,369.0
2023-05-30-12:55:15.261811,7.0,2.0,369.0
2023-05-30-12:55:15.262813,8.0,7.0,368.0
2023-05-30-12:55:15.263811,7.0,4.0,368.0
2023-05-30-12:55:15.264813,7.0,4.0,368.0
2023-05-30-12:55:15.265811,7.0,4.0,368.0
2023-05-30-12:55:15.266811,3.0,9.0,368.0
2023-05-30-12:55:15.267756,1.0,0.0,368.0
2023-05-30-12:55:15.268811,3.0,1.0,368.0
2023-05-30-12:55:15.269811,3.0,1.0,368.0
2023-05-30-12:55:15.270811,3.0,9.0,368.0
2023-05-30-12:55:15.271811,7.0,16.0,368.0
2023-05-30-12:55:15.272811,3.0,16.0,368.0
2023-05-30-12:55:15.273811,3.0,16.0,368.0
2023-05-30-12:55:15.275816,4.0,6.0,368.0
2023-05-30-12:55:15.276820,7.0,0.0,367.0
2023-05-30-12:55:15.276820,7.0,0.0,367.0
2023-05-30-12:55:15.277811,7.0,0.0,367.0
2023-05-30-12:55:15.278813,2.0,0.0,367.0
2023-05-30-12:55:15.279810,10.0,0.0,367.0
2023-05-30-12:55:15.280818,6.0,1.0,367.0
2023-05-30-12:55:15.281811,6.0,1.0,367.0
2023-05-30-12:55:15.282811,7.0,13.0,367.0
2023-05-30-12:55:15.283811,1.0,23.0,367.0
2023-05-30-12:55:15.284811,4.0,46.0,367.0
2023-05-30-12:55:15.285755,4.0,46.0,367.0
2023-05-30-12:55:15.286811,2.0,43.0,367.0
2023-05-30-12:55:15.287788,3.0,23.0,366.0
2023-05-30-12:55:15.288811,4.0,10.0,366.0
2023-05-30-12:55:15.289754,4.0,10.0,366.0
2023-05-30-12:55:15.290811,6.0,87.0,367.0
2023-05-30-12:55:15.291813,6.0,29.0,366.0
2023-05-30-12:55:15.292755,6.0,12.0,366.0
2023-05-30-12:55:15.293806,6.0,12.0,366.0
2023-05-30-12:55:15.294813,4.0,10.0,366.0
2023-05-30-12:55:15.295811,7.0,4.0,366.0
2023-05-30-12:55:15.296813,4.0,12.0,366.0
2023-05-30-12:55:15.297811,4.0,12.0,366.0
2023-05-30-12:55:15.298811,7.0,2.0,366.0
2023-05-30-12:55:15.299810,3.0,6.0,365.0
2023-05-30-12:55:15.300757,3.0,13.0,366.0
2023-05-30-12:55:15.301790,3.0,13.0,366.0
2023-05-30-12:55:15.302816,3.0,13.0,366.0
2023-05-30-12:55:15.303815,6.0,6.0,365.0
2023-05-30-12:55:15.304812,3.0,8.0,365.0
2023-05-30-12:55:15.305812,3.0,8.0,365.0
2023-05-30-12:55:15.306815,3.0,8.0,365.0
2023-05-30-12:55:15.307814,4.0,22.0,365.0
2023-05-30-12:55:15.308812,9.0,3.0,365.0
2023-05-30-12:55:15.309812,6.0,15.0,365.0
2023-05-30-12:55:15.311754,6.0,15.0,365.0
2023-05-30-12:55:15.311754,1.0,8.0,365.0
2023-05-30-12:55:15.312813,1.0,8.0,365.0
2023-05-30-12:55:15.313811,1.0,8.0,365.0
2023-05-30-12:55:15.314811,1.0,8.0,365.0
2023-05-30-12:55:15.315811,2.0,1.0,365.0
2023-05-30-12:55:15.316812,8.0,9.0,365.0
2023-05-30-12:55:15.317812,6.0,13.0,364.0
2023-05-30-12:55:15.318812,6.0,13.0,364.0
2023-05-30-12:55:15.319815,5.0,13.0,364.0
2023-05-30-12:55:15.320791,6.0,2.0,364.0
2023-05-30-12:55:15.321812,5.0,2.0,364.0
2023-05-30-12:55:15.322811,5.0,2.0,364.0
2023-05-30-12:55:15.323792,6.0,6.0,364.0
2023-05-30-12:55:15.324810,5.0,13.0,364.0
2023-05-30-12:55:15.325814,5.0,13.0,364.0
2023-05-30-12:55:15.326755,5.0,13.0,364.0
2023-05-30-12:55:15.327790,4.0,0.0,363.0
2023-05-30-12:55:15.328812,5.0,8.0,364.0
2023-05-30-12:55:15.329810,5.0,8.0,364.0
2023-05-30-12:55:15.330755,5.0,8.0,364.0
2023-05-30-12:55:15.331813,6.0,2.0,363.0
2023-05-30-12:55:15.332812,3.0,1.0,363.0
2023-05-30-12:55:15.333812,4.0,14.0,363.0
2023-05-30-12:55:15.334791,4.0,14.0,363.0
2023-05-30-12:55:15.335815,5.0,16.0,363.0
2023-05-30-12:55:15.336811,6.0,3.0,363.0
2023-05-30-12:55:15.337812,6.0,4.0,363.0
2023-05-30-12:55:15.338812,6.0,4.0,363.0
2023-05-30-12:55:15.339792,9.0,4.0,363.0
2023-05-30-12:55:15.340790,7.0,13.0,362.0
2023-05-30-12:55:15.341790,7.0,13.0,362.0
2023-05-30-12:55:15.342790,7.0,13.0,362.0
2023-05-30-12:55:15.344754,7.0,13.0,362.0
2023-05-30-12:55:15.344754,1.0,21.0,362.0
2023-05-30-12:55:15.345755,1.0,21.0,362.0
2023-05-30-12:55:15.346811,1.0,21.0,362.0
2023-05-30-12:55:15.347812,1.0,21.0,362.0
2023-05-30-12:55:15.348812,2.0,27.0,362.0
2023-05-30-12:55:15.349812,3.0,15.0,362.0
2023-05-30-12:55:15.350757,6.0,13.0,361.0
2023-05-30-12:55:15.351772,6.0,13.0,361.0
2023-05-30-12:55:15.352811,4.0,22.0,361.0
2023-05-30-12:55:15.353812,5.0,9.0,361.0
2023-05-30-12:55:15.354813,5.0,9.0,361.0
2023-05-30-12:55:15.355814,5.0,9.0,361.0
2023-05-30-12:55:15.356790,7.0,4.0,361.0
2023-05-30-12:55:15.357812,2.0,26.0,361.0
2023-05-30-12:55:15.358817,2.0,12.0,360.0
2023-05-30-12:55:15.359812,2.0,12.0,360.0
2023-05-30-12:55:15.360813,1.0,2.0,360.0
2023-05-30-12:55:15.361812,5.0,5.0,360.0
2023-05-30-12:55:15.362811,6.0,7.0,359.0
2023-05-30-12:55:15.363812,6.0,7.0,359.0
2023-05-30-12:55:15.364812,7.0,22.0,359.0
2023-05-30-12:55:15.365813,6.0,16.0,358.0
2023-05-30-12:55:15.366812,6.0,16.0,358.0
2023-05-30-12:55:15.367780,6.0,16.0,358.0
2023-05-30-12:55:15.368812,5.0,10.0,358.0
2023-05-30-12:55:15.369812,3.0,13.0,358.0
2023-05-30-12:55:15.370812,6.0,2.0,358.0
2023-05-30-12:55:15.371755,6.0,2.0,358.0
2023-05-30-12:55:15.372812,8.0,42.0,357.0
2023-05-30-12:55:15.373812,5.0,1.0,357.0
2023-05-30-12:55:15.374812,6.0,2.0,356.0
2023-05-30-12:55:15.375760,6.0,2.0,356.0
2023-05-30-12:55:15.376813,7.0,11.0,356.0
2023-05-30-12:55:15.377790,4.0,6.0,356.0
2023-05-30-12:55:15.378790,4.0,6.0,356.0
2023-05-30-12:55:15.380790,4.0,6.0,356.0
2023-05-30-12:55:15.380790,5.0,10.0,354.0
2023-05-30-12:55:15.381816,5.0,10.0,354.0
2023-05-30-12:55:15.382812,5.0,10.0,354.0
2023-05-30-12:55:15.383819,5.0,10.0,354.0
2023-05-30-12:55:15.384754,5.0,10.0,354.0
2023-05-30-12:55:15.385812,4.0,6.0,353.0
2023-05-30-12:55:15.386813,2.0,13.0,353.0
2023-05-30-12:55:15.387814,2.0,13.0,353.0
2023-05-30-12:55:15.388812,2.0,13.0,353.0
2023-05-30-12:55:15.389812,2.0,18.0,353.0
2023-05-30-12:55:15.390812,5.0,15.0,352.0
2023-05-30-12:55:15.391790,3.0,2.0,352.0
2023-05-30-12:55:15.392790,3.0,2.0,352.0
2023-05-30-12:55:15.393812,7.0,9.0,352.0
2023-05-30-12:55:15.394811,7.0,22.0,352.0
2023-05-30-12:55:15.395755,5.0,18.0,351.0
2023-05-30-12:55:15.396812,5.0,18.0,351.0
2023-05-30-12:55:15.397812,4.0,9.0,351.0
2023-05-30-12:55:15.398812,4.0,30.0,350.0
2023-05-30-12:55:15.399815,2.0,21.0,350.0
2023-05-30-12:55:15.400758,2.0,21.0,350.0
2023-05-30-12:55:15.401811,4.0,11.0,349.0
2023-05-30-12:55:15.402812,4.0,22.0,349.0
2023-05-30-12:55:15.403814,4.0,22.0,349.0
2023-05-30-12:55:15.404811,4.0,22.0,349.0
2023-05-30-12:55:15.405812,5.0,8.0,349.0
2023-05-30-12:55:15.406821,8.0,2.0,348.0
2023-05-30-12:55:15.407795,5.0,26.0,348.0
2023-05-30-12:55:15.408790,5.0,26.0,348.0
2023-05-30-12:55:15.409790,6.0,9.0,348.0
2023-05-30-12:55:15.410797,4.0,9.0,348.0
2023-05-30-12:55:15.411790,5.0,7.0,348.0
2023-05-30-12:55:15.412755,5.0,7.0,348.0
2023-05-30-12:55:15.414754,6.0,15.0,347.0
2023-05-30-12:55:15.414754,5.0,19.0,347.0
2023-05-30-12:55:15.415815,5.0,19.0,347.0
2023-05-30-12:55:15.416755,5.0,19.0,347.0
2023-05-30-12:55:15.417756,2.0,23.0,346.0
2023-05-30-12:55:15.418812,3.0,16.0,346.0
2023-05-30-12:55:15.419814,4.0,2.0,346.0
2023-05-30-12:55:15.420802,4.0,2.0,346.0
2023-05-30-12:55:15.421812,4.0,1.0,345.0
2023-05-30-12:55:15.422812,4.0,5.0,345.0
2023-05-30-12:55:15.423813,6.0,1.0,345.0
2023-05-30-12:55:15.424793,6.0,1.0,345.0
2023-05-30-12:55:15.425812,6.0,7.0,345.0
2023-05-30-12:55:15.426812,4.0,11.0,345.0
2023-05-30-12:55:15.427812,6.0,10.0,345.0
2023-05-30-12:55:15.428812,6.0,10.0,345.0
2023-05-30-12:55:15.429790,3.0,11.0,345.0
2023-05-30-12:55:15.430812,5.0,35.0,344.0
2023-05-30-12:55:15.431815,8.0,17.0,345.0
2023-05-30-12:55:15.432812,5.0,19.0,344.0
2023-05-30-12:55:15.433812,5.0,19.0,344.0
2023-05-30-12:55:15.434813,3.0,28.0,344.0
2023-05-30-12:55:15.435757,5.0,6.0,344.0
2023-05-30-12:55:15.436790,5.0,6.0,344.0
2023-05-30-12:55:15.437790,5.0,6.0,344.0
2023-05-30-12:55:15.438790,4.0,9.0,344.0
2023-05-30-12:55:15.439791,5.0,7.0,344.0
2023-05-30-12:55:15.440790,5.0,15.0,343.0
2023-05-30-12:55:15.441790,5.0,15.0,343.0
2023-05-30-12:55:15.442796,2.0,10.0,344.0
2023-05-30-12:55:15.443790,3.0,6.0,343.0
2023-05-30-12:55:15.444790,4.0,4.0,344.0
2023-05-30-12:55:15.445790,4.0,4.0,344.0
2023-05-30-12:55:15.446795,7.0,5.0,343.0
2023-05-30-12:55:15.447789,3.0,5.0,343.0
2023-05-30-12:55:15.448791,3.0,5.0,343.0
2023-05-30-12:55:15.450754,3.0,5.0,343.0
2023-05-30-12:55:15.450754,4.0,4.0,343.0
2023-05-30-12:55:15.451755,4.0,4.0,343.0
2023-05-30-12:55:15.452812,4.0,4.0,343.0
2023-05-30-12:55:15.453755,4.0,4.0,343.0
2023-05-30-12:55:15.454812,5.0,6.0,343.0
2023-05-30-12:55:15.455811,5.0,8.0,343.0
2023-05-30-12:55:15.456812,5.0,8.0,343.0
2023-05-30-12:55:15.457755,5.0,8.0,343.0
2023-05-30-12:55:15.458812,5.0,2.0,343.0
2023-05-30-12:55:15.459790,6.0,3.0,343.0
2023-05-30-12:55:15.460811,7.0,9.0,342.0
2023-05-30-12:55:15.461778,7.0,9.0,342.0
2023-05-30-12:55:15.462812,6.0,12.0,342.0
2023-05-30-12:55:15.463815,4.0,10.0,343.0
2023-05-30-12:55:15.464755,4.0,4.0,343.0
2023-05-30-12:55:15.465811,4.0,4.0,343.0
2023-05-30-12:55:15.466812,4.0,15.0,342.0
2023-05-30-12:55:15.467823,5.0,15.0,342.0
2023-05-30-12:55:15.468813,5.0,15.0,342.0
2023-05-30-12:55:15.469814,5.0,15.0,342.0
2023-05-30-12:55:15.470812,5.0,15.0,342.0
2023-05-30-12:55:15.471812,6.0,11.0,342.0
2023-05-30-12:55:15.472812,7.0,15.0,342.0
2023-05-30-12:55:15.473812,7.0,15.0,342.0
2023-05-30-12:55:15.474812,7.0,15.0,342.0
2023-05-30-12:55:15.475812,4.0,22.0,342.0
2023-05-30-12:55:15.476811,2.0,10.0,342.0
2023-05-30-12:55:15.477811,3.0,21.0,342.0
2023-05-30-12:55:15.478822,3.0,21.0,342.0
2023-05-30-12:55:15.479815,4.0,20.0,342.0
2023-05-30-12:55:15.480812,3.0,21.0,342.0
2023-05-30-12:55:15.481811,7.0,7.0,342.0
2023-05-30-12:55:15.482812,7.0,7.0,342.0
2023-05-30-12:55:15.484756,7.0,7.0,342.0
2023-05-30-12:55:15.484756,5.0,13.0,342.0
2023-05-30-12:55:15.485755,5.0,13.0,342.0
2023-05-30-12:55:15.486796,5.0,13.0,342.0
2023-05-30-12:55:15.487813,2.0,24.0,342.0
2023-05-30-12:55:15.488812,5.0,37.0,342.0
2023-05-30-12:55:15.489812,5.0,37.0,342.0
2023-05-30-12:55:15.490811,5.0,37.0,342.0
2023-05-30-12:55:15.491818,7.0,12.0,341.0
2023-05-30-12:55:15.492811,6.0,3.0,342.0
2023-05-30-12:55:15.493819,5.0,1.0,341.0
2023-05-30-12:55:15.494812,5.0,1.0,341.0
2023-05-30-12:55:15.495815,4.0,0.0,341.0
2023-05-30-12:55:15.496812,6.0,11.0,341.0
2023-05-30-12:55:15.497814,3.0,7.0,342.0
2023-05-30-12:55:15.498755,3.0,7.0,342.0
2023-05-30-12:55:15.499793,3.0,10.0,341.0
2023-05-30-12:55:15.500757,5.0,30.0,342.0
2023-05-30-12:55:15.501805,5.0,30.0,342.0
2023-05-30-12:55:15.502755,5.0,30.0,342.0
2023-05-30-12:55:15.503812,4.0,22.0,342.0
2023-05-30-12:55:15.504812,8.0,16.0,341.0
2023-05-30-12:55:15.505812,6.0,33.0,341.0
2023-05-30-12:55:15.506823,6.0,33.0,341.0
2023-05-30-12:55:15.507790,8.0,65.0,342.0
2023-05-30-12:55:15.508811,3.0,11.0,342.0
2023-05-30-12:55:15.509812,2.0,24.0,341.0
2023-05-30-12:55:15.510812,2.0,24.0,341.0
2023-05-30-12:55:15.511814,2.0,24.0,341.0
2023-05-30-12:55:15.512812,1.0,40.0,341.0
2023-05-30-12:55:15.513812,6.0,23.0,341.0
2023-05-30-12:55:15.514811,2.0,21.0,341.0
2023-05-30-12:55:15.515813,4.0,10.0,341.0
2023-05-30-12:55:15.517758,6.0,17.0,341.0
2023-05-30-12:55:15.517758,4.0,19.0,341.0
2023-05-30-12:55:15.518800,4.0,19.0,341.0
2023-05-30-12:55:15.519816,4.0,19.0,341.0
2023-05-30-12:55:15.520812,5.0,7.0,341.0
2023-05-30-12:55:15.521815,7.0,4.0,341.0
2023-05-30-12:55:15.522812,5.0,11.0,342.0
2023-05-30-12:55:15.523812,5.0,11.0,342.0
2023-05-30-12:55:15.524811,3.0,6.0,342.0
2023-05-30-12:55:15.525813,5.0,3.0,341.0
2023-05-30-12:55:15.526812,5.0,7.0,341.0
2023-05-30-12:55:15.527814,5.0,7.0,341.0
2023-05-30-12:55:15.528812,7.0,10.0,342.0
2023-05-30-12:55:15.529812,3.0,18.0,341.0
2023-05-30-12:55:15.530812,4.0,14.0,341.0
2023-05-30-12:55:15.531791,4.0,14.0,341.0
2023-05-30-12:55:15.532812,7.0,2.0,342.0
2023-05-30-12:55:15.533790,7.0,3.0,341.0
2023-05-30-12:55:15.534791,4.0,1.0,342.0
2023-05-30-12:55:15.535812,4.0,1.0,342.0
2023-05-30-12:55:15.536790,6.0,25.0,342.0
2023-05-30-12:55:15.537812,4.0,25.0,342.0
2023-05-30-12:55:15.538812,1.0,22.0,342.0
2023-05-30-12:55:15.539755,1.0,22.0,342.0
2023-05-30-12:55:15.540783,3.0,2.0,342.0
2023-05-30-12:55:15.541812,6.0,8.0,341.0
2023-05-30-12:55:15.542813,5.0,5.0,341.0
2023-05-30-12:55:15.543756,5.0,5.0,341.0
2023-05-30-12:55:15.544812,4.0,5.0,341.0
2023-05-30-12:55:15.545814,4.0,13.0,341.0
2023-05-30-12:55:15.546813,4.0,13.0,341.0
2023-05-30-12:55:15.547755,4.0,13.0,341.0
2023-05-30-12:55:15.548812,3.0,9.0,342.0
2023-05-30-12:55:15.549811,6.0,4.0,342.0
2023-05-30-12:55:15.550816,2.0,15.0,341.0
2023-05-30-12:55:15.552812,2.0,15.0,341.0
2023-05-30-12:55:15.552812,5.0,11.0,342.0
2023-05-30-12:55:15.553813,5.0,11.0,342.0
2023-05-30-12:55:15.554811,5.0,50.0,342.0
2023-05-30-12:55:15.555812,5.0,50.0,342.0
2023-05-30-12:55:15.556816,5.0,50.0,342.0
2023-05-30-12:55:15.557814,3.0,19.0,342.0
2023-05-30-12:55:15.558811,2.0,32.0,342.0
2023-05-30-12:55:15.559815,2.0,32.0,342.0
2023-05-30-12:55:15.560812,2.0,32.0,342.0
2023-05-30-12:55:15.561812,4.0,37.0,342.0
2023-05-30-12:55:15.562812,2.0,16.0,342.0
2023-05-30-12:55:15.563813,4.0,13.0,342.0
2023-05-30-12:55:15.564812,4.0,13.0,342.0
2023-05-30-12:55:15.565814,4.0,8.0,342.0
2023-05-30-12:55:15.566812,4.0,4.0,342.0
2023-05-30-12:55:15.567756,5.0,4.0,342.0
2023-05-30-12:55:15.568756,5.0,4.0,342.0
2023-05-30-12:55:15.569812,6.0,1.0,342.0
2023-05-30-12:55:15.570817,4.0,7.0,342.0
2023-05-30-12:55:15.571812,4.0,7.0,342.0
2023-05-30-12:55:15.572811,4.0,7.0,342.0
2023-05-30-12:55:15.573790,5.0,7.0,342.0
2023-05-30-12:55:15.574813,7.0,18.0,342.0
2023-05-30-12:55:15.575814,7.0,18.0,342.0
2023-05-30-12:55:15.576816,7.0,18.0,342.0
2023-05-30-12:55:15.577814,3.0,22.0,342.0
2023-05-30-12:55:15.578815,4.0,18.0,341.0
2023-05-30-12:55:15.579791,5.0,1.0,341.0
2023-05-30-12:55:15.580755,5.0,1.0,341.0
2023-05-30-12:55:15.581811,3.0,25.0,342.0
2023-05-30-12:55:15.582812,4.0,10.0,342.0
2023-05-30-12:55:15.583812,5.0,5.0,341.0
2023-05-30-12:55:15.584756,5.0,5.0,341.0
2023-05-30-12:55:15.585790,7.0,22.0,342.0
2023-05-30-12:55:15.587754,3.0,9.0,342.0
2023-05-30-12:55:15.587754,3.0,9.0,342.0
2023-05-30-12:55:15.588755,3.0,9.0,342.0
2023-05-30-12:55:15.589791,3.0,23.0,342.0
2023-05-30-12:55:15.590815,4.0,19.0,342.0
2023-05-30-12:55:15.591814,4.0,19.0,342.0
2023-05-30-12:55:15.592828,4.0,19.0,342.0
2023-05-30-12:55:15.593814,2.0,7.0,342.0
2023-05-30-12:55:15.594811,3.0,29.0,342.0
2023-05-30-12:55:15.595791,5.0,14.0,341.0
2023-05-30-12:55:15.596790,5.0,14.0,341.0
2023-05-30-12:55:15.597790,5.0,14.0,341.0
2023-05-30-12:55:15.598791,5.0,12.0,342.0
2023-05-30-12:55:15.599791,5.0,12.0,342.0
2023-05-30-12:55:15.600800,5.0,12.0,342.0
2023-05-30-12:55:15.601793,5.0,12.0,342.0
2023-05-30-12:55:15.602793,8.0,20.0,342.0
2023-05-30-12:55:15.603753,4.0,3.0,342.0
2023-05-30-12:55:15.604816,4.0,3.0,342.0
2023-05-30-12:55:15.605818,4.0,3.0,342.0
2023-05-30-12:55:15.606816,6.0,13.0,342.0
2023-05-30-12:55:15.607814,7.0,12.0,342.0
2023-05-30-12:55:15.608812,4.0,8.0,342.0
2023-05-30-12:55:15.609814,4.0,8.0,342.0
2023-05-30-12:55:15.610812,8.0,12.0,341.0
2023-05-30-12:55:15.611791,2.0,17.0,341.0
2023-05-30-12:55:15.612816,2.0,17.0,341.0
2023-05-30-12:55:15.613811,2.0,17.0,341.0
2023-05-30-12:55:15.614812,2.0,23.0,342.0
2023-05-30-12:55:15.615812,5.0,21.0,341.0
2023-05-30-12:55:15.616812,7.0,5.0,342.0
2023-05-30-12:55:15.617757,7.0,5.0,342.0
2023-05-30-12:55:15.619818,1.0,2.0,342.0
2023-05-30-12:55:15.619818,2.0,8.0,342.0
2023-05-30-12:55:15.620815,2.0,8.0,342.0
2023-05-30-12:55:15.621812,2.0,8.0,342.0
2023-05-30-12:55:15.622812,4.0,12.0,341.0
2023-05-30-12:55:15.623814,8.0,10.0,342.0
2023-05-30-12:55:15.624812,7.0,12.0,342.0
2023-05-30-12:55:15.625755,7.0,12.0,342.0
