# 
# 
# 
# 
# 
# 
# 
# 
# 
# 
# time,realtime,ref,inp,dis,state...
0.000000000000000000e+00,1.643057169092945099e+09,0.000000000000000000e+00,8.893799080164009607e-02,0.000000000000000000e+00,9.695042240539190892e-02
1.666666666666666644e-02,1.643057169094968319e+09,0.000000000000000000e+00,9.695042240539190892e-02,-5.240579886387044528e-01,9.695042240539190892e-02
3.333333333333333287e-02,1.643057169096971273e+09,0.000000000000000000e+00,9.695042240539190892e-02,0.000000000000000000e+00,9.695042240539190892e-02
5.000000000000000278e-02,1.643057169114885807e+09,0.000000000000000000e+00,9.695042240539190892e-02,0.000000000000000000e+00,9.695042240539190892e-02
6.666666666666666574e-02,1.643057169131841183e+09,0.000000000000000000e+00,9.695042240539190892e-02,0.000000000000000000e+00,9.695042240539190892e-02
8.333333333333332871e-02,1.643057169147797823e+09,0.000000000000000000e+00,9.695042240539190892e-02,0.000000000000000000e+00,9.695042240539190892e-02
1.000000000000000056e-01,1.643057169163755417e+09,0.000000000000000000e+00,9.695042240539190892e-02,0.000000000000000000e+00,9.695042240539190892e-02
1.166666666666666685e-01,1.643057169181731939e+09,0.000000000000000000e+00,9.695042240539190892e-02,0.000000000000000000e+00,9.695042240539190892e-02
1.333333333333333315e-01,1.643057169197690487e+09,0.000000000000000000e+00,8.893799080164009607e-02,0.000000000000000000e+00,8.893799080164009607e-02
1.499999999999999944e-01,1.643057169215665340e+09,0.000000000000000000e+00,8.893799080164009607e-02,0.000000000000000000e+00,8.893799080164009607e-02
1.666666666666666574e-01,1.643057169231600523e+09,0.000000000000000000e+00,8.893799080164009607e-02,0.000000000000000000e+00,8.893799080164009607e-02
1.833333333333333204e-01,1.643057169248575211e+09,0.000000000000000000e+00,8.893799080164009607e-02,0.000000000000000000e+00,8.893799080164009607e-02
2.000000000000000111e-01,1.643057169265508175e+09,0.000000000000000000e+00,9.695042240539190892e-02,0.000000000000000000e+00,9.695042240539190892e-02
2.166666666666666741e-01,1.643057169285453558e+09,0.000000000000000000e+00,9.695042240539190892e-02,0.000000000000000000e+00,9.695042240539190892e-02
2.333333333333333370e-01,1.643057169301506519e+09,0.000000000000000000e+00,9.695042240539190892e-02,0.000000000000000000e+00,9.695042240539190892e-02
2.500000000000000000e-01,1.643057169317873955e+09,0.000000000000000000e+00,9.695042240539190892e-02,0.000000000000000000e+00,9.695042240539190892e-02
2.666666666666666630e-01,1.643057169336967468e+09,0.000000000000000000e+00,9.695042240539190892e-02,0.000000000000000000e+00,9.695042240539190892e-02
2.833333333333333259e-01,1.643057169354424953e+09,0.000000000000000000e+00,9.695042240539190892e-02,0.000000000000000000e+00,9.695042240539190892e-02
2.999999999999999889e-01,1.643057169369778156e+09,0.000000000000000000e+00,9.695042240539190892e-02,0.000000000000000000e+00,9.695042240539190892e-02
3.166666666666666519e-01,1.643057169386731148e+09,0.000000000000000000e+00,8.893799080164009607e-02,0.000000000000000000e+00,8.893799080164009607e-02
3.333333333333333148e-01,1.643057169404074907e+09,0.000000000000000000e+00,9.695042240539190892e-02,0.000000000000000000e+00,9.695042240539190892e-02
3.499999999999999778e-01,1.643057169420620918e+09,0.000000000000000000e+00,8.893799080164009607e-02,0.000000000000000000e+00,8.893799080164009607e-02
3.666666666666666408e-01,1.643057169437711954e+09,0.000000000000000000e+00,9.695042240539190892e-02,0.000000000000000000e+00,9.695042240539190892e-02
3.833333333333333037e-01,1.643057169452940941e+09,0.000000000000000000e+00,9.695042240539190892e-02,0.000000000000000000e+00,9.695042240539190892e-02
4.000000000000000222e-01,1.643057169469749928e+09,0.000000000000000000e+00,9.695042240539190892e-02,0.000000000000000000e+00,9.695042240539190892e-02
4.166666666666666852e-01,1.643057169485700846e+09,0.000000000000000000e+00,9.695042240539190892e-02,0.000000000000000000e+00,9.695042240539190892e-02
4.333333333333333481e-01,1.643057169504809380e+09,0.000000000000000000e+00,8.893799080164009607e-02,0.000000000000000000e+00,8.893799080164009607e-02
4.500000000000000111e-01,1.643057169521896601e+09,0.000000000000000000e+00,9.695042240539190892e-02,0.000000000000000000e+00,9.695042240539190892e-02
4.666666666666666741e-01,1.643057169538213491e+09,0.000000000000000000e+00,8.893799080164009607e-02,0.000000000000000000e+00,8.893799080164009607e-02
4.833333333333333370e-01,1.643057169554343224e+09,0.000000000000000000e+00,9.695042240539190892e-02,0.000000000000000000e+00,9.695042240539190892e-02
5.000000000000000000e-01,1.643057169572354317e+09,0.000000000000000000e+00,9.695042240539190892e-02,0.000000000000000000e+00,9.695042240539190892e-02
5.166666666666666075e-01,1.643057169589309692e+09,0.000000000000000000e+00,8.893799080164009607e-02,0.000000000000000000e+00,8.893799080164009607e-02
5.333333333333333259e-01,1.643057169605513811e+09,0.000000000000000000e+00,9.695042240539190892e-02,0.000000000000000000e+00,9.695042240539190892e-02
5.500000000000000444e-01,1.643057169624132633e+09,0.000000000000000000e+00,9.695042240539190892e-02,0.000000000000000000e+00,9.695042240539190892e-02
5.666666666666666519e-01,1.643057169640475035e+09,0.000000000000000000e+00,9.695042240539190892e-02,0.000000000000000000e+00,9.695042240539190892e-02
5.833333333333333703e-01,1.643057169657463551e+09,0.000000000000000000e+00,9.695042240539190892e-02,0.000000000000000000e+00,9.695042240539190892e-02
5.999999999999999778e-01,1.643057169672716141e+09,0.000000000000000000e+00,8.893799080164009607e-02,0.000000000000000000e+00,8.893799080164009607e-02
6.166666666666666963e-01,1.643057169688870668e+09,0.000000000000000000e+00,8.893799080164009607e-02,0.000000000000000000e+00,8.893799080164009607e-02
6.333333333333333037e-01,1.643057169705828190e+09,0.000000000000000000e+00,9.695042240539190892e-02,0.000000000000000000e+00,9.695042240539190892e-02
6.500000000000000222e-01,1.643057169723769188e+09,0.000000000000000000e+00,9.695042240539190892e-02,0.000000000000000000e+00,9.695042240539190892e-02
6.666666666666666297e-01,1.643057169740746260e+09,0.000000000000000000e+00,9.695042240539190892e-02,0.000000000000000000e+00,9.695042240539190892e-02
6.833333333333333481e-01,1.643057169757680416e+09,0.000000000000000000e+00,9.695042240539190892e-02,0.000000000000000000e+00,9.695042240539190892e-02
6.999999999999999556e-01,1.643057169774634838e+09,0.000000000000000000e+00,9.695042240539190892e-02,0.000000000000000000e+00,9.695042240539190892e-02
7.166666666666666741e-01,1.643057169791865349e+09,0.000000000000000000e+00,8.893799080164009607e-02,0.000000000000000000e+00,8.893799080164009607e-02
7.333333333333332815e-01,1.643057169808191061e+09,0.000000000000000000e+00,8.893799080164009607e-02,0.000000000000000000e+00,8.893799080164009607e-02
7.500000000000000000e-01,1.643057169824676037e+09,0.000000000000000000e+00,9.695042240539190892e-02,0.000000000000000000e+00,9.695042240539190892e-02
7.666666666666666075e-01,1.643057169842870235e+09,0.000000000000000000e+00,9.695042240539190892e-02,0.000000000000000000e+00,9.695042240539190892e-02
7.833333333333333259e-01,1.643057169860842705e+09,0.000000000000000000e+00,8.893799080164009607e-02,0.000000000000000000e+00,8.893799080164009607e-02
8.000000000000000444e-01,1.643057169877893686e+09,0.000000000000000000e+00,8.893799080164009607e-02,0.000000000000000000e+00,8.893799080164009607e-02
8.166666666666666519e-01,1.643057169894824505e+09,0.000000000000000000e+00,9.695042240539190892e-02,0.000000000000000000e+00,9.695042240539190892e-02
8.333333333333333703e-01,1.643057169909777880e+09,0.000000000000000000e+00,9.695042240539190892e-02,0.000000000000000000e+00,9.695042240539190892e-02
8.499999999999999778e-01,1.643057169928554058e+09,0.000000000000000000e+00,9.695042240539190892e-02,0.000000000000000000e+00,9.695042240539190892e-02
8.666666666666666963e-01,1.643057169945827007e+09,0.000000000000000000e+00,9.695042240539190892e-02,0.000000000000000000e+00,9.695042240539190892e-02
8.833333333333333037e-01,1.643057169961405993e+09,0.000000000000000000e+00,9.695042240539190892e-02,0.000000000000000000e+00,9.695042240539190892e-02
9.000000000000000222e-01,1.643057169978698254e+09,0.000000000000000000e+00,9.695042240539190892e-02,0.000000000000000000e+00,9.695042240539190892e-02
9.166666666666666297e-01,1.643057169996705294e+09,0.000000000000000000e+00,9.695042240539190892e-02,0.000000000000000000e+00,9.695042240539190892e-02
9.333333333333333481e-01,1.643057170013434410e+09,0.000000000000000000e+00,8.893799080164009607e-02,0.000000000000000000e+00,8.893799080164009607e-02
9.499999999999999556e-01,1.643057170028871298e+09,0.000000000000000000e+00,9.695042240539190892e-02,0.000000000000000000e+00,9.695042240539190892e-02
9.666666666666666741e-01,1.643057170048154831e+09,0.000000000000000000e+00,9.695042240539190892e-02,0.000000000000000000e+00,9.695042240539190892e-02
9.833333333333332815e-01,1.643057170065553427e+09,0.000000000000000000e+00,9.695042240539190892e-02,0.000000000000000000e+00,9.695042240539190892e-02
1.000000000000000000e+00,1.643057170083731890e+09,0.000000000000000000e+00,8.893799080164009607e-02,0.000000000000000000e+00,8.893799080164009607e-02
1.016666666666666607e+00,1.643057170098684788e+09,0.000000000000000000e+00,9.695042240539190892e-02,0.000000000000000000e+00,9.695042240539190892e-02
1.033333333333333215e+00,1.643057170115646839e+09,0.000000000000000000e+00,9.695042240539190892e-02,0.000000000000000000e+00,9.695042240539190892e-02
1.050000000000000044e+00,1.643057170133193016e+09,0.000000000000000000e+00,9.695042240539190892e-02,0.000000000000000000e+00,9.695042240539190892e-02
1.066666666666666652e+00,1.643057170150149584e+09,0.000000000000000000e+00,9.695042240539190892e-02,0.000000000000000000e+00,9.695042240539190892e-02
1.083333333333333259e+00,1.643057170166725397e+09,0.000000000000000000e+00,9.695042240539190892e-02,0.000000000000000000e+00,9.695042240539190892e-02
1.100000000000000089e+00,1.643057170184405327e+09,0.000000000000000000e+00,9.695042240539190892e-02,0.000000000000000000e+00,9.695042240539190892e-02
1.116666666666666696e+00,1.643057170200361967e+09,0.000000000000000000e+00,1.049628540091431389e-01,0.000000000000000000e+00,1.049628540091431389e-01
1.133333333333333304e+00,1.643057170218313694e+09,0.000000000000000000e+00,1.049628540091431389e-01,0.000000000000000000e+00,1.049628540091431389e-01
1.149999999999999911e+00,1.643057170237263203e+09,0.000000000000000000e+00,1.129752856128943689e-01,0.000000000000000000e+00,1.129752856128943689e-01
1.166666666666666741e+00,1.643057170253246307e+09,0.000000000000000000e+00,1.049628540091431389e-01,0.000000000000000000e+00,1.049628540091431389e-01
1.183333333333333348e+00,1.643057170270175219e+09,0.000000000000000000e+00,1.049628540091431389e-01,0.000000000000000000e+00,1.049628540091431389e-01
1.199999999999999956e+00,1.643057170287130594e+09,0.000000000000000000e+00,1.049628540091431389e-01,0.000000000000000000e+00,1.049628540091431389e-01
1.216666666666666563e+00,1.643057170304086447e+09,0.000000000000000000e+00,1.049628540091431389e-01,0.000000000000000000e+00,1.049628540091431389e-01
1.233333333333333393e+00,1.643057170321039915e+09,0.000000000000000000e+00,1.049628540091431389e-01,0.000000000000000000e+00,1.049628540091431389e-01
1.250000000000000000e+00,1.643057170339988470e+09,0.000000000000000000e+00,1.049628540091431389e-01,0.000000000000000000e+00,1.049628540091431389e-01
1.266666666666666607e+00,1.643057170356943607e+09,0.000000000000000000e+00,1.049628540091431389e-01,0.000000000000000000e+00,1.049628540091431389e-01
1.283333333333333215e+00,1.643057170371930599e+09,0.000000000000000000e+00,1.129752856128943689e-01,0.000000000000000000e+00,1.129752856128943689e-01
1.300000000000000044e+00,1.643057170389855623e+09,0.000000000000000000e+00,1.129752856128943689e-01,0.000000000000000000e+00,1.129752856128943689e-01
1.316666666666666652e+00,1.643057170406809807e+09,0.000000000000000000e+00,1.049628540091431389e-01,0.000000000000000000e+00,1.049628540091431389e-01
1.333333333333333259e+00,1.643057170423789263e+09,0.000000000000000000e+00,1.049628540091431389e-01,0.000000000000000000e+00,1.049628540091431389e-01
1.350000000000000089e+00,1.643057170439767122e+09,0.000000000000000000e+00,1.049628540091431389e-01,0.000000000000000000e+00,1.049628540091431389e-01
1.366666666666666696e+00,1.643057170459012747e+09,0.000000000000000000e+00,1.049628540091431389e-01,0.000000000000000000e+00,1.049628540091431389e-01
1.383333333333333304e+00,1.643057170475485563e+09,0.000000000000000000e+00,1.049628540091431389e-01,0.000000000000000000e+00,1.049628540091431389e-01
1.399999999999999911e+00,1.643057170492438078e+09,0.000000000000000000e+00,1.049628540091431389e-01,0.000000000000000000e+00,1.049628540091431389e-01
1.416666666666666741e+00,1.643057170510364532e+09,0.000000000000000000e+00,1.049628540091431389e-01,0.000000000000000000e+00,1.049628540091431389e-01
1.433333333333333348e+00,1.643057170527352095e+09,0.000000000000000000e+00,1.049628540091431389e-01,0.000000000000000000e+00,1.049628540091431389e-01
1.449999999999999956e+00,1.643057170544306755e+09,0.000000000000000000e+00,1.129752856128943689e-01,0.000000000000000000e+00,1.129752856128943689e-01
1.466666666666666563e+00,1.643057170561256409e+09,0.000000000000000000e+00,1.049628540091431389e-01,0.000000000000000000e+00,1.049628540091431389e-01
1.483333333333333393e+00,1.643057170579208374e+09,0.000000000000000000e+00,1.049628540091431389e-01,0.000000000000000000e+00,1.049628540091431389e-01
1.500000000000000000e+00,1.643057170594165564e+09,0.000000000000000000e+00,1.049628540091431389e-01,0.000000000000000000e+00,1.049628540091431389e-01
1.516666666666666607e+00,1.643057170611122847e+09,0.000000000000000000e+00,1.049628540091431389e-01,0.000000000000000000e+00,1.049628540091431389e-01
1.533333333333333215e+00,1.643057170627732754e+09,0.000000000000000000e+00,1.049628540091431389e-01,0.000000000000000000e+00,1.049628540091431389e-01
1.550000000000000044e+00,1.643057170645955324e+09,0.000000000000000000e+00,1.049628540091431389e-01,0.000000000000000000e+00,1.049628540091431389e-01
1.566666666666666652e+00,1.643057170660634518e+09,0.000000000000000000e+00,1.049628540091431389e-01,0.000000000000000000e+00,1.049628540091431389e-01
1.583333333333333259e+00,1.643057170678621054e+09,0.000000000000000000e+00,1.049628540091431389e-01,0.000000000000000000e+00,1.049628540091431389e-01
1.600000000000000089e+00,1.643057170696568012e+09,0.000000000000000000e+00,1.049628540091431389e-01,0.000000000000000000e+00,1.049628540091431389e-01
1.616666666666666696e+00,1.643057170712973118e+09,0.000000000000000000e+00,1.049628540091431389e-01,0.000000000000000000e+00,1.049628540091431389e-01
1.633333333333333304e+00,1.643057170729955196e+09,0.000000000000000000e+00,1.049628540091431389e-01,0.000000000000000000e+00,1.049628540091431389e-01
1.649999999999999911e+00,1.643057170745911121e+09,0.000000000000000000e+00,1.049628540091431389e-01,0.000000000000000000e+00,1.049628540091431389e-01
1.666666666666666741e+00,1.643057170763470650e+09,0.000000000000000000e+00,1.049628540091431389e-01,0.000000000000000000e+00,1.049628540091431389e-01
1.683333333333333348e+00,1.643057170780938387e+09,0.000000000000000000e+00,1.049628540091431389e-01,0.000000000000000000e+00,1.049628540091431389e-01
1.699999999999999956e+00,1.643057170799240828e+09,0.000000000000000000e+00,1.049628540091431389e-01,0.000000000000000000e+00,1.049628540091431389e-01
1.716666666666666563e+00,1.643057170815197706e+09,0.000000000000000000e+00,1.049628540091431389e-01,0.000000000000000000e+00,1.049628540091431389e-01
1.733333333333333393e+00,1.643057170832152367e+09,0.000000000000000000e+00,1.049628540091431389e-01,0.000000000000000000e+00,1.049628540091431389e-01
1.750000000000000000e+00,1.643057170848083019e+09,0.000000000000000000e+00,1.129752856128943689e-01,0.000000000000000000e+00,1.129752856128943689e-01
1.766666666666666607e+00,1.643057170864153862e+09,0.000000000000000000e+00,1.129752856128943689e-01,0.000000000000000000e+00,1.129752856128943689e-01
1.783333333333333215e+00,1.643057170882518291e+09,0.000000000000000000e+00,1.129752856128943689e-01,0.000000000000000000e+00,1.129752856128943689e-01
1.800000000000000044e+00,1.643057170899374008e+09,0.000000000000000000e+00,1.129752856128943689e-01,0.000000000000000000e+00,1.129752856128943689e-01
1.816666666666666652e+00,1.643057170917724133e+09,0.000000000000000000e+00,1.129752856128943689e-01,0.000000000000000000e+00,1.129752856128943689e-01
1.833333333333333259e+00,1.643057170933058977e+09,0.000000000000000000e+00,1.129752856128943689e-01,0.000000000000000000e+00,1.129752856128943689e-01
1.849999999999999867e+00,1.643057170949990273e+09,0.000000000000000000e+00,1.209877172166455850e-01,0.000000000000000000e+00,1.209877172166455850e-01
1.866666666666666696e+00,1.643057170967223167e+09,0.000000000000000000e+00,1.209877172166455850e-01,0.000000000000000000e+00,1.209877172166455850e-01
1.883333333333333304e+00,1.643057170983286381e+09,0.000000000000000000e+00,1.209877172166455850e-01,0.000000000000000000e+00,1.209877172166455850e-01
1.899999999999999911e+00,1.643057170999861956e+09,0.000000000000000000e+00,1.209877172166455850e-01,0.000000000000000000e+00,1.209877172166455850e-01
1.916666666666666741e+00,1.643057171015818834e+09,0.000000000000000000e+00,1.209877172166455850e-01,0.000000000000000000e+00,1.209877172166455850e-01
1.933333333333333348e+00,1.643057171033750534e+09,0.000000000000000000e+00,1.209877172166455850e-01,0.000000000000000000e+00,1.209877172166455850e-01
1.949999999999999956e+00,1.643057171050679445e+09,0.000000000000000000e+00,1.209877172166455850e-01,0.000000000000000000e+00,1.209877172166455850e-01
1.966666666666666563e+00,1.643057171069943428e+09,0.000000000000000000e+00,1.209877172166455850e-01,0.000000000000000000e+00,1.209877172166455850e-01
1.983333333333333393e+00,1.643057171086596489e+09,0.000000000000000000e+00,1.129752856128943689e-01,0.000000000000000000e+00,1.129752856128943689e-01
2.000000000000000000e+00,1.643057171106008768e+09,0.000000000000000000e+00,1.129752856128943689e-01,0.000000000000000000e+00,1.129752856128943689e-01
2.016666666666666607e+00,1.643057171122065067e+09,0.000000000000000000e+00,1.129752856128943689e-01,0.000000000000000000e+00,1.129752856128943689e-01
2.033333333333333215e+00,1.643057171138294220e+09,0.000000000000000000e+00,1.209877172166455850e-01,0.000000000000000000e+00,1.209877172166455850e-01
2.049999999999999822e+00,1.643057171155375957e+09,0.000000000000000000e+00,1.209877172166455850e-01,0.000000000000000000e+00,1.209877172166455850e-01
2.066666666666666430e+00,1.643057171170907736e+09,0.000000000000000000e+00,1.209877172166455850e-01,0.000000000000000000e+00,1.209877172166455850e-01
2.083333333333333481e+00,1.643057171188859463e+09,0.000000000000000000e+00,1.129752856128943689e-01,0.000000000000000000e+00,1.129752856128943689e-01
2.100000000000000089e+00,1.643057171205552340e+09,0.000000000000000000e+00,1.209877172166455850e-01,0.000000000000000000e+00,1.209877172166455850e-01
2.116666666666666696e+00,1.643057171220484495e+09,0.000000000000000000e+00,1.129752856128943689e-01,0.000000000000000000e+00,1.129752856128943689e-01
2.133333333333333304e+00,1.643057171238461971e+09,0.000000000000000000e+00,1.129752856128943689e-01,0.000000000000000000e+00,1.129752856128943689e-01
2.149999999999999911e+00,1.643057171254898787e+09,0.000000000000000000e+00,1.129752856128943689e-01,0.000000000000000000e+00,1.129752856128943689e-01
2.166666666666666519e+00,1.643057171271460533e+09,0.000000000000000000e+00,1.129752856128943689e-01,0.000000000000000000e+00,1.129752856128943689e-01
2.183333333333333126e+00,1.643057171288436651e+09,0.000000000000000000e+00,1.129752856128943689e-01,0.000000000000000000e+00,1.129752856128943689e-01
2.200000000000000178e+00,1.643057171305370569e+09,0.000000000000000000e+00,1.209877172166455850e-01,0.000000000000000000e+00,1.209877172166455850e-01
2.216666666666666785e+00,1.643057171322634697e+09,0.000000000000000000e+00,1.209877172166455850e-01,0.000000000000000000e+00,1.209877172166455850e-01
2.233333333333333393e+00,1.643057171340294361e+09,0.000000000000000000e+00,1.129752856128943689e-01,0.000000000000000000e+00,1.129752856128943689e-01
2.250000000000000000e+00,1.643057171356875181e+09,0.000000000000000000e+00,1.129752856128943689e-01,0.000000000000000000e+00,1.129752856128943689e-01
2.266666666666666607e+00,1.643057171373213291e+09,0.000000000000000000e+00,1.209877172166455850e-01,0.000000000000000000e+00,1.209877172166455850e-01
2.283333333333333215e+00,1.643057171389950275e+09,0.000000000000000000e+00,1.209877172166455850e-01,0.000000000000000000e+00,1.209877172166455850e-01
2.299999999999999822e+00,1.643057171405279398e+09,0.000000000000000000e+00,1.129752856128943689e-01,0.000000000000000000e+00,1.129752856128943689e-01
2.316666666666666430e+00,1.643057171421210289e+09,0.000000000000000000e+00,1.129752856128943689e-01,0.000000000000000000e+00,1.129752856128943689e-01
2.333333333333333481e+00,1.643057171438336611e+09,0.000000000000000000e+00,1.209877172166455850e-01,0.000000000000000000e+00,1.209877172166455850e-01
2.350000000000000089e+00,1.643057171457334518e+09,0.000000000000000000e+00,1.129752856128943689e-01,0.000000000000000000e+00,1.129752856128943689e-01
2.366666666666666696e+00,1.643057171472643614e+09,0.000000000000000000e+00,1.129752856128943689e-01,0.000000000000000000e+00,1.129752856128943689e-01
2.383333333333333304e+00,1.643057171491693497e+09,0.000000000000000000e+00,1.209877172166455850e-01,0.000000000000000000e+00,1.209877172166455850e-01
2.399999999999999911e+00,1.643057171508648157e+09,0.000000000000000000e+00,1.209877172166455850e-01,0.000000000000000000e+00,1.209877172166455850e-01
2.416666666666666519e+00,1.643057171526701212e+09,0.000000000000000000e+00,1.129752856128943689e-01,0.000000000000000000e+00,1.129752856128943689e-01
2.433333333333333126e+00,1.643057171542904139e+09,0.000000000000000000e+00,1.129752856128943689e-01,0.000000000000000000e+00,1.129752856128943689e-01
2.450000000000000178e+00,1.643057171558893204e+09,0.000000000000000000e+00,1.209877172166455850e-01,0.000000000000000000e+00,1.209877172166455850e-01
2.466666666666666785e+00,1.643057171575393200e+09,0.000000000000000000e+00,1.129752856128943689e-01,0.000000000000000000e+00,1.129752856128943689e-01
2.483333333333333393e+00,1.643057171591404438e+09,0.000000000000000000e+00,1.129752856128943689e-01,0.000000000000000000e+00,1.129752856128943689e-01
2.500000000000000000e+00,1.643057171608605623e+09,0.000000000000000000e+00,1.209877172166455850e-01,0.000000000000000000e+00,1.209877172166455850e-01
2.516666666666666607e+00,1.643057171626756907e+09,0.000000000000000000e+00,1.209877172166455850e-01,0.000000000000000000e+00,1.209877172166455850e-01
2.533333333333333215e+00,1.643057171644104719e+09,0.000000000000000000e+00,1.129752856128943689e-01,0.000000000000000000e+00,1.129752856128943689e-01
2.549999999999999822e+00,1.643057171659245491e+09,0.000000000000000000e+00,1.209877172166455850e-01,0.000000000000000000e+00,1.209877172166455850e-01
2.566666666666666430e+00,1.643057171677893639e+09,0.000000000000000000e+00,1.209877172166455850e-01,0.000000000000000000e+00,1.209877172166455850e-01
2.583333333333333481e+00,1.643057171696001291e+09,0.000000000000000000e+00,1.209877172166455850e-01,0.000000000000000000e+00,1.209877172166455850e-01
2.600000000000000089e+00,1.643057171712563038e+09,0.000000000000000000e+00,1.209877172166455850e-01,0.000000000000000000e+00,1.209877172166455850e-01
2.616666666666666696e+00,1.643057171727755308e+09,0.000000000000000000e+00,1.209877172166455850e-01,0.000000000000000000e+00,1.209877172166455850e-01
2.633333333333333304e+00,1.643057171745705605e+09,0.000000000000000000e+00,1.209877172166455850e-01,0.000000000000000000e+00,1.209877172166455850e-01
2.649999999999999911e+00,1.643057171761789083e+09,0.000000000000000000e+00,1.209877172166455850e-01,0.000000000000000000e+00,1.209877172166455850e-01
2.666666666666666519e+00,1.643057171778886795e+09,0.000000000000000000e+00,1.209877172166455850e-01,0.000000000000000000e+00,1.209877172166455850e-01
2.683333333333333126e+00,1.643057171797087908e+09,0.000000000000000000e+00,1.209877172166455850e-01,0.000000000000000000e+00,1.209877172166455850e-01
2.700000000000000178e+00,1.643057171813285828e+09,0.000000000000000000e+00,1.209877172166455850e-01,0.000000000000000000e+00,1.209877172166455850e-01
2.716666666666666785e+00,1.643057171831214428e+09,0.000000000000000000e+00,1.209877172166455850e-01,0.000000000000000000e+00,1.209877172166455850e-01
2.733333333333333393e+00,1.643057171848143101e+09,0.000000000000000000e+00,1.129752856128943689e-01,0.000000000000000000e+00,1.129752856128943689e-01
2.750000000000000000e+00,1.643057171864481926e+09,0.000000000000000000e+00,1.209877172166455850e-01,0.000000000000000000e+00,1.209877172166455850e-01
2.766666666666666607e+00,1.643057171881029367e+09,0.000000000000000000e+00,1.129752856128943689e-01,0.000000000000000000e+00,1.129752856128943689e-01
2.783333333333333215e+00,1.643057171899413109e+09,0.000000000000000000e+00,1.209877172166455850e-01,0.000000000000000000e+00,1.209877172166455850e-01
2.799999999999999822e+00,1.643057171916457415e+09,0.000000000000000000e+00,1.129752856128943689e-01,0.000000000000000000e+00,1.129752856128943689e-01
2.816666666666666430e+00,1.643057171931632757e+09,0.000000000000000000e+00,1.209877172166455850e-01,0.000000000000000000e+00,1.209877172166455850e-01
2.833333333333333481e+00,1.643057171950698137e+09,0.000000000000000000e+00,1.209877172166455850e-01,0.000000000000000000e+00,1.209877172166455850e-01
2.850000000000000089e+00,1.643057171968010426e+09,0.000000000000000000e+00,1.129752856128943689e-01,0.000000000000000000e+00,1.129752856128943689e-01
2.866666666666666696e+00,1.643057171982968807e+09,0.000000000000000000e+00,1.209877172166455850e-01,0.000000000000000000e+00,1.209877172166455850e-01
2.883333333333333304e+00,1.643057171999366760e+09,0.000000000000000000e+00,1.209877172166455850e-01,0.000000000000000000e+00,1.209877172166455850e-01
2.899999999999999911e+00,1.643057172017627478e+09,0.000000000000000000e+00,1.209877172166455850e-01,0.000000000000000000e+00,1.209877172166455850e-01
2.916666666666666519e+00,1.643057172035036325e+09,0.000000000000000000e+00,1.209877172166455850e-01,0.000000000000000000e+00,1.209877172166455850e-01
2.933333333333333126e+00,1.643057172051182032e+09,0.000000000000000000e+00,1.129752856128943689e-01,0.000000000000000000e+00,1.129752856128943689e-01
2.950000000000000178e+00,1.643057172068117619e+09,0.000000000000000000e+00,1.129752856128943689e-01,0.000000000000000000e+00,1.129752856128943689e-01
2.966666666666666785e+00,1.643057172085776329e+09,0.000000000000000000e+00,1.209877172166455850e-01,0.000000000000000000e+00,1.209877172166455850e-01
2.983333333333333393e+00,1.643057172102119923e+09,0.000000000000000000e+00,1.209877172166455850e-01,0.000000000000000000e+00,1.209877172166455850e-01
3.000000000000000000e+00,1.643057172124365807e+09,0.000000000000000000e+00,1.209877172166455850e-01,0.000000000000000000e+00,1.209877172166455850e-01
