# 
# 
# 
# 
# 
# 
# 
# 
# 
# 
# time,realtime,ref,inp,dis,state...
0.000000000000000000e+00,1.643309794272163630e+09,0.000000000000000000e+00,-7.932307287713831478e-02,0.000000000000000000e+00,-8.733550448088985008e-02
1.666666666666666644e-02,1.643309794275155067e+09,0.000000000000000000e+00,-8.733550448088985008e-02,0.000000000000000000e+00,-8.733550448088985008e-02
3.333333333333333287e-02,1.643309794278147221e+09,0.000000000000000000e+00,-8.733550448088985008e-02,0.000000000000000000e+00,-8.733550448088985008e-02
5.000000000000000278e-02,1.643309794294104576e+09,0.000000000000000000e+00,-7.932307287713831478e-02,0.000000000000000000e+00,-7.932307287713831478e-02
6.666666666666666574e-02,1.643309794311090946e+09,0.000000000000000000e+00,-7.932307287713831478e-02,0.000000000000000000e+00,-7.932307287713831478e-02
8.333333333333332871e-02,1.643309794329044819e+09,0.000000000000000000e+00,-7.932307287713831478e-02,0.000000000000000000e+00,-7.932307287713831478e-02
1.000000000000000056e-01,1.643309794345004082e+09,0.000000000000000000e+00,-7.932307287713831478e-02,0.000000000000000000e+00,-7.932307287713831478e-02
1.166666666666666685e-01,1.643309794359928131e+09,0.000000000000000000e+00,-7.131064127338709868e-02,0.000000000000000000e+00,-7.131064127338709868e-02
1.333333333333333315e-01,1.643309794377912760e+09,0.000000000000000000e+00,-5.528577806588434729e-02,0.000000000000000000e+00,-5.528577806588434729e-02
1.499999999999999944e-01,1.643309794395864010e+09,0.000000000000000000e+00,-3.926091485838159589e-02,0.000000000000000000e+00,-3.926091485838159589e-02
1.666666666666666574e-01,1.643309794411789656e+09,0.000000000000000000e+00,-1.522362004712732655e-02,0.000000000000000000e+00,-1.522362004712732655e-02
1.833333333333333204e-01,1.643309794428744316e+09,0.000000000000000000e+00,1.682610636787787092e-02,0.000000000000000000e+00,1.682610636787787092e-02
2.000000000000000111e-01,1.643309794445698977e+09,0.000000000000000000e+00,4.887583278288337024e-02,0.000000000000000000e+00,4.887583278288337024e-02
2.166666666666666741e-01,1.643309794463651180e+09,0.000000000000000000e+00,8.092555919788886609e-02,0.000000000000000000e+00,8.092555919788886609e-02
2.333333333333333370e-01,1.643309794479609251e+09,0.000000000000000000e+00,1.129752856128943689e-01,0.000000000000000000e+00,1.129752856128943689e-01
2.500000000000000000e-01,1.643309794496563435e+09,0.000000000000000000e+00,1.450250120278998578e-01,0.000000000000000000e+00,1.450250120278998578e-01
2.666666666666666630e-01,1.643309794513518333e+09,0.000000000000000000e+00,1.450250120278998578e-01,0.000000000000000000e+00,1.450250120278998578e-01
2.833333333333333259e-01,1.643309794530472517e+09,0.000000000000000000e+00,1.450250120278998578e-01,0.000000000000000000e+00,1.450250120278998578e-01
2.999999999999999889e-01,1.643309794547428608e+09,0.000000000000000000e+00,1.450250120278998578e-01,0.000000000000000000e+00,1.450250120278998578e-01
3.166666666666666519e-01,1.643309794566376925e+09,0.000000000000000000e+00,1.450250120278998578e-01,0.000000000000000000e+00,1.450250120278998578e-01
3.333333333333333148e-01,1.643309794581336498e+09,0.000000000000000000e+00,1.209877172166455850e-01,0.000000000000000000e+00,1.209877172166455850e-01
3.499999999999999778e-01,1.643309794599288940e+09,0.000000000000000000e+00,9.695042240539190892e-02,0.000000000000000000e+00,9.695042240539190892e-02
3.666666666666666408e-01,1.643309794618237257e+09,0.000000000000000000e+00,8.092555919788886609e-02,0.000000000000000000e+00,8.092555919788886609e-02
3.833333333333333037e-01,1.643309794633197546e+09,0.000000000000000000e+00,8.092555919788886609e-02,0.000000000000000000e+00,8.092555919788886609e-02
4.000000000000000222e-01,1.643309794650151968e+09,0.000000000000000000e+00,7.291312759413763611e-02,0.000000000000000000e+00,7.291312759413763611e-02
4.166666666666666852e-01,1.643309794668103695e+09,0.000000000000000000e+00,7.291312759413763611e-02,0.000000000000000000e+00,7.291312759413763611e-02
4.333333333333333481e-01,1.643309794687053204e+09,0.000000000000000000e+00,8.092555919788886609e-02,0.000000000000000000e+00,8.092555919788886609e-02
4.500000000000000111e-01,1.643309794703010559e+09,0.000000000000000000e+00,8.893799080164009607e-02,0.000000000000000000e+00,8.893799080164009607e-02
4.666666666666666741e-01,1.643309794718002319e+09,0.000000000000000000e+00,1.049628540091431389e-01,0.000000000000000000e+00,1.049628540091431389e-01
4.833333333333333370e-01,1.643309794734959602e+09,0.000000000000000000e+00,1.209877172166455850e-01,0.000000000000000000e+00,1.209877172166455850e-01
5.000000000000000000e-01,1.643309794751913548e+09,0.000000000000000000e+00,1.209877172166455850e-01,0.000000000000000000e+00,1.209877172166455850e-01
5.166666666666666075e-01,1.643309794767869473e+09,0.000000000000000000e+00,1.290001488203974256e-01,0.000000000000000000e+00,1.290001488203974256e-01
5.333333333333333259e-01,1.643309794785833120e+09,0.000000000000000000e+00,1.290001488203974256e-01,0.000000000000000000e+00,1.290001488203974256e-01
5.500000000000000444e-01,1.643309794801746130e+09,0.000000000000000000e+00,1.290001488203974256e-01,0.000000000000000000e+00,1.290001488203974256e-01
5.666666666666666519e-01,1.643309794820700645e+09,0.000000000000000000e+00,1.290001488203974256e-01,0.000000000000000000e+00,1.290001488203974256e-01
5.833333333333333703e-01,1.643309794835689306e+09,0.000000000000000000e+00,1.290001488203974256e-01,0.000000000000000000e+00,1.290001488203974256e-01
5.999999999999999778e-01,1.643309794851612806e+09,0.000000000000000000e+00,1.209877172166455850e-01,0.000000000000000000e+00,1.209877172166455850e-01
6.166666666666666963e-01,1.643309794869564772e+09,0.000000000000000000e+00,1.209877172166455850e-01,0.000000000000000000e+00,1.209877172166455850e-01
6.333333333333333037e-01,1.643309794886519194e+09,0.000000000000000000e+00,1.129752856128943689e-01,0.000000000000000000e+00,1.129752856128943689e-01
6.500000000000000222e-01,1.643309794905468702e+09,0.000000000000000000e+00,1.129752856128943689e-01,0.000000000000000000e+00,1.129752856128943689e-01
6.666666666666666297e-01,1.643309794920428991e+09,0.000000000000000000e+00,1.129752856128943689e-01,0.000000000000000000e+00,1.129752856128943689e-01
6.833333333333333481e-01,1.643309794938380957e+09,0.000000000000000000e+00,1.209877172166455850e-01,0.000000000000000000e+00,1.209877172166455850e-01
6.999999999999999556e-01,1.643309794954338312e+09,0.000000000000000000e+00,1.129752856128943689e-01,0.000000000000000000e+00,1.129752856128943689e-01
7.166666666666666741e-01,1.643309794973287582e+09,0.000000000000000000e+00,1.129752856128943689e-01,0.000000000000000000e+00,1.129752856128943689e-01
7.333333333333332815e-01,1.643309794989244461e+09,0.000000000000000000e+00,1.129752856128943689e-01,0.000000000000000000e+00,1.129752856128943689e-01
7.500000000000000000e-01,1.643309795006199598e+09,0.000000000000000000e+00,1.129752856128943689e-01,0.000000000000000000e+00,1.129752856128943689e-01
7.666666666666666075e-01,1.643309795024151325e+09,0.000000000000000000e+00,1.209877172166455850e-01,0.000000000000000000e+00,1.209877172166455850e-01
7.833333333333333259e-01,1.643309795041106224e+09,0.000000000000000000e+00,1.370125804241486278e-01,0.000000000000000000e+00,1.370125804241486278e-01
8.000000000000000444e-01,1.643309795056065798e+09,0.000000000000000000e+00,1.450250120278998578e-01,0.000000000000000000e+00,1.450250120278998578e-01
8.166666666666666519e-01,1.643309795074018002e+09,0.000000000000000000e+00,1.450250120278998578e-01,0.000000000000000000e+00,1.450250120278998578e-01
8.333333333333333703e-01,1.643309795090972185e+09,0.000000000000000000e+00,1.450250120278998578e-01,0.000000000000000000e+00,1.450250120278998578e-01
8.499999999999999778e-01,1.643309795107926846e+09,0.000000000000000000e+00,1.530374436316510878e-01,0.000000000000000000e+00,1.530374436316510878e-01
8.666666666666666963e-01,1.643309795124881983e+09,0.000000000000000000e+00,1.450250120278998578e-01,0.000000000000000000e+00,1.450250120278998578e-01
8.833333333333333037e-01,1.643309795145825863e+09,0.000000000000000000e+00,1.530374436316510878e-01,0.000000000000000000e+00,1.530374436316510878e-01
9.000000000000000222e-01,1.643309795159788609e+09,0.000000000000000000e+00,1.530374436316510878e-01,0.000000000000000000e+00,1.530374436316510878e-01
9.166666666666666297e-01,1.643309795177740574e+09,0.000000000000000000e+00,1.450250120278998578e-01,0.000000000000000000e+00,1.450250120278998578e-01
9.333333333333333481e-01,1.643309795193697453e+09,0.000000000000000000e+00,1.290001488203974256e-01,0.000000000000000000e+00,1.290001488203974256e-01
9.499999999999999556e-01,1.643309795210652590e+09,0.000000000000000000e+00,1.209877172166455850e-01,0.000000000000000000e+00,1.209877172166455850e-01
9.666666666666666741e-01,1.643309795227607012e+09,0.000000000000000000e+00,1.049628540091431389e-01,0.000000000000000000e+00,1.049628540091431389e-01
9.833333333333332815e-01,1.643309795245558739e+09,0.000000000000000000e+00,9.695042240539190892e-02,0.000000000000000000e+00,9.695042240539190892e-02
1.000000000000000000e+00,1.643309795262513399e+09,0.000000000000000000e+00,1.049628540091431389e-01,0.000000000000000000e+00,1.049628540091431389e-01
1.016666666666666607e+00,1.643309795278470993e+09,0.000000000000000000e+00,9.695042240539190892e-02,0.000000000000000000e+00,9.695042240539190892e-02
1.033333333333333215e+00,1.643309795295425653e+09,0.000000000000000000e+00,1.049628540091431389e-01,0.000000000000000000e+00,1.049628540091431389e-01
1.050000000000000044e+00,1.643309795312380075e+09,0.000000000000000000e+00,1.049628540091431389e-01,0.000000000000000000e+00,1.049628540091431389e-01
1.066666666666666652e+00,1.643309795329334974e+09,0.000000000000000000e+00,9.695042240539190892e-02,0.000000000000000000e+00,9.695042240539190892e-02
1.083333333333333259e+00,1.643309795346289635e+09,0.000000000000000000e+00,1.129752856128943689e-01,0.000000000000000000e+00,1.129752856128943689e-01
1.100000000000000089e+00,1.643309795364241600e+09,0.000000000000000000e+00,1.290001488203974256e-01,0.000000000000000000e+00,1.290001488203974256e-01
1.116666666666666696e+00,1.643309795381195784e+09,0.000000000000000000e+00,1.530374436316510878e-01,0.000000000000000000e+00,1.530374436316510878e-01
1.133333333333333304e+00,1.643309795398150682e+09,0.000000000000000000e+00,1.690623068391541306e-01,0.000000000000000000e+00,1.690623068391541306e-01
1.149999999999999911e+00,1.643309795415105104e+09,0.000000000000000000e+00,1.850871700466565906e-01,0.000000000000000000e+00,1.850871700466565906e-01
1.166666666666666741e+00,1.643309795430065632e+09,0.000000000000000000e+00,1.930996016504084034e-01,0.000000000000000000e+00,1.930996016504084034e-01
1.183333333333333348e+00,1.643309795448017120e+09,0.000000000000000000e+00,1.930996016504084034e-01,0.000000000000000000e+00,1.930996016504084034e-01
1.199999999999999956e+00,1.643309795464972496e+09,0.000000000000000000e+00,1.930996016504084034e-01,0.000000000000000000e+00,1.930996016504084034e-01
1.216666666666666563e+00,1.643309795482925415e+09,0.000000000000000000e+00,1.930996016504084034e-01,0.000000000000000000e+00,1.930996016504084034e-01
1.233333333333333393e+00,1.643309795498881102e+09,0.000000000000000000e+00,1.930996016504084034e-01,0.000000000000000000e+00,1.930996016504084034e-01
1.250000000000000000e+00,1.643309795515835762e+09,0.000000000000000000e+00,1.850871700466565906e-01,0.000000000000000000e+00,1.850871700466565906e-01
1.266666666666666607e+00,1.643309795531793118e+09,0.000000000000000000e+00,1.690623068391541306e-01,0.000000000000000000e+00,1.690623068391541306e-01
1.283333333333333215e+00,1.643309795551739931e+09,0.000000000000000000e+00,1.450250120278998578e-01,0.000000000000000000e+00,1.450250120278998578e-01
1.300000000000000044e+00,1.643309795566699505e+09,0.000000000000000000e+00,1.370125804241486278e-01,0.000000000000000000e+00,1.370125804241486278e-01
1.316666666666666652e+00,1.643309795583654404e+09,0.000000000000000000e+00,1.209877172166455850e-01,0.000000000000000000e+00,1.209877172166455850e-01
1.333333333333333259e+00,1.643309795599611282e+09,0.000000000000000000e+00,1.129752856128943689e-01,0.000000000000000000e+00,1.129752856128943689e-01
1.350000000000000089e+00,1.643309795617563963e+09,0.000000000000000000e+00,1.049628540091431389e-01,0.000000000000000000e+00,1.049628540091431389e-01
1.366666666666666696e+00,1.643309795634518623e+09,0.000000000000000000e+00,1.129752856128943689e-01,0.000000000000000000e+00,1.129752856128943689e-01
1.383333333333333304e+00,1.643309795652470589e+09,0.000000000000000000e+00,1.129752856128943689e-01,0.000000000000000000e+00,1.129752856128943689e-01
1.399999999999999911e+00,1.643309795668427944e+09,0.000000000000000000e+00,1.129752856128943689e-01,0.000000000000000000e+00,1.129752856128943689e-01
1.416666666666666741e+00,1.643309795685382843e+09,0.000000000000000000e+00,1.049628540091431389e-01,0.000000000000000000e+00,1.049628540091431389e-01
1.433333333333333348e+00,1.643309795702338219e+09,0.000000000000000000e+00,1.129752856128943689e-01,0.000000000000000000e+00,1.129752856128943689e-01
1.449999999999999956e+00,1.643309795719292402e+09,0.000000000000000000e+00,1.129752856128943689e-01,0.000000000000000000e+00,1.129752856128943689e-01
1.466666666666666563e+00,1.643309795737243414e+09,0.000000000000000000e+00,1.049628540091431389e-01,0.000000000000000000e+00,1.049628540091431389e-01
1.483333333333333393e+00,1.643309795753202915e+09,0.000000000000000000e+00,1.049628540091431389e-01,0.000000000000000000e+00,1.049628540091431389e-01
1.500000000000000000e+00,1.643309795769157410e+09,0.000000000000000000e+00,1.049628540091431389e-01,0.000000000000000000e+00,1.049628540091431389e-01
1.516666666666666607e+00,1.643309795787109613e+09,0.000000000000000000e+00,1.129752856128943689e-01,0.000000000000000000e+00,1.129752856128943689e-01
1.533333333333333215e+00,1.643309795805063248e+09,0.000000000000000000e+00,1.049628540091431389e-01,0.000000000000000000e+00,1.049628540091431389e-01
1.550000000000000044e+00,1.643309795822017193e+09,0.000000000000000000e+00,1.049628540091431389e-01,0.000000000000000000e+00,1.049628540091431389e-01
1.566666666666666652e+00,1.643309795838971615e+09,0.000000000000000000e+00,1.049628540091431389e-01,0.000000000000000000e+00,1.049628540091431389e-01
1.583333333333333259e+00,1.643309795854928493e+09,0.000000000000000000e+00,1.049628540091431389e-01,0.000000000000000000e+00,1.049628540091431389e-01
1.600000000000000089e+00,1.643309795872880936e+09,0.000000000000000000e+00,1.129752856128943689e-01,0.000000000000000000e+00,1.129752856128943689e-01
1.616666666666666696e+00,1.643309795888838291e+09,0.000000000000000000e+00,1.129752856128943689e-01,0.000000000000000000e+00,1.129752856128943689e-01
1.633333333333333304e+00,1.643309795904795170e+09,0.000000000000000000e+00,1.049628540091431389e-01,0.000000000000000000e+00,1.049628540091431389e-01
1.649999999999999911e+00,1.643309795923744202e+09,0.000000000000000000e+00,1.129752856128943689e-01,0.000000000000000000e+00,1.129752856128943689e-01
1.666666666666666741e+00,1.643309795939702272e+09,0.000000000000000000e+00,1.049628540091431389e-01,0.000000000000000000e+00,1.049628540091431389e-01
1.683333333333333348e+00,1.643309795956656933e+09,0.000000000000000000e+00,9.695042240539190892e-02,0.000000000000000000e+00,9.695042240539190892e-02
1.699999999999999956e+00,1.643309795975605726e+09,0.000000000000000000e+00,6.490069599038642001e-02,0.000000000000000000e+00,6.490069599038642001e-02
1.716666666666666563e+00,1.643309795992560625e+09,0.000000000000000000e+00,3.285096957538091722e-02,0.000000000000000000e+00,3.285096957538091722e-02
1.733333333333333393e+00,1.643309796006522894e+09,0.000000000000000000e+00,-1.522362004712732655e-02,0.000000000000000000e+00,-1.522362004712732655e-02
1.750000000000000000e+00,1.643309796025472403e+09,0.000000000000000000e+00,-7.131064127338709868e-02,0.000000000000000000e+00,-7.131064127338709868e-02
1.766666666666666607e+00,1.643309796041429996e+09,0.000000000000000000e+00,-1.033603676883925876e-01,0.000000000000000000e+00,-1.033603676883925876e-01
1.783333333333333215e+00,1.643309796059381485e+09,0.000000000000000000e+00,-1.354100941033981043e-01,0.000000000000000000e+00,-1.354100941033981043e-01
1.800000000000000044e+00,1.643309796075339317e+09,0.000000000000000000e+00,-1.514349573109008418e-01,0.000000000000000000e+00,-1.514349573109008418e-01
1.816666666666666652e+00,1.643309796093291283e+09,0.000000000000000000e+00,-1.674598205184035793e-01,0.000000000000000000e+00,-1.674598205184035793e-01
1.833333333333333259e+00,1.643309796110245943e+09,0.000000000000000000e+00,-1.674598205184035793e-01,0.000000000000000000e+00,-1.674598205184035793e-01
1.849999999999999867e+00,1.643309796125205517e+09,0.000000000000000000e+00,-1.674598205184035793e-01,0.000000000000000000e+00,-1.674598205184035793e-01
1.866666666666666696e+00,1.643309796142160177e+09,0.000000000000000000e+00,-1.674598205184035793e-01,0.000000000000000000e+00,-1.674598205184035793e-01
1.883333333333333304e+00,1.643309796160112381e+09,0.000000000000000000e+00,-1.594473889146520718e-01,0.000000000000000000e+00,-1.594473889146520718e-01
1.899999999999999911e+00,1.643309796177066803e+09,0.000000000000000000e+00,-1.674598205184035793e-01,0.000000000000000000e+00,-1.674598205184035793e-01
1.916666666666666741e+00,1.643309796196016073e+09,0.000000000000000000e+00,-1.514349573109008418e-01,0.000000000000000000e+00,-1.514349573109008418e-01
1.933333333333333348e+00,1.643309796209978819e+09,0.000000000000000000e+00,-1.514349573109008418e-01,0.000000000000000000e+00,-1.514349573109008418e-01
1.949999999999999956e+00,1.643309796228928328e+09,0.000000000000000000e+00,-1.434225257071493065e-01,0.000000000000000000e+00,-1.434225257071493065e-01
1.966666666666666563e+00,1.643309796244885206e+09,0.000000000000000000e+00,-1.434225257071493065e-01,0.000000000000000000e+00,-1.434225257071493065e-01
1.983333333333333393e+00,1.643309796262837410e+09,0.000000000000000000e+00,-1.434225257071493065e-01,0.000000000000000000e+00,-1.434225257071493065e-01
2.000000000000000000e+00,1.643309796284778595e+09,0.000000000000000000e+00,-1.354100941033981043e-01,0.000000000000000000e+00,-1.354100941033981043e-01
2.016666666666666607e+00,1.643309796296746969e+09,0.000000000000000000e+00,-1.354100941033981043e-01,0.000000000000000000e+00,-1.354100941033981043e-01
2.033333333333333215e+00,1.643309796314698696e+09,0.000000000000000000e+00,-1.434225257071493065e-01,0.000000000000000000e+00,-1.434225257071493065e-01
2.049999999999999822e+00,1.643309796331653595e+09,0.000000000000000000e+00,-1.354100941033981043e-01,0.000000000000000000e+00,-1.354100941033981043e-01
2.066666666666666430e+00,1.643309796346613169e+09,0.000000000000000000e+00,-1.434225257071493065e-01,0.000000000000000000e+00,-1.434225257071493065e-01
2.083333333333333481e+00,1.643309796364565134e+09,0.000000000000000000e+00,-1.434225257071493065e-01,0.000000000000000000e+00,-1.434225257071493065e-01
2.100000000000000089e+00,1.643309796382521391e+09,0.000000000000000000e+00,-1.434225257071493065e-01,0.000000000000000000e+00,-1.434225257071493065e-01
2.116666666666666696e+00,1.643309796397477150e+09,0.000000000000000000e+00,-1.434225257071493065e-01,0.000000000000000000e+00,-1.434225257071493065e-01
2.133333333333333304e+00,1.643309796416426897e+09,0.000000000000000000e+00,-1.434225257071493065e-01,0.000000000000000000e+00,-1.434225257071493065e-01
2.149999999999999911e+00,1.643309796434378862e+09,0.000000000000000000e+00,-1.434225257071493065e-01,0.000000000000000000e+00,-1.434225257071493065e-01
2.166666666666666519e+00,1.643309796450336456e+09,0.000000000000000000e+00,-1.434225257071493065e-01,0.000000000000000000e+00,-1.434225257071493065e-01
2.183333333333333126e+00,1.643309796466293097e+09,0.000000000000000000e+00,-1.434225257071493065e-01,0.000000000000000000e+00,-1.434225257071493065e-01
2.200000000000000178e+00,1.643309796482250214e+09,0.000000000000000000e+00,-1.434225257071493065e-01,0.000000000000000000e+00,-1.434225257071493065e-01
2.216666666666666785e+00,1.643309796500202417e+09,0.000000000000000000e+00,-1.434225257071493065e-01,0.000000000000000000e+00,-1.434225257071493065e-01
2.233333333333333393e+00,1.643309796516165972e+09,0.000000000000000000e+00,-1.354100941033981043e-01,0.000000000000000000e+00,-1.354100941033981043e-01
2.250000000000000000e+00,1.643309796536106586e+09,0.000000000000000000e+00,-1.434225257071493065e-01,0.000000000000000000e+00,-1.434225257071493065e-01
2.266666666666666607e+00,1.643309796552063942e+09,0.000000000000000000e+00,-1.354100941033981043e-01,0.000000000000000000e+00,-1.354100941033981043e-01
2.283333333333333215e+00,1.643309796571013212e+09,0.000000000000000000e+00,-1.434225257071493065e-01,0.000000000000000000e+00,-1.434225257071493065e-01
2.299999999999999822e+00,1.643309796586970806e+09,0.000000000000000000e+00,-1.434225257071493065e-01,0.000000000000000000e+00,-1.434225257071493065e-01
2.316666666666666430e+00,1.643309796603924990e+09,0.000000000000000000e+00,-1.434225257071493065e-01,0.000000000000000000e+00,-1.434225257071493065e-01
2.333333333333333481e+00,1.643309796621876717e+09,0.000000000000000000e+00,-1.434225257071493065e-01,0.000000000000000000e+00,-1.434225257071493065e-01
2.350000000000000089e+00,1.643309796639828682e+09,0.000000000000000000e+00,-1.434225257071493065e-01,0.000000000000000000e+00,-1.434225257071493065e-01
2.366666666666666696e+00,1.643309796654789209e+09,0.000000000000000000e+00,-1.674598205184035793e-01,0.000000000000000000e+00,-1.674598205184035793e-01
2.383333333333333304e+00,1.643309796672741175e+09,0.000000000000000000e+00,-2.075219785371603121e-01,0.000000000000000000e+00,-2.075219785371603121e-01
2.399999999999999911e+00,1.643309796688698053e+09,0.000000000000000000e+00,-3.036711577821767927e-01,0.000000000000000000e+00,-3.036711577821767927e-01
2.416666666666666519e+00,1.643309796706650496e+09,0.000000000000000000e+00,-4.238576318384472685e-01,0.000000000000000000e+00,-4.238576318384472685e-01
2.433333333333333126e+00,1.643309796723605394e+09,0.000000000000000000e+00,-5.440441058947177444e-01,0.000000000000000000e+00,-5.440441058947177444e-01
