2023-05-24-10:43:48.098554,5.0,2.0,443.0
2023-05-24-10:43:48.100552,4.0,2.0,443.0
2023-05-24-10:43:48.100552,4.0,2.0,443.0
2023-05-24-10:43:48.101553,5.0,2.0,443.0
2023-05-24-10:43:48.102572,4.0,4.0,443.0
2023-05-24-10:43:48.104554,5.0,4.0,444.0
2023-05-24-10:43:48.105568,3.0,0.0,443.0
2023-05-24-10:43:48.105568,2.0,8.0,444.0
2023-05-24-10:43:48.106553,6.0,6.0,444.0
2023-05-24-10:43:48.107554,4.0,5.0,444.0
2023-05-24-10:43:48.108553,7.0,7.0,444.0
2023-05-24-10:43:48.110553,7.0,7.0,444.0
2023-05-24-10:43:48.111564,8.0,5.0,444.0
2023-05-24-10:43:48.111564,6.0,4.0,444.0
2023-05-24-10:43:48.112552,5.0,3.0,444.0
2023-05-24-10:43:48.113552,5.0,4.0,444.0
2023-05-24-10:43:48.114553,3.0,2.0,444.0
2023-05-24-10:43:48.115552,2.0,2.0,444.0
2023-05-24-10:43:48.116552,2.0,1.0,444.0
2023-05-24-10:43:48.117552,8.0,6.0,444.0
2023-05-24-10:43:48.118553,5.0,7.0,445.0
2023-05-24-10:43:48.119553,6.0,4.0,445.0
2023-05-24-10:43:48.120609,6.0,5.0,445.0
2023-05-24-10:43:48.121588,6.0,6.0,445.0
2023-05-24-10:43:48.122581,3.0,1.0,445.0
2023-05-24-10:43:48.123569,5.0,0.0,445.0
2023-05-24-10:43:48.124589,7.0,3.0,445.0
2023-05-24-10:43:48.125589,9.0,8.0,446.0
2023-05-24-10:43:48.126585,7.0,6.0,446.0
2023-05-24-10:43:48.127579,5.0,0.0,446.0
2023-05-24-10:43:48.128553,5.0,3.0,446.0
2023-05-24-10:43:48.129580,3.0,0.0,446.0
2023-05-24-10:43:48.130552,3.0,2.0,446.0
2023-05-24-10:43:48.131582,6.0,7.0,447.0
2023-05-24-10:43:48.132580,4.0,14.0,447.0
2023-05-24-10:43:48.133580,6.0,6.0,447.0
2023-05-24-10:43:48.134578,2.0,20.0,447.0
2023-05-24-10:43:48.135579,5.0,8.0,447.0
2023-05-24-10:43:48.136553,5.0,6.0,448.0
2023-05-24-10:43:48.137601,4.0,3.0,448.0
2023-05-24-10:43:48.138601,4.0,1.0,448.0
2023-05-24-10:43:48.139601,8.0,14.0,448.0
2023-05-24-10:43:48.140601,7.0,6.0,448.0
2023-05-24-10:43:48.141602,0.0,2.0,448.0
2023-05-24-10:43:48.143580,6.0,0.0,448.0
2023-05-24-10:43:48.144551,6.0,1.0,449.0
2023-05-24-10:43:48.144551,1.0,2.0,448.0
2023-05-24-10:43:48.145582,5.0,2.0,448.0
2023-05-24-10:43:48.146554,6.0,3.0,449.0
2023-05-24-10:43:48.147553,2.0,9.0,449.0
2023-05-24-10:43:48.148584,6.0,1.0,448.0
2023-05-24-10:43:48.149587,3.0,1.0,449.0
2023-05-24-10:43:48.150579,4.0,8.0,449.0
2023-05-24-10:43:48.151555,4.0,9.0,449.0
2023-05-24-10:43:48.152580,7.0,8.0,448.0
2023-05-24-10:43:48.153579,6.0,1.0,448.0
2023-05-24-10:43:48.154579,4.0,0.0,449.0
2023-05-24-10:43:48.155579,5.0,8.0,449.0
2023-05-24-10:43:48.156580,5.0,9.0,448.0
2023-05-24-10:43:48.157579,5.0,0.0,448.0
2023-05-24-10:43:48.158580,3.0,9.0,448.0
2023-05-24-10:43:48.159579,9.0,10.0,448.0
2023-05-24-10:43:48.160581,5.0,5.0,448.0
2023-05-24-10:43:48.161588,4.0,3.0,448.0
2023-05-24-10:43:48.162578,0.0,2.0,448.0
2023-05-24-10:43:48.163580,8.0,5.0,448.0
2023-05-24-10:43:48.164578,6.0,4.0,448.0
2023-05-24-10:43:48.165586,2.0,1.0,448.0
2023-05-24-10:43:48.166578,3.0,4.0,448.0
2023-05-24-10:43:48.167580,3.0,8.0,448.0
2023-05-24-10:43:48.168578,4.0,6.0,448.0
2023-05-24-10:43:48.169601,4.0,7.0,448.0
2023-05-24-10:43:48.170601,8.0,5.0,448.0
2023-05-24-10:43:48.171602,4.0,10.0,448.0
2023-05-24-10:43:48.172601,8.0,8.0,448.0
2023-05-24-10:43:48.173601,5.0,4.0,448.0
2023-05-24-10:43:48.174607,5.0,5.0,448.0
2023-05-24-10:43:48.176577,4.0,1.0,448.0
2023-05-24-10:43:48.177554,5.0,5.0,448.0
2023-05-24-10:43:48.177554,6.0,15.0,448.0
2023-05-24-10:43:48.178554,2.0,3.0,448.0
2023-05-24-10:43:48.179581,4.0,13.0,449.0
2023-05-24-10:43:48.180602,4.0,2.0,448.0
2023-05-24-10:43:48.181601,8.0,6.0,449.0
2023-05-24-10:43:48.182602,1.0,6.0,448.0
2023-05-24-10:43:48.183605,5.0,3.0,448.0
2023-05-24-10:43:48.184602,6.0,4.0,449.0
2023-05-24-10:43:48.185602,9.0,7.0,449.0
2023-05-24-10:43:48.186601,7.0,1.0,449.0
2023-05-24-10:43:48.187601,9.0,7.0,449.0
2023-05-24-10:43:48.188601,2.0,4.0,449.0
2023-05-24-10:43:48.189601,3.0,11.0,449.0
2023-05-24-10:43:48.190601,4.0,3.0,449.0
2023-05-24-10:43:48.191605,5.0,2.0,449.0
2023-05-24-10:43:48.192600,5.0,4.0,449.0
2023-05-24-10:43:48.193601,5.0,7.0,449.0
2023-05-24-10:43:48.194601,3.0,6.0,449.0
2023-05-24-10:43:48.195553,5.0,9.0,449.0
2023-05-24-10:43:48.196602,1.0,5.0,449.0
2023-05-24-10:43:48.197601,4.0,6.0,449.0
2023-05-24-10:43:48.198601,4.0,6.0,449.0
2023-05-24-10:43:48.199601,4.0,6.0,449.0
2023-05-24-10:43:48.200599,2.0,9.0,449.0
2023-05-24-10:43:48.201599,2.0,9.0,449.0
2023-05-24-10:43:48.202598,2.0,9.0,449.0
2023-05-24-10:43:48.203599,2.0,9.0,449.0
2023-05-24-10:43:48.204599,5.0,5.0,448.0
2023-05-24-10:43:48.205602,8.0,10.0,448.0
2023-05-24-10:43:48.206598,8.0,10.0,448.0
2023-05-24-10:43:48.207605,8.0,10.0,448.0
2023-05-24-10:43:48.209578,4.0,8.0,449.0
2023-05-24-10:43:48.210577,2.0,1.0,449.0
2023-05-24-10:43:48.210577,2.0,1.0,449.0
2023-05-24-10:43:48.211602,2.0,1.0,449.0
2023-05-24-10:43:48.212587,5.0,4.0,449.0
2023-05-24-10:43:48.213580,5.0,3.0,449.0
2023-05-24-10:43:48.214578,5.0,3.0,449.0
2023-05-24-10:43:48.215580,5.0,3.0,449.0
2023-05-24-10:43:48.216579,5.0,3.0,449.0
2023-05-24-10:43:48.217579,8.0,6.0,449.0
2023-05-24-10:43:48.218578,4.0,3.0,449.0
2023-05-24-10:43:48.219584,4.0,3.0,449.0
2023-05-24-10:43:48.220585,6.0,4.0,449.0
2023-05-24-10:43:48.221579,6.0,4.0,449.0
2023-05-24-10:43:48.222581,3.0,10.0,448.0
2023-05-24-10:43:48.223553,3.0,10.0,448.0
2023-05-24-10:43:48.224586,6.0,9.0,449.0
2023-05-24-10:43:48.225578,7.0,10.0,449.0
2023-05-24-10:43:48.226578,7.0,10.0,449.0
2023-05-24-10:43:48.227552,5.0,4.0,449.0
2023-05-24-10:43:48.228556,5.0,4.0,449.0
2023-05-24-10:43:48.229581,2.0,1.0,449.0
2023-05-24-10:43:48.230579,2.0,0.0,449.0
2023-05-24-10:43:48.231580,5.0,0.0,449.0
2023-05-24-10:43:48.232584,5.0,1.0,449.0
2023-05-24-10:43:48.233578,9.0,17.0,449.0
2023-05-24-10:43:48.234583,9.0,17.0,449.0
2023-05-24-10:43:48.235578,9.0,17.0,449.0
2023-05-24-10:43:48.236578,9.0,17.0,449.0
2023-05-24-10:43:48.237578,2.0,0.0,449.0
2023-05-24-10:43:48.238580,7.0,3.0,449.0
2023-05-24-10:43:48.239578,7.0,3.0,449.0
2023-05-24-10:43:48.240581,7.0,3.0,449.0
2023-05-24-10:43:48.241578,10.0,2.0,449.0
2023-05-24-10:43:48.242580,0.0,6.0,449.0
2023-05-24-10:43:48.243582,0.0,6.0,449.0
2023-05-24-10:43:48.244578,5.0,4.0,449.0
2023-05-24-10:43:48.246578,7.0,2.0,449.0
2023-05-24-10:43:48.246578,2.0,1.0,449.0
2023-05-24-10:43:48.247580,1.0,3.0,449.0
2023-05-24-10:43:48.248555,1.0,3.0,449.0
2023-05-24-10:43:48.249598,5.0,9.0,449.0
2023-05-24-10:43:48.250598,3.0,9.0,449.0
2023-05-24-10:43:48.251598,3.0,9.0,449.0
2023-05-24-10:43:48.252603,3.0,9.0,449.0
2023-05-24-10:43:48.253600,6.0,9.0,449.0
2023-05-24-10:43:48.254598,3.0,7.0,449.0
2023-05-24-10:43:48.255600,4.0,8.0,449.0
2023-05-24-10:43:48.256599,4.0,8.0,449.0
2023-05-24-10:43:48.257598,3.0,8.0,449.0
2023-05-24-10:43:48.258600,3.0,7.0,449.0
2023-05-24-10:43:48.259601,6.0,8.0,449.0
2023-05-24-10:43:48.260598,6.0,8.0,449.0
2023-05-24-10:43:48.261599,6.0,0.0,449.0
2023-05-24-10:43:48.262553,4.0,2.0,449.0
2023-05-24-10:43:48.263580,2.0,6.0,449.0
2023-05-24-10:43:48.264578,4.0,4.0,449.0
2023-05-24-10:43:48.265578,5.0,1.0,449.0
2023-05-24-10:43:48.266578,6.0,4.0,449.0
2023-05-24-10:43:48.267600,7.0,4.0,449.0
2023-05-24-10:43:48.268553,7.0,4.0,449.0
2023-05-24-10:43:48.269600,6.0,6.0,449.0
2023-05-24-10:43:48.270599,6.0,10.0,449.0
2023-05-24-10:43:48.271600,4.0,6.0,449.0
2023-05-24-10:43:48.272597,4.0,6.0,449.0
2023-05-24-10:43:48.273599,4.0,10.0,448.0
2023-05-24-10:43:48.274598,5.0,2.0,449.0
2023-05-24-10:43:48.275602,6.0,4.0,449.0
2023-05-24-10:43:48.276597,6.0,4.0,449.0
2023-05-24-10:43:48.278577,5.0,12.0,449.0
2023-05-24-10:43:48.278577,6.0,5.0,449.0
2023-05-24-10:43:48.279597,6.0,5.0,449.0
2023-05-24-10:43:48.280597,6.0,5.0,449.0
2023-05-24-10:43:48.281598,4.0,4.0,449.0
2023-05-24-10:43:48.282598,3.0,15.0,449.0
2023-05-24-10:43:48.283598,3.0,15.0,449.0
2023-05-24-10:43:48.284597,3.0,15.0,449.0
2023-05-24-10:43:48.285601,3.0,15.0,449.0
2023-05-24-10:43:48.286597,4.0,19.0,449.0
2023-05-24-10:43:48.287600,8.0,28.0,449.0
2023-05-24-10:43:48.288598,7.0,23.0,449.0
2023-05-24-10:43:48.289597,7.0,23.0,449.0
2023-05-24-10:43:48.290599,8.0,11.0,449.0
2023-05-24-10:43:48.291601,4.0,3.0,449.0
2023-05-24-10:43:48.292598,4.0,3.0,449.0
2023-05-24-10:43:48.293606,4.0,3.0,449.0
2023-05-24-10:43:48.294602,4.0,2.0,449.0
2023-05-24-10:43:48.295581,3.0,3.0,449.0
2023-05-24-10:43:48.296578,4.0,5.0,449.0
2023-05-24-10:43:48.297598,4.0,5.0,449.0
2023-05-24-10:43:48.298599,6.0,3.0,449.0
2023-05-24-10:43:48.299599,4.0,6.0,449.0
2023-05-24-10:43:48.300601,8.0,4.0,449.0
2023-05-24-10:43:48.301600,8.0,4.0,449.0
2023-05-24-10:43:48.302600,5.0,4.0,449.0
2023-05-24-10:43:48.303605,7.0,8.0,449.0
2023-05-24-10:43:48.304600,3.0,2.0,449.0
2023-05-24-10:43:48.305552,3.0,2.0,449.0
2023-05-24-10:43:48.306600,3.0,10.0,449.0
2023-05-24-10:43:48.307602,5.0,11.0,449.0
2023-05-24-10:43:48.308600,1.0,6.0,449.0
2023-05-24-10:43:48.309553,1.0,6.0,449.0
2023-05-24-10:43:48.310602,3.0,3.0,449.0
2023-05-24-10:43:48.311599,4.0,2.0,449.0
2023-05-24-10:43:48.312602,4.0,2.0,449.0
2023-05-24-10:43:48.314578,7.0,6.0,449.0
2023-05-24-10:43:48.314578,8.0,1.0,449.0
2023-05-24-10:43:48.315600,8.0,1.0,449.0
2023-05-24-10:43:48.316599,8.0,1.0,449.0
2023-05-24-10:43:48.317600,8.0,1.0,449.0
2023-05-24-10:43:48.318599,6.0,8.0,449.0
2023-05-24-10:43:48.319600,8.0,10.0,449.0
2023-05-24-10:43:48.320600,5.0,8.0,449.0
2023-05-24-10:43:48.321599,5.0,8.0,449.0
2023-05-24-10:43:48.322600,5.0,8.0,449.0
2023-05-24-10:43:48.323602,2.0,15.0,449.0
2023-05-24-10:43:48.324599,5.0,18.0,449.0
2023-05-24-10:43:48.325599,5.0,18.0,449.0
2023-05-24-10:43:48.326602,5.0,18.0,449.0
2023-05-24-10:43:48.327551,7.0,4.0,449.0
2023-05-24-10:43:48.328590,6.0,3.0,449.0
2023-05-24-10:43:48.329609,6.0,3.0,449.0
2023-05-24-10:43:48.330609,6.0,3.0,449.0
2023-05-24-10:43:48.331609,5.0,12.0,449.0
2023-05-24-10:43:48.332609,5.0,12.0,449.0
2023-05-24-10:43:48.333609,5.0,12.0,449.0
2023-05-24-10:43:48.334609,5.0,12.0,449.0
2023-05-24-10:43:48.335609,4.0,10.0,449.0
2023-05-24-10:43:48.336608,4.0,6.0,449.0
2023-05-24-10:43:48.337609,5.0,5.0,449.0
2023-05-24-10:43:48.338609,5.0,5.0,449.0
2023-05-24-10:43:48.339612,6.0,7.0,449.0
2023-05-24-10:43:48.340612,4.0,5.0,449.0
2023-05-24-10:43:48.341609,6.0,8.0,449.0
2023-05-24-10:43:48.342611,6.0,8.0,449.0
2023-05-24-10:43:48.343595,5.0,11.0,449.0
2023-05-24-10:43:48.344555,3.0,10.0,449.0
2023-05-24-10:43:48.345570,1.0,8.0,449.0
2023-05-24-10:43:48.346589,1.0,8.0,449.0
2023-05-24-10:43:48.347587,2.0,6.0,449.0
2023-05-24-10:43:48.348554,5.0,1.0,449.0
2023-05-24-10:43:48.350553,5.0,1.0,449.0
2023-05-24-10:43:48.350553,5.0,1.0,449.0
2023-05-24-10:43:48.351609,8.0,1.0,449.0
2023-05-24-10:43:48.352590,5.0,2.0,449.0
2023-05-24-10:43:48.353609,1.0,2.0,449.0
2023-05-24-10:43:48.354553,1.0,2.0,449.0
2023-05-24-10:43:48.355612,3.0,5.0,449.0
2023-05-24-10:43:48.356609,6.0,11.0,449.0
2023-05-24-10:43:48.357609,7.0,9.0,448.0
2023-05-24-10:43:48.358607,7.0,9.0,448.0
2023-05-24-10:43:48.359609,0.0,4.0,449.0
2023-05-24-10:43:48.360612,5.0,1.0,449.0
2023-05-24-10:43:48.361609,5.0,1.0,449.0
2023-05-24-10:43:48.362610,5.0,1.0,449.0
2023-05-24-10:43:48.363609,6.0,2.0,449.0
2023-05-24-10:43:48.364609,3.0,4.0,449.0
2023-05-24-10:43:48.365609,3.0,4.0,449.0
2023-05-24-10:43:48.366599,3.0,4.0,449.0
2023-05-24-10:43:48.367609,3.0,4.0,449.0
2023-05-24-10:43:48.368612,3.0,2.0,449.0
2023-05-24-10:43:48.369609,9.0,11.0,449.0
2023-05-24-10:43:48.370609,9.0,11.0,449.0
2023-05-24-10:43:48.371611,9.0,11.0,449.0
2023-05-24-10:43:48.372588,4.0,4.0,449.0
2023-05-24-10:43:48.373609,3.0,1.0,449.0
2023-05-24-10:43:48.374611,3.0,1.0,449.0
2023-05-24-10:43:48.375608,3.0,1.0,449.0
2023-05-24-10:43:48.376608,1.0,0.0,449.0
2023-05-24-10:43:48.377608,8.0,11.0,449.0
2023-05-24-10:43:48.378588,5.0,13.0,449.0
2023-05-24-10:43:48.379599,5.0,13.0,449.0
2023-05-24-10:43:48.380610,4.0,8.0,449.0
2023-05-24-10:43:48.382590,7.0,4.0,449.0
2023-05-24-10:43:48.382590,7.0,4.0,449.0
2023-05-24-10:43:48.383609,7.0,4.0,449.0
2023-05-24-10:43:48.384610,6.0,1.0,449.0
2023-05-24-10:43:48.385589,4.0,0.0,449.0
2023-05-24-10:43:48.386609,4.0,0.0,449.0
2023-05-24-10:43:48.387612,4.0,0.0,449.0
2023-05-24-10:43:48.388609,4.0,5.0,449.0
2023-05-24-10:43:48.389609,7.0,5.0,449.0
2023-05-24-10:43:48.390611,5.0,1.0,449.0
2023-05-24-10:43:48.391553,5.0,1.0,449.0
2023-05-24-10:43:48.392611,5.0,0.0,449.0
2023-05-24-10:43:48.393609,4.0,2.0,449.0
2023-05-24-10:43:48.394610,1.0,5.0,449.0
2023-05-24-10:43:48.395553,1.0,5.0,449.0
2023-05-24-10:43:48.396609,1.0,2.0,449.0
2023-05-24-10:43:48.397609,1.0,2.0,449.0
2023-05-24-10:43:48.398609,1.0,4.0,449.0
2023-05-24-10:43:48.399580,6.0,5.0,449.0
2023-05-24-10:43:48.400609,7.0,3.0,449.0
2023-05-24-10:43:48.401609,2.0,5.0,449.0
2023-05-24-10:43:48.402609,4.0,3.0,449.0
2023-05-24-10:43:48.403612,4.0,3.0,449.0
2023-05-24-10:43:48.404610,7.0,1.0,449.0
2023-05-24-10:43:48.405609,6.0,5.0,449.0
2023-05-24-10:43:48.406611,3.0,2.0,449.0
2023-05-24-10:43:48.407609,3.0,2.0,449.0
2023-05-24-10:43:48.408617,3.0,2.0,449.0
2023-05-24-10:43:48.409609,2.0,1.0,449.0
2023-05-24-10:43:48.410609,1.0,2.0,449.0
2023-05-24-10:43:48.411608,1.0,2.0,449.0
2023-05-24-10:43:48.412609,1.0,2.0,449.0
2023-05-24-10:43:48.413609,3.0,11.0,449.0
2023-05-24-10:43:48.414609,3.0,11.0,449.0
2023-05-24-10:43:48.416590,7.0,10.0,450.0
2023-05-24-10:43:48.416590,4.0,7.0,449.0
2023-05-24-10:43:48.417609,4.0,1.0,449.0
2023-05-24-10:43:48.418588,4.0,1.0,449.0
2023-05-24-10:43:48.419609,4.0,1.0,449.0
2023-05-24-10:43:48.420609,4.0,1.0,449.0
2023-05-24-10:43:48.421609,4.0,1.0,449.0
2023-05-24-10:43:48.422611,4.0,3.0,449.0
2023-05-24-10:43:48.423609,5.0,9.0,449.0
2023-05-24-10:43:48.424611,5.0,9.0,449.0
2023-05-24-10:43:48.425609,4.0,1.0,449.0
2023-05-24-10:43:48.426609,5.0,12.0,449.0
2023-05-24-10:43:48.427609,6.0,16.0,449.0
2023-05-24-10:43:48.428589,6.0,16.0,449.0
2023-05-24-10:43:48.429609,2.0,8.0,449.0
2023-05-24-10:43:48.430609,1.0,7.0,449.0
2023-05-24-10:43:48.431609,1.0,2.0,449.0
2023-05-24-10:43:48.432609,1.0,2.0,449.0
2023-05-24-10:43:48.433578,7.0,2.0,449.0
2023-05-24-10:43:48.434609,2.0,12.0,449.0
2023-05-24-10:43:48.435611,2.0,12.0,449.0
2023-05-24-10:43:48.436553,2.0,12.0,449.0
2023-05-24-10:43:48.437609,4.0,4.0,449.0
2023-05-24-10:43:48.438611,3.0,4.0,449.0
2023-05-24-10:43:48.439588,5.0,3.0,449.0
2023-05-24-10:43:48.440553,5.0,3.0,449.0
2023-05-24-10:43:48.441589,4.0,4.0,449.0
2023-05-24-10:43:48.442592,7.0,5.0,449.0
2023-05-24-10:43:48.443588,3.0,5.0,449.0
2023-05-24-10:43:48.444589,3.0,5.0,449.0
2023-05-24-10:43:48.445592,4.0,10.0,449.0
2023-05-24-10:43:48.446589,4.0,12.0,449.0
2023-05-24-10:43:48.447588,1.0,2.0,449.0
2023-05-24-10:43:48.448590,1.0,2.0,449.0
2023-05-24-10:43:48.449589,2.0,4.0,449.0
2023-05-24-10:43:48.451591,6.0,4.0,449.0
2023-05-24-10:43:48.451591,6.0,4.0,449.0
2023-05-24-10:43:48.452609,6.0,4.0,449.0
2023-05-24-10:43:48.453609,6.0,4.0,449.0
2023-05-24-10:43:48.454611,7.0,8.0,449.0
2023-05-24-10:43:48.455609,5.0,8.0,449.0
2023-05-24-10:43:48.456611,5.0,8.0,449.0
2023-05-24-10:43:48.457609,5.0,8.0,449.0
2023-05-24-10:43:48.458609,4.0,8.0,449.0
2023-05-24-10:43:48.459609,4.0,8.0,449.0
2023-05-24-10:43:48.460610,3.0,1.0,449.0
2023-05-24-10:43:48.461608,3.0,1.0,449.0
2023-05-24-10:43:48.462610,4.0,1.0,449.0
2023-05-24-10:43:48.463614,2.0,3.0,449.0
2023-05-24-10:43:48.464609,2.0,3.0,449.0
2023-05-24-10:43:48.465609,2.0,3.0,449.0
2023-05-24-10:43:48.466609,3.0,1.0,449.0
2023-05-24-10:43:48.467612,6.0,1.0,449.0
2023-05-24-10:43:48.468609,6.0,3.0,449.0
2023-05-24-10:43:48.469609,6.0,3.0,449.0
2023-05-24-10:43:48.470611,6.0,4.0,449.0
2023-05-24-10:43:48.471592,6.0,5.0,449.0
2023-05-24-10:43:48.472588,6.0,1.0,449.0
2023-05-24-10:43:48.473609,6.0,1.0,449.0
2023-05-24-10:43:48.474609,4.0,2.0,449.0
2023-05-24-10:43:48.475609,4.0,10.0,449.0
2023-05-24-10:43:48.476610,1.0,10.0,449.0
2023-05-24-10:43:48.477553,1.0,10.0,449.0
2023-05-24-10:43:48.478588,4.0,9.0,449.0
2023-05-24-10:43:48.479588,4.0,11.0,449.0
2023-05-24-10:43:48.480610,4.0,11.0,449.0
2023-05-24-10:43:48.481553,4.0,11.0,449.0
2023-05-24-10:43:48.482614,4.0,5.0,449.0
2023-05-24-10:43:48.484588,3.0,2.0,449.0
2023-05-24-10:43:48.484588,2.0,2.0,449.0
2023-05-24-10:43:48.485608,2.0,2.0,449.0
2023-05-24-10:43:48.486611,10.0,2.0,449.0
2023-05-24-10:43:48.487610,5.0,4.0,449.0
2023-05-24-10:43:48.488617,5.0,4.0,449.0
2023-05-24-10:43:48.489609,5.0,4.0,449.0
2023-05-24-10:43:48.490609,5.0,4.0,449.0
2023-05-24-10:43:48.491615,4.0,6.0,449.0
2023-05-24-10:43:48.492610,5.0,1.0,449.0
2023-05-24-10:43:48.493609,5.0,1.0,449.0
2023-05-24-10:43:48.494609,6.0,5.0,450.0
2023-05-24-10:43:48.495609,5.0,7.0,449.0
2023-05-24-10:43:48.496609,4.0,10.0,449.0
2023-05-24-10:43:48.497609,4.0,10.0,449.0
2023-05-24-10:43:48.498609,4.0,10.0,449.0
2023-05-24-10:43:48.499553,5.0,1.0,449.0
2023-05-24-10:43:48.500610,3.0,0.0,449.0
2023-05-24-10:43:48.501610,3.0,0.0,449.0
2023-05-24-10:43:48.502589,3.0,0.0,449.0
2023-05-24-10:43:48.503594,0.0,2.0,449.0
2023-05-24-10:43:48.504588,3.0,6.0,449.0
2023-05-24-10:43:48.505589,3.0,6.0,449.0
2023-05-24-10:43:48.506588,3.0,6.0,449.0
2023-05-24-10:43:48.507588,5.0,5.0,449.0
2023-05-24-10:43:48.508593,3.0,12.0,449.0
2023-05-24-10:43:48.509588,4.0,10.0,449.0
2023-05-24-10:43:48.510589,4.0,10.0,449.0
2023-05-24-10:43:48.511591,3.0,9.0,449.0
2023-05-24-10:43:48.512590,6.0,9.0,449.0
2023-05-24-10:43:48.513588,6.0,0.0,449.0
2023-05-24-10:43:48.514588,6.0,0.0,449.0
2023-05-24-10:43:48.515591,2.0,3.0,449.0
2023-05-24-10:43:48.516553,7.0,0.0,449.0
2023-05-24-10:43:48.518553,11.0,4.0,449.0
2023-05-24-10:43:48.518553,4.0,3.0,449.0
2023-05-24-10:43:48.519554,5.0,5.0,449.0
2023-05-24-10:43:48.520611,7.0,6.0,449.0
2023-05-24-10:43:48.521588,7.0,6.0,449.0
2023-05-24-10:43:48.522553,7.0,6.0,449.0
2023-05-24-10:43:48.523610,4.0,2.0,449.0
2023-05-24-10:43:48.524610,6.0,1.0,449.0
2023-05-24-10:43:48.525615,4.0,2.0,449.0
2023-05-24-10:43:48.526579,4.0,2.0,449.0
2023-05-24-10:43:48.527614,6.0,1.0,449.0
2023-05-24-10:43:48.528616,3.0,4.0,449.0
2023-05-24-10:43:48.529632,3.0,6.0,449.0
2023-05-24-10:43:48.530612,3.0,6.0,449.0
2023-05-24-10:43:48.531613,4.0,16.0,449.0
2023-05-24-10:43:48.532609,3.0,10.0,449.0
2023-05-24-10:43:48.533610,8.0,9.0,449.0
2023-05-24-10:43:48.534611,8.0,9.0,449.0
2023-05-24-10:43:48.536553,7.0,13.0,449.0
2023-05-24-10:43:48.536553,5.0,1.0,449.0
2023-05-24-10:43:48.537610,6.0,2.0,449.0
2023-05-24-10:43:48.538611,6.0,2.0,449.0
2023-05-24-10:43:48.539593,6.0,2.0,449.0
2023-05-24-10:43:48.540610,4.0,5.0,449.0
2023-05-24-10:43:48.541610,5.0,2.0,449.0
2023-05-24-10:43:48.542611,5.0,2.0,449.0
2023-05-24-10:43:48.543614,5.0,2.0,449.0
2023-05-24-10:43:48.544612,6.0,4.0,449.0
2023-05-24-10:43:48.545615,8.0,2.0,449.0
2023-05-24-10:43:48.546610,2.0,1.0,449.0
2023-05-24-10:43:48.547613,2.0,1.0,449.0
2023-05-24-10:43:48.548612,7.0,7.0,449.0
2023-05-24-10:43:48.549610,4.0,6.0,449.0
2023-05-24-10:43:48.550611,3.0,2.0,449.0
2023-05-24-10:43:48.552588,3.0,2.0,449.0
2023-05-24-10:43:48.552588,5.0,6.0,449.0
2023-05-24-10:43:48.553610,7.0,2.0,449.0
2023-05-24-10:43:48.554610,4.0,5.0,449.0
2023-05-24-10:43:48.555612,4.0,5.0,449.0
2023-05-24-10:43:48.556610,5.0,6.0,449.0
2023-05-24-10:43:48.557591,3.0,8.0,449.0
2023-05-24-10:43:48.558610,3.0,8.0,449.0
2023-05-24-10:43:48.559614,3.0,8.0,449.0
2023-05-24-10:43:48.560610,3.0,8.0,449.0
2023-05-24-10:43:48.561610,8.0,7.0,449.0
2023-05-24-10:43:48.562610,3.0,6.0,449.0
2023-05-24-10:43:48.563553,3.0,6.0,449.0
2023-05-24-10:43:48.564610,4.0,5.0,449.0
2023-05-24-10:43:48.565589,0.0,4.0,449.0
2023-05-24-10:43:48.566588,4.0,0.0,449.0
2023-05-24-10:43:48.567553,4.0,0.0,449.0
2023-05-24-10:43:48.568611,8.0,3.0,449.0
2023-05-24-10:43:48.569610,6.0,7.0,449.0
2023-05-24-10:43:48.570610,6.0,7.0,449.0
2023-05-24-10:43:48.571608,6.0,7.0,449.0
2023-05-24-10:43:48.572610,9.0,0.0,449.0
2023-05-24-10:43:48.573610,7.0,7.0,449.0
2023-05-24-10:43:48.574612,6.0,8.0,449.0
2023-05-24-10:43:48.575614,6.0,8.0,449.0
2023-05-24-10:43:48.576610,1.0,14.0,449.0
2023-05-24-10:43:48.577592,2.0,2.0,449.0
2023-05-24-10:43:48.578619,2.0,2.0,449.0
2023-05-24-10:43:48.579613,2.0,2.0,449.0
2023-05-24-10:43:48.580609,2.0,2.0,449.0
2023-05-24-10:43:48.581610,7.0,1.0,449.0
2023-05-24-10:43:48.582553,3.0,8.0,449.0
2023-05-24-10:43:48.583610,6.0,3.0,449.0
2023-05-24-10:43:48.584611,6.0,3.0,449.0
2023-05-24-10:43:48.586588,8.0,12.0,449.0
2023-05-24-10:43:48.586588,8.0,12.0,449.0
2023-05-24-10:43:48.587610,8.0,12.0,449.0
2023-05-24-10:43:48.588610,8.0,12.0,449.0
2023-05-24-10:43:48.589610,8.0,8.0,449.0
2023-05-24-10:43:48.590610,3.0,2.0,449.0
2023-05-24-10:43:48.591614,4.0,2.0,449.0
2023-05-24-10:43:48.592609,4.0,2.0,449.0
2023-05-24-10:43:48.593610,3.0,2.0,449.0
2023-05-24-10:43:48.594610,3.0,1.0,449.0
2023-05-24-10:43:48.595555,6.0,11.0,449.0
2023-05-24-10:43:48.596553,6.0,11.0,449.0
2023-05-24-10:43:48.597588,6.0,11.0,449.0
2023-05-24-10:43:48.598586,5.0,9.0,449.0
2023-05-24-10:43:48.599589,5.0,9.0,449.0
2023-05-24-10:43:48.600586,5.0,9.0,449.0
2023-05-24-10:43:48.601586,4.0,6.0,449.0
2023-05-24-10:43:48.602610,4.0,5.0,449.0
2023-05-24-10:43:48.603611,4.0,5.0,449.0
2023-05-24-10:43:48.604553,4.0,5.0,449.0
2023-05-24-10:43:48.605610,3.0,8.0,449.0
2023-05-24-10:43:48.606616,5.0,1.0,449.0
2023-05-24-10:43:48.607614,5.0,2.0,449.0
2023-05-24-10:43:48.608553,5.0,2.0,449.0
2023-05-24-10:43:48.609614,3.0,3.0,449.0
2023-05-24-10:43:48.610610,1.0,10.0,449.0
2023-05-24-10:43:48.611614,4.0,6.0,449.0
2023-05-24-10:43:48.612609,4.0,6.0,449.0
2023-05-24-10:43:48.613610,7.0,10.0,449.0
2023-05-24-10:43:48.614611,4.0,3.0,449.0
2023-05-24-10:43:48.615610,4.0,4.0,449.0
2023-05-24-10:43:48.616612,4.0,4.0,449.0
2023-05-24-10:43:48.617610,6.0,5.0,449.0
2023-05-24-10:43:48.618610,6.0,5.0,449.0
2023-05-24-10:43:48.619610,10.0,8.0,449.0
2023-05-24-10:43:48.621588,10.0,8.0,449.0
2023-05-24-10:43:48.621588,1.0,1.0,449.0
2023-05-24-10:43:48.622588,1.0,1.0,449.0
2023-05-24-10:43:48.623613,7.0,4.0,449.0
2023-05-24-10:43:48.624610,7.0,4.0,449.0
2023-05-24-10:43:48.625610,7.0,4.0,449.0
2023-05-24-10:43:48.626610,3.0,0.0,449.0
2023-05-24-10:43:48.627613,5.0,1.0,449.0
2023-05-24-10:43:48.628617,6.0,1.0,449.0
2023-05-24-10:43:48.629618,6.0,1.0,449.0
2023-05-24-10:43:48.630612,8.0,4.0,449.0
2023-05-24-10:43:48.631610,6.0,3.0,449.0
2023-05-24-10:43:48.632612,6.0,3.0,449.0
2023-05-24-10:43:48.633610,6.0,3.0,449.0
2023-05-24-10:43:48.634611,5.0,4.0,449.0
2023-05-24-10:43:48.635610,5.0,4.0,449.0
2023-05-24-10:43:48.636611,4.0,1.0,449.0
2023-05-24-10:43:48.637610,4.0,1.0,449.0
2023-05-24-10:43:48.638610,7.0,6.0,449.0
2023-05-24-10:43:48.639614,5.0,4.0,449.0
2023-05-24-10:43:48.640610,6.0,3.0,449.0
2023-05-24-10:43:48.641610,6.0,3.0,449.0
2023-05-24-10:43:48.642609,5.0,6.0,449.0
2023-05-24-10:43:48.643613,4.0,7.0,449.0
2023-05-24-10:43:48.644610,4.0,5.0,449.0
2023-05-24-10:43:48.645588,4.0,5.0,449.0
2023-05-24-10:43:48.646591,4.0,7.0,449.0
2023-05-24-10:43:48.647615,3.0,6.0,449.0
2023-05-24-10:43:48.648611,3.0,8.0,449.0
2023-05-24-10:43:48.649553,3.0,8.0,449.0
2023-05-24-10:43:48.650610,7.0,7.0,449.0
2023-05-24-10:43:48.651610,0.0,6.0,449.0
2023-05-24-10:43:48.652610,2.0,3.0,449.0
2023-05-24-10:43:48.653553,2.0,3.0,449.0
2023-05-24-10:43:48.655588,2.0,3.0,449.0
2023-05-24-10:43:48.655588,7.0,3.0,449.0
2023-05-24-10:43:48.656612,6.0,6.0,449.0
2023-05-24-10:43:48.657611,8.0,2.0,449.0
2023-05-24-10:43:48.658613,5.0,3.0,449.0
2023-05-24-10:43:48.659613,4.0,6.0,449.0
2023-05-24-10:43:48.660609,5.0,7.0,449.0
2023-05-24-10:43:48.661610,5.0,7.0,449.0
2023-05-24-10:43:48.662611,5.0,7.0,449.0
2023-05-24-10:43:48.663610,6.0,4.0,449.0
2023-05-24-10:43:48.664611,5.0,4.0,449.0
2023-05-24-10:43:48.665609,5.0,4.0,449.0
2023-05-24-10:43:48.666610,5.0,4.0,449.0
2023-05-24-10:43:48.667609,6.0,6.0,449.0
2023-05-24-10:43:48.668610,7.0,5.0,449.0
2023-05-24-10:43:48.669610,5.0,4.0,449.0
2023-05-24-10:43:48.670609,5.0,4.0,449.0
2023-05-24-10:43:48.671588,4.0,10.0,449.0
2023-05-24-10:43:48.672610,6.0,14.0,449.0
2023-05-24-10:43:48.673614,6.0,14.0,449.0
2023-05-24-10:43:48.674616,6.0,14.0,449.0
2023-05-24-10:43:48.675613,5.0,12.0,449.0
2023-05-24-10:43:48.676610,7.0,1.0,449.0
2023-05-24-10:43:48.677609,4.0,2.0,449.0
2023-05-24-10:43:48.678614,4.0,2.0,449.0
2023-05-24-10:43:48.679610,4.0,1.0,449.0
2023-05-24-10:43:48.680612,2.0,15.0,449.0
2023-05-24-10:43:48.681611,3.0,18.0,449.0
2023-05-24-10:43:48.682610,3.0,18.0,449.0
2023-05-24-10:43:48.683609,2.0,15.0,449.0
2023-05-24-10:43:48.684615,9.0,14.0,449.0
2023-05-24-10:43:48.685610,10.0,18.0,449.0
2023-05-24-10:43:48.686589,10.0,18.0,449.0
2023-05-24-10:43:48.688590,7.0,8.0,449.0
2023-05-24-10:43:48.688590,5.0,6.0,449.0
2023-05-24-10:43:48.689610,5.0,6.0,449.0
2023-05-24-10:43:48.690553,5.0,6.0,449.0
2023-05-24-10:43:48.691613,8.0,3.0,449.0
2023-05-24-10:43:48.692610,3.0,4.0,449.0
2023-05-24-10:43:48.693610,6.0,8.0,449.0
2023-05-24-10:43:48.694553,6.0,8.0,449.0
2023-05-24-10:43:48.695611,4.0,8.0,449.0
2023-05-24-10:43:48.696611,1.0,6.0,449.0
2023-05-24-10:43:48.697610,1.0,6.0,449.0
2023-05-24-10:43:48.698611,1.0,6.0,449.0
2023-05-24-10:43:48.699610,2.0,8.0,449.0
2023-05-24-10:43:48.700611,5.0,9.0,449.0
2023-05-24-10:43:48.701610,7.0,5.0,449.0
2023-05-24-10:43:48.702610,7.0,5.0,449.0
2023-05-24-10:43:48.703614,4.0,1.0,449.0
2023-05-24-10:43:48.704609,3.0,0.0,449.0
2023-05-24-10:43:48.705610,4.0,2.0,449.0
2023-05-24-10:43:48.706609,4.0,2.0,449.0
2023-05-24-10:43:48.707613,4.0,2.0,449.0
2023-05-24-10:43:48.708610,9.0,9.0,449.0
2023-05-24-10:43:48.709583,3.0,0.0,449.0
2023-05-24-10:43:48.710588,3.0,0.0,449.0
2023-05-24-10:43:48.711589,3.0,0.0,449.0
2023-05-24-10:43:48.712573,3.0,0.0,449.0
2023-05-24-10:43:48.713587,5.0,1.0,449.0
2023-05-24-10:43:48.714588,4.0,4.0,449.0
2023-05-24-10:43:48.715588,4.0,4.0,449.0
2023-05-24-10:43:48.716589,6.0,7.0,449.0
2023-05-24-10:43:48.717588,7.0,5.0,449.0
2023-05-24-10:43:48.718589,5.0,3.0,449.0
2023-05-24-10:43:48.719588,5.0,3.0,449.0
2023-05-24-10:43:48.721588,1.0,2.0,449.0
2023-05-24-10:43:48.721588,1.0,2.0,449.0
2023-05-24-10:43:48.722617,1.0,2.0,449.0
2023-05-24-10:43:48.723590,1.0,2.0,449.0
2023-05-24-10:43:48.724612,3.0,5.0,449.0
2023-05-24-10:43:48.725588,8.0,6.0,449.0
2023-05-24-10:43:48.726611,5.0,5.0,449.0
2023-05-24-10:43:48.727609,5.0,5.0,449.0
2023-05-24-10:43:48.728612,4.0,6.0,449.0
2023-05-24-10:43:48.729594,5.0,9.0,449.0
2023-05-24-10:43:48.730593,5.0,9.0,449.0
2023-05-24-10:43:48.731588,5.0,9.0,449.0
2023-05-24-10:43:48.732589,4.0,9.0,449.0
2023-05-24-10:43:48.733589,3.0,9.0,449.0
2023-05-24-10:43:48.734589,0.0,3.0,449.0
2023-05-24-10:43:48.735553,0.0,3.0,449.0
2023-05-24-10:43:48.736590,2.0,4.0,449.0
2023-05-24-10:43:48.737588,2.0,4.0,449.0
2023-05-24-10:43:48.738590,7.0,6.0,449.0
2023-05-24-10:43:48.739552,7.0,6.0,449.0
2023-05-24-10:43:48.740588,7.0,12.0,449.0
2023-05-24-10:43:48.741577,5.0,2.0,449.0
2023-05-24-10:43:48.742590,5.0,2.0,449.0
2023-05-24-10:43:48.743588,5.0,2.0,449.0
2023-05-24-10:43:48.744588,6.0,2.0,449.0
2023-05-24-10:43:48.745588,3.0,8.0,449.0
2023-05-24-10:43:48.746592,5.0,12.0,449.0
2023-05-24-10:43:48.747588,5.0,12.0,449.0
2023-05-24-10:43:48.748589,5.0,12.0,449.0
2023-05-24-10:43:48.749590,5.0,10.0,449.0
2023-05-24-10:43:48.750588,4.0,8.0,449.0
2023-05-24-10:43:48.751589,4.0,2.0,449.0
2023-05-24-10:43:48.752590,4.0,2.0,449.0
2023-05-24-10:43:48.753588,7.0,2.0,449.0
2023-05-24-10:43:48.754588,7.0,2.0,449.0
2023-05-24-10:43:48.755591,6.0,2.0,449.0
2023-05-24-10:43:48.757609,7.0,14.0,449.0
2023-05-24-10:43:48.757609,7.0,14.0,449.0
2023-05-24-10:43:48.758611,7.0,14.0,449.0
2023-05-24-10:43:48.759588,7.0,14.0,449.0
2023-05-24-10:43:48.760611,7.0,14.0,449.0
2023-05-24-10:43:48.761614,6.0,14.0,449.0
2023-05-24-10:43:48.762611,3.0,1.0,449.0
2023-05-24-10:43:48.763610,4.0,1.0,449.0
2023-05-24-10:43:48.764610,4.0,1.0,449.0
2023-05-24-10:43:48.765610,4.0,3.0,449.0
2023-05-24-10:43:48.766610,7.0,1.0,449.0
2023-05-24-10:43:48.767614,4.0,7.0,449.0
2023-05-24-10:43:48.768611,4.0,7.0,449.0
2023-05-24-10:43:48.769610,1.0,2.0,449.0
2023-05-24-10:43:48.770611,9.0,8.0,449.0
2023-05-24-10:43:48.771613,7.0,8.0,449.0
2023-05-24-10:43:48.772610,7.0,8.0,449.0
2023-05-24-10:43:48.773610,6.0,7.0,449.0
2023-05-24-10:43:48.774611,4.0,7.0,449.0
2023-05-24-10:43:48.775589,4.0,7.0,449.0
2023-05-24-10:43:48.776553,4.0,7.0,449.0
2023-05-24-10:43:48.777588,3.0,1.0,449.0
2023-05-24-10:43:48.778588,5.0,5.0,449.0
2023-05-24-10:43:48.779588,6.0,3.0,449.0
2023-05-24-10:43:48.780551,6.0,3.0,449.0
2023-05-24-10:43:48.781589,2.0,0.0,449.0
2023-05-24-10:43:48.782588,3.0,10.0,449.0
2023-05-24-10:43:48.783588,3.0,10.0,449.0
2023-05-24-10:43:48.784591,3.0,10.0,449.0
2023-05-24-10:43:48.785588,4.0,5.0,449.0
2023-05-24-10:43:48.786588,6.0,2.0,449.0
2023-05-24-10:43:48.787591,7.0,2.0,449.0
2023-05-24-10:43:48.788588,7.0,2.0,449.0
2023-05-24-10:43:48.789589,3.0,11.0,449.0
2023-05-24-10:43:48.790588,9.0,18.0,449.0
2023-05-24-10:43:48.792589,9.0,18.0,449.0
2023-05-24-10:43:48.792589,9.0,18.0,449.0
2023-05-24-10:43:48.793610,6.0,15.0,449.0
2023-05-24-10:43:48.794610,4.0,6.0,449.0
2023-05-24-10:43:48.795588,4.0,6.0,449.0
2023-05-24-10:43:48.796610,4.0,6.0,449.0
2023-05-24-10:43:48.797610,4.0,6.0,449.0
2023-05-24-10:43:48.798610,8.0,2.0,449.0
2023-05-24-10:43:48.799614,3.0,17.0,449.0
2023-05-24-10:43:48.800608,7.0,8.0,449.0
2023-05-24-10:43:48.801608,7.0,8.0,449.0
2023-05-24-10:43:48.802608,7.0,3.0,449.0
2023-05-24-10:43:48.803611,3.0,4.0,449.0
2023-05-24-10:43:48.804607,9.0,5.0,449.0
2023-05-24-10:43:48.805608,9.0,5.0,449.0
2023-05-24-10:43:48.806611,4.0,5.0,449.0
2023-05-24-10:43:48.807608,4.0,10.0,449.0
2023-05-24-10:43:48.808608,5.0,7.0,449.0
2023-05-24-10:43:48.809608,5.0,7.0,449.0
2023-05-24-10:43:48.810608,3.0,7.0,449.0
2023-05-24-10:43:48.811608,4.0,11.0,449.0
2023-05-24-10:43:48.812554,6.0,10.0,449.0
2023-05-24-10:43:48.813608,6.0,10.0,449.0
2023-05-24-10:43:48.814608,4.0,7.0,449.0
2023-05-24-10:43:48.815609,7.0,0.0,449.0
2023-05-24-10:43:48.816608,4.0,3.0,449.0
2023-05-24-10:43:48.817553,4.0,3.0,449.0
2023-05-24-10:43:48.818608,5.0,1.0,449.0
2023-05-24-10:43:48.819611,4.0,1.0,449.0
2023-05-24-10:43:48.820608,5.0,6.0,449.0
2023-05-24-10:43:48.821553,5.0,6.0,449.0
2023-05-24-10:43:48.822611,6.0,4.0,449.0
2023-05-24-10:43:48.824579,6.0,5.0,449.0
2023-05-24-10:43:48.824579,6.0,5.0,449.0
2023-05-24-10:43:48.825550,6.0,5.0,449.0
2023-05-24-10:43:48.826599,5.0,5.0,449.0
2023-05-24-10:43:48.827599,0.0,2.0,449.0
2023-05-24-10:43:48.828599,2.0,2.0,449.0
2023-05-24-10:43:48.829599,2.0,2.0,449.0
2023-05-24-10:43:48.830599,5.0,6.0,449.0
2023-05-24-10:43:48.831600,2.0,5.0,449.0
2023-05-24-10:43:48.832598,3.0,2.0,449.0
2023-05-24-10:43:48.833597,3.0,2.0,449.0
2023-05-24-10:43:48.834601,3.0,2.0,449.0
2023-05-24-10:43:48.835602,7.0,16.0,449.0
2023-05-24-10:43:48.836598,7.0,18.0,449.0
2023-05-24-10:43:48.837580,7.0,18.0,449.0
2023-05-24-10:43:48.838579,7.0,18.0,449.0
2023-05-24-10:43:48.839599,4.0,5.0,449.0
2023-05-24-10:43:48.840598,6.0,1.0,449.0
2023-05-24-10:43:48.841598,6.0,1.0,449.0
2023-05-24-10:43:48.842599,6.0,1.0,449.0
2023-05-24-10:43:48.843602,5.0,7.0,449.0
2023-05-24-10:43:48.844599,3.0,14.0,449.0
2023-05-24-10:43:48.845582,4.0,0.0,449.0
2023-05-24-10:43:48.846553,4.0,0.0,449.0
2023-05-24-10:43:48.847579,5.0,6.0,449.0
2023-05-24-10:43:48.848599,7.0,3.0,449.0
2023-05-24-10:43:48.849598,7.0,3.0,449.0
2023-05-24-10:43:48.850598,7.0,3.0,449.0
2023-05-24-10:43:48.851602,9.0,0.0,449.0
2023-05-24-10:43:48.852598,4.0,0.0,449.0
2023-05-24-10:43:48.853599,5.0,9.0,449.0
2023-05-24-10:43:48.854611,5.0,9.0,449.0
2023-05-24-10:43:48.855600,8.0,13.0,449.0
2023-05-24-10:43:48.856599,8.0,13.0,449.0
2023-05-24-10:43:48.858579,5.0,9.0,449.0
2023-05-24-10:43:48.858579,5.0,6.0,449.0
2023-05-24-10:43:48.859600,6.0,9.0,449.0
2023-05-24-10:43:48.860605,6.0,9.0,449.0
2023-05-24-10:43:48.861578,6.0,9.0,449.0
2023-05-24-10:43:48.862552,6.0,9.0,449.0
2023-05-24-10:43:48.863579,2.0,0.0,449.0
2023-05-24-10:43:48.864600,4.0,6.0,449.0
2023-05-24-10:43:48.865600,4.0,6.0,449.0
2023-05-24-10:43:48.866554,4.0,6.0,449.0
2023-05-24-10:43:48.867603,7.0,5.0,449.0
2023-05-24-10:43:48.868600,7.0,1.0,449.0
2023-05-24-10:43:48.869600,6.0,5.0,449.0
2023-05-24-10:43:48.870612,6.0,5.0,449.0
2023-05-24-10:43:48.871610,4.0,7.0,449.0
2023-05-24-10:43:48.872611,6.0,5.0,449.0
2023-05-24-10:43:48.873612,6.0,7.0,449.0
2023-05-24-10:43:48.874611,6.0,7.0,449.0
2023-05-24-10:43:48.875590,4.0,2.0,449.0
2023-05-24-10:43:48.876600,4.0,2.0,449.0
2023-05-24-10:43:48.877602,3.0,10.0,449.0
2023-05-24-10:43:48.878600,3.0,10.0,449.0
2023-05-24-10:43:48.879600,3.0,10.0,449.0
2023-05-24-10:43:48.880598,7.0,8.0,449.0
2023-05-24-10:43:48.881600,5.0,8.0,449.0
2023-05-24-10:43:48.882598,5.0,8.0,449.0
2023-05-24-10:43:48.883603,5.0,8.0,449.0
2023-05-24-10:43:48.884580,2.0,4.0,449.0
2023-05-24-10:43:48.885580,1.0,13.0,449.0
2023-05-24-10:43:48.886584,8.0,11.0,449.0
2023-05-24-10:43:48.887579,8.0,11.0,449.0
2023-05-24-10:43:48.888580,4.0,0.0,449.0
2023-05-24-10:43:48.889579,2.0,1.0,449.0
2023-05-24-10:43:48.891581,2.0,1.0,449.0
2023-05-24-10:43:48.891581,4.0,4.0,449.0
2023-05-24-10:43:48.892601,4.0,4.0,449.0
2023-05-24-10:43:48.893600,7.0,3.0,449.0
2023-05-24-10:43:48.894599,8.0,5.0,449.0
2023-05-24-10:43:48.895606,8.0,5.0,449.0
2023-05-24-10:43:48.896581,8.0,2.0,449.0
2023-05-24-10:43:48.897579,4.0,7.0,449.0
2023-05-24-10:43:48.898599,6.0,12.0,449.0
2023-05-24-10:43:48.899601,6.0,12.0,449.0
2023-05-24-10:43:48.900601,6.0,10.0,449.0
2023-05-24-10:43:48.901601,3.0,1.0,449.0
2023-05-24-10:43:48.902602,5.0,1.0,449.0
2023-05-24-10:43:48.903552,5.0,1.0,449.0
2023-05-24-10:43:48.904602,7.0,2.0,449.0
2023-05-24-10:43:48.905601,5.0,2.0,449.0
2023-05-24-10:43:48.906608,5.0,1.0,449.0
2023-05-24-10:43:48.907553,5.0,1.0,449.0
2023-05-24-10:43:48.908602,5.0,1.0,449.0
2023-05-24-10:43:48.909600,4.0,7.0,449.0
2023-05-24-10:43:48.910600,4.0,7.0,449.0
2023-05-24-10:43:48.911600,4.0,7.0,449.0
2023-05-24-10:43:48.912569,4.0,8.0,449.0
2023-05-24-10:43:48.913601,5.0,11.0,449.0
2023-05-24-10:43:48.914604,5.0,8.0,449.0
2023-05-24-10:43:48.915582,5.0,5.0,449.0
2023-05-24-10:43:48.916601,5.0,5.0,449.0
2023-05-24-10:43:48.917601,7.0,5.0,449.0
2023-05-24-10:43:48.918602,3.0,2.0,449.0
2023-05-24-10:43:48.919600,3.0,2.0,449.0
2023-05-24-10:43:48.920603,3.0,2.0,449.0
2023-05-24-10:43:48.921602,10.0,5.0,449.0
2023-05-24-10:43:48.922601,4.0,4.0,449.0
2023-05-24-10:43:48.923600,4.0,4.0,449.0
2023-05-24-10:43:48.924602,4.0,4.0,449.0
2023-05-24-10:43:48.926580,4.0,2.0,449.0
2023-05-24-10:43:48.926580,2.0,3.0,449.0
2023-05-24-10:43:48.927605,2.0,3.0,449.0
2023-05-24-10:43:48.928601,2.0,3.0,449.0
2023-05-24-10:43:48.929611,3.0,5.0,449.0
2023-05-24-10:43:48.930588,6.0,6.0,449.0
2023-05-24-10:43:48.931613,6.0,6.0,449.0
2023-05-24-10:43:48.932610,6.0,6.0,449.0
2023-05-24-10:43:48.933610,2.0,4.0,449.0
2023-05-24-10:43:48.934612,7.0,6.0,449.0
2023-05-24-10:43:48.935611,7.0,8.0,449.0
2023-05-24-10:43:48.936611,7.0,8.0,449.0
2023-05-24-10:43:48.937609,5.0,8.0,449.0
2023-05-24-10:43:48.938588,2.0,3.0,449.0
2023-05-24-10:43:48.939588,3.0,1.0,449.0
2023-05-24-10:43:48.940589,3.0,1.0,449.0
2023-05-24-10:43:48.941588,2.0,3.0,449.0
2023-05-24-10:43:48.942579,4.0,2.0,449.0
2023-05-24-10:43:48.943579,3.0,4.0,449.0
2023-05-24-10:43:48.944581,3.0,4.0,449.0
2023-05-24-10:43:48.945580,4.0,8.0,449.0
2023-05-24-10:43:48.946578,3.0,10.0,449.0
2023-05-24-10:43:48.947582,7.0,6.0,449.0
2023-05-24-10:43:48.948552,7.0,6.0,449.0
2023-05-24-10:43:48.949580,6.0,7.0,449.0
2023-05-24-10:43:48.950579,5.0,5.0,449.0
2023-05-24-10:43:48.951579,5.0,5.0,449.0
2023-05-24-10:43:48.952551,5.0,5.0,449.0
2023-05-24-10:43:48.953578,6.0,2.0,449.0
2023-05-24-10:43:48.954578,3.0,6.0,449.0
2023-05-24-10:43:48.955579,5.0,6.0,449.0
2023-05-24-10:43:48.956578,5.0,6.0,449.0
2023-05-24-10:43:48.957578,6.0,5.0,449.0
2023-05-24-10:43:48.958580,6.0,5.0,449.0
2023-05-24-10:43:48.959577,6.0,5.0,449.0
2023-05-24-10:43:48.960580,6.0,5.0,449.0
2023-05-24-10:43:48.962588,6.0,5.0,449.0
2023-05-24-10:43:48.962588,3.0,4.0,449.0
2023-05-24-10:43:48.963613,3.0,5.0,449.0
2023-05-24-10:43:48.964610,3.0,5.0,449.0
2023-05-24-10:43:48.965610,3.0,5.0,449.0
2023-05-24-10:43:48.966611,5.0,9.0,449.0
2023-05-24-10:43:48.967610,0.0,2.0,449.0
2023-05-24-10:43:48.968612,2.0,3.0,449.0
2023-05-24-10:43:48.969610,2.0,3.0,449.0
2023-05-24-10:43:48.970610,6.0,4.0,449.0
2023-05-24-10:43:48.971610,9.0,3.0,449.0
2023-05-24-10:43:48.972610,3.0,1.0,449.0
2023-05-24-10:43:48.973610,3.0,1.0,449.0
2023-05-24-10:43:48.974610,6.0,4.0,449.0
2023-05-24-10:43:48.975614,5.0,3.0,449.0
2023-05-24-10:43:48.976610,5.0,5.0,449.0
2023-05-24-10:43:48.977588,5.0,5.0,449.0
2023-05-24-10:43:48.978551,4.0,3.0,449.0
2023-05-24-10:43:48.979612,4.0,3.0,449.0
2023-05-24-10:43:48.980587,4.0,3.0,449.0
2023-05-24-10:43:48.981610,4.0,3.0,449.0
2023-05-24-10:43:48.982613,1.0,6.0,449.0
2023-05-24-10:43:48.983610,6.0,10.0,449.0
2023-05-24-10:43:48.984617,9.0,12.0,449.0
2023-05-24-10:43:48.985609,9.0,12.0,449.0
2023-05-24-10:43:48.986610,9.0,6.0,449.0
2023-05-24-10:43:48.987610,6.0,2.0,449.0
2023-05-24-10:43:48.988611,7.0,11.0,449.0
2023-05-24-10:43:48.989553,7.0,11.0,449.0
2023-05-24-10:43:48.990612,5.0,11.0,449.0
2023-05-24-10:43:48.991614,5.0,5.0,449.0
2023-05-24-10:43:48.992611,0.0,8.0,449.0
2023-05-24-10:43:48.994552,0.0,8.0,449.0
2023-05-24-10:43:48.994552,3.0,7.0,449.0
2023-05-24-10:43:48.996589,7.0,9.0,449.0
2023-05-24-10:43:48.996589,7.0,9.0,449.0
2023-05-24-10:43:48.997588,7.0,9.0,449.0
2023-05-24-10:43:48.998611,9.0,11.0,449.0
2023-05-24-10:43:48.999611,8.0,8.0,449.0
2023-05-24-10:43:49.000616,6.0,3.0,449.0
2023-05-24-10:43:49.001609,6.0,3.0,449.0
2023-05-24-10:43:49.002609,6.0,3.0,449.0
2023-05-24-10:43:49.003609,3.0,3.0,449.0
2023-05-24-10:43:49.004609,7.0,3.0,449.0
2023-05-24-10:43:49.005609,7.0,3.0,449.0
2023-05-24-10:43:49.006609,7.0,3.0,449.0
2023-05-24-10:43:49.007609,5.0,7.0,449.0
2023-05-24-10:43:49.008609,4.0,3.0,449.0
2023-05-24-10:43:49.009553,4.0,3.0,449.0
2023-05-24-10:43:49.010608,4.0,3.0,449.0
2023-05-24-10:43:49.011612,5.0,6.0,449.0
2023-05-24-10:43:49.012611,4.0,0.0,449.0
2023-05-24-10:43:49.013609,4.0,0.0,449.0
2023-05-24-10:43:49.014589,4.0,0.0,449.0
2023-05-24-10:43:49.015608,4.0,1.0,449.0
2023-05-24-10:43:49.016608,2.0,1.0,449.0
2023-05-24-10:43:49.017608,4.0,3.0,449.0
2023-05-24-10:43:49.018608,4.0,3.0,449.0
2023-05-24-10:43:49.019608,4.0,2.0,449.0
2023-05-24-10:43:49.020609,9.0,5.0,449.0
2023-05-24-10:43:49.021609,8.0,6.0,449.0
2023-05-24-10:43:49.022614,8.0,6.0,449.0
2023-05-24-10:43:49.023609,3.0,3.0,449.0
2023-05-24-10:43:49.024608,4.0,6.0,449.0
2023-05-24-10:43:49.025608,4.0,7.0,449.0
2023-05-24-10:43:49.026608,4.0,7.0,449.0
2023-05-24-10:43:49.027611,3.0,9.0,449.0
2023-05-24-10:43:49.029581,1.0,3.0,449.0
2023-05-24-10:43:49.029581,3.0,0.0,449.0
2023-05-24-10:43:49.030553,10.0,8.0,449.0
2023-05-24-10:43:49.031600,6.0,3.0,449.0
2023-05-24-10:43:49.032602,8.0,1.0,449.0
2023-05-24-10:43:49.033603,8.0,1.0,449.0
2023-05-24-10:43:49.034552,8.0,1.0,449.0
2023-05-24-10:43:49.035600,7.0,2.0,449.0
2023-05-24-10:43:49.036606,6.0,5.0,449.0
2023-05-24-10:43:49.037600,5.0,6.0,449.0
2023-05-24-10:43:49.038569,5.0,6.0,449.0
2023-05-24-10:43:49.039600,5.0,3.0,449.0
2023-05-24-10:43:49.040600,9.0,2.0,449.0
2023-05-24-10:43:49.041609,7.0,5.0,449.0
2023-05-24-10:43:49.042613,7.0,5.0,449.0
2023-05-24-10:43:49.043612,6.0,13.0,449.0
2023-05-24-10:43:49.044610,6.0,13.0,449.0
2023-05-24-10:43:49.045609,1.0,11.0,449.0
2023-05-24-10:43:49.046594,1.0,11.0,449.0
2023-05-24-10:43:49.047589,1.0,11.0,449.0
2023-05-24-10:43:49.048588,3.0,10.0,449.0
2023-05-24-10:43:49.049609,4.0,5.0,449.0
2023-05-24-10:43:49.050609,4.0,5.0,449.0
2023-05-24-10:43:49.051609,4.0,5.0,449.0
2023-05-24-10:43:49.052615,8.0,4.0,449.0
2023-05-24-10:43:49.053609,6.0,1.0,449.0
2023-05-24-10:43:49.054610,4.0,4.0,449.0
2023-05-24-10:43:49.055609,4.0,4.0,449.0
2023-05-24-10:43:49.056608,4.0,1.0,449.0
2023-05-24-10:43:49.057609,4.0,2.0,449.0
2023-05-24-10:43:49.058609,4.0,1.0,449.0
2023-05-24-10:43:49.059612,4.0,1.0,449.0
2023-05-24-10:43:49.060609,5.0,8.0,449.0
2023-05-24-10:43:49.061609,5.0,8.0,449.0
2023-05-24-10:43:49.062611,7.0,12.0,449.0
2023-05-24-10:43:49.064600,7.0,8.0,449.0
2023-05-24-10:43:49.064600,4.0,3.0,449.0
2023-05-24-10:43:49.065600,4.0,2.0,449.0
2023-05-24-10:43:49.066600,4.0,2.0,449.0
2023-05-24-10:43:49.067600,4.0,2.0,449.0
2023-05-24-10:43:49.068600,5.0,8.0,449.0
2023-05-24-10:43:49.069600,10.0,2.0,449.0
2023-05-24-10:43:49.070600,5.0,1.0,449.0
2023-05-24-10:43:49.071553,5.0,1.0,449.0
2023-05-24-10:43:49.072609,5.0,1.0,449.0
2023-05-24-10:43:49.073599,6.0,6.0,449.0
2023-05-24-10:43:49.074600,7.0,6.0,449.0
2023-05-24-10:43:49.075553,7.0,6.0,449.0
2023-05-24-10:43:49.076599,4.0,6.0,449.0
2023-05-24-10:43:49.077599,1.0,11.0,449.0
2023-05-24-10:43:49.078603,1.0,11.0,449.0
2023-05-24-10:43:49.079600,5.0,6.0,449.0
2023-05-24-10:43:49.080603,11.0,3.0,449.0
2023-05-24-10:43:49.081578,11.0,3.0,449.0
2023-05-24-10:43:49.082607,11.0,3.0,449.0
2023-05-24-10:43:49.083600,11.0,3.0,449.0
2023-05-24-10:43:49.084600,12.0,5.0,449.0
2023-05-24-10:43:49.085600,2.0,9.0,449.0
2023-05-24-10:43:49.086601,7.0,2.0,449.0
2023-05-24-10:43:49.087609,7.0,2.0,449.0
2023-05-24-10:43:49.088609,7.0,2.0,449.0
2023-05-24-10:43:49.089609,2.0,7.0,449.0
2023-05-24-10:43:49.090600,5.0,7.0,449.0
2023-05-24-10:43:49.091602,5.0,7.0,449.0
2023-05-24-10:43:49.092609,5.0,7.0,449.0
2023-05-24-10:43:49.093609,2.0,13.0,449.0
2023-05-24-10:43:49.094611,5.0,12.0,449.0
2023-05-24-10:43:49.095590,5.0,12.0,449.0
2023-05-24-10:43:49.096553,4.0,2.0,449.0
2023-05-24-10:43:49.098580,7.0,2.0,449.0
2023-05-24-10:43:49.098580,7.0,2.0,449.0
2023-05-24-10:43:49.099580,7.0,2.0,449.0
2023-05-24-10:43:49.100571,7.0,2.0,449.0
2023-05-24-10:43:49.101563,7.0,8.0,449.0
2023-05-24-10:43:49.102554,11.0,5.0,449.0
2023-05-24-10:43:49.103560,6.0,14.0,449.0
2023-05-24-10:43:49.104586,1.0,23.0,449.0
2023-05-24-10:43:49.105579,0.0,12.0,449.0
2023-05-24-10:43:49.106579,7.0,16.0,449.0
2023-05-24-10:43:49.107581,2.0,10.0,449.0
2023-05-24-10:43:49.108579,2.0,10.0,449.0
2023-05-24-10:43:49.109580,5.0,11.0,449.0
2023-05-24-10:43:49.110579,6.0,12.0,449.0
2023-05-24-10:43:49.111580,8.0,16.0,449.0
2023-05-24-10:43:49.112553,8.0,16.0,449.0
2023-05-24-10:43:49.113581,4.0,7.0,449.0
2023-05-24-10:43:49.114576,1.0,10.0,449.0
2023-05-24-10:43:49.115578,1.0,10.0,449.0
2023-05-24-10:43:49.116553,1.0,10.0,449.0
2023-05-24-10:43:49.117552,5.0,0.0,449.0
2023-05-24-10:43:49.118554,3.0,1.0,449.0
2023-05-24-10:43:49.119558,5.0,2.0,449.0
2023-05-24-10:43:49.120553,5.0,2.0,449.0
2023-05-24-10:43:49.121579,7.0,4.0,449.0
2023-05-24-10:43:49.122579,4.0,2.0,449.0
2023-05-24-10:43:49.123582,1.0,1.0,449.0
2023-05-24-10:43:49.124579,1.0,1.0,449.0
2023-05-24-10:43:49.125580,3.0,1.0,449.0
2023-05-24-10:43:49.126579,4.0,9.0,449.0
2023-05-24-10:43:49.127582,5.0,10.0,449.0
2023-05-24-10:43:49.128579,5.0,10.0,449.0
2023-05-24-10:43:49.129595,5.0,6.0,449.0
2023-05-24-10:43:49.130591,6.0,5.0,449.0
2023-05-24-10:43:49.131580,6.0,5.0,449.0
2023-05-24-10:43:49.133560,6.0,5.0,449.0
2023-05-24-10:43:49.134551,4.0,8.0,449.0
2023-05-24-10:43:49.134551,6.0,1.0,449.0
2023-05-24-10:43:49.135600,6.0,1.0,449.0
2023-05-24-10:43:49.136599,6.0,1.0,449.0
2023-05-24-10:43:49.137598,6.0,1.0,449.0
2023-05-24-10:43:49.138598,3.0,4.0,449.0
2023-05-24-10:43:49.139602,1.0,9.0,449.0
2023-05-24-10:43:49.140599,6.0,3.0,449.0
2023-05-24-10:43:49.141607,6.0,3.0,449.0
2023-05-24-10:43:49.142602,6.0,12.0,449.0
2023-05-24-10:43:49.143598,7.0,16.0,449.0
2023-05-24-10:43:49.144598,5.0,14.0,449.0
2023-05-24-10:43:49.145598,5.0,14.0,449.0
2023-05-24-10:43:49.146554,1.0,12.0,449.0
2023-05-24-10:43:49.147552,3.0,3.0,449.0
2023-05-24-10:43:49.148580,3.0,3.0,449.0
2023-05-24-10:43:49.149580,3.0,3.0,449.0
2023-05-24-10:43:49.150580,5.0,1.0,449.0
2023-05-24-10:43:49.151579,3.0,11.0,449.0
2023-05-24-10:43:49.153556,3.0,11.0,449.0
2023-05-24-10:43:49.154599,2.0,4.0,449.0
2023-05-24-10:43:49.155602,7.0,10.0,449.0
2023-05-24-10:43:49.156598,7.0,10.0,449.0
2023-05-24-10:43:49.157580,7.0,10.0,449.0
2023-05-24-10:43:49.158579,4.0,9.0,449.0
2023-05-24-10:43:49.159599,4.0,8.0,449.0
2023-05-24-10:43:49.160602,3.0,7.0,449.0
2023-05-24-10:43:49.161553,3.0,7.0,449.0
2023-05-24-10:43:49.162553,5.0,7.0,449.0
2023-05-24-10:43:49.163600,3.0,7.0,449.0
2023-05-24-10:43:49.164599,4.0,4.0,449.0
2023-05-24-10:43:49.165600,4.0,4.0,449.0
2023-05-24-10:43:49.166600,4.0,4.0,449.0
2023-05-24-10:43:49.167600,3.0,7.0,449.0
2023-05-24-10:43:49.169578,3.0,7.0,449.0
2023-05-24-10:43:49.169578,3.0,7.0,449.0
2023-05-24-10:43:49.170579,4.0,5.0,449.0
2023-05-24-10:43:49.171582,4.0,5.0,449.0
2023-05-24-10:43:49.172578,4.0,5.0,449.0
2023-05-24-10:43:49.173579,4.0,5.0,449.0
2023-05-24-10:43:49.174579,4.0,5.0,449.0
2023-05-24-10:43:49.175580,3.0,4.0,449.0
2023-05-24-10:43:49.176579,3.0,4.0,449.0
2023-05-24-10:43:49.177579,3.0,4.0,449.0
2023-05-24-10:43:49.178580,3.0,4.0,449.0
2023-05-24-10:43:49.179553,9.0,15.0,449.0
2023-05-24-10:43:49.180589,7.0,17.0,449.0
2023-05-24-10:43:49.181588,7.0,17.0,449.0
2023-05-24-10:43:49.182589,7.0,17.0,449.0
2023-05-24-10:43:49.183588,7.0,12.0,449.0
2023-05-24-10:43:49.184590,7.0,12.0,449.0
2023-05-24-10:43:49.185580,4.0,7.0,449.0
2023-05-24-10:43:49.186579,7.0,8.0,449.0
2023-05-24-10:43:49.187582,5.0,1.0,449.0
2023-05-24-10:43:49.188579,1.0,20.0,449.0
2023-05-24-10:43:49.189580,1.0,8.0,449.0
2023-05-24-10:43:49.190588,1.0,8.0,449.0
2023-05-24-10:43:49.191580,4.0,1.0,449.0
2023-05-24-10:43:49.192579,3.0,13.0,449.0
2023-05-24-10:43:49.193584,6.0,15.0,449.0
2023-05-24-10:43:49.194592,6.0,15.0,449.0
2023-05-24-10:43:49.195588,8.0,20.0,449.0
2023-05-24-10:43:49.196589,4.0,18.0,449.0
2023-05-24-10:43:49.197588,6.0,6.0,449.0
2023-05-24-10:43:49.198588,6.0,6.0,449.0
2023-05-24-10:43:49.199588,3.0,1.0,449.0
2023-05-24-10:43:49.200590,5.0,2.0,449.0
2023-05-24-10:43:49.201587,5.0,2.0,449.0
2023-05-24-10:43:49.203611,5.0,2.0,449.0
2023-05-24-10:43:49.203611,1.0,0.0,449.0
2023-05-24-10:43:49.204607,1.0,0.0,449.0
2023-05-24-10:43:49.205607,1.0,0.0,449.0
2023-05-24-10:43:49.206565,1.0,0.0,449.0
2023-05-24-10:43:49.207608,4.0,7.0,449.0
2023-05-24-10:43:49.208587,7.0,3.0,449.0
2023-05-24-10:43:49.209608,5.0,2.0,449.0
2023-05-24-10:43:49.210609,5.0,2.0,449.0
2023-05-24-10:43:49.211608,3.0,1.0,449.0
2023-05-24-10:43:49.212581,6.0,2.0,449.0
2023-05-24-10:43:49.213609,5.0,0.0,449.0
2023-05-24-10:43:49.214609,5.0,0.0,449.0
2023-05-24-10:43:49.215610,5.0,0.0,449.0
2023-05-24-10:43:49.216608,5.0,5.0,449.0
2023-05-24-10:43:49.217608,4.0,1.0,449.0
2023-05-24-10:43:49.218608,6.0,7.0,449.0
2023-05-24-10:43:49.219610,6.0,7.0,449.0
2023-05-24-10:43:49.220608,7.0,4.0,449.0
2023-05-24-10:43:49.221607,5.0,3.0,449.0
2023-05-24-10:43:49.222612,5.0,3.0,449.0
2023-05-24-10:43:49.223608,5.0,3.0,449.0
2023-05-24-10:43:49.224612,6.0,3.0,449.0
2023-05-24-10:43:49.225554,5.0,2.0,449.0
2023-05-24-10:43:49.226589,5.0,2.0,449.0
2023-05-24-10:43:49.227591,5.0,2.0,449.0
2023-05-24-10:43:49.228589,6.0,11.0,449.0
2023-05-24-10:43:49.229592,5.0,20.0,449.0
2023-05-24-10:43:49.230589,4.0,10.0,449.0
2023-05-24-10:43:49.231588,4.0,10.0,449.0
2023-05-24-10:43:49.232587,1.0,5.0,449.0
2023-05-24-10:43:49.233587,5.0,1.0,449.0
2023-05-24-10:43:49.235590,5.0,1.0,449.0
2023-05-24-10:43:49.235590,9.0,1.0,449.0
2023-05-24-10:43:49.236553,4.0,15.0,449.0
2023-05-24-10:43:49.237607,6.0,0.0,449.0
2023-05-24-10:43:49.238607,6.0,0.0,449.0
2023-05-24-10:43:49.239606,6.0,0.0,449.0
2023-05-24-10:43:49.240608,3.0,7.0,449.0
2023-05-24-10:43:49.241587,1.0,5.0,449.0
2023-05-24-10:43:49.242579,1.0,5.0,449.0
2023-05-24-10:43:49.243553,1.0,5.0,449.0
2023-05-24-10:43:49.244588,5.0,3.0,449.0
2023-05-24-10:43:49.245588,7.0,2.0,449.0
2023-05-24-10:43:49.246590,6.0,5.0,449.0
2023-05-24-10:43:49.247553,6.0,5.0,449.0
2023-05-24-10:43:49.248590,6.0,5.0,449.0
2023-05-24-10:43:49.249587,6.0,9.0,449.0
2023-05-24-10:43:49.250587,7.0,9.0,449.0
2023-05-24-10:43:49.251586,7.0,9.0,449.0
2023-05-24-10:43:49.252588,4.0,2.0,449.0
2023-05-24-10:43:49.253589,6.0,6.0,449.0
2023-05-24-10:43:49.254588,6.0,13.0,449.0
2023-05-24-10:43:49.255589,6.0,13.0,449.0
2023-05-24-10:43:49.256587,6.0,13.0,449.0
2023-05-24-10:43:49.257554,5.0,14.0,449.0
2023-05-24-10:43:49.258588,3.0,10.0,449.0
2023-05-24-10:43:49.259587,3.0,10.0,449.0
2023-05-24-10:43:49.260589,3.0,10.0,449.0
2023-05-24-10:43:49.261551,2.0,24.0,449.0
2023-05-24-10:43:49.262552,2.0,24.0,449.0
2023-05-24-10:43:49.263553,2.0,24.0,449.0
2023-05-24-10:43:49.264587,2.0,24.0,449.0
2023-05-24-10:43:49.265555,3.0,16.0,449.0
2023-05-24-10:43:49.266554,7.0,2.0,449.0
2023-05-24-10:43:49.267552,7.0,2.0,449.0
2023-05-24-10:43:49.268556,7.0,2.0,449.0
2023-05-24-10:43:49.270578,5.0,5.0,449.0
2023-05-24-10:43:49.271553,5.0,11.0,449.0
2023-05-24-10:43:49.271553,4.0,7.0,449.0
2023-05-24-10:43:49.272551,4.0,7.0,449.0
2023-05-24-10:43:49.273552,5.0,9.0,449.0
2023-05-24-10:43:49.274551,6.0,10.0,449.0
2023-05-24-10:43:49.275553,6.0,10.0,449.0
2023-05-24-10:43:49.276559,6.0,10.0,449.0
2023-05-24-10:43:49.277554,5.0,8.0,449.0
2023-05-24-10:43:49.278555,3.0,7.0,449.0
2023-05-24-10:43:49.279556,4.0,7.0,448.0
2023-05-24-10:43:49.280555,3.0,8.0,448.0
2023-05-24-10:43:49.281557,5.0,6.0,449.0
2023-05-24-10:43:49.282555,6.0,4.0,448.0
2023-05-24-10:43:49.283555,5.0,3.0,449.0
2023-05-24-10:43:49.284556,5.0,3.0,449.0
2023-05-24-10:43:49.285553,2.0,8.0,448.0
2023-05-24-10:43:49.286578,2.0,8.0,448.0
2023-05-24-10:43:49.287552,2.0,8.0,448.0
2023-05-24-10:43:49.288551,2.0,8.0,448.0
2023-05-24-10:43:49.289555,4.0,2.0,449.0
2023-05-24-10:43:49.290554,7.0,2.0,449.0
2023-05-24-10:43:49.291552,0.0,2.0,449.0
2023-05-24-10:43:49.292555,0.0,2.0,449.0
2023-05-24-10:43:49.293553,4.0,1.0,449.0
2023-05-24-10:43:49.294555,5.0,4.0,449.0
2023-05-24-10:43:49.295555,5.0,3.0,449.0
2023-05-24-10:43:49.296557,5.0,3.0,449.0
2023-05-24-10:43:49.297555,5.0,3.0,448.0
2023-05-24-10:43:49.298554,5.0,3.0,448.0
2023-05-24-10:43:49.299553,5.0,3.0,448.0
2023-05-24-10:43:49.300555,5.0,3.0,448.0
2023-05-24-10:43:49.301551,5.0,3.0,448.0
2023-05-24-10:43:49.303554,5.0,5.0,449.0
2023-05-24-10:43:49.303554,4.0,3.0,449.0
2023-05-24-10:43:49.304553,4.0,3.0,449.0
2023-05-24-10:43:49.305554,4.0,3.0,449.0
2023-05-24-10:43:49.306555,3.0,7.0,449.0
2023-05-24-10:43:49.307553,3.0,9.0,449.0
2023-05-24-10:43:49.308553,4.0,9.0,448.0
2023-05-24-10:43:49.309553,4.0,9.0,448.0
2023-05-24-10:43:49.310553,4.0,8.0,449.0
2023-05-24-10:43:49.311553,3.0,1.0,448.0
2023-05-24-10:43:49.312552,3.0,1.0,448.0
2023-05-24-10:43:49.313552,3.0,1.0,448.0
2023-05-24-10:43:49.314553,2.0,2.0,448.0
2023-05-24-10:43:49.315553,4.0,4.0,449.0
2023-05-24-10:43:49.316552,9.0,1.0,449.0
2023-05-24-10:43:49.317552,9.0,1.0,449.0
2023-05-24-10:43:49.318553,10.0,6.0,449.0
2023-05-24-10:43:49.319552,7.0,9.0,449.0
2023-05-24-10:43:49.320554,5.0,5.0,449.0
2023-05-24-10:43:49.321553,5.0,5.0,449.0
2023-05-24-10:43:49.322553,4.0,6.0,449.0
2023-05-24-10:43:49.323553,5.0,7.0,449.0
2023-05-24-10:43:49.324551,5.0,7.0,449.0
2023-05-24-10:43:49.325555,5.0,7.0,449.0
2023-05-24-10:43:49.326587,3.0,5.0,449.0
2023-05-24-10:43:49.327555,3.0,7.0,449.0
2023-05-24-10:43:49.328587,5.0,5.0,449.0
2023-05-24-10:43:49.329553,5.0,7.0,449.0
2023-05-24-10:43:49.330556,4.0,3.0,449.0
2023-05-24-10:43:49.331556,6.0,3.0,449.0
2023-05-24-10:43:49.332556,6.0,3.0,449.0
2023-05-24-10:43:49.333556,6.0,3.0,449.0
2023-05-24-10:43:49.334556,5.0,1.0,449.0
2023-05-24-10:43:49.335555,5.0,1.0,449.0
2023-05-24-10:43:49.336554,5.0,1.0,449.0
2023-05-24-10:43:49.337554,5.0,1.0,449.0
2023-05-24-10:43:49.339554,4.0,3.0,449.0
2023-05-24-10:43:49.339554,4.0,3.0,449.0
2023-05-24-10:43:49.340554,4.0,3.0,449.0
2023-05-24-10:43:49.341555,4.0,3.0,449.0
2023-05-24-10:43:49.342553,4.0,3.0,449.0
2023-05-24-10:43:49.343587,4.0,1.0,449.0
2023-05-24-10:43:49.344590,7.0,1.0,449.0
2023-05-24-10:43:49.345578,5.0,5.0,449.0
2023-05-24-10:43:49.346555,5.0,5.0,449.0
2023-05-24-10:43:49.347584,4.0,4.0,449.0
2023-05-24-10:43:49.348578,4.0,7.0,449.0
2023-05-24-10:43:49.349553,4.0,7.0,449.0
2023-05-24-10:43:49.350553,4.0,7.0,449.0
2023-05-24-10:43:49.351551,5.0,9.0,449.0
2023-05-24-10:43:49.352555,6.0,14.0,449.0
2023-05-24-10:43:49.353555,10.0,30.0,449.0
2023-05-24-10:43:49.354577,9.0,29.0,449.0
2023-05-24-10:43:49.355577,8.0,20.0,449.0
2023-05-24-10:43:49.356553,4.0,8.0,449.0
2023-05-24-10:43:49.357551,4.0,8.0,449.0
2023-05-24-10:43:49.358551,4.0,8.0,449.0
2023-05-24-10:43:49.359552,2.0,2.0,449.0
2023-05-24-10:43:49.360552,4.0,39.0,449.0
2023-05-24-10:43:49.361552,3.0,33.0,449.0
2023-05-24-10:43:49.362552,3.0,33.0,449.0
2023-05-24-10:43:49.363553,1.0,11.0,449.0
2023-05-24-10:43:49.365553,4.0,7.0,448.0
2023-05-24-10:43:49.366552,6.0,8.0,449.0
2023-05-24-10:43:49.366552,2.0,0.0,449.0
2023-05-24-10:43:49.367552,1.0,1.0,449.0
2023-05-24-10:43:49.368554,7.0,14.0,449.0
2023-05-24-10:43:49.369589,7.0,14.0,449.0
2023-05-24-10:43:49.370553,7.0,14.0,449.0
2023-05-24-10:43:49.371588,4.0,13.0,449.0
2023-05-24-10:43:49.372556,4.0,5.0,449.0
2023-05-24-10:43:49.374555,4.0,5.0,449.0
2023-05-24-10:43:49.374555,4.0,13.0,448.0
2023-05-24-10:43:49.375587,6.0,11.0,448.0
2023-05-24-10:43:49.376595,6.0,11.0,448.0
2023-05-24-10:43:49.377587,6.0,11.0,448.0
2023-05-24-10:43:49.378553,6.0,11.0,448.0
2023-05-24-10:43:49.379553,6.0,6.0,448.0
2023-05-24-10:43:49.380589,4.0,2.0,449.0
2023-05-24-10:43:49.381555,3.0,3.0,449.0
2023-05-24-10:43:49.382553,3.0,3.0,449.0
2023-05-24-10:43:49.383580,3.0,0.0,449.0
2023-05-24-10:43:49.384578,5.0,0.0,449.0
2023-05-24-10:43:49.385578,5.0,0.0,449.0
2023-05-24-10:43:49.386588,5.0,0.0,449.0
2023-05-24-10:43:49.387553,5.0,0.0,449.0
2023-05-24-10:43:49.388588,1.0,10.0,449.0
2023-05-24-10:43:49.389579,3.0,7.0,449.0
2023-05-24-10:43:49.390554,3.0,7.0,449.0
2023-05-24-10:43:49.391579,6.0,10.0,449.0
2023-05-24-10:43:49.392586,5.0,9.0,449.0
2023-05-24-10:43:49.393571,7.0,13.0,449.0
2023-05-24-10:43:49.394588,7.0,13.0,449.0
2023-05-24-10:43:49.395556,7.0,13.0,449.0
2023-05-24-10:43:49.396556,4.0,10.0,449.0
2023-05-24-10:43:49.397587,5.0,4.0,449.0
2023-05-24-10:43:49.398578,6.0,1.0,449.0
2023-05-24-10:43:49.399589,6.0,1.0,449.0
2023-05-24-10:43:49.400580,3.0,9.0,449.0
2023-05-24-10:43:49.401578,8.0,2.0,449.0
2023-05-24-10:43:49.402579,8.0,2.0,449.0
2023-05-24-10:43:49.403578,8.0,2.0,449.0
2023-05-24-10:43:49.404589,4.0,4.0,449.0
2023-05-24-10:43:49.405579,4.0,4.0,449.0
2023-05-24-10:43:49.407579,4.0,10.0,449.0
2023-05-24-10:43:49.407579,4.0,10.0,449.0
2023-05-24-10:43:49.408579,7.0,7.0,449.0
2023-05-24-10:43:49.409578,6.0,8.0,449.0
2023-05-24-10:43:49.410578,6.0,8.0,449.0
2023-05-24-10:43:49.411581,6.0,8.0,449.0
2023-05-24-10:43:49.412579,7.0,10.0,449.0
2023-05-24-10:43:49.413555,3.0,1.0,449.0
2023-05-24-10:43:49.414579,3.0,1.0,449.0
2023-05-24-10:43:49.415553,3.0,1.0,449.0
2023-05-24-10:43:49.416578,7.0,8.0,449.0
2023-05-24-10:43:49.417578,6.0,8.0,449.0
2023-05-24-10:43:49.418578,5.0,16.0,449.0
2023-05-24-10:43:49.419554,5.0,16.0,449.0
2023-05-24-10:43:49.420600,5.0,12.0,449.0
2023-05-24-10:43:49.421600,2.0,7.0,449.0
2023-05-24-10:43:49.422599,2.0,7.0,449.0
2023-05-24-10:43:49.423601,1.0,14.0,449.0
2023-05-24-10:43:49.424599,1.0,17.0,449.0
2023-05-24-10:43:49.425599,5.0,1.0,449.0
2023-05-24-10:43:49.426605,2.0,5.0,449.0
2023-05-24-10:43:49.427601,2.0,5.0,449.0
2023-05-24-10:43:49.428552,6.0,2.0,449.0
2023-05-24-10:43:49.429552,6.0,2.0,449.0
2023-05-24-10:43:49.430580,3.0,1.0,449.0
2023-05-24-10:43:49.431580,3.0,1.0,449.0
2023-05-24-10:43:49.432581,3.0,1.0,449.0
2023-05-24-10:43:49.433553,5.0,7.0,449.0
2023-05-24-10:43:49.434579,8.0,17.0,449.0
2023-05-24-10:43:49.435579,6.0,28.0,449.0
2023-05-24-10:43:49.436579,6.0,28.0,449.0
2023-05-24-10:43:49.437579,8.0,22.0,449.0
2023-05-24-10:43:49.438580,8.0,16.0,449.0
2023-05-24-10:43:49.439580,8.0,16.0,449.0
2023-05-24-10:43:49.440581,7.0,3.0,449.0
2023-05-24-10:43:49.442578,5.0,9.0,449.0
2023-05-24-10:43:49.442578,3.0,15.0,449.0
2023-05-24-10:43:49.443601,3.0,15.0,449.0
2023-05-24-10:43:49.444578,3.0,15.0,449.0
2023-05-24-10:43:49.445599,3.0,15.0,449.0
2023-05-24-10:43:49.446581,5.0,1.0,449.0
2023-05-24-10:43:49.447580,5.0,4.0,449.0
2023-05-24-10:43:49.448598,5.0,4.0,449.0
2023-05-24-10:43:49.449599,5.0,0.0,449.0
2023-05-24-10:43:49.450603,9.0,1.0,449.0
2023-05-24-10:43:49.451599,7.0,4.0,449.0
2023-05-24-10:43:49.452605,7.0,4.0,449.0
2023-05-24-10:43:49.453579,7.0,7.0,449.0
2023-05-24-10:43:49.454600,6.0,3.0,449.0
2023-05-24-10:43:49.455600,6.0,3.0,449.0
2023-05-24-10:43:49.456553,6.0,3.0,449.0
2023-05-24-10:43:49.457599,4.0,2.0,449.0
2023-05-24-10:43:49.458600,0.0,5.0,449.0
2023-05-24-10:43:49.459581,0.0,5.0,449.0
2023-05-24-10:43:49.460553,0.0,5.0,449.0
2023-05-24-10:43:49.461602,2.0,4.0,449.0
2023-05-24-10:43:49.462603,1.0,7.0,449.0
2023-05-24-10:43:49.463600,5.0,8.0,449.0
2023-05-24-10:43:49.464596,5.0,8.0,449.0
2023-05-24-10:43:49.465599,4.0,6.0,449.0
2023-05-24-10:43:49.466599,8.0,7.0,449.0
2023-05-24-10:43:49.467599,4.0,3.0,449.0
2023-05-24-10:43:49.468599,4.0,3.0,449.0
2023-05-24-10:43:49.469600,4.0,3.0,449.0
2023-05-24-10:43:49.470599,9.0,2.0,449.0
2023-05-24-10:43:49.471600,8.0,1.0,449.0
2023-05-24-10:43:49.472604,8.0,1.0,449.0
2023-05-24-10:43:49.473599,4.0,6.0,449.0
2023-05-24-10:43:49.476577,4.0,7.0,449.0
2023-05-24-10:43:49.476577,4.0,7.0,449.0
2023-05-24-10:43:49.477553,2.0,0.0,449.0
2023-05-24-10:43:49.478603,2.0,1.0,449.0
2023-05-24-10:43:49.479580,7.0,0.0,449.0
2023-05-24-10:43:49.480598,7.0,0.0,449.0
2023-05-24-10:43:49.481598,7.0,0.0,449.0
2023-05-24-10:43:49.482602,7.0,4.0,449.0
2023-05-24-10:43:49.483604,10.0,6.0,449.0
2023-05-24-10:43:49.484600,9.0,9.0,449.0
2023-05-24-10:43:49.485600,9.0,9.0,449.0
2023-05-24-10:43:49.486598,5.0,7.0,449.0
2023-05-24-10:43:49.487600,5.0,5.0,449.0
2023-05-24-10:43:49.488599,2.0,0.0,449.0
2023-05-24-10:43:49.489594,2.0,0.0,449.0
2023-05-24-10:43:49.490599,1.0,1.0,449.0
2023-05-24-10:43:49.491581,1.0,3.0,449.0
2023-05-24-10:43:49.492577,1.0,3.0,449.0
2023-05-24-10:43:49.493586,1.0,3.0,449.0
2023-05-24-10:43:49.494579,4.0,8.0,449.0
2023-05-24-10:43:49.495580,5.0,9.0,449.0
2023-05-24-10:43:49.496580,7.0,12.0,449.0
2023-05-24-10:43:49.497578,7.0,12.0,449.0
2023-05-24-10:43:49.498579,7.0,11.0,449.0
2023-05-24-10:43:49.499584,11.0,23.0,449.0
2023-05-24-10:43:49.500580,7.0,12.0,449.0
2023-05-24-10:43:49.501552,7.0,12.0,449.0
2023-05-24-10:43:49.502580,9.0,0.0,449.0
2023-05-24-10:43:49.503579,2.0,11.0,449.0
2023-05-24-10:43:49.504585,5.0,10.0,449.0
2023-05-24-10:43:49.505551,5.0,10.0,449.0
2023-05-24-10:43:49.506579,6.0,10.0,449.0
2023-05-24-10:43:49.507582,6.0,10.0,449.0
2023-05-24-10:43:49.508579,5.0,17.0,449.0
2023-05-24-10:43:49.509580,7.0,3.0,449.0
2023-05-24-10:43:49.511580,1.0,10.0,449.0
2023-05-24-10:43:49.511580,6.0,15.0,449.0
2023-05-24-10:43:49.512578,6.0,15.0,449.0
2023-05-24-10:43:49.513602,6.0,15.0,449.0
2023-05-24-10:43:49.514570,6.0,15.0,449.0
2023-05-24-10:43:49.515578,4.0,9.0,449.0
2023-05-24-10:43:49.516578,1.0,3.0,449.0
2023-05-24-10:43:49.517578,1.0,3.0,449.0
2023-05-24-10:43:49.518580,1.0,3.0,449.0
2023-05-24-10:43:49.519580,4.0,3.0,449.0
2023-05-24-10:43:49.520581,5.0,4.0,449.0
2023-05-24-10:43:49.521555,7.0,0.0,449.0
2023-05-24-10:43:49.522553,7.0,0.0,449.0
2023-05-24-10:43:49.523582,8.0,8.0,449.0
2023-05-24-10:43:49.524591,8.0,8.0,449.0
2023-05-24-10:43:49.525580,9.0,14.0,449.0
2023-05-24-10:43:49.526579,10.0,13.0,449.0
2023-05-24-10:43:49.527579,9.0,8.0,449.0
2023-05-24-10:43:49.528579,4.0,1.0,449.0
2023-05-24-10:43:49.529578,8.0,7.0,449.0
2023-05-24-10:43:49.530555,8.0,7.0,449.0
2023-05-24-10:43:49.531579,6.0,0.0,449.0
2023-05-24-10:43:49.532552,2.0,0.0,449.0
2023-05-24-10:43:49.533583,6.0,7.0,449.0
2023-05-24-10:43:49.534580,6.0,7.0,449.0
2023-05-24-10:43:49.535579,3.0,11.0,449.0
2023-05-24-10:43:49.536578,3.0,6.0,449.0
2023-05-24-10:43:49.538552,5.0,10.0,449.0
2023-05-24-10:43:49.538552,5.0,10.0,449.0
2023-05-24-10:43:49.539582,4.0,2.0,449.0
2023-05-24-10:43:49.540586,4.0,2.0,449.0
2023-05-24-10:43:49.541568,4.0,2.0,449.0
2023-05-24-10:43:49.543579,4.0,2.0,449.0
2023-05-24-10:43:49.543579,5.0,4.0,449.0
2023-05-24-10:43:49.544598,5.0,5.0,449.0
2023-05-24-10:43:49.545599,5.0,7.0,449.0
2023-05-24-10:43:49.546553,5.0,7.0,449.0
2023-05-24-10:43:49.547579,7.0,13.0,449.0
2023-05-24-10:43:49.548600,7.0,13.0,449.0
2023-05-24-10:43:49.549599,7.0,13.0,449.0
2023-05-24-10:43:49.550599,7.0,13.0,449.0
2023-05-24-10:43:49.551600,6.0,13.0,449.0
2023-05-24-10:43:49.552599,7.0,10.0,449.0
2023-05-24-10:43:49.553599,8.0,18.0,449.0
2023-05-24-10:43:49.554599,8.0,18.0,449.0
2023-05-24-10:43:49.555602,6.0,22.0,449.0
2023-05-24-10:43:49.556605,0.0,3.0,449.0
2023-05-24-10:43:49.557598,1.0,4.0,449.0
2023-05-24-10:43:49.558578,1.0,4.0,449.0
2023-05-24-10:43:49.559580,1.0,4.0,449.0
2023-05-24-10:43:49.560594,6.0,7.0,449.0
2023-05-24-10:43:49.561552,6.0,7.0,449.0
2023-05-24-10:43:49.562584,6.0,7.0,449.0
2023-05-24-10:43:49.563554,6.0,7.0,449.0
2023-05-24-10:43:49.564580,6.0,10.0,449.0
2023-05-24-10:43:49.565579,6.0,4.0,449.0
2023-05-24-10:43:49.566580,6.0,4.0,449.0
2023-05-24-10:43:49.567579,6.0,4.0,449.0
2023-05-24-10:43:49.568582,7.0,2.0,449.0
2023-05-24-10:43:49.569579,8.0,13.0,449.0
2023-05-24-10:43:49.570580,4.0,14.0,449.0
2023-05-24-10:43:49.571582,4.0,14.0,449.0
2023-05-24-10:43:49.572581,4.0,11.0,449.0
2023-05-24-10:43:49.573580,4.0,1.0,449.0
2023-05-24-10:43:49.574579,4.0,1.0,449.0
2023-05-24-10:43:49.575580,4.0,1.0,449.0
2023-05-24-10:43:49.576580,4.0,2.0,449.0
2023-05-24-10:43:49.578578,6.0,7.0,449.0
2023-05-24-10:43:49.578578,6.0,4.0,449.0
2023-05-24-10:43:49.579552,6.0,4.0,449.0
2023-05-24-10:43:49.580591,4.0,6.0,449.0
2023-05-24-10:43:49.581577,6.0,1.0,449.0
2023-05-24-10:43:49.582580,6.0,1.0,449.0
2023-05-24-10:43:49.583579,6.0,1.0,449.0
2023-05-24-10:43:49.584582,6.0,1.0,449.0
2023-05-24-10:43:49.585578,6.0,6.0,449.0
2023-05-24-10:43:49.586599,6.0,6.0,449.0
2023-05-24-10:43:49.587552,6.0,6.0,449.0
2023-05-24-10:43:49.588601,6.0,5.0,449.0
2023-05-24-10:43:49.589599,3.0,1.0,449.0
2023-05-24-10:43:49.590603,11.0,2.0,449.0
2023-05-24-10:43:49.591597,11.0,2.0,449.0
2023-05-24-10:43:49.592599,4.0,0.0,449.0
2023-05-24-10:43:49.593578,6.0,4.0,449.0
2023-05-24-10:43:49.594579,6.0,4.0,449.0
2023-05-24-10:43:49.595578,6.0,4.0,449.0
2023-05-24-10:43:49.596553,6.0,4.0,449.0
2023-05-24-10:43:49.597579,2.0,6.0,449.0
2023-05-24-10:43:49.598580,4.0,12.0,449.0
2023-05-24-10:43:49.599581,4.0,12.0,449.0
2023-05-24-10:43:49.600581,4.0,12.0,449.0
2023-05-24-10:43:49.601579,7.0,15.0,449.0
2023-05-24-10:43:49.602579,2.0,1.0,449.0
2023-05-24-10:43:49.603582,2.0,10.0,449.0
2023-05-24-10:43:49.604580,2.0,10.0,449.0
2023-05-24-10:43:49.605580,7.0,10.0,449.0
2023-05-24-10:43:49.606580,4.0,3.0,449.0
2023-05-24-10:43:49.607580,4.0,3.0,449.0
2023-05-24-10:43:49.608580,4.0,3.0,449.0
2023-05-24-10:43:49.609579,3.0,7.0,449.0
2023-05-24-10:43:49.611577,3.0,7.0,449.0
2023-05-24-10:43:49.611577,3.0,7.0,449.0
2023-05-24-10:43:49.612600,3.0,7.0,449.0
2023-05-24-10:43:49.613600,6.0,1.0,449.0
2023-05-24-10:43:49.614573,6.0,1.0,449.0
2023-05-24-10:43:49.615578,6.0,1.0,449.0
2023-05-24-10:43:49.616608,6.0,1.0,449.0
2023-05-24-10:43:49.617608,5.0,0.0,449.0
2023-05-24-10:43:49.618608,4.0,5.0,449.0
2023-05-24-10:43:49.619602,4.0,4.0,449.0
2023-05-24-10:43:49.620607,4.0,4.0,449.0
2023-05-24-10:43:49.621599,3.0,5.0,449.0
2023-05-24-10:43:49.622603,5.0,9.0,449.0
2023-05-24-10:43:49.623599,7.0,6.0,449.0
2023-05-24-10:43:49.624553,7.0,6.0,449.0
2023-05-24-10:43:49.625612,5.0,2.0,449.0
2023-05-24-10:43:49.626608,4.0,2.0,449.0
2023-05-24-10:43:49.627579,5.0,2.0,449.0
2023-05-24-10:43:49.628553,5.0,2.0,449.0
2023-05-24-10:43:49.629578,1.0,1.0,449.0
2023-05-24-10:43:49.630580,8.0,6.0,449.0
2023-05-24-10:43:49.631555,8.0,6.0,449.0
2023-05-24-10:43:49.632553,8.0,6.0,449.0
2023-05-24-10:43:49.633579,5.0,5.0,449.0
2023-05-24-10:43:49.634580,7.0,8.0,449.0
2023-05-24-10:43:49.635582,5.0,15.0,449.0
2023-05-24-10:43:49.636578,5.0,15.0,449.0
2023-05-24-10:43:49.637580,4.0,4.0,449.0
2023-05-24-10:43:49.638579,4.0,9.0,449.0
2023-05-24-10:43:49.639579,4.0,9.0,449.0
2023-05-24-10:43:49.640578,4.0,9.0,449.0
2023-05-24-10:43:49.641579,4.0,9.0,449.0
2023-05-24-10:43:49.642580,4.0,5.0,449.0
2023-05-24-10:43:49.643579,4.0,8.0,449.0
2023-05-24-10:43:49.644580,4.0,8.0,449.0
2023-05-24-10:43:49.646579,5.0,5.0,449.0
2023-05-24-10:43:49.646579,3.0,4.0,449.0
2023-05-24-10:43:49.647579,3.0,4.0,449.0
2023-05-24-10:43:49.648576,3.0,4.0,449.0
2023-05-24-10:43:49.649579,3.0,4.0,449.0
2023-05-24-10:43:49.650580,5.0,6.0,449.0
2023-05-24-10:43:49.651582,5.0,3.0,449.0
2023-05-24-10:43:49.652579,3.0,2.0,449.0
2023-05-24-10:43:49.653580,3.0,2.0,449.0
2023-05-24-10:43:49.654583,7.0,2.0,449.0
2023-05-24-10:43:49.655579,6.0,8.0,449.0
2023-05-24-10:43:49.656579,5.0,7.0,449.0
2023-05-24-10:43:49.657579,5.0,7.0,449.0
2023-05-24-10:43:49.658579,5.0,6.0,449.0
2023-05-24-10:43:49.659579,3.0,5.0,449.0
2023-05-24-10:43:49.660580,4.0,5.0,449.0
2023-05-24-10:43:49.661579,4.0,5.0,449.0
2023-05-24-10:43:49.662579,3.0,1.0,449.0
2023-05-24-10:43:49.663581,4.0,1.0,449.0
2023-05-24-10:43:49.664582,1.0,3.0,449.0
2023-05-24-10:43:49.665579,1.0,3.0,449.0
2023-05-24-10:43:49.666579,1.0,4.0,449.0
2023-05-24-10:43:49.667582,6.0,5.0,449.0
2023-05-24-10:43:49.668580,5.0,3.0,449.0
2023-05-24-10:43:49.669553,5.0,3.0,449.0
2023-05-24-10:43:49.670579,6.0,1.0,449.0
2023-05-24-10:43:49.671579,6.0,2.0,449.0
2023-05-24-10:43:49.672579,5.0,4.0,449.0
2023-05-24-10:43:49.673552,5.0,4.0,449.0
2023-05-24-10:43:49.674580,2.0,4.0,449.0
2023-05-24-10:43:49.675579,3.0,5.0,449.0
2023-05-24-10:43:49.676580,3.0,8.0,449.0
2023-05-24-10:43:49.677579,3.0,8.0,449.0
2023-05-24-10:43:49.679578,3.0,8.0,449.0
2023-05-24-10:43:49.679578,5.0,5.0,449.0
2023-05-24-10:43:49.680584,7.0,5.0,449.0
2023-05-24-10:43:49.681598,7.0,5.0,449.0
2023-05-24-10:43:49.682599,7.0,5.0,449.0
2023-05-24-10:43:49.683602,4.0,8.0,449.0
2023-05-24-10:43:49.684599,7.0,3.0,449.0
2023-05-24-10:43:49.685598,7.0,3.0,449.0
2023-05-24-10:43:49.686603,7.0,3.0,449.0
2023-05-24-10:43:49.687599,2.0,0.0,449.0
2023-05-24-10:43:49.688598,4.0,3.0,449.0
2023-05-24-10:43:49.689598,4.0,3.0,449.0
2023-05-24-10:43:49.690609,4.0,3.0,449.0
2023-05-24-10:43:49.691608,5.0,2.0,449.0
2023-05-24-10:43:49.692610,8.0,10.0,449.0
2023-05-24-10:43:49.693609,8.0,10.0,449.0
2023-05-24-10:43:49.694609,8.0,10.0,449.0
2023-05-24-10:43:49.695588,4.0,0.0,449.0
2023-05-24-10:43:49.696590,5.0,1.0,449.0
2023-05-24-10:43:49.697593,5.0,1.0,449.0
2023-05-24-10:43:49.698588,5.0,1.0,449.0
2023-05-24-10:43:49.699591,5.0,4.0,449.0
2023-05-24-10:43:49.700588,5.0,6.0,449.0
2023-05-24-10:43:49.701589,6.0,5.0,449.0
2023-05-24-10:43:49.702592,6.0,5.0,449.0
2023-05-24-10:43:49.703588,6.0,6.0,449.0
2023-05-24-10:43:49.704588,4.0,4.0,449.0
2023-05-24-10:43:49.705588,4.0,4.0,449.0
2023-05-24-10:43:49.706588,4.0,4.0,449.0
2023-05-24-10:43:49.707588,4.0,8.0,449.0
2023-05-24-10:43:49.708589,4.0,3.0,449.0
2023-05-24-10:43:49.709589,4.0,1.0,449.0
2023-05-24-10:43:49.710553,4.0,1.0,449.0
2023-05-24-10:43:49.712590,5.0,3.0,449.0
2023-05-24-10:43:49.712590,6.0,2.0,449.0
2023-05-24-10:43:49.713591,6.0,2.0,449.0
2023-05-24-10:43:49.714553,6.0,2.0,449.0
2023-05-24-10:43:49.715613,8.0,3.0,449.0
2023-05-24-10:43:49.716610,3.0,10.0,449.0
2023-05-24-10:43:49.717610,4.0,3.0,449.0
2023-05-24-10:43:49.718579,4.0,3.0,449.0
2023-05-24-10:43:49.719616,4.0,3.0,449.0
2023-05-24-10:43:49.720588,5.0,3.0,449.0
2023-05-24-10:43:49.721588,5.0,3.0,449.0
2023-05-24-10:43:49.722588,5.0,3.0,449.0
2023-05-24-10:43:49.723588,3.0,4.0,449.0
2023-05-24-10:43:49.724589,6.0,10.0,449.0
2023-05-24-10:43:49.725588,4.0,9.0,449.0
2023-05-24-10:43:49.726589,4.0,9.0,449.0
2023-05-24-10:43:49.727569,4.0,9.0,449.0
2023-05-24-10:43:49.728590,8.0,1.0,449.0
2023-05-24-10:43:49.729612,2.0,6.0,449.0
2023-05-24-10:43:49.730591,2.0,6.0,449.0
2023-05-24-10:43:49.731591,2.0,6.0,449.0
2023-05-24-10:43:49.732588,4.0,9.0,449.0
2023-05-24-10:43:49.733589,5.0,11.0,449.0
2023-05-24-10:43:49.734591,5.0,11.0,449.0
2023-05-24-10:43:49.735591,5.0,11.0,449.0
2023-05-24-10:43:49.736588,7.0,4.0,449.0
2023-05-24-10:43:49.737588,8.0,3.0,449.0
2023-05-24-10:43:49.738589,8.0,3.0,449.0
2023-05-24-10:43:49.739588,8.0,3.0,449.0
2023-05-24-10:43:49.740589,4.0,3.0,449.0
2023-05-24-10:43:49.741588,5.0,5.0,449.0
2023-05-24-10:43:49.742589,4.0,8.0,449.0
2023-05-24-10:43:49.743554,4.0,8.0,449.0
2023-05-24-10:43:49.744553,6.0,5.0,449.0
2023-05-24-10:43:49.746602,6.0,5.0,449.0
2023-05-24-10:43:49.746602,6.0,5.0,449.0
2023-05-24-10:43:49.747554,3.0,6.0,449.0
2023-05-24-10:43:49.748588,6.0,3.0,449.0
2023-05-24-10:43:49.749588,4.0,2.0,449.0
2023-05-24-10:43:49.750579,4.0,2.0,449.0
2023-05-24-10:43:49.751589,4.0,2.0,449.0
2023-05-24-10:43:49.752588,1.0,0.0,449.0
2023-05-24-10:43:49.753588,7.0,6.0,449.0
2023-05-24-10:43:49.754588,7.0,7.0,449.0
2023-05-24-10:43:49.755553,7.0,7.0,449.0
2023-05-24-10:43:49.756589,5.0,3.0,449.0
2023-05-24-10:43:49.757588,4.0,5.0,449.0
2023-05-24-10:43:49.758589,4.0,5.0,449.0
2023-05-24-10:43:49.759553,4.0,5.0,449.0
2023-05-24-10:43:49.760610,5.0,9.0,449.0
2023-05-24-10:43:49.761611,5.0,9.0,449.0
2023-05-24-10:43:49.762588,4.0,8.0,449.0
2023-05-24-10:43:49.763592,2.0,7.0,449.0
2023-05-24-10:43:49.764588,7.0,9.0,449.0
2023-05-24-10:43:49.765588,5.0,1.0,449.0
2023-05-24-10:43:49.766589,5.0,1.0,449.0
2023-05-24-10:43:49.767589,5.0,1.0,449.0
2023-05-24-10:43:49.768588,5.0,1.0,449.0
2023-05-24-10:43:49.769588,5.0,2.0,449.0
2023-05-24-10:43:49.770589,5.0,7.0,449.0
2023-05-24-10:43:49.771589,5.0,7.0,449.0
2023-05-24-10:43:49.772594,5.0,7.0,449.0
2023-05-24-10:43:49.773588,5.0,6.0,449.0
2023-05-24-10:43:49.774589,2.0,7.0,449.0
2023-05-24-10:43:49.775594,0.0,0.0,449.0
2023-05-24-10:43:49.776590,0.0,0.0,449.0
2023-05-24-10:43:49.777589,3.0,9.0,449.0
2023-05-24-10:43:49.778589,3.0,9.0,449.0
2023-05-24-10:43:49.780589,5.0,9.0,449.0
2023-05-24-10:43:49.780589,4.0,3.0,449.0
2023-05-24-10:43:49.781553,4.0,2.0,449.0
2023-05-24-10:43:49.782603,3.0,0.0,449.0
2023-05-24-10:43:49.783601,3.0,0.0,449.0
2023-05-24-10:43:49.784612,3.0,0.0,449.0
2023-05-24-10:43:49.785610,6.0,5.0,449.0
2023-05-24-10:43:49.786602,9.0,11.0,449.0
2023-05-24-10:43:49.787601,6.0,11.0,449.0
2023-05-24-10:43:49.788610,6.0,11.0,449.0
2023-05-24-10:43:49.789610,6.0,8.0,449.0
2023-05-24-10:43:49.790610,5.0,13.0,449.0
2023-05-24-10:43:49.791609,4.0,2.0,449.0
2023-05-24-10:43:49.792611,4.0,2.0,449.0
2023-05-24-10:43:49.793610,4.0,1.0,449.0
2023-05-24-10:43:49.794601,6.0,4.0,449.0
2023-05-24-10:43:49.795604,3.0,3.0,449.0
2023-05-24-10:43:49.796555,3.0,3.0,449.0
2023-05-24-10:43:49.797601,7.0,10.0,449.0
2023-05-24-10:43:49.798602,11.0,8.0,449.0
2023-05-24-10:43:49.799602,11.0,8.0,449.0
2023-05-24-10:43:49.800553,11.0,8.0,449.0
2023-05-24-10:43:49.801592,8.0,5.0,449.0
2023-05-24-10:43:49.802594,3.0,3.0,449.0
2023-05-24-10:43:49.803588,4.0,9.0,449.0
2023-05-24-10:43:49.804557,4.0,9.0,449.0
2023-05-24-10:43:49.805588,7.0,8.0,449.0
2023-05-24-10:43:49.806589,5.0,2.0,449.0
2023-05-24-10:43:49.807588,7.0,8.0,449.0
2023-05-24-10:43:49.808591,7.0,8.0,449.0
2023-05-24-10:43:49.809588,2.0,4.0,449.0
2023-05-24-10:43:49.810588,7.0,9.0,449.0
2023-05-24-10:43:49.811591,8.0,8.0,449.0
2023-05-24-10:43:49.812589,8.0,8.0,449.0
2023-05-24-10:43:49.813598,8.0,8.0,449.0
2023-05-24-10:43:49.814588,2.0,2.0,449.0
2023-05-24-10:43:49.816588,2.0,2.0,449.0
2023-05-24-10:43:49.816588,2.0,2.0,449.0
2023-05-24-10:43:49.817609,5.0,2.0,449.0
2023-05-24-10:43:49.818609,3.0,5.0,449.0
2023-05-24-10:43:49.819609,3.0,5.0,449.0
2023-05-24-10:43:49.820610,3.0,5.0,449.0
2023-05-24-10:43:49.821592,3.0,5.0,449.0
2023-05-24-10:43:49.822610,8.0,10.0,449.0
2023-05-24-10:43:49.823609,2.0,2.0,449.0
2023-05-24-10:43:49.824609,1.0,4.0,449.0
2023-05-24-10:43:49.825611,1.0,4.0,449.0
2023-05-24-10:43:49.826609,4.0,3.0,449.0
2023-05-24-10:43:49.827612,4.0,7.0,449.0
2023-05-24-10:43:49.828609,4.0,2.0,449.0
2023-05-24-10:43:49.829609,4.0,2.0,449.0
2023-05-24-10:43:49.830612,8.0,8.0,449.0
2023-05-24-10:43:49.831609,6.0,5.0,449.0
2023-05-24-10:43:49.832609,6.0,5.0,449.0
2023-05-24-10:43:49.833609,6.0,5.0,449.0
2023-05-24-10:43:49.834610,6.0,3.0,449.0
2023-05-24-10:43:49.835613,5.0,4.0,449.0
2023-05-24-10:43:49.836610,3.0,4.0,449.0
2023-05-24-10:43:49.837614,3.0,4.0,449.0
2023-05-24-10:43:49.838610,5.0,0.0,449.0
2023-05-24-10:43:49.839609,4.0,3.0,449.0
2023-05-24-10:43:49.840609,8.0,3.0,449.0
2023-05-24-10:43:49.841553,8.0,3.0,449.0
2023-05-24-10:43:49.842610,5.0,4.0,449.0
2023-05-24-10:43:49.843612,3.0,7.0,449.0
2023-05-24-10:43:49.844609,4.0,6.0,449.0
2023-05-24-10:43:49.845579,4.0,6.0,449.0
2023-05-24-10:43:49.846588,3.0,6.0,449.0
2023-05-24-10:43:49.847594,7.0,3.0,449.0
2023-05-24-10:43:49.849588,6.0,3.0,449.0
2023-05-24-10:43:49.849588,6.0,3.0,449.0
2023-05-24-10:43:49.850609,7.0,3.0,449.0
2023-05-24-10:43:49.851615,6.0,3.0,449.0
2023-05-24-10:43:49.852610,6.0,3.0,449.0
2023-05-24-10:43:49.853588,6.0,3.0,449.0
2023-05-24-10:43:49.854608,6.0,3.0,449.0
2023-05-24-10:43:49.855609,3.0,1.0,449.0
2023-05-24-10:43:49.856609,7.0,3.0,449.0
2023-05-24-10:43:49.857609,7.0,3.0,449.0
2023-05-24-10:43:49.858580,7.0,3.0,449.0
2023-05-24-10:43:49.859582,1.0,5.0,449.0
2023-05-24-10:43:49.860579,4.0,4.0,449.0
2023-05-24-10:43:49.861580,4.0,4.0,449.0
2023-05-24-10:43:49.862553,4.0,4.0,449.0
2023-05-24-10:43:49.863557,3.0,0.0,449.0
2023-05-24-10:43:49.864578,3.0,0.0,449.0
2023-05-24-10:43:49.865578,3.0,0.0,449.0
2023-05-24-10:43:49.866580,3.0,0.0,449.0
2023-05-24-10:43:49.867579,6.0,10.0,449.0
2023-05-24-10:43:49.868586,3.0,7.0,449.0
2023-05-24-10:43:49.869577,3.0,7.0,449.0
2023-05-24-10:43:49.870600,3.0,7.0,449.0
2023-05-24-10:43:49.871600,6.0,6.0,449.0
2023-05-24-10:43:49.872581,3.0,2.0,449.0
2023-05-24-10:43:49.873579,4.0,3.0,449.0
2023-05-24-10:43:49.874600,4.0,3.0,449.0
2023-05-24-10:43:49.875603,1.0,1.0,449.0
2023-05-24-10:43:49.876598,1.0,10.0,449.0
2023-05-24-10:43:49.877600,6.0,4.0,449.0
2023-05-24-10:43:49.878602,6.0,4.0,449.0
2023-05-24-10:43:49.879599,3.0,1.0,449.0
2023-05-24-10:43:49.880579,3.0,1.0,449.0
2023-05-24-10:43:49.882553,4.0,4.0,449.0
2023-05-24-10:43:49.882553,4.0,4.0,449.0
2023-05-24-10:43:49.883600,7.0,7.0,449.0
2023-05-24-10:43:49.884601,1.0,3.0,449.0
2023-05-24-10:43:49.885599,1.0,3.0,449.0
2023-05-24-10:43:49.886552,1.0,3.0,449.0
2023-05-24-10:43:49.887600,0.0,4.0,449.0
2023-05-24-10:43:49.888599,5.0,1.0,449.0
2023-05-24-10:43:49.889599,1.0,4.0,449.0
2023-05-24-10:43:49.890577,1.0,4.0,449.0
2023-05-24-10:43:49.891602,1.0,3.0,449.0
2023-05-24-10:43:49.892599,6.0,12.0,449.0
2023-05-24-10:43:49.893599,4.0,11.0,449.0
2023-05-24-10:43:49.894602,4.0,11.0,449.0
2023-05-24-10:43:49.895598,2.0,5.0,449.0
2023-05-24-10:43:49.896580,4.0,7.0,449.0
2023-05-24-10:43:49.897598,8.0,12.0,449.0
2023-05-24-10:43:49.898599,8.0,12.0,449.0
2023-05-24-10:43:49.899598,8.0,7.0,449.0
2023-05-24-10:43:49.900605,2.0,6.0,449.0
2023-05-24-10:43:49.901600,3.0,1.0,449.0
2023-05-24-10:43:49.902599,3.0,1.0,449.0
2023-05-24-10:43:49.903600,3.0,1.0,449.0
2023-05-24-10:43:49.904600,2.0,0.0,449.0
2023-05-24-10:43:49.905598,9.0,9.0,449.0
2023-05-24-10:43:49.906599,4.0,10.0,449.0
2023-05-24-10:43:49.907602,4.0,10.0,449.0
2023-05-24-10:43:49.908598,4.0,3.0,449.0
2023-05-24-10:43:49.909599,5.0,3.0,449.0
2023-05-24-10:43:49.910603,6.0,5.0,449.0
2023-05-24-10:43:49.911599,6.0,5.0,449.0
2023-05-24-10:43:49.912598,7.0,8.0,449.0
2023-05-24-10:43:49.913600,2.0,4.0,449.0
2023-05-24-10:43:49.914599,6.0,8.0,449.0
2023-05-24-10:43:49.915599,6.0,8.0,449.0
2023-05-24-10:43:49.916579,5.0,4.0,449.0
2023-05-24-10:43:49.918579,8.0,5.0,449.0
2023-05-24-10:43:49.918579,8.0,5.0,449.0
2023-05-24-10:43:49.919600,8.0,5.0,449.0
2023-05-24-10:43:49.920600,7.0,2.0,449.0
2023-05-24-10:43:49.921600,4.0,0.0,449.0
2023-05-24-10:43:49.922600,3.0,5.0,449.0
2023-05-24-10:43:49.923553,3.0,5.0,449.0
2023-05-24-10:43:49.924579,6.0,10.0,449.0
2023-05-24-10:43:49.925599,3.0,8.0,449.0
2023-05-24-10:43:49.926603,5.0,7.0,449.0
2023-05-24-10:43:49.927552,5.0,7.0,449.0
2023-05-24-10:43:49.928599,6.0,6.0,449.0
2023-05-24-10:43:49.929604,5.0,4.0,449.0
2023-05-24-10:43:49.930595,5.0,1.0,449.0
2023-05-24-10:43:49.931552,5.0,1.0,449.0
2023-05-24-10:43:49.932585,3.0,1.0,449.0
2023-05-24-10:43:49.933580,7.0,8.0,449.0
2023-05-24-10:43:49.934579,7.0,8.0,449.0
2023-05-24-10:43:49.935582,7.0,8.0,449.0
2023-05-24-10:43:49.936581,6.0,1.0,449.0
2023-05-24-10:43:49.937579,5.0,5.0,449.0
2023-05-24-10:43:49.938580,5.0,5.0,449.0
2023-05-24-10:43:49.939581,5.0,5.0,449.0
2023-05-24-10:43:49.940579,5.0,5.0,449.0
2023-05-24-10:43:49.941580,3.0,6.0,449.0
2023-05-24-10:43:49.942579,2.0,1.0,449.0
2023-05-24-10:43:49.943579,2.0,1.0,449.0
2023-05-24-10:43:49.944581,2.0,1.0,449.0
2023-05-24-10:43:49.945554,2.0,3.0,449.0
2023-05-24-10:43:49.946575,3.0,6.0,449.0
2023-05-24-10:43:49.947555,3.0,6.0,449.0
2023-05-24-10:43:49.948568,3.0,6.0,449.0
2023-05-24-10:43:49.949558,3.0,4.0,449.0
2023-05-24-10:43:49.951552,3.0,4.0,449.0
2023-05-24-10:43:49.951552,3.0,4.0,449.0
2023-05-24-10:43:49.952555,5.0,7.0,449.0
2023-05-24-10:43:49.953553,7.0,1.0,449.0
2023-05-24-10:43:49.954553,5.0,4.0,449.0
2023-05-24-10:43:49.955552,5.0,4.0,449.0
2023-05-24-10:43:49.956552,5.0,4.0,449.0
2023-05-24-10:43:49.957552,7.0,4.0,449.0
2023-05-24-10:43:49.958552,4.0,1.0,449.0
2023-05-24-10:43:49.959553,3.0,2.0,449.0
2023-05-24-10:43:49.960588,3.0,2.0,449.0
2023-05-24-10:43:49.961588,3.0,4.0,449.0
2023-05-24-10:43:49.962588,6.0,6.0,449.0
2023-05-24-10:43:49.963554,8.0,11.0,449.0
2023-05-24-10:43:49.964580,8.0,11.0,449.0
2023-05-24-10:43:49.965552,4.0,9.0,449.0
2023-05-24-10:43:49.966556,8.0,6.0,449.0
2023-05-24-10:43:49.967582,7.0,5.0,449.0
2023-05-24-10:43:49.968553,7.0,5.0,449.0
2023-05-24-10:43:49.969582,5.0,12.0,449.0
2023-05-24-10:43:49.970577,5.0,12.0,449.0
2023-05-24-10:43:49.971581,5.0,10.0,449.0
2023-05-24-10:43:49.972552,5.0,9.0,449.0
2023-05-24-10:43:49.973580,5.0,1.0,449.0
2023-05-24-10:43:49.974579,4.0,0.0,449.0
2023-05-24-10:43:49.975580,2.0,1.0,449.0
2023-05-24-10:43:49.976578,1.0,8.0,449.0
2023-05-24-10:43:49.977579,1.0,8.0,449.0
2023-05-24-10:43:49.978580,5.0,5.0,449.0
2023-05-24-10:43:49.979580,7.0,9.0,449.0
2023-05-24-10:43:49.980581,7.0,9.0,449.0
2023-05-24-10:43:49.981580,7.0,9.0,449.0
2023-05-24-10:43:49.982580,2.0,0.0,449.0
2023-05-24-10:43:49.983579,2.0,0.0,449.0
2023-05-24-10:43:49.985579,7.0,3.0,449.0
2023-05-24-10:43:49.985579,7.0,3.0,449.0
2023-05-24-10:43:49.986599,6.0,1.0,449.0
2023-05-24-10:43:49.987602,6.0,1.0,449.0
2023-05-24-10:43:49.988603,3.0,2.0,449.0
2023-05-24-10:43:49.989599,3.0,2.0,449.0
2023-05-24-10:43:49.990603,2.0,3.0,449.0
2023-05-24-10:43:49.991601,3.0,4.0,449.0
2023-05-24-10:43:49.992599,5.0,7.0,449.0
2023-05-24-10:43:49.993599,5.0,7.0,449.0
2023-05-24-10:43:49.994599,5.0,6.0,449.0
2023-05-24-10:43:49.995600,4.0,4.0,449.0
2023-05-24-10:43:49.996553,4.0,3.0,449.0
2023-05-24-10:43:49.997579,4.0,3.0,449.0
2023-05-24-10:43:49.998579,4.0,5.0,449.0
2023-05-24-10:43:49.999579,5.0,11.0,450.0
2023-05-24-10:43:50.000582,4.0,11.0,449.0
2023-05-24-10:43:50.001578,4.0,11.0,449.0
2023-05-24-10:43:50.002578,4.0,11.0,449.0
2023-05-24-10:43:50.003582,5.0,10.0,449.0
2023-05-24-10:43:50.004578,8.0,8.0,449.0
2023-05-24-10:43:50.005581,8.0,8.0,449.0
2023-05-24-10:43:50.006578,6.0,10.0,449.0
2023-05-24-10:43:50.007580,0.0,8.0,449.0
2023-05-24-10:43:50.008584,0.0,8.0,449.0
2023-05-24-10:43:50.009553,0.0,8.0,449.0
2023-05-24-10:43:50.010599,4.0,5.0,449.0
2023-05-24-10:43:50.011599,6.0,5.0,449.0
2023-05-24-10:43:50.012600,5.0,1.0,449.0
2023-05-24-10:43:50.013553,5.0,1.0,449.0
2023-05-24-10:43:50.014599,1.0,2.0,449.0
2023-05-24-10:43:50.015600,9.0,12.0,449.0
2023-05-24-10:43:50.016598,6.0,7.0,449.0
2023-05-24-10:43:50.017599,6.0,7.0,449.0
2023-05-24-10:43:50.018599,5.0,0.0,449.0
2023-05-24-10:43:50.020579,6.0,3.0,449.0
2023-05-24-10:43:50.020579,5.0,6.0,449.0
2023-05-24-10:43:50.021597,5.0,6.0,449.0
2023-05-24-10:43:50.022598,1.0,2.0,449.0
2023-05-24-10:43:50.023599,4.0,3.0,449.0
2023-05-24-10:43:50.024599,5.0,8.0,449.0
2023-05-24-10:43:50.025599,5.0,8.0,449.0
2023-05-24-10:43:50.026599,5.0,8.0,449.0
2023-05-24-10:43:50.027598,3.0,9.0,449.0
2023-05-24-10:43:50.028600,5.0,10.0,449.0
2023-05-24-10:43:50.029599,5.0,10.0,449.0
2023-05-24-10:43:50.030600,5.0,10.0,449.0
2023-05-24-10:43:50.031601,6.0,9.0,449.0
2023-05-24-10:43:50.032602,4.0,8.0,449.0
2023-05-24-10:43:50.033599,7.0,4.0,449.0
2023-05-24-10:43:50.034599,7.0,4.0,449.0
2023-05-24-10:43:50.035571,5.0,0.0,449.0
2023-05-24-10:43:50.036578,6.0,4.0,449.0
2023-05-24-10:43:50.037598,6.0,3.0,449.0
2023-05-24-10:43:50.038603,6.0,3.0,449.0
2023-05-24-10:43:50.039598,6.0,0.0,449.0
2023-05-24-10:43:50.040599,3.0,3.0,449.0
2023-05-24-10:43:50.041599,3.0,7.0,449.0
2023-05-24-10:43:50.042599,3.0,7.0,449.0
2023-05-24-10:43:50.043599,3.0,9.0,449.0
2023-05-24-10:43:50.044600,2.0,3.0,449.0
2023-05-24-10:43:50.045600,2.0,4.0,449.0
2023-05-24-10:43:50.046580,2.0,4.0,449.0
2023-05-24-10:43:50.047601,8.0,10.0,449.0
2023-05-24-10:43:50.048599,3.0,1.0,449.0
2023-05-24-10:43:50.049598,3.0,1.0,449.0
2023-05-24-10:43:50.050553,3.0,1.0,449.0
2023-05-24-10:43:50.052581,3.0,1.0,449.0
2023-05-24-10:43:50.052581,2.0,5.0,449.0
2023-05-24-10:43:50.053584,2.0,5.0,449.0
2023-05-24-10:43:50.054553,2.0,5.0,449.0
2023-05-24-10:43:50.055598,2.0,5.0,449.0
2023-05-24-10:43:50.056598,5.0,8.0,449.0
2023-05-24-10:43:50.057598,3.0,6.0,449.0
2023-05-24-10:43:50.058572,5.0,8.0,449.0
2023-05-24-10:43:50.059599,5.0,7.0,449.0
2023-05-24-10:43:50.060600,4.0,6.0,449.0
2023-05-24-10:43:50.061600,3.0,6.0,449.0
2023-05-24-10:43:50.062599,3.0,6.0,449.0
2023-05-24-10:43:50.063600,3.0,6.0,449.0
2023-05-24-10:43:50.064600,4.0,5.0,449.0
2023-05-24-10:43:50.065599,4.0,1.0,449.0
2023-05-24-10:43:50.066598,4.0,1.0,449.0
2023-05-24-10:43:50.067602,4.0,1.0,449.0
2023-05-24-10:43:50.068599,3.0,11.0,449.0
2023-05-24-10:43:50.069602,6.0,8.0,449.0
2023-05-24-10:43:50.070553,6.0,8.0,449.0
2023-05-24-10:43:50.071600,6.0,8.0,449.0
2023-05-24-10:43:50.072603,5.0,11.0,449.0
2023-05-24-10:43:50.073598,4.0,7.0,449.0
2023-05-24-10:43:50.074599,4.0,7.0,449.0
2023-05-24-10:43:50.075602,4.0,7.0,449.0
2023-05-24-10:43:50.076600,1.0,4.0,449.0
2023-05-24-10:43:50.077578,6.0,10.0,449.0
2023-05-24-10:43:50.078598,6.0,10.0,449.0
2023-05-24-10:43:50.079600,6.0,10.0,449.0
2023-05-24-10:43:50.080599,5.0,6.0,449.0
2023-05-24-10:43:50.081599,6.0,6.0,449.0
2023-05-24-10:43:50.082599,4.0,2.0,449.0
2023-05-24-10:43:50.083602,4.0,2.0,449.0
2023-05-24-10:43:50.084599,4.0,1.0,449.0
2023-05-24-10:43:50.085599,4.0,1.0,449.0
2023-05-24-10:43:50.086553,4.0,1.0,449.0
2023-05-24-10:43:50.088579,7.0,1.0,449.0
2023-05-24-10:43:50.088579,7.0,4.0,449.0
2023-05-24-10:43:50.089597,4.0,5.0,449.0
2023-05-24-10:43:50.090598,5.0,7.0,449.0
2023-05-24-10:43:50.091598,5.0,7.0,449.0
2023-05-24-10:43:50.092599,4.0,9.0,449.0
2023-05-24-10:43:50.093600,3.0,3.0,449.0
2023-05-24-10:43:50.094598,2.0,1.0,449.0
2023-05-24-10:43:50.095553,2.0,1.0,449.0
2023-05-24-10:43:50.096598,5.0,6.0,449.0
2023-05-24-10:43:50.097599,3.0,1.0,449.0
2023-05-24-10:43:50.098598,3.0,1.0,449.0
2023-05-24-10:43:50.099553,3.0,1.0,449.0
2023-05-24-10:43:50.100601,3.0,3.0,449.0
2023-05-24-10:43:50.101602,9.0,8.0,449.0
2023-05-24-10:43:50.102611,4.0,6.0,449.0
2023-05-24-10:43:50.103552,4.0,6.0,449.0
2023-05-24-10:43:50.104603,3.0,8.0,449.0
2023-05-24-10:43:50.105601,0.0,5.0,449.0
2023-05-24-10:43:50.106601,0.0,5.0,449.0
2023-05-24-10:43:50.107610,0.0,5.0,449.0
2023-05-24-10:43:50.108611,2.0,2.0,449.0
2023-05-24-10:43:50.109610,9.0,9.0,449.0
2023-05-24-10:43:50.110611,6.0,3.0,449.0
2023-05-24-10:43:50.111609,6.0,3.0,449.0
2023-05-24-10:43:50.112615,6.0,3.0,449.0
2023-05-24-10:43:50.113604,3.0,9.0,449.0
2023-05-24-10:43:50.114609,10.0,13.0,449.0
2023-05-24-10:43:50.115613,10.0,13.0,449.0
2023-05-24-10:43:50.116615,10.0,13.0,449.0
2023-05-24-10:43:50.117609,2.0,6.0,449.0
2023-05-24-10:43:50.118612,3.0,1.0,449.0
2023-05-24-10:43:50.119610,2.0,4.0,449.0
2023-05-24-10:43:50.120590,2.0,4.0,449.0
2023-05-24-10:43:50.121554,7.0,2.0,449.0
2023-05-24-10:43:50.122553,7.0,0.0,449.0
2023-05-24-10:43:50.123579,7.0,0.0,449.0
2023-05-24-10:43:50.124579,7.0,0.0,449.0
2023-05-24-10:43:50.127577,5.0,6.0,449.0
2023-05-24-10:43:50.127577,4.0,8.0,449.0
2023-05-24-10:43:50.128582,3.0,5.0,449.0
2023-05-24-10:43:50.129588,5.0,7.0,449.0
2023-05-24-10:43:50.130581,6.0,5.0,449.0
2023-05-24-10:43:50.131554,4.0,4.0,449.0
2023-05-24-10:43:50.132581,4.0,4.0,449.0
2023-05-24-10:43:50.133553,4.0,2.0,449.0
2023-05-24-10:43:50.134554,4.0,4.0,449.0
2023-05-24-10:43:50.135555,9.0,6.0,449.0
2023-05-24-10:43:50.136553,9.0,6.0,449.0
2023-05-24-10:43:50.137553,6.0,4.0,449.0
2023-05-24-10:43:50.138553,5.0,0.0,449.0
2023-05-24-10:43:50.139552,2.0,2.0,449.0
2023-05-24-10:43:50.140552,2.0,2.0,449.0
2023-05-24-10:43:50.141552,7.0,2.0,449.0
2023-05-24-10:43:50.142552,0.0,4.0,449.0
2023-05-24-10:43:50.143553,5.0,2.0,449.0
2023-05-24-10:43:50.144552,5.0,2.0,449.0
2023-05-24-10:43:50.145611,4.0,7.0,449.0
2023-05-24-10:43:50.146617,5.0,3.0,449.0
2023-05-24-10:43:50.147575,7.0,9.0,449.0
2023-05-24-10:43:50.148603,7.0,9.0,449.0
2023-05-24-10:43:50.149552,7.0,9.0,449.0
2023-05-24-10:43:50.150592,6.0,3.0,449.0
2023-05-24-10:43:50.151589,5.0,8.0,449.0
2023-05-24-10:43:50.152588,5.0,8.0,449.0
2023-05-24-10:43:50.153588,5.0,8.0,449.0
2023-05-24-10:43:50.155587,5.0,4.0,449.0
2023-05-24-10:43:50.155587,7.0,4.0,449.0
2023-05-24-10:43:50.156610,7.0,4.0,449.0
2023-05-24-10:43:50.157610,7.0,4.0,449.0
2023-05-24-10:43:50.158610,4.0,6.0,449.0
2023-05-24-10:43:50.159610,4.0,2.0,449.0
2023-05-24-10:43:50.160610,5.0,1.0,449.0
2023-05-24-10:43:50.161610,5.0,1.0,449.0
2023-05-24-10:43:50.162610,5.0,1.0,449.0
2023-05-24-10:43:50.163553,7.0,6.0,449.0
2023-05-24-10:43:50.164591,6.0,6.0,449.0
2023-05-24-10:43:50.165575,6.0,6.0,449.0
2023-05-24-10:43:50.166592,5.0,1.0,449.0
2023-05-24-10:43:50.167588,6.0,7.0,449.0
2023-05-24-10:43:50.168612,6.0,7.0,449.0
2023-05-24-10:43:50.169610,6.0,7.0,449.0
2023-05-24-10:43:50.170611,7.0,6.0,449.0
2023-05-24-10:43:50.171588,7.0,6.0,449.0
2023-05-24-10:43:50.172611,6.0,0.0,449.0
2023-05-24-10:43:50.173614,0.0,7.0,449.0
2023-05-24-10:43:50.174610,7.0,5.0,449.0
2023-05-24-10:43:50.175614,5.0,15.0,449.0
2023-05-24-10:43:50.176610,3.0,9.0,449.0
2023-05-24-10:43:50.177614,3.0,9.0,449.0
2023-05-24-10:43:50.178610,6.0,13.0,449.0
2023-05-24-10:43:50.179613,7.0,9.0,449.0
2023-05-24-10:43:50.180601,2.0,0.0,449.0
2023-05-24-10:43:50.181553,2.0,0.0,449.0
2023-05-24-10:43:50.182603,4.0,9.0,449.0
2023-05-24-10:43:50.183601,3.0,21.0,449.0
2023-05-24-10:43:50.184603,3.0,7.0,449.0
2023-05-24-10:43:50.185570,3.0,7.0,449.0
2023-05-24-10:43:50.186610,6.0,9.0,449.0
2023-05-24-10:43:50.187610,6.0,10.0,449.0
2023-05-24-10:43:50.188602,6.0,10.0,449.0
2023-05-24-10:43:50.189602,5.0,13.0,449.0
2023-05-24-10:43:50.191579,6.0,11.0,449.0
2023-05-24-10:43:50.191579,5.0,6.0,449.0
2023-05-24-10:43:50.192601,5.0,6.0,449.0
2023-05-24-10:43:50.193600,5.0,6.0,449.0
2023-05-24-10:43:50.194603,5.0,6.0,449.0
2023-05-24-10:43:50.195604,3.0,8.0,449.0
2023-05-24-10:43:50.196621,6.0,9.0,449.0
2023-05-24-10:43:50.197553,6.0,9.0,449.0
2023-05-24-10:43:50.198579,6.0,9.0,449.0
2023-05-24-10:43:50.199588,7.0,10.0,449.0
2023-05-24-10:43:50.200579,7.0,8.0,449.0
2023-05-24-10:43:50.201579,4.0,9.0,449.0
2023-05-24-10:43:50.202579,4.0,9.0,449.0
2023-05-24-10:43:50.203578,4.0,5.0,449.0
2023-05-24-10:43:50.204584,5.0,5.0,449.0
2023-05-24-10:43:50.205578,3.0,0.0,449.0
2023-05-24-10:43:50.206580,3.0,0.0,449.0
2023-05-24-10:43:50.207581,3.0,0.0,449.0
2023-05-24-10:43:50.208578,7.0,11.0,449.0
2023-05-24-10:43:50.209582,6.0,13.0,449.0
2023-05-24-10:43:50.210578,6.0,13.0,449.0
2023-05-24-10:43:50.211581,4.0,3.0,449.0
2023-05-24-10:43:50.212583,7.0,7.0,449.0
2023-05-24-10:43:50.213580,7.0,7.0,449.0
2023-05-24-10:43:50.214578,7.0,7.0,449.0
2023-05-24-10:43:50.215580,5.0,10.0,449.0
2023-05-24-10:43:50.216582,6.0,11.0,449.0
2023-05-24-10:43:50.217578,3.0,5.0,449.0
2023-05-24-10:43:50.218579,3.0,5.0,449.0
2023-05-24-10:43:50.219578,5.0,2.0,449.0
2023-05-24-10:43:50.220579,4.0,1.0,449.0
2023-05-24-10:43:50.221578,4.0,7.0,449.0
2023-05-24-10:43:50.222553,4.0,7.0,449.0
2023-05-24-10:43:50.223578,5.0,4.0,449.0
2023-05-24-10:43:50.225578,4.0,1.0,449.0
2023-05-24-10:43:50.225578,4.0,1.0,449.0
2023-05-24-10:43:50.226553,4.0,1.0,449.0
2023-05-24-10:43:50.227601,4.0,2.0,449.0
2023-05-24-10:43:50.228599,4.0,1.0,449.0
2023-05-24-10:43:50.229599,2.0,5.0,449.0
2023-05-24-10:43:50.230598,2.0,5.0,449.0
2023-05-24-10:43:50.231599,3.0,5.0,449.0
2023-05-24-10:43:50.232599,4.0,3.0,449.0
2023-05-24-10:43:50.233599,6.0,3.0,449.0
2023-05-24-10:43:50.234599,6.0,3.0,449.0
2023-05-24-10:43:50.235601,6.0,4.0,449.0
2023-05-24-10:43:50.236600,8.0,4.0,449.0
2023-05-24-10:43:50.237601,5.0,4.0,449.0
2023-05-24-10:43:50.238598,5.0,4.0,449.0
2023-05-24-10:43:50.239606,5.0,7.0,449.0
2023-05-24-10:43:50.240582,5.0,7.0,449.0
2023-05-24-10:43:50.241600,5.0,7.0,449.0
2023-05-24-10:43:50.242599,5.0,7.0,449.0
2023-05-24-10:43:50.243602,5.0,7.0,449.0
2023-05-24-10:43:50.244599,4.0,5.0,449.0
2023-05-24-10:43:50.245580,4.0,3.0,449.0
2023-05-24-10:43:50.246554,4.0,3.0,449.0
2023-05-24-10:43:50.247555,4.0,3.0,449.0
2023-05-24-10:43:50.248579,6.0,9.0,449.0
2023-05-24-10:43:50.249579,6.0,4.0,449.0
2023-05-24-10:43:50.250579,6.0,2.0,449.0
2023-05-24-10:43:50.251581,6.0,2.0,449.0
2023-05-24-10:43:50.252579,4.0,7.0,449.0
2023-05-24-10:43:50.253583,3.0,3.0,449.0
2023-05-24-10:43:50.254580,7.0,8.0,449.0
2023-05-24-10:43:50.256581,7.0,8.0,449.0
2023-05-24-10:43:50.257577,4.0,4.0,449.0
2023-05-24-10:43:50.257577,4.0,4.0,449.0
2023-05-24-10:43:50.258598,4.0,4.0,449.0
2023-05-24-10:43:50.259601,4.0,4.0,449.0
2023-05-24-10:43:50.260598,1.0,2.0,449.0
2023-05-24-10:43:50.261599,3.0,5.0,449.0
2023-05-24-10:43:50.262603,5.0,5.0,449.0
2023-05-24-10:43:50.263580,5.0,5.0,449.0
2023-05-24-10:43:50.264600,6.0,3.0,449.0
2023-05-24-10:43:50.265599,8.0,6.0,449.0
2023-05-24-10:43:50.266598,8.0,6.0,449.0
2023-05-24-10:43:50.267553,8.0,6.0,449.0
2023-05-24-10:43:50.268600,5.0,2.0,449.0
2023-05-24-10:43:50.269600,7.0,3.0,449.0
2023-05-24-10:43:50.270599,8.0,2.0,449.0
2023-05-24-10:43:50.271569,8.0,2.0,449.0
2023-05-24-10:43:50.272599,5.0,2.0,449.0
2023-05-24-10:43:50.273599,5.0,2.0,449.0
2023-05-24-10:43:50.274599,7.0,5.0,449.0
2023-05-24-10:43:50.275580,6.0,5.0,449.0
2023-05-24-10:43:50.276577,5.0,6.0,449.0
2023-05-24-10:43:50.277599,4.0,11.0,449.0
2023-05-24-10:43:50.278603,2.0,7.0,449.0
2023-05-24-10:43:50.279598,2.0,7.0,449.0
2023-05-24-10:43:50.280599,2.0,7.0,449.0
2023-05-24-10:43:50.281599,1.0,2.0,449.0
2023-05-24-10:43:50.282599,1.0,3.0,449.0
2023-05-24-10:43:50.283605,1.0,3.0,449.0
2023-05-24-10:43:50.284600,1.0,3.0,449.0
2023-05-24-10:43:50.285600,5.0,4.0,449.0
2023-05-24-10:43:50.286599,5.0,3.0,449.0
2023-05-24-10:43:50.287600,5.0,3.0,449.0
2023-05-24-10:43:50.288599,5.0,3.0,449.0
2023-05-24-10:43:50.289599,7.0,3.0,449.0
2023-05-24-10:43:50.290599,7.0,3.0,449.0
2023-05-24-10:43:50.292587,6.0,0.0,449.0
2023-05-24-10:43:50.292587,3.0,3.0,449.0
2023-05-24-10:43:50.293553,1.0,6.0,449.0
2023-05-24-10:43:50.294598,1.0,6.0,449.0
2023-05-24-10:43:50.295597,1.0,6.0,449.0
2023-05-24-10:43:50.296598,1.0,6.0,449.0
2023-05-24-10:43:50.297590,6.0,6.0,449.0
2023-05-24-10:43:50.298574,4.0,3.0,449.0
2023-05-24-10:43:50.299598,4.0,3.0,449.0
2023-05-24-10:43:50.300601,4.0,3.0,449.0
2023-05-24-10:43:50.301600,4.0,2.0,449.0
2023-05-24-10:43:50.302603,2.0,1.0,449.0
2023-05-24-10:43:50.303600,5.0,4.0,449.0
2023-05-24-10:43:50.304600,5.0,4.0,449.0
2023-05-24-10:43:50.305602,6.0,1.0,449.0
2023-05-24-10:43:50.306600,7.0,5.0,449.0
2023-05-24-10:43:50.307603,5.0,5.0,449.0
2023-05-24-10:43:50.308553,5.0,5.0,449.0
2023-05-24-10:43:50.309600,5.0,5.0,449.0
2023-05-24-10:43:50.310585,6.0,5.0,449.0
2023-05-24-10:43:50.311579,6.0,5.0,449.0
2023-05-24-10:43:50.312552,6.0,5.0,449.0
2023-05-24-10:43:50.313560,0.0,4.0,449.0
2023-05-24-10:43:50.314580,5.0,6.0,449.0
2023-05-24-10:43:50.315578,5.0,6.0,449.0
2023-05-24-10:43:50.316588,5.0,6.0,449.0
2023-05-24-10:43:50.317588,7.0,3.0,449.0
2023-05-24-10:43:50.318588,6.0,2.0,449.0
2023-05-24-10:43:50.319588,7.0,3.0,449.0
2023-05-24-10:43:50.320591,7.0,3.0,449.0
2023-05-24-10:43:50.321589,7.0,3.0,449.0
2023-05-24-10:43:50.322588,3.0,2.0,449.0
2023-05-24-10:43:50.323591,2.0,4.0,449.0
2023-05-24-10:43:50.324588,2.0,4.0,449.0
2023-05-24-10:43:50.325607,2.0,4.0,449.0
2023-05-24-10:43:50.327609,5.0,6.0,449.0
2023-05-24-10:43:50.327609,4.0,4.0,449.0
2023-05-24-10:43:50.328612,4.0,4.0,449.0
2023-05-24-10:43:50.329614,5.0,6.0,449.0
2023-05-24-10:43:50.330553,5.0,3.0,449.0
2023-05-24-10:43:50.331600,7.0,1.0,449.0
2023-05-24-10:43:50.332600,7.0,1.0,449.0
2023-05-24-10:43:50.333600,7.0,1.0,449.0
2023-05-24-10:43:50.334600,7.0,0.0,449.0
2023-05-24-10:43:50.335600,3.0,1.0,449.0
2023-05-24-10:43:50.336600,5.0,1.0,449.0
2023-05-24-10:43:50.337606,5.0,1.0,449.0
2023-05-24-10:43:50.338599,7.0,2.0,449.0
2023-05-24-10:43:50.339602,1.0,4.0,449.0
2023-05-24-10:43:50.340609,4.0,7.0,449.0
2023-05-24-10:43:50.341609,4.0,7.0,449.0
2023-05-24-10:43:50.342602,4.0,7.0,449.0
2023-05-24-10:43:50.343600,1.0,3.0,449.0
2023-05-24-10:43:50.344600,1.0,3.0,449.0
2023-05-24-10:43:50.345600,1.0,3.0,449.0
2023-05-24-10:43:50.346599,2.0,2.0,449.0
2023-05-24-10:43:50.347580,5.0,7.0,449.0
2023-05-24-10:43:50.348601,5.0,6.0,449.0
2023-05-24-10:43:50.349553,5.0,6.0,449.0
2023-05-24-10:43:50.350599,4.0,4.0,449.0
2023-05-24-10:43:50.351600,4.0,3.0,449.0
2023-05-24-10:43:50.352599,5.0,6.0,449.0
2023-05-24-10:43:50.353553,5.0,6.0,449.0
2023-05-24-10:43:50.354598,4.0,5.0,449.0
2023-05-24-10:43:50.355602,4.0,3.0,449.0
2023-05-24-10:43:50.356590,8.0,2.0,449.0
2023-05-24-10:43:50.357588,8.0,2.0,449.0
2023-05-24-10:43:50.359579,3.0,3.0,449.0
2023-05-24-10:43:50.359579,3.0,3.0,449.0
2023-05-24-10:43:50.360581,3.0,3.0,449.0
2023-05-24-10:43:50.361578,3.0,3.0,449.0
2023-05-24-10:43:50.362580,3.0,3.0,449.0
2023-05-24-10:43:50.363582,8.0,11.0,449.0
2023-05-24-10:43:50.364580,8.0,14.0,449.0
2023-05-24-10:43:50.365577,8.0,14.0,449.0
2023-05-24-10:43:50.366580,8.0,14.0,449.0
2023-05-24-10:43:50.367579,6.0,10.0,449.0
2023-05-24-10:43:50.368582,0.0,9.0,449.0
2023-05-24-10:43:50.369580,0.0,9.0,449.0
2023-05-24-10:43:50.370587,0.0,9.0,449.0
2023-05-24-10:43:50.371591,2.0,13.0,449.0
2023-05-24-10:43:50.372553,4.0,6.0,449.0
2023-05-24-10:43:50.373610,4.0,6.0,449.0
2023-05-24-10:43:50.375553,4.0,6.0,449.0
2023-05-24-10:43:50.375553,7.0,10.0,449.0
2023-05-24-10:43:50.376601,7.0,10.0,449.0
2023-05-24-10:43:50.377598,7.0,10.0,449.0
2023-05-24-10:43:50.378600,7.0,10.0,449.0
2023-05-24-10:43:50.379599,7.0,12.0,449.0
2023-05-24-10:43:50.380600,8.0,0.0,449.0
2023-05-24-10:43:50.381600,1.0,2.0,449.0
2023-05-24-10:43:50.382605,1.0,2.0,449.0
2023-05-24-10:43:50.383601,5.0,8.0,449.0
2023-05-24-10:43:50.384599,5.0,3.0,449.0
2023-05-24-10:43:50.385599,6.0,1.0,449.0
2023-05-24-10:43:50.386599,6.0,1.0,449.0
2023-05-24-10:43:50.387612,4.0,2.0,449.0
2023-05-24-10:43:50.388609,3.0,8.0,449.0
2023-05-24-10:43:50.389609,5.0,11.0,449.0
2023-05-24-10:43:50.390553,5.0,11.0,449.0
2023-05-24-10:43:50.391609,4.0,10.0,449.0
2023-05-24-10:43:50.392609,4.0,10.0,449.0
2023-05-24-10:43:50.394553,4.0,6.0,449.0
2023-05-24-10:43:50.394553,4.0,6.0,449.0
2023-05-24-10:43:50.395613,4.0,3.0,449.0
2023-05-24-10:43:50.396610,0.0,2.0,449.0
2023-05-24-10:43:50.397610,0.0,2.0,449.0
2023-05-24-10:43:50.398578,0.0,2.0,449.0
2023-05-24-10:43:50.399588,5.0,9.0,449.0
2023-05-24-10:43:50.400609,5.0,5.0,449.0
2023-05-24-10:43:50.401590,4.0,2.0,449.0
2023-05-24-10:43:50.402610,4.0,2.0,449.0
2023-05-24-10:43:50.403612,7.0,1.0,449.0
2023-05-24-10:43:50.404611,2.0,2.0,449.0
2023-05-24-10:43:50.405609,2.0,4.0,449.0
2023-05-24-10:43:50.406612,2.0,4.0,449.0
2023-05-24-10:43:50.407609,2.0,4.0,449.0
2023-05-24-10:43:50.408609,7.0,8.0,449.0
2023-05-24-10:43:50.409610,6.0,8.0,449.0
2023-05-24-10:43:50.410610,5.0,10.0,449.0
2023-05-24-10:43:50.411612,5.0,1.0,449.0
2023-05-24-10:43:50.412610,5.0,2.0,449.0
2023-05-24-10:43:50.413610,5.0,2.0,449.0
2023-05-24-10:43:50.414612,5.0,2.0,449.0
2023-05-24-10:43:50.415588,5.0,2.0,449.0
2023-05-24-10:43:50.416612,7.0,5.0,449.0
2023-05-24-10:43:50.417609,6.0,0.0,449.0
2023-05-24-10:43:50.418609,6.0,3.0,449.0
2023-05-24-10:43:50.419612,6.0,3.0,449.0
2023-05-24-10:43:50.420609,3.0,3.0,449.0
2023-05-24-10:43:50.421609,7.0,7.0,449.0
2023-05-24-10:43:50.422612,5.0,4.0,449.0
2023-05-24-10:43:50.423609,5.0,4.0,449.0
2023-05-24-10:43:50.424611,4.0,6.0,449.0
2023-05-24-10:43:50.425609,5.0,8.0,449.0
2023-05-24-10:43:50.426609,7.0,5.0,449.0
2023-05-24-10:43:50.427609,7.0,5.0,449.0
2023-05-24-10:43:50.429592,5.0,6.0,449.0
2023-05-24-10:43:50.429592,7.0,4.0,449.0
2023-05-24-10:43:50.430609,7.0,4.0,449.0
2023-05-24-10:43:50.431609,7.0,4.0,449.0
2023-05-24-10:43:50.432600,4.0,3.0,449.0
2023-05-24-10:43:50.433600,5.0,2.0,449.0
2023-05-24-10:43:50.434600,5.0,2.0,449.0
2023-05-24-10:43:50.435553,5.0,2.0,449.0
2023-05-24-10:43:50.436609,8.0,3.0,449.0
2023-05-24-10:43:50.437601,4.0,3.0,449.0
2023-05-24-10:43:50.438603,4.0,2.0,449.0
2023-05-24-10:43:50.439553,4.0,2.0,449.0
2023-05-24-10:43:50.440611,6.0,4.0,449.0
2023-05-24-10:43:50.441609,4.0,7.0,449.0
2023-05-24-10:43:50.442610,4.0,9.0,449.0
2023-05-24-10:43:50.443610,4.0,9.0,449.0
2023-05-24-10:43:50.444610,4.0,11.0,449.0
2023-05-24-10:43:50.445614,3.0,6.0,449.0
2023-05-24-10:43:50.446609,3.0,6.0,449.0
2023-05-24-10:43:50.447615,3.0,6.0,449.0
2023-05-24-10:43:50.448590,7.0,5.0,449.0
2023-05-24-10:43:50.449589,6.0,7.0,449.0
2023-05-24-10:43:50.450609,6.0,7.0,449.0
2023-05-24-10:43:50.451612,6.0,7.0,449.0
2023-05-24-10:43:50.452610,7.0,10.0,449.0
2023-05-24-10:43:50.453609,5.0,0.0,449.0
2023-05-24-10:43:50.454612,4.0,1.0,449.0
2023-05-24-10:43:50.455609,4.0,1.0,449.0
2023-05-24-10:43:50.456617,4.0,1.0,449.0
2023-05-24-10:43:50.457609,4.0,2.0,449.0
2023-05-24-10:43:50.458610,7.0,3.0,449.0
2023-05-24-10:43:50.459609,3.0,5.0,449.0
2023-05-24-10:43:50.460610,3.0,5.0,449.0
2023-05-24-10:43:50.462589,5.0,4.0,449.0
2023-05-24-10:43:50.462589,5.0,4.0,449.0
2023-05-24-10:43:50.463612,4.0,3.0,449.0
2023-05-24-10:43:50.464608,6.0,2.0,449.0
2023-05-24-10:43:50.465588,5.0,4.0,449.0
2023-05-24-10:43:50.466600,7.0,5.0,449.0
2023-05-24-10:43:50.467604,7.0,5.0,449.0
2023-05-24-10:43:50.468615,7.0,5.0,449.0
2023-05-24-10:43:50.469610,4.0,5.0,449.0
2023-05-24-10:43:50.470612,6.0,6.0,449.0
2023-05-24-10:43:50.471609,7.0,7.0,449.0
2023-05-24-10:43:50.472609,7.0,7.0,449.0
2023-05-24-10:43:50.473609,6.0,9.0,449.0
2023-05-24-10:43:50.474609,8.0,9.0,449.0
2023-05-24-10:43:50.475609,4.0,4.0,449.0
2023-05-24-10:43:50.476553,4.0,4.0,449.0
2023-05-24-10:43:50.477588,6.0,8.0,449.0
2023-05-24-10:43:50.478609,1.0,11.0,449.0
2023-05-24-10:43:50.479610,1.0,11.0,449.0
2023-05-24-10:43:50.480553,1.0,11.0,449.0
2023-05-24-10:43:50.481608,8.0,4.0,449.0
2023-05-24-10:43:50.482553,7.0,6.0,449.0
2023-05-24-10:43:50.483612,6.0,4.0,449.0
2023-05-24-10:43:50.484554,6.0,4.0,449.0
2023-05-24-10:43:50.485609,5.0,4.0,449.0
2023-05-24-10:43:50.486612,7.0,9.0,449.0
2023-05-24-10:43:50.487609,6.0,7.0,449.0
2023-05-24-10:43:50.488612,6.0,7.0,449.0
2023-05-24-10:43:50.489609,7.0,5.0,449.0
2023-05-24-10:43:50.490610,3.0,5.0,449.0
2023-05-24-10:43:50.491609,3.0,5.0,449.0
2023-05-24-10:43:50.492610,3.0,5.0,449.0
2023-05-24-10:43:50.493609,3.0,5.0,449.0
2023-05-24-10:43:50.494615,3.0,4.0,449.0
2023-05-24-10:43:50.496590,4.0,2.0,449.0
2023-05-24-10:43:50.496590,4.0,2.0,449.0
2023-05-24-10:43:50.497553,8.0,4.0,449.0
2023-05-24-10:43:50.498609,7.0,3.0,449.0
2023-05-24-10:43:50.499612,7.0,3.0,449.0
2023-05-24-10:43:50.500610,7.0,3.0,449.0
2023-05-24-10:43:50.501611,7.0,3.0,449.0
2023-05-24-10:43:50.502612,5.0,2.0,449.0
2023-05-24-10:43:50.503610,6.0,3.0,449.0
2023-05-24-10:43:50.504612,2.0,2.0,449.0
2023-05-24-10:43:50.505611,2.0,2.0,449.0
2023-05-24-10:43:50.506607,1.0,3.0,449.0
2023-05-24-10:43:50.507588,7.0,9.0,449.0
2023-05-24-10:43:50.508589,6.0,7.0,449.0
2023-05-24-10:43:50.509588,6.0,7.0,449.0
2023-05-24-10:43:50.510589,3.0,3.0,449.0
2023-05-24-10:43:50.511591,3.0,1.0,449.0
2023-05-24-10:43:50.512590,7.0,8.0,449.0
2023-05-24-10:43:50.513599,7.0,8.0,449.0
2023-05-24-10:43:50.514588,7.0,8.0,449.0
2023-05-24-10:43:50.515591,3.0,4.0,449.0
2023-05-24-10:43:50.516588,5.0,5.0,449.0
2023-05-24-10:43:50.517589,5.0,5.0,449.0
2023-05-24-10:43:50.518588,4.0,5.0,449.0
2023-05-24-10:43:50.519589,4.0,5.0,449.0
2023-05-24-10:43:50.520588,8.0,3.0,449.0
2023-05-24-10:43:50.521553,8.0,3.0,449.0
2023-05-24-10:43:50.522591,5.0,5.0,449.0
2023-05-24-10:43:50.523588,4.0,6.0,449.0
2023-05-24-10:43:50.524589,6.0,6.0,449.0
2023-05-24-10:43:50.525553,6.0,6.0,449.0
2023-05-24-10:43:50.526589,4.0,5.0,449.0
2023-05-24-10:43:50.527588,3.0,3.0,449.0
2023-05-24-10:43:50.528590,4.0,6.0,449.0
2023-05-24-10:43:50.530582,4.0,6.0,449.0
2023-05-24-10:43:50.530582,4.0,6.0,449.0
2023-05-24-10:43:50.531553,8.0,5.0,449.0
2023-05-24-10:43:50.532610,8.0,5.0,449.0
2023-05-24-10:43:50.533610,8.0,5.0,449.0
2023-05-24-10:43:50.534611,8.0,5.0,449.0
2023-05-24-10:43:50.535610,5.0,5.0,449.0
2023-05-24-10:43:50.536612,4.0,5.0,449.0
2023-05-24-10:43:50.537610,4.0,5.0,449.0
2023-05-24-10:43:50.538610,4.0,5.0,449.0
2023-05-24-10:43:50.539612,2.0,0.0,449.0
2023-05-24-10:43:50.540611,6.0,2.0,449.0
2023-05-24-10:43:50.541615,6.0,2.0,449.0
2023-05-24-10:43:50.542613,6.0,2.0,449.0
2023-05-24-10:43:50.543609,2.0,3.0,449.0
2023-05-24-10:43:50.544615,5.0,6.0,449.0
2023-05-24-10:43:50.546553,7.0,11.0,449.0
2023-05-24-10:43:50.546553,3.0,3.0,449.0
2023-05-24-10:43:50.547590,5.0,3.0,449.0
2023-05-24-10:43:50.548587,5.0,3.0,449.0
2023-05-24-10:43:50.549589,5.0,3.0,449.0
2023-05-24-10:43:50.550586,5.0,3.0,449.0
2023-05-24-10:43:50.551589,7.0,1.0,449.0
2023-05-24-10:43:50.552591,3.0,6.0,449.0
2023-05-24-10:43:50.553588,6.0,1.0,449.0
2023-05-24-10:43:50.554587,6.0,1.0,449.0
2023-05-24-10:43:50.555587,5.0,1.0,449.0
2023-05-24-10:43:50.556588,3.0,4.0,449.0
2023-05-24-10:43:50.557588,2.0,4.0,449.0
2023-05-24-10:43:50.558589,2.0,4.0,449.0
2023-05-24-10:43:50.559587,3.0,1.0,449.0
2023-05-24-10:43:50.560586,3.0,11.0,449.0
2023-05-24-10:43:50.561587,5.0,11.0,449.0
2023-05-24-10:43:50.563596,5.0,11.0,449.0
2023-05-24-10:43:50.563596,5.0,2.0,449.0
2023-05-24-10:43:50.564586,5.0,2.0,449.0
2023-05-24-10:43:50.565590,6.0,3.0,449.0
2023-05-24-10:43:50.566553,6.0,3.0,449.0
2023-05-24-10:43:50.567589,6.0,4.0,449.0
2023-05-24-10:43:50.568586,6.0,4.0,449.0
2023-05-24-10:43:50.569586,0.0,2.0,449.0
2023-05-24-10:43:50.570588,0.0,2.0,449.0
2023-05-24-10:43:50.571586,3.0,2.0,449.0
2023-05-24-10:43:50.572587,5.0,6.0,449.0
2023-05-24-10:43:50.573586,2.0,2.0,449.0
2023-05-24-10:43:50.574589,2.0,2.0,449.0
2023-05-24-10:43:50.575586,2.0,5.0,449.0
2023-05-24-10:43:50.576587,6.0,9.0,449.0
2023-05-24-10:43:50.577587,8.0,10.0,449.0
2023-05-24-10:43:50.578586,8.0,10.0,449.0
2023-05-24-10:43:50.579589,6.0,10.0,449.0
2023-05-24-10:43:50.580587,8.0,14.0,449.0
2023-05-24-10:43:50.581588,8.0,14.0,449.0
2023-05-24-10:43:50.582586,8.0,14.0,449.0
2023-05-24-10:43:50.583589,8.0,14.0,449.0
2023-05-24-10:43:50.584586,7.0,11.0,449.0
2023-05-24-10:43:50.585586,3.0,8.0,449.0
2023-05-24-10:43:50.586587,1.0,2.0,449.0
2023-05-24-10:43:50.587586,1.0,2.0,449.0
2023-05-24-10:43:50.588587,6.0,4.0,449.0
2023-05-24-10:43:50.589587,6.0,17.0,449.0
2023-05-24-10:43:50.590588,3.0,19.0,449.0
2023-05-24-10:43:50.591586,3.0,19.0,449.0
2023-05-24-10:43:50.592587,4.0,8.0,449.0
2023-05-24-10:43:50.593586,3.0,6.0,449.0
2023-05-24-10:43:50.594553,8.0,4.0,449.0
2023-05-24-10:43:50.595589,8.0,4.0,449.0
2023-05-24-10:43:50.596587,6.0,8.0,449.0
2023-05-24-10:43:50.598587,5.0,7.0,449.0
2023-05-24-10:43:50.598587,5.0,8.0,449.0
2023-05-24-10:43:50.599610,5.0,8.0,449.0
2023-05-24-10:43:50.600617,4.0,6.0,449.0
2023-05-24-10:43:50.601589,6.0,3.0,449.0
2023-05-24-10:43:50.602610,5.0,0.0,449.0
2023-05-24-10:43:50.603609,5.0,0.0,449.0
2023-05-24-10:43:50.604611,6.0,5.0,449.0
2023-05-24-10:43:50.605610,3.0,5.0,449.0
2023-05-24-10:43:50.606610,4.0,6.0,449.0
2023-05-24-10:43:50.607553,4.0,6.0,449.0
2023-05-24-10:43:50.608610,6.0,8.0,449.0
2023-05-24-10:43:50.609610,5.0,10.0,449.0
2023-05-24-10:43:50.610610,4.0,7.0,449.0
2023-05-24-10:43:50.611583,4.0,7.0,449.0
2023-05-24-10:43:50.612610,3.0,6.0,449.0
2023-05-24-10:43:50.613653,3.0,6.0,449.0
2023-05-24-10:43:50.614605,4.0,4.0,449.0
2023-05-24-10:43:50.615611,4.0,4.0,449.0
2023-05-24-10:43:50.616612,6.0,7.0,449.0
2023-05-24-10:43:50.617593,6.0,7.0,449.0
2023-05-24-10:43:50.618610,5.0,5.0,449.0
2023-05-24-10:43:50.619610,5.0,5.0,449.0
2023-05-24-10:43:50.620611,3.0,3.0,449.0
2023-05-24-10:43:50.621610,4.0,2.0,449.0
2023-05-24-10:43:50.622610,3.0,0.0,449.0
2023-05-24-10:43:50.623614,3.0,0.0,449.0
2023-05-24-10:43:50.624610,3.0,0.0,449.0
2023-05-24-10:43:50.625610,4.0,2.0,449.0
2023-05-24-10:43:50.626612,1.0,5.0,449.0
2023-05-24-10:43:50.627613,5.0,3.0,449.0
2023-05-24-10:43:50.628609,5.0,3.0,449.0
2023-05-24-10:43:50.629611,4.0,2.0,449.0
2023-05-24-10:43:50.630616,4.0,7.0,449.0
2023-05-24-10:43:50.632588,5.0,9.0,449.0
2023-05-24-10:43:50.632588,5.0,5.0,449.0
2023-05-24-10:43:50.633610,2.0,6.0,449.0
2023-05-24-10:43:50.634580,12.0,18.0,449.0
2023-05-24-10:43:50.635610,12.0,18.0,449.0
2023-05-24-10:43:50.636611,12.0,18.0,449.0
2023-05-24-10:43:50.637611,12.0,16.0,449.0
2023-05-24-10:43:50.638610,6.0,4.0,449.0
2023-05-24-10:43:50.639609,8.0,5.0,449.0
2023-05-24-10:43:50.640613,8.0,5.0,449.0
2023-05-24-10:43:50.641588,7.0,0.0,449.0
2023-05-24-10:43:50.642610,1.0,5.0,449.0
2023-05-24-10:43:50.643613,4.0,2.0,449.0
2023-05-24-10:43:50.644609,4.0,2.0,449.0
2023-05-24-10:43:50.645610,8.0,2.0,449.0
2023-05-24-10:43:50.646611,4.0,3.0,449.0
2023-05-24-10:43:50.647589,3.0,1.0,449.0
2023-05-24-10:43:50.648553,3.0,1.0,449.0
2023-05-24-10:43:50.649579,5.0,4.0,449.0
2023-05-24-10:43:50.650602,7.0,2.0,449.0
2023-05-24-10:43:50.651601,7.0,2.0,449.0
2023-05-24-10:43:50.652552,7.0,2.0,449.0
2023-05-24-10:43:50.653601,5.0,4.0,449.0
2023-05-24-10:43:50.654601,7.0,6.0,449.0
2023-05-24-10:43:50.655606,5.0,1.0,449.0
2023-05-24-10:43:50.656608,5.0,1.0,449.0
2023-05-24-10:43:50.657554,5.0,1.0,449.0
2023-05-24-10:43:50.658586,0.0,6.0,449.0
2023-05-24-10:43:50.659589,0.0,6.0,449.0
2023-05-24-10:43:50.660552,0.0,6.0,449.0
2023-05-24-10:43:50.661551,0.0,6.0,449.0
2023-05-24-10:43:50.662564,5.0,9.0,449.0
2023-05-24-10:43:50.663610,2.0,2.0,449.0
2023-05-24-10:43:50.664583,4.0,3.0,449.0
2023-05-24-10:43:50.666579,2.0,3.0,449.0
2023-05-24-10:43:50.667559,2.0,3.0,449.0
2023-05-24-10:43:50.667559,2.0,3.0,449.0
2023-05-24-10:43:50.668553,2.0,3.0,449.0
2023-05-24-10:43:50.669588,2.0,3.0,449.0
2023-05-24-10:43:50.670593,3.0,4.0,449.0
2023-05-24-10:43:50.671586,7.0,2.0,450.0
2023-05-24-10:43:50.672586,3.0,0.0,449.0
2023-05-24-10:43:50.673587,3.0,0.0,449.0
2023-05-24-10:43:50.674589,6.0,0.0,449.0
2023-05-24-10:43:50.675590,3.0,0.0,449.0
2023-05-24-10:43:50.676587,3.0,7.0,449.0
2023-05-24-10:43:50.677588,3.0,7.0,449.0
2023-05-24-10:43:50.678587,3.0,4.0,449.0
2023-05-24-10:43:50.679588,6.0,2.0,449.0
2023-05-24-10:43:50.680587,7.0,8.0,449.0
2023-05-24-10:43:50.681586,7.0,8.0,449.0
2023-05-24-10:43:50.682588,4.0,7.0,449.0
2023-05-24-10:43:50.683587,8.0,3.0,449.0
2023-05-24-10:43:50.684588,8.0,3.0,449.0
2023-05-24-10:43:50.685587,8.0,3.0,449.0
2023-05-24-10:43:50.686589,6.0,4.0,449.0
2023-05-24-10:43:50.687587,8.0,4.0,449.0
2023-05-24-10:43:50.688587,5.0,3.0,449.0
2023-05-24-10:43:50.689553,5.0,3.0,449.0
2023-05-24-10:43:50.690590,7.0,3.0,449.0
2023-05-24-10:43:50.691591,4.0,1.0,449.0
2023-05-24-10:43:50.692588,6.0,2.0,449.0
2023-05-24-10:43:50.693553,6.0,2.0,449.0
2023-05-24-10:43:50.694588,3.0,4.0,449.0
2023-05-24-10:43:50.695589,7.0,6.0,449.0
2023-05-24-10:43:50.696588,6.0,8.0,449.0
2023-05-24-10:43:50.697556,6.0,8.0,449.0
2023-05-24-10:43:50.699588,5.0,1.0,449.0
2023-05-24-10:43:50.699588,5.0,1.0,449.0
2023-05-24-10:43:50.700588,5.0,8.0,449.0
2023-05-24-10:43:50.701594,5.0,8.0,449.0
2023-05-24-10:43:50.702589,8.0,13.0,449.0
2023-05-24-10:43:50.703588,3.0,7.0,449.0
2023-05-24-10:43:50.704591,6.0,2.0,449.0
2023-05-24-10:43:50.705591,6.0,2.0,449.0
2023-05-24-10:43:50.706588,6.0,2.0,449.0
2023-05-24-10:43:50.707592,5.0,3.0,449.0
2023-05-24-10:43:50.708588,6.0,2.0,449.0
2023-05-24-10:43:50.709589,6.0,2.0,449.0
2023-05-24-10:43:50.710588,6.0,2.0,449.0
2023-05-24-10:43:50.711595,2.0,4.0,449.0
2023-05-24-10:43:50.712588,3.0,5.0,449.0
2023-05-24-10:43:50.713588,3.0,11.0,449.0
2023-05-24-10:43:50.714576,3.0,11.0,449.0
2023-05-24-10:43:50.715588,5.0,5.0,449.0
2023-05-24-10:43:50.716580,5.0,3.0,449.0
2023-05-24-10:43:50.717589,5.0,3.0,449.0
2023-05-24-10:43:50.718589,5.0,3.0,449.0
2023-05-24-10:43:50.719595,7.0,0.0,449.0
2023-05-24-10:43:50.720590,7.0,2.0,449.0
2023-05-24-10:43:50.721588,9.0,1.0,449.0
2023-05-24-10:43:50.722588,9.0,1.0,449.0
2023-05-24-10:43:50.723592,7.0,4.0,449.0
2023-05-24-10:43:50.724586,2.0,8.0,449.0
2023-05-24-10:43:50.725589,3.0,9.0,449.0
2023-05-24-10:43:50.726589,3.0,9.0,449.0
2023-05-24-10:43:50.727589,5.0,7.0,449.0
2023-05-24-10:43:50.728589,5.0,5.0,449.0
2023-05-24-10:43:50.729589,2.0,4.0,449.0
2023-05-24-10:43:50.730589,2.0,4.0,449.0
2023-05-24-10:43:50.731590,3.0,1.0,449.0
2023-05-24-10:43:50.732589,6.0,2.0,449.0
2023-05-24-10:43:50.733588,6.0,2.0,449.0
2023-05-24-10:43:50.735588,6.0,2.0,449.0
2023-05-24-10:43:50.736568,7.0,4.0,449.0
2023-05-24-10:43:50.736568,7.0,4.0,449.0
2023-05-24-10:43:50.737588,7.0,4.0,449.0
2023-05-24-10:43:50.738552,7.0,4.0,449.0
2023-05-24-10:43:50.739591,5.0,2.0,449.0
2023-05-24-10:43:50.740588,3.0,5.0,449.0
2023-05-24-10:43:50.741589,3.0,7.0,449.0
2023-05-24-10:43:50.742588,3.0,7.0,449.0
2023-05-24-10:43:50.743589,3.0,8.0,449.0
2023-05-24-10:43:50.744593,6.0,8.0,449.0
2023-05-24-10:43:50.745589,7.0,7.0,449.0
2023-05-24-10:43:50.746589,7.0,7.0,449.0
2023-05-24-10:43:50.747589,7.0,7.0,449.0
2023-05-24-10:43:50.748589,7.0,6.0,449.0
2023-05-24-10:43:50.749595,4.0,1.0,449.0
2023-05-24-10:43:50.750589,4.0,1.0,449.0
2023-05-24-10:43:50.751588,4.0,1.0,449.0
2023-05-24-10:43:50.752591,4.0,0.0,449.0
2023-05-24-10:43:50.753588,6.0,4.0,449.0
2023-05-24-10:43:50.754588,6.0,4.0,449.0
2023-05-24-10:43:50.755591,6.0,4.0,449.0
2023-05-24-10:43:50.756596,5.0,4.0,449.0
2023-05-24-10:43:50.757588,4.0,7.0,449.0
2023-05-24-10:43:50.758612,4.0,7.0,449.0
2023-05-24-10:43:50.759609,4.0,7.0,449.0
2023-05-24-10:43:50.760612,6.0,5.0,449.0
2023-05-24-10:43:50.761609,2.0,5.0,449.0
2023-05-24-10:43:50.762610,4.0,8.0,449.0
2023-05-24-10:43:50.763609,4.0,8.0,449.0
2023-05-24-10:43:50.764615,8.0,7.0,449.0
2023-05-24-10:43:50.765609,6.0,3.0,449.0
2023-05-24-10:43:50.766609,3.0,1.0,449.0
2023-05-24-10:43:50.767610,3.0,1.0,449.0
2023-05-24-10:43:50.768610,5.0,1.0,449.0
2023-05-24-10:43:50.770588,5.0,4.0,449.0
2023-05-24-10:43:50.770588,6.0,0.0,449.0
2023-05-24-10:43:50.771612,6.0,0.0,449.0
2023-05-24-10:43:50.772609,6.0,1.0,449.0
2023-05-24-10:43:50.773613,3.0,2.0,449.0
2023-05-24-10:43:50.774612,3.0,5.0,449.0
2023-05-24-10:43:50.775553,3.0,5.0,449.0
2023-05-24-10:43:50.776609,5.0,3.0,449.0
2023-05-24-10:43:50.777609,3.0,8.0,449.0
2023-05-24-10:43:50.778609,5.0,8.0,449.0
2023-05-24-10:43:50.779553,5.0,8.0,449.0
2023-05-24-10:43:50.780604,2.0,3.0,449.0
2023-05-24-10:43:50.781609,3.0,9.0,449.0
2023-05-24-10:43:50.782588,4.0,8.0,449.0
2023-05-24-10:43:50.783579,4.0,8.0,449.0
2023-05-24-10:43:50.784590,5.0,1.0,449.0
2023-05-24-10:43:50.785588,5.0,1.0,449.0
2023-05-24-10:43:50.786609,5.0,1.0,449.0
2023-05-24-10:43:50.787612,5.0,1.0,449.0
2023-05-24-10:43:50.788609,5.0,1.0,449.0
2023-05-24-10:43:50.789609,7.0,1.0,449.0
2023-05-24-10:43:50.790612,2.0,5.0,449.0
2023-05-24-10:43:50.791609,2.0,5.0,449.0
2023-05-24-10:43:50.792609,2.0,5.0,449.0
2023-05-24-10:43:50.793612,5.0,5.0,449.0
2023-05-24-10:43:50.794610,4.0,5.0,449.0
2023-05-24-10:43:50.795614,4.0,5.0,449.0
2023-05-24-10:43:50.796610,4.0,5.0,449.0
2023-05-24-10:43:50.797593,3.0,6.0,449.0
2023-05-24-10:43:50.798608,7.0,4.0,449.0
2023-05-24-10:43:50.799610,7.0,4.0,449.0
2023-05-24-10:43:50.800610,7.0,4.0,449.0
2023-05-24-10:43:50.801610,3.0,4.0,449.0
2023-05-24-10:43:50.802610,7.0,4.0,449.0
2023-05-24-10:43:50.804587,7.0,4.0,449.0
2023-05-24-10:43:50.804587,4.0,1.0,449.0
2023-05-24-10:43:50.805589,4.0,3.0,449.0
2023-05-24-10:43:50.806588,6.0,6.0,449.0
2023-05-24-10:43:50.807588,6.0,6.0,449.0
2023-05-24-10:43:50.808588,6.0,6.0,449.0
2023-05-24-10:43:50.809589,2.0,6.0,449.0
2023-05-24-10:43:50.810589,6.0,5.0,449.0
2023-05-24-10:43:50.811588,5.0,4.0,449.0
2023-05-24-10:43:50.812589,5.0,4.0,449.0
2023-05-24-10:43:50.813588,6.0,6.0,449.0
2023-05-24-10:43:50.814589,6.0,6.0,449.0
2023-05-24-10:43:50.815593,7.0,6.0,449.0
2023-05-24-10:43:50.816553,7.0,6.0,449.0
2023-05-24-10:43:50.817588,6.0,7.0,449.0
2023-05-24-10:43:50.818588,6.0,7.0,449.0
2023-05-24-10:43:50.819592,6.0,4.0,449.0
2023-05-24-10:43:50.820553,6.0,4.0,449.0
2023-05-24-10:43:50.821592,6.0,4.0,449.0
2023-05-24-10:43:50.822588,6.0,2.0,449.0
2023-05-24-10:43:50.823588,5.0,0.0,449.0
2023-05-24-10:43:50.824560,5.0,0.0,449.0
2023-05-24-10:43:50.825587,4.0,2.0,449.0
2023-05-24-10:43:50.826588,8.0,6.0,449.0
2023-05-24-10:43:50.827588,5.0,6.0,449.0
2023-05-24-10:43:50.828553,5.0,6.0,449.0
2023-05-24-10:43:50.829588,5.0,6.0,449.0
2023-05-24-10:43:50.830553,3.0,5.0,449.0
2023-05-24-10:43:50.831589,7.0,10.0,449.0
2023-05-24-10:43:50.832591,7.0,10.0,449.0
2023-05-24-10:43:50.833591,7.0,10.0,449.0
2023-05-24-10:43:50.834588,1.0,10.0,449.0
2023-05-24-10:43:50.835591,4.0,2.0,449.0
2023-05-24-10:43:50.836588,7.0,4.0,449.0
2023-05-24-10:43:50.838589,7.0,4.0,449.0
2023-05-24-10:43:50.838589,3.0,0.0,449.0
2023-05-24-10:43:50.839610,1.0,4.0,449.0
2023-05-24-10:43:50.840603,1.0,3.0,449.0
2023-05-24-10:43:50.841609,1.0,3.0,449.0
2023-05-24-10:43:50.842588,6.0,4.0,449.0
2023-05-24-10:43:50.843588,6.0,6.0,449.0
2023-05-24-10:43:50.844553,5.0,7.0,449.0
2023-05-24-10:43:50.845552,5.0,7.0,449.0
2023-05-24-10:43:50.846552,6.0,7.0,449.0
2023-05-24-10:43:50.847552,6.0,11.0,449.0
2023-05-24-10:43:50.848552,5.0,10.0,449.0
2023-05-24-10:43:50.849552,5.0,10.0,449.0
2023-05-24-10:43:50.850552,6.0,10.0,449.0
2023-05-24-10:43:50.851553,1.0,4.0,449.0
2023-05-24-10:43:50.852553,1.0,4.0,449.0
2023-05-24-10:43:50.853589,1.0,4.0,449.0
2023-05-24-10:43:50.854586,6.0,2.0,449.0
2023-05-24-10:43:50.855588,4.0,2.0,449.0
2023-05-24-10:43:50.856586,4.0,2.0,449.0
2023-05-24-10:43:50.857586,4.0,2.0,449.0
2023-05-24-10:43:50.858587,6.0,0.0,449.0
2023-05-24-10:43:50.859586,4.0,3.0,449.0
2023-05-24-10:43:50.860587,4.0,3.0,449.0
2023-05-24-10:43:50.861553,4.0,3.0,449.0
2023-05-24-10:43:50.862588,5.0,2.0,449.0
2023-05-24-10:43:50.863586,4.0,4.0,449.0
2023-05-24-10:43:50.864587,4.0,4.0,449.0
2023-05-24-10:43:50.865554,4.0,4.0,449.0
2023-05-24-10:43:50.866586,5.0,2.0,449.0
2023-05-24-10:43:50.867590,7.0,1.0,449.0
2023-05-24-10:43:50.868588,7.0,1.0,449.0
2023-05-24-10:43:50.869589,7.0,1.0,449.0
2023-05-24-10:43:50.870586,3.0,4.0,449.0
2023-05-24-10:43:50.871595,5.0,6.0,449.0
2023-05-24-10:43:50.873586,6.0,5.0,449.0
2023-05-24-10:43:50.873586,6.0,3.0,449.0
2023-05-24-10:43:50.874587,6.0,3.0,449.0
2023-05-24-10:43:50.875592,5.0,0.0,449.0
2023-05-24-10:43:50.876587,0.0,0.0,449.0
2023-05-24-10:43:50.877586,0.0,0.0,449.0
2023-05-24-10:43:50.878588,0.0,0.0,449.0
2023-05-24-10:43:50.879586,4.0,12.0,449.0
2023-05-24-10:43:50.880594,9.0,9.0,449.0
2023-05-24-10:43:50.881592,9.0,9.0,449.0
2023-05-24-10:43:50.882587,9.0,9.0,449.0
2023-05-24-10:43:50.883591,7.0,4.0,449.0
2023-05-24-10:43:50.884586,5.0,2.0,449.0
2023-05-24-10:43:50.885589,5.0,1.0,449.0
2023-05-24-10:43:50.886586,5.0,1.0,449.0
2023-05-24-10:43:50.887588,4.0,1.0,449.0
2023-05-24-10:43:50.888612,4.0,5.0,449.0
2023-05-24-10:43:50.889610,4.0,5.0,449.0
2023-05-24-10:43:50.890610,4.0,5.0,449.0
2023-05-24-10:43:50.891589,5.0,6.0,449.0
2023-05-24-10:43:50.892590,1.0,5.0,449.0
2023-05-24-10:43:50.893587,6.0,11.0,449.0
2023-05-24-10:43:50.894589,6.0,11.0,449.0
2023-05-24-10:43:50.895590,7.0,5.0,449.0
2023-05-24-10:43:50.896590,8.0,2.0,449.0
2023-05-24-10:43:50.897573,3.0,3.0,449.0
2023-05-24-10:43:50.898588,3.0,3.0,449.0
2023-05-24-10:43:50.899591,5.0,4.0,449.0
2023-05-24-10:43:50.900592,5.0,1.0,449.0
2023-05-24-10:43:50.901589,5.0,1.0,449.0
2023-05-24-10:43:50.902588,5.0,1.0,449.0
2023-05-24-10:43:50.903589,5.0,5.0,449.0
2023-05-24-10:43:50.904588,1.0,7.0,449.0
2023-05-24-10:43:50.906553,1.0,7.0,449.0
2023-05-24-10:43:50.906553,5.0,4.0,449.0
2023-05-24-10:43:50.907611,5.0,4.0,449.0
2023-05-24-10:43:50.908611,2.0,3.0,449.0
2023-05-24-10:43:50.909610,2.0,3.0,449.0
2023-05-24-10:43:50.910609,2.0,3.0,449.0
2023-05-24-10:43:50.911614,3.0,4.0,449.0
2023-05-24-10:43:50.912610,4.0,3.0,449.0
2023-05-24-10:43:50.913610,4.0,1.0,449.0
2023-05-24-10:43:50.914610,4.0,1.0,449.0
2023-05-24-10:43:50.915613,5.0,3.0,449.0
2023-05-24-10:43:50.916611,5.0,3.0,449.0
2023-05-24-10:43:50.917610,6.0,4.0,449.0
2023-05-24-10:43:50.918612,6.0,4.0,449.0
2023-05-24-10:43:50.919610,6.0,4.0,449.0
2023-05-24-10:43:50.920612,6.0,4.0,449.0
2023-05-24-10:43:50.921612,5.0,1.0,449.0
2023-05-24-10:43:50.922555,5.0,1.0,449.0
2023-05-24-10:43:50.923588,5.0,1.0,449.0
2023-05-24-10:43:50.924590,1.0,1.0,449.0
2023-05-24-10:43:50.925589,7.0,8.0,449.0
2023-05-24-10:43:50.926589,7.0,11.0,449.0
2023-05-24-10:43:50.927588,7.0,11.0,449.0
2023-05-24-10:43:50.928591,5.0,6.0,449.0
2023-05-24-10:43:50.929588,5.0,7.0,449.0
2023-05-24-10:43:50.930588,5.0,10.0,449.0
2023-05-24-10:43:50.931591,5.0,10.0,449.0
2023-05-24-10:43:50.932578,7.0,5.0,449.0
2023-05-24-10:43:50.933580,2.0,1.0,449.0
2023-05-24-10:43:50.934584,3.0,5.0,449.0
2023-05-24-10:43:50.935589,3.0,5.0,449.0
2023-05-24-10:43:50.936588,6.0,9.0,449.0
2023-05-24-10:43:50.937578,6.0,9.0,449.0
2023-05-24-10:43:50.938579,6.0,2.0,449.0
2023-05-24-10:43:50.940580,6.0,2.0,449.0
2023-05-24-10:43:50.940580,6.0,2.0,449.0
2023-05-24-10:43:50.941601,1.0,1.0,449.0
2023-05-24-10:43:50.942601,6.0,1.0,449.0
2023-05-24-10:43:50.943600,6.0,1.0,449.0
2023-05-24-10:43:50.944601,5.0,3.0,449.0
2023-05-24-10:43:50.945601,2.0,1.0,449.0
2023-05-24-10:43:50.946601,2.0,1.0,449.0
2023-05-24-10:43:50.947552,2.0,1.0,449.0
2023-05-24-10:43:50.948600,7.0,4.0,449.0
2023-05-24-10:43:50.949600,4.0,3.0,449.0
2023-05-24-10:43:50.950600,5.0,4.0,449.0
2023-05-24-10:43:50.951552,5.0,4.0,449.0
2023-05-24-10:43:50.952578,6.0,11.0,449.0
2023-05-24-10:43:50.953579,6.0,13.0,449.0
2023-05-24-10:43:50.954601,5.0,5.0,449.0
2023-05-24-10:43:50.955600,5.0,5.0,449.0
2023-05-24-10:43:50.956607,5.0,4.0,449.0
2023-05-24-10:43:50.957602,2.0,1.0,449.0
2023-05-24-10:43:50.958604,2.0,1.0,449.0
2023-05-24-10:43:50.959599,2.0,1.0,449.0
2023-05-24-10:43:50.960601,2.0,1.0,449.0
2023-05-24-10:43:50.961578,5.0,2.0,449.0
2023-05-24-10:43:50.962601,8.0,5.0,449.0
2023-05-24-10:43:50.963606,8.0,5.0,449.0
2023-05-24-10:43:50.964601,8.0,5.0,449.0
2023-05-24-10:43:50.965600,7.0,7.0,449.0
2023-05-24-10:43:50.966603,4.0,6.0,449.0
2023-05-24-10:43:50.967601,4.0,6.0,449.0
2023-05-24-10:43:50.968603,4.0,6.0,449.0
2023-05-24-10:43:50.969579,7.0,7.0,449.0
2023-05-24-10:43:50.970605,5.0,8.0,449.0
2023-05-24-10:43:50.971602,5.0,8.0,449.0
2023-05-24-10:43:50.972602,5.0,8.0,449.0
2023-05-24-10:43:50.973601,3.0,2.0,449.0
2023-05-24-10:43:50.975579,2.0,1.0,449.0
2023-05-24-10:43:50.975579,2.0,1.0,449.0
2023-05-24-10:43:50.976600,2.0,1.0,449.0
2023-05-24-10:43:50.977579,5.0,8.0,449.0
2023-05-24-10:43:50.978578,5.0,8.0,449.0
2023-05-24-10:43:50.979603,5.0,8.0,449.0
2023-05-24-10:43:50.980606,5.0,8.0,449.0
2023-05-24-10:43:50.981589,3.0,7.0,449.0
2023-05-24-10:43:50.982612,6.0,5.0,449.0
2023-05-24-10:43:50.983610,6.0,5.0,449.0
2023-05-24-10:43:50.984551,6.0,5.0,449.0
2023-05-24-10:43:50.985553,6.0,2.0,449.0
2023-05-24-10:43:50.986587,6.0,3.0,449.0
2023-05-24-10:43:50.987586,6.0,3.0,449.0
2023-05-24-10:43:50.988553,6.0,3.0,449.0
2023-05-24-10:43:50.989586,2.0,3.0,449.0
2023-05-24-10:43:50.990589,7.0,6.0,449.0
2023-05-24-10:43:50.991586,7.0,6.0,449.0
2023-05-24-10:43:50.992553,7.0,6.0,449.0
2023-05-24-10:43:50.993592,5.0,7.0,449.0
2023-05-24-10:43:50.994587,5.0,10.0,449.0
2023-05-24-10:43:50.995591,4.0,4.0,449.0
2023-05-24-10:43:50.996585,4.0,4.0,449.0
2023-05-24-10:43:50.997608,4.0,7.0,449.0
2023-05-24-10:43:50.998603,2.0,0.0,449.0
2023-05-24-10:43:50.999588,6.0,4.0,449.0
2023-05-24-10:43:51.000587,6.0,4.0,449.0
2023-05-24-10:43:51.001586,5.0,2.0,449.0
2023-05-24-10:43:51.002591,1.0,1.0,449.0
2023-05-24-10:43:51.003586,1.0,1.0,449.0
2023-05-24-10:43:51.004587,1.0,1.0,449.0
2023-05-24-10:43:51.005586,1.0,1.0,449.0
2023-05-24-10:43:51.006590,5.0,19.0,449.0
2023-05-24-10:43:51.008590,6.0,12.0,449.0
2023-05-24-10:43:51.008590,4.0,11.0,449.0
2023-05-24-10:43:51.009610,5.0,6.0,449.0
2023-05-24-10:43:51.010610,2.0,6.0,449.0
2023-05-24-10:43:51.011613,2.0,6.0,449.0
2023-05-24-10:43:51.012610,2.0,6.0,449.0
2023-05-24-10:43:51.013609,2.0,6.0,449.0
2023-05-24-10:43:51.014614,2.0,0.0,449.0
2023-05-24-10:43:51.015589,9.0,0.0,449.0
