2022-01-27-10:42:21.261609,13.0,7.0,320.0
2022-01-27-10:42:21.262599,7.0,10.0,320.0
2022-01-27-10:42:21.262599,1.0,4.0,320.0
2022-01-27-10:42:21.263575,16.0,4.0,320.0
2022-01-27-10:42:21.264568,14.0,4.0,319.0
2022-01-27-10:42:21.265570,9.0,2.0,319.0
2022-01-27-10:42:21.266596,0.0,7.0,319.0
2022-01-27-10:42:21.267594,7.0,9.0,320.0
2022-01-27-10:42:21.268592,18.0,4.0,319.0
2022-01-27-10:42:21.269580,20.0,4.0,320.0
2022-01-27-10:42:21.271580,17.0,3.0,320.0
2022-01-27-10:42:21.272578,14.0,4.0,320.0
2022-01-27-10:42:21.273588,16.0,1.0,320.0
2022-01-27-10:42:21.274568,10.0,4.0,319.0
2022-01-27-10:42:21.275585,12.0,5.0,319.0
2022-01-27-10:42:21.276583,15.0,10.0,320.0
2022-01-27-10:42:21.277581,6.0,12.0,320.0
2022-01-27-10:42:21.278577,11.0,1.0,319.0
2022-01-27-10:42:21.279575,17.0,1.0,320.0
2022-01-27-10:42:21.280576,13.0,6.0,320.0
2022-01-27-10:42:21.281522,10.0,1.0,319.0
2022-01-27-10:42:21.282546,9.0,2.0,319.0
2022-01-27-10:42:21.283543,7.0,2.0,320.0
2022-01-27-10:42:21.284554,1.0,1.0,320.0
2022-01-27-10:42:21.285532,11.0,8.0,320.0
2022-01-27-10:42:21.286538,10.0,12.0,320.0
2022-01-27-10:42:21.287525,2.0,5.0,319.0
2022-01-27-10:42:21.288533,11.0,2.0,320.0
2022-01-27-10:42:21.289501,14.0,2.0,320.0
2022-01-27-10:42:21.290501,10.0,6.0,320.0
2022-01-27-10:42:21.291519,5.0,1.0,320.0
2022-01-27-10:42:21.292520,6.0,0.0,320.0
2022-01-27-10:42:21.293517,9.0,7.0,320.0
2022-01-27-10:42:21.294516,9.0,10.0,320.0
2022-01-27-10:42:21.295512,2.0,5.0,320.0
2022-01-27-10:42:21.296512,17.0,1.0,319.0
2022-01-27-10:42:21.297506,14.0,2.0,320.0
2022-01-27-10:42:21.298503,13.0,3.0,319.0
2022-01-27-10:42:21.299503,11.0,3.0,319.0
2022-01-27-10:42:21.300499,9.0,2.0,320.0
2022-01-27-10:42:21.302495,9.0,2.0,320.0
2022-01-27-10:42:21.302495,11.0,10.0,320.0
2022-01-27-10:42:21.303490,6.0,2.0,319.0
2022-01-27-10:42:21.304512,17.0,1.0,320.0
2022-01-27-10:42:21.305510,11.0,3.0,320.0
2022-01-27-10:42:21.306503,11.0,1.0,320.0
2022-01-27-10:42:21.307460,0.0,1.0,320.0
2022-01-27-10:42:21.308476,12.0,11.0,319.0
2022-01-27-10:42:21.309474,1.0,6.0,320.0
2022-01-27-10:42:21.310470,15.0,4.0,319.0
2022-01-27-10:42:21.311467,16.0,2.0,319.0
2022-01-27-10:42:21.312470,13.0,2.0,319.0
2022-01-27-10:42:21.313464,12.0,2.0,320.0
2022-01-27-10:42:21.314461,9.0,2.0,320.0
2022-01-27-10:42:21.315458,1.0,5.0,320.0
2022-01-27-10:42:21.316456,10.0,5.0,319.0
2022-01-27-10:42:21.317457,11.0,8.0,320.0
2022-01-27-10:42:21.318450,11.0,8.0,320.0
2022-01-27-10:42:21.319447,3.0,9.0,320.0
2022-01-27-10:42:21.320469,12.0,1.0,320.0
2022-01-27-10:42:21.321449,11.0,2.0,320.0
2022-01-27-10:42:21.322460,7.0,4.0,320.0
2022-01-27-10:42:21.323457,12.0,5.0,319.0
2022-01-27-10:42:21.324407,14.0,8.0,320.0
2022-01-27-10:42:21.325451,6.0,8.0,320.0
2022-01-27-10:42:21.326429,8.0,2.0,320.0
2022-01-27-10:42:21.327427,18.0,3.0,319.0
2022-01-27-10:42:21.328397,17.0,5.0,319.0
2022-01-27-10:42:21.329412,12.0,5.0,320.0
2022-01-27-10:42:21.330418,4.0,3.0,319.0
2022-01-27-10:42:21.331416,10.0,7.0,319.0
2022-01-27-10:42:21.332413,6.0,10.0,320.0
2022-01-27-10:42:21.333414,10.0,5.0,320.0
2022-01-27-10:42:21.334407,18.0,1.0,320.0
2022-01-27-10:42:21.336406,18.0,1.0,320.0
2022-01-27-10:42:21.336406,15.0,3.0,319.0
2022-01-27-10:42:21.337373,8.0,0.0,319.0
2022-01-27-10:42:21.338396,12.0,2.0,319.0
2022-01-27-10:42:21.339394,3.0,4.0,320.0
2022-01-27-10:42:21.340397,2.0,7.0,319.0
2022-01-27-10:42:21.341362,13.0,13.0,320.0
2022-01-27-10:42:21.342385,12.0,7.0,320.0
2022-01-27-10:42:21.343382,3.0,9.0,320.0
2022-01-27-10:42:21.344354,17.0,1.0,319.0
2022-01-27-10:42:21.345351,20.0,1.0,320.0
2022-01-27-10:42:21.346385,14.0,2.0,320.0
2022-01-27-10:42:21.347374,10.0,3.0,319.0
2022-01-27-10:42:21.348343,11.0,5.0,320.0
2022-01-27-10:42:21.349390,11.0,2.0,320.0
2022-01-27-10:42:21.349390,3.0,6.0,319.0
2022-01-27-10:42:21.350423,7.0,8.0,319.0
2022-01-27-10:42:21.351422,10.0,8.0,320.0
2022-01-27-10:42:21.352389,3.0,8.0,320.0
2022-01-27-10:42:21.353414,5.0,2.0,320.0
2022-01-27-10:42:21.354405,15.0,3.0,319.0
2022-01-27-10:42:21.355404,16.0,2.0,320.0
2022-01-27-10:42:21.356402,10.0,2.0,320.0
2022-01-27-10:42:21.357373,8.0,0.0,320.0
2022-01-27-10:42:21.358396,2.0,1.0,320.0
2022-01-27-10:42:21.359393,10.0,4.0,319.0
2022-01-27-10:42:21.360389,10.0,12.0,319.0
2022-01-27-10:42:21.361388,2.0,3.0,320.0
2022-01-27-10:42:21.362383,19.0,2.0,320.0
2022-01-27-10:42:21.363419,20.0,3.0,320.0
2022-01-27-10:42:21.363419,11.0,5.0,320.0
2022-01-27-10:42:21.364453,9.0,2.0,319.0
2022-01-27-10:42:21.365450,7.0,0.0,320.0
2022-01-27-10:42:21.366449,8.0,6.0,320.0
2022-01-27-10:42:21.367445,11.0,13.0,319.0
2022-01-27-10:42:21.368442,0.0,10.0,320.0
2022-01-27-10:42:21.369440,0.0,10.0,320.0
2022-01-27-10:42:21.371455,17.0,2.0,320.0
2022-01-27-10:42:21.371455,2.0,3.0,320.0
2022-01-27-10:42:21.372452,4.0,5.0,319.0
2022-01-27-10:42:21.373449,10.0,8.0,319.0
2022-01-27-10:42:21.374429,4.0,9.0,319.0
2022-01-27-10:42:21.375444,4.0,2.0,320.0
2022-01-27-10:42:21.376422,19.0,1.0,319.0
2022-01-27-10:42:21.377438,14.0,5.0,320.0
2022-01-27-10:42:21.378436,7.0,6.0,320.0
2022-01-27-10:42:21.379433,11.0,2.0,319.0
2022-01-27-10:42:21.380431,10.0,9.0,320.0
2022-01-27-10:42:21.381419,7.0,10.0,320.0
2022-01-27-10:42:21.382419,15.0,2.0,320.0
2022-01-27-10:42:21.383414,18.0,1.0,319.0
2022-01-27-10:42:21.384410,12.0,3.0,319.0
2022-01-27-10:42:21.385408,10.0,3.0,319.0
2022-01-27-10:42:21.386406,8.0,2.0,320.0
2022-01-27-10:42:21.387403,13.0,7.0,320.0
2022-01-27-10:42:21.388401,15.0,2.0,319.0
2022-01-27-10:42:21.389399,17.0,0.0,319.0
2022-01-27-10:42:21.390399,12.0,1.0,319.0
2022-01-27-10:42:21.391373,7.0,3.0,320.0
2022-01-27-10:42:21.392391,6.0,0.0,320.0
2022-01-27-10:42:21.393388,10.0,4.0,319.0
2022-01-27-10:42:21.394386,12.0,7.0,319.0
2022-01-27-10:42:21.395382,3.0,9.0,319.0
2022-01-27-10:42:21.396380,18.0,2.0,320.0
2022-01-27-10:42:21.397377,14.0,2.0,319.0
2022-01-27-10:42:21.398377,10.0,4.0,320.0
2022-01-27-10:42:21.399371,13.0,1.0,320.0
2022-01-27-10:42:21.400368,7.0,1.0,320.0
2022-01-27-10:42:21.401366,3.0,3.0,319.0
2022-01-27-10:42:21.402364,8.0,8.0,319.0
2022-01-27-10:42:21.404359,12.0,6.0,319.0
2022-01-27-10:42:21.405309,15.0,2.0,319.0
2022-01-27-10:42:21.405309,13.0,2.0,320.0
2022-01-27-10:42:21.406356,10.0,0.0,320.0
2022-01-27-10:42:21.407304,8.0,2.0,320.0
2022-01-27-10:42:21.408348,2.0,6.0,320.0
2022-01-27-10:42:21.409345,12.0,9.0,319.0
2022-01-27-10:42:21.410342,0.0,8.0,320.0
2022-01-27-10:42:21.411339,16.0,1.0,320.0
2022-01-27-10:42:21.412337,14.0,4.0,320.0
2022-01-27-10:42:21.413334,11.0,1.0,320.0
2022-01-27-10:42:21.414334,9.0,3.0,320.0
2022-01-27-10:42:21.415334,3.0,6.0,319.0
2022-01-27-10:42:21.416326,10.0,8.0,320.0
2022-01-27-10:42:21.417324,12.0,13.0,320.0
2022-01-27-10:42:21.418321,5.0,5.0,320.0
2022-01-27-10:42:21.419772,14.0,2.0,320.0
2022-01-27-10:42:21.419772,12.0,4.0,320.0
2022-01-27-10:42:21.420807,8.0,1.0,320.0
2022-01-27-10:42:21.421824,3.0,2.0,320.0
2022-01-27-10:42:21.422821,9.0,6.0,320.0
2022-01-27-10:42:21.423764,15.0,5.0,320.0
2022-01-27-10:42:21.424762,13.0,2.0,320.0
2022-01-27-10:42:21.425792,9.0,2.0,320.0
2022-01-27-10:42:21.426790,1.0,4.0,320.0
2022-01-27-10:42:21.427779,13.0,7.0,320.0
2022-01-27-10:42:21.428786,8.0,8.0,320.0
2022-01-27-10:42:21.429772,11.0,2.0,319.0
2022-01-27-10:42:21.430772,18.0,2.0,319.0
2022-01-27-10:42:21.431768,13.0,1.0,320.0
2022-01-27-10:42:21.432806,9.0,1.0,320.0
2022-01-27-10:42:21.433194,7.0,2.0,320.0
2022-01-27-10:42:21.433194,11.0,4.0,320.0
2022-01-27-10:42:21.434219,8.0,9.0,319.0
2022-01-27-10:42:21.435220,9.0,10.0,319.0
2022-01-27-10:42:21.436216,3.0,9.0,319.0
2022-01-27-10:42:21.437212,16.0,2.0,320.0
2022-01-27-10:42:21.438208,10.0,5.0,319.0
2022-01-27-10:42:21.440178,7.0,4.0,319.0
2022-01-27-10:42:21.440178,13.0,16.0,320.0
2022-01-27-10:42:21.441200,13.0,9.0,319.0
2022-01-27-10:42:21.442225,3.0,1.0,319.0
2022-01-27-10:42:21.443198,15.0,2.0,320.0
2022-01-27-10:42:21.444191,16.0,0.0,320.0
2022-01-27-10:42:21.445191,8.0,3.0,320.0
2022-01-27-10:42:21.446186,1.0,1.0,319.0
2022-01-27-10:42:21.447254,10.0,13.0,319.0
2022-01-27-10:42:21.447664,2.0,10.0,320.0
2022-01-27-10:42:21.447664,16.0,1.0,319.0
2022-01-27-10:42:21.448690,16.0,1.0,319.0
2022-01-27-10:42:21.449685,15.0,2.0,320.0
2022-01-27-10:42:21.450682,12.0,4.0,320.0
2022-01-27-10:42:21.451753,0.0,4.0,320.0
2022-01-27-10:42:21.451753,0.0,4.0,320.0
2022-01-27-10:42:21.452801,0.0,4.0,320.0
2022-01-27-10:42:21.453749,9.0,9.0,320.0
2022-01-27-10:42:21.454746,9.0,9.0,320.0
2022-01-27-10:42:21.455981,9.0,9.0,320.0
2022-01-27-10:42:21.455981,9.0,9.0,320.0
2022-01-27-10:42:21.457058,9.0,9.0,320.0
2022-01-27-10:42:21.457058,3.0,8.0,319.0
2022-01-27-10:42:21.458107,3.0,8.0,319.0
2022-01-27-10:42:21.458107,13.0,3.0,320.0
2022-01-27-10:42:21.459153,12.0,1.0,320.0
2022-01-27-10:42:21.460150,12.0,1.0,320.0
2022-01-27-10:42:21.461153,12.0,1.0,320.0
2022-01-27-10:42:21.462145,16.0,1.0,320.0
2022-01-27-10:42:21.463145,14.0,2.0,319.0
2022-01-27-10:42:21.464140,13.0,1.0,320.0
2022-01-27-10:42:21.465173,13.0,1.0,320.0
2022-01-27-10:42:21.465173,9.0,5.0,320.0
2022-01-27-10:42:21.466228,7.0,1.0,320.0
2022-01-27-10:42:21.467224,6.0,1.0,319.0
2022-01-27-10:42:21.468226,6.0,1.0,319.0
2022-01-27-10:42:21.469220,6.0,1.0,319.0
2022-01-27-10:42:21.471225,9.0,11.0,319.0
2022-01-27-10:42:21.471225,9.0,11.0,319.0
2022-01-27-10:42:21.472190,9.0,11.0,319.0
2022-01-27-10:42:21.473208,9.0,11.0,319.0
2022-01-27-10:42:21.474151,10.0,8.0,319.0
2022-01-27-10:42:21.475321,10.0,1.0,319.0
2022-01-27-10:42:21.475321,16.0,3.0,319.0
2022-01-27-10:42:21.476192,16.0,3.0,319.0
2022-01-27-10:42:21.477171,16.0,3.0,319.0
2022-01-27-10:42:21.478187,16.0,1.0,320.0
2022-01-27-10:42:21.479188,17.0,2.0,320.0
2022-01-27-10:42:21.480182,14.0,3.0,319.0
2022-01-27-10:42:21.481152,14.0,3.0,319.0
2022-01-27-10:42:21.482176,10.0,5.0,319.0
2022-01-27-10:42:21.483357,7.0,1.0,320.0
2022-01-27-10:42:21.483357,8.0,0.0,320.0
2022-01-27-10:42:21.484415,8.0,2.0,319.0
2022-01-27-10:42:21.485391,8.0,2.0,319.0
2022-01-27-10:42:21.486407,8.0,2.0,319.0
2022-01-27-10:42:21.487403,6.0,9.0,320.0
2022-01-27-10:42:21.488400,12.0,9.0,320.0
2022-01-27-10:42:21.489343,8.0,11.0,320.0
2022-01-27-10:42:21.490396,11.0,10.0,319.0
2022-01-27-10:42:21.491373,3.0,10.0,319.0
2022-01-27-10:42:21.492460,14.0,0.0,320.0
2022-01-27-10:42:21.492460,14.0,0.0,320.0
2022-01-27-10:42:21.493497,14.0,0.0,320.0
2022-01-27-10:42:21.494492,18.0,2.0,320.0
2022-01-27-10:42:21.495491,16.0,2.0,319.0
2022-01-27-10:42:21.496486,13.0,2.0,320.0
2022-01-27-10:42:21.497494,13.0,2.0,320.0
2022-01-27-10:42:21.498480,10.0,0.0,320.0
2022-01-27-10:42:21.499478,8.0,2.0,320.0
2022-01-27-10:42:21.500475,12.0,1.0,320.0
2022-01-27-10:42:21.501472,12.0,1.0,320.0
2022-01-27-10:42:21.502471,12.0,1.0,320.0
2022-01-27-10:42:21.504464,3.0,1.0,320.0
2022-01-27-10:42:21.504464,12.0,11.0,320.0
2022-01-27-10:42:21.505482,12.0,11.0,320.0
2022-01-27-10:42:21.506479,12.0,11.0,320.0
2022-01-27-10:42:21.507479,7.0,13.0,320.0
2022-01-27-10:42:21.508480,3.0,4.0,320.0
2022-01-27-10:42:21.509464,16.0,1.0,319.0
2022-01-27-10:42:21.510462,16.0,1.0,319.0
2022-01-27-10:42:21.511458,17.0,1.0,319.0
2022-01-27-10:42:21.512455,16.0,3.0,320.0
2022-01-27-10:42:21.513452,15.0,0.0,320.0
2022-01-27-10:42:21.514449,15.0,0.0,320.0
2022-01-27-10:42:21.515447,13.0,0.0,320.0
2022-01-27-10:42:21.516449,14.0,2.0,320.0
2022-01-27-10:42:21.517445,14.0,2.0,320.0
2022-01-27-10:42:21.518441,14.0,2.0,320.0
2022-01-27-10:42:21.519436,5.0,3.0,319.0
2022-01-27-10:42:21.520433,5.0,3.0,319.0
2022-01-27-10:42:21.521431,9.0,10.0,319.0
2022-01-27-10:42:21.522428,8.0,12.0,320.0
2022-01-27-10:42:21.523426,0.0,6.0,320.0
2022-01-27-10:42:21.524430,14.0,2.0,319.0
2022-01-27-10:42:21.525420,14.0,2.0,319.0
2022-01-27-10:42:21.526422,14.0,2.0,319.0
2022-01-27-10:42:21.527415,14.0,5.0,320.0
2022-01-27-10:42:21.528415,13.0,3.0,319.0
2022-01-27-10:42:21.529410,13.0,1.0,320.0
2022-01-27-10:42:21.530392,13.0,1.0,320.0
2022-01-27-10:42:21.531362,13.0,1.0,320.0
2022-01-27-10:42:21.532379,13.0,3.0,320.0
2022-01-27-10:42:21.533377,5.0,2.0,319.0
2022-01-27-10:42:21.534376,5.0,2.0,319.0
2022-01-27-10:42:21.535371,5.0,7.0,319.0
2022-01-27-10:42:21.536372,9.0,6.0,319.0
2022-01-27-10:42:21.537366,10.0,10.0,319.0
2022-01-27-10:42:21.538364,10.0,10.0,319.0
2022-01-27-10:42:21.540358,1.0,10.0,320.0
2022-01-27-10:42:21.540358,9.0,0.0,320.0
2022-01-27-10:42:21.541361,12.0,1.0,320.0
2022-01-27-10:42:21.542329,12.0,1.0,320.0
2022-01-27-10:42:21.543350,12.0,1.0,320.0
2022-01-27-10:42:21.544350,15.0,0.0,320.0
2022-01-27-10:42:21.545344,14.0,3.0,319.0
2022-01-27-10:42:21.546380,12.0,3.0,320.0
2022-01-27-10:42:21.546380,12.0,3.0,320.0
2022-01-27-10:42:21.547436,12.0,3.0,320.0
2022-01-27-10:42:21.548431,12.0,2.0,319.0
2022-01-27-10:42:21.549428,12.0,0.0,320.0
2022-01-27-10:42:21.550427,9.0,3.0,319.0
2022-01-27-10:42:21.551426,9.0,3.0,319.0
2022-01-27-10:42:21.552425,2.0,2.0,319.0
2022-01-27-10:42:21.553418,9.0,6.0,319.0
2022-01-27-10:42:21.554417,11.0,9.0,319.0
2022-01-27-10:42:21.555391,11.0,9.0,319.0
2022-01-27-10:42:21.556410,4.0,9.0,320.0
2022-01-27-10:42:21.557387,12.0,4.0,319.0
2022-01-27-10:42:21.558405,12.0,4.0,319.0
2022-01-27-10:42:21.559402,12.0,4.0,319.0
2022-01-27-10:42:21.560399,15.0,0.0,320.0
2022-01-27-10:42:21.561398,15.0,3.0,320.0
2022-01-27-10:42:21.562396,11.0,3.0,320.0
2022-01-27-10:42:21.563391,11.0,3.0,320.0
2022-01-27-10:42:21.564389,11.0,3.0,319.0
2022-01-27-10:42:21.565386,8.0,0.0,319.0
2022-01-27-10:42:21.566383,10.0,0.0,319.0
2022-01-27-10:42:21.567381,10.0,0.0,319.0
2022-01-27-10:42:21.568382,2.0,0.0,319.0
2022-01-27-10:42:21.569375,9.0,7.0,319.0
2022-01-27-10:42:21.570375,9.0,11.0,320.0
2022-01-27-10:42:21.571369,9.0,11.0,320.0
2022-01-27-10:42:21.572369,9.0,13.0,319.0
2022-01-27-10:42:21.573343,5.0,6.0,320.0
2022-01-27-10:42:21.575351,9.0,3.0,320.0
2022-01-27-10:42:21.575351,16.0,4.0,319.0
2022-01-27-10:42:21.576353,12.0,3.0,320.0
2022-01-27-10:42:21.577345,12.0,3.0,320.0
2022-01-27-10:42:21.578345,12.0,3.0,320.0
2022-01-27-10:42:21.579348,12.0,3.0,320.0
2022-01-27-10:42:21.580346,14.0,5.0,320.0
2022-01-27-10:42:21.581339,6.0,4.0,320.0
2022-01-27-10:42:21.582332,11.0,4.0,320.0
2022-01-27-10:42:21.583329,11.0,4.0,320.0
2022-01-27-10:42:21.584335,11.0,4.0,320.0
2022-01-27-10:42:21.585332,5.0,1.0,320.0
2022-01-27-10:42:21.586324,0.0,6.0,320.0
2022-01-27-10:42:21.587321,13.0,10.0,319.0
2022-01-27-10:42:21.588316,13.0,10.0,319.0
2022-01-27-10:42:21.589314,13.0,8.0,320.0
2022-01-27-10:42:21.590311,5.0,7.0,320.0
2022-01-27-10:42:21.591286,5.0,4.0,320.0
2022-01-27-10:42:21.592260,5.0,4.0,320.0
2022-01-27-10:42:21.593305,16.0,1.0,319.0
2022-01-27-10:42:21.594302,18.0,2.0,319.0
2022-01-27-10:42:21.595299,14.0,0.0,320.0
2022-01-27-10:42:21.596296,14.0,0.0,320.0
2022-01-27-10:42:21.597294,16.0,2.0,320.0
2022-01-27-10:42:21.598290,8.0,6.0,319.0
2022-01-27-10:42:21.599287,6.0,0.0,320.0
2022-01-27-10:42:21.600289,6.0,0.0,320.0
2022-01-27-10:42:21.601282,8.0,0.0,319.0
2022-01-27-10:42:21.602281,4.0,6.0,320.0
2022-01-27-10:42:21.603277,11.0,9.0,320.0
2022-01-27-10:42:21.604276,11.0,9.0,320.0
2022-01-27-10:42:21.605275,9.0,7.0,320.0
2022-01-27-10:42:21.606268,3.0,9.0,320.0
2022-01-27-10:42:21.608246,3.0,7.0,319.0
2022-01-27-10:42:21.608246,3.0,7.0,319.0
2022-01-27-10:42:21.609261,17.0,3.0,319.0
2022-01-27-10:42:21.610260,15.0,5.0,320.0
2022-01-27-10:42:21.611255,15.0,5.0,320.0
2022-01-27-10:42:21.612249,15.0,5.0,320.0
2022-01-27-10:42:21.613251,14.0,3.0,319.0
2022-01-27-10:42:21.614247,11.0,4.0,320.0
2022-01-27-10:42:21.615244,9.0,0.0,320.0
2022-01-27-10:42:21.616241,9.0,0.0,320.0
2022-01-27-10:42:21.617239,9.0,0.0,320.0
2022-01-27-10:42:21.618238,1.0,7.0,320.0
2022-01-27-10:42:21.619239,7.0,6.0,320.0
2022-01-27-10:42:21.620233,7.0,6.0,320.0
2022-01-27-10:42:21.621233,7.0,6.0,320.0
2022-01-27-10:42:21.622228,10.0,6.0,319.0
2022-01-27-10:42:21.623223,4.0,7.0,320.0
2022-01-27-10:42:21.624174,4.0,7.0,320.0
2022-01-27-10:42:21.625218,4.0,7.0,320.0
2022-01-27-10:42:21.626196,17.0,1.0,320.0
2022-01-27-10:42:21.627212,18.0,2.0,319.0
2022-01-27-10:42:21.628209,18.0,2.0,319.0
2022-01-27-10:42:21.629207,18.0,2.0,319.0
2022-01-27-10:42:21.630204,13.0,3.0,319.0
2022-01-27-10:42:21.631201,13.0,5.0,319.0
2022-01-27-10:42:21.632198,11.0,4.0,320.0
2022-01-27-10:42:21.633196,11.0,4.0,320.0
2022-01-27-10:42:21.634196,12.0,2.0,320.0
2022-01-27-10:42:21.635191,3.0,5.0,319.0
2022-01-27-10:42:21.636188,9.0,7.0,320.0
2022-01-27-10:42:21.637185,9.0,7.0,320.0
2022-01-27-10:42:21.638183,11.0,6.0,320.0
2022-01-27-10:42:21.639180,11.0,9.0,319.0
2022-01-27-10:42:21.640177,11.0,9.0,319.0
2022-01-27-10:42:21.642174,2.0,9.0,319.0
2022-01-27-10:42:21.642174,13.0,4.0,320.0
2022-01-27-10:42:21.643169,13.0,4.0,320.0
2022-01-27-10:42:21.644166,19.0,3.0,319.0
2022-01-27-10:42:21.645164,19.0,3.0,319.0
2022-01-27-10:42:21.646161,16.0,4.0,319.0
2022-01-27-10:42:21.647159,12.0,4.0,319.0
2022-01-27-10:42:21.648161,10.0,3.0,320.0
2022-01-27-10:42:21.649142,10.0,3.0,320.0
2022-01-27-10:42:21.650153,9.0,1.0,319.0
2022-01-27-10:42:21.651148,11.0,0.0,319.0
2022-01-27-10:42:21.652151,5.0,6.0,320.0
2022-01-27-10:42:21.653155,5.0,6.0,320.0
2022-01-27-10:42:21.654140,10.0,6.0,320.0
2022-01-27-10:42:21.655142,12.0,8.0,319.0
2022-01-27-10:42:21.656139,8.0,13.0,320.0
2022-01-27-10:42:21.657138,5.0,9.0,319.0
2022-01-27-10:42:21.658136,5.0,9.0,319.0
2022-01-27-10:42:21.659127,18.0,2.0,320.0
2022-01-27-10:42:21.660124,16.0,4.0,320.0
2022-01-27-10:42:21.661131,16.0,4.0,320.0
2022-01-27-10:42:21.662118,16.0,4.0,320.0
2022-01-27-10:42:21.663116,16.0,3.0,320.0
2022-01-27-10:42:21.664118,14.0,3.0,319.0
2022-01-27-10:42:21.665111,9.0,1.0,319.0
2022-01-27-10:42:21.666110,9.0,1.0,319.0
2022-01-27-10:42:21.667106,8.0,2.0,319.0
2022-01-27-10:42:21.668103,7.0,3.0,320.0
2022-01-27-10:42:21.669100,2.0,8.0,319.0
2022-01-27-10:42:21.670097,2.0,8.0,319.0
2022-01-27-10:42:21.671094,10.0,5.0,320.0
2022-01-27-10:42:21.672092,8.0,9.0,320.0
2022-01-27-10:42:21.673089,13.0,6.0,320.0
2022-01-27-10:42:21.674069,13.0,6.0,320.0
2022-01-27-10:42:21.675088,17.0,3.0,319.0
2022-01-27-10:42:21.677063,16.0,0.0,320.0
2022-01-27-10:42:21.677063,16.0,0.0,320.0
2022-01-27-10:42:21.678082,16.0,0.0,320.0
2022-01-27-10:42:21.679076,17.0,0.0,320.0
2022-01-27-10:42:21.680070,13.0,0.0,319.0
2022-01-27-10:42:21.681068,13.0,3.0,320.0
2022-01-27-10:42:21.682068,13.0,3.0,320.0
2022-01-27-10:42:21.683062,10.0,4.0,320.0
2022-01-27-10:42:21.684066,7.0,1.0,319.0
2022-01-27-10:42:21.685059,4.0,3.0,320.0
2022-01-27-10:42:21.686038,4.0,3.0,320.0
2022-01-27-10:42:21.687052,8.0,5.0,319.0
2022-01-27-10:42:21.688054,11.0,12.0,320.0
2022-01-27-10:42:21.689047,10.0,15.0,320.0
2022-01-27-10:42:21.690047,10.0,15.0,320.0
2022-01-27-10:42:21.691043,4.0,4.0,319.0
2022-01-27-10:42:21.692039,17.0,1.0,320.0
2022-01-27-10:42:21.693036,17.0,1.0,320.0
2022-01-27-10:42:21.694033,17.0,1.0,320.0
2022-01-27-10:42:21.695031,16.0,4.0,320.0
2022-01-27-10:42:21.696027,11.0,3.0,320.0
2022-01-27-10:42:21.697025,14.0,4.0,320.0
2022-01-27-10:42:21.698026,14.0,4.0,320.0
2022-01-27-10:42:21.699025,14.0,4.0,320.0
2022-01-27-10:42:21.700053,9.0,1.0,319.0
2022-01-27-10:42:21.700053,4.0,4.0,319.0
2022-01-27-10:42:21.701085,4.0,4.0,319.0
2022-01-27-10:42:21.702103,4.0,4.0,319.0
2022-01-27-10:42:21.703281,4.0,4.0,319.0
2022-01-27-10:42:21.703281,5.0,4.0,320.0
2022-01-27-10:42:21.704336,10.0,9.0,320.0
2022-01-27-10:42:21.705337,10.0,13.0,320.0
2022-01-27-10:42:21.706329,10.0,13.0,320.0
2022-01-27-10:42:21.707274,10.0,13.0,320.0
2022-01-27-10:42:21.708328,18.0,1.0,319.0
2022-01-27-10:42:21.710264,18.0,1.0,319.0
2022-01-27-10:42:21.710264,18.0,1.0,319.0
2022-01-27-10:42:21.711295,18.0,1.0,319.0
2022-01-27-10:42:21.712404,11.0,1.0,319.0
2022-01-27-10:42:21.712404,11.0,1.0,319.0
2022-01-27-10:42:21.713435,11.0,1.0,319.0
2022-01-27-10:42:21.714432,11.0,1.0,319.0
2022-01-27-10:42:21.715430,11.0,1.0,319.0
2022-01-27-10:42:21.716625,5.0,2.0,319.0
2022-01-27-10:42:21.716625,12.0,0.0,320.0
2022-01-27-10:42:21.717657,8.0,0.0,319.0
2022-01-27-10:42:21.718656,8.0,0.0,319.0
2022-01-27-10:42:21.719652,8.0,0.0,319.0
2022-01-27-10:42:21.720649,11.0,5.0,320.0
2022-01-27-10:42:21.721748,10.0,13.0,319.0
2022-01-27-10:42:21.721748,10.0,13.0,319.0
2022-01-27-10:42:21.722794,10.0,13.0,319.0
2022-01-27-10:42:21.723782,9.0,3.0,319.0
2022-01-27-10:42:21.725035,14.0,3.0,320.0
2022-01-27-10:42:21.725309,14.0,3.0,320.0
2022-01-27-10:42:21.725309,14.0,3.0,320.0
2022-01-27-10:42:21.726333,14.0,3.0,320.0
2022-01-27-10:42:21.727330,14.0,3.0,320.0
2022-01-27-10:42:21.728330,15.0,4.0,319.0
2022-01-27-10:42:21.729325,15.0,5.0,320.0
2022-01-27-10:42:21.730323,14.0,3.0,319.0
2022-01-27-10:42:21.731320,14.0,3.0,319.0
2022-01-27-10:42:21.732318,14.0,3.0,319.0
2022-01-27-10:42:21.733472,10.0,6.0,320.0
2022-01-27-10:42:21.733472,8.0,0.0,320.0
2022-01-27-10:42:21.734526,8.0,0.0,320.0
2022-01-27-10:42:21.735525,8.0,0.0,320.0
2022-01-27-10:42:21.736522,4.0,4.0,320.0
2022-01-27-10:42:21.737519,10.0,8.0,320.0
2022-01-27-10:42:21.738516,12.0,8.0,320.0
2022-01-27-10:42:21.739518,12.0,8.0,320.0
2022-01-27-10:42:21.740516,8.0,14.0,320.0
2022-01-27-10:42:21.741491,2.0,7.0,320.0
2022-01-27-10:42:21.742484,12.0,1.0,320.0
2022-01-27-10:42:21.744501,12.0,1.0,320.0
2022-01-27-10:42:21.744501,13.0,5.0,320.0
2022-01-27-10:42:21.745497,13.0,5.0,320.0
2022-01-27-10:42:21.746494,13.0,5.0,320.0
2022-01-27-10:42:21.747500,13.0,5.0,320.0
2022-01-27-10:42:21.748489,13.0,2.0,320.0
2022-01-27-10:42:21.749489,7.0,0.0,319.0
2022-01-27-10:42:21.750486,7.0,0.0,319.0
2022-01-27-10:42:21.751489,7.0,0.0,319.0
2022-01-27-10:42:21.752478,4.0,5.0,320.0
2022-01-27-10:42:21.753475,12.0,10.0,320.0
2022-01-27-10:42:21.754473,10.0,11.0,319.0
2022-01-27-10:42:21.755470,10.0,11.0,319.0
2022-01-27-10:42:21.756468,10.0,11.0,319.0
2022-01-27-10:42:21.757433,13.0,3.0,319.0
2022-01-27-10:42:21.758463,18.0,2.0,320.0
2022-01-27-10:42:21.759459,18.0,2.0,320.0
2022-01-27-10:42:21.760449,18.0,2.0,320.0
2022-01-27-10:42:21.761446,18.0,4.0,320.0
2022-01-27-10:42:21.762471,11.0,3.0,320.0
2022-01-27-10:42:21.762471,11.0,3.0,320.0
2022-01-27-10:42:21.763496,11.0,3.0,320.0
2022-01-27-10:42:21.764492,11.0,3.0,320.0
2022-01-27-10:42:21.765492,9.0,4.0,320.0
2022-01-27-10:42:21.766487,4.0,0.0,320.0
2022-01-27-10:42:21.767484,4.0,0.0,320.0
2022-01-27-10:42:21.768483,4.0,0.0,320.0
2022-01-27-10:42:21.769480,1.0,4.0,320.0
2022-01-27-10:42:21.770477,14.0,8.0,319.0
2022-01-27-10:42:21.771475,9.0,9.0,320.0
2022-01-27-10:42:21.772634,9.0,9.0,320.0
2022-01-27-10:42:21.772634,7.0,10.0,320.0
2022-01-27-10:42:21.773665,7.0,2.0,320.0
2022-01-27-10:42:21.774731,14.0,2.0,319.0
2022-01-27-10:42:21.774731,14.0,2.0,319.0
2022-01-27-10:42:21.775756,14.0,2.0,319.0
2022-01-27-10:42:21.776756,14.0,2.0,319.0
2022-01-27-10:42:21.778758,16.0,2.0,319.0
2022-01-27-10:42:21.778758,14.0,5.0,319.0
2022-01-27-10:42:21.779752,14.0,5.0,319.0
2022-01-27-10:42:21.780904,14.0,5.0,319.0
2022-01-27-10:42:21.781134,13.0,4.0,320.0
2022-01-27-10:42:21.781134,10.0,1.0,319.0
2022-01-27-10:42:21.782158,10.0,1.0,319.0
2022-01-27-10:42:21.783157,10.0,1.0,319.0
2022-01-27-10:42:21.784152,10.0,1.0,319.0
2022-01-27-10:42:21.785358,10.0,1.0,319.0
2022-01-27-10:42:21.785358,6.0,7.0,320.0
2022-01-27-10:42:21.786390,16.0,9.0,319.0
2022-01-27-10:42:21.787390,16.0,9.0,319.0
2022-01-27-10:42:21.788353,16.0,9.0,319.0
2022-01-27-10:42:21.789382,10.0,9.0,319.0
2022-01-27-10:42:21.790379,4.0,4.0,320.0
2022-01-27-10:42:21.791345,15.0,1.0,319.0
2022-01-27-10:42:21.792342,15.0,1.0,319.0
2022-01-27-10:42:21.793372,15.0,1.0,319.0
2022-01-27-10:42:21.794370,16.0,1.0,320.0
2022-01-27-10:42:21.795368,16.0,1.0,320.0
2022-01-27-10:42:21.796400,16.0,1.0,320.0
2022-01-27-10:42:21.796400,16.0,1.0,320.0
2022-01-27-10:42:21.797636,16.0,1.0,320.0
2022-01-27-10:42:21.797636,12.0,1.0,319.0
2022-01-27-10:42:21.798775,9.0,1.0,319.0
2022-01-27-10:42:21.798775,9.0,1.0,319.0
2022-01-27-10:42:21.799805,9.0,1.0,319.0
2022-01-27-10:42:21.800968,9.0,1.0,319.0
2022-01-27-10:42:21.800968,5.0,1.0,319.0
2022-01-27-10:42:21.802000,13.0,6.0,320.0
2022-01-27-10:42:21.802997,12.0,10.0,319.0
2022-01-27-10:42:21.803995,12.0,10.0,319.0
2022-01-27-10:42:21.804993,12.0,10.0,319.0
2022-01-27-10:42:21.805992,8.0,10.0,319.0
2022-01-27-10:42:21.806987,3.0,5.0,320.0
2022-01-27-10:42:21.808006,10.0,0.0,319.0
2022-01-27-10:42:21.808950,10.0,0.0,319.0
2022-01-27-10:42:21.810005,15.0,2.0,320.0
2022-01-27-10:42:21.811941,13.0,1.0,320.0
2022-01-27-10:42:21.811941,13.0,1.0,320.0
2022-01-27-10:42:21.812938,13.0,1.0,320.0
2022-01-27-10:42:21.813990,14.0,0.0,320.0
2022-01-27-10:42:21.814990,10.0,2.0,319.0
2022-01-27-10:42:21.815977,14.0,1.0,320.0
2022-01-27-10:42:21.816974,14.0,1.0,320.0
2022-01-27-10:42:21.817974,4.0,0.0,319.0
2022-01-27-10:42:21.818969,9.0,11.0,319.0
2022-01-27-10:42:21.820035,11.0,7.0,319.0
2022-01-27-10:42:21.820035,11.0,7.0,319.0
2022-01-27-10:42:21.821067,11.0,7.0,319.0
2022-01-27-10:42:21.822355,11.0,7.0,319.0
2022-01-27-10:42:21.822498,10.0,0.0,319.0
2022-01-27-10:42:21.822498,10.0,0.0,319.0
2022-01-27-10:42:21.823523,10.0,0.0,319.0
2022-01-27-10:42:21.824519,10.0,0.0,319.0
2022-01-27-10:42:21.825698,10.0,0.0,319.0
2022-01-27-10:42:21.825698,15.0,1.0,319.0
2022-01-27-10:42:21.826753,15.0,4.0,320.0
2022-01-27-10:42:21.827752,15.0,4.0,320.0
2022-01-27-10:42:21.828790,15.0,4.0,320.0
2022-01-27-10:42:21.828790,15.0,4.0,320.0
2022-01-27-10:42:21.830000,15.0,4.0,320.0
2022-01-27-10:42:21.830000,15.0,4.0,320.0
2022-01-27-10:42:21.831053,10.0,5.0,319.0
2022-01-27-10:42:21.832051,7.0,3.0,319.0
2022-01-27-10:42:21.833049,7.0,3.0,319.0
2022-01-27-10:42:21.834045,7.0,3.0,319.0
2022-01-27-10:42:21.835043,10.0,1.0,319.0
2022-01-27-10:42:21.836040,5.0,6.0,319.0
2022-01-27-10:42:21.837041,12.0,10.0,320.0
2022-01-27-10:42:21.838205,12.0,10.0,320.0
2022-01-27-10:42:21.838205,8.0,10.0,319.0
2022-01-27-10:42:21.839252,2.0,8.0,320.0
2022-01-27-10:42:21.840250,4.0,4.0,320.0
2022-01-27-10:42:21.841198,4.0,4.0,320.0
2022-01-27-10:42:21.842197,4.0,4.0,320.0
2022-01-27-10:42:21.844191,15.0,3.0,320.0
2022-01-27-10:42:21.844191,15.0,3.0,320.0
2022-01-27-10:42:21.845210,15.0,3.0,320.0
2022-01-27-10:42:21.846233,15.0,3.0,320.0
2022-01-27-10:42:21.847230,13.0,2.0,320.0
2022-01-27-10:42:21.848226,8.0,1.0,320.0
2022-01-27-10:42:21.849223,7.0,1.0,320.0
2022-01-27-10:42:21.850221,7.0,1.0,320.0
2022-01-27-10:42:21.851218,8.0,1.0,319.0
2022-01-27-10:42:21.852215,3.0,5.0,319.0
2022-01-27-10:42:21.853259,9.0,7.0,319.0
2022-01-27-10:42:21.853259,9.0,7.0,319.0
2022-01-27-10:42:21.854290,9.0,7.0,319.0
2022-01-27-10:42:21.855281,10.0,11.0,319.0
2022-01-27-10:42:21.856278,11.0,12.0,320.0
2022-01-27-10:42:21.857277,10.0,6.0,320.0
2022-01-27-10:42:21.858248,0.0,5.0,320.0
2022-01-27-10:42:21.859618,16.0,3.0,319.0
2022-01-27-10:42:21.859618,16.0,3.0,319.0
2022-01-27-10:42:21.860670,19.0,0.0,320.0
2022-01-27-10:42:21.861840,19.0,0.0,320.0
2022-01-27-10:42:21.861840,19.0,0.0,320.0
2022-01-27-10:42:21.862874,19.0,0.0,320.0
2022-01-27-10:42:21.863868,14.0,1.0,320.0
2022-01-27-10:42:21.864868,9.0,3.0,319.0
2022-01-27-10:42:21.865863,9.0,3.0,319.0
2022-01-27-10:42:21.866860,9.0,3.0,319.0
2022-01-27-10:42:21.867860,9.0,0.0,319.0
2022-01-27-10:42:21.868856,2.0,7.0,320.0
2022-01-27-10:42:21.869853,7.0,7.0,319.0
2022-01-27-10:42:21.870856,7.0,7.0,319.0
2022-01-27-10:42:21.871847,10.0,10.0,319.0
2022-01-27-10:42:21.872849,2.0,12.0,320.0
2022-01-27-10:42:21.873842,2.0,12.0,320.0
2022-01-27-10:42:21.874843,2.0,12.0,320.0
2022-01-27-10:42:21.875839,12.0,0.0,319.0
2022-01-27-10:42:21.877831,16.0,1.0,319.0
2022-01-27-10:42:21.877831,16.0,1.0,319.0
2022-01-27-10:42:21.878831,16.0,1.0,319.0
2022-01-27-10:42:21.879828,13.0,1.0,319.0
2022-01-27-10:42:21.880826,8.0,5.0,320.0
2022-01-27-10:42:21.881820,8.0,5.0,320.0
2022-01-27-10:42:21.882821,8.0,5.0,320.0
2022-01-27-10:42:21.883818,8.0,1.0,320.0
2022-01-27-10:42:21.884819,0.0,2.0,320.0
2022-01-27-10:42:21.885810,8.0,4.0,320.0
2022-01-27-10:42:21.886810,8.0,4.0,320.0
2022-01-27-10:42:21.887804,11.0,9.0,320.0
2022-01-27-10:42:21.888804,11.0,13.0,320.0
2022-01-27-10:42:21.889799,5.0,12.0,320.0
2022-01-27-10:42:21.890799,5.0,12.0,320.0
2022-01-27-10:42:21.892133,4.0,1.0,320.0
2022-01-27-10:42:21.892133,4.0,1.0,320.0
2022-01-27-10:42:21.893167,19.0,4.0,320.0
2022-01-27-10:42:21.894161,18.0,2.0,319.0
2022-01-27-10:42:21.895161,18.0,2.0,319.0
2022-01-27-10:42:21.896159,14.0,0.0,319.0
2022-01-27-10:42:21.897160,7.0,5.0,319.0
2022-01-27-10:42:21.898159,7.0,5.0,319.0
2022-01-27-10:42:21.899117,7.0,5.0,319.0
2022-01-27-10:42:21.900188,7.0,0.0,319.0
2022-01-27-10:42:21.900633,7.0,1.0,320.0
2022-01-27-10:42:21.900633,3.0,7.0,320.0
2022-01-27-10:42:21.901656,3.0,7.0,320.0
2022-01-27-10:42:21.902654,3.0,7.0,320.0
2022-01-27-10:42:21.903657,3.0,7.0,320.0
2022-01-27-10:42:21.904649,13.0,6.0,319.0
2022-01-27-10:42:21.905661,7.0,10.0,320.0
2022-01-27-10:42:21.906652,7.0,10.0,320.0
2022-01-27-10:42:21.907618,7.0,10.0,320.0
2022-01-27-10:42:21.909611,10.0,2.0,319.0
2022-01-27-10:42:21.909611,14.0,3.0,319.0
2022-01-27-10:42:21.910608,14.0,3.0,319.0
2022-01-27-10:42:21.911642,14.0,3.0,319.0
2022-01-27-10:42:21.912635,13.0,3.0,320.0
2022-01-27-10:42:21.913632,11.0,3.0,320.0
2022-01-27-10:42:21.914629,11.0,3.0,320.0
2022-01-27-10:42:21.915627,11.0,3.0,320.0
2022-01-27-10:42:21.916671,11.0,1.0,320.0
2022-01-27-10:42:21.917112,9.0,1.0,320.0
2022-01-27-10:42:21.917112,1.0,1.0,320.0
2022-01-27-10:42:21.918135,1.0,1.0,320.0
2022-01-27-10:42:21.919143,1.0,1.0,320.0
2022-01-27-10:42:21.920138,1.0,1.0,320.0
2022-01-27-10:42:21.921103,10.0,8.0,320.0
2022-01-27-10:42:21.922218,15.0,8.0,320.0
2022-01-27-10:42:21.922218,15.0,8.0,320.0
2022-01-27-10:42:21.923252,15.0,8.0,320.0
2022-01-27-10:42:21.924228,15.0,8.0,320.0
2022-01-27-10:42:21.925250,14.0,3.0,320.0
2022-01-27-10:42:21.926237,20.0,5.0,320.0
2022-01-27-10:42:21.927233,20.0,5.0,320.0
2022-01-27-10:42:21.928233,14.0,4.0,319.0
2022-01-27-10:42:21.929230,14.0,4.0,319.0
2022-01-27-10:42:21.930225,14.0,4.0,319.0
2022-01-27-10:42:21.931224,14.0,4.0,319.0
2022-01-27-10:42:21.932220,14.0,4.0,319.0
2022-01-27-10:42:21.933217,9.0,5.0,320.0
2022-01-27-10:42:21.934214,8.0,0.0,320.0
2022-01-27-10:42:21.935211,3.0,1.0,319.0
2022-01-27-10:42:21.936212,3.0,1.0,319.0
2022-01-27-10:42:21.937206,5.0,7.0,320.0
2022-01-27-10:42:21.938204,8.0,8.0,320.0
2022-01-27-10:42:21.939201,12.0,10.0,320.0
2022-01-27-10:42:21.940198,12.0,10.0,320.0
2022-01-27-10:42:21.941170,6.0,8.0,320.0
2022-01-27-10:42:21.942194,14.0,0.0,319.0
2022-01-27-10:42:21.944213,17.0,0.0,320.0
2022-01-27-10:42:21.944213,15.0,3.0,320.0
2022-01-27-10:42:21.945206,14.0,3.0,320.0
2022-01-27-10:42:21.946203,14.0,3.0,320.0
2022-01-27-10:42:21.947200,14.0,3.0,320.0
2022-01-27-10:42:21.948198,14.0,3.0,320.0
2022-01-27-10:42:21.949195,9.0,5.0,320.0
2022-01-27-10:42:21.950192,11.0,1.0,319.0
2022-01-27-10:42:21.951190,5.0,0.0,320.0
2022-01-27-10:42:21.952191,5.0,0.0,320.0
2022-01-27-10:42:21.953184,1.0,7.0,319.0
2022-01-27-10:42:21.954181,13.0,13.0,320.0
2022-01-27-10:42:21.955179,13.0,13.0,320.0
2022-01-27-10:42:21.956177,13.0,13.0,320.0
2022-01-27-10:42:21.957173,13.0,13.0,320.0
2022-01-27-10:42:21.958164,10.0,2.0,319.0
2022-01-27-10:42:21.959168,17.0,0.0,319.0
2022-01-27-10:42:21.960168,17.0,0.0,319.0
2022-01-27-10:42:21.961163,17.0,0.0,319.0
2022-01-27-10:42:21.962161,12.0,3.0,319.0
2022-01-27-10:42:21.963157,12.0,3.0,319.0
2022-01-27-10:42:21.964155,12.0,3.0,319.0
2022-01-27-10:42:21.965152,12.0,3.0,319.0
2022-01-27-10:42:21.966150,11.0,2.0,320.0
2022-01-27-10:42:21.967154,8.0,3.0,320.0
2022-01-27-10:42:21.968147,5.0,5.0,319.0
2022-01-27-10:42:21.969148,5.0,5.0,319.0
2022-01-27-10:42:21.970140,11.0,7.0,320.0
2022-01-27-10:42:21.971332,9.0,11.0,320.0
2022-01-27-10:42:21.971332,9.0,10.0,320.0
2022-01-27-10:42:21.972479,9.0,10.0,320.0
2022-01-27-10:42:21.972479,9.0,10.0,320.0
2022-01-27-10:42:21.973533,9.0,10.0,320.0
2022-01-27-10:42:21.974476,2.0,11.0,320.0
2022-01-27-10:42:21.975583,4.0,1.0,319.0
2022-01-27-10:42:21.975583,18.0,2.0,320.0
2022-01-27-10:42:21.977580,18.0,1.0,319.0
2022-01-27-10:42:21.977580,12.0,6.0,320.0
2022-01-27-10:42:21.978610,12.0,6.0,320.0
2022-01-27-10:42:21.979682,12.0,6.0,320.0
2022-01-27-10:42:21.979682,12.0,6.0,320.0
2022-01-27-10:42:21.980737,12.0,6.0,320.0
2022-01-27-10:42:21.981774,12.0,6.0,320.0
2022-01-27-10:42:21.981774,9.0,1.0,320.0
2022-01-27-10:42:21.982828,3.0,5.0,319.0
2022-01-27-10:42:21.983827,3.0,5.0,319.0
2022-01-27-10:42:21.984823,3.0,5.0,319.0
2022-01-27-10:42:21.985820,3.0,5.0,319.0
2022-01-27-10:42:21.986819,15.0,10.0,320.0
2022-01-27-10:42:21.987815,15.0,14.0,320.0
2022-01-27-10:42:21.988814,15.0,14.0,320.0
2022-01-27-10:42:21.989810,15.0,14.0,320.0
2022-01-27-10:42:21.990807,5.0,9.0,319.0
2022-01-27-10:42:21.991806,10.0,2.0,320.0
2022-01-27-10:42:21.992781,15.0,3.0,320.0
2022-01-27-10:42:21.993744,11.0,3.0,320.0
2022-01-27-10:42:21.994767,13.0,1.0,320.0
2022-01-27-10:42:21.995767,13.0,1.0,320.0
2022-01-27-10:42:21.996760,13.0,1.0,320.0
2022-01-27-10:42:21.997759,13.0,1.0,320.0
2022-01-27-10:42:21.998755,8.0,3.0,319.0
2022-01-27-10:42:21.999752,5.0,2.0,320.0
2022-01-27-10:42:22.000752,5.0,2.0,320.0
2022-01-27-10:42:22.001748,5.0,2.0,320.0
2022-01-27-10:42:22.002949,3.0,5.0,320.0
2022-01-27-10:42:22.002949,11.0,6.0,319.0
2022-01-27-10:42:22.003982,10.0,11.0,320.0
2022-01-27-10:42:22.004978,10.0,11.0,320.0
2022-01-27-10:42:22.005979,10.0,11.0,320.0
2022-01-27-10:42:22.006973,4.0,11.0,320.0
2022-01-27-10:42:22.008025,10.0,0.0,320.0
2022-01-27-10:42:22.008025,18.0,4.0,319.0
2022-01-27-10:42:22.009049,18.0,4.0,319.0
2022-01-27-10:42:22.010046,18.0,4.0,319.0
2022-01-27-10:42:22.011313,15.0,1.0,320.0
2022-01-27-10:42:22.011313,12.0,2.0,319.0
2022-01-27-10:42:22.013366,12.0,1.0,319.0
2022-01-27-10:42:22.013366,12.0,1.0,319.0
2022-01-27-10:42:22.014308,10.0,0.0,320.0
2022-01-27-10:42:22.015350,10.0,0.0,320.0
2022-01-27-10:42:22.016348,10.0,0.0,320.0
2022-01-27-10:42:22.017349,10.0,0.0,320.0
2022-01-27-10:42:22.018344,10.0,0.0,320.0
2022-01-27-10:42:22.019339,1.0,6.0,320.0
2022-01-27-10:42:22.020341,11.0,14.0,319.0
2022-01-27-10:42:22.021335,11.0,14.0,319.0
2022-01-27-10:42:22.022338,11.0,14.0,319.0
2022-01-27-10:42:22.023330,16.0,10.0,320.0
2022-01-27-10:42:22.024282,4.0,5.0,320.0
2022-01-27-10:42:22.025371,15.0,4.0,320.0
2022-01-27-10:42:22.025371,15.0,4.0,320.0
2022-01-27-10:42:22.026745,15.0,4.0,320.0
2022-01-27-10:42:22.026745,15.0,2.0,319.0
2022-01-27-10:42:22.027770,12.0,4.0,319.0
2022-01-27-10:42:22.028790,12.0,4.0,319.0
2022-01-27-10:42:22.029830,12.0,4.0,319.0
2022-01-27-10:42:22.029830,12.0,4.0,319.0
2022-01-27-10:42:22.031050,12.0,4.0,319.0
2022-01-27-10:42:22.031050,11.0,2.0,319.0
2022-01-27-10:42:22.032096,10.0,3.0,320.0
2022-01-27-10:42:22.033094,8.0,0.0,319.0
2022-01-27-10:42:22.034105,8.0,0.0,319.0
2022-01-27-10:42:22.035091,3.0,1.0,320.0
2022-01-27-10:42:22.036086,10.0,9.0,320.0
2022-01-27-10:42:22.037083,14.0,8.0,320.0
2022-01-27-10:42:22.038080,14.0,8.0,320.0
2022-01-27-10:42:22.039077,14.0,8.0,320.0
2022-01-27-10:42:22.040075,5.0,8.0,320.0
2022-01-27-10:42:22.041027,13.0,2.0,319.0
2022-01-27-10:42:22.042023,13.0,2.0,319.0
2022-01-27-10:42:22.043070,13.0,2.0,319.0
2022-01-27-10:42:22.044069,14.0,1.0,319.0
2022-01-27-10:42:22.046012,16.0,2.0,320.0
2022-01-27-10:42:22.046012,16.0,2.0,320.0
2022-01-27-10:42:22.047035,10.0,1.0,320.0
2022-01-27-10:42:22.048053,10.0,1.0,320.0
2022-01-27-10:42:22.049051,10.0,1.0,320.0
2022-01-27-10:42:22.050048,10.0,1.0,320.0
2022-01-27-10:42:22.051049,10.0,1.0,320.0
2022-01-27-10:42:22.052043,3.0,2.0,320.0
2022-01-27-10:42:22.053040,11.0,8.0,320.0
2022-01-27-10:42:22.054038,11.0,5.0,320.0
2022-01-27-10:42:22.055035,11.0,5.0,320.0
2022-01-27-10:42:22.056033,9.0,8.0,320.0
2022-01-27-10:42:22.057030,2.0,8.0,320.0
2022-01-27-10:42:22.057980,12.0,2.0,320.0
2022-01-27-10:42:22.058978,12.0,2.0,320.0
2022-01-27-10:42:22.060022,15.0,4.0,320.0
2022-01-27-10:42:22.061020,15.0,2.0,320.0
2022-01-27-10:42:22.062027,12.0,3.0,319.0
2022-01-27-10:42:22.062967,12.0,3.0,319.0
2022-01-27-10:42:22.064012,10.0,3.0,320.0
2022-01-27-10:42:22.065016,10.0,1.0,319.0
2022-01-27-10:42:22.066011,7.0,5.0,320.0
2022-01-27-10:42:22.066957,7.0,5.0,320.0
2022-01-27-10:42:22.068001,7.0,0.0,319.0
2022-01-27-10:42:22.068999,8.0,8.0,320.0
2022-01-27-10:42:22.069997,14.0,5.0,319.0
2022-01-27-10:42:22.070993,14.0,5.0,319.0
2022-01-27-10:42:22.071999,14.0,12.0,320.0
2022-01-27-10:42:22.072992,4.0,9.0,320.0
2022-01-27-10:42:22.073985,7.0,3.0,319.0
2022-01-27-10:42:22.074987,7.0,3.0,319.0
2022-01-27-10:42:22.075980,7.0,3.0,319.0
2022-01-27-10:42:22.076977,13.0,1.0,320.0
2022-01-27-10:42:22.077979,12.0,1.0,319.0
2022-01-27-10:42:22.078972,12.0,1.0,319.0
2022-01-27-10:42:22.080966,11.0,1.0,320.0
2022-01-27-10:42:22.080966,10.0,7.0,319.0
2022-01-27-10:42:22.081970,8.0,0.0,320.0
2022-01-27-10:42:22.082964,8.0,0.0,320.0
2022-01-27-10:42:22.083959,8.0,0.0,320.0
2022-01-27-10:42:22.084956,11.0,0.0,319.0
2022-01-27-10:42:22.085953,3.0,8.0,320.0
2022-01-27-10:42:22.086950,9.0,8.0,319.0
2022-01-27-10:42:22.087949,9.0,8.0,319.0
2022-01-27-10:42:22.088979,11.0,8.0,319.0
2022-01-27-10:42:22.089370,5.0,8.0,320.0
2022-01-27-10:42:22.089502,1.0,3.0,319.0
2022-01-27-10:42:22.089502,1.0,3.0,319.0
2022-01-27-10:42:22.090550,1.0,3.0,319.0
2022-01-27-10:42:22.091531,1.0,3.0,319.0
2022-01-27-10:42:22.092496,18.0,1.0,319.0
2022-01-27-10:42:22.093540,17.0,0.0,320.0
2022-01-27-10:42:22.094539,17.0,0.0,320.0
2022-01-27-10:42:22.095775,17.0,0.0,320.0
2022-01-27-10:42:22.096184,5.0,1.0,319.0
2022-01-27-10:42:22.096184,5.0,1.0,319.0
2022-01-27-10:42:22.097231,5.0,1.0,319.0
2022-01-27-10:42:22.098231,5.0,1.0,319.0
2022-01-27-10:42:22.099227,5.0,1.0,319.0
2022-01-27-10:42:22.100369,5.0,1.0,319.0
2022-01-27-10:42:22.100369,10.0,1.0,320.0
2022-01-27-10:42:22.101416,0.0,6.0,320.0
2022-01-27-10:42:22.102457,9.0,7.0,320.0
2022-01-27-10:42:22.102457,9.0,7.0,320.0
2022-01-27-10:42:22.103504,9.0,7.0,320.0
2022-01-27-10:42:22.104503,9.0,7.0,320.0
2022-01-27-10:42:22.105499,15.0,7.0,320.0
2022-01-27-10:42:22.106496,15.0,11.0,319.0
2022-01-27-10:42:22.107496,3.0,7.0,319.0
2022-01-27-10:42:22.108613,3.0,7.0,319.0
2022-01-27-10:42:22.108613,12.0,1.0,319.0
2022-01-27-10:42:22.109647,14.0,3.0,320.0
2022-01-27-10:42:22.110644,17.0,0.0,320.0
2022-01-27-10:42:22.111645,17.0,0.0,320.0
2022-01-27-10:42:22.113628,17.0,0.0,320.0
2022-01-27-10:42:22.113628,10.0,6.0,320.0
2022-01-27-10:42:22.114626,10.0,6.0,320.0
2022-01-27-10:42:22.115625,10.0,6.0,320.0
2022-01-27-10:42:22.116620,10.0,6.0,320.0
2022-01-27-10:42:22.117618,7.0,2.0,320.0
2022-01-27-10:42:22.118615,3.0,4.0,319.0
2022-01-27-10:42:22.119612,8.0,7.0,320.0
2022-01-27-10:42:22.120755,8.0,7.0,320.0
2022-01-27-10:42:22.120755,8.0,9.0,319.0
2022-01-27-10:42:22.121780,11.0,10.0,319.0
2022-01-27-10:42:22.122779,4.0,12.0,320.0
2022-01-27-10:42:22.123774,4.0,12.0,320.0
2022-01-27-10:42:22.124934,4.0,12.0,320.0
2022-01-27-10:42:22.124934,7.0,1.0,319.0
2022-01-27-10:42:22.125959,19.0,3.0,319.0
2022-01-27-10:42:22.126964,17.0,0.0,319.0
2022-01-27-10:42:22.127956,17.0,0.0,319.0
2022-01-27-10:42:22.129107,17.0,0.0,319.0
2022-01-27-10:42:22.129107,12.0,4.0,320.0
2022-01-27-10:42:22.130203,9.0,2.0,319.0
2022-01-27-10:42:22.130203,9.0,2.0,319.0
2022-01-27-10:42:22.131229,9.0,2.0,319.0
2022-01-27-10:42:22.132226,9.0,2.0,319.0
2022-01-27-10:42:22.133383,9.0,2.0,319.0
2022-01-27-10:42:22.133383,8.0,3.0,319.0
2022-01-27-10:42:22.134412,1.0,2.0,319.0
2022-01-27-10:42:22.135408,2.0,6.0,319.0
2022-01-27-10:42:22.136403,2.0,6.0,319.0
2022-01-27-10:42:22.137401,2.0,6.0,319.0
2022-01-27-10:42:22.138398,7.0,12.0,320.0
2022-01-27-10:42:22.139485,5.0,7.0,319.0
2022-01-27-10:42:22.139485,5.0,7.0,319.0
2022-01-27-10:42:22.140511,5.0,7.0,319.0
2022-01-27-10:42:22.141482,5.0,7.0,319.0
2022-01-27-10:42:22.142505,18.0,3.0,320.0
2022-01-27-10:42:22.143503,16.0,0.0,319.0
2022-01-27-10:42:22.144501,16.0,0.0,319.0
2022-01-27-10:42:22.146494,16.0,0.0,319.0
2022-01-27-10:42:22.146494,9.0,2.0,320.0
2022-01-27-10:42:22.147466,9.0,2.0,320.0
2022-01-27-10:42:22.148489,9.0,2.0,320.0
2022-01-27-10:42:22.149651,9.0,2.0,320.0
2022-01-27-10:42:22.149651,11.0,5.0,319.0
2022-01-27-10:42:22.150684,4.0,2.0,320.0
2022-01-27-10:42:22.151733,3.0,6.0,320.0
2022-01-27-10:42:22.151733,3.0,6.0,320.0
2022-01-27-10:42:22.152758,3.0,6.0,320.0
2022-01-27-10:42:22.153756,3.0,6.0,320.0
2022-01-27-10:42:22.154753,10.0,11.0,320.0
2022-01-27-10:42:22.155750,8.0,12.0,319.0
2022-01-27-10:42:22.156748,8.0,12.0,319.0
2022-01-27-10:42:22.157755,8.0,12.0,319.0
2022-01-27-10:42:22.158748,2.0,10.0,320.0
2022-01-27-10:42:22.159742,14.0,3.0,320.0
2022-01-27-10:42:22.160736,13.0,3.0,320.0
2022-01-27-10:42:22.161735,13.0,3.0,320.0
2022-01-27-10:42:22.162744,15.0,3.0,319.0
2022-01-27-10:42:22.162744,11.0,1.0,319.0
2022-01-27-10:42:22.163778,11.0,1.0,319.0
2022-01-27-10:42:22.164776,11.0,1.0,319.0
2022-01-27-10:42:22.165772,11.0,1.0,319.0
2022-01-27-10:42:22.166769,11.0,3.0,320.0
2022-01-27-10:42:22.167767,11.0,1.0,320.0
2022-01-27-10:42:22.168756,1.0,3.0,320.0
2022-01-27-10:42:22.169763,1.0,3.0,320.0
2022-01-27-10:42:22.170758,1.0,3.0,320.0
2022-01-27-10:42:22.171760,9.0,8.0,319.0
2022-01-27-10:42:22.172746,11.0,9.0,319.0
2022-01-27-10:42:22.173743,11.0,9.0,319.0
2022-01-27-10:42:22.174717,7.0,11.0,320.0
2022-01-27-10:42:22.175742,7.0,1.0,319.0
2022-01-27-10:42:22.176734,17.0,4.0,319.0
2022-01-27-10:42:22.177733,17.0,4.0,319.0
2022-01-27-10:42:22.178729,18.0,4.0,320.0
2022-01-27-10:42:22.179726,18.0,4.0,320.0
2022-01-27-10:42:22.181725,11.0,2.0,319.0
2022-01-27-10:42:22.181725,9.0,3.0,320.0
2022-01-27-10:42:22.182922,9.0,0.0,320.0
2022-01-27-10:42:22.182922,11.0,3.0,319.0
2022-01-27-10:42:22.183976,5.0,2.0,320.0
2022-01-27-10:42:22.184973,5.0,2.0,320.0
2022-01-27-10:42:22.185950,5.0,2.0,320.0
2022-01-27-10:42:22.186991,4.0,5.0,320.0
2022-01-27-10:42:22.187334,6.0,10.0,320.0
2022-01-27-10:42:22.187334,6.0,10.0,320.0
2022-01-27-10:42:22.188334,6.0,10.0,320.0
2022-01-27-10:42:22.189381,6.0,10.0,320.0
2022-01-27-10:42:22.190376,6.0,10.0,320.0
2022-01-27-10:42:22.191326,3.0,5.0,319.0
2022-01-27-10:42:22.192323,0.0,2.0,319.0
2022-01-27-10:42:22.193369,16.0,2.0,320.0
2022-01-27-10:42:22.194367,14.0,2.0,319.0
2022-01-27-10:42:22.195363,13.0,4.0,320.0
2022-01-27-10:42:22.196360,13.0,4.0,320.0
2022-01-27-10:42:22.197670,14.0,1.0,319.0
2022-01-27-10:42:22.197670,10.0,3.0,320.0
2022-01-27-10:42:22.198703,10.0,3.0,320.0
2022-01-27-10:42:22.199699,6.0,0.0,320.0
2022-01-27-10:42:22.200698,0.0,4.0,319.0
2022-01-27-10:42:22.201693,0.0,4.0,319.0
2022-01-27-10:42:22.202690,0.0,4.0,319.0
2022-01-27-10:42:22.203695,8.0,6.0,320.0
2022-01-27-10:42:22.204685,9.0,10.0,319.0
2022-01-27-10:42:22.205682,12.0,8.0,319.0
2022-01-27-10:42:22.206849,12.0,8.0,319.0
2022-01-27-10:42:22.206849,3.0,7.0,320.0
2022-01-27-10:42:22.207850,16.0,3.0,319.0
2022-01-27-10:42:22.208901,14.0,4.0,320.0
2022-01-27-10:42:22.209899,14.0,4.0,320.0
2022-01-27-10:42:22.210898,14.0,4.0,320.0
2022-01-27-10:42:22.212884,18.0,1.0,320.0
2022-01-27-10:42:22.212884,7.0,3.0,320.0
2022-01-27-10:42:22.213885,7.0,3.0,320.0
2022-01-27-10:42:22.214876,7.0,3.0,320.0
2022-01-27-10:42:22.215877,7.0,2.0,320.0
2022-01-27-10:42:22.216872,7.0,5.0,319.0
2022-01-27-10:42:22.217869,0.0,1.0,320.0
2022-01-27-10:42:22.219029,0.0,1.0,320.0
2022-01-27-10:42:22.219029,6.0,8.0,319.0
2022-01-27-10:42:22.220076,10.0,11.0,319.0
2022-01-27-10:42:22.221077,10.0,12.0,320.0
2022-01-27-10:42:22.222070,10.0,12.0,320.0
2022-01-27-10:42:22.223068,10.0,12.0,320.0
2022-01-27-10:42:22.224065,5.0,13.0,320.0
2022-01-27-10:42:22.225063,17.0,3.0,320.0
2022-01-27-10:42:22.226060,14.0,6.0,320.0
2022-01-27-10:42:22.227061,14.0,6.0,320.0
2022-01-27-10:42:22.228054,15.0,1.0,319.0
2022-01-27-10:42:22.229057,12.0,1.0,319.0
2022-01-27-10:42:22.230050,12.0,1.0,319.0
2022-01-27-10:42:22.231047,12.0,1.0,319.0
2022-01-27-10:42:22.232048,10.0,3.0,320.0
2022-01-27-10:42:22.233148,13.0,0.0,319.0
2022-01-27-10:42:22.233148,3.0,1.0,319.0
2022-01-27-10:42:22.234203,3.0,1.0,319.0
2022-01-27-10:42:22.235202,3.0,1.0,319.0
2022-01-27-10:42:22.236200,3.0,8.0,319.0
2022-01-27-10:42:22.237390,12.0,7.0,320.0
2022-01-27-10:42:22.237390,8.0,14.0,319.0
2022-01-27-10:42:22.238441,8.0,14.0,319.0
2022-01-27-10:42:22.239435,8.0,14.0,319.0
2022-01-27-10:42:22.240431,7.0,8.0,319.0
2022-01-27-10:42:22.241385,13.0,0.0,320.0
2022-01-27-10:42:22.242426,18.0,3.0,320.0
2022-01-27-10:42:22.243423,18.0,3.0,320.0
2022-01-27-10:42:22.244421,16.0,1.0,319.0
2022-01-27-10:42:22.245418,11.0,5.0,320.0
2022-01-27-10:42:22.246389,9.0,1.0,319.0
2022-01-27-10:42:22.247391,9.0,1.0,319.0
2022-01-27-10:42:22.248390,14.0,2.0,320.0
2022-01-27-10:42:22.250384,11.0,1.0,319.0
2022-01-27-10:42:22.250384,7.0,0.0,320.0
2022-01-27-10:42:22.251370,7.0,0.0,320.0
2022-01-27-10:42:22.252352,11.0,9.0,320.0
2022-01-27-10:42:22.253378,10.0,10.0,319.0
2022-01-27-10:42:22.254378,10.0,10.0,319.0
2022-01-27-10:42:22.255348,10.0,10.0,319.0
2022-01-27-10:42:22.256389,12.0,9.0,320.0
2022-01-27-10:42:22.257385,7.0,0.0,320.0
2022-01-27-10:42:22.258336,16.0,3.0,320.0
2022-01-27-10:42:22.259360,16.0,3.0,320.0
2022-01-27-10:42:22.260379,15.0,1.0,320.0
2022-01-27-10:42:22.261375,13.0,2.0,320.0
2022-01-27-10:42:22.262376,11.0,5.0,320.0
2022-01-27-10:42:22.263323,11.0,5.0,320.0
2022-01-27-10:42:22.264347,7.0,3.0,320.0
2022-01-27-10:42:22.265317,7.0,3.0,320.0
2022-01-27-10:42:22.266314,7.0,3.0,320.0
2022-01-27-10:42:22.267312,7.0,3.0,320.0
2022-01-27-10:42:22.268309,7.0,3.0,320.0
2022-01-27-10:42:22.269308,10.0,6.0,320.0
2022-01-27-10:42:22.270345,11.0,11.0,320.0
2022-01-27-10:42:22.271336,11.0,11.0,320.0
2022-01-27-10:42:22.272340,11.0,11.0,320.0
2022-01-27-10:42:22.273332,6.0,2.0,319.0
2022-01-27-10:42:22.274348,14.0,3.0,320.0
2022-01-27-10:42:22.275325,14.0,3.0,320.0
2022-01-27-10:42:22.276344,14.0,3.0,320.0
2022-01-27-10:42:22.277340,16.0,1.0,319.0
2022-01-27-10:42:22.278342,11.0,5.0,320.0
2022-01-27-10:42:22.279329,12.0,4.0,320.0
2022-01-27-10:42:22.281322,12.0,4.0,320.0
2022-01-27-10:42:22.281322,13.0,1.0,320.0
2022-01-27-10:42:22.282298,13.0,1.0,320.0
2022-01-27-10:42:22.283326,13.0,1.0,320.0
2022-01-27-10:42:22.284300,13.0,1.0,320.0
2022-01-27-10:42:22.285311,6.0,4.0,320.0
2022-01-27-10:42:22.286307,9.0,5.0,319.0
2022-01-27-10:42:22.287306,9.0,8.0,319.0
2022-01-27-10:42:22.288256,9.0,8.0,319.0
2022-01-27-10:42:22.289300,12.0,15.0,319.0
2022-01-27-10:42:22.290297,1.0,3.0,320.0
2022-01-27-10:42:22.291251,10.0,3.0,320.0
2022-01-27-10:42:22.292246,10.0,3.0,320.0
2022-01-27-10:42:22.293292,16.0,3.0,320.0
2022-01-27-10:42:22.294291,17.0,2.0,320.0
2022-01-27-10:42:22.295285,17.0,2.0,320.0
2022-01-27-10:42:22.296283,14.0,1.0,319.0
2022-01-27-10:42:22.297279,10.0,3.0,319.0
2022-01-27-10:42:22.298257,10.0,2.0,320.0
2022-01-27-10:42:22.299275,10.0,2.0,320.0
2022-01-27-10:42:22.300272,10.0,2.0,320.0
2022-01-27-10:42:22.301271,13.0,9.0,320.0
2022-01-27-10:42:22.302270,13.0,9.0,320.0
2022-01-27-10:42:22.303265,13.0,9.0,320.0
2022-01-27-10:42:22.304261,13.0,9.0,320.0
2022-01-27-10:42:22.305260,13.0,9.0,320.0
2022-01-27-10:42:22.306254,10.0,10.0,320.0
2022-01-27-10:42:22.307252,4.0,7.0,319.0
2022-01-27-10:42:22.308204,9.0,2.0,319.0
2022-01-27-10:42:22.309248,9.0,2.0,319.0
2022-01-27-10:42:22.310243,15.0,0.0,319.0
2022-01-27-10:42:22.311242,14.0,2.0,319.0
2022-01-27-10:42:22.312294,14.0,2.0,319.0
2022-01-27-10:42:22.312294,14.0,2.0,319.0
2022-01-27-10:42:22.313350,14.0,2.0,319.0
2022-01-27-10:42:22.314347,14.0,0.0,320.0
2022-01-27-10:42:22.315346,14.0,0.0,320.0
2022-01-27-10:42:22.317332,11.0,5.0,319.0
2022-01-27-10:42:22.317668,6.0,1.0,320.0
2022-01-27-10:42:22.317668,3.0,6.0,319.0
2022-01-27-10:42:22.318714,9.0,9.0,319.0
2022-01-27-10:42:22.319715,9.0,9.0,319.0
2022-01-27-10:42:22.320717,9.0,9.0,319.0
2022-01-27-10:42:22.321707,9.0,9.0,319.0
2022-01-27-10:42:22.322707,11.0,9.0,320.0
2022-01-27-10:42:22.323702,2.0,4.0,319.0
2022-01-27-10:42:22.324652,2.0,4.0,319.0
2022-01-27-10:42:22.325649,2.0,4.0,319.0
2022-01-27-10:42:22.326671,9.0,5.0,319.0
2022-01-27-10:42:22.327743,16.0,2.0,319.0
2022-01-27-10:42:22.327743,15.0,2.0,319.0
2022-01-27-10:42:22.328790,15.0,2.0,319.0
2022-01-27-10:42:22.329790,15.0,2.0,319.0
2022-01-27-10:42:22.331115,16.0,5.0,320.0
2022-01-27-10:42:22.331115,16.0,5.0,320.0
2022-01-27-10:42:22.332244,8.0,0.0,319.0
2022-01-27-10:42:22.332244,8.0,0.0,319.0
2022-01-27-10:42:22.333282,8.0,0.0,319.0
2022-01-27-10:42:22.334290,11.0,4.0,320.0
2022-01-27-10:42:22.335285,9.0,6.0,320.0
2022-01-27-10:42:22.336283,9.0,6.0,320.0
2022-01-27-10:42:22.337269,9.0,6.0,320.0
2022-01-27-10:42:22.338281,14.0,10.0,319.0
2022-01-27-10:42:22.339275,11.0,15.0,319.0
2022-01-27-10:42:22.340277,4.0,7.0,320.0
2022-01-27-10:42:22.341250,4.0,7.0,320.0
2022-01-27-10:42:22.342247,4.0,7.0,320.0
2022-01-27-10:42:22.343247,16.0,3.0,320.0
2022-01-27-10:42:22.344214,15.0,0.0,320.0
2022-01-27-10:42:22.345211,15.0,0.0,320.0
2022-01-27-10:42:22.346209,15.0,0.0,320.0
2022-01-27-10:42:22.347206,14.0,3.0,319.0
2022-01-27-10:42:22.348203,11.0,4.0,320.0
2022-01-27-10:42:22.349211,7.0,3.0,319.0
2022-01-27-10:42:22.350198,7.0,3.0,319.0
2022-01-27-10:42:22.352193,8.0,2.0,319.0
2022-01-27-10:42:22.352193,11.0,9.0,319.0
2022-01-27-10:42:22.353191,11.0,9.0,319.0
2022-01-27-10:42:22.354188,11.0,9.0,319.0
2022-01-27-10:42:22.355185,13.0,9.0,320.0
2022-01-27-10:42:22.356183,13.0,11.0,320.0
2022-01-27-10:42:22.357180,2.0,7.0,319.0
2022-01-27-10:42:22.358177,2.0,7.0,319.0
2022-01-27-10:42:22.359202,4.0,1.0,320.0
2022-01-27-10:42:22.360200,15.0,5.0,320.0
2022-01-27-10:42:22.361195,13.0,3.0,320.0
2022-01-27-10:42:22.362196,13.0,3.0,320.0
2022-01-27-10:42:22.363189,13.0,2.0,319.0
2022-01-27-10:42:22.364190,12.0,6.0,319.0
2022-01-27-10:42:22.365198,12.0,3.0,320.0
2022-01-27-10:42:22.366155,12.0,3.0,320.0
2022-01-27-10:42:22.367188,12.0,3.0,320.0
2022-01-27-10:42:22.368150,8.0,3.0,319.0
2022-01-27-10:42:22.369181,8.0,3.0,319.0
2022-01-27-10:42:22.370145,8.0,3.0,319.0
2022-01-27-10:42:22.371142,9.0,9.0,319.0
2022-01-27-10:42:22.372152,4.0,8.0,319.0
2022-01-27-10:42:22.373137,4.0,8.0,319.0
2022-01-27-10:42:22.374135,4.0,8.0,319.0
2022-01-27-10:42:22.375131,15.0,3.0,320.0
2022-01-27-10:42:22.376129,18.0,5.0,320.0
2022-01-27-10:42:22.377127,16.0,2.0,320.0
2022-01-27-10:42:22.378124,16.0,2.0,320.0
2022-01-27-10:42:22.379121,12.0,3.0,320.0
2022-01-27-10:42:22.380118,9.0,4.0,320.0
2022-01-27-10:42:22.381115,9.0,4.0,320.0
2022-01-27-10:42:22.382113,9.0,4.0,320.0
2022-01-27-10:42:22.384107,2.0,3.0,320.0
2022-01-27-10:42:22.384107,2.0,7.0,320.0
2022-01-27-10:42:22.385104,2.0,7.0,320.0
2022-01-27-10:42:22.386102,2.0,7.0,320.0
2022-01-27-10:42:22.387099,2.0,7.0,320.0
2022-01-27-10:42:22.388097,8.0,8.0,320.0
2022-01-27-10:42:22.390093,14.0,6.0,319.0
2022-01-27-10:42:22.390093,11.0,10.0,320.0
2022-01-27-10:42:22.391129,11.0,10.0,320.0
2022-01-27-10:42:22.392086,18.0,0.0,319.0
2022-01-27-10:42:22.393117,18.0,0.0,319.0
2022-01-27-10:42:22.394081,18.0,0.0,319.0
2022-01-27-10:42:22.395078,18.0,0.0,319.0
2022-01-27-10:42:22.396075,13.0,1.0,319.0
2022-01-27-10:42:22.397073,9.0,1.0,319.0
2022-01-27-10:42:22.398074,9.0,1.0,319.0
2022-01-27-10:42:22.399068,9.0,1.0,319.0
2022-01-27-10:42:22.400066,1.0,5.0,319.0
2022-01-27-10:42:22.401063,1.0,5.0,319.0
2022-01-27-10:42:22.402059,1.0,5.0,319.0
2022-01-27-10:42:22.403057,1.0,5.0,319.0
2022-01-27-10:42:22.404069,9.0,11.0,320.0
2022-01-27-10:42:22.405052,9.0,6.0,320.0
2022-01-27-10:42:22.406049,12.0,8.0,319.0
2022-01-27-10:42:22.407081,12.0,8.0,319.0
2022-01-27-10:42:22.408043,7.0,1.0,319.0
2022-01-27-10:42:22.409049,17.0,3.0,319.0
2022-01-27-10:42:22.410038,17.0,3.0,319.0
2022-01-27-10:42:22.411050,17.0,3.0,319.0
2022-01-27-10:42:22.412067,17.0,4.0,319.0
2022-01-27-10:42:22.413065,9.0,6.0,320.0
2022-01-27-10:42:22.414027,9.0,5.0,320.0
2022-01-27-10:42:22.415069,9.0,5.0,320.0
2022-01-27-10:42:22.416049,9.0,5.0,320.0
2022-01-27-10:42:22.417019,12.0,1.0,319.0
2022-01-27-10:42:22.419040,0.0,3.0,320.0
2022-01-27-10:42:22.419040,9.0,5.0,320.0
2022-01-27-10:42:22.420012,12.0,12.0,320.0
2022-01-27-10:42:22.421009,5.0,12.0,319.0
2022-01-27-10:42:22.422006,5.0,12.0,319.0
2022-01-27-10:42:22.423004,5.0,12.0,319.0
2022-01-27-10:42:22.424027,5.0,12.0,319.0
2022-01-27-10:42:22.425025,0.0,5.0,320.0
2022-01-27-10:42:22.425998,15.0,6.0,320.0
2022-01-27-10:42:22.427001,13.0,4.0,320.0
2022-01-27-10:42:22.427990,13.0,4.0,320.0
2022-01-27-10:42:22.429013,10.0,0.0,319.0
2022-01-27-10:42:22.430010,10.0,5.0,319.0
2022-01-27-10:42:22.430990,10.0,5.0,319.0
2022-01-27-10:42:22.432004,10.0,5.0,319.0
2022-01-27-10:42:22.432977,12.0,5.0,319.0
2022-01-27-10:42:22.433974,2.0,6.0,320.0
2022-01-27-10:42:22.434972,2.0,6.0,320.0
2022-01-27-10:42:22.435969,2.0,6.0,320.0
2022-01-27-10:42:22.436980,11.0,9.0,320.0
2022-01-27-10:42:22.437963,11.0,9.0,320.0
2022-01-27-10:42:22.438961,11.0,9.0,320.0
2022-01-27-10:42:22.439984,11.0,9.0,320.0
2022-01-27-10:42:22.440980,15.0,3.0,320.0
2022-01-27-10:42:22.441953,17.0,4.0,319.0
2022-01-27-10:42:22.442959,17.0,4.0,319.0
2022-01-27-10:42:22.443974,17.0,4.0,319.0
2022-01-27-10:42:22.444945,17.0,2.0,319.0
2022-01-27-10:42:22.445942,12.0,4.0,319.0
2022-01-27-10:42:22.446965,12.0,4.0,319.0
2022-01-27-10:42:22.447936,12.0,4.0,319.0
2022-01-27-10:42:22.448934,8.0,0.0,320.0
2022-01-27-10:42:22.449932,2.0,3.0,319.0
2022-01-27-10:42:22.450954,2.0,3.0,319.0
2022-01-27-10:42:22.452933,2.0,3.0,319.0
2022-01-27-10:42:22.452933,12.0,11.0,320.0
2022-01-27-10:42:22.453921,9.0,11.0,319.0
2022-01-27-10:42:22.454918,9.0,11.0,319.0
2022-01-27-10:42:22.455915,9.0,11.0,319.0
2022-01-27-10:42:22.456913,9.0,11.0,319.0
2022-01-27-10:42:22.457910,13.0,0.0,320.0
2022-01-27-10:42:22.458909,13.0,0.0,320.0
2022-01-27-10:42:22.459940,13.0,0.0,320.0
2022-01-27-10:42:22.460903,13.0,0.0,320.0
2022-01-27-10:42:22.461899,14.0,4.0,320.0
2022-01-27-10:42:22.462896,8.0,7.0,320.0
2022-01-27-10:42:22.463928,8.0,7.0,320.0
2022-01-27-10:42:22.464916,8.0,7.0,320.0
2022-01-27-10:42:22.465917,8.0,6.0,320.0
2022-01-27-10:42:22.466912,4.0,2.0,319.0
2022-01-27-10:42:22.467912,4.0,2.0,319.0
2022-01-27-10:42:22.468881,2.0,5.0,320.0
2022-01-27-10:42:22.469903,11.0,8.0,319.0
2022-01-27-10:42:22.470876,10.0,11.0,319.0
2022-01-27-10:42:22.471872,10.0,11.0,319.0
2022-01-27-10:42:22.472870,10.0,11.0,319.0
2022-01-27-10:42:22.473867,3.0,4.0,320.0
2022-01-27-10:42:22.474865,19.0,1.0,319.0
2022-01-27-10:42:22.475862,19.0,1.0,319.0
2022-01-27-10:42:22.476860,19.0,1.0,319.0
2022-01-27-10:42:22.477857,17.0,3.0,320.0
2022-01-27-10:42:22.478854,11.0,2.0,319.0
2022-01-27-10:42:22.479852,11.0,2.0,319.0
2022-01-27-10:42:22.480849,11.0,2.0,319.0
2022-01-27-10:42:22.481846,11.0,3.0,320.0
2022-01-27-10:42:22.482844,4.0,4.0,319.0
2022-01-27-10:42:22.483873,4.0,4.0,319.0
2022-01-27-10:42:22.484838,4.0,4.0,319.0
2022-01-27-10:42:22.486860,10.0,12.0,320.0
2022-01-27-10:42:22.486860,10.0,12.0,320.0
2022-01-27-10:42:22.487855,10.0,12.0,320.0
2022-01-27-10:42:22.488828,10.0,12.0,320.0
2022-01-27-10:42:22.489825,3.0,2.0,319.0
2022-01-27-10:42:22.490822,18.0,1.0,320.0
2022-01-27-10:42:22.491819,18.0,1.0,320.0
2022-01-27-10:42:22.492865,18.0,1.0,320.0
2022-01-27-10:42:22.493814,14.0,7.0,320.0
2022-01-27-10:42:22.494811,13.0,4.0,320.0
2022-01-27-10:42:22.495808,13.0,4.0,320.0
2022-01-27-10:42:22.496806,13.0,4.0,320.0
2022-01-27-10:42:22.497803,13.0,4.0,320.0
2022-01-27-10:42:22.498802,8.0,2.0,320.0
2022-01-27-10:42:22.499798,10.0,4.0,319.0
2022-01-27-10:42:22.500796,7.0,0.0,320.0
2022-01-27-10:42:22.501793,7.0,0.0,320.0
2022-01-27-10:42:22.502790,6.0,5.0,320.0
2022-01-27-10:42:22.503787,9.0,4.0,319.0
2022-01-27-10:42:22.504785,9.0,4.0,319.0
2022-01-27-10:42:22.505782,9.0,12.0,320.0
2022-01-27-10:42:22.506780,11.0,8.0,319.0
2022-01-27-10:42:22.507803,12.0,5.0,320.0
2022-01-27-10:42:22.508800,12.0,5.0,320.0
2022-01-27-10:42:22.509772,12.0,5.0,320.0
2022-01-27-10:42:22.510769,14.0,1.0,320.0
2022-01-27-10:42:22.511766,16.0,1.0,319.0
2022-01-27-10:42:22.512763,16.0,3.0,319.0
2022-01-27-10:42:22.513761,11.0,5.0,320.0
2022-01-27-10:42:22.514759,15.0,4.0,319.0
2022-01-27-10:42:22.515756,8.0,7.0,320.0
2022-01-27-10:42:22.516785,13.0,0.0,319.0
2022-01-27-10:42:22.517751,13.0,0.0,319.0
2022-01-27-10:42:22.519744,4.0,1.0,320.0
2022-01-27-10:42:22.520742,11.0,9.0,319.0
2022-01-27-10:42:22.520742,11.0,9.0,319.0
2022-01-27-10:42:22.521739,11.0,9.0,319.0
2022-01-27-10:42:22.522737,9.0,10.0,319.0
2022-01-27-10:42:22.523733,14.0,2.0,320.0
2022-01-27-10:42:22.524731,14.0,2.0,320.0
2022-01-27-10:42:22.525729,14.0,2.0,320.0
2022-01-27-10:42:22.526726,13.0,1.0,320.0
2022-01-27-10:42:22.527724,13.0,2.0,320.0
2022-01-27-10:42:22.528721,13.0,2.0,320.0
2022-01-27-10:42:22.529718,13.0,2.0,320.0
2022-01-27-10:42:22.530715,13.0,2.0,319.0
2022-01-27-10:42:22.531712,8.0,0.0,319.0
2022-01-27-10:42:22.532710,12.0,3.0,319.0
2022-01-27-10:42:22.533707,12.0,3.0,319.0
2022-01-27-10:42:22.534704,12.0,3.0,319.0
2022-01-27-10:42:22.535702,4.0,3.0,319.0
2022-01-27-10:42:22.536699,11.0,8.0,319.0
2022-01-27-10:42:22.537696,11.0,8.0,319.0
2022-01-27-10:42:22.538694,11.0,8.0,319.0
2022-01-27-10:42:22.539692,6.0,10.0,319.0
2022-01-27-10:42:22.540689,11.0,4.0,320.0
2022-01-27-10:42:22.541687,11.0,4.0,320.0
2022-01-27-10:42:22.542719,11.0,4.0,320.0
2022-01-27-10:42:22.543706,11.0,4.0,320.0
2022-01-27-10:42:22.544704,18.0,2.0,319.0
2022-01-27-10:42:22.545704,12.0,2.0,320.0
2022-01-27-10:42:22.546697,16.0,3.0,320.0
2022-01-27-10:42:22.547670,14.0,1.0,319.0
2022-01-27-10:42:22.548667,12.0,6.0,320.0
2022-01-27-10:42:22.549701,12.0,6.0,320.0
2022-01-27-10:42:22.550662,12.0,6.0,320.0
2022-01-27-10:42:22.551660,10.0,2.0,319.0
2022-01-27-10:42:22.552658,4.0,3.0,319.0
2022-01-27-10:42:22.553654,7.0,6.0,319.0
2022-01-27-10:42:22.554651,7.0,11.0,320.0
2022-01-27-10:42:22.556647,11.0,10.0,320.0
2022-01-27-10:42:22.556647,1.0,7.0,319.0
2022-01-27-10:42:22.557645,5.0,1.0,320.0
2022-01-27-10:42:22.558668,5.0,1.0,320.0
2022-01-27-10:42:22.559639,13.0,0.0,320.0
2022-01-27-10:42:22.560636,15.0,1.0,320.0
2022-01-27-10:42:22.561663,17.0,2.0,320.0
2022-01-27-10:42:22.562656,15.0,3.0,320.0
2022-01-27-10:42:22.563654,13.0,5.0,320.0
2022-01-27-10:42:22.564650,6.0,2.0,319.0
2022-01-27-10:42:22.565649,6.0,2.0,319.0
2022-01-27-10:42:22.566650,6.0,2.0,319.0
2022-01-27-10:42:22.567642,11.0,2.0,320.0
2022-01-27-10:42:22.568640,3.0,10.0,319.0
2022-01-27-10:42:22.569641,6.0,12.0,320.0
2022-01-27-10:42:22.570636,6.0,12.0,320.0
2022-01-27-10:42:22.571632,12.0,8.0,319.0
2022-01-27-10:42:22.572603,9.0,7.0,319.0
2022-01-27-10:42:22.573600,0.0,3.0,320.0
2022-01-27-10:42:22.574598,0.0,3.0,320.0
2022-01-27-10:42:22.575595,0.0,3.0,320.0
2022-01-27-10:42:22.576593,13.0,1.0,320.0
2022-01-27-10:42:22.577619,13.0,1.0,320.0
2022-01-27-10:42:22.578588,13.0,1.0,320.0
2022-01-27-10:42:22.579584,13.0,1.0,320.0
2022-01-27-10:42:22.580582,11.0,1.0,320.0
2022-01-27-10:42:22.581579,5.0,2.0,320.0
2022-01-27-10:42:22.582577,5.0,2.0,320.0
2022-01-27-10:42:22.583574,5.0,2.0,320.0
2022-01-27-10:42:22.584571,6.0,1.0,319.0
2022-01-27-10:42:22.585569,9.0,8.0,320.0
2022-01-27-10:42:22.586566,9.0,8.0,320.0
2022-01-27-10:42:22.587563,9.0,8.0,320.0
2022-01-27-10:42:22.589558,1.0,4.0,320.0
2022-01-27-10:42:22.589558,1.0,4.0,320.0
2022-01-27-10:42:22.590556,1.0,4.0,320.0
2022-01-27-10:42:22.591553,1.0,4.0,320.0
2022-01-27-10:42:22.592576,14.0,1.0,320.0
2022-01-27-10:42:22.593547,17.0,0.0,319.0
2022-01-27-10:42:22.594592,17.0,0.0,319.0
2022-01-27-10:42:22.595762,17.0,0.0,319.0
2022-01-27-10:42:22.595762,17.0,2.0,320.0
2022-01-27-10:42:22.596795,17.0,2.0,320.0
2022-01-27-10:42:22.597791,9.0,5.0,319.0
2022-01-27-10:42:22.598788,9.0,5.0,319.0
2022-01-27-10:42:22.599785,9.0,5.0,319.0
2022-01-27-10:42:22.600785,11.0,4.0,320.0
2022-01-27-10:42:22.601780,10.0,4.0,319.0
2022-01-27-10:42:22.602780,10.0,4.0,319.0
2022-01-27-10:42:22.603780,10.0,4.0,319.0
2022-01-27-10:42:22.604772,12.0,6.0,320.0
2022-01-27-10:42:22.605772,1.0,9.0,320.0
2022-01-27-10:42:22.606767,1.0,9.0,320.0
2022-01-27-10:42:22.607733,1.0,9.0,320.0
2022-01-27-10:42:22.608819,8.0,0.0,319.0
2022-01-27-10:42:22.608819,19.0,0.0,320.0
2022-01-27-10:42:22.609866,19.0,1.0,319.0
2022-01-27-10:42:22.610860,19.0,1.0,319.0
2022-01-27-10:42:22.611860,19.0,1.0,319.0
2022-01-27-10:42:22.612855,16.0,1.0,320.0
2022-01-27-10:42:22.613854,15.0,3.0,320.0
2022-01-27-10:42:22.614850,11.0,6.0,320.0
2022-01-27-10:42:22.615825,11.0,6.0,320.0
2022-01-27-10:42:22.616848,11.0,1.0,319.0
2022-01-27-10:42:22.617845,2.0,3.0,320.0
2022-01-27-10:42:22.618839,4.0,8.0,320.0
2022-01-27-10:42:22.619836,4.0,8.0,320.0
2022-01-27-10:42:22.620834,4.0,8.0,320.0
2022-01-27-10:42:22.621831,10.0,5.0,320.0
2022-01-27-10:42:22.622828,12.0,12.0,320.0
2022-01-27-10:42:22.624780,5.0,11.0,320.0
2022-01-27-10:42:22.624780,1.0,3.0,320.0
2022-01-27-10:42:22.625779,1.0,3.0,320.0
2022-01-27-10:42:22.626807,13.0,0.0,320.0
2022-01-27-10:42:22.627795,13.0,3.0,320.0
2022-01-27-10:42:22.628988,13.0,3.0,320.0
2022-01-27-10:42:22.628988,15.0,0.0,320.0
2022-01-27-10:42:22.630040,13.0,1.0,320.0
2022-01-27-10:42:22.631037,10.0,1.0,319.0
2022-01-27-10:42:22.632034,10.0,1.0,319.0
2022-01-27-10:42:22.633031,10.0,1.0,319.0
2022-01-27-10:42:22.634028,10.0,1.0,319.0
2022-01-27-10:42:22.635027,0.0,6.0,319.0
2022-01-27-10:42:22.636024,0.0,6.0,319.0
2022-01-27-10:42:22.637022,0.0,6.0,319.0
2022-01-27-10:42:22.638019,9.0,7.0,319.0
2022-01-27-10:42:22.639015,9.0,7.0,319.0
2022-01-27-10:42:22.640019,7.0,12.0,320.0
2022-01-27-10:42:22.641010,2.0,9.0,319.0
2022-01-27-10:42:22.642039,9.0,2.0,320.0
2022-01-27-10:42:22.642410,16.0,5.0,319.0
2022-01-27-10:42:22.642410,16.0,5.0,319.0
2022-01-27-10:42:22.643433,16.0,5.0,319.0
2022-01-27-10:42:22.644453,16.0,5.0,319.0
2022-01-27-10:42:22.645428,13.0,4.0,319.0
2022-01-27-10:42:22.646428,9.0,2.0,320.0
2022-01-27-10:42:22.647424,8.0,1.0,319.0
2022-01-27-10:42:22.648420,8.0,1.0,319.0
2022-01-27-10:42:22.649420,8.0,1.0,319.0
2022-01-27-10:42:22.650421,11.0,3.0,320.0
2022-01-27-10:42:22.651558,1.0,3.0,320.0
2022-01-27-10:42:22.651558,9.0,9.0,320.0
2022-01-27-10:42:22.652591,9.0,9.0,320.0
2022-01-27-10:42:22.653587,9.0,9.0,320.0
2022-01-27-10:42:22.654588,12.0,10.0,320.0
2022-01-27-10:42:22.655584,9.0,6.0,320.0
2022-01-27-10:42:22.657545,3.0,12.0,320.0
2022-01-27-10:42:22.657545,14.0,4.0,320.0
2022-01-27-10:42:22.658542,14.0,4.0,320.0
2022-01-27-10:42:22.659570,19.0,1.0,319.0
2022-01-27-10:42:22.660568,19.0,1.0,319.0
2022-01-27-10:42:22.661560,19.0,1.0,319.0
2022-01-27-10:42:22.662532,16.0,2.0,320.0
2022-01-27-10:42:22.663555,11.0,5.0,319.0
2022-01-27-10:42:22.664527,11.0,5.0,319.0
2022-01-27-10:42:22.665549,11.0,5.0,319.0
2022-01-27-10:42:22.666546,12.0,2.0,319.0
2022-01-27-10:42:22.667543,6.0,7.0,319.0
2022-01-27-10:42:22.668541,6.0,7.0,319.0
2022-01-27-10:42:22.669539,6.0,7.0,319.0
2022-01-27-10:42:22.670537,10.0,8.0,319.0
2022-01-27-10:42:22.671534,6.0,11.0,320.0
2022-01-27-10:42:22.672530,6.0,11.0,320.0
2022-01-27-10:42:22.673528,6.0,11.0,320.0
2022-01-27-10:42:22.674519,6.0,11.0,320.0
2022-01-27-10:42:22.675497,16.0,1.0,319.0
2022-01-27-10:42:22.676519,16.0,1.0,319.0
2022-01-27-10:42:22.677517,16.0,1.0,319.0
2022-01-27-10:42:22.678520,15.0,4.0,320.0
2022-01-27-10:42:22.679512,11.0,0.0,320.0
2022-01-27-10:42:22.680509,11.0,0.0,320.0
2022-01-27-10:42:22.681508,11.0,0.0,320.0
2022-01-27-10:42:22.682509,7.0,3.0,319.0
2022-01-27-10:42:22.683504,1.0,8.0,320.0
2022-01-27-10:42:22.684473,1.0,8.0,320.0
2022-01-27-10:42:22.685495,1.0,8.0,320.0
2022-01-27-10:42:22.686501,11.0,6.0,320.0
2022-01-27-10:42:22.687497,12.0,11.0,320.0
2022-01-27-10:42:22.688496,12.0,11.0,320.0
2022-01-27-10:42:22.689498,12.0,11.0,320.0
2022-01-27-10:42:22.691454,13.0,1.0,319.0
2022-01-27-10:42:22.691454,15.0,0.0,320.0
2022-01-27-10:42:22.692452,20.0,1.0,320.0
2022-01-27-10:42:22.693473,20.0,1.0,320.0
2022-01-27-10:42:22.694472,20.0,1.0,320.0
2022-01-27-10:42:22.695468,12.0,4.0,319.0
2022-01-27-10:42:22.696465,12.0,4.0,319.0
2022-01-27-10:42:22.697464,12.0,4.0,319.0
2022-01-27-10:42:22.698460,12.0,4.0,319.0
2022-01-27-10:42:22.699469,11.0,4.0,319.0
2022-01-27-10:42:22.700552,0.0,2.0,319.0
2022-01-27-10:42:22.700552,0.0,2.0,319.0
2022-01-27-10:42:22.701586,0.0,2.0,319.0
2022-01-27-10:42:22.702584,0.0,2.0,319.0
2022-01-27-10:42:22.703552,12.0,7.0,320.0
2022-01-27-10:42:22.704578,12.0,12.0,320.0
2022-01-27-10:42:22.705575,12.0,12.0,320.0
2022-01-27-10:42:22.706572,12.0,12.0,320.0
2022-01-27-10:42:22.707569,19.0,1.0,320.0
2022-01-27-10:42:22.708570,19.0,1.0,320.0
2022-01-27-10:42:22.709565,19.0,1.0,320.0
2022-01-27-10:42:22.710577,19.0,1.0,320.0
2022-01-27-10:42:22.711570,19.0,2.0,319.0
2022-01-27-10:42:22.712567,16.0,1.0,320.0
2022-01-27-10:42:22.713564,11.0,2.0,320.0
2022-01-27-10:42:22.714564,11.0,2.0,320.0
2022-01-27-10:42:22.715558,10.0,5.0,320.0
2022-01-27-10:42:22.716560,9.0,0.0,320.0
2022-01-27-10:42:22.717556,2.0,2.0,320.0
2022-01-27-10:42:22.718550,2.0,2.0,320.0
2022-01-27-10:42:22.719548,3.0,6.0,320.0
2022-01-27-10:42:22.720545,15.0,7.0,320.0
2022-01-27-10:42:22.721543,10.0,11.0,320.0
2022-01-27-10:42:22.722496,10.0,11.0,320.0
2022-01-27-10:42:22.724491,3.0,3.0,320.0
2022-01-27-10:42:22.724491,18.0,3.0,320.0
2022-01-27-10:42:22.725515,18.0,3.0,320.0
2022-01-27-10:42:22.726485,18.0,3.0,320.0
2022-01-27-10:42:22.727508,20.0,3.0,320.0
2022-01-27-10:42:22.728505,16.0,3.0,320.0
2022-01-27-10:42:22.729504,11.0,4.0,320.0
2022-01-27-10:42:22.730474,11.0,4.0,320.0
2022-01-27-10:42:22.731498,11.0,2.0,320.0
2022-01-27-10:42:22.732499,11.0,2.0,319.0
2022-01-27-10:42:22.733493,2.0,3.0,320.0
2022-01-27-10:42:22.734490,2.0,3.0,320.0
2022-01-27-10:42:22.735493,13.0,8.0,320.0
2022-01-27-10:42:22.736503,12.0,9.0,320.0
2022-01-27-10:42:22.737500,12.0,9.0,320.0
2022-01-27-10:42:22.738497,12.0,9.0,320.0
2022-01-27-10:42:22.739495,12.0,9.0,320.0
2022-01-27-10:42:22.740477,12.0,9.0,320.0
2022-01-27-10:42:22.741446,16.0,2.0,319.0
2022-01-27-10:42:22.742487,16.0,2.0,319.0
2022-01-27-10:42:22.743484,16.0,2.0,319.0
2022-01-27-10:42:22.744481,15.0,2.0,320.0
2022-01-27-10:42:22.745479,15.0,1.0,320.0
2022-01-27-10:42:22.746476,14.0,1.0,320.0
2022-01-27-10:42:22.747473,14.0,1.0,320.0
2022-01-27-10:42:22.748475,12.0,3.0,319.0
2022-01-27-10:42:22.749471,10.0,4.0,320.0
2022-01-27-10:42:22.750465,8.0,3.0,320.0
2022-01-27-10:42:22.751463,8.0,3.0,320.0
2022-01-27-10:42:22.752460,0.0,2.0,320.0
2022-01-27-10:42:22.753460,12.0,10.0,320.0
2022-01-27-10:42:22.754458,11.0,6.0,320.0
2022-01-27-10:42:22.755454,11.0,6.0,320.0
2022-01-27-10:42:22.756455,10.0,10.0,320.0
2022-01-27-10:42:22.758426,10.0,10.0,320.0
2022-01-27-10:42:22.759397,15.0,2.0,319.0
2022-01-27-10:42:22.759574,15.0,4.0,320.0
2022-01-27-10:42:22.759899,13.0,3.0,319.0
2022-01-27-10:42:22.759899,13.0,3.0,319.0
2022-01-27-10:42:22.760956,13.0,3.0,319.0
2022-01-27-10:42:22.761951,13.0,3.0,319.0
2022-01-27-10:42:22.762941,13.0,3.0,319.0
2022-01-27-10:42:22.763924,13.0,3.0,319.0
2022-01-27-10:42:22.764934,10.0,6.0,320.0
2022-01-27-10:42:22.765932,13.0,2.0,320.0
2022-01-27-10:42:22.766934,13.0,2.0,320.0
2022-01-27-10:42:22.768106,13.0,2.0,320.0
2022-01-27-10:42:22.768106,5.0,6.0,319.0
2022-01-27-10:42:22.769159,10.0,4.0,320.0
2022-01-27-10:42:22.770159,8.0,8.0,320.0
2022-01-27-10:42:22.771155,8.0,8.0,320.0
2022-01-27-10:42:22.772152,8.0,8.0,320.0
2022-01-27-10:42:22.773154,9.0,13.0,320.0
2022-01-27-10:42:22.774147,1.0,5.0,320.0
2022-01-27-10:42:22.775090,15.0,0.0,320.0
2022-01-27-10:42:22.776405,15.0,0.0,320.0
2022-01-27-10:42:22.776405,18.0,0.0,319.0
2022-01-27-10:42:22.777459,15.0,3.0,320.0
2022-01-27-10:42:22.778456,18.0,1.0,319.0
2022-01-27-10:42:22.779453,18.0,1.0,319.0
2022-01-27-10:42:22.780613,18.0,1.0,319.0
2022-01-27-10:42:22.780613,12.0,3.0,320.0
2022-01-27-10:42:22.781659,9.0,1.0,319.0
2022-01-27-10:42:22.782661,10.0,1.0,319.0
2022-01-27-10:42:22.783658,10.0,1.0,319.0
2022-01-27-10:42:22.784880,10.0,1.0,319.0
2022-01-27-10:42:22.784880,1.0,8.0,319.0
2022-01-27-10:42:22.786009,13.0,8.0,319.0
2022-01-27-10:42:22.786009,13.0,8.0,319.0
2022-01-27-10:42:22.787056,13.0,8.0,319.0
2022-01-27-10:42:22.788052,13.0,8.0,319.0
2022-01-27-10:42:22.789053,11.0,9.0,320.0
2022-01-27-10:42:22.790047,1.0,11.0,320.0
2022-01-27-10:42:22.791044,10.0,1.0,320.0
2022-01-27-10:42:22.791995,10.0,1.0,320.0
2022-01-27-10:42:22.793040,11.0,1.0,319.0
2022-01-27-10:42:22.795034,11.0,1.0,319.0
2022-01-27-10:42:22.795034,16.0,5.0,319.0
2022-01-27-10:42:22.796181,16.0,5.0,319.0
2022-01-27-10:42:22.796181,10.0,3.0,320.0
2022-01-27-10:42:22.797235,13.0,4.0,319.0
2022-01-27-10:42:22.798277,13.0,4.0,319.0
2022-01-27-10:42:22.798277,13.0,4.0,319.0
2022-01-27-10:42:22.799324,13.0,4.0,319.0
2022-01-27-10:42:22.800478,13.0,4.0,319.0
2022-01-27-10:42:22.800478,9.0,0.0,320.0
2022-01-27-10:42:22.801532,6.0,6.0,319.0
2022-01-27-10:42:22.802604,13.0,6.0,319.0
2022-01-27-10:42:22.802604,13.0,6.0,319.0
2022-01-27-10:42:22.803661,13.0,6.0,319.0
2022-01-27-10:42:22.804656,13.0,6.0,319.0
2022-01-27-10:42:22.805653,11.0,10.0,320.0
2022-01-27-10:42:22.806652,4.0,11.0,319.0
2022-01-27-10:42:22.807653,3.0,1.0,320.0
2022-01-27-10:42:22.808624,3.0,1.0,320.0
2022-01-27-10:42:22.809642,17.0,1.0,319.0
2022-01-27-10:42:22.810639,17.0,1.0,319.0
2022-01-27-10:42:22.811631,15.0,2.0,320.0
2022-01-27-10:42:22.812634,15.0,2.0,320.0
2022-01-27-10:42:22.813624,13.0,1.0,319.0
2022-01-27-10:42:22.814623,7.0,4.0,320.0
2022-01-27-10:42:22.815618,7.0,4.0,320.0
2022-01-27-10:42:22.816597,7.0,4.0,320.0
2022-01-27-10:42:22.817613,13.0,1.0,319.0
2022-01-27-10:42:22.818616,1.0,9.0,319.0
2022-01-27-10:42:22.819610,12.0,5.0,319.0
2022-01-27-10:42:22.820584,12.0,5.0,319.0
2022-01-27-10:42:22.821788,12.0,8.0,319.0
2022-01-27-10:42:22.821788,7.0,12.0,319.0
2022-01-27-10:42:22.822853,2.0,6.0,319.0
2022-01-27-10:42:22.823842,2.0,6.0,319.0
2022-01-27-10:42:22.824788,2.0,6.0,319.0
2022-01-27-10:42:22.825814,2.0,6.0,319.0
2022-01-27-10:42:22.827810,14.0,1.0,319.0
2022-01-27-10:42:22.827810,16.0,2.0,319.0
2022-01-27-10:42:22.828775,16.0,2.0,319.0
2022-01-27-10:42:22.829804,10.0,2.0,320.0
2022-01-27-10:42:22.830801,10.0,2.0,320.0
2022-01-27-10:42:22.831804,6.0,1.0,320.0
2022-01-27-10:42:22.832796,6.0,1.0,320.0
2022-01-27-10:42:22.833799,6.0,1.0,320.0
2022-01-27-10:42:22.834792,5.0,1.0,319.0
2022-01-27-10:42:22.835902,6.0,10.0,320.0
2022-01-27-10:42:22.835902,6.0,10.0,320.0
2022-01-27-10:42:22.836956,6.0,10.0,320.0
2022-01-27-10:42:22.837957,10.0,8.0,319.0
2022-01-27-10:42:22.838951,10.0,12.0,320.0
2022-01-27-10:42:22.839949,2.0,8.0,319.0
2022-01-27-10:42:22.840945,2.0,8.0,319.0
2022-01-27-10:42:22.841923,8.0,2.0,320.0
2022-01-27-10:42:22.842940,16.0,3.0,319.0
2022-01-27-10:42:22.843938,13.0,3.0,320.0
2022-01-27-10:42:22.844927,13.0,3.0,320.0
2022-01-27-10:42:22.845927,13.0,3.0,320.0
2022-01-27-10:42:22.846926,13.0,5.0,320.0
2022-01-27-10:42:22.847918,11.0,6.0,320.0
2022-01-27-10:42:22.848916,8.0,7.0,319.0
2022-01-27-10:42:22.849914,8.0,7.0,319.0
2022-01-27-10:42:22.850910,11.0,2.0,320.0
2022-01-27-10:42:22.851908,4.0,6.0,320.0
2022-01-27-10:42:22.852905,6.0,0.0,319.0
2022-01-27-10:42:22.853907,6.0,0.0,319.0
2022-01-27-10:42:22.854902,9.0,1.0,319.0
2022-01-27-10:42:22.855898,12.0,4.0,319.0
2022-01-27-10:42:22.856895,13.0,9.0,320.0
2022-01-27-10:42:22.857894,2.0,12.0,320.0
2022-01-27-10:42:22.858843,16.0,6.0,319.0
2022-01-27-10:42:22.859887,16.0,6.0,319.0
2022-01-27-10:42:22.860885,15.0,11.0,319.0
2022-01-27-10:42:22.862879,15.0,11.0,319.0
2022-01-27-10:42:22.862879,13.0,9.0,320.0
2022-01-27-10:42:22.863876,11.0,6.0,319.0
2022-01-27-10:42:22.864873,11.0,6.0,319.0
2022-01-27-10:42:22.865871,11.0,6.0,319.0
2022-01-27-10:42:22.866877,10.0,1.0,319.0
2022-01-27-10:42:22.867866,12.0,5.0,319.0
2022-01-27-10:42:22.868862,12.0,5.0,319.0
2022-01-27-10:42:22.869841,12.0,5.0,319.0
2022-01-27-10:42:22.870857,12.0,3.0,319.0
2022-01-27-10:42:22.871854,7.0,7.0,320.0
2022-01-27-10:42:22.872852,0.0,8.0,319.0
2022-01-27-10:42:22.873859,0.0,8.0,319.0
2022-01-27-10:42:22.875206,14.0,17.0,320.0
2022-01-27-10:42:22.875206,12.0,3.0,320.0
2022-01-27-10:42:22.876240,16.0,10.0,320.0
2022-01-27-10:42:22.877237,16.0,10.0,320.0
2022-01-27-10:42:22.878424,16.0,10.0,320.0
2022-01-27-10:42:22.878424,15.0,6.0,320.0
2022-01-27-10:42:22.879455,15.0,6.0,320.0
2022-01-27-10:42:22.880452,7.0,11.0,319.0
2022-01-27-10:42:22.881449,7.0,11.0,319.0
2022-01-27-10:42:22.882649,7.0,11.0,319.0
2022-01-27-10:42:22.882649,11.0,2.0,319.0
2022-01-27-10:42:22.883681,11.0,2.0,319.0
2022-01-27-10:42:22.884822,8.0,9.0,320.0
2022-01-27-10:42:22.884822,8.0,9.0,320.0
2022-01-27-10:42:22.885875,8.0,9.0,320.0
2022-01-27-10:42:22.886874,8.0,9.0,320.0
2022-01-27-10:42:22.887850,11.0,8.0,319.0
2022-01-27-10:42:22.889113,9.0,9.0,319.0
2022-01-27-10:42:22.889113,4.0,10.0,319.0
2022-01-27-10:42:22.890146,4.0,10.0,319.0
2022-01-27-10:42:22.891148,10.0,4.0,320.0
2022-01-27-10:42:22.892107,15.0,1.0,319.0
2022-01-27-10:42:22.894101,15.0,1.0,319.0
2022-01-27-10:42:22.894101,15.0,1.0,319.0
2022-01-27-10:42:22.895130,15.0,1.0,319.0
2022-01-27-10:42:22.896272,12.0,0.0,319.0
2022-01-27-10:42:22.896272,12.0,0.0,319.0
2022-01-27-10:42:22.897304,12.0,0.0,319.0
2022-01-27-10:42:22.898303,12.0,0.0,319.0
2022-01-27-10:42:22.899298,12.0,0.0,319.0
2022-01-27-10:42:22.900507,6.0,6.0,320.0
2022-01-27-10:42:22.900507,6.0,6.0,320.0
2022-01-27-10:42:22.901541,6.0,6.0,320.0
2022-01-27-10:42:22.902542,6.0,6.0,320.0
2022-01-27-10:42:22.903534,12.0,8.0,320.0
2022-01-27-10:42:22.904532,6.0,12.0,319.0
2022-01-27-10:42:22.905527,6.0,12.0,319.0
2022-01-27-10:42:22.906525,6.0,12.0,319.0
2022-01-27-10:42:22.907524,6.0,12.0,319.0
2022-01-27-10:42:22.908489,15.0,1.0,319.0
2022-01-27-10:42:22.909594,15.0,1.0,319.0
2022-01-27-10:42:22.910063,15.0,1.0,319.0
2022-01-27-10:42:22.910063,15.0,1.0,319.0
2022-01-27-10:42:22.911097,15.0,1.0,319.0
2022-01-27-10:42:22.912213,13.0,4.0,320.0
2022-01-27-10:42:22.912213,8.0,4.0,320.0
2022-01-27-10:42:22.913271,8.0,4.0,320.0
2022-01-27-10:42:22.914266,8.0,4.0,320.0
2022-01-27-10:42:22.915460,8.0,4.0,320.0
2022-01-27-10:42:22.915460,5.0,4.0,319.0
2022-01-27-10:42:22.916491,5.0,4.0,319.0
2022-01-27-10:42:22.917489,6.0,5.0,319.0
2022-01-27-10:42:22.918490,6.0,5.0,319.0
2022-01-27-10:42:22.919456,6.0,5.0,319.0
2022-01-27-10:42:22.920456,13.0,14.0,320.0
2022-01-27-10:42:22.921446,11.0,9.0,319.0
2022-01-27-10:42:22.922538,11.0,9.0,319.0
2022-01-27-10:42:22.922538,11.0,9.0,319.0
2022-01-27-10:42:22.923592,11.0,9.0,319.0
2022-01-27-10:42:22.924590,1.0,8.0,320.0
2022-01-27-10:42:22.925532,10.0,2.0,320.0
2022-01-27-10:42:22.927923,10.0,2.0,320.0
2022-01-27-10:42:22.927923,16.0,4.0,319.0
2022-01-27-10:42:22.928952,16.0,4.0,319.0
2022-01-27-10:42:22.929949,10.0,3.0,320.0
2022-01-27-10:42:22.931017,10.0,3.0,320.0
2022-01-27-10:42:22.931017,10.0,3.0,320.0
2022-01-27-10:42:22.932063,10.0,3.0,320.0
2022-01-27-10:42:22.933061,9.0,2.0,320.0
2022-01-27-10:42:22.934011,1.0,3.0,319.0
2022-01-27-10:42:22.935008,1.0,3.0,319.0
2022-01-27-10:42:22.936032,1.0,3.0,319.0
2022-01-27-10:42:22.937003,10.0,9.0,319.0
2022-01-27-10:42:22.938010,10.0,7.0,320.0
2022-01-27-10:42:22.939024,10.0,7.0,320.0
2022-01-27-10:42:22.940022,10.0,7.0,320.0
2022-01-27-10:42:22.941018,2.0,6.0,319.0
2022-01-27-10:42:22.941990,17.0,1.0,320.0
2022-01-27-10:42:22.943018,17.0,5.0,320.0
2022-01-27-10:42:22.944011,17.0,5.0,320.0
2022-01-27-10:42:22.945181,17.0,5.0,320.0
2022-01-27-10:42:22.945181,15.0,2.0,319.0
2022-01-27-10:42:22.946312,12.0,3.0,319.0
2022-01-27-10:42:22.946312,12.0,3.0,319.0
2022-01-27-10:42:22.947338,12.0,3.0,319.0
2022-01-27-10:42:22.948531,12.0,3.0,319.0
2022-01-27-10:42:22.948531,10.0,2.0,319.0
2022-01-27-10:42:22.949564,7.0,1.0,319.0
2022-01-27-10:42:22.950562,2.0,5.0,320.0
2022-01-27-10:42:22.951559,2.0,5.0,320.0
2022-01-27-10:42:22.952556,2.0,5.0,320.0
2022-01-27-10:42:22.953562,14.0,10.0,320.0
2022-01-27-10:42:22.954517,13.0,10.0,320.0
2022-01-27-10:42:22.955514,13.0,10.0,320.0
2022-01-27-10:42:22.956513,13.0,10.0,320.0
2022-01-27-10:42:22.957509,4.0,9.0,320.0
2022-01-27-10:42:22.958507,12.0,2.0,319.0
2022-01-27-10:42:22.959537,15.0,1.0,320.0
2022-01-27-10:42:22.960555,15.0,1.0,320.0
2022-01-27-10:42:22.961598,12.0,3.0,320.0
2022-01-27-10:42:22.962310,13.0,1.0,320.0
2022-01-27-10:42:22.963310,13.0,1.0,320.0
2022-01-27-10:42:22.963310,13.0,1.0,320.0
2022-01-27-10:42:22.964361,13.0,1.0,320.0
2022-01-27-10:42:22.965339,5.0,3.0,320.0
2022-01-27-10:42:22.966334,5.0,3.0,320.0
2022-01-27-10:42:22.967334,5.0,3.0,320.0
2022-01-27-10:42:22.968330,5.0,3.0,320.0
2022-01-27-10:42:22.969328,0.0,7.0,320.0
2022-01-27-10:42:22.970325,6.0,10.0,320.0
2022-01-27-10:42:22.971368,7.0,15.0,320.0
2022-01-27-10:42:22.971368,7.0,15.0,320.0
2022-01-27-10:42:22.972557,7.0,15.0,320.0
2022-01-27-10:42:22.972557,8.0,8.0,319.0
2022-01-27-10:42:22.973589,12.0,3.0,320.0
2022-01-27-10:42:22.974554,18.0,3.0,319.0
2022-01-27-10:42:22.975552,18.0,3.0,319.0
2022-01-27-10:42:22.976582,18.0,3.0,319.0
2022-01-27-10:42:22.977584,19.0,5.0,320.0
2022-01-27-10:42:22.978577,15.0,2.0,320.0
2022-01-27-10:42:22.979575,10.0,2.0,320.0
2022-01-27-10:42:22.980539,10.0,2.0,320.0
2022-01-27-10:42:22.981572,9.0,4.0,320.0
2022-01-27-10:42:22.982568,11.0,6.0,320.0
2022-01-27-10:42:22.983564,7.0,10.0,320.0
2022-01-27-10:42:22.984528,7.0,10.0,320.0
2022-01-27-10:42:22.985562,2.0,8.0,320.0
2022-01-27-10:42:22.986556,13.0,7.0,320.0
2022-01-27-10:42:22.987554,9.0,12.0,320.0
2022-01-27-10:42:22.988542,9.0,12.0,320.0
2022-01-27-10:42:22.989547,10.0,12.0,319.0
2022-01-27-10:42:22.990538,17.0,2.0,319.0
2022-01-27-10:42:22.991543,17.0,2.0,319.0
2022-01-27-10:42:22.992540,17.0,2.0,319.0
2022-01-27-10:42:22.993533,17.0,2.0,319.0
2022-01-27-10:42:22.994527,10.0,2.0,320.0
2022-01-27-10:42:22.995525,12.0,6.0,320.0
2022-01-27-10:42:22.997494,12.0,6.0,320.0
2022-01-27-10:42:22.997494,13.0,10.0,320.0
2022-01-27-10:42:22.998591,12.0,4.0,320.0
2022-01-27-10:42:22.998591,12.0,4.0,320.0
2022-01-27-10:42:22.999638,12.0,4.0,320.0
2022-01-27-10:42:23.000637,12.0,4.0,320.0
2022-01-27-10:42:23.001632,12.0,4.0,320.0
2022-01-27-10:42:23.002630,2.0,4.0,319.0
2022-01-27-10:42:23.003627,13.0,7.0,320.0
2022-01-27-10:42:23.004625,9.0,3.0,319.0
2022-01-27-10:42:23.005621,9.0,3.0,319.0
2022-01-27-10:42:23.006623,12.0,1.0,319.0
2022-01-27-10:42:23.007616,5.0,5.0,320.0
2022-01-27-10:42:23.008567,16.0,8.0,320.0
2022-01-27-10:42:23.009611,16.0,8.0,320.0
2022-01-27-10:42:23.010608,16.0,13.0,320.0
2022-01-27-10:42:23.011606,18.0,9.0,319.0
2022-01-27-10:42:23.012896,16.0,15.0,319.0
2022-01-27-10:42:23.012896,11.0,10.0,319.0
2022-01-27-10:42:23.013930,10.0,3.0,319.0
2022-01-27-10:42:23.014926,8.0,4.0,319.0
2022-01-27-10:42:23.015923,8.0,4.0,319.0
2022-01-27-10:42:23.016922,8.0,4.0,319.0
2022-01-27-10:42:23.017919,8.0,4.0,319.0
2022-01-27-10:42:23.018916,3.0,3.0,320.0
2022-01-27-10:42:23.019913,8.0,6.0,320.0
2022-01-27-10:42:23.020911,8.0,6.0,320.0
2022-01-27-10:42:23.021909,8.0,6.0,320.0
2022-01-27-10:42:23.022906,6.0,8.0,320.0
2022-01-27-10:42:23.023905,2.0,4.0,320.0
2022-01-27-10:42:23.024901,12.0,1.0,320.0
2022-01-27-10:42:23.025901,12.0,1.0,320.0
2022-01-27-10:42:23.026895,17.0,0.0,320.0
2022-01-27-10:42:23.027859,17.0,3.0,320.0
2022-01-27-10:42:23.028882,16.0,5.0,320.0
2022-01-27-10:42:23.029901,16.0,5.0,320.0
2022-01-27-10:42:23.031848,13.0,5.0,320.0
2022-01-27-10:42:23.031848,8.0,4.0,319.0
2022-01-27-10:42:23.032893,8.0,4.0,319.0
2022-01-27-10:42:23.033895,8.0,4.0,319.0
2022-01-27-10:42:23.034886,9.0,1.0,319.0
2022-01-27-10:42:23.035886,11.0,9.0,319.0
2022-01-27-10:42:23.036880,12.0,6.0,320.0
2022-01-27-10:42:23.037832,12.0,6.0,320.0
2022-01-27-10:42:23.038879,10.0,9.0,320.0
2022-01-27-10:42:23.039873,5.0,12.0,320.0
2022-01-27-10:42:23.040925,7.0,4.0,319.0
2022-01-27-10:42:23.040925,7.0,4.0,319.0
2022-01-27-10:42:23.041925,7.0,4.0,319.0
2022-01-27-10:42:23.042922,16.0,2.0,320.0
2022-01-27-10:42:23.043975,19.0,0.0,320.0
2022-01-27-10:42:23.044975,19.0,0.0,320.0
2022-01-27-10:42:23.046389,19.0,0.0,320.0
2022-01-27-10:42:23.046389,8.0,5.0,320.0
2022-01-27-10:42:23.047568,8.0,5.0,320.0
2022-01-27-10:42:23.047568,8.0,5.0,320.0
2022-01-27-10:42:23.048614,8.0,5.0,320.0
2022-01-27-10:42:23.049611,8.0,5.0,320.0
2022-01-27-10:42:23.050612,8.0,5.0,320.0
2022-01-27-10:42:23.051605,9.0,1.0,320.0
2022-01-27-10:42:23.052604,6.0,9.0,320.0
2022-01-27-10:42:23.053603,10.0,5.0,319.0
2022-01-27-10:42:23.054598,10.0,5.0,319.0
2022-01-27-10:42:23.055803,9.0,12.0,320.0
2022-01-27-10:42:23.055803,4.0,16.0,320.0
2022-01-27-10:42:23.056857,2.0,7.0,320.0
2022-01-27-10:42:23.057841,2.0,7.0,320.0
2022-01-27-10:42:23.058797,2.0,7.0,320.0
2022-01-27-10:42:23.059794,14.0,2.0,319.0
2022-01-27-10:42:23.060792,15.0,2.0,320.0
2022-01-27-10:42:23.061828,15.0,2.0,320.0
2022-01-27-10:42:23.062987,15.0,2.0,320.0
2022-01-27-10:42:23.062987,13.0,3.0,320.0
2022-01-27-10:42:23.065043,16.0,3.0,319.0
2022-01-27-10:42:23.065043,12.0,1.0,320.0
2022-01-27-10:42:23.066027,12.0,1.0,320.0
2022-01-27-10:42:23.067026,12.0,1.0,320.0
2022-01-27-10:42:23.068023,10.0,3.0,320.0
2022-01-27-10:42:23.069021,4.0,7.0,319.0
2022-01-27-10:42:23.070017,14.0,10.0,320.0
2022-01-27-10:42:23.071014,14.0,10.0,320.0
2022-01-27-10:42:23.072051,12.0,7.0,320.0
2022-01-27-10:42:23.072444,7.0,11.0,319.0
2022-01-27-10:42:23.072444,1.0,7.0,320.0
2022-01-27-10:42:23.073493,1.0,7.0,320.0
2022-01-27-10:42:23.074466,1.0,7.0,320.0
2022-01-27-10:42:23.075440,16.0,2.0,320.0
2022-01-27-10:42:23.076462,16.0,2.0,320.0
2022-01-27-10:42:23.077479,16.0,2.0,320.0
2022-01-27-10:42:23.078477,16.0,2.0,320.0
2022-01-27-10:42:23.079474,16.0,2.0,320.0
2022-01-27-10:42:23.080473,15.0,1.0,320.0
2022-01-27-10:42:23.081448,10.0,2.0,320.0
2022-01-27-10:42:23.082466,10.0,2.0,320.0
2022-01-27-10:42:23.083465,10.0,2.0,320.0
2022-01-27-10:42:23.084460,5.0,2.0,320.0
2022-01-27-10:42:23.085461,4.0,16.0,320.0
2022-01-27-10:42:23.086456,12.0,17.0,319.0
2022-01-27-10:42:23.087612,12.0,17.0,319.0
2022-01-27-10:42:23.087612,13.0,15.0,320.0
2022-01-27-10:42:23.088666,7.0,8.0,320.0
2022-01-27-10:42:23.089694,3.0,3.0,319.0
2022-01-27-10:42:23.089694,3.0,3.0,319.0
2022-01-27-10:42:23.090749,3.0,3.0,319.0
2022-01-27-10:42:23.091725,3.0,3.0,319.0
2022-01-27-10:42:23.092722,13.0,2.0,320.0
2022-01-27-10:42:23.093723,19.0,4.0,320.0
2022-01-27-10:42:23.094738,19.0,4.0,320.0
2022-01-27-10:42:23.095736,19.0,4.0,320.0
2022-01-27-10:42:23.096733,12.0,4.0,320.0
2022-01-27-10:42:23.097730,4.0,5.0,319.0
2022-01-27-10:42:23.098730,4.0,5.0,319.0
2022-01-27-10:42:23.100701,4.0,5.0,319.0
2022-01-27-10:42:23.100701,11.0,10.0,319.0
2022-01-27-10:42:23.101722,11.0,10.0,319.0
2022-01-27-10:42:23.102717,11.0,10.0,319.0
2022-01-27-10:42:23.103714,11.0,10.0,319.0
2022-01-27-10:42:23.104711,15.0,13.0,320.0
2022-01-27-10:42:23.105710,15.0,16.0,320.0
2022-01-27-10:42:23.106651,3.0,1.0,319.0
2022-01-27-10:42:23.107703,3.0,1.0,319.0
2022-01-27-10:42:23.108648,14.0,6.0,320.0
2022-01-27-10:42:23.109750,17.0,1.0,319.0
2022-01-27-10:42:23.109750,17.0,1.0,319.0
2022-01-27-10:42:23.110797,17.0,1.0,319.0
2022-01-27-10:42:23.111948,17.0,1.0,319.0
2022-01-27-10:42:23.111948,15.0,0.0,320.0
2022-01-27-10:42:23.112980,15.0,0.0,320.0
2022-01-27-10:42:23.113980,7.0,4.0,320.0
2022-01-27-10:42:23.114975,7.0,4.0,320.0
2022-01-27-10:42:23.115973,7.0,4.0,320.0
2022-01-27-10:42:23.116974,2.0,6.0,320.0
2022-01-27-10:42:23.117967,9.0,4.0,319.0
2022-01-27-10:42:23.118967,9.0,4.0,319.0
2022-01-27-10:42:23.119962,9.0,4.0,319.0
2022-01-27-10:42:23.120959,10.0,10.0,320.0
2022-01-27-10:42:23.121958,12.0,8.0,320.0
2022-01-27-10:42:23.122954,3.0,7.0,320.0
2022-01-27-10:42:23.123919,3.0,7.0,320.0
2022-01-27-10:42:23.124953,12.0,2.0,320.0
2022-01-27-10:42:23.126002,13.0,3.0,320.0
2022-01-27-10:42:23.126002,13.0,3.0,320.0
2022-01-27-10:42:23.127028,13.0,3.0,320.0
2022-01-27-10:42:23.128183,13.0,3.0,320.0
2022-01-27-10:42:23.128183,16.0,0.0,320.0
2022-01-27-10:42:23.129207,6.0,2.0,319.0
2022-01-27-10:42:23.130210,6.0,2.0,319.0
2022-01-27-10:42:23.131212,6.0,2.0,319.0
2022-01-27-10:42:23.132210,6.0,2.0,319.0
2022-01-27-10:42:23.133199,9.0,0.0,319.0
2022-01-27-10:42:23.134196,1.0,5.0,320.0
2022-01-27-10:42:23.135191,7.0,9.0,319.0
2022-01-27-10:42:23.137162,7.0,9.0,319.0
2022-01-27-10:42:23.137592,4.0,6.0,320.0
2022-01-27-10:42:23.137592,4.0,6.0,320.0
2022-01-27-10:42:23.138651,4.0,6.0,320.0
2022-01-27-10:42:23.139643,4.0,6.0,320.0
2022-01-27-10:42:23.140642,4.0,6.0,320.0
2022-01-27-10:42:23.141639,8.0,4.0,320.0
2022-01-27-10:42:23.142639,18.0,1.0,319.0
2022-01-27-10:42:23.143636,17.0,1.0,320.0
2022-01-27-10:42:23.144631,17.0,1.0,320.0
2022-01-27-10:42:23.145627,14.0,3.0,320.0
2022-01-27-10:42:23.146625,13.0,0.0,320.0
2022-01-27-10:42:23.147631,9.0,0.0,319.0
2022-01-27-10:42:23.148620,9.0,0.0,319.0
2022-01-27-10:42:23.149617,10.0,0.0,319.0
2022-01-27-10:42:23.150618,10.0,0.0,319.0
2022-01-27-10:42:23.151615,6.0,5.0,320.0
2022-01-27-10:42:23.152611,6.0,5.0,320.0
2022-01-27-10:42:23.153606,16.0,11.0,319.0
2022-01-27-10:42:23.154596,16.0,15.0,319.0
2022-01-27-10:42:23.155602,11.0,7.0,319.0
2022-01-27-10:42:23.156582,11.0,7.0,319.0
2022-01-27-10:42:23.157594,2.0,3.0,319.0
2022-01-27-10:42:23.158589,18.0,5.0,319.0
2022-01-27-10:42:23.159566,18.0,5.0,319.0
2022-01-27-10:42:23.160584,18.0,5.0,319.0
2022-01-27-10:42:23.161577,22.0,3.0,320.0
2022-01-27-10:42:23.162573,13.0,1.0,319.0
2022-01-27-10:42:23.163573,10.0,4.0,319.0
2022-01-27-10:42:23.164570,10.0,4.0,319.0
2022-01-27-10:42:23.165567,10.0,4.0,319.0
2022-01-27-10:42:23.166568,11.0,2.0,319.0
2022-01-27-10:42:23.168538,0.0,2.0,320.0
2022-01-27-10:42:23.169260,10.0,5.0,319.0
2022-01-27-10:42:23.169260,13.0,6.0,320.0
2022-01-27-10:42:23.170417,13.0,7.0,319.0
2022-01-27-10:42:23.170417,13.0,7.0,319.0
2022-01-27-10:42:23.171471,13.0,7.0,319.0
2022-01-27-10:42:23.172471,13.0,7.0,319.0
2022-01-27-10:42:23.173667,13.0,7.0,319.0
2022-01-27-10:42:23.173667,6.0,8.0,320.0
2022-01-27-10:42:23.174850,15.0,1.0,319.0
2022-01-27-10:42:23.174996,18.0,1.0,320.0
2022-01-27-10:42:23.174996,18.0,1.0,320.0
2022-01-27-10:42:23.176042,18.0,1.0,320.0
2022-01-27-10:42:23.177034,18.0,1.0,320.0
2022-01-27-10:42:23.178037,16.0,4.0,319.0
2022-01-27-10:42:23.179254,15.0,1.0,319.0
2022-01-27-10:42:23.179392,12.0,2.0,319.0
2022-01-27-10:42:23.179392,12.0,2.0,319.0
2022-01-27-10:42:23.180438,12.0,2.0,319.0
2022-01-27-10:42:23.181435,12.0,2.0,319.0
2022-01-27-10:42:23.182432,9.0,3.0,320.0
2022-01-27-10:42:23.183408,9.0,1.0,319.0
2022-01-27-10:42:23.184406,9.0,1.0,319.0
2022-01-27-10:42:23.185378,3.0,2.0,320.0
2022-01-27-10:42:23.186394,7.0,4.0,320.0
2022-01-27-10:42:23.187419,16.0,12.0,320.0
2022-01-27-10:42:23.188420,16.0,9.0,319.0
2022-01-27-10:42:23.189607,16.0,9.0,319.0
2022-01-27-10:42:23.189607,8.0,8.0,319.0
2022-01-27-10:42:23.190662,17.0,2.0,319.0
2022-01-27-10:42:23.191709,17.0,2.0,319.0
2022-01-27-10:42:23.191709,17.0,2.0,319.0
2022-01-27-10:42:23.192756,17.0,2.0,319.0
2022-01-27-10:42:23.193754,17.0,2.0,319.0
2022-01-27-10:42:23.194750,19.0,5.0,320.0
2022-01-27-10:42:23.195751,13.0,3.0,320.0
2022-01-27-10:42:23.196745,12.0,1.0,320.0
2022-01-27-10:42:23.197779,12.0,1.0,320.0
2022-01-27-10:42:23.197779,12.0,4.0,320.0
2022-01-27-10:42:23.198835,14.0,2.0,320.0
2022-01-27-10:42:23.199832,0.0,2.0,320.0
2022-01-27-10:42:23.200828,0.0,2.0,320.0
2022-01-27-10:42:23.201826,0.0,2.0,320.0
2022-01-27-10:42:23.203824,13.0,8.0,320.0
2022-01-27-10:42:23.203824,14.0,11.0,320.0
2022-01-27-10:42:23.204817,14.0,11.0,320.0
2022-01-27-10:42:23.205820,14.0,11.0,320.0
2022-01-27-10:42:23.206813,6.0,6.0,320.0
2022-01-27-10:42:23.207788,10.0,4.0,319.0
2022-01-27-10:42:23.208763,17.0,2.0,320.0
2022-01-27-10:42:23.209783,17.0,2.0,320.0
2022-01-27-10:42:23.210804,16.0,1.0,319.0
2022-01-27-10:42:23.211803,17.0,4.0,320.0
2022-01-27-10:42:23.212796,13.0,1.0,319.0
2022-01-27-10:42:23.213793,13.0,1.0,319.0
2022-01-27-10:42:23.214791,10.0,2.0,320.0
2022-01-27-10:42:23.215788,8.0,0.0,319.0
2022-01-27-10:42:23.216787,8.0,0.0,319.0
2022-01-27-10:42:23.217783,8.0,0.0,319.0
2022-01-27-10:42:23.218780,8.0,0.0,319.0
2022-01-27-10:42:23.219781,6.0,6.0,320.0
2022-01-27-10:42:23.220775,6.0,6.0,320.0
2022-01-27-10:42:23.221772,12.0,7.0,320.0
2022-01-27-10:42:23.222770,9.0,13.0,320.0
2022-01-27-10:42:23.223767,9.0,7.0,320.0
2022-01-27-10:42:23.224764,6.0,0.0,319.0
2022-01-27-10:42:23.225707,16.0,2.0,319.0
2022-01-27-10:42:23.226759,16.0,2.0,319.0
2022-01-27-10:42:23.227760,16.0,4.0,320.0
2022-01-27-10:42:23.228746,15.0,1.0,319.0
2022-01-27-10:42:23.229744,12.0,4.0,320.0
2022-01-27-10:42:23.230741,12.0,4.0,320.0
2022-01-27-10:42:23.231737,14.0,1.0,320.0
2022-01-27-10:42:23.232734,7.0,2.0,319.0
2022-01-27-10:42:23.233737,11.0,0.0,320.0
2022-01-27-10:42:23.234729,11.0,0.0,320.0
2022-01-27-10:42:23.236730,1.0,4.0,319.0
2022-01-27-10:42:23.236730,7.0,7.0,320.0
2022-01-27-10:42:23.237726,7.0,7.0,320.0
2022-01-27-10:42:23.238718,7.0,7.0,320.0
2022-01-27-10:42:23.239715,11.0,9.0,319.0
2022-01-27-10:42:23.240713,2.0,9.0,319.0
2022-01-27-10:42:23.241830,16.0,2.0,319.0
2022-01-27-10:42:23.241830,16.0,2.0,319.0
2022-01-27-10:42:23.242878,16.0,2.0,319.0
2022-01-27-10:42:23.243875,19.0,6.0,320.0
2022-01-27-10:42:23.244908,14.0,4.0,320.0
2022-01-27-10:42:23.245275,14.0,8.0,319.0
2022-01-27-10:42:23.245275,14.0,8.0,319.0
2022-01-27-10:42:23.246324,14.0,8.0,319.0
2022-01-27-10:42:23.247319,14.0,8.0,319.0
2022-01-27-10:42:23.248316,11.0,4.0,320.0
2022-01-27-10:42:23.249314,6.0,1.0,320.0
2022-01-27-10:42:23.250644,14.0,1.0,320.0
2022-01-27-10:42:23.250644,14.0,1.0,320.0
2022-01-27-10:42:23.251675,14.0,1.0,320.0
2022-01-27-10:42:23.252738,10.0,12.0,320.0
2022-01-27-10:42:23.252738,11.0,7.0,320.0
2022-01-27-10:42:23.253785,11.0,7.0,320.0
2022-01-27-10:42:23.254783,11.0,7.0,320.0
2022-01-27-10:42:23.255732,7.0,1.0,319.0
2022-01-27-10:42:23.256755,8.0,3.0,320.0
2022-01-27-10:42:23.257764,8.0,3.0,320.0
2022-01-27-10:42:23.258744,8.0,3.0,320.0
2022-01-27-10:42:23.259749,8.0,3.0,320.0
2022-01-27-10:42:23.260765,17.0,0.0,320.0
2022-01-27-10:42:23.261764,17.0,5.0,319.0
2022-01-27-10:42:23.262759,17.0,5.0,319.0
2022-01-27-10:42:23.263762,17.0,5.0,319.0
2022-01-27-10:42:23.264756,19.0,3.0,320.0
2022-01-27-10:42:23.265752,16.0,6.0,320.0
2022-01-27-10:42:23.266749,16.0,6.0,320.0
2022-01-27-10:42:23.267700,16.0,6.0,320.0
2022-01-27-10:42:23.268697,2.0,5.0,319.0
2022-01-27-10:42:23.269722,7.0,5.0,320.0
2022-01-27-10:42:23.271690,16.0,7.0,319.0
2022-01-27-10:42:23.272687,16.0,7.0,319.0
2022-01-27-10:42:23.272687,5.0,10.0,320.0
2022-01-27-10:42:23.273685,7.0,0.0,320.0
2022-01-27-10:42:23.274682,7.0,0.0,320.0
2022-01-27-10:42:23.275679,7.0,0.0,320.0
2022-01-27-10:42:23.276676,13.0,4.0,319.0
2022-01-27-10:42:23.277673,17.0,1.0,320.0
2022-01-27-10:42:23.278671,13.0,1.0,320.0
2022-01-27-10:42:23.279668,20.0,0.0,320.0
2022-01-27-10:42:23.280665,14.0,5.0,319.0
2022-01-27-10:42:23.281662,15.0,8.0,320.0
2022-01-27-10:42:23.282660,7.0,2.0,320.0
2022-01-27-10:42:23.283657,7.0,2.0,320.0
2022-01-27-10:42:23.284655,3.0,5.0,320.0
2022-01-27-10:42:23.285929,6.0,5.0,320.0
2022-01-27-10:42:23.285929,9.0,6.0,320.0
2022-01-27-10:42:23.286964,9.0,6.0,320.0
2022-01-27-10:42:23.287982,9.0,6.0,320.0
2022-01-27-10:42:23.288979,13.0,6.0,320.0
2022-01-27-10:42:23.289979,13.0,6.0,320.0
2022-01-27-10:42:23.290973,4.0,9.0,319.0
2022-01-27-10:42:23.291942,3.0,4.0,319.0
2022-01-27-10:42:23.292947,17.0,0.0,320.0
2022-01-27-10:42:23.293945,14.0,2.0,320.0
2022-01-27-10:42:23.294942,14.0,2.0,320.0
2022-01-27-10:42:23.295905,14.0,2.0,320.0
2022-01-27-10:42:23.296939,13.0,3.0,320.0
2022-01-27-10:42:23.297934,12.0,5.0,320.0
2022-01-27-10:42:23.298935,7.0,2.0,320.0
2022-01-27-10:42:23.300071,7.0,2.0,320.0
2022-01-27-10:42:23.300071,10.0,0.0,319.0
2022-01-27-10:42:23.301103,4.0,4.0,320.0
2022-01-27-10:42:23.302275,13.0,4.0,320.0
2022-01-27-10:42:23.302275,13.0,4.0,320.0
2022-01-27-10:42:23.303308,13.0,4.0,320.0
2022-01-27-10:42:23.304305,13.0,4.0,320.0
2022-01-27-10:42:23.306323,13.0,4.0,320.0
2022-01-27-10:42:23.306323,8.0,8.0,320.0
2022-01-27-10:42:23.307319,12.0,3.0,320.0
2022-01-27-10:42:23.308286,12.0,3.0,320.0
2022-01-27-10:42:23.309260,17.0,1.0,320.0
2022-01-27-10:42:23.310308,14.0,4.0,320.0
2022-01-27-10:42:23.311300,14.0,4.0,320.0
2022-01-27-10:42:23.312251,14.0,4.0,320.0
2022-01-27-10:42:23.313297,9.0,4.0,320.0
2022-01-27-10:42:23.314292,11.0,2.0,320.0
2022-01-27-10:42:23.315291,11.0,2.0,320.0
2022-01-27-10:42:23.316445,11.0,2.0,320.0
2022-01-27-10:42:23.316445,6.0,3.0,319.0
2022-01-27-10:42:23.317499,7.0,11.0,319.0
2022-01-27-10:42:23.318496,11.0,7.0,320.0
2022-01-27-10:42:23.319493,11.0,7.0,320.0
2022-01-27-10:42:23.320437,11.0,7.0,320.0
2022-01-27-10:42:23.321488,10.0,13.0,319.0
2022-01-27-10:42:23.322479,1.0,8.0,319.0
2022-01-27-10:42:23.323428,8.0,1.0,319.0
2022-01-27-10:42:23.324426,8.0,1.0,319.0
2022-01-27-10:42:23.325423,15.0,2.0,320.0
2022-01-27-10:42:23.326421,18.0,0.0,320.0
2022-01-27-10:42:23.327452,14.0,3.0,319.0
2022-01-27-10:42:23.328430,14.0,3.0,319.0
2022-01-27-10:42:23.329412,14.0,3.0,319.0
2022-01-27-10:42:23.330427,4.0,2.0,320.0
2022-01-27-10:42:23.331422,4.0,2.0,320.0
2022-01-27-10:42:23.332404,4.0,2.0,320.0
2022-01-27-10:42:23.333435,4.0,2.0,320.0
2022-01-27-10:42:23.334433,3.0,1.0,319.0
2022-01-27-10:42:23.335430,13.0,3.0,320.0
2022-01-27-10:42:23.336427,13.0,3.0,320.0
2022-01-27-10:42:23.338388,13.0,3.0,320.0
2022-01-27-10:42:23.338388,3.0,2.0,320.0
2022-01-27-10:42:23.339417,3.0,2.0,320.0
2022-01-27-10:42:23.340419,3.0,2.0,320.0
2022-01-27-10:42:23.341616,3.0,2.0,320.0
2022-01-27-10:42:23.341616,17.0,1.0,320.0
2022-01-27-10:42:23.342647,17.0,1.0,320.0
2022-01-27-10:42:23.343645,16.0,6.0,319.0
2022-01-27-10:42:23.344643,16.0,6.0,319.0
2022-01-27-10:42:23.345843,16.0,6.0,319.0
2022-01-27-10:42:23.345843,14.0,3.0,319.0
2022-01-27-10:42:23.346874,14.0,3.0,319.0
2022-01-27-10:42:23.347994,8.0,2.0,320.0
2022-01-27-10:42:23.347994,8.0,2.0,320.0
2022-01-27-10:42:23.349029,8.0,2.0,320.0
2022-01-27-10:42:23.350045,2.0,4.0,320.0
2022-01-27-10:42:23.351042,12.0,3.0,319.0
2022-01-27-10:42:23.352039,12.0,3.0,319.0
2022-01-27-10:42:23.353041,12.0,3.0,319.0
2022-01-27-10:42:23.354027,2.0,6.0,319.0
2022-01-27-10:42:23.355026,2.0,6.0,319.0
2022-01-27-10:42:23.356026,2.0,6.0,319.0
2022-01-27-10:42:23.357018,2.0,6.0,319.0
2022-01-27-10:42:23.358016,2.0,6.0,319.0
2022-01-27-10:42:23.358966,14.0,0.0,320.0
2022-01-27-10:42:23.360106,20.0,1.0,320.0
2022-01-27-10:42:23.360106,20.0,1.0,320.0
2022-01-27-10:42:23.361160,20.0,1.0,320.0
2022-01-27-10:42:23.362159,20.0,1.0,320.0
2022-01-27-10:42:23.363155,15.0,1.0,320.0
2022-01-27-10:42:23.364152,11.0,1.0,319.0
2022-01-27-10:42:23.365149,11.0,1.0,319.0
2022-01-27-10:42:23.366149,11.0,1.0,319.0
2022-01-27-10:42:23.367146,11.0,6.0,319.0
2022-01-27-10:42:23.368145,0.0,5.0,320.0
2022-01-27-10:42:23.369139,10.0,5.0,319.0
2022-01-27-10:42:23.370559,10.0,5.0,319.0
2022-01-27-10:42:23.370559,15.0,9.0,320.0
2022-01-27-10:42:23.371842,3.0,12.0,320.0
2022-01-27-10:42:23.372841,3.0,12.0,320.0
2022-01-27-10:42:23.372841,3.0,12.0,320.0
2022-01-27-10:42:23.373871,3.0,12.0,320.0
2022-01-27-10:42:23.374868,7.0,1.0,319.0
2022-01-27-10:42:23.375975,16.0,1.0,319.0
2022-01-27-10:42:23.375975,16.0,1.0,319.0
2022-01-27-10:42:23.377026,16.0,1.0,319.0
2022-01-27-10:42:23.378185,16.0,1.0,319.0
2022-01-27-10:42:23.378185,15.0,7.0,320.0
2022-01-27-10:42:23.379217,15.0,7.0,320.0
2022-01-27-10:42:23.380339,9.0,3.0,320.0
2022-01-27-10:42:23.380339,9.0,3.0,320.0
2022-01-27-10:42:23.381386,9.0,3.0,320.0
2022-01-27-10:42:23.382557,9.0,3.0,320.0
2022-01-27-10:42:23.382557,10.0,3.0,320.0
2022-01-27-10:42:23.383590,10.0,3.0,320.0
2022-01-27-10:42:23.384585,3.0,5.0,320.0
2022-01-27-10:42:23.385582,3.0,5.0,320.0
2022-01-27-10:42:23.387367,3.0,5.0,320.0
2022-01-27-10:42:23.387367,5.0,8.0,319.0
2022-01-27-10:42:23.388518,5.0,8.0,319.0
2022-01-27-10:42:23.388518,5.0,8.0,319.0
2022-01-27-10:42:23.389564,5.0,8.0,319.0
2022-01-27-10:42:23.390562,5.0,8.0,319.0
2022-01-27-10:42:23.391561,0.0,4.0,320.0
2022-01-27-10:42:23.392562,14.0,0.0,319.0
2022-01-27-10:42:23.393553,18.0,4.0,320.0
2022-01-27-10:42:23.394550,18.0,4.0,320.0
2022-01-27-10:42:23.395552,12.0,5.0,320.0
2022-01-27-10:42:23.396547,14.0,1.0,320.0
2022-01-27-10:42:23.397542,9.0,8.0,320.0
2022-01-27-10:42:23.398708,9.0,8.0,320.0
2022-01-27-10:42:23.398708,7.0,1.0,320.0
2022-01-27-10:42:23.399741,6.0,4.0,320.0
2022-01-27-10:42:23.400705,0.0,8.0,320.0
2022-01-27-10:42:23.401738,0.0,8.0,320.0
2022-01-27-10:42:23.402754,0.0,8.0,320.0
2022-01-27-10:42:23.404753,11.0,7.0,320.0
2022-01-27-10:42:23.405724,9.0,6.0,319.0
2022-01-27-10:42:23.405724,9.0,6.0,319.0
2022-01-27-10:42:23.406926,9.0,6.0,319.0
2022-01-27-10:42:23.406926,3.0,0.0,320.0
2022-01-27-10:42:23.407926,18.0,5.0,319.0
2022-01-27-10:42:23.408924,17.0,9.0,320.0
2022-01-27-10:42:23.409954,17.0,9.0,320.0
2022-01-27-10:42:23.410972,17.0,9.0,320.0
2022-01-27-10:42:23.411969,19.0,7.0,320.0
2022-01-27-10:42:23.412966,11.0,3.0,320.0
2022-01-27-10:42:23.413956,13.0,1.0,319.0
2022-01-27-10:42:23.414961,13.0,1.0,319.0
2022-01-27-10:42:23.415953,10.0,1.0,320.0
2022-01-27-10:42:23.416901,7.0,2.0,319.0
2022-01-27-10:42:23.417901,0.0,6.0,320.0
2022-01-27-10:42:23.418922,0.0,6.0,320.0
2022-01-27-10:42:23.419940,10.0,8.0,320.0
2022-01-27-10:42:23.420917,11.0,10.0,320.0
2022-01-27-10:42:23.422021,12.0,11.0,320.0
2022-01-27-10:42:23.422021,12.0,11.0,320.0
2022-01-27-10:42:23.423070,12.0,11.0,320.0
2022-01-27-10:42:23.424067,4.0,9.0,319.0
2022-01-27-10:42:23.425061,17.0,1.0,319.0
2022-01-27-10:42:23.426061,21.0,1.0,319.0
2022-01-27-10:42:23.427010,21.0,1.0,319.0
2022-01-27-10:42:23.428054,17.0,2.0,320.0
2022-01-27-10:42:23.429052,12.0,2.0,320.0
2022-01-27-10:42:23.430048,14.0,2.0,319.0
2022-01-27-10:42:23.430999,14.0,2.0,319.0
2022-01-27-10:42:23.432042,9.0,2.0,320.0
2022-01-27-10:42:23.433042,8.0,2.0,319.0
2022-01-27-10:42:23.434037,0.0,5.0,320.0
2022-01-27-10:42:23.435038,0.0,5.0,320.0
2022-01-27-10:42:23.436032,7.0,9.0,320.0
2022-01-27-10:42:23.437031,11.0,12.0,319.0
2022-01-27-10:42:23.438978,13.0,15.0,320.0
2022-01-27-10:42:23.438978,13.0,15.0,320.0
2022-01-27-10:42:23.440046,20.0,3.0,320.0
2022-01-27-10:42:23.440046,20.0,3.0,320.0
2022-01-27-10:42:23.441100,20.0,3.0,320.0
2022-01-27-10:42:23.442051,20.0,3.0,320.0
2022-01-27-10:42:23.443077,20.0,3.0,320.0
2022-01-27-10:42:23.444071,20.0,3.0,320.0
2022-01-27-10:42:23.445123,18.0,5.0,320.0
2022-01-27-10:42:23.445123,12.0,3.0,319.0
2022-01-27-10:42:23.446155,9.0,5.0,319.0
2022-01-27-10:42:23.447146,9.0,5.0,319.0
2022-01-27-10:42:23.448205,9.0,5.0,319.0
2022-01-27-10:42:23.448652,9.0,3.0,320.0
2022-01-27-10:42:23.448785,6.0,1.0,320.0
2022-01-27-10:42:23.448785,6.0,1.0,320.0
2022-01-27-10:42:23.449810,6.0,1.0,320.0
2022-01-27-10:42:23.450807,6.0,1.0,320.0
2022-01-27-10:42:23.451806,6.0,1.0,320.0
2022-01-27-10:42:23.452801,3.0,5.0,319.0
2022-01-27-10:42:23.453807,11.0,6.0,320.0
2022-01-27-10:42:23.455042,12.0,15.0,320.0
2022-01-27-10:42:23.455042,12.0,15.0,320.0
2022-01-27-10:42:23.456076,12.0,15.0,320.0
2022-01-27-10:42:23.457115,11.0,9.0,320.0
2022-01-27-10:42:23.457545,12.0,2.0,319.0
2022-01-27-10:42:23.457685,13.0,1.0,320.0
2022-01-27-10:42:23.457685,13.0,1.0,320.0
2022-01-27-10:42:23.458723,13.0,1.0,320.0
2022-01-27-10:42:23.459881,13.0,1.0,320.0
2022-01-27-10:42:23.459881,18.0,1.0,320.0
2022-01-27-10:42:23.460913,12.0,2.0,320.0
2022-01-27-10:42:23.461910,13.0,0.0,320.0
2022-01-27-10:42:23.462970,13.0,0.0,320.0
2022-01-27-10:42:23.462970,13.0,0.0,320.0
2022-01-27-10:42:23.463970,13.0,0.0,320.0
2022-01-27-10:42:23.464994,11.0,0.0,319.0
2022-01-27-10:42:23.466092,9.0,0.0,319.0
2022-01-27-10:42:23.466092,9.0,0.0,319.0
2022-01-27-10:42:23.467127,9.0,0.0,319.0
2022-01-27-10:42:23.468123,9.0,0.0,319.0
2022-01-27-10:42:23.469121,1.0,2.0,320.0
2022-01-27-10:42:23.470118,9.0,9.0,320.0
2022-01-27-10:42:23.471115,9.0,9.0,320.0
2022-01-27-10:42:23.472112,9.0,9.0,320.0
2022-01-27-10:42:23.473109,10.0,9.0,319.0
2022-01-27-10:42:23.475111,6.0,11.0,320.0
2022-01-27-10:42:23.475111,15.0,0.0,319.0
2022-01-27-10:42:23.476329,15.0,0.0,319.0
2022-01-27-10:42:23.476329,16.0,2.0,320.0
2022-01-27-10:42:23.477361,16.0,2.0,320.0
2022-01-27-10:42:23.478360,15.0,2.0,319.0
2022-01-27-10:42:23.479418,15.0,2.0,319.0
2022-01-27-10:42:23.479418,15.0,2.0,319.0
2022-01-27-10:42:23.480465,15.0,2.0,319.0
2022-01-27-10:42:23.481462,12.0,2.0,320.0
2022-01-27-10:42:23.482459,7.0,0.0,319.0
2022-01-27-10:42:23.483559,8.0,2.0,320.0
2022-01-27-10:42:23.483559,8.0,2.0,320.0
2022-01-27-10:42:23.484613,8.0,2.0,320.0
2022-01-27-10:42:23.485610,5.0,0.0,319.0
2022-01-27-10:42:23.486608,11.0,6.0,320.0
2022-01-27-10:42:23.487932,13.0,7.0,320.0
2022-01-27-10:42:23.487932,13.0,7.0,320.0
2022-01-27-10:42:23.488963,13.0,7.0,320.0
2022-01-27-10:42:23.489965,12.0,12.0,320.0
2022-01-27-10:42:23.490957,11.0,2.0,320.0
2022-01-27-10:42:23.491958,11.0,2.0,320.0
2022-01-27-10:42:23.492952,11.0,2.0,320.0
2022-01-27-10:42:23.493951,15.0,4.0,320.0
2022-01-27-10:42:23.494949,18.0,6.0,319.0
2022-01-27-10:42:23.495944,10.0,5.0,320.0
2022-01-27-10:42:23.497107,10.0,5.0,320.0
2022-01-27-10:42:23.497107,11.0,2.0,320.0
2022-01-27-10:42:23.498144,11.0,2.0,320.0
2022-01-27-10:42:23.499246,15.0,1.0,320.0
2022-01-27-10:42:23.499246,15.0,1.0,320.0
2022-01-27-10:42:23.500292,15.0,1.0,320.0
2022-01-27-10:42:23.501474,15.0,1.0,320.0
2022-01-27-10:42:23.501474,3.0,0.0,319.0
2022-01-27-10:42:23.502509,3.0,0.0,319.0
2022-01-27-10:42:23.503503,12.0,7.0,319.0
2022-01-27-10:42:23.504503,12.0,7.0,319.0
2022-01-27-10:42:23.506495,12.0,7.0,319.0
2022-01-27-10:42:23.506495,12.0,6.0,319.0
2022-01-27-10:42:23.507461,12.0,6.0,319.0
2022-01-27-10:42:23.508490,12.0,6.0,319.0
2022-01-27-10:42:23.509512,12.0,6.0,319.0
2022-01-27-10:42:23.510490,16.0,2.0,320.0
2022-01-27-10:42:23.511504,12.0,2.0,319.0
2022-01-27-10:42:23.512502,12.0,2.0,319.0
2022-01-27-10:42:23.513500,12.0,2.0,319.0
2022-01-27-10:42:23.514496,11.0,4.0,319.0
2022-01-27-10:42:23.515493,9.0,3.0,319.0
2022-01-27-10:42:23.516492,9.0,6.0,319.0
2022-01-27-10:42:23.517489,9.0,6.0,319.0
2022-01-27-10:42:23.518489,7.0,2.0,320.0
2022-01-27-10:42:23.519475,4.0,5.0,319.0
2022-01-27-10:42:23.520472,9.0,4.0,320.0
2022-01-27-10:42:23.521469,9.0,4.0,320.0
2022-01-27-10:42:23.522466,9.0,11.0,320.0
2022-01-27-10:42:23.523464,0.0,12.0,319.0
2022-01-27-10:42:23.524462,3.0,2.0,319.0
2022-01-27-10:42:23.525440,3.0,2.0,319.0
2022-01-27-10:42:23.526461,22.0,3.0,319.0
2022-01-27-10:42:23.527454,14.0,3.0,319.0
2022-01-27-10:42:23.528452,14.0,3.0,319.0
2022-01-27-10:42:23.529557,14.0,3.0,319.0
2022-01-27-10:42:23.529557,10.0,3.0,320.0
2022-01-27-10:42:23.530603,12.0,5.0,319.0
2022-01-27-10:42:23.531694,8.0,1.0,319.0
2022-01-27-10:42:23.531694,8.0,1.0,319.0
2022-01-27-10:42:23.532740,8.0,1.0,319.0
2022-01-27-10:42:23.533738,8.0,1.0,319.0
2022-01-27-10:42:23.534897,2.0,3.0,319.0
2022-01-27-10:42:23.534897,3.0,6.0,320.0
2022-01-27-10:42:23.536025,11.0,8.0,319.0
2022-01-27-10:42:23.536025,11.0,8.0,319.0
2022-01-27-10:42:23.537071,11.0,8.0,319.0
2022-01-27-10:42:23.538070,11.0,8.0,319.0
2022-01-27-10:42:23.539343,10.0,11.0,319.0
2022-01-27-10:42:23.540389,10.0,11.0,319.0
2022-01-27-10:42:23.540389,15.0,3.0,320.0
2022-01-27-10:42:23.541388,15.0,3.0,320.0
2022-01-27-10:42:23.542363,15.0,3.0,320.0
2022-01-27-10:42:23.543381,15.0,4.0,319.0
2022-01-27-10:42:23.544382,16.0,5.0,319.0
2022-01-27-10:42:23.545375,16.0,5.0,319.0
2022-01-27-10:42:23.546326,16.0,5.0,319.0
2022-01-27-10:42:23.547381,14.0,4.0,319.0
2022-01-27-10:42:23.547806,3.0,1.0,319.0
2022-01-27-10:42:23.547937,10.0,3.0,320.0
2022-01-27-10:42:23.547937,10.0,3.0,320.0
2022-01-27-10:42:23.548937,10.0,3.0,320.0
2022-01-27-10:42:23.550139,10.0,3.0,320.0
2022-01-27-10:42:23.550139,1.0,2.0,319.0
2022-01-27-10:42:23.551185,7.0,5.0,319.0
2022-01-27-10:42:23.552255,11.0,6.0,319.0
2022-01-27-10:42:23.552255,11.0,6.0,319.0
2022-01-27-10:42:23.553287,11.0,6.0,319.0
2022-01-27-10:42:23.554283,11.0,6.0,319.0
2022-01-27-10:42:23.555283,11.0,12.0,320.0
2022-01-27-10:42:23.556280,11.0,12.0,320.0
2022-01-27-10:42:23.557275,1.0,7.0,320.0
2022-01-27-10:42:23.558242,10.0,1.0,320.0
2022-01-27-10:42:23.559270,16.0,4.0,320.0
2022-01-27-10:42:23.560270,16.0,1.0,320.0
2022-01-27-10:42:23.561264,16.0,1.0,320.0
2022-01-27-10:42:23.562264,16.0,1.0,320.0
2022-01-27-10:42:23.563262,14.0,4.0,319.0
2022-01-27-10:42:23.564259,10.0,1.0,319.0
2022-01-27-10:42:23.565254,5.0,4.0,320.0
2022-01-27-10:42:23.566253,5.0,4.0,320.0
2022-01-27-10:42:23.567251,8.0,0.0,320.0
2022-01-27-10:42:23.568249,8.0,2.0,320.0
2022-01-27-10:42:23.569243,11.0,10.0,319.0
2022-01-27-10:42:23.570254,11.0,10.0,319.0
2022-01-27-10:42:23.571240,13.0,11.0,319.0
2022-01-27-10:42:23.572235,6.0,12.0,319.0
2022-01-27-10:42:23.573235,2.0,6.0,319.0
2022-01-27-10:42:23.574206,2.0,6.0,319.0
2022-01-27-10:42:23.576232,2.0,6.0,319.0
2022-01-27-10:42:23.576232,11.0,2.0,319.0
2022-01-27-10:42:23.577223,11.0,2.0,319.0
2022-01-27-10:42:23.578221,11.0,2.0,319.0
2022-01-27-10:42:23.579219,11.0,2.0,319.0
2022-01-27-10:42:23.580216,14.0,2.0,320.0
2022-01-27-10:42:23.581213,10.0,1.0,320.0
2022-01-27-10:42:23.582214,9.0,2.0,319.0
2022-01-27-10:42:23.583206,9.0,2.0,319.0
2022-01-27-10:42:23.584206,9.0,1.0,320.0
2022-01-27-10:42:23.585201,13.0,11.0,320.0
2022-01-27-10:42:23.586198,13.0,11.0,320.0
2022-01-27-10:42:23.587197,13.0,11.0,320.0
2022-01-27-10:42:23.588193,11.0,9.0,320.0
2022-01-27-10:42:23.589159,1.0,0.0,319.0
2022-01-27-10:42:23.590192,1.0,0.0,319.0
2022-01-27-10:42:23.591168,1.0,0.0,319.0
2022-01-27-10:42:23.592150,19.0,5.0,319.0
2022-01-27-10:42:23.593199,17.0,6.0,319.0
2022-01-27-10:42:23.594194,17.0,6.0,319.0
2022-01-27-10:42:23.595188,17.0,6.0,319.0
2022-01-27-10:42:23.596372,13.0,1.0,319.0
2022-01-27-10:42:23.596372,9.0,3.0,320.0
2022-01-27-10:42:23.597524,10.0,4.0,319.0
2022-01-27-10:42:23.597524,10.0,4.0,319.0
2022-01-27-10:42:23.598570,10.0,4.0,319.0
2022-01-27-10:42:23.599568,10.0,4.0,319.0
2022-01-27-10:42:23.600564,12.0,4.0,320.0
2022-01-27-10:42:23.601561,1.0,3.0,320.0
2022-01-27-10:42:23.602559,8.0,8.0,320.0
2022-01-27-10:42:23.603558,8.0,8.0,320.0
2022-01-27-10:42:23.604533,15.0,6.0,320.0
2022-01-27-10:42:23.605551,12.0,14.0,320.0
2022-01-27-10:42:23.606548,1.0,9.0,319.0
2022-01-27-10:42:23.607888,1.0,9.0,319.0
2022-01-27-10:42:23.608888,18.0,3.0,320.0
2022-01-27-10:42:23.608888,16.0,1.0,320.0
2022-01-27-10:42:23.610051,16.0,1.0,320.0
2022-01-27-10:42:23.610051,16.0,1.0,320.0
2022-01-27-10:42:23.611084,16.0,1.0,320.0
2022-01-27-10:42:23.612083,16.0,1.0,320.0
2022-01-27-10:42:23.613084,8.0,3.0,319.0
2022-01-27-10:42:23.614076,11.0,2.0,320.0
2022-01-27-10:42:23.615073,11.0,2.0,320.0
2022-01-27-10:42:23.616070,11.0,2.0,320.0
2022-01-27-10:42:23.617071,10.0,5.0,319.0
2022-01-27-10:42:23.618066,0.0,4.0,319.0
2022-01-27-10:42:23.619064,9.0,10.0,320.0
2022-01-27-10:42:23.620060,9.0,10.0,320.0
2022-01-27-10:42:23.621057,13.0,8.0,319.0
2022-01-27-10:42:23.622055,11.0,7.0,320.0
2022-01-27-10:42:23.623052,4.0,7.0,319.0
2022-01-27-10:42:23.624049,4.0,7.0,319.0
2022-01-27-10:42:23.625050,6.0,0.0,320.0
2022-01-27-10:42:23.626011,16.0,2.0,319.0
2022-01-27-10:42:23.627033,16.0,2.0,319.0
2022-01-27-10:42:23.628030,16.0,2.0,319.0
2022-01-27-10:42:23.629070,18.0,2.0,319.0
2022-01-27-10:42:23.629458,16.0,9.0,320.0
2022-01-27-10:42:23.629594,10.0,6.0,320.0
2022-01-27-10:42:23.629594,10.0,6.0,320.0
2022-01-27-10:42:23.630621,10.0,6.0,320.0
2022-01-27-10:42:23.631617,10.0,6.0,320.0
2022-01-27-10:42:23.632614,10.0,6.0,320.0
2022-01-27-10:42:23.633613,9.0,4.0,320.0
2022-01-27-10:42:23.634609,1.0,2.0,320.0
2022-01-27-10:42:23.635580,4.0,2.0,319.0
2022-01-27-10:42:23.636577,4.0,2.0,319.0
2022-01-27-10:42:23.637575,10.0,9.0,320.0
2022-01-27-10:42:23.638693,9.0,8.0,320.0
2022-01-27-10:42:23.638693,9.0,8.0,320.0
2022-01-27-10:42:23.639726,9.0,8.0,320.0
2022-01-27-10:42:23.640722,9.0,8.0,320.0
2022-01-27-10:42:23.641721,14.0,2.0,320.0
2022-01-27-10:42:23.643067,18.0,4.0,319.0
2022-01-27-10:42:23.643067,18.0,4.0,319.0
2022-01-27-10:42:23.645065,18.0,4.0,319.0
2022-01-27-10:42:23.645065,11.0,0.0,319.0
2022-01-27-10:42:23.646093,11.0,0.0,319.0
2022-01-27-10:42:23.647095,11.0,0.0,319.0
2022-01-27-10:42:23.648057,11.0,0.0,319.0
2022-01-27-10:42:23.649085,6.0,1.0,320.0
2022-01-27-10:42:23.650085,3.0,8.0,319.0
2022-01-27-10:42:23.651080,3.0,8.0,319.0
2022-01-27-10:42:23.652077,3.0,8.0,319.0
2022-01-27-10:42:23.653079,10.0,9.0,320.0
2022-01-27-10:42:23.654072,11.0,6.0,320.0
2022-01-27-10:42:23.655069,11.0,6.0,320.0
2022-01-27-10:42:23.656067,11.0,6.0,320.0
2022-01-27-10:42:23.657122,11.0,6.0,320.0
2022-01-27-10:42:23.657552,13.0,7.0,320.0
2022-01-27-10:42:23.657552,16.0,4.0,320.0
2022-01-27-10:42:23.658584,16.0,4.0,320.0
2022-01-27-10:42:23.659605,16.0,4.0,320.0
2022-01-27-10:42:23.660602,16.0,4.0,320.0
2022-01-27-10:42:23.661578,18.0,1.0,320.0
2022-01-27-10:42:23.662798,10.0,1.0,319.0
2022-01-27-10:42:23.663069,10.0,1.0,319.0
2022-01-27-10:42:23.663069,10.0,1.0,319.0
2022-01-27-10:42:23.664115,10.0,1.0,319.0
2022-01-27-10:42:23.665112,10.0,1.0,319.0
2022-01-27-10:42:23.666110,10.0,3.0,319.0
2022-01-27-10:42:23.667108,13.0,3.0,320.0
2022-01-27-10:42:23.668058,6.0,2.0,320.0
2022-01-27-10:42:23.669107,6.0,2.0,320.0
2022-01-27-10:42:23.670100,9.0,7.0,320.0
2022-01-27-10:42:23.671101,11.0,10.0,320.0
2022-01-27-10:42:23.672095,12.0,13.0,319.0
2022-01-27-10:42:23.673151,12.0,13.0,319.0
2022-01-27-10:42:23.673151,5.0,12.0,319.0
2022-01-27-10:42:23.674150,18.0,1.0,319.0
2022-01-27-10:42:23.675181,18.0,1.0,319.0
2022-01-27-10:42:23.676146,18.0,1.0,319.0
2022-01-27-10:42:23.677142,18.0,1.0,319.0
2022-01-27-10:42:23.678140,19.0,1.0,320.0
2022-01-27-10:42:23.680135,18.0,4.0,319.0
2022-01-27-10:42:23.680135,12.0,3.0,320.0
2022-01-27-10:42:23.681132,12.0,3.0,320.0
2022-01-27-10:42:23.682129,9.0,1.0,320.0
2022-01-27-10:42:23.683127,9.0,1.0,320.0
2022-01-27-10:42:23.684124,6.0,2.0,319.0
2022-01-27-10:42:23.685121,2.0,2.0,319.0
2022-01-27-10:42:23.686304,5.0,6.0,320.0
2022-01-27-10:42:23.686304,11.0,6.0,319.0
2022-01-27-10:42:23.687338,10.0,7.0,319.0
2022-01-27-10:42:23.688334,10.0,12.0,320.0
2022-01-27-10:42:23.689334,10.0,12.0,320.0
2022-01-27-10:42:23.690329,8.0,12.0,320.0
2022-01-27-10:42:23.691293,9.0,1.0,320.0
2022-01-27-10:42:23.692291,14.0,3.0,320.0
2022-01-27-10:42:23.693288,14.0,3.0,320.0
2022-01-27-10:42:23.694318,17.0,4.0,320.0
2022-01-27-10:42:23.695309,12.0,1.0,319.0
2022-01-27-10:42:23.696311,12.0,1.0,319.0
2022-01-27-10:42:23.697277,12.0,1.0,319.0
2022-01-27-10:42:23.698300,12.0,3.0,319.0
2022-01-27-10:42:23.699297,11.0,2.0,320.0
2022-01-27-10:42:23.700294,2.0,4.0,319.0
2022-01-27-10:42:23.701287,2.0,4.0,319.0
2022-01-27-10:42:23.702289,1.0,10.0,319.0
2022-01-27-10:42:23.703287,13.0,8.0,320.0
2022-01-27-10:42:23.704283,13.0,13.0,320.0
2022-01-27-10:42:23.705283,13.0,13.0,320.0
2022-01-27-10:42:23.706448,13.0,13.0,320.0
2022-01-27-10:42:23.706448,13.0,7.0,320.0
2022-01-27-10:42:23.707481,13.0,7.0,320.0
2022-01-27-10:42:23.708479,13.0,7.0,320.0
2022-01-27-10:42:23.709662,13.0,7.0,320.0
2022-01-27-10:42:23.709662,17.0,1.0,320.0
2022-01-27-10:42:23.710687,18.0,3.0,320.0
2022-01-27-10:42:23.711691,15.0,2.0,320.0
2022-01-27-10:42:23.712682,15.0,2.0,320.0
2022-01-27-10:42:23.713654,15.0,2.0,320.0
2022-01-27-10:42:23.715648,6.0,2.0,320.0
2022-01-27-10:42:23.715648,8.0,2.0,319.0
2022-01-27-10:42:23.716670,8.0,2.0,319.0
2022-01-27-10:42:23.717670,8.0,2.0,319.0
2022-01-27-10:42:23.718664,2.0,6.0,320.0
2022-01-27-10:42:23.719780,11.0,11.0,320.0
2022-01-27-10:42:23.719780,11.0,11.0,320.0
2022-01-27-10:42:23.720835,11.0,11.0,320.0
2022-01-27-10:42:23.721811,11.0,11.0,320.0
2022-01-27-10:42:23.723048,5.0,8.0,319.0
2022-01-27-10:42:23.723048,15.0,3.0,320.0
2022-01-27-10:42:23.724073,15.0,3.0,320.0
2022-01-27-10:42:23.725077,15.0,3.0,320.0
2022-01-27-10:42:23.726043,15.0,3.0,320.0
2022-01-27-10:42:23.727094,16.0,1.0,320.0
2022-01-27-10:42:23.728091,13.0,0.0,320.0
2022-01-27-10:42:23.729071,13.0,0.0,320.0
2022-01-27-10:42:23.730032,13.0,0.0,320.0
2022-01-27-10:42:23.731064,11.0,3.0,320.0
2022-01-27-10:42:23.732083,11.0,3.0,320.0
2022-01-27-10:42:23.733078,11.0,3.0,320.0
2022-01-27-10:42:23.734065,11.0,3.0,320.0
2022-01-27-10:42:23.735132,1.0,3.0,319.0
2022-01-27-10:42:23.735604,12.0,6.0,319.0
2022-01-27-10:42:23.735604,9.0,9.0,320.0
2022-01-27-10:42:23.736649,9.0,9.0,320.0
2022-01-27-10:42:23.737655,9.0,9.0,320.0
2022-01-27-10:42:23.738657,9.0,9.0,320.0
2022-01-27-10:42:23.739642,12.0,14.0,320.0
2022-01-27-10:42:23.740639,1.0,8.0,319.0
2022-01-27-10:42:23.741640,15.0,0.0,320.0
2022-01-27-10:42:23.742588,15.0,0.0,320.0
2022-01-27-10:42:23.743633,17.0,7.0,320.0
2022-01-27-10:42:23.744628,12.0,2.0,320.0
2022-01-27-10:42:23.745626,12.0,2.0,320.0
2022-01-27-10:42:23.747574,12.0,2.0,320.0
2022-01-27-10:42:23.747574,11.0,3.0,319.0
2022-01-27-10:42:23.748597,11.0,3.0,319.0
2022-01-27-10:42:23.749669,11.0,3.0,319.0
2022-01-27-10:42:23.749669,11.0,3.0,319.0
2022-01-27-10:42:23.750899,11.0,3.0,319.0
2022-01-27-10:42:23.750899,5.0,2.0,319.0
2022-01-27-10:42:23.751925,5.0,2.0,319.0
2022-01-27-10:42:23.752920,14.0,9.0,320.0
2022-01-27-10:42:23.753917,10.0,11.0,320.0
2022-01-27-10:42:23.754925,10.0,11.0,320.0
2022-01-27-10:42:23.755919,14.0,9.0,320.0
2022-01-27-10:42:23.756919,17.0,1.0,319.0
2022-01-27-10:42:23.757883,17.0,1.0,319.0
2022-01-27-10:42:23.758880,17.0,1.0,319.0
2022-01-27-10:42:23.759904,18.0,2.0,320.0
2022-01-27-10:42:23.760905,15.0,1.0,320.0
2022-01-27-10:42:23.761896,15.0,1.0,320.0
2022-01-27-10:42:23.762869,15.0,1.0,320.0
2022-01-27-10:42:23.763891,6.0,2.0,319.0
2022-01-27-10:42:23.764890,6.0,2.0,319.0
2022-01-27-10:42:23.765885,6.0,2.0,319.0
2022-01-27-10:42:23.766859,6.0,2.0,319.0
2022-01-27-10:42:23.767882,1.0,3.0,319.0
2022-01-27-10:42:23.768976,11.0,11.0,319.0
2022-01-27-10:42:23.768976,11.0,11.0,319.0
2022-01-27-10:42:23.770007,11.0,11.0,319.0
2022-01-27-10:42:23.771008,11.0,11.0,319.0
2022-01-27-10:42:23.772003,10.0,12.0,319.0
2022-01-27-10:42:23.773000,7.0,1.0,319.0
2022-01-27-10:42:23.773997,15.0,1.0,320.0
2022-01-27-10:42:23.774995,15.0,1.0,320.0
2022-01-27-10:42:23.775994,15.0,1.0,320.0
2022-01-27-10:42:23.776988,12.0,5.0,319.0
2022-01-27-10:42:23.777986,13.0,1.0,320.0
2022-01-27-10:42:23.779992,13.0,1.0,320.0
2022-01-27-10:42:23.779992,10.0,1.0,319.0
2022-01-27-10:42:23.780978,10.0,1.0,319.0
2022-01-27-10:42:23.781976,10.0,1.0,319.0
2022-01-27-10:42:23.782973,10.0,1.0,319.0
2022-01-27-10:42:23.783972,10.0,1.0,319.0
2022-01-27-10:42:23.784967,3.0,1.0,319.0
2022-01-27-10:42:23.785964,12.0,10.0,319.0
2022-01-27-10:42:23.786963,12.0,10.0,319.0
2022-01-27-10:42:23.787960,12.0,10.0,319.0
2022-01-27-10:42:23.788957,11.0,10.0,319.0
2022-01-27-10:42:23.789954,12.0,3.0,320.0
2022-01-27-10:42:23.790952,12.0,3.0,320.0
2022-01-27-10:42:23.791952,12.0,3.0,320.0
2022-01-27-10:42:23.792947,17.0,5.0,320.0
2022-01-27-10:42:23.793943,13.0,3.0,319.0
2022-01-27-10:42:23.794941,13.0,3.0,319.0
2022-01-27-10:42:23.795938,13.0,3.0,319.0
2022-01-27-10:42:23.796935,14.0,1.0,320.0
2022-01-27-10:42:23.797936,12.0,3.0,319.0
2022-01-27-10:42:23.798930,8.0,4.0,319.0
2022-01-27-10:42:23.799930,8.0,4.0,319.0
2022-01-27-10:42:23.800924,8.0,0.0,320.0
2022-01-27-10:42:23.801931,8.0,9.0,320.0
2022-01-27-10:42:23.802920,14.0,8.0,320.0
2022-01-27-10:42:23.803918,14.0,8.0,320.0
2022-01-27-10:42:23.804914,11.0,12.0,319.0
2022-01-27-10:42:23.805911,5.0,9.0,320.0
2022-01-27-10:42:23.806908,9.0,2.0,320.0
2022-01-27-10:42:23.807910,9.0,2.0,320.0
2022-01-27-10:42:23.808905,14.0,2.0,319.0
2022-01-27-10:42:23.809893,17.0,5.0,320.0
2022-01-27-10:42:23.810891,16.0,5.0,320.0
2022-01-27-10:42:23.811895,16.0,5.0,320.0
2022-01-27-10:42:23.813882,10.0,4.0,320.0
2022-01-27-10:42:23.813882,4.0,4.0,319.0
2022-01-27-10:42:23.814879,4.0,4.0,319.0
2022-01-27-10:42:23.815879,4.0,4.0,319.0
2022-01-27-10:42:23.816873,4.0,4.0,319.0
2022-01-27-10:42:23.818137,8.0,7.0,320.0
2022-01-27-10:42:23.818137,11.0,9.0,319.0
2022-01-27-10:42:23.819191,11.0,9.0,319.0
2022-01-27-10:42:23.820135,11.0,9.0,319.0
2022-01-27-10:42:23.821186,14.0,8.0,320.0
2022-01-27-10:42:23.822183,4.0,7.0,320.0
2022-01-27-10:42:23.823279,5.0,3.0,320.0
2022-01-27-10:42:23.823279,5.0,3.0,320.0
2022-01-27-10:42:23.824300,5.0,3.0,320.0
2022-01-27-10:42:23.825329,13.0,3.0,320.0
2022-01-27-10:42:23.826273,17.0,1.0,319.0
2022-01-27-10:42:23.827324,17.0,1.0,320.0
2022-01-27-10:42:23.828496,17.0,1.0,320.0
2022-01-27-10:42:23.828496,14.0,7.0,320.0
2022-01-27-10:42:23.829550,8.0,4.0,319.0
2022-01-27-10:42:23.830602,7.0,1.0,320.0
2022-01-27-10:42:23.831123,7.0,1.0,320.0
2022-01-27-10:42:23.831123,7.0,1.0,320.0
2022-01-27-10:42:23.832177,7.0,1.0,320.0
2022-01-27-10:42:23.833174,7.0,1.0,320.0
2022-01-27-10:42:23.834172,11.0,0.0,319.0
2022-01-27-10:42:23.835173,0.0,7.0,320.0
2022-01-27-10:42:23.836171,6.0,8.0,319.0
2022-01-27-10:42:23.837166,6.0,8.0,319.0
2022-01-27-10:42:23.838161,6.0,8.0,319.0
2022-01-27-10:42:23.839161,2.0,11.0,320.0
2022-01-27-10:42:23.840259,1.0,4.0,320.0
2022-01-27-10:42:23.840259,1.0,4.0,320.0
2022-01-27-10:42:23.841290,1.0,4.0,320.0
2022-01-27-10:42:23.842288,13.0,3.0,319.0
2022-01-27-10:42:23.843288,12.0,2.0,320.0
2022-01-27-10:42:23.844283,12.0,2.0,320.0
2022-01-27-10:42:23.845282,12.0,2.0,320.0
2022-01-27-10:42:23.846279,6.0,3.0,320.0
2022-01-27-10:42:23.848274,6.0,3.0,320.0
2022-01-27-10:42:23.848274,6.0,3.0,320.0
2022-01-27-10:42:23.849270,6.0,3.0,320.0
2022-01-27-10:42:23.850266,4.0,3.0,320.0
2022-01-27-10:42:23.851266,6.0,7.0,319.0
2022-01-27-10:42:23.852261,6.0,7.0,319.0
2022-01-27-10:42:23.853262,6.0,7.0,319.0
2022-01-27-10:42:23.854223,13.0,9.0,320.0
2022-01-27-10:42:23.855255,2.0,10.0,320.0
2022-01-27-10:42:23.856254,2.0,10.0,320.0
2022-01-27-10:42:23.857215,2.0,10.0,320.0
2022-01-27-10:42:23.858464,7.0,2.0,319.0
2022-01-27-10:42:23.858464,13.0,1.0,320.0
2022-01-27-10:42:23.859464,13.0,1.0,320.0
2022-01-27-10:42:23.860517,12.0,3.0,320.0
2022-01-27-10:42:23.861513,12.0,3.0,320.0
2022-01-27-10:42:23.862554,16.0,3.0,319.0
2022-01-27-10:42:23.863226,16.0,3.0,319.0
2022-01-27-10:42:23.863656,14.0,1.0,320.0
2022-01-27-10:42:23.863656,14.0,1.0,320.0
2022-01-27-10:42:23.864700,14.0,1.0,320.0
2022-01-27-10:42:23.865754,14.0,1.0,320.0
2022-01-27-10:42:23.866752,11.0,5.0,320.0
2022-01-27-10:42:23.867749,4.0,3.0,320.0
2022-01-27-10:42:23.868785,4.0,5.0,319.0
2022-01-27-10:42:23.869091,4.0,5.0,319.0
2022-01-27-10:42:23.869091,4.0,5.0,319.0
2022-01-27-10:42:23.870147,4.0,5.0,319.0
2022-01-27-10:42:23.871142,11.0,9.0,320.0
2022-01-27-10:42:23.872344,12.0,12.0,320.0
2022-01-27-10:42:23.872495,9.0,9.0,319.0
2022-01-27-10:42:23.872495,9.0,9.0,319.0
2022-01-27-10:42:23.873541,9.0,9.0,319.0
2022-01-27-10:42:23.874538,1.0,4.0,319.0
2022-01-27-10:42:23.875535,2.0,3.0,320.0
2022-01-27-10:42:23.876534,1.0,2.0,320.0
2022-01-27-10:42:23.877677,1.0,2.0,320.0
2022-01-27-10:42:23.877677,3.0,5.0,320.0
2022-01-27-10:42:23.878736,12.0,3.0,319.0
2022-01-27-10:42:23.879729,13.0,2.0,319.0
2022-01-27-10:42:23.880731,13.0,2.0,319.0
2022-01-27-10:42:23.881669,13.0,2.0,319.0
2022-01-27-10:42:23.883717,25.0,0.0,320.0
2022-01-27-10:42:23.883717,18.0,3.0,319.0
2022-01-27-10:42:23.884715,18.0,3.0,319.0
2022-01-27-10:42:23.885658,18.0,3.0,319.0
2022-01-27-10:42:23.886715,9.0,5.0,320.0
2022-01-27-10:42:23.887708,4.0,13.0,320.0
2022-01-27-10:42:23.888708,7.0,9.0,320.0
2022-01-27-10:42:23.889703,7.0,9.0,320.0
2022-01-27-10:42:23.890700,5.0,6.0,319.0
2022-01-27-10:42:23.891690,6.0,3.0,319.0
2022-01-27-10:42:23.892641,12.0,3.0,320.0
2022-01-27-10:42:23.893685,12.0,3.0,320.0
2022-01-27-10:42:23.894685,12.0,3.0,320.0
2022-01-27-10:42:23.895680,10.0,3.0,319.0
2022-01-27-10:42:23.896679,4.0,4.0,319.0
2022-01-27-10:42:23.897674,4.0,4.0,319.0
2022-01-27-10:42:23.898671,4.0,4.0,319.0
2022-01-27-10:42:23.899669,8.0,8.0,320.0
2022-01-27-10:42:23.900666,8.0,8.0,320.0
2022-01-27-10:42:23.901642,8.0,8.0,320.0
2022-01-27-10:42:23.902664,8.0,8.0,320.0
2022-01-27-10:42:23.903657,4.0,7.0,320.0
2022-01-27-10:42:23.904692,4.0,12.0,320.0
2022-01-27-10:42:23.904692,14.0,6.0,320.0
2022-01-27-10:42:23.905723,14.0,6.0,320.0
2022-01-27-10:42:23.906723,14.0,6.0,320.0
2022-01-27-10:42:23.907718,4.0,8.0,319.0
2022-01-27-10:42:23.908960,17.0,2.0,319.0
2022-01-27-10:42:23.908960,17.0,2.0,320.0
2022-01-27-10:42:23.910015,17.0,2.0,320.0
2022-01-27-10:42:23.911012,17.0,2.0,320.0
2022-01-27-10:42:23.912008,13.0,4.0,319.0
2022-01-27-10:42:23.912999,10.0,2.0,320.0
2022-01-27-10:42:23.913997,10.0,2.0,320.0
2022-01-27-10:42:23.915991,10.0,2.0,320.0
2022-01-27-10:42:23.915991,7.0,1.0,319.0
2022-01-27-10:42:23.916943,4.0,5.0,320.0
2022-01-27-10:42:23.917938,4.0,5.0,320.0
2022-01-27-10:42:23.918965,4.0,5.0,320.0
2022-01-27-10:42:23.919933,8.0,9.0,319.0
2022-01-27-10:42:23.920978,11.0,9.0,319.0
2022-01-27-10:42:23.921975,10.0,13.0,320.0
2022-01-27-10:42:23.922973,10.0,13.0,320.0
2022-01-27-10:42:23.923970,5.0,12.0,319.0
2022-01-27-10:42:23.924967,17.0,3.0,320.0
2022-01-27-10:42:23.925923,14.0,3.0,320.0
2022-01-27-10:42:23.926941,14.0,3.0,320.0
2022-01-27-10:42:23.927938,10.0,5.0,319.0
2022-01-27-10:42:23.928934,7.0,6.0,320.0
2022-01-27-10:42:23.929932,5.0,4.0,319.0
2022-01-27-10:42:23.930929,5.0,4.0,319.0
