2022-01-24-12:00:00.118798,4.0,12.0,407.0
2022-01-24-12:00:00.119763,1.0,1.0,407.0
2022-01-24-12:00:00.120761,0.0,4.0,407.0
2022-01-24-12:00:00.120761,3.0,2.0,407.0
2022-01-24-12:00:00.121757,2.0,2.0,407.0
2022-01-24-12:00:00.122791,6.0,2.0,407.0
2022-01-24-12:00:00.123785,14.0,11.0,407.0
2022-01-24-12:00:00.126744,3.0,9.0,407.0
2022-01-24-12:00:00.126744,1.0,7.0,407.0
2022-01-24-12:00:00.127777,1.0,8.0,407.0
2022-01-24-12:00:00.128774,18.0,15.0,407.0
2022-01-24-12:00:00.129770,2.0,7.0,406.0
2022-01-24-12:00:00.130769,1.0,6.0,407.0
2022-01-24-12:00:00.131765,6.0,13.0,407.0
2022-01-24-12:00:00.132763,16.0,12.0,407.0
2022-01-24-12:00:00.133761,1.0,13.0,407.0
2022-01-24-12:00:00.134723,1.0,6.0,407.0
2022-01-24-12:00:00.135719,5.0,2.0,407.0
2022-01-24-12:00:00.135719,4.0,11.0,407.0
2022-01-24-12:00:00.139758,16.0,5.0,407.0
2022-01-24-12:00:00.139758,16.0,5.0,407.0
2022-01-24-12:00:00.140769,16.0,5.0,407.0
2022-01-24-12:00:00.141782,16.0,5.0,407.0
2022-01-24-12:00:00.142777,16.0,5.0,407.0
2022-01-24-12:00:00.143773,15.0,9.0,407.0
2022-01-24-12:00:00.144770,10.0,5.0,407.0
2022-01-24-12:00:00.145767,2.0,6.0,407.0
2022-01-24-12:00:00.146766,1.0,2.0,407.0
2022-01-24-12:00:00.147765,1.0,4.0,407.0
2022-01-24-12:00:00.148761,16.0,6.0,407.0
2022-01-24-12:00:00.149722,5.0,15.0,407.0
2022-01-24-12:00:00.150719,8.0,11.0,407.0
2022-01-24-12:00:00.151755,5.0,7.0,407.0
2022-01-24-12:00:00.152748,6.0,11.0,407.0
2022-01-24-12:00:00.153744,20.0,13.0,407.0
2022-01-24-12:00:00.154742,3.0,8.0,407.0
2022-01-24-12:00:00.155739,1.0,6.0,407.0
2022-01-24-12:00:00.156790,4.0,15.0,407.0
2022-01-24-12:00:00.158786,13.0,5.0,407.0
2022-01-24-12:00:00.158786,3.0,6.0,407.0
2022-01-24-12:00:00.159818,1.0,26.0,407.0
2022-01-24-12:00:00.160815,5.0,20.0,407.0
2022-01-24-12:00:00.161812,12.0,16.0,407.0
2022-01-24-12:00:00.162812,9.0,11.0,406.0
2022-01-24-12:00:00.163811,4.0,15.0,407.0
2022-01-24-12:00:00.164804,3.0,1.0,407.0
2022-01-24-12:00:00.165804,5.0,9.0,407.0
2022-01-24-12:00:00.166799,16.0,0.0,407.0
2022-01-24-12:00:00.167763,7.0,0.0,406.0
2022-01-24-12:00:00.169069,1.0,19.0,406.0
2022-01-24-12:00:00.169069,1.0,5.0,406.0
2022-01-24-12:00:00.169783,8.0,7.0,406.0
2022-01-24-12:00:00.170783,0.0,16.0,407.0
2022-01-24-12:00:00.171779,3.0,7.0,406.0
2022-01-24-12:00:00.172776,16.0,5.0,406.0
2022-01-24-12:00:00.173773,2.0,11.0,406.0
2022-01-24-12:00:00.174770,6.0,11.0,407.0
2022-01-24-12:00:00.175768,3.0,7.0,407.0
2022-01-24-12:00:00.176766,2.0,10.0,406.0
2022-01-24-12:00:00.177770,10.0,5.0,407.0
2022-01-24-12:00:00.178764,8.0,16.0,407.0
2022-01-24-12:00:00.179757,4.0,12.0,406.0
2022-01-24-12:00:00.180755,5.0,8.0,407.0
2022-01-24-12:00:00.181753,17.0,9.0,406.0
2022-01-24-12:00:00.182749,9.0,2.0,407.0
2022-01-24-12:00:00.183746,6.0,18.0,407.0
2022-01-24-12:00:00.184749,3.0,3.0,407.0
2022-01-24-12:00:00.185741,10.0,4.0,406.0
2022-01-24-12:00:00.186740,7.0,7.0,406.0
2022-01-24-12:00:00.187736,1.0,8.0,406.0
2022-01-24-12:00:00.188737,2.0,4.0,406.0
2022-01-24-12:00:00.189731,10.0,5.0,407.0
2022-01-24-12:00:00.190729,4.0,14.0,407.0
2022-01-24-12:00:00.192744,2.0,9.0,407.0
2022-01-24-12:00:00.192744,4.0,3.0,407.0
2022-01-24-12:00:00.193719,6.0,10.0,406.0
2022-01-24-12:00:00.194719,11.0,8.0,407.0
2022-01-24-12:00:00.195715,2.0,10.0,406.0
2022-01-24-12:00:00.196685,2.0,10.0,406.0
2022-01-24-12:00:00.197710,5.0,9.0,407.0
2022-01-24-12:00:00.198706,9.0,0.0,406.0
2022-01-24-12:00:00.199677,16.0,17.0,407.0
2022-01-24-12:00:00.200675,5.0,8.0,407.0
2022-01-24-12:00:00.201720,4.0,13.0,406.0
2022-01-24-12:00:00.202670,4.0,0.0,406.0
2022-01-24-12:00:00.203666,1.0,7.0,406.0
2022-01-24-12:00:00.204690,11.0,9.0,407.0
2022-01-24-12:00:00.205688,6.0,4.0,407.0
2022-01-24-12:00:00.206683,3.0,1.0,407.0
2022-01-24-12:00:00.208662,3.0,8.0,406.0
2022-01-24-12:00:00.208662,7.0,16.0,407.0
2022-01-24-12:00:00.209676,2.0,7.0,407.0
2022-01-24-12:00:00.210673,6.0,10.0,407.0
2022-01-24-12:00:00.211671,18.0,12.0,406.0
2022-01-24-12:00:00.212669,6.0,18.0,407.0
2022-01-24-12:00:00.213667,2.0,7.0,407.0
2022-01-24-12:00:00.214664,2.0,1.0,407.0
2022-01-24-12:00:00.215661,14.0,10.0,406.0
2022-01-24-12:00:00.216659,10.0,6.0,407.0
2022-01-24-12:00:00.217677,4.0,24.0,407.0
2022-01-24-12:00:00.217677,1.0,10.0,407.0
2022-01-24-12:00:00.218711,8.0,8.0,406.0
2022-01-24-12:00:00.219708,16.0,1.0,406.0
2022-01-24-12:00:00.220758,3.0,12.0,407.0
2022-01-24-12:00:00.220758,3.0,12.0,406.0
2022-01-24-12:00:00.221784,2.0,16.0,406.0
2022-01-24-12:00:00.222780,17.0,10.0,406.0
2022-01-24-12:00:00.223779,8.0,9.0,407.0
2022-01-24-12:00:00.224776,0.0,13.0,406.0
2022-01-24-12:00:00.225776,1.0,4.0,406.0
2022-01-24-12:00:00.227766,9.0,6.0,406.0
2022-01-24-12:00:00.227766,8.0,2.0,407.0
2022-01-24-12:00:00.228763,9.0,6.0,407.0
2022-01-24-12:00:00.229761,2.0,15.0,407.0
2022-01-24-12:00:00.230758,1.0,19.0,407.0
2022-01-24-12:00:00.231757,10.0,3.0,407.0
2022-01-24-12:00:00.232754,11.0,20.0,407.0
2022-01-24-12:00:00.233752,11.0,20.0,407.0
2022-01-24-12:00:00.234750,11.0,20.0,407.0
2022-01-24-12:00:00.235845,11.0,20.0,407.0
2022-01-24-12:00:00.235845,1.0,10.0,407.0
2022-01-24-12:00:00.236878,1.0,9.0,407.0
2022-01-24-12:00:00.237877,1.0,9.0,407.0
2022-01-24-12:00:00.238872,1.0,9.0,407.0
2022-01-24-12:00:00.239872,1.0,9.0,407.0
2022-01-24-12:00:00.240868,1.0,16.0,407.0
2022-01-24-12:00:00.241865,1.0,13.0,406.0
2022-01-24-12:00:00.242864,4.0,1.0,407.0
2022-01-24-12:00:00.243825,4.0,1.0,407.0
2022-01-24-12:00:00.245013,7.0,5.0,407.0
2022-01-24-12:00:00.245013,7.0,5.0,407.0
2022-01-24-12:00:00.246013,7.0,5.0,407.0
2022-01-24-12:00:00.247044,7.0,5.0,407.0
2022-01-24-12:00:00.248032,7.0,5.0,407.0
2022-01-24-12:00:00.249029,13.0,16.0,407.0
2022-01-24-12:00:00.250033,11.0,17.0,407.0
2022-01-24-12:00:00.250999,11.0,17.0,407.0
2022-01-24-12:00:00.252022,11.0,17.0,407.0
2022-01-24-12:00:00.253019,4.0,3.0,407.0
2022-01-24-12:00:00.254016,0.0,1.0,406.0
2022-01-24-12:00:00.255014,0.0,1.0,406.0
2022-01-24-12:00:00.256012,0.0,1.0,406.0
2022-01-24-12:00:00.257008,1.0,9.0,406.0
2022-01-24-12:00:00.258007,6.0,4.0,407.0
2022-01-24-12:00:00.260001,6.0,4.0,407.0
2022-01-24-12:00:00.260001,6.0,4.0,407.0
2022-01-24-12:00:00.260997,6.0,5.0,407.0
2022-01-24-12:00:00.261995,6.0,5.0,407.0
2022-01-24-12:00:00.262993,6.0,5.0,407.0
2022-01-24-12:00:00.263990,6.0,5.0,407.0
2022-01-24-12:00:00.264987,17.0,6.0,407.0
2022-01-24-12:00:00.265986,7.0,9.0,407.0
2022-01-24-12:00:00.266981,7.0,9.0,407.0
2022-01-24-12:00:00.267981,7.0,9.0,407.0
2022-01-24-12:00:00.268977,3.0,5.0,407.0
2022-01-24-12:00:00.269974,4.0,4.0,407.0
2022-01-24-12:00:00.270971,4.0,4.0,407.0
2022-01-24-12:00:00.271970,4.0,4.0,407.0
2022-01-24-12:00:00.272966,1.0,9.0,406.0
2022-01-24-12:00:00.273965,4.0,2.0,406.0
2022-01-24-12:00:00.275103,4.0,2.0,406.0
2022-01-24-12:00:00.275103,4.0,2.0,406.0
2022-01-24-12:00:00.276137,4.0,2.0,406.0
2022-01-24-12:00:00.277132,3.0,7.0,407.0
2022-01-24-12:00:00.278131,3.0,7.0,407.0
2022-01-24-12:00:00.279129,3.0,12.0,407.0
2022-01-24-12:00:00.280138,7.0,4.0,406.0
2022-01-24-12:00:00.281121,14.0,10.0,407.0
2022-01-24-12:00:00.282121,11.0,12.0,407.0
2022-01-24-12:00:00.283117,9.0,11.0,406.0
2022-01-24-12:00:00.284117,9.0,11.0,406.0
2022-01-24-12:00:00.285079,4.0,11.0,406.0
2022-01-24-12:00:00.286108,3.0,6.0,407.0
2022-01-24-12:00:00.287108,3.0,6.0,407.0
2022-01-24-12:00:00.288103,3.0,6.0,407.0
2022-01-24-12:00:00.289100,3.0,6.0,407.0
2022-01-24-12:00:00.290099,3.0,8.0,407.0
2022-01-24-12:00:00.291095,1.0,4.0,407.0
2022-01-24-12:00:00.292098,4.0,1.0,406.0
2022-01-24-12:00:00.293089,4.0,1.0,406.0
2022-01-24-12:00:00.295086,7.0,14.0,407.0
2022-01-24-12:00:00.295086,7.0,14.0,407.0
2022-01-24-12:00:00.296081,6.0,7.0,407.0
2022-01-24-12:00:00.297078,6.0,7.0,407.0
2022-01-24-12:00:00.298078,11.0,2.0,406.0
2022-01-24-12:00:00.299073,16.0,12.0,407.0
2022-01-24-12:00:00.300073,8.0,15.0,407.0
2022-01-24-12:00:00.301068,8.0,15.0,407.0
2022-01-24-12:00:00.302068,10.0,12.0,407.0
2022-01-24-12:00:00.303070,5.0,11.0,406.0
2022-01-24-12:00:00.304061,0.0,15.0,407.0
2022-01-24-12:00:00.305025,0.0,15.0,407.0
2022-01-24-12:00:00.305532,1.0,15.0,406.0
2022-01-24-12:00:00.306528,2.0,10.0,407.0
2022-01-24-12:00:00.307525,3.0,2.0,407.0
2022-01-24-12:00:00.308555,3.0,2.0,407.0
2022-01-24-12:00:00.309555,2.0,7.0,407.0
2022-01-24-12:00:00.310549,9.0,5.0,407.0
2022-01-24-12:00:00.311550,9.0,5.0,407.0
2022-01-24-12:00:00.312544,9.0,5.0,407.0
2022-01-24-12:00:00.313542,9.0,5.0,407.0
2022-01-24-12:00:00.314541,8.0,0.0,406.0
2022-01-24-12:00:00.315536,15.0,13.0,407.0
2022-01-24-12:00:00.316535,11.0,9.0,407.0
2022-01-24-12:00:00.317534,11.0,9.0,407.0
2022-01-24-12:00:00.318497,0.0,3.0,407.0
2022-01-24-12:00:00.319528,0.0,3.0,407.0
2022-01-24-12:00:00.320523,0.0,3.0,407.0
2022-01-24-12:00:00.321520,0.0,3.0,407.0
2022-01-24-12:00:00.322521,1.0,2.0,406.0
2022-01-24-12:00:00.323515,2.0,4.0,407.0
2022-01-24-12:00:00.324512,2.0,4.0,407.0
2022-01-24-12:00:00.325510,2.0,4.0,407.0
2022-01-24-12:00:00.326507,6.0,4.0,407.0
2022-01-24-12:00:00.327506,3.0,4.0,407.0
2022-01-24-12:00:00.328501,3.0,4.0,407.0
2022-01-24-12:00:00.330490,3.0,4.0,407.0
2022-01-24-12:00:00.330490,5.0,1.0,406.0
2022-01-24-12:00:00.331493,14.0,15.0,407.0
2022-01-24-12:00:00.332483,14.0,15.0,407.0
2022-01-24-12:00:00.333487,14.0,15.0,407.0
2022-01-24-12:00:00.334478,9.0,13.0,407.0
2022-01-24-12:00:00.335477,5.0,2.0,406.0
2022-01-24-12:00:00.336472,3.0,4.0,406.0
2022-01-24-12:00:00.337482,3.0,4.0,406.0
2022-01-24-12:00:00.338469,3.0,1.0,407.0
2022-01-24-12:00:00.339464,1.0,11.0,406.0
2022-01-24-12:00:00.340461,1.0,8.0,406.0
2022-01-24-12:00:00.341461,1.0,8.0,406.0
2022-01-24-12:00:00.342457,1.0,8.0,406.0
2022-01-24-12:00:00.343456,2.0,7.0,407.0
2022-01-24-12:00:00.344451,4.0,9.0,407.0
2022-01-24-12:00:00.345448,4.0,9.0,407.0
2022-01-24-12:00:00.346447,5.0,8.0,407.0
2022-01-24-12:00:00.347445,10.0,4.0,407.0
2022-01-24-12:00:00.348440,15.0,5.0,407.0
2022-01-24-12:00:00.349440,15.0,5.0,407.0
2022-01-24-12:00:00.350435,15.0,5.0,407.0
2022-01-24-12:00:00.351436,12.0,6.0,407.0
2022-01-24-12:00:00.352406,6.0,15.0,407.0
2022-01-24-12:00:00.353426,6.0,15.0,407.0
2022-01-24-12:00:00.354427,6.0,15.0,407.0
2022-01-24-12:00:00.355421,5.0,16.0,406.0
2022-01-24-12:00:00.356419,3.0,23.0,407.0
2022-01-24-12:00:00.357419,2.0,18.0,407.0
2022-01-24-12:00:00.358413,2.0,18.0,407.0
2022-01-24-12:00:00.359413,1.0,12.0,406.0
2022-01-24-12:00:00.361405,5.0,13.0,407.0
2022-01-24-12:00:00.361405,5.0,13.0,407.0
2022-01-24-12:00:00.362405,5.0,13.0,407.0
2022-01-24-12:00:00.363400,3.0,10.0,407.0
2022-01-24-12:00:00.364403,13.0,5.0,406.0
2022-01-24-12:00:00.365398,13.0,10.0,407.0
2022-01-24-12:00:00.366391,13.0,10.0,407.0
2022-01-24-12:00:00.367392,12.0,10.0,407.0
2022-01-24-12:00:00.368388,3.0,5.0,407.0
2022-01-24-12:00:00.369360,3.0,5.0,407.0
2022-01-24-12:00:00.370383,3.0,5.0,407.0
2022-01-24-12:00:00.371380,3.0,9.0,407.0
2022-01-24-12:00:00.372376,3.0,9.0,407.0
2022-01-24-12:00:00.373376,1.0,4.0,407.0
2022-01-24-12:00:00.374379,1.0,4.0,407.0
2022-01-24-12:00:00.375377,0.0,0.0,407.0
2022-01-24-12:00:00.376365,2.0,8.0,407.0
2022-01-24-12:00:00.377362,1.0,12.0,407.0
2022-01-24-12:00:00.378363,1.0,12.0,407.0
2022-01-24-12:00:00.379358,7.0,1.0,407.0
2022-01-24-12:00:00.380356,18.0,17.0,407.0
2022-01-24-12:00:00.381355,18.0,17.0,407.0
2022-01-24-12:00:00.382436,18.0,17.0,407.0
2022-01-24-12:00:00.382436,16.0,15.0,407.0
2022-01-24-12:00:00.383469,4.0,15.0,407.0
2022-01-24-12:00:00.384433,6.0,8.0,407.0
2022-01-24-12:00:00.385463,6.0,8.0,407.0
2022-01-24-12:00:00.386462,6.0,8.0,407.0
2022-01-24-12:00:00.387461,6.0,8.0,407.0
2022-01-24-12:00:00.388512,1.0,4.0,407.0
2022-01-24-12:00:00.388827,2.0,1.0,407.0
2022-01-24-12:00:00.388827,2.0,1.0,407.0
2022-01-24-12:00:00.389853,2.0,1.0,407.0
2022-01-24-12:00:00.390850,2.0,1.0,407.0
2022-01-24-12:00:00.391853,0.0,2.0,408.0
2022-01-24-12:00:00.392845,0.0,2.0,408.0
2022-01-24-12:00:00.394184,5.0,16.0,407.0
2022-01-24-12:00:00.395183,5.0,10.0,407.0
2022-01-24-12:00:00.395183,2.0,4.0,408.0
2022-01-24-12:00:00.396238,7.0,7.0,408.0
2022-01-24-12:00:00.397235,18.0,18.0,407.0
2022-01-24-12:00:00.398230,18.0,18.0,407.0
2022-01-24-12:00:00.399205,18.0,18.0,407.0
2022-01-24-12:00:00.400205,11.0,20.0,408.0
2022-01-24-12:00:00.401197,7.0,16.0,407.0
2022-01-24-12:00:00.402199,7.0,15.0,408.0
2022-01-24-12:00:00.403162,7.0,15.0,408.0
2022-01-24-12:00:00.404219,3.0,18.0,408.0
2022-01-24-12:00:00.405213,3.0,9.0,408.0
2022-01-24-12:00:00.406299,0.0,7.0,408.0
2022-01-24-12:00:00.406299,0.0,7.0,408.0
2022-01-24-12:00:00.407345,0.0,7.0,408.0
2022-01-24-12:00:00.408660,0.0,3.0,408.0
2022-01-24-12:00:00.408660,0.0,3.0,408.0
2022-01-24-12:00:00.409717,3.0,6.0,407.0
2022-01-24-12:00:00.410712,5.0,6.0,408.0
2022-01-24-12:00:00.411709,5.0,6.0,408.0
2022-01-24-12:00:00.412707,4.0,5.0,408.0
2022-01-24-12:00:00.413705,8.0,4.0,408.0
2022-01-24-12:00:00.414701,17.0,7.0,407.0
2022-01-24-12:00:00.415702,17.0,7.0,407.0
2022-01-24-12:00:00.416696,15.0,10.0,408.0
2022-01-24-12:00:00.417666,9.0,9.0,408.0
2022-01-24-12:00:00.418683,6.0,0.0,408.0
2022-01-24-12:00:00.419688,6.0,0.0,408.0
2022-01-24-12:00:00.420678,6.0,5.0,408.0
2022-01-24-12:00:00.421676,1.0,4.0,408.0
2022-01-24-12:00:00.422675,1.0,8.0,408.0
2022-01-24-12:00:00.423622,1.0,8.0,408.0
2022-01-24-12:00:00.424667,0.0,11.0,408.0
2022-01-24-12:00:00.425667,5.0,1.0,407.0
2022-01-24-12:00:00.426662,5.0,1.0,407.0
2022-01-24-12:00:00.428656,1.0,4.0,408.0
2022-01-24-12:00:00.428656,4.0,6.0,407.0
2022-01-24-12:00:00.429904,6.0,4.0,407.0
2022-01-24-12:00:00.429904,12.0,19.0,408.0
2022-01-24-12:00:00.430958,12.0,19.0,408.0
2022-01-24-12:00:00.432109,12.0,19.0,408.0
2022-01-24-12:00:00.432109,13.0,17.0,407.0
2022-01-24-12:00:00.433155,8.0,12.0,407.0
2022-01-24-12:00:00.434161,4.0,10.0,407.0
2022-01-24-12:00:00.435139,4.0,10.0,407.0
2022-01-24-12:00:00.436148,4.0,10.0,407.0
2022-01-24-12:00:00.437147,6.0,13.0,408.0
2022-01-24-12:00:00.438148,3.0,4.0,407.0
2022-01-24-12:00:00.439145,0.0,2.0,407.0
2022-01-24-12:00:00.440137,0.0,2.0,407.0
2022-01-24-12:00:00.441135,2.0,0.0,407.0
2022-01-24-12:00:00.442131,6.0,13.0,408.0
2022-01-24-12:00:00.443130,3.0,12.0,408.0
2022-01-24-12:00:00.444079,3.0,12.0,408.0
2022-01-24-12:00:00.445124,7.0,7.0,407.0
2022-01-24-12:00:00.446206,11.0,5.0,408.0
2022-01-24-12:00:00.446206,11.0,5.0,408.0
2022-01-24-12:00:00.447234,11.0,5.0,408.0
2022-01-24-12:00:00.448372,11.0,5.0,408.0
2022-01-24-12:00:00.448372,16.0,8.0,408.0
2022-01-24-12:00:00.449398,11.0,8.0,408.0
2022-01-24-12:00:00.450399,6.0,8.0,408.0
2022-01-24-12:00:00.451395,6.0,8.0,408.0
2022-01-24-12:00:00.452390,6.0,8.0,408.0
2022-01-24-12:00:00.453387,4.0,6.0,407.0
2022-01-24-12:00:00.454384,2.0,11.0,407.0
2022-01-24-12:00:00.455384,1.0,11.0,408.0
2022-01-24-12:00:00.456353,1.0,11.0,408.0
2022-01-24-12:00:00.457377,2.0,14.0,408.0
2022-01-24-12:00:00.458373,4.0,4.0,408.0
2022-01-24-12:00:00.459370,3.0,5.0,408.0
2022-01-24-12:00:00.460380,3.0,5.0,408.0
2022-01-24-12:00:00.460380,2.0,5.0,407.0
2022-01-24-12:00:00.461404,13.0,0.0,408.0
2022-01-24-12:00:00.463449,13.0,0.0,408.0
2022-01-24-12:00:00.463449,13.0,0.0,408.0
2022-01-24-12:00:00.464417,13.0,0.0,408.0
2022-01-24-12:00:00.465444,14.0,6.0,408.0
2022-01-24-12:00:00.466443,13.0,9.0,408.0
2022-01-24-12:00:00.467438,7.0,5.0,407.0
2022-01-24-12:00:00.468408,7.0,5.0,407.0
2022-01-24-12:00:00.469433,9.0,5.0,407.0
2022-01-24-12:00:00.470436,2.0,10.0,407.0
2022-01-24-12:00:00.471433,2.0,9.0,408.0
2022-01-24-12:00:00.472424,2.0,9.0,408.0
2022-01-24-12:00:00.473422,2.0,9.0,408.0
2022-01-24-12:00:00.474419,2.0,10.0,407.0
2022-01-24-12:00:00.475417,3.0,7.0,407.0
2022-01-24-12:00:00.476414,3.0,7.0,407.0
2022-01-24-12:00:00.477619,3.0,8.0,408.0
2022-01-24-12:00:00.478075,7.0,10.0,408.0
2022-01-24-12:00:00.478075,7.0,10.0,408.0
2022-01-24-12:00:00.479108,7.0,10.0,408.0
2022-01-24-12:00:00.480172,7.0,10.0,408.0
2022-01-24-12:00:00.480172,7.0,10.0,408.0
2022-01-24-12:00:00.481367,7.0,10.0,408.0
2022-01-24-12:00:00.481367,13.0,1.0,408.0
2022-01-24-12:00:00.482415,16.0,18.0,408.0
2022-01-24-12:00:00.483411,12.0,19.0,408.0
2022-01-24-12:00:00.484387,12.0,19.0,408.0
2022-01-24-12:00:00.485413,12.0,19.0,408.0
2022-01-24-12:00:00.486403,7.0,19.0,407.0
2022-01-24-12:00:00.487400,6.0,4.0,408.0
2022-01-24-12:00:00.488398,6.0,4.0,408.0
2022-01-24-12:00:00.489396,6.0,4.0,408.0
2022-01-24-12:00:00.490392,3.0,7.0,407.0
2022-01-24-12:00:00.491391,0.0,10.0,407.0
2022-01-24-12:00:00.492392,1.0,6.0,408.0
2022-01-24-12:00:00.493385,1.0,6.0,408.0
2022-01-24-12:00:00.494382,6.0,7.0,407.0
2022-01-24-12:00:00.495379,12.0,14.0,407.0
2022-01-24-12:00:00.497326,12.0,14.0,407.0
2022-01-24-12:00:00.497326,16.0,21.0,407.0
2022-01-24-12:00:00.498373,17.0,21.0,408.0
2022-01-24-12:00:00.499369,4.0,13.0,408.0
2022-01-24-12:00:00.500371,4.0,13.0,408.0
2022-01-24-12:00:00.501316,4.0,13.0,408.0
2022-01-24-12:00:00.502362,3.0,4.0,407.0
2022-01-24-12:00:00.503358,3.0,1.0,407.0
2022-01-24-12:00:00.504459,2.0,0.0,408.0
2022-01-24-12:00:00.504459,2.0,0.0,408.0
2022-01-24-12:00:00.505459,2.0,0.0,408.0
2022-01-24-12:00:00.506503,5.0,3.0,407.0
2022-01-24-12:00:00.507501,3.0,1.0,407.0
2022-01-24-12:00:00.508498,5.0,3.0,408.0
2022-01-24-12:00:00.509449,8.0,3.0,407.0
2022-01-24-12:00:00.510495,1.0,8.0,407.0
2022-01-24-12:00:00.511490,8.0,7.0,407.0
2022-01-24-12:00:00.512727,9.0,11.0,407.0
2022-01-24-12:00:00.512727,9.0,11.0,407.0
2022-01-24-12:00:00.513714,9.0,11.0,407.0
2022-01-24-12:00:00.514761,18.0,20.0,407.0
2022-01-24-12:00:00.515946,12.0,11.0,407.0
2022-01-24-12:00:00.516084,11.0,4.0,407.0
2022-01-24-12:00:00.516084,11.0,4.0,407.0
2022-01-24-12:00:00.517131,11.0,4.0,407.0
2022-01-24-12:00:00.518289,11.0,4.0,407.0
2022-01-24-12:00:00.518289,5.0,4.0,408.0
2022-01-24-12:00:00.519345,4.0,9.0,407.0
2022-01-24-12:00:00.520334,1.0,1.0,407.0
2022-01-24-12:00:00.521332,1.0,1.0,407.0
2022-01-24-12:00:00.522328,1.0,1.0,407.0
2022-01-24-12:00:00.523326,4.0,10.0,408.0
2022-01-24-12:00:00.524324,2.0,7.0,408.0
2022-01-24-12:00:00.525305,6.0,7.0,407.0
2022-01-24-12:00:00.526318,6.0,7.0,407.0
2022-01-24-12:00:00.527315,5.0,14.0,407.0
2022-01-24-12:00:00.528313,5.0,14.0,407.0
2022-01-24-12:00:00.530307,2.0,9.0,407.0
2022-01-24-12:00:00.530307,13.0,2.0,407.0
2022-01-24-12:00:00.531309,16.0,7.0,408.0
2022-01-24-12:00:00.532302,8.0,15.0,408.0
2022-01-24-12:00:00.533300,8.0,15.0,408.0
2022-01-24-12:00:00.534297,8.0,15.0,408.0
2022-01-24-12:00:00.535296,5.0,14.0,407.0
2022-01-24-12:00:00.536291,1.0,13.0,407.0
2022-01-24-12:00:00.537289,3.0,13.0,407.0
2022-01-24-12:00:00.538238,3.0,13.0,407.0
2022-01-24-12:00:00.539288,2.0,12.0,408.0
2022-01-24-12:00:00.540281,1.0,4.0,407.0
2022-01-24-12:00:00.541380,2.0,6.0,407.0
2022-01-24-12:00:00.541380,2.0,6.0,407.0
2022-01-24-12:00:00.542381,2.0,6.0,407.0
2022-01-24-12:00:00.543427,2.0,14.0,408.0
2022-01-24-12:00:00.544374,5.0,8.0,408.0
2022-01-24-12:00:00.545378,5.0,8.0,408.0
2022-01-24-12:00:00.546371,5.0,8.0,408.0
2022-01-24-12:00:00.547366,5.0,8.0,408.0
2022-01-24-12:00:00.548365,14.0,3.0,407.0
2022-01-24-12:00:00.549387,13.0,7.0,408.0
2022-01-24-12:00:00.550358,13.0,7.0,408.0
2022-01-24-12:00:00.551367,11.0,3.0,408.0
2022-01-24-12:00:00.552354,6.0,3.0,407.0
2022-01-24-12:00:00.553397,6.0,3.0,407.0
2022-01-24-12:00:00.554395,6.0,3.0,407.0
2022-01-24-12:00:00.555369,6.0,3.0,407.0
2022-01-24-12:00:00.556369,3.0,17.0,408.0
2022-01-24-12:00:00.557341,3.0,26.0,408.0
2022-01-24-12:00:00.558338,4.0,18.0,408.0
2022-01-24-12:00:00.559333,4.0,18.0,408.0
2022-01-24-12:00:00.560379,7.0,19.0,407.0
2022-01-24-12:00:00.561376,2.0,11.0,408.0
2022-01-24-12:00:00.562721,2.0,11.0,408.0
2022-01-24-12:00:00.562721,10.0,7.0,408.0
2022-01-24-12:00:00.564805,10.0,7.0,408.0
2022-01-24-12:00:00.564805,14.0,7.0,407.0
2022-01-24-12:00:00.565802,14.0,7.0,407.0
2022-01-24-12:00:00.566800,14.0,7.0,407.0
2022-01-24-12:00:00.567750,14.0,7.0,407.0
2022-01-24-12:00:00.568990,6.0,4.0,408.0
2022-01-24-12:00:00.568990,2.0,13.0,407.0
2022-01-24-12:00:00.570046,2.0,13.0,407.0
2022-01-24-12:00:00.570987,2.0,13.0,407.0
2022-01-24-12:00:00.572040,1.0,16.0,407.0
2022-01-24-12:00:00.573037,2.0,7.0,407.0
2022-01-24-12:00:00.574038,0.0,2.0,408.0
2022-01-24-12:00:00.575011,0.0,2.0,408.0
2022-01-24-12:00:00.576032,9.0,7.0,408.0
2022-01-24-12:00:00.577026,4.0,6.0,408.0
2022-01-24-12:00:00.578023,8.0,10.0,407.0
2022-01-24-12:00:00.579025,8.0,10.0,407.0
2022-01-24-12:00:00.580017,9.0,8.0,408.0
2022-01-24-12:00:00.581014,13.0,7.0,408.0
2022-01-24-12:00:00.582017,12.0,10.0,408.0
2022-01-24-12:00:00.583009,12.0,10.0,408.0
2022-01-24-12:00:00.584009,12.0,10.0,408.0
2022-01-24-12:00:00.584983,1.0,10.0,407.0
2022-01-24-12:00:00.585993,1.0,10.0,407.0
2022-01-24-12:00:00.586998,1.0,10.0,407.0
2022-01-24-12:00:00.587996,1.0,10.0,407.0
2022-01-24-12:00:00.588965,1.0,10.0,407.0
2022-01-24-12:00:00.589983,4.0,7.0,408.0
2022-01-24-12:00:00.590980,1.0,4.0,407.0
2022-01-24-12:00:00.591983,3.0,5.0,408.0
2022-01-24-12:00:00.592975,2.0,1.0,408.0
2022-01-24-12:00:00.593972,0.0,8.0,407.0
2022-01-24-12:00:00.594970,4.0,10.0,408.0
2022-01-24-12:00:00.595966,4.0,10.0,408.0
2022-01-24-12:00:00.597949,4.0,10.0,408.0
2022-01-24-12:00:00.597949,16.0,10.0,408.0
2022-01-24-12:00:00.598959,15.0,17.0,408.0
2022-01-24-12:00:00.599959,15.0,17.0,408.0
2022-01-24-12:00:00.600954,12.0,13.0,407.0
2022-01-24-12:00:00.601952,2.0,14.0,408.0
2022-01-24-12:00:00.602949,3.0,14.0,408.0
2022-01-24-12:00:00.603945,3.0,14.0,408.0
2022-01-24-12:00:00.604916,2.0,12.0,408.0
2022-01-24-12:00:00.605919,0.0,7.0,408.0
2022-01-24-12:00:00.607012,0.0,0.0,407.0
2022-01-24-12:00:00.607012,0.0,0.0,407.0
2022-01-24-12:00:00.608164,0.0,0.0,407.0
2022-01-24-12:00:00.608164,1.0,11.0,408.0
2022-01-24-12:00:00.609197,5.0,20.0,407.0
2022-01-24-12:00:00.610187,4.0,13.0,408.0
2022-01-24-12:00:00.611188,4.0,13.0,408.0
2022-01-24-12:00:00.612183,4.0,13.0,408.0
2022-01-24-12:00:00.613185,15.0,6.0,408.0
2022-01-24-12:00:00.614177,15.0,15.0,407.0
2022-01-24-12:00:00.615173,15.0,15.0,407.0
2022-01-24-12:00:00.616171,15.0,15.0,407.0
2022-01-24-12:00:00.617170,15.0,13.0,408.0
2022-01-24-12:00:00.618140,7.0,17.0,408.0
2022-01-24-12:00:00.619171,4.0,10.0,408.0
2022-01-24-12:00:00.620135,4.0,10.0,408.0
2022-01-24-12:00:00.621158,3.0,14.0,407.0
2022-01-24-12:00:00.622156,0.0,12.0,408.0
2022-01-24-12:00:00.623152,1.0,8.0,407.0
2022-01-24-12:00:00.624143,1.0,8.0,407.0
2022-01-24-12:00:00.625147,1.0,2.0,408.0
2022-01-24-12:00:00.626145,2.0,8.0,407.0
2022-01-24-12:00:00.627142,1.0,6.0,407.0
2022-01-24-12:00:00.628140,1.0,6.0,407.0
2022-01-24-12:00:00.629137,6.0,8.0,407.0
2022-01-24-12:00:00.630134,6.0,8.0,407.0
2022-01-24-12:00:00.631131,14.0,8.0,408.0
2022-01-24-12:00:00.633146,15.0,1.0,407.0
2022-01-24-12:00:00.633146,14.0,2.0,407.0
2022-01-24-12:00:00.634097,2.0,7.0,408.0
2022-01-24-12:00:00.635094,2.0,7.0,408.0
2022-01-24-12:00:00.636091,2.0,7.0,408.0
2022-01-24-12:00:00.637089,2.0,7.0,408.0
2022-01-24-12:00:00.638086,0.0,16.0,408.0
2022-01-24-12:00:00.639083,2.0,22.0,408.0
2022-01-24-12:00:00.640120,2.0,22.0,408.0
2022-01-24-12:00:00.641112,2.0,22.0,408.0
2022-01-24-12:00:00.642108,3.0,18.0,408.0
2022-01-24-12:00:00.643105,5.0,3.0,407.0
2022-01-24-12:00:00.644104,1.0,0.0,407.0
2022-01-24-12:00:00.645100,1.0,0.0,407.0
2022-01-24-12:00:00.646100,4.0,3.0,407.0
2022-01-24-12:00:00.647094,4.0,3.0,407.0
2022-01-24-12:00:00.648084,9.0,3.0,407.0
2022-01-24-12:00:00.649083,16.0,3.0,407.0
2022-01-24-12:00:00.650079,13.0,8.0,407.0
2022-01-24-12:00:00.651052,6.0,12.0,407.0
2022-01-24-12:00:00.652058,6.0,12.0,407.0
2022-01-24-12:00:00.653071,6.0,12.0,407.0
2022-01-24-12:00:00.654044,2.0,13.0,407.0
2022-01-24-12:00:00.655041,0.0,13.0,408.0
2022-01-24-12:00:00.656039,0.0,13.0,408.0
2022-01-24-12:00:00.657036,0.0,13.0,408.0
2022-01-24-12:00:00.658084,0.0,11.0,408.0
2022-01-24-12:00:00.659077,6.0,0.0,408.0
2022-01-24-12:00:00.660076,1.0,8.0,408.0
2022-01-24-12:00:00.661040,1.0,8.0,408.0
2022-01-24-12:00:00.662070,1.0,8.0,408.0
2022-01-24-12:00:00.663066,8.0,8.0,408.0
2022-01-24-12:00:00.664064,10.0,7.0,407.0
2022-01-24-12:00:00.665061,14.0,0.0,408.0
2022-01-24-12:00:00.666062,12.0,13.0,408.0
2022-01-24-12:00:00.667056,7.0,16.0,408.0
2022-01-24-12:00:00.669106,7.0,16.0,408.0
2022-01-24-12:00:00.669106,7.0,16.0,408.0
2022-01-24-12:00:00.670049,7.0,16.0,408.0
2022-01-24-12:00:00.671045,5.0,11.0,408.0
2022-01-24-12:00:00.672043,0.0,4.0,408.0
2022-01-24-12:00:00.673042,0.0,4.0,408.0
2022-01-24-12:00:00.674041,0.0,4.0,408.0
2022-01-24-12:00:00.675035,2.0,6.0,408.0
2022-01-24-12:00:00.676033,7.0,11.0,408.0
2022-01-24-12:00:00.677029,1.0,17.0,408.0
2022-01-24-12:00:00.678026,1.0,17.0,408.0
2022-01-24-12:00:00.679024,0.0,8.0,407.0
2022-01-24-12:00:00.680022,11.0,4.0,407.0
2022-01-24-12:00:00.681020,11.0,4.0,407.0
2022-01-24-12:00:00.682020,14.0,7.0,408.0
2022-01-24-12:00:00.683013,14.0,7.0,408.0
2022-01-24-12:00:00.684012,6.0,17.0,407.0
2022-01-24-12:00:00.685010,7.0,22.0,408.0
2022-01-24-12:00:00.685538,7.0,22.0,408.0
2022-01-24-12:00:00.686006,7.0,22.0,408.0
2022-01-24-12:00:00.687003,1.0,17.0,407.0
2022-01-24-12:00:00.688004,1.0,3.0,407.0
2022-01-24-12:00:00.689004,2.0,3.0,408.0
2022-01-24-12:00:00.689998,2.0,3.0,408.0
2022-01-24-12:00:00.690992,1.0,3.0,407.0
2022-01-24-12:00:00.691991,4.0,8.0,407.0
2022-01-24-12:00:00.692987,4.0,5.0,408.0
2022-01-24-12:00:00.693937,4.0,5.0,408.0
2022-01-24-12:00:00.694981,3.0,6.0,408.0
2022-01-24-12:00:00.695979,9.0,4.0,408.0
2022-01-24-12:00:00.696975,8.0,7.0,408.0
2022-01-24-12:00:00.697927,8.0,7.0,408.0
2022-01-24-12:00:00.698925,15.0,10.0,408.0
2022-01-24-12:00:00.699969,10.0,15.0,407.0
2022-01-24-12:00:00.700921,10.0,15.0,407.0
2022-01-24-12:00:00.702960,10.0,15.0,407.0
2022-01-24-12:00:00.702960,3.0,8.0,408.0
2022-01-24-12:00:00.703958,1.0,1.0,407.0
2022-01-24-12:00:00.705051,2.0,3.0,408.0
2022-01-24-12:00:00.705051,2.0,3.0,408.0
2022-01-24-12:00:00.706259,2.0,3.0,408.0
2022-01-24-12:00:00.706259,0.0,5.0,407.0
2022-01-24-12:00:00.707388,4.0,4.0,407.0
2022-01-24-12:00:00.707388,4.0,4.0,407.0
2022-01-24-12:00:00.708411,4.0,4.0,407.0
2022-01-24-12:00:00.709411,4.0,4.0,407.0
2022-01-24-12:00:00.710563,4.0,4.0,407.0
2022-01-24-12:00:00.710563,1.0,17.0,407.0
2022-01-24-12:00:00.711609,4.0,12.0,408.0
2022-01-24-12:00:00.712607,16.0,2.0,407.0
2022-01-24-12:00:00.713604,16.0,2.0,407.0
2022-01-24-12:00:00.714604,16.0,2.0,407.0
2022-01-24-12:00:00.715598,15.0,12.0,408.0
2022-01-24-12:00:00.716596,8.0,19.0,408.0
2022-01-24-12:00:00.717582,1.0,21.0,408.0
2022-01-24-12:00:00.718570,1.0,21.0,408.0
2022-01-24-12:00:00.719567,3.0,15.0,408.0
2022-01-24-12:00:00.720564,5.0,8.0,408.0
2022-01-24-12:00:00.721562,5.0,3.0,407.0
2022-01-24-12:00:00.722533,5.0,3.0,407.0
2022-01-24-12:00:00.723557,0.0,4.0,407.0
2022-01-24-12:00:00.724554,3.0,4.0,408.0
2022-01-24-12:00:00.725551,1.0,23.0,408.0
2022-01-24-12:00:00.726546,1.0,23.0,408.0
2022-01-24-12:00:00.727546,1.0,21.0,408.0
2022-01-24-12:00:00.728564,16.0,4.0,408.0
2022-01-24-12:00:00.729561,16.0,4.0,408.0
2022-01-24-12:00:00.730561,16.0,4.0,408.0
2022-01-24-12:00:00.731556,13.0,11.0,407.0
2022-01-24-12:00:00.732553,8.0,17.0,408.0
2022-01-24-12:00:00.733550,8.0,17.0,408.0
2022-01-24-12:00:00.734507,8.0,17.0,408.0
2022-01-24-12:00:00.735536,8.0,17.0,408.0
2022-01-24-12:00:00.737540,1.0,10.0,408.0
2022-01-24-12:00:00.737540,1.0,7.0,407.0
2022-01-24-12:00:00.738540,1.0,7.0,407.0
2022-01-24-12:00:00.739534,1.0,7.0,407.0
2022-01-24-12:00:00.740536,0.0,2.0,408.0
2022-01-24-12:00:00.741529,4.0,1.0,407.0
2022-01-24-12:00:00.742527,3.0,2.0,407.0
2022-01-24-12:00:00.743524,3.0,2.0,407.0
2022-01-24-12:00:00.744521,2.0,5.0,408.0
2022-01-24-12:00:00.745519,6.0,7.0,407.0
2022-01-24-12:00:00.746518,13.0,9.0,407.0
2022-01-24-12:00:00.747513,13.0,9.0,407.0
2022-01-24-12:00:00.748634,4.0,4.0,407.0
2022-01-24-12:00:00.748634,4.0,4.0,407.0
2022-01-24-12:00:00.749665,4.0,4.0,407.0
2022-01-24-12:00:00.750663,4.0,4.0,407.0
2022-01-24-12:00:00.751662,4.0,4.0,407.0
2022-01-24-12:00:00.752692,6.0,4.0,408.0
2022-01-24-12:00:00.752692,0.0,3.0,408.0
2022-01-24-12:00:00.753742,0.0,3.0,408.0
2022-01-24-12:00:00.754736,0.0,3.0,408.0
2022-01-24-12:00:00.755735,0.0,3.0,408.0
2022-01-24-12:00:00.756734,1.0,2.0,407.0
2022-01-24-12:00:00.757727,2.0,5.0,408.0
2022-01-24-12:00:00.758725,5.0,1.0,408.0
2022-01-24-12:00:00.759723,5.0,1.0,408.0
2022-01-24-12:00:00.760722,2.0,6.0,407.0
2022-01-24-12:00:00.761721,2.0,6.0,408.0
2022-01-24-12:00:00.762714,7.0,2.0,408.0
2022-01-24-12:00:00.763713,7.0,2.0,408.0
2022-01-24-12:00:00.764709,14.0,5.0,407.0
2022-01-24-12:00:00.765706,14.0,5.0,407.0
2022-01-24-12:00:00.766808,7.0,5.0,407.0
2022-01-24-12:00:00.766808,7.0,5.0,407.0
2022-01-24-12:00:00.768805,7.0,5.0,407.0
2022-01-24-12:00:00.768805,8.0,5.0,408.0
2022-01-24-12:00:00.769856,4.0,1.0,408.0
2022-01-24-12:00:00.770941,4.0,2.0,408.0
2022-01-24-12:00:00.770941,4.0,2.0,408.0
2022-01-24-12:00:00.772138,4.0,2.0,408.0
2022-01-24-12:00:00.772138,3.0,7.0,408.0
2022-01-24-12:00:00.773185,0.0,3.0,408.0
2022-01-24-12:00:00.774182,6.0,2.0,408.0
2022-01-24-12:00:00.775178,6.0,2.0,408.0
2022-01-24-12:00:00.776176,6.0,2.0,408.0
2022-01-24-12:00:00.777173,3.0,4.0,408.0
2022-01-24-12:00:00.778172,4.0,0.0,409.0
2022-01-24-12:00:00.779171,8.0,2.0,408.0
2022-01-24-12:00:00.780165,8.0,2.0,408.0
2022-01-24-12:00:00.781164,14.0,6.0,408.0
2022-01-24-12:00:00.782160,16.0,15.0,408.0
2022-01-24-12:00:00.783157,16.0,15.0,408.0
2022-01-24-12:00:00.784158,9.0,13.0,408.0
2022-01-24-12:00:00.785152,3.0,15.0,408.0
2022-01-24-12:00:00.786226,7.0,6.0,408.0
2022-01-24-12:00:00.786226,7.0,6.0,408.0
2022-01-24-12:00:00.787249,7.0,6.0,408.0
2022-01-24-12:00:00.788440,7.0,6.0,408.0
2022-01-24-12:00:00.788440,4.0,3.0,408.0
2022-01-24-12:00:00.789486,4.0,7.0,408.0
2022-01-24-12:00:00.790484,7.0,3.0,408.0
2022-01-24-12:00:00.791481,7.0,3.0,408.0
2022-01-24-12:00:00.792479,7.0,3.0,408.0
2022-01-24-12:00:00.793476,4.0,9.0,408.0
2022-01-24-12:00:00.794511,2.0,13.0,408.0
2022-01-24-12:00:00.794511,7.0,13.0,408.0
2022-01-24-12:00:00.795565,7.0,13.0,408.0
2022-01-24-12:00:00.796562,7.0,13.0,408.0
2022-01-24-12:00:00.797560,11.0,11.0,408.0
2022-01-24-12:00:00.798557,17.0,13.0,408.0
2022-01-24-12:00:00.799561,14.0,16.0,408.0
2022-01-24-12:00:00.801496,14.0,16.0,408.0
2022-01-24-12:00:00.801496,7.0,7.0,408.0
2022-01-24-12:00:00.802525,7.0,9.0,408.0
2022-01-24-12:00:00.803521,3.0,7.0,408.0
2022-01-24-12:00:00.804697,3.0,7.0,408.0
2022-01-24-12:00:00.804697,3.0,6.0,408.0
2022-01-24-12:00:00.805751,1.0,5.0,408.0
2022-01-24-12:00:00.806748,3.0,3.0,408.0
2022-01-24-12:00:00.807745,3.0,3.0,408.0
2022-01-24-12:00:00.808689,3.0,3.0,408.0
2022-01-24-12:00:00.809740,4.0,4.0,408.0
2022-01-24-12:00:00.810740,2.0,13.0,408.0
2022-01-24-12:00:00.811735,6.0,22.0,408.0
2022-01-24-12:00:00.812678,6.0,22.0,408.0
2022-01-24-12:00:00.813729,9.0,17.0,409.0
2022-01-24-12:00:00.814727,14.0,13.0,408.0
2022-01-24-12:00:00.815724,13.0,18.0,408.0
2022-01-24-12:00:00.816696,13.0,18.0,408.0
2022-01-24-12:00:00.817718,11.0,20.0,408.0
2022-01-24-12:00:00.818721,1.0,21.0,408.0
2022-01-24-12:00:00.819709,1.0,21.0,408.0
2022-01-24-12:00:00.820703,1.0,21.0,408.0
2022-01-24-12:00:00.821700,1.0,15.0,408.0
2022-01-24-12:00:00.822697,0.0,3.0,408.0
2022-01-24-12:00:00.823694,0.0,3.0,408.0
2022-01-24-12:00:00.824691,0.0,3.0,408.0
2022-01-24-12:00:00.825690,0.0,3.0,408.0
2022-01-24-12:00:00.826689,6.0,10.0,408.0
2022-01-24-12:00:00.827788,5.0,4.0,408.0
2022-01-24-12:00:00.827788,5.0,4.0,408.0
2022-01-24-12:00:00.828812,5.0,4.0,408.0
2022-01-24-12:00:00.829811,5.0,4.0,408.0
2022-01-24-12:00:00.830806,15.0,17.0,408.0
2022-01-24-12:00:00.832240,15.0,18.0,408.0
2022-01-24-12:00:00.832240,15.0,18.0,408.0
2022-01-24-12:00:00.834237,15.0,18.0,408.0
2022-01-24-12:00:00.834237,11.0,19.0,408.0
2022-01-24-12:00:00.835269,9.0,13.0,408.0
2022-01-24-12:00:00.836333,1.0,5.0,408.0
2022-01-24-12:00:00.836333,1.0,5.0,408.0
2022-01-24-12:00:00.837333,1.0,5.0,408.0
2022-01-24-12:00:00.838377,3.0,1.0,408.0
2022-01-24-12:00:00.839374,1.0,2.0,408.0
2022-01-24-12:00:00.840481,3.0,18.0,408.0
2022-01-24-12:00:00.840481,3.0,18.0,408.0
2022-01-24-12:00:00.841693,3.0,18.0,408.0
2022-01-24-12:00:00.841693,2.0,22.0,408.0
2022-01-24-12:00:00.842740,2.0,11.0,409.0
2022-01-24-12:00:00.843738,2.0,6.0,408.0
2022-01-24-12:00:00.844737,2.0,6.0,408.0
2022-01-24-12:00:00.845731,2.0,6.0,408.0
2022-01-24-12:00:00.846728,7.0,0.0,408.0
2022-01-24-12:00:00.847725,17.0,13.0,408.0
2022-01-24-12:00:00.848723,17.0,13.0,408.0
2022-01-24-12:00:00.849721,20.0,19.0,408.0
2022-01-24-12:00:00.850723,16.0,21.0,408.0
2022-01-24-12:00:00.851716,9.0,17.0,408.0
2022-01-24-12:00:00.852716,3.0,17.0,408.0
2022-01-24-12:00:00.853663,3.0,17.0,408.0
2022-01-24-12:00:00.854707,3.0,13.0,408.0
2022-01-24-12:00:00.855705,1.0,9.0,408.0
2022-01-24-12:00:00.856702,1.0,5.0,408.0
2022-01-24-12:00:00.857665,1.0,5.0,408.0
2022-01-24-12:00:00.858697,1.0,5.0,408.0
2022-01-24-12:00:00.859694,1.0,3.0,408.0
2022-01-24-12:00:00.860694,4.0,9.0,408.0
2022-01-24-12:00:00.861689,1.0,9.0,409.0
2022-01-24-12:00:00.862690,1.0,9.0,409.0
2022-01-24-12:00:00.863683,12.0,11.0,408.0
2022-01-24-12:00:00.864681,14.0,9.0,408.0
2022-01-24-12:00:00.865679,14.0,9.0,408.0
2022-01-24-12:00:00.866676,9.0,9.0,408.0
2022-01-24-12:00:00.868652,6.0,5.0,409.0
2022-01-24-12:00:00.868652,6.0,5.0,409.0
2022-01-24-12:00:00.869667,6.0,5.0,409.0
2022-01-24-12:00:00.870665,6.0,5.0,409.0
2022-01-24-12:00:00.871662,1.0,3.0,408.0
2022-01-24-12:00:00.872659,1.0,8.0,408.0
2022-01-24-12:00:00.873657,1.0,8.0,408.0
2022-01-24-12:00:00.874654,1.0,8.0,408.0
2022-01-24-12:00:00.875651,2.0,8.0,408.0
2022-01-24-12:00:00.876652,2.0,3.0,409.0
2022-01-24-12:00:00.877647,0.0,5.0,409.0
2022-01-24-12:00:00.878644,0.0,5.0,409.0
2022-01-24-12:00:00.879641,3.0,13.0,408.0
2022-01-24-12:00:00.880639,10.0,0.0,408.0
2022-01-24-12:00:00.881636,16.0,4.0,409.0
2022-01-24-12:00:00.882633,16.0,4.0,409.0
2022-01-24-12:00:00.883632,10.0,7.0,409.0
2022-01-24-12:00:00.884631,2.0,4.0,408.0
2022-01-24-12:00:00.885626,2.0,4.0,408.0
2022-01-24-12:00:00.886628,2.0,4.0,408.0
2022-01-24-12:00:00.887620,1.0,4.0,408.0
2022-01-24-12:00:00.888624,4.0,10.0,408.0
2022-01-24-12:00:00.889615,2.0,15.0,409.0
2022-01-24-12:00:00.890565,2.0,15.0,409.0
2022-01-24-12:00:00.891613,1.0,17.0,408.0
2022-01-24-12:00:00.892610,3.0,1.0,408.0
2022-01-24-12:00:00.893604,3.0,9.0,408.0
2022-01-24-12:00:00.894554,3.0,9.0,408.0
2022-01-24-12:00:00.895599,3.0,9.0,408.0
2022-01-24-12:00:00.896596,8.0,9.0,408.0
2022-01-24-12:00:00.897597,15.0,1.0,408.0
2022-01-24-12:00:00.898601,15.0,1.0,408.0
2022-01-24-12:00:00.899588,18.0,8.0,408.0
2022-01-24-12:00:00.901545,7.0,11.0,408.0
2022-01-24-12:00:00.901545,7.0,11.0,408.0
2022-01-24-12:00:00.902579,7.0,11.0,408.0
2022-01-24-12:00:00.903577,7.0,11.0,408.0
2022-01-24-12:00:00.904575,3.0,15.0,408.0
2022-01-24-12:00:00.905646,1.0,11.0,408.0
2022-01-24-12:00:00.905646,1.0,11.0,408.0
2022-01-24-12:00:00.906670,1.0,11.0,408.0
2022-01-24-12:00:00.907874,1.0,11.0,408.0
2022-01-24-12:00:00.907874,2.0,10.0,409.0
2022-01-24-12:00:00.908921,3.0,4.0,408.0
2022-01-24-12:00:00.909919,4.0,7.0,408.0
2022-01-24-12:00:00.910891,4.0,7.0,408.0
2022-01-24-12:00:00.911913,4.0,7.0,408.0
2022-01-24-12:00:00.912910,9.0,10.0,408.0
2022-01-24-12:00:00.913998,12.0,16.0,408.0
2022-01-24-12:00:00.913998,12.0,16.0,408.0
2022-01-24-12:00:00.914998,12.0,16.0,408.0
2022-01-24-12:00:00.916019,18.0,2.0,408.0
2022-01-24-12:00:00.917017,7.0,22.0,408.0
2022-01-24-12:00:00.917990,7.0,22.0,408.0
2022-01-24-12:00:00.919016,7.0,22.0,408.0
2022-01-24-12:00:00.920011,4.0,22.0,408.0
2022-01-24-12:00:00.921006,1.0,16.0,409.0
2022-01-24-12:00:00.922003,1.0,16.0,409.0
2022-01-24-12:00:00.922995,1.0,16.0,409.0
2022-01-24-12:00:00.923998,1.0,16.0,409.0
2022-01-24-12:00:00.924995,0.0,1.0,408.0
2022-01-24-12:00:00.925994,4.0,14.0,409.0
2022-01-24-12:00:00.926989,4.0,14.0,409.0
2022-01-24-12:00:00.928173,4.0,14.0,409.0
2022-01-24-12:00:00.928173,2.0,12.0,408.0
2022-01-24-12:00:00.929229,7.0,11.0,408.0
2022-01-24-12:00:00.930226,10.0,2.0,408.0
2022-01-24-12:00:00.931226,10.0,2.0,408.0
2022-01-24-12:00:00.932224,6.0,5.0,408.0
2022-01-24-12:00:00.933218,6.0,7.0,408.0
2022-01-24-12:00:00.934218,6.0,7.0,408.0
2022-01-24-12:00:00.935157,6.0,7.0,408.0
2022-01-24-12:00:00.937211,6.0,7.0,408.0
2022-01-24-12:00:00.937211,7.0,5.0,408.0
2022-01-24-12:00:00.938208,4.0,9.0,409.0
2022-01-24-12:00:00.939205,2.0,12.0,408.0
2022-01-24-12:00:00.940203,2.0,12.0,408.0
2022-01-24-12:00:00.941197,3.0,11.0,408.0
2022-01-24-12:00:00.942196,2.0,0.0,408.0
2022-01-24-12:00:00.943191,2.0,6.0,408.0
2022-01-24-12:00:00.944201,2.0,6.0,408.0
2022-01-24-12:00:00.945190,2.0,5.0,408.0
2022-01-24-12:00:00.946187,8.0,6.0,408.0
2022-01-24-12:00:00.947152,9.0,3.0,408.0
2022-01-24-12:00:00.948182,11.0,4.0,408.0
2022-01-24-12:00:00.949147,16.0,15.0,408.0
2022-01-24-12:00:00.950175,11.0,14.0,408.0
2022-01-24-12:00:00.951142,9.0,10.0,409.0
2022-01-24-12:00:00.952141,4.0,9.0,408.0
2022-01-24-12:00:00.953157,3.0,1.0,408.0
2022-01-24-12:00:00.954126,3.0,1.0,408.0
2022-01-24-12:00:00.955152,2.0,6.0,408.0
2022-01-24-12:00:00.956152,3.0,6.0,408.0
2022-01-24-12:00:00.957147,2.0,8.0,408.0
2022-01-24-12:00:00.958146,2.0,2.0,408.0
2022-01-24-12:00:00.959140,2.0,2.0,408.0
2022-01-24-12:00:00.960138,1.0,1.0,409.0
2022-01-24-12:00:00.961136,5.0,7.0,408.0
2022-01-24-12:00:00.962132,1.0,12.0,408.0
2022-01-24-12:00:00.963138,8.0,3.0,408.0
2022-01-24-12:00:00.964131,14.0,9.0,408.0
2022-01-24-12:00:00.965123,17.0,11.0,408.0
2022-01-24-12:00:00.966124,7.0,11.0,409.0
2022-01-24-12:00:00.967119,6.0,20.0,408.0
2022-01-24-12:00:00.968095,6.0,20.0,408.0
2022-01-24-12:00:00.970088,1.0,14.0,408.0
2022-01-24-12:00:00.970088,0.0,12.0,408.0
2022-01-24-12:00:00.971107,0.0,12.0,408.0
2022-01-24-12:00:00.972104,0.0,12.0,408.0
2022-01-24-12:00:00.973103,0.0,12.0,408.0
2022-01-24-12:00:00.974102,1.0,13.0,408.0
2022-01-24-12:00:00.975097,2.0,5.0,408.0
2022-01-24-12:00:00.976095,2.0,5.0,408.0
2022-01-24-12:00:00.977091,2.0,5.0,408.0
2022-01-24-12:00:00.978180,12.0,18.0,408.0
2022-01-24-12:00:00.978180,12.0,18.0,408.0
2022-01-24-12:00:00.979212,12.0,18.0,408.0
2022-01-24-12:00:00.980210,12.0,18.0,408.0
2022-01-24-12:00:00.981397,12.0,18.0,408.0
2022-01-24-12:00:00.981397,11.0,3.0,408.0
2022-01-24-12:00:00.982443,11.0,10.0,408.0
2022-01-24-12:00:00.983441,9.0,11.0,408.0
2022-01-24-12:00:00.984450,9.0,11.0,408.0
2022-01-24-12:00:00.985869,2.0,10.0,408.0
2022-01-24-12:00:00.985869,1.0,7.0,408.0
2022-01-24-12:00:00.987058,1.0,7.0,408.0
2022-01-24-12:00:00.987058,1.0,7.0,408.0
2022-01-24-12:00:00.988088,1.0,7.0,408.0
2022-01-24-12:00:00.989295,1.0,7.0,408.0
2022-01-24-12:00:00.989295,4.0,9.0,409.0
2022-01-24-12:00:00.990341,6.0,4.0,409.0
2022-01-24-12:00:00.991340,5.0,0.0,408.0
2022-01-24-12:00:00.992335,5.0,0.0,408.0
2022-01-24-12:00:00.993286,5.0,0.0,408.0
2022-01-24-12:00:00.994334,1.0,5.0,408.0
2022-01-24-12:00:00.995328,4.0,4.0,408.0
2022-01-24-12:00:00.996327,10.0,0.0,408.0
2022-01-24-12:00:00.997326,10.0,0.0,408.0
2022-01-24-12:00:00.998320,12.0,9.0,408.0
2022-01-24-12:00:00.999318,10.0,15.0,408.0
2022-01-24-12:00:01.000315,8.0,9.0,408.0
2022-01-24-12:00:01.001291,8.0,9.0,408.0
2022-01-24-12:00:01.002288,2.0,5.0,408.0
2022-01-24-12:00:01.003311,2.0,2.0,408.0
2022-01-24-12:00:01.005254,2.0,2.0,408.0
2022-01-24-12:00:01.005254,3.0,19.0,408.0
2022-01-24-12:00:01.006275,3.0,19.0,408.0
2022-01-24-12:00:01.007274,8.0,19.0,408.0
2022-01-24-12:00:01.008271,8.0,19.0,408.0
2022-01-24-12:00:01.009244,8.0,19.0,408.0
2022-01-24-12:00:01.010305,2.0,11.0,409.0
2022-01-24-12:00:01.010305,10.0,0.0,408.0
2022-01-24-12:00:01.011329,10.0,0.0,408.0
2022-01-24-12:00:01.012326,10.0,0.0,408.0
2022-01-24-12:00:01.013300,10.0,0.0,408.0
2022-01-24-12:00:01.014544,14.0,1.0,408.0
2022-01-24-12:00:01.014544,13.0,6.0,408.0
2022-01-24-12:00:01.015567,10.0,7.0,408.0
2022-01-24-12:00:01.016567,10.0,7.0,408.0
2022-01-24-12:00:01.017538,10.0,7.0,408.0
2022-01-24-12:00:01.018568,8.0,7.0,408.0
2022-01-24-12:00:01.019557,8.0,7.0,408.0
2022-01-24-12:00:01.020554,6.0,0.0,408.0
2022-01-24-12:00:01.021528,3.0,7.0,408.0
2022-01-24-12:00:01.022549,2.0,1.0,408.0
2022-01-24-12:00:01.023551,2.0,9.0,408.0
2022-01-24-12:00:01.024674,2.0,4.0,409.0
2022-01-24-12:00:01.024674,2.0,4.0,409.0
2022-01-24-12:00:01.025821,2.0,4.0,409.0
2022-01-24-12:00:01.025821,1.0,1.0,408.0
2022-01-24-12:00:01.026847,7.0,8.0,408.0
2022-01-24-12:00:01.027843,7.0,6.0,408.0
2022-01-24-12:00:01.028839,7.0,6.0,408.0
2022-01-24-12:00:01.029813,7.0,6.0,408.0
2022-01-24-12:00:01.030834,12.0,1.0,408.0
2022-01-24-12:00:01.031832,17.0,8.0,408.0
2022-01-24-12:00:01.032832,7.0,6.0,408.0
2022-01-24-12:00:01.033816,7.0,6.0,408.0
2022-01-24-12:00:01.034827,3.0,8.0,408.0
2022-01-24-12:00:01.035826,3.0,8.0,408.0
2022-01-24-12:00:01.036818,4.0,14.0,409.0
2022-01-24-12:00:01.038813,4.0,14.0,409.0
2022-01-24-12:00:01.038813,1.0,4.0,408.0
2022-01-24-12:00:01.039886,2.0,5.0,408.0
2022-01-24-12:00:01.039886,2.0,5.0,408.0
2022-01-24-12:00:01.040910,2.0,5.0,408.0
2022-01-24-12:00:01.041910,2.0,5.0,408.0
2022-01-24-12:00:01.042905,2.0,5.0,408.0
2022-01-24-12:00:01.044097,6.0,10.0,408.0
2022-01-24-12:00:01.044097,6.0,20.0,408.0
2022-01-24-12:00:01.045121,3.0,14.0,409.0
2022-01-24-12:00:01.046093,3.0,14.0,409.0
2022-01-24-12:00:01.047117,8.0,8.0,408.0
2022-01-24-12:00:01.048113,14.0,11.0,408.0
2022-01-24-12:00:01.049118,13.0,13.0,408.0
2022-01-24-12:00:01.050106,13.0,13.0,408.0
2022-01-24-12:00:01.051110,13.0,13.0,408.0
2022-01-24-12:00:01.052112,9.0,16.0,408.0
2022-01-24-12:00:01.053099,9.0,16.0,408.0
2022-01-24-12:00:01.054096,5.0,14.0,408.0
2022-01-24-12:00:01.055096,5.0,14.0,408.0
2022-01-24-12:00:01.056091,1.0,22.0,408.0
2022-01-24-12:00:01.057123,4.0,11.0,409.0
2022-01-24-12:00:01.058062,4.0,11.0,409.0
2022-01-24-12:00:01.059074,4.0,11.0,409.0
2022-01-24-12:00:01.060059,0.0,10.0,408.0
2022-01-24-12:00:01.061079,5.0,13.0,408.0
2022-01-24-12:00:01.062059,5.0,13.0,408.0
2022-01-24-12:00:01.063050,5.0,13.0,408.0
2022-01-24-12:00:01.064046,9.0,8.0,408.0
2022-01-24-12:00:01.065043,12.0,8.0,408.0
2022-01-24-12:00:01.066040,13.0,9.0,408.0
2022-01-24-12:00:01.067038,13.0,9.0,408.0
2022-01-24-12:00:01.068071,8.0,11.0,408.0
2022-01-24-12:00:01.069079,7.0,7.0,408.0
2022-01-24-12:00:01.070030,2.0,8.0,408.0
2022-01-24-12:00:01.071053,7.0,7.0,408.0
2022-01-24-12:00:01.073047,0.0,6.0,409.0
2022-01-24-12:00:01.073047,3.0,4.0,408.0
2022-01-24-12:00:01.074049,3.0,4.0,408.0
2022-01-24-12:00:01.075039,3.0,4.0,408.0
2022-01-24-12:00:01.076041,4.0,2.0,408.0
2022-01-24-12:00:01.077040,4.0,27.0,408.0
2022-01-24-12:00:01.078034,4.0,27.0,408.0
2022-01-24-12:00:01.079006,4.0,27.0,408.0
2022-01-24-12:00:01.080033,7.0,19.0,409.0
2022-01-24-12:00:01.081026,18.0,7.0,408.0
2022-01-24-12:00:01.082027,18.0,8.0,408.0
2022-01-24-12:00:01.082995,18.0,8.0,408.0
2022-01-24-12:00:01.084019,2.0,14.0,409.0
2022-01-24-12:00:01.085016,0.0,24.0,408.0
2022-01-24-12:00:01.085987,0.0,24.0,408.0
2022-01-24-12:00:01.087009,0.0,24.0,408.0
2022-01-24-12:00:01.088007,2.0,26.0,408.0
2022-01-24-12:00:01.089004,0.0,24.0,408.0
2022-01-24-12:00:01.090000,0.0,24.0,408.0
2022-01-24-12:00:01.090999,0.0,24.0,408.0
2022-01-24-12:00:01.091998,0.0,24.0,408.0
2022-01-24-12:00:01.092995,3.0,3.0,408.0
2022-01-24-12:00:01.093991,2.0,20.0,408.0
2022-01-24-12:00:01.094992,2.0,20.0,408.0
2022-01-24-12:00:01.095985,2.0,20.0,408.0
2022-01-24-12:00:01.096982,6.0,17.0,408.0
2022-01-24-12:00:01.097981,16.0,2.0,408.0
2022-01-24-12:00:01.098978,16.0,2.0,408.0
2022-01-24-12:00:01.099965,16.0,2.0,408.0
2022-01-24-12:00:01.100972,15.0,4.0,408.0
2022-01-24-12:00:01.101973,8.0,5.0,408.0
2022-01-24-12:00:01.102942,2.0,9.0,408.0
2022-01-24-12:00:01.103939,2.0,9.0,408.0
2022-01-24-12:00:01.104961,0.0,16.0,408.0
2022-01-24-12:00:01.105934,3.0,21.0,408.0
2022-01-24-12:00:01.106931,3.0,21.0,408.0
2022-01-24-12:00:01.107929,3.0,21.0,408.0
2022-01-24-12:00:01.108952,2.0,16.0,408.0
2022-01-24-12:00:01.109949,6.0,5.0,409.0
2022-01-24-12:00:01.111943,1.0,6.0,408.0
2022-01-24-12:00:01.111943,6.0,9.0,408.0
2022-01-24-12:00:01.112940,8.0,9.0,408.0
2022-01-24-12:00:01.113942,13.0,2.0,408.0
2022-01-24-12:00:01.114935,13.0,3.0,408.0
2022-01-24-12:00:01.115934,13.0,3.0,408.0
2022-01-24-12:00:01.116931,18.0,7.0,408.0
2022-01-24-12:00:01.117901,7.0,11.0,408.0
2022-01-24-12:00:01.118900,5.0,10.0,408.0
2022-01-24-12:00:01.119897,5.0,10.0,408.0
2022-01-24-12:00:01.120894,5.0,10.0,408.0
2022-01-24-12:00:01.121891,3.0,13.0,408.0
2022-01-24-12:00:01.122915,0.0,19.0,408.0
2022-01-24-12:00:01.123886,0.0,19.0,408.0
2022-01-24-12:00:01.124900,1.0,12.0,409.0
2022-01-24-12:00:01.125908,5.0,7.0,408.0
2022-01-24-12:00:01.126905,0.0,13.0,408.0
2022-01-24-12:00:01.127917,0.0,13.0,408.0
2022-01-24-12:00:01.128899,0.0,13.0,408.0
2022-01-24-12:00:01.129900,13.0,7.0,408.0
2022-01-24-12:00:01.130901,16.0,3.0,408.0
2022-01-24-12:00:01.131891,16.0,3.0,408.0
2022-01-24-12:00:01.132885,16.0,3.0,408.0
2022-01-24-12:00:01.133892,16.0,0.0,408.0
2022-01-24-12:00:01.134856,10.0,14.0,409.0
2022-01-24-12:00:01.135881,8.0,15.0,408.0
2022-01-24-12:00:01.136876,8.0,15.0,408.0
2022-01-24-12:00:01.137874,2.0,28.0,408.0
2022-01-24-12:00:01.139870,2.0,28.0,408.0
2022-01-24-12:00:01.139870,2.0,28.0,408.0
2022-01-24-12:00:01.140869,2.0,28.0,408.0
2022-01-24-12:00:01.141864,6.0,3.0,408.0
2022-01-24-12:00:01.142862,6.0,3.0,408.0
2022-01-24-12:00:01.143857,6.0,3.0,408.0
2022-01-24-12:00:01.144857,6.0,3.0,408.0
2022-01-24-12:00:01.145851,4.0,7.0,408.0
2022-01-24-12:00:01.146850,9.0,13.0,409.0
2022-01-24-12:00:01.147835,15.0,5.0,408.0
2022-01-24-12:00:01.148845,15.0,5.0,408.0
2022-01-24-12:00:01.149816,15.0,7.0,408.0
2022-01-24-12:00:01.150841,8.0,17.0,408.0
2022-01-24-12:00:01.151811,9.0,11.0,408.0
2022-01-24-12:00:01.152833,9.0,11.0,408.0
2022-01-24-12:00:01.153831,2.0,15.0,408.0
2022-01-24-12:00:01.154804,2.0,15.0,408.0
2022-01-24-12:00:01.155820,0.0,11.0,408.0
2022-01-24-12:00:01.156798,0.0,11.0,408.0
2022-01-24-12:00:01.157820,2.0,15.0,408.0
2022-01-24-12:00:01.158815,5.0,11.0,408.0
2022-01-24-12:00:01.159819,1.0,11.0,408.0
2022-01-24-12:00:01.160787,1.0,11.0,408.0
2022-01-24-12:00:01.161810,3.0,10.0,408.0
2022-01-24-12:00:01.162796,13.0,0.0,408.0
2022-01-24-12:00:01.163799,14.0,9.0,408.0
2022-01-24-12:00:01.164802,14.0,9.0,408.0
2022-01-24-12:00:01.165798,14.0,9.0,408.0
2022-01-24-12:00:01.166799,13.0,11.0,408.0
2022-01-24-12:00:01.167793,5.0,11.0,408.0
2022-01-24-12:00:01.168798,5.0,11.0,408.0
2022-01-24-12:00:01.169762,5.0,11.0,408.0
2022-01-24-12:00:01.170764,3.0,12.0,408.0
2022-01-24-12:00:01.171787,1.0,4.0,408.0
2022-01-24-12:00:01.172779,1.0,4.0,408.0
2022-01-24-12:00:01.174750,1.0,6.0,408.0
2022-01-24-12:00:01.174750,5.0,8.0,408.0
2022-01-24-12:00:01.175772,1.0,15.0,408.0
2022-01-24-12:00:01.176768,1.0,15.0,408.0
2022-01-24-12:00:01.177765,1.0,15.0,408.0
2022-01-24-12:00:01.178764,4.0,8.0,408.0
2022-01-24-12:00:01.179771,7.0,3.0,408.0
2022-01-24-12:00:01.180766,13.0,13.0,408.0
2022-01-24-12:00:01.181783,13.0,13.0,408.0
2022-01-24-12:00:01.182781,12.0,21.0,408.0
2022-01-24-12:00:01.183778,8.0,21.0,408.0
2022-01-24-12:00:01.184723,5.0,13.0,408.0
2022-01-24-12:00:01.185784,5.0,13.0,408.0
2022-01-24-12:00:01.186774,4.0,15.0,408.0
2022-01-24-12:00:01.187768,5.0,5.0,408.0
2022-01-24-12:00:01.188764,3.0,11.0,408.0
2022-01-24-12:00:01.189762,3.0,11.0,408.0
2022-01-24-12:00:01.190760,3.0,13.0,408.0
2022-01-24-12:00:01.191757,4.0,4.0,408.0
2022-01-24-12:00:01.192745,4.0,4.0,408.0
2022-01-24-12:00:01.193699,4.0,4.0,408.0
2022-01-24-12:00:01.194744,1.0,6.0,408.0
2022-01-24-12:00:01.195738,9.0,9.0,408.0
2022-01-24-12:00:01.196717,11.0,4.0,408.0
2022-01-24-12:00:01.197688,11.0,4.0,408.0
2022-01-24-12:00:01.198724,15.0,1.0,408.0
2022-01-24-12:00:01.199684,9.0,2.0,408.0
2022-01-24-12:00:01.200680,6.0,10.0,408.0
2022-01-24-12:00:01.201677,6.0,10.0,408.0
2022-01-24-12:00:01.202675,1.0,9.0,408.0
2022-01-24-12:00:01.203699,1.0,9.0,408.0
2022-01-24-12:00:01.204694,1.0,9.0,408.0
2022-01-24-12:00:01.205704,1.0,9.0,408.0
2022-01-24-12:00:01.206665,1.0,9.0,408.0
2022-01-24-12:00:01.207688,1.0,10.0,408.0
2022-01-24-12:00:01.208687,6.0,4.0,409.0
2022-01-24-12:00:01.209657,5.0,1.0,408.0
2022-01-24-12:00:01.211678,5.0,1.0,408.0
2022-01-24-12:00:01.211678,14.0,5.0,408.0
2022-01-24-12:00:01.212674,14.0,5.0,408.0
2022-01-24-12:00:01.213673,14.0,5.0,408.0
2022-01-24-12:00:01.214669,14.0,5.0,408.0
2022-01-24-12:00:01.215666,17.0,18.0,408.0
2022-01-24-12:00:01.216664,8.0,10.0,408.0
2022-01-24-12:00:01.217665,8.0,10.0,408.0
2022-01-24-12:00:01.218665,8.0,10.0,408.0
2022-01-24-12:00:01.219657,4.0,10.0,408.0
2022-01-24-12:00:01.220627,3.0,8.0,408.0
2022-01-24-12:00:01.221649,3.0,8.0,408.0
2022-01-24-12:00:01.222648,3.0,8.0,408.0
2022-01-24-12:00:01.223618,2.0,3.0,408.0
2022-01-24-12:00:01.224616,2.0,3.0,408.0
2022-01-24-12:00:01.225638,5.0,6.0,408.0
2022-01-24-12:00:01.226611,5.0,6.0,408.0
2022-01-24-12:00:01.227636,5.0,6.0,408.0
2022-01-24-12:00:01.228605,8.0,1.0,408.0
2022-01-24-12:00:01.229603,8.0,1.0,408.0
2022-01-24-12:00:01.230601,8.0,1.0,408.0
2022-01-24-12:00:01.231599,11.0,4.0,408.0
2022-01-24-12:00:01.232605,16.0,9.0,408.0
2022-01-24-12:00:01.233625,9.0,8.0,408.0
2022-01-24-12:00:01.234590,9.0,8.0,408.0
2022-01-24-12:00:01.235615,3.0,9.0,408.0
2022-01-24-12:00:01.236609,2.0,6.0,408.0
2022-01-24-12:00:01.237606,2.0,6.0,408.0
2022-01-24-12:00:01.238579,2.0,6.0,408.0
2022-01-24-12:00:01.239576,0.0,17.0,408.0
2022-01-24-12:00:01.240573,1.0,7.0,408.0
2022-01-24-12:00:01.241604,6.0,1.0,409.0
2022-01-24-12:00:01.242593,6.0,1.0,409.0
2022-01-24-12:00:01.244589,1.0,11.0,408.0
2022-01-24-12:00:01.244589,9.0,20.0,408.0
2022-01-24-12:00:01.245560,9.0,20.0,408.0
2022-01-24-12:00:01.246557,9.0,20.0,408.0
2022-01-24-12:00:01.247608,9.0,20.0,408.0
2022-01-24-12:00:01.248614,12.0,13.0,408.0
2022-01-24-12:00:01.249550,18.0,4.0,408.0
2022-01-24-12:00:01.250595,7.0,8.0,408.0
2022-01-24-12:00:01.251544,7.0,8.0,408.0
2022-01-24-12:00:01.252542,5.0,12.0,408.0
2022-01-24-12:00:01.253564,5.0,12.0,408.0
2022-01-24-12:00:01.254536,5.0,12.0,408.0
2022-01-24-12:00:01.255533,5.0,12.0,408.0
2022-01-24-12:00:01.256530,0.0,20.0,408.0
2022-01-24-12:00:01.257554,6.0,12.0,408.0
2022-01-24-12:00:01.258525,6.0,12.0,408.0
2022-01-24-12:00:01.259550,6.0,12.0,408.0
2022-01-24-12:00:01.260521,2.0,3.0,408.0
2022-01-24-12:00:01.261542,1.0,10.0,408.0
2022-01-24-12:00:01.262541,6.0,7.0,409.0
2022-01-24-12:00:01.263512,6.0,7.0,409.0
2022-01-24-12:00:01.264535,17.0,10.0,408.0
2022-01-24-12:00:01.265540,12.0,17.0,408.0
2022-01-24-12:00:01.266506,12.0,17.0,408.0
2022-01-24-12:00:01.267529,12.0,17.0,408.0
2022-01-24-12:00:01.268525,11.0,20.0,408.0
2022-01-24-12:00:01.269523,1.0,13.0,409.0
2022-01-24-12:00:01.270520,3.0,4.0,408.0
2022-01-24-12:00:01.271491,3.0,4.0,408.0
2022-01-24-12:00:01.272513,0.0,4.0,408.0
2022-01-24-12:00:01.273510,1.0,7.0,408.0
2022-01-24-12:00:01.274483,1.0,7.0,408.0
2022-01-24-12:00:01.275480,1.0,7.0,408.0
2022-01-24-12:00:01.276504,5.0,10.0,408.0
2022-01-24-12:00:01.278472,1.0,8.0,409.0
2022-01-24-12:00:01.278472,6.0,8.0,408.0
2022-01-24-12:00:01.279495,6.0,8.0,408.0
2022-01-24-12:00:01.280467,10.0,5.0,408.0
2022-01-24-12:00:01.281464,14.0,21.0,408.0
2022-01-24-12:00:01.282509,16.0,18.0,408.0
2022-01-24-12:00:01.283461,16.0,18.0,408.0
2022-01-24-12:00:01.284486,16.0,18.0,408.0
2022-01-24-12:00:01.285486,5.0,7.0,408.0
2022-01-24-12:00:01.286478,6.0,3.0,408.0
2022-01-24-12:00:01.287473,6.0,3.0,408.0
2022-01-24-12:00:01.288470,6.0,3.0,408.0
2022-01-24-12:00:01.289467,1.0,1.0,408.0
2022-01-24-12:00:01.290440,1.0,16.0,408.0
2022-01-24-12:00:01.291438,4.0,17.0,408.0
2022-01-24-12:00:01.292435,4.0,17.0,408.0
2022-01-24-12:00:01.293457,2.0,1.0,408.0
2022-01-24-12:00:01.294430,4.0,7.0,408.0
2022-01-24-12:00:01.295429,4.0,7.0,408.0
2022-01-24-12:00:01.296449,4.0,7.0,408.0
2022-01-24-12:00:01.297421,16.0,4.0,408.0
2022-01-24-12:00:01.298419,16.0,10.0,408.0
2022-01-24-12:00:01.299416,16.0,10.0,408.0
2022-01-24-12:00:01.300414,16.0,10.0,408.0
2022-01-24-12:00:01.301436,5.0,15.0,409.0
2022-01-24-12:00:01.302408,2.0,6.0,408.0
2022-01-24-12:00:01.303430,2.0,6.0,408.0
2022-01-24-12:00:01.304428,2.0,6.0,408.0
2022-01-24-12:00:01.305400,5.0,11.0,408.0
2022-01-24-12:00:01.306397,2.0,18.0,408.0
2022-01-24-12:00:01.307395,1.0,17.0,408.0
2022-01-24-12:00:01.308392,0.0,18.0,408.0
2022-01-24-12:00:01.310414,5.0,6.0,408.0
2022-01-24-12:00:01.310414,3.0,2.0,408.0
2022-01-24-12:00:01.311418,3.0,2.0,408.0
2022-01-24-12:00:01.312382,3.0,2.0,408.0
2022-01-24-12:00:01.313408,11.0,1.0,408.0
2022-01-24-12:00:01.314401,13.0,8.0,408.0
2022-01-24-12:00:01.315409,13.0,8.0,408.0
2022-01-24-12:00:01.316372,13.0,8.0,408.0
2022-01-24-12:00:01.317394,2.0,4.0,409.0
2022-01-24-12:00:01.318366,4.0,2.0,408.0
2022-01-24-12:00:01.319363,4.0,2.0,408.0
2022-01-24-12:00:01.320378,4.0,2.0,408.0
2022-01-24-12:00:01.321387,2.0,5.0,409.0
2022-01-24-12:00:01.322355,3.0,4.0,408.0
2022-01-24-12:00:01.323352,1.0,5.0,408.0
2022-01-24-12:00:01.324376,1.0,5.0,408.0
2022-01-24-12:00:01.325347,1.0,5.0,408.0
2022-01-24-12:00:01.326344,4.0,1.0,408.0
2022-01-24-12:00:01.327368,4.0,1.0,408.0
2022-01-24-12:00:01.328364,0.0,3.0,408.0
2022-01-24-12:00:01.329362,1.0,3.0,408.0
2022-01-24-12:00:01.330360,15.0,0.0,408.0
2022-01-24-12:00:01.331358,19.0,3.0,408.0
2022-01-24-12:00:01.332354,19.0,3.0,408.0
2022-01-24-12:00:01.333351,19.0,3.0,408.0
2022-01-24-12:00:01.334350,10.0,10.0,408.0
2022-01-24-12:00:01.335320,5.0,10.0,408.0
2022-01-24-12:00:01.336318,4.0,10.0,408.0
2022-01-24-12:00:01.337339,4.0,10.0,408.0
2022-01-24-12:00:01.338312,1.0,11.0,409.0
2022-01-24-12:00:01.339309,2.0,13.0,408.0
2022-01-24-12:00:01.340337,2.0,13.0,408.0
2022-01-24-12:00:01.341329,2.0,13.0,408.0
2022-01-24-12:00:01.342302,0.0,8.0,408.0
2022-01-24-12:00:01.343299,6.0,3.0,408.0
2022-01-24-12:00:01.344321,1.0,10.0,408.0
2022-01-24-12:00:01.345293,1.0,13.0,408.0
2022-01-24-12:00:01.346291,10.0,22.0,409.0
2022-01-24-12:00:01.347288,13.0,2.0,408.0
2022-01-24-12:00:01.349283,13.0,2.0,408.0
2022-01-24-12:00:01.349283,13.0,2.0,408.0
2022-01-24-12:00:01.350280,15.0,7.0,408.0
2022-01-24-12:00:01.351303,6.0,19.0,408.0
2022-01-24-12:00:01.352275,6.0,19.0,408.0
2022-01-24-12:00:01.353272,6.0,19.0,408.0
2022-01-24-12:00:01.354269,1.0,22.0,408.0
2022-01-24-12:00:01.355267,1.0,21.0,408.0
2022-01-24-12:00:01.356293,3.0,18.0,408.0
2022-01-24-12:00:01.357262,3.0,18.0,408.0
2022-01-24-12:00:01.358286,4.0,1.0,408.0
2022-01-24-12:00:01.359282,2.0,14.0,408.0
2022-01-24-12:00:01.360278,2.0,14.0,408.0
2022-01-24-12:00:01.361280,2.0,14.0,408.0
2022-01-24-12:00:01.362247,5.0,14.0,408.0
2022-01-24-12:00:01.363273,5.0,14.0,408.0
2022-01-24-12:00:01.364243,11.0,9.0,408.0
2022-01-24-12:00:01.365240,13.0,2.0,408.0
2022-01-24-12:00:01.366269,13.0,2.0,408.0
2022-01-24-12:00:01.367234,17.0,6.0,408.0
2022-01-24-12:00:01.368232,17.0,6.0,408.0
2022-01-24-12:00:01.369229,7.0,11.0,408.0
2022-01-24-12:00:01.370226,7.0,11.0,408.0
2022-01-24-12:00:01.371224,7.0,11.0,408.0
2022-01-24-12:00:01.372223,2.0,8.0,408.0
2022-01-24-12:00:01.373218,2.0,7.0,408.0
2022-01-24-12:00:01.374216,1.0,11.0,408.0
2022-01-24-12:00:01.375214,2.0,6.0,408.0
2022-01-24-12:00:01.376210,2.0,9.0,408.0
2022-01-24-12:00:01.377209,2.0,9.0,408.0
2022-01-24-12:00:01.378205,2.0,9.0,408.0
2022-01-24-12:00:01.379202,9.0,17.0,408.0
2022-01-24-12:00:01.380199,18.0,9.0,409.0
2022-01-24-12:00:01.382223,18.0,9.0,409.0
2022-01-24-12:00:01.382223,18.0,9.0,409.0
2022-01-24-12:00:01.383219,10.0,16.0,409.0
2022-01-24-12:00:01.384189,7.0,18.0,409.0
2022-01-24-12:00:01.385187,5.0,19.0,408.0
2022-01-24-12:00:01.386184,5.0,19.0,408.0
2022-01-24-12:00:01.387182,0.0,26.0,409.0
2022-01-24-12:00:01.388179,4.0,24.0,409.0
2022-01-24-12:00:01.389176,1.0,14.0,408.0
2022-01-24-12:00:01.390174,1.0,14.0,408.0
2022-01-24-12:00:01.391171,3.0,6.0,408.0
2022-01-24-12:00:01.392168,3.0,6.0,408.0
2022-01-24-12:00:01.393165,1.0,7.0,408.0
2022-01-24-12:00:01.394162,2.0,10.0,408.0
2022-01-24-12:00:01.395160,9.0,11.0,408.0
2022-01-24-12:00:01.396158,8.0,11.0,408.0
2022-01-24-12:00:01.397155,15.0,6.0,408.0
2022-01-24-12:00:01.398153,16.0,6.0,408.0
2022-01-24-12:00:01.399150,14.0,4.0,408.0
2022-01-24-12:00:01.400147,9.0,6.0,409.0
2022-01-24-12:00:01.401144,6.0,10.0,408.0
2022-01-24-12:00:01.402141,6.0,10.0,408.0
2022-01-24-12:00:01.403139,6.0,10.0,408.0
2022-01-24-12:00:01.404137,3.0,13.0,408.0
2022-01-24-12:00:01.405166,3.0,17.0,408.0
2022-01-24-12:00:01.406165,4.0,14.0,408.0
2022-01-24-12:00:01.407160,0.0,23.0,409.0
2022-01-24-12:00:01.408166,2.0,17.0,408.0
2022-01-24-12:00:01.409154,4.0,6.0,408.0
2022-01-24-12:00:01.410156,6.0,5.0,408.0
2022-01-24-12:00:01.411117,2.0,12.0,408.0
2022-01-24-12:00:01.412139,2.0,12.0,408.0
2022-01-24-12:00:01.413137,0.0,26.0,408.0
2022-01-24-12:00:01.414109,9.0,16.0,408.0
2022-01-24-12:00:01.415107,9.0,11.0,408.0
2022-01-24-12:00:01.416104,16.0,1.0,408.0
2022-01-24-12:00:01.418098,14.0,12.0,408.0
2022-01-24-12:00:01.418098,6.0,12.0,409.0
2022-01-24-12:00:01.419096,8.0,17.0,408.0
2022-01-24-12:00:01.420093,3.0,13.0,409.0
2022-01-24-12:00:01.421117,5.0,5.0,408.0
2022-01-24-12:00:01.422088,3.0,11.0,408.0
2022-01-24-12:00:01.423086,3.0,11.0,408.0
2022-01-24-12:00:01.424082,1.0,9.0,409.0
2022-01-24-12:00:01.425079,3.0,0.0,408.0
2022-01-24-12:00:01.426077,4.0,17.0,408.0
2022-01-24-12:00:01.427075,4.0,17.0,408.0
2022-01-24-12:00:01.428071,1.0,17.0,408.0
2022-01-24-12:00:01.429069,5.0,14.0,408.0
2022-01-24-12:00:01.430066,14.0,3.0,408.0
2022-01-24-12:00:01.431065,14.0,3.0,408.0
2022-01-24-12:00:01.432067,11.0,8.0,409.0
2022-01-24-12:00:01.433060,12.0,10.0,408.0
2022-01-24-12:00:01.434088,8.0,17.0,408.0
2022-01-24-12:00:01.435081,8.0,17.0,408.0
2022-01-24-12:00:01.436081,8.0,17.0,408.0
2022-01-24-12:00:01.437072,8.0,26.0,408.0
2022-01-24-12:00:01.438072,2.0,24.0,408.0
2022-01-24-12:00:01.439067,2.0,24.0,408.0
2022-01-24-12:00:01.440064,2.0,24.0,408.0
2022-01-24-12:00:01.441066,4.0,4.0,408.0
2022-01-24-12:00:01.442059,0.0,20.0,408.0
2022-01-24-12:00:01.443059,0.0,20.0,408.0
2022-01-24-12:00:01.444053,0.0,20.0,408.0
2022-01-24-12:00:01.445051,0.0,21.0,409.0
2022-01-24-12:00:01.446051,10.0,9.0,408.0
2022-01-24-12:00:01.447047,7.0,5.0,408.0
2022-01-24-12:00:01.448044,7.0,5.0,408.0
2022-01-24-12:00:01.449045,11.0,9.0,408.0
2022-01-24-12:00:01.451038,9.0,17.0,408.0
2022-01-24-12:00:01.451038,9.0,11.0,408.0
2022-01-24-12:00:01.452034,9.0,11.0,408.0
2022-01-24-12:00:01.453030,1.0,1.0,408.0
2022-01-24-12:00:01.454048,1.0,1.0,408.0
2022-01-24-12:00:01.455047,1.0,1.0,408.0
2022-01-24-12:00:01.456043,1.0,1.0,408.0
2022-01-24-12:00:01.457040,1.0,8.0,408.0
2022-01-24-12:00:01.458040,3.0,2.0,408.0
2022-01-24-12:00:01.459035,5.0,4.0,408.0
2022-01-24-12:00:01.459987,5.0,4.0,408.0
2022-01-24-12:00:01.461029,0.0,8.0,408.0
2022-01-24-12:00:01.462027,6.0,20.0,408.0
2022-01-24-12:00:01.463031,9.0,15.0,408.0
2022-01-24-12:00:01.463976,9.0,15.0,408.0
2022-01-24-12:00:01.465018,15.0,1.0,408.0
2022-01-24-12:00:01.466019,6.0,12.0,409.0
2022-01-24-12:00:01.467014,7.0,11.0,408.0
2022-01-24-12:00:01.467986,7.0,11.0,408.0
2022-01-24-12:00:01.469009,4.0,11.0,409.0
2022-01-24-12:00:01.470005,4.0,16.0,408.0
2022-01-24-12:00:01.471005,4.0,16.0,408.0
2022-01-24-12:00:01.472000,4.0,16.0,408.0
2022-01-24-12:00:01.472997,4.0,16.0,408.0
2022-01-24-12:00:01.473997,1.0,18.0,408.0
2022-01-24-12:00:01.474992,3.0,1.0,408.0
2022-01-24-12:00:01.475989,3.0,1.0,408.0
2022-01-24-12:00:01.476987,3.0,1.0,408.0
2022-01-24-12:00:01.477994,3.0,8.0,408.0
2022-01-24-12:00:01.479058,8.0,8.0,408.0
2022-01-24-12:00:01.479058,8.0,8.0,408.0
2022-01-24-12:00:01.480083,8.0,8.0,408.0
2022-01-24-12:00:01.481250,8.0,8.0,408.0
2022-01-24-12:00:01.481250,15.0,1.0,408.0
2022-01-24-12:00:01.482244,16.0,5.0,408.0
2022-01-24-12:00:01.483268,6.0,11.0,408.0
2022-01-24-12:00:01.485240,6.0,11.0,408.0
2022-01-24-12:00:01.485789,6.0,12.0,408.0
2022-01-24-12:00:01.485789,2.0,6.0,408.0
2022-01-24-12:00:01.486835,2.0,6.0,408.0
2022-01-24-12:00:01.487830,4.0,2.0,408.0
2022-01-24-12:00:01.488830,4.0,2.0,408.0
2022-01-24-12:00:01.489827,5.0,11.0,408.0
2022-01-24-12:00:01.490828,0.0,4.0,408.0
2022-01-24-12:00:01.491819,8.0,0.0,408.0
2022-01-24-12:00:01.492798,8.0,0.0,408.0
2022-01-24-12:00:01.493770,5.0,5.0,408.0
2022-01-24-12:00:01.494814,4.0,9.0,408.0
2022-01-24-12:00:01.495810,6.0,8.0,408.0
2022-01-24-12:00:01.496763,6.0,8.0,408.0
2022-01-24-12:00:01.497810,13.0,0.0,408.0
2022-01-24-12:00:01.498802,16.0,10.0,408.0
2022-01-24-12:00:01.499799,10.0,6.0,409.0
2022-01-24-12:00:01.500750,10.0,6.0,409.0
2022-01-24-12:00:01.501749,6.0,6.0,408.0
2022-01-24-12:00:01.502762,2.0,7.0,408.0
2022-01-24-12:00:01.503767,4.0,2.0,408.0
2022-01-24-12:00:01.504767,4.0,2.0,408.0
2022-01-24-12:00:01.505763,1.0,4.0,408.0
2022-01-24-12:00:01.506761,1.0,4.0,408.0
2022-01-24-12:00:01.507758,3.0,0.0,409.0
2022-01-24-12:00:01.508755,3.0,0.0,409.0
2022-01-24-12:00:01.509755,3.0,0.0,409.0
2022-01-24-12:00:01.510749,3.0,0.0,408.0
2022-01-24-12:00:01.511747,1.0,2.0,408.0
2022-01-24-12:00:01.512747,5.0,3.0,408.0
2022-01-24-12:00:01.513741,5.0,3.0,408.0
2022-01-24-12:00:01.514742,12.0,5.0,408.0
2022-01-24-12:00:01.515736,16.0,27.0,409.0
2022-01-24-12:00:01.516733,12.0,20.0,408.0
2022-01-24-12:00:01.517732,12.0,20.0,408.0
2022-01-24-12:00:01.518704,8.0,15.0,408.0
2022-01-24-12:00:01.519725,1.0,18.0,408.0
2022-01-24-12:00:01.520725,1.0,18.0,408.0
2022-01-24-12:00:01.522738,1.0,18.0,408.0
2022-01-24-12:00:01.522738,3.0,10.0,409.0
2022-01-24-12:00:01.523715,3.0,11.0,409.0
2022-01-24-12:00:01.524712,3.0,11.0,409.0
2022-01-24-12:00:01.525701,3.0,11.0,409.0
2022-01-24-12:00:01.526709,2.0,16.0,408.0
2022-01-24-12:00:01.527704,8.0,3.0,408.0
2022-01-24-12:00:01.528723,8.0,3.0,408.0
2022-01-24-12:00:01.529720,8.0,3.0,408.0
2022-01-24-12:00:01.530716,11.0,2.0,408.0
2022-01-24-12:00:01.531713,17.0,13.0,408.0
2022-01-24-12:00:01.532711,14.0,12.0,408.0
2022-01-24-12:00:01.533664,14.0,12.0,408.0
2022-01-24-12:00:01.534707,1.0,9.0,408.0
2022-01-24-12:00:01.535759,4.0,8.0,408.0
2022-01-24-12:00:01.535759,4.0,8.0,408.0
2022-01-24-12:00:01.536759,4.0,8.0,408.0
2022-01-24-12:00:01.537757,4.0,8.0,408.0
2022-01-24-12:00:01.538779,3.0,8.0,408.0
2022-01-24-12:00:01.539750,0.0,7.0,408.0
2022-01-24-12:00:01.540773,0.0,7.0,408.0
2022-01-24-12:00:01.541746,0.0,7.0,408.0
2022-01-24-12:00:01.542771,4.0,7.0,408.0
2022-01-24-12:00:01.543929,3.0,12.0,409.0
2022-01-24-12:00:01.544063,5.0,7.0,409.0
2022-01-24-12:00:01.544063,5.0,7.0,409.0
2022-01-24-12:00:01.545088,5.0,7.0,409.0
2022-01-24-12:00:01.546084,5.0,7.0,409.0
2022-01-24-12:00:01.547266,5.0,3.0,408.0
2022-01-24-12:00:01.547266,12.0,7.0,408.0
2022-01-24-12:00:01.548384,15.0,24.0,408.0
2022-01-24-12:00:01.548384,15.0,24.0,408.0
2022-01-24-12:00:01.549408,15.0,24.0,408.0
2022-01-24-12:00:01.550408,15.0,24.0,408.0
2022-01-24-12:00:01.552401,9.0,14.0,408.0
2022-01-24-12:00:01.552401,4.0,14.0,408.0
2022-01-24-12:00:01.553417,4.0,14.0,408.0
2022-01-24-12:00:01.554370,4.0,14.0,408.0
2022-01-24-12:00:01.555368,4.0,15.0,408.0
2022-01-24-12:00:01.556365,0.0,13.0,408.0
2022-01-24-12:00:01.557400,1.0,12.0,408.0
2022-01-24-12:00:01.558564,0.0,8.0,408.0
2022-01-24-12:00:01.558564,2.0,7.0,408.0
2022-01-24-12:00:01.559603,5.0,8.0,408.0
2022-01-24-12:00:01.560595,3.0,12.0,408.0
2022-01-24-12:00:01.561595,3.0,12.0,408.0
2022-01-24-12:00:01.562589,3.0,12.0,408.0
2022-01-24-12:00:01.563593,9.0,7.0,408.0
2022-01-24-12:00:01.564585,6.0,2.0,408.0
2022-01-24-12:00:01.565581,16.0,13.0,408.0
2022-01-24-12:00:01.566578,16.0,13.0,408.0
2022-01-24-12:00:01.567576,9.0,13.0,408.0
2022-01-24-12:00:01.568541,9.0,13.0,408.0
2022-01-24-12:00:01.569562,4.0,3.0,409.0
2022-01-24-12:00:01.570535,2.0,2.0,409.0
2022-01-24-12:00:01.571557,2.0,2.0,409.0
2022-01-24-12:00:01.572556,5.0,9.0,408.0
2022-01-24-12:00:01.573552,2.0,2.0,408.0
2022-01-24-12:00:01.574524,2.0,2.0,408.0
2022-01-24-12:00:01.575547,2.0,0.0,409.0
2022-01-24-12:00:01.576544,5.0,10.0,408.0
2022-01-24-12:00:01.577541,0.0,7.0,408.0
2022-01-24-12:00:01.578554,0.0,7.0,408.0
2022-01-24-12:00:01.579536,9.0,8.0,408.0
2022-01-24-12:00:01.580534,17.0,10.0,408.0
2022-01-24-12:00:01.581533,14.0,14.0,408.0
2022-01-24-12:00:01.582528,14.0,14.0,408.0
2022-01-24-12:00:01.583527,14.0,14.0,408.0
2022-01-24-12:00:01.584524,5.0,16.0,408.0
2022-01-24-12:00:01.585495,1.0,10.0,408.0
2022-01-24-12:00:01.586518,0.0,8.0,408.0
2022-01-24-12:00:01.588533,0.0,8.0,408.0
2022-01-24-12:00:01.588533,3.0,9.0,408.0
2022-01-24-12:00:01.589533,3.0,9.0,408.0
2022-01-24-12:00:01.590528,0.0,8.0,408.0
2022-01-24-12:00:01.591526,0.0,8.0,408.0
2022-01-24-12:00:01.592529,1.0,4.0,408.0
2022-01-24-12:00:01.593520,5.0,10.0,408.0
2022-01-24-12:00:01.594518,2.0,10.0,408.0
2022-01-24-12:00:01.595514,2.0,10.0,408.0
2022-01-24-12:00:01.596512,10.0,8.0,408.0
2022-01-24-12:00:01.597509,10.0,2.0,408.0
2022-01-24-12:00:01.598506,16.0,5.0,408.0
2022-01-24-12:00:01.599505,16.0,5.0,408.0
2022-01-24-12:00:01.600504,16.0,14.0,409.0
2022-01-24-12:00:01.601499,9.0,10.0,408.0
2022-01-24-12:00:01.603449,6.0,9.0,408.0
2022-01-24-12:00:01.603449,2.0,15.0,409.0
2022-01-24-12:00:01.604443,3.0,8.0,408.0
2022-01-24-12:00:01.605491,3.0,8.0,408.0
2022-01-24-12:00:01.606439,3.0,8.0,408.0
2022-01-24-12:00:01.607436,3.0,8.0,408.0
2022-01-24-12:00:01.608482,2.0,2.0,408.0
2022-01-24-12:00:01.609476,3.0,12.0,408.0
2022-01-24-12:00:01.610474,2.0,8.0,408.0
2022-01-24-12:00:01.611425,2.0,8.0,408.0
2022-01-24-12:00:01.612469,9.0,7.0,408.0
2022-01-24-12:00:01.613465,17.0,5.0,408.0
2022-01-24-12:00:01.614462,15.0,15.0,408.0
2022-01-24-12:00:01.615441,15.0,15.0,408.0
2022-01-24-12:00:01.616437,11.0,17.0,408.0
2022-01-24-12:00:01.617456,7.0,15.0,408.0
2022-01-24-12:00:01.618454,6.0,11.0,408.0
2022-01-24-12:00:01.619435,6.0,11.0,408.0
2022-01-24-12:00:01.620448,6.0,11.0,408.0
2022-01-24-12:00:01.622426,2.0,5.0,408.0
2022-01-24-12:00:01.622426,2.0,5.0,408.0
2022-01-24-12:00:01.623441,2.0,5.0,408.0
2022-01-24-12:00:01.624441,2.0,2.0,408.0
2022-01-24-12:00:01.625435,1.0,17.0,408.0
2022-01-24-12:00:01.626432,1.0,17.0,408.0
2022-01-24-12:00:01.627429,1.0,17.0,408.0
2022-01-24-12:00:01.628426,1.0,17.0,408.0
2022-01-24-12:00:01.629432,5.0,16.0,408.0
2022-01-24-12:00:01.630421,12.0,7.0,409.0
2022-01-24-12:00:01.631419,18.0,16.0,408.0
2022-01-24-12:00:01.632418,18.0,16.0,408.0
2022-01-24-12:00:01.633413,16.0,15.0,408.0
2022-01-24-12:00:01.634363,6.0,13.0,408.0
2022-01-24-12:00:01.635360,4.0,14.0,408.0
2022-01-24-12:00:01.636358,4.0,14.0,408.0
2022-01-24-12:00:01.637355,3.0,10.0,408.0
2022-01-24-12:00:01.638353,1.0,9.0,408.0
2022-01-24-12:00:01.639350,1.0,9.0,408.0
2022-01-24-12:00:01.640381,1.0,9.0,408.0
2022-01-24-12:00:01.641377,1.0,6.0,408.0
2022-01-24-12:00:01.642375,4.0,3.0,408.0
2022-01-24-12:00:01.643372,1.0,7.0,408.0
2022-01-24-12:00:01.644378,1.0,7.0,408.0
2022-01-24-12:00:01.645366,7.0,10.0,408.0
2022-01-24-12:00:01.646364,13.0,1.0,408.0
2022-01-24-12:00:01.647362,13.0,7.0,408.0
2022-01-24-12:00:01.648327,13.0,7.0,408.0
2022-01-24-12:00:01.649356,12.0,9.0,408.0
2022-01-24-12:00:01.650354,3.0,6.0,408.0
2022-01-24-12:00:01.651350,3.0,6.0,408.0
2022-01-24-12:00:01.652346,3.0,6.0,408.0
2022-01-24-12:00:01.653346,2.0,6.0,408.0
2022-01-24-12:00:01.654342,2.0,6.0,408.0
2022-01-24-12:00:01.656337,0.0,17.0,408.0
2022-01-24-12:00:01.656337,0.0,13.0,408.0
2022-01-24-12:00:01.657303,4.0,5.0,408.0
2022-01-24-12:00:01.658332,3.0,15.0,408.0
2022-01-24-12:00:01.659329,3.0,15.0,408.0
2022-01-24-12:00:01.660329,3.0,15.0,408.0
2022-01-24-12:00:01.661330,3.0,15.0,408.0
2022-01-24-12:00:01.662321,5.0,9.0,409.0
2022-01-24-12:00:01.663319,18.0,4.0,408.0
2022-01-24-12:00:01.664316,18.0,4.0,408.0
2022-01-24-12:00:01.665314,18.0,4.0,408.0
2022-01-24-12:00:01.666311,13.0,15.0,408.0
2022-01-24-12:00:01.667308,7.0,21.0,408.0
2022-01-24-12:00:01.668292,9.0,15.0,408.0
2022-01-24-12:00:01.669305,9.0,15.0,408.0
2022-01-24-12:00:01.670292,5.0,15.0,408.0
2022-01-24-12:00:01.671290,5.0,15.0,408.0
2022-01-24-12:00:01.672287,3.0,10.0,409.0
2022-01-24-12:00:01.673285,3.0,10.0,409.0
2022-01-24-12:00:01.674281,1.0,9.0,408.0
2022-01-24-12:00:01.675278,5.0,30.0,409.0
2022-01-24-12:00:01.676279,5.0,30.0,409.0
2022-01-24-12:00:01.677273,5.0,30.0,409.0
2022-01-24-12:00:01.678271,4.0,34.0,408.0
2022-01-24-12:00:01.679269,8.0,13.0,408.0
2022-01-24-12:00:01.680241,9.0,10.0,408.0
2022-01-24-12:00:01.681267,9.0,10.0,408.0
2022-01-24-12:00:01.682260,14.0,29.0,408.0
2022-01-24-12:00:01.683257,9.0,30.0,408.0
2022-01-24-12:00:01.684257,6.0,25.0,408.0
2022-01-24-12:00:01.685227,6.0,25.0,408.0
2022-01-24-12:00:01.686246,1.0,18.0,408.0
2022-01-24-12:00:01.687247,2.0,20.0,408.0
2022-01-24-12:00:01.688244,2.0,20.0,408.0
2022-01-24-12:00:01.689217,2.0,20.0,408.0
2022-01-24-12:00:01.690239,2.0,20.0,408.0
2022-01-24-12:00:01.692238,3.0,14.0,408.0
2022-01-24-12:00:01.692238,3.0,14.0,408.0
2022-01-24-12:00:01.693231,3.0,14.0,408.0
2022-01-24-12:00:01.694229,3.0,14.0,408.0
2022-01-24-12:00:01.695226,8.0,23.0,408.0
2022-01-24-12:00:01.696223,11.0,12.0,409.0
2022-01-24-12:00:01.697225,11.0,12.0,409.0
2022-01-24-12:00:01.698217,16.0,5.0,408.0
2022-01-24-12:00:01.699215,7.0,19.0,408.0
2022-01-24-12:00:01.700214,7.0,19.0,408.0
2022-01-24-12:00:01.701209,7.0,19.0,408.0
2022-01-24-12:00:01.702209,7.0,19.0,408.0
2022-01-24-12:00:01.703209,7.0,28.0,409.0
2022-01-24-12:00:01.704201,0.0,29.0,408.0
2022-01-24-12:00:01.705199,0.0,29.0,408.0
2022-01-24-12:00:01.706197,0.0,29.0,408.0
2022-01-24-12:00:01.707292,4.0,10.0,408.0
2022-01-24-12:00:01.707292,7.0,14.0,408.0
2022-01-24-12:00:01.708339,7.0,14.0,408.0
2022-01-24-12:00:01.709336,7.0,14.0,408.0
2022-01-24-12:00:01.710334,7.0,14.0,408.0
2022-01-24-12:00:01.711331,5.0,19.0,408.0
2022-01-24-12:00:01.712308,0.0,13.0,409.0
2022-01-24-12:00:01.713304,7.0,10.0,408.0
2022-01-24-12:00:01.714545,13.0,4.0,408.0
2022-01-24-12:00:01.714545,15.0,18.0,408.0
2022-01-24-12:00:01.715655,9.0,10.0,408.0
2022-01-24-12:00:01.715655,9.0,10.0,408.0
2022-01-24-12:00:01.716681,9.0,10.0,408.0
2022-01-24-12:00:01.717678,9.0,10.0,408.0
2022-01-24-12:00:01.718674,9.0,10.0,408.0
2022-01-24-12:00:01.719648,1.0,11.0,408.0
2022-01-24-12:00:01.720690,3.0,7.0,408.0
2022-01-24-12:00:01.721687,3.0,7.0,408.0
2022-01-24-12:00:01.723662,2.0,12.0,408.0
2022-01-24-12:00:01.723662,2.0,12.0,408.0
2022-01-24-12:00:01.724866,1.0,7.0,408.0
2022-01-24-12:00:01.724866,3.0,1.0,408.0
2022-01-24-12:00:01.725897,3.0,1.0,408.0
2022-01-24-12:00:01.726897,3.0,1.0,408.0
2022-01-24-12:00:01.727860,6.0,10.0,408.0
2022-01-24-12:00:01.728892,6.0,17.0,408.0
2022-01-24-12:00:01.729888,6.0,17.0,408.0
2022-01-24-12:00:01.730886,6.0,17.0,408.0
2022-01-24-12:00:01.731883,15.0,14.0,408.0
2022-01-24-12:00:01.732880,16.0,6.0,409.0
2022-01-24-12:00:01.733878,12.0,4.0,408.0
2022-01-24-12:00:01.734878,12.0,4.0,408.0
2022-01-24-12:00:01.735839,7.0,12.0,408.0
2022-01-24-12:00:01.736871,4.0,23.0,409.0
2022-01-24-12:00:01.737868,1.0,21.0,409.0
2022-01-24-12:00:01.738864,1.0,21.0,409.0
2022-01-24-12:00:01.739863,1.0,22.0,408.0
2022-01-24-12:00:01.740852,6.0,12.0,408.0
2022-01-24-12:00:01.741848,6.0,12.0,408.0
2022-01-24-12:00:01.742849,6.0,12.0,408.0
2022-01-24-12:00:01.743843,8.0,3.0,408.0
2022-01-24-12:00:01.744841,4.0,13.0,408.0
2022-01-24-12:00:01.745838,5.0,8.0,408.0
2022-01-24-12:00:01.746836,5.0,8.0,408.0
2022-01-24-12:00:01.747833,7.0,1.0,408.0
2022-01-24-12:00:01.748830,11.0,13.0,408.0
2022-01-24-12:00:01.749827,6.0,17.0,408.0
2022-01-24-12:00:01.750799,6.0,17.0,408.0
2022-01-24-12:00:01.751824,9.0,11.0,408.0
2022-01-24-12:00:01.752835,6.0,2.0,408.0
2022-01-24-12:00:01.753816,4.0,1.0,408.0
2022-01-24-12:00:01.754788,4.0,1.0,408.0
2022-01-24-12:00:01.755812,2.0,2.0,408.0
2022-01-24-12:00:01.757827,1.0,1.0,408.0
2022-01-24-12:00:01.757827,1.0,1.0,408.0
2022-01-24-12:00:01.758822,1.0,1.0,408.0
2022-01-24-12:00:01.759821,2.0,13.0,408.0
2022-01-24-12:00:01.760820,2.0,13.0,408.0
2022-01-24-12:00:01.761816,5.0,9.0,408.0
2022-01-24-12:00:01.762814,5.0,9.0,408.0
2022-01-24-12:00:01.763811,5.0,9.0,408.0
2022-01-24-12:00:01.764808,17.0,4.0,408.0
2022-01-24-12:00:01.765805,13.0,8.0,408.0
2022-01-24-12:00:01.766805,13.0,8.0,408.0
2022-01-24-12:00:01.767800,13.0,8.0,408.0
2022-01-24-12:00:01.768751,9.0,8.0,408.0
2022-01-24-12:00:01.769794,2.0,14.0,408.0
2022-01-24-12:00:01.770792,2.0,15.0,408.0
2022-01-24-12:00:01.771789,2.0,15.0,408.0
2022-01-24-12:00:01.772791,3.0,21.0,408.0
2022-01-24-12:00:01.773784,1.0,8.0,408.0
2022-01-24-12:00:01.774784,1.0,8.0,408.0
2022-01-24-12:00:01.775778,1.0,8.0,408.0
2022-01-24-12:00:01.776776,6.0,3.0,408.0
2022-01-24-12:00:01.777773,1.0,15.0,408.0
2022-01-24-12:00:01.778770,6.0,13.0,408.0
2022-01-24-12:00:01.779769,6.0,13.0,408.0
2022-01-24-12:00:01.780765,7.0,5.0,408.0
2022-01-24-12:00:01.781763,13.0,8.0,408.0
2022-01-24-12:00:01.782762,12.0,15.0,408.0
2022-01-24-12:00:01.783758,12.0,15.0,408.0
2022-01-24-12:00:01.784755,8.0,13.0,409.0
2022-01-24-12:00:01.785705,2.0,1.0,408.0
2022-01-24-12:00:01.786750,6.0,2.0,408.0
2022-01-24-12:00:01.787747,6.0,2.0,408.0
2022-01-24-12:00:01.788744,4.0,1.0,408.0
2022-01-24-12:00:01.789741,4.0,1.0,408.0
2022-01-24-12:00:01.790742,1.0,10.0,409.0
2022-01-24-12:00:01.791689,3.0,9.0,408.0
2022-01-24-12:00:01.793723,3.0,9.0,408.0
2022-01-24-12:00:01.793723,0.0,3.0,408.0
2022-01-24-12:00:01.794830,6.0,3.0,408.0
2022-01-24-12:00:01.794830,6.0,3.0,408.0
2022-01-24-12:00:01.795831,6.0,3.0,408.0
2022-01-24-12:00:01.797037,6.0,6.0,409.0
2022-01-24-12:00:01.797037,8.0,4.0,408.0
2022-01-24-12:00:01.798169,17.0,5.0,408.0
2022-01-24-12:00:01.798169,17.0,5.0,408.0
2022-01-24-12:00:01.799217,17.0,5.0,408.0
2022-01-24-12:00:01.800213,17.0,5.0,408.0
2022-01-24-12:00:01.801373,12.0,1.0,408.0
2022-01-24-12:00:01.801373,5.0,1.0,408.0
2022-01-24-12:00:01.802508,2.0,15.0,408.0
2022-01-24-12:00:01.802508,2.0,15.0,408.0
2022-01-24-12:00:01.803554,2.0,15.0,408.0
2022-01-24-12:00:01.804552,2.0,15.0,408.0
2022-01-24-12:00:01.805504,1.0,24.0,409.0
2022-01-24-12:00:01.806526,1.0,24.0,409.0
2022-01-24-12:00:01.807534,0.0,20.0,409.0
2022-01-24-12:00:01.808676,4.0,26.0,408.0
2022-01-24-12:00:01.808676,1.0,14.0,408.0
2022-01-24-12:00:01.809702,2.0,4.0,408.0
2022-01-24-12:00:01.810793,0.0,16.0,408.0
2022-01-24-12:00:01.810793,0.0,16.0,408.0
2022-01-24-12:00:01.811819,0.0,16.0,408.0
2022-01-24-12:00:01.812817,0.0,16.0,408.0
2022-01-24-12:00:01.813818,4.0,17.0,408.0
2022-01-24-12:00:01.814976,11.0,6.0,408.0
2022-01-24-12:00:01.814976,17.0,9.0,408.0
2022-01-24-12:00:01.816002,15.0,5.0,408.0
2022-01-24-12:00:01.816998,15.0,5.0,408.0
2022-01-24-12:00:01.817996,4.0,10.0,408.0
2022-01-24-12:00:01.818998,2.0,13.0,408.0
2022-01-24-12:00:01.819991,2.0,13.0,408.0
2022-01-24-12:00:01.820987,2.0,13.0,408.0
2022-01-24-12:00:01.821986,4.0,12.0,408.0
2022-01-24-12:00:01.822983,4.0,12.0,408.0
2022-01-24-12:00:01.824292,3.0,4.0,408.0
2022-01-24-12:00:01.824292,1.0,10.0,408.0
2022-01-24-12:00:01.825318,1.0,6.0,408.0
2022-01-24-12:00:01.827333,4.0,5.0,408.0
2022-01-24-12:00:01.827333,3.0,5.0,408.0
2022-01-24-12:00:01.828330,3.0,5.0,408.0
2022-01-24-12:00:01.829328,3.0,5.0,408.0
2022-01-24-12:00:01.830325,14.0,8.0,409.0
2022-01-24-12:00:01.831325,17.0,4.0,408.0
2022-01-24-12:00:01.832320,17.0,4.0,408.0
2022-01-24-12:00:01.833318,17.0,4.0,408.0
2022-01-24-12:00:01.834317,8.0,9.0,408.0
2022-01-24-12:00:01.835281,5.0,16.0,408.0
2022-01-24-12:00:01.836287,5.0,16.0,408.0
2022-01-24-12:00:01.837306,5.0,16.0,408.0
2022-01-24-12:00:01.838303,5.0,16.0,408.0
2022-01-24-12:00:01.839303,5.0,16.0,408.0
2022-01-24-12:00:01.840299,2.0,10.0,408.0
2022-01-24-12:00:01.841296,1.0,9.0,408.0
2022-01-24-12:00:01.842295,3.0,3.0,408.0
2022-01-24-12:00:01.843291,3.0,20.0,408.0
2022-01-24-12:00:01.844289,3.0,17.0,409.0
2022-01-24-12:00:01.845285,3.0,17.0,409.0
2022-01-24-12:00:01.846282,8.0,10.0,408.0
2022-01-24-12:00:01.847282,16.0,14.0,408.0
2022-01-24-12:00:01.848278,16.0,19.0,408.0
2022-01-24-12:00:01.849275,16.0,19.0,408.0
2022-01-24-12:00:01.850274,11.0,14.0,408.0
2022-01-24-12:00:01.851269,8.0,6.0,409.0
2022-01-24-12:00:01.852254,5.0,12.0,409.0
2022-01-24-12:00:01.853244,5.0,12.0,409.0
2022-01-24-12:00:01.854261,7.0,16.0,408.0
2022-01-24-12:00:01.855261,2.0,9.0,408.0
2022-01-24-12:00:01.856257,2.0,9.0,408.0
2022-01-24-12:00:01.857206,2.0,10.0,408.0
2022-01-24-12:00:01.859242,2.0,10.0,408.0
2022-01-24-12:00:01.859242,5.0,9.0,408.0
2022-01-24-12:00:01.860352,1.0,9.0,408.0
2022-01-24-12:00:01.860352,1.0,9.0,408.0
2022-01-24-12:00:01.861352,1.0,9.0,408.0
2022-01-24-12:00:01.862574,4.0,15.0,408.0
2022-01-24-12:00:01.862574,8.0,12.0,408.0
2022-01-24-12:00:01.863620,17.0,1.0,408.0
2022-01-24-12:00:01.864618,17.0,1.0,408.0
2022-01-24-12:00:01.865616,17.0,1.0,408.0
2022-01-24-12:00:01.866619,15.0,8.0,408.0
2022-01-24-12:00:01.867592,15.0,8.0,408.0
2022-01-24-12:00:01.868607,7.0,14.0,408.0
2022-01-24-12:00:01.869557,5.0,18.0,408.0
2022-01-24-12:00:01.870602,4.0,15.0,408.0
2022-01-24-12:00:01.871602,6.0,12.0,409.0
2022-01-24-12:00:01.872596,6.0,12.0,409.0
2022-01-24-12:00:01.873547,6.0,14.0,409.0
2022-01-24-12:00:01.874594,3.0,9.0,408.0
2022-01-24-12:00:01.875588,2.0,19.0,409.0
2022-01-24-12:00:01.876588,0.0,21.0,408.0
2022-01-24-12:00:01.877597,0.0,21.0,408.0
2022-01-24-12:00:01.878580,3.0,15.0,408.0
2022-01-24-12:00:01.879580,11.0,11.0,408.0
2022-01-24-12:00:01.880575,17.0,16.0,409.0
2022-01-24-12:00:01.881573,17.0,16.0,409.0
2022-01-24-12:00:01.882574,17.0,16.0,409.0
2022-01-24-12:00:01.883521,5.0,20.0,408.0
2022-01-24-12:00:01.884544,9.0,22.0,409.0
2022-01-24-12:00:01.885554,9.0,22.0,409.0
2022-01-24-12:00:01.886539,9.0,22.0,409.0
2022-01-24-12:00:01.887536,4.0,27.0,408.0
2022-01-24-12:00:01.888533,1.0,21.0,408.0
2022-01-24-12:00:01.889532,1.0,21.0,408.0
2022-01-24-12:00:01.891527,1.0,12.0,408.0
2022-01-24-12:00:01.891527,1.0,12.0,408.0
2022-01-24-12:00:01.892544,1.0,12.0,408.0
2022-01-24-12:00:01.893541,1.0,11.0,408.0
2022-01-24-12:00:01.894537,1.0,22.0,408.0
2022-01-24-12:00:01.895535,5.0,12.0,408.0
2022-01-24-12:00:01.896532,14.0,8.0,408.0
2022-01-24-12:00:01.897531,14.0,8.0,408.0
2022-01-24-12:00:01.898530,14.0,8.0,408.0
2022-01-24-12:00:01.899506,12.0,8.0,408.0
2022-01-24-12:00:01.900522,9.0,12.0,408.0
2022-01-24-12:00:01.901519,9.0,12.0,408.0
2022-01-24-12:00:01.902508,9.0,12.0,408.0
2022-01-24-12:00:01.903522,3.0,12.0,408.0
2022-01-24-12:00:01.904511,2.0,8.0,408.0
2022-01-24-12:00:01.905509,3.0,10.0,408.0
2022-01-24-12:00:01.906459,3.0,10.0,408.0
2022-01-24-12:00:01.907503,3.0,10.0,408.0
2022-01-24-12:00:01.908501,5.0,2.0,408.0
2022-01-24-12:00:01.909503,4.0,13.0,408.0
2022-01-24-12:00:01.910449,4.0,13.0,408.0
2022-01-24-12:00:01.911492,2.0,14.0,408.0
2022-01-24-12:00:01.912490,8.0,6.0,408.0
2022-01-24-12:00:01.913488,15.0,8.0,408.0
2022-01-24-12:00:01.914472,15.0,8.0,408.0
2022-01-24-12:00:01.915482,8.0,18.0,409.0
2022-01-24-12:00:01.916480,7.0,20.0,408.0
2022-01-24-12:00:01.917477,7.0,20.0,408.0
2022-01-24-12:00:01.918474,7.0,20.0,408.0
2022-01-24-12:00:01.919471,7.0,20.0,408.0
2022-01-24-12:00:01.920468,6.0,18.0,408.0
2022-01-24-12:00:01.921467,4.0,4.0,408.0
2022-01-24-12:00:01.922466,3.0,11.0,409.0
2022-01-24-12:00:01.923460,3.0,11.0,409.0
2022-01-24-12:00:01.924458,1.0,3.0,408.0
2022-01-24-12:00:01.926452,1.0,3.0,408.0
2022-01-24-12:00:01.926452,1.0,3.0,408.0
2022-01-24-12:00:01.927453,1.0,3.0,408.0
2022-01-24-12:00:01.928447,7.0,10.0,408.0
2022-01-24-12:00:01.929445,11.0,1.0,408.0
2022-01-24-12:00:01.930421,11.0,1.0,408.0
2022-01-24-12:00:01.931421,11.0,1.0,408.0
2022-01-24-12:00:01.932416,13.0,2.0,409.0
2022-01-24-12:00:01.933413,8.0,19.0,409.0
2022-01-24-12:00:01.934412,6.0,12.0,408.0
2022-01-24-12:00:01.935407,6.0,12.0,408.0
2022-01-24-12:00:01.936405,3.0,11.0,408.0
2022-01-24-12:00:01.937404,3.0,5.0,408.0
2022-01-24-12:00:01.938400,0.0,9.0,408.0
2022-01-24-12:00:01.939399,0.0,9.0,408.0
2022-01-24-12:00:01.940395,5.0,23.0,409.0
2022-01-24-12:00:01.941392,2.0,24.0,408.0
2022-01-24-12:00:01.942389,2.0,24.0,408.0
2022-01-24-12:00:01.943386,2.0,24.0,408.0
2022-01-24-12:00:01.944383,0.0,11.0,408.0
2022-01-24-12:00:01.945382,1.0,8.0,408.0
2022-01-24-12:00:01.946378,10.0,18.0,408.0
2022-01-24-12:00:01.947350,10.0,18.0,408.0
2022-01-24-12:00:01.948378,13.0,20.0,408.0
2022-01-24-12:00:01.949370,10.0,9.0,408.0
2022-01-24-12:00:01.950369,8.0,1.0,408.0
2022-01-24-12:00:01.951339,8.0,1.0,408.0
2022-01-24-12:00:01.952338,6.0,1.0,408.0
2022-01-24-12:00:01.953361,2.0,3.0,408.0
2022-01-24-12:00:01.954357,5.0,1.0,409.0
2022-01-24-12:00:01.955357,5.0,1.0,409.0
2022-01-24-12:00:01.956352,5.0,1.0,409.0
2022-01-24-12:00:01.957349,0.0,16.0,408.0
2022-01-24-12:00:01.958347,7.0,7.0,408.0
2022-01-24-12:00:01.960362,7.0,7.0,408.0
2022-01-24-12:00:01.960362,4.0,8.0,408.0
2022-01-24-12:00:01.961365,9.0,8.0,408.0
2022-01-24-12:00:01.962359,9.0,8.0,408.0
2022-01-24-12:00:01.963353,9.0,8.0,408.0
2022-01-24-12:00:01.964352,9.0,8.0,408.0
2022-01-24-12:00:01.965348,15.0,2.0,408.0
2022-01-24-12:00:01.966352,12.0,7.0,408.0
2022-01-24-12:00:01.967346,9.0,2.0,409.0
2022-01-24-12:00:01.968328,9.0,2.0,409.0
2022-01-24-12:00:01.969291,5.0,1.0,408.0
2022-01-24-12:00:01.970338,6.0,2.0,408.0
2022-01-24-12:00:01.971332,4.0,2.0,408.0
2022-01-24-12:00:01.972330,4.0,2.0,408.0
2022-01-24-12:00:01.973327,2.0,7.0,408.0
2022-01-24-12:00:01.974324,2.0,7.0,408.0
2022-01-24-12:00:01.975321,4.0,7.0,408.0
2022-01-24-12:00:01.976319,4.0,7.0,408.0
2022-01-24-12:00:01.977317,4.0,7.0,408.0
2022-01-24-12:00:01.978533,4.0,2.0,408.0
2022-01-24-12:00:01.978533,4.0,2.0,408.0
2022-01-24-12:00:01.979585,4.0,2.0,408.0
2022-01-24-12:00:01.980578,4.0,2.0,408.0
2022-01-24-12:00:01.981738,12.0,8.0,408.0
2022-01-24-12:00:01.981738,14.0,11.0,408.0
2022-01-24-12:00:01.982785,10.0,18.0,409.0
2022-01-24-12:00:01.983784,10.0,18.0,409.0
2022-01-24-12:00:01.984780,10.0,18.0,409.0
2022-01-24-12:00:01.985732,8.0,17.0,409.0
2022-01-24-12:00:01.986776,5.0,14.0,408.0
2022-01-24-12:00:01.987857,0.0,14.0,408.0
2022-01-24-12:00:01.987857,0.0,14.0,408.0
2022-01-24-12:00:01.988904,0.0,14.0,408.0
2022-01-24-12:00:01.989902,0.0,3.0,408.0
2022-01-24-12:00:01.990903,2.0,11.0,408.0
2022-01-24-12:00:01.991897,2.0,11.0,408.0
2022-01-24-12:00:01.993869,1.0,4.0,408.0
2022-01-24-12:00:01.993869,7.0,7.0,408.0
2022-01-24-12:00:01.995043,7.0,7.0,408.0
2022-01-24-12:00:01.995043,7.0,7.0,408.0
2022-01-24-12:00:01.996099,7.0,7.0,408.0
2022-01-24-12:00:01.997097,7.0,7.0,408.0
2022-01-24-12:00:01.998093,11.0,11.0,408.0
2022-01-24-12:00:01.999126,13.0,25.0,408.0
2022-01-24-12:00:01.999126,14.0,14.0,409.0
2022-01-24-12:00:02.000173,14.0,14.0,409.0
2022-01-24-12:00:02.001174,14.0,14.0,409.0
2022-01-24-12:00:02.002148,5.0,4.0,408.0
2022-01-24-12:00:02.003173,3.0,1.0,408.0
2022-01-24-12:00:02.004170,1.0,5.0,409.0
2022-01-24-12:00:02.005168,1.0,5.0,409.0
2022-01-24-12:00:02.006165,1.0,12.0,409.0
2022-01-24-12:00:02.007167,1.0,12.0,409.0
2022-01-24-12:00:02.008295,1.0,6.0,408.0
2022-01-24-12:00:02.008295,1.0,6.0,408.0
2022-01-24-12:00:02.009510,1.0,6.0,408.0
2022-01-24-12:00:02.009510,2.0,11.0,408.0
2022-01-24-12:00:02.010561,7.0,12.0,408.0
2022-01-24-12:00:02.011555,7.0,12.0,408.0
2022-01-24-12:00:02.012551,7.0,12.0,408.0
2022-01-24-12:00:02.013549,7.0,12.0,408.0
2022-01-24-12:00:02.014546,6.0,10.0,408.0
2022-01-24-12:00:02.015544,14.0,7.0,408.0
2022-01-24-12:00:02.016546,13.0,10.0,408.0
2022-01-24-12:00:02.017538,13.0,10.0,408.0
2022-01-24-12:00:02.018542,10.0,11.0,409.0
2022-01-24-12:00:02.019539,6.0,13.0,408.0
2022-01-24-12:00:02.020531,5.0,23.0,409.0
2022-01-24-12:00:02.021528,5.0,23.0,409.0
2022-01-24-12:00:02.022528,6.0,20.0,408.0
2022-01-24-12:00:02.023524,4.0,11.0,408.0
2022-01-24-12:00:02.025517,2.0,15.0,408.0
2022-01-24-12:00:02.025517,4.0,17.0,408.0
2022-01-24-12:00:02.026518,3.0,16.0,409.0
2022-01-24-12:00:02.027622,3.0,13.0,408.0
2022-01-24-12:00:02.027622,3.0,13.0,408.0
2022-01-24-12:00:02.028669,3.0,13.0,408.0
2022-01-24-12:00:02.029822,3.0,13.0,408.0
2022-01-24-12:00:02.029822,4.0,6.0,408.0
2022-01-24-12:00:02.030870,12.0,21.0,408.0
2022-01-24-12:00:02.031867,13.0,15.0,408.0
2022-01-24-12:00:02.032863,13.0,15.0,408.0
2022-01-24-12:00:02.033863,13.0,15.0,408.0
2022-01-24-12:00:02.034858,11.0,4.0,408.0
2022-01-24-12:00:02.035860,8.0,5.0,408.0
2022-01-24-12:00:02.036855,4.0,7.0,409.0
2022-01-24-12:00:02.037850,4.0,7.0,409.0
2022-01-24-12:00:02.038849,2.0,7.0,408.0
2022-01-24-12:00:02.039846,2.0,7.0,408.0
2022-01-24-12:00:02.040849,1.0,6.0,409.0
2022-01-24-12:00:02.041842,1.0,6.0,409.0
2022-01-24-12:00:02.042837,2.0,2.0,408.0
2022-01-24-12:00:02.043836,1.0,10.0,408.0
2022-01-24-12:00:02.044834,2.0,12.0,408.0
2022-01-24-12:00:02.045829,2.0,12.0,408.0
2022-01-24-12:00:02.046827,3.0,6.0,408.0
2022-01-24-12:00:02.047824,6.0,1.0,408.0
2022-01-24-12:00:02.048920,13.0,25.0,408.0
2022-01-24-12:00:02.048920,13.0,25.0,408.0
2022-01-24-12:00:02.049920,13.0,25.0,408.0
2022-01-24-12:00:02.051142,10.0,22.0,409.0
2022-01-24-12:00:02.051142,7.0,12.0,408.0
2022-01-24-12:00:02.052168,4.0,3.0,408.0
2022-01-24-12:00:02.053167,4.0,3.0,408.0
2022-01-24-12:00:02.054138,4.0,3.0,408.0
2022-01-24-12:00:02.055135,2.0,2.0,408.0
2022-01-24-12:00:02.056132,3.0,3.0,408.0
2022-01-24-12:00:02.057177,1.0,11.0,408.0
2022-01-24-12:00:02.058177,1.0,9.0,408.0
2022-01-24-12:00:02.059171,5.0,7.0,408.0
2022-01-24-12:00:02.060169,2.0,8.0,408.0
2022-01-24-12:00:02.062115,2.0,8.0,408.0
2022-01-24-12:00:02.062115,10.0,3.0,409.0
2022-01-24-12:00:02.063160,16.0,13.0,408.0
2022-01-24-12:00:02.064162,13.0,14.0,409.0
2022-01-24-12:00:02.065154,13.0,14.0,409.0
2022-01-24-12:00:02.066105,13.0,14.0,409.0
2022-01-24-12:00:02.067149,9.0,17.0,409.0
2022-01-24-12:00:02.068147,4.0,8.0,408.0
2022-01-24-12:00:02.069097,2.0,3.0,408.0
2022-01-24-12:00:02.070094,2.0,3.0,408.0
2022-01-24-12:00:02.071091,2.0,8.0,408.0
2022-01-24-12:00:02.072089,3.0,7.0,408.0
2022-01-24-12:00:02.073086,0.0,9.0,409.0
2022-01-24-12:00:02.074083,0.0,9.0,409.0
2022-01-24-12:00:02.075081,5.0,2.0,408.0
2022-01-24-12:00:02.076078,4.0,9.0,408.0
2022-01-24-12:00:02.077075,4.0,9.0,408.0
2022-01-24-12:00:02.078096,4.0,9.0,408.0
2022-01-24-12:00:02.079097,8.0,7.0,408.0
2022-01-24-12:00:02.080092,16.0,6.0,408.0
2022-01-24-12:00:02.081089,16.0,6.0,408.0
2022-01-24-12:00:02.082089,16.0,6.0,408.0
2022-01-24-12:00:02.083083,16.0,6.0,408.0
2022-01-24-12:00:02.084084,9.0,8.0,408.0
2022-01-24-12:00:02.085079,6.0,3.0,408.0
2022-01-24-12:00:02.086052,6.0,1.0,408.0
2022-01-24-12:00:02.087083,6.0,1.0,408.0
2022-01-24-12:00:02.088078,4.0,7.0,408.0
2022-01-24-12:00:02.089188,1.0,16.0,409.0
2022-01-24-12:00:02.089188,1.0,16.0,409.0
2022-01-24-12:00:02.090235,1.0,16.0,409.0
2022-01-24-12:00:02.091465,1.0,16.0,409.0
2022-01-24-12:00:02.091465,1.0,9.0,409.0
2022-01-24-12:00:02.092499,1.0,9.0,409.0
2022-01-24-12:00:02.093497,1.0,2.0,408.0
2022-01-24-12:00:02.095489,1.0,2.0,408.0
2022-01-24-12:00:02.095489,8.0,12.0,408.0
2022-01-24-12:00:02.096486,8.0,12.0,408.0
2022-01-24-12:00:02.097493,13.0,4.0,408.0
2022-01-24-12:00:02.098481,13.0,4.0,408.0
2022-01-24-12:00:02.099478,13.0,4.0,408.0
2022-01-24-12:00:02.100478,13.0,12.0,408.0
2022-01-24-12:00:02.101473,9.0,18.0,409.0
2022-01-24-12:00:02.102439,6.0,17.0,408.0
2022-01-24-12:00:02.103460,6.0,17.0,408.0
2022-01-24-12:00:02.104460,4.0,17.0,408.0
2022-01-24-12:00:02.105454,0.0,14.0,408.0
2022-01-24-12:00:02.106452,1.0,10.0,408.0
2022-01-24-12:00:02.107449,1.0,10.0,408.0
2022-01-24-12:00:02.108449,1.0,2.0,408.0
2022-01-24-12:00:02.109443,3.0,1.0,408.0
2022-01-24-12:00:02.110442,3.0,1.0,408.0
2022-01-24-12:00:02.111439,3.0,1.0,408.0
2022-01-24-12:00:02.112442,4.0,2.0,408.0
2022-01-24-12:00:02.113433,15.0,0.0,408.0
2022-01-24-12:00:02.114435,15.0,0.0,408.0
2022-01-24-12:00:02.115427,15.0,0.0,408.0
2022-01-24-12:00:02.116427,16.0,4.0,408.0
2022-01-24-12:00:02.117516,5.0,3.0,408.0
2022-01-24-12:00:02.117516,5.0,3.0,408.0
2022-01-24-12:00:02.118562,5.0,3.0,408.0
2022-01-24-12:00:02.119513,5.0,3.0,408.0
2022-01-24-12:00:02.120556,1.0,14.0,408.0
2022-01-24-12:00:02.121554,1.0,14.0,408.0
2022-01-24-12:00:02.122559,1.0,14.0,408.0
2022-01-24-12:00:02.123502,1.0,14.0,408.0
2022-01-24-12:00:02.124546,2.0,7.0,408.0
2022-01-24-12:00:02.125498,2.0,7.0,408.0
2022-01-24-12:00:02.126520,5.0,10.0,408.0
2022-01-24-12:00:02.128535,5.0,10.0,408.0
2022-01-24-12:00:02.128535,9.0,6.0,408.0
2022-01-24-12:00:02.129512,14.0,8.0,408.0
2022-01-24-12:00:02.130494,14.0,8.0,408.0
2022-01-24-12:00:02.131507,14.0,8.0,408.0
2022-01-24-12:00:02.132479,14.0,8.0,408.0
2022-01-24-12:00:02.133477,9.0,20.0,408.0
2022-01-24-12:00:02.134497,6.0,10.0,408.0
2022-01-24-12:00:02.135472,6.0,10.0,408.0
2022-01-24-12:00:02.136670,6.0,10.0,408.0
2022-01-24-12:00:02.136670,2.0,11.0,408.0
2022-01-24-12:00:02.137706,2.0,12.0,408.0
2022-01-24-12:00:02.138695,1.0,10.0,408.0
2022-01-24-12:00:02.139691,1.0,10.0,408.0
2022-01-24-12:00:02.140695,1.0,10.0,408.0
2022-01-24-12:00:02.141694,0.0,2.0,409.0
2022-01-24-12:00:02.142688,5.0,7.0,408.0
2022-01-24-12:00:02.143680,2.0,15.0,408.0
2022-01-24-12:00:02.144683,2.0,15.0,408.0
2022-01-24-12:00:02.145674,13.0,14.0,409.0
2022-01-24-12:00:02.146674,14.0,5.0,408.0
2022-01-24-12:00:02.147670,14.0,5.0,408.0
2022-01-24-12:00:02.148641,14.0,5.0,408.0
2022-01-24-12:00:02.149664,13.0,8.0,408.0
2022-01-24-12:00:02.150660,6.0,13.0,409.0
2022-01-24-12:00:02.151659,6.0,13.0,409.0
2022-01-24-12:00:02.152630,6.0,13.0,409.0
2022-01-24-12:00:02.153627,5.0,18.0,409.0
2022-01-24-12:00:02.154653,2.0,17.0,408.0
2022-01-24-12:00:02.155649,1.0,18.0,408.0
2022-01-24-12:00:02.156646,1.0,18.0,408.0
2022-01-24-12:00:02.157645,3.0,9.0,408.0
2022-01-24-12:00:02.158640,5.0,14.0,408.0
2022-01-24-12:00:02.159737,6.0,13.0,409.0
2022-01-24-12:00:02.159737,6.0,13.0,409.0
2022-01-24-12:00:02.160771,6.0,13.0,409.0
2022-01-24-12:00:02.161768,6.0,13.0,409.0
2022-01-24-12:00:02.163790,12.0,10.0,408.0
2022-01-24-12:00:02.163790,12.0,10.0,408.0
2022-01-24-12:00:02.164726,10.0,2.0,408.0
2022-01-24-12:00:02.165778,5.0,11.0,408.0
2022-01-24-12:00:02.166778,5.0,11.0,408.0
2022-01-24-12:00:02.167772,5.0,11.0,408.0
2022-01-24-12:00:02.168775,5.0,11.0,408.0
2022-01-24-12:00:02.169747,2.0,26.0,408.0
2022-01-24-12:00:02.170746,5.0,29.0,408.0
2022-01-24-12:00:02.171762,5.0,29.0,408.0
2022-01-24-12:00:02.172759,5.0,29.0,408.0
2022-01-24-12:00:02.173756,3.0,29.0,408.0
2022-01-24-12:00:02.174761,4.0,14.0,408.0
2022-01-24-12:00:02.175751,4.0,5.0,408.0
2022-01-24-12:00:02.176729,4.0,5.0,408.0
2022-01-24-12:00:02.177749,0.0,2.0,408.0
2022-01-24-12:00:02.178742,9.0,12.0,408.0
2022-01-24-12:00:02.179723,9.0,9.0,408.0
2022-01-24-12:00:02.180717,9.0,9.0,408.0
2022-01-24-12:00:02.181715,9.0,9.0,408.0
2022-01-24-12:00:02.182711,9.0,9.0,408.0
2022-01-24-12:00:02.183709,9.0,9.0,408.0
2022-01-24-12:00:02.184707,9.0,9.0,408.0
2022-01-24-12:00:02.185670,9.0,9.0,408.0
2022-01-24-12:00:02.186703,9.0,9.0,408.0
2022-01-24-12:00:02.187698,17.0,0.0,408.0
2022-01-24-12:00:02.188696,11.0,7.0,409.0
2022-01-24-12:00:02.189697,9.0,9.0,408.0
2022-01-24-12:00:02.190682,0.0,16.0,408.0
2022-01-24-12:00:02.191680,0.0,8.0,408.0
2022-01-24-12:00:02.192678,2.0,1.0,408.0
2022-01-24-12:00:02.193674,3.0,6.0,408.0
2022-01-24-12:00:02.194674,6.0,6.0,408.0
2022-01-24-12:00:02.196681,12.0,5.0,408.0
2022-01-24-12:00:02.196681,12.0,5.0,408.0
2022-01-24-12:00:02.197707,12.0,5.0,408.0
2022-01-24-12:00:02.198816,10.0,21.0,408.0
2022-01-24-12:00:02.198816,10.0,21.0,408.0
2022-01-24-12:00:02.199850,10.0,21.0,408.0
2022-01-24-12:00:02.200844,10.0,21.0,408.0
2022-01-24-12:00:02.201846,10.0,21.0,408.0
2022-01-24-12:00:02.202809,4.0,14.0,408.0
2022-01-24-12:00:02.203852,2.0,15.0,408.0
2022-01-24-12:00:02.204849,3.0,8.0,408.0
2022-01-24-12:00:02.205847,3.0,8.0,408.0
2022-01-24-12:00:02.207072,3.0,5.0,408.0
2022-01-24-12:00:02.207072,5.0,10.0,408.0
2022-01-24-12:00:02.208104,5.0,10.0,408.0
2022-01-24-12:00:02.209104,5.0,10.0,408.0
2022-01-24-12:00:02.210100,5.0,10.0,408.0
2022-01-24-12:00:02.211096,2.0,13.0,408.0
2022-01-24-12:00:02.212096,6.0,16.0,408.0
2022-01-24-12:00:02.213091,6.0,16.0,408.0
2022-01-24-12:00:02.214089,6.0,16.0,408.0
2022-01-24-12:00:02.215089,12.0,0.0,408.0
2022-01-24-12:00:02.216224,9.0,18.0,408.0
2022-01-24-12:00:02.216224,9.0,18.0,408.0
2022-01-24-12:00:02.217271,9.0,18.0,408.0
2022-01-24-12:00:02.218221,9.0,18.0,408.0
2022-01-24-12:00:02.219220,10.0,9.0,408.0
2022-01-24-12:00:02.220473,2.0,6.0,409.0
2022-01-24-12:00:02.220473,1.0,11.0,408.0
2022-01-24-12:00:02.221612,1.0,11.0,408.0
2022-01-24-12:00:02.221995,1.0,11.0,408.0
2022-01-24-12:00:02.221995,0.0,10.0,408.0
2022-01-24-12:00:02.223027,0.0,10.0,408.0
2022-01-24-12:00:02.224024,2.0,2.0,408.0
2022-01-24-12:00:02.225024,2.0,2.0,408.0
2022-01-24-12:00:02.225987,2.0,2.0,408.0
2022-01-24-12:00:02.226984,3.0,6.0,408.0
2022-01-24-12:00:02.228017,6.0,9.0,408.0
2022-01-24-12:00:02.229976,12.0,1.0,409.0
2022-01-24-12:00:02.229976,17.0,3.0,408.0
2022-01-24-12:00:02.231005,17.0,3.0,408.0
2022-01-24-12:00:02.232002,6.0,12.0,408.0
2022-01-24-12:00:02.233002,6.0,12.0,408.0
2022-01-24-12:00:02.233996,6.0,12.0,408.0
2022-01-24-12:00:02.235002,3.0,18.0,408.0
2022-01-24-12:00:02.235960,5.0,19.0,409.0
2022-01-24-12:00:02.236981,5.0,19.0,409.0
2022-01-24-12:00:02.237980,5.0,19.0,409.0
2022-01-24-12:00:02.238979,5.0,10.0,408.0
2022-01-24-12:00:02.240089,0.0,0.0,408.0
2022-01-24-12:00:02.240089,0.0,0.0,408.0
2022-01-24-12:00:02.241138,0.0,0.0,408.0
2022-01-24-12:00:02.242138,0.0,0.0,408.0
2022-01-24-12:00:02.243130,0.0,0.0,408.0
2022-01-24-12:00:02.244133,3.0,20.0,408.0
2022-01-24-12:00:02.245125,4.0,14.0,408.0
2022-01-24-12:00:02.246122,4.0,14.0,408.0
2022-01-24-12:00:02.247120,4.0,14.0,408.0
2022-01-24-12:00:02.248318,12.0,1.0,408.0
2022-01-24-12:00:02.248318,13.0,11.0,409.0
2022-01-24-12:00:02.249473,13.0,11.0,409.0
2022-01-24-12:00:02.249473,11.0,11.0,408.0
2022-01-24-12:00:02.250651,11.0,11.0,408.0
2022-01-24-12:00:02.250651,7.0,12.0,408.0
2022-01-24-12:00:02.251687,7.0,12.0,408.0
2022-01-24-12:00:02.252648,4.0,9.0,408.0
2022-01-24-12:00:02.253677,4.0,9.0,408.0
2022-01-24-12:00:02.254642,4.0,9.0,408.0
2022-01-24-12:00:02.255671,4.0,15.0,408.0
2022-01-24-12:00:02.256669,3.0,7.0,408.0
2022-01-24-12:00:02.257672,3.0,7.0,408.0
2022-01-24-12:00:02.258632,3.0,7.0,408.0
2022-01-24-12:00:02.259685,4.0,16.0,408.0
2022-01-24-12:00:02.260680,4.0,16.0,408.0
2022-01-24-12:00:02.261678,1.0,10.0,408.0
2022-01-24-12:00:02.262675,4.0,1.0,408.0
2022-01-24-12:00:02.264671,2.0,2.0,408.0
2022-01-24-12:00:02.264671,12.0,20.0,408.0
2022-01-24-12:00:02.265664,18.0,26.0,408.0
2022-01-24-12:00:02.266657,18.0,26.0,408.0
2022-01-24-12:00:02.267654,18.0,26.0,408.0
2022-01-24-12:00:02.268653,8.0,13.0,408.0
2022-01-24-12:00:02.269650,8.0,5.0,408.0
2022-01-24-12:00:02.270646,8.0,5.0,408.0
2022-01-24-12:00:02.271645,8.0,5.0,408.0
2022-01-24-12:00:02.272641,3.0,6.0,408.0
2022-01-24-12:00:02.273644,0.0,7.0,408.0
2022-01-24-12:00:02.274636,0.0,7.0,408.0
2022-01-24-12:00:02.275613,0.0,7.0,408.0
2022-01-24-12:00:02.276610,3.0,2.0,408.0
2022-01-24-12:00:02.277607,3.0,2.0,408.0
2022-01-24-12:00:02.278604,0.0,10.0,408.0
2022-01-24-12:00:02.279602,7.0,4.0,408.0
2022-01-24-12:00:02.280599,10.0,10.0,408.0
2022-01-24-12:00:02.281600,10.0,10.0,408.0
2022-01-24-12:00:02.282592,10.0,10.0,408.0
2022-01-24-12:00:02.283611,10.0,10.0,408.0
2022-01-24-12:00:02.284609,8.0,10.0,409.0
2022-01-24-12:00:02.285585,6.0,3.0,408.0
2022-01-24-12:00:02.286603,2.0,1.0,409.0
2022-01-24-12:00:02.287602,2.0,1.0,409.0
2022-01-24-12:00:02.288577,1.0,10.0,408.0
2022-01-24-12:00:02.289599,0.0,6.0,408.0
2022-01-24-12:00:02.290593,0.0,6.0,408.0
2022-01-24-12:00:02.291590,0.0,6.0,408.0
2022-01-24-12:00:02.292587,6.0,5.0,409.0
2022-01-24-12:00:02.293584,3.0,5.0,408.0
2022-01-24-12:00:02.294583,5.0,8.0,408.0
2022-01-24-12:00:02.295533,5.0,8.0,408.0
2022-01-24-12:00:02.296577,5.0,8.0,408.0
2022-01-24-12:00:02.297578,15.0,14.0,408.0
2022-01-24-12:00:02.299537,16.0,15.0,408.0
2022-01-24-12:00:02.299537,10.0,12.0,408.0
2022-01-24-12:00:02.300566,6.0,15.0,408.0
2022-01-24-12:00:02.301563,2.0,7.0,408.0
2022-01-24-12:00:02.302515,2.0,7.0,408.0
2022-01-24-12:00:02.303512,2.0,7.0,408.0
2022-01-24-12:00:02.304555,2.0,7.0,408.0
2022-01-24-12:00:02.305556,5.0,5.0,409.0
2022-01-24-12:00:02.306646,0.0,6.0,408.0
2022-01-24-12:00:02.306646,0.0,6.0,408.0
2022-01-24-12:00:02.307706,0.0,6.0,408.0
2022-01-24-12:00:02.308697,3.0,10.0,408.0
2022-01-24-12:00:02.309695,4.0,14.0,408.0
2022-01-24-12:00:02.310692,3.0,5.0,408.0
2022-01-24-12:00:02.311690,3.0,5.0,408.0
2022-01-24-12:00:02.312690,3.0,5.0,408.0
2022-01-24-12:00:02.313685,14.0,25.0,408.0
2022-01-24-12:00:02.314681,14.0,25.0,408.0
2022-01-24-12:00:02.315832,14.0,25.0,408.0
2022-01-24-12:00:02.316137,14.0,25.0,408.0
2022-01-24-12:00:02.316137,7.0,27.0,408.0
2022-01-24-12:00:02.317184,2.0,16.0,408.0
2022-01-24-12:00:02.318181,6.0,2.0,408.0
2022-01-24-12:00:02.319188,6.0,2.0,408.0
2022-01-24-12:00:02.320129,6.0,2.0,408.0
2022-01-24-12:00:02.321181,2.0,2.0,408.0
2022-01-24-12:00:02.322178,2.0,3.0,409.0
2022-01-24-12:00:02.323176,1.0,2.0,408.0
2022-01-24-12:00:02.324117,1.0,2.0,408.0
2022-01-24-12:00:02.325170,4.0,2.0,408.0
2022-01-24-12:00:02.326167,2.0,14.0,408.0
2022-01-24-12:00:02.327167,2.0,14.0,408.0
2022-01-24-12:00:02.328162,2.0,14.0,408.0
2022-01-24-12:00:02.329159,7.0,11.0,408.0
2022-01-24-12:00:02.331149,14.0,4.0,408.0
2022-01-24-12:00:02.331149,14.0,4.0,408.0
2022-01-24-12:00:02.332153,14.0,4.0,408.0
2022-01-24-12:00:02.333148,14.0,4.0,408.0
2022-01-24-12:00:02.334146,10.0,1.0,409.0
2022-01-24-12:00:02.335123,7.0,1.0,408.0
2022-01-24-12:00:02.336141,5.0,11.0,409.0
2022-01-24-12:00:02.337138,5.0,11.0,409.0
2022-01-24-12:00:02.338127,3.0,20.0,408.0
2022-01-24-12:00:02.339125,1.0,22.0,408.0
2022-01-24-12:00:02.340124,2.0,26.0,408.0
2022-01-24-12:00:02.341119,2.0,26.0,408.0
2022-01-24-12:00:02.342117,3.0,20.0,408.0
2022-01-24-12:00:02.343116,7.0,1.0,408.0
2022-01-24-12:00:02.344112,5.0,6.0,408.0
2022-01-24-12:00:02.345108,5.0,6.0,408.0
2022-01-24-12:00:02.346113,7.0,9.0,408.0
2022-01-24-12:00:02.347205,15.0,4.0,408.0
2022-01-24-12:00:02.347205,15.0,4.0,408.0
2022-01-24-12:00:02.348259,15.0,4.0,408.0
2022-01-24-12:00:02.349257,15.0,4.0,408.0
2022-01-24-12:00:02.350253,16.0,1.0,408.0
2022-01-24-12:00:02.351252,7.0,12.0,408.0
2022-01-24-12:00:02.352228,4.0,6.0,408.0
2022-01-24-12:00:02.353247,4.0,6.0,408.0
2022-01-24-12:00:02.354242,6.0,10.0,408.0
2022-01-24-12:00:02.355241,4.0,11.0,408.0
2022-01-24-12:00:02.356237,4.0,9.0,408.0
2022-01-24-12:00:02.357236,4.0,9.0,408.0
2022-01-24-12:00:02.358232,1.0,7.0,408.0
2022-01-24-12:00:02.359232,5.0,5.0,408.0
2022-01-24-12:00:02.360228,4.0,13.0,408.0
2022-01-24-12:00:02.361226,4.0,13.0,408.0
2022-01-24-12:00:02.362226,3.0,26.0,408.0
2022-01-24-12:00:02.363220,13.0,6.0,408.0
2022-01-24-12:00:02.365194,13.0,6.0,408.0
2022-01-24-12:00:02.365792,16.0,20.0,408.0
2022-01-24-12:00:02.365792,10.0,17.0,408.0
2022-01-24-12:00:02.366993,8.0,19.0,408.0
2022-01-24-12:00:02.366993,8.0,19.0,408.0
2022-01-24-12:00:02.368039,8.0,19.0,408.0
2022-01-24-12:00:02.368990,8.0,19.0,408.0
2022-01-24-12:00:02.370206,5.0,17.0,409.0
2022-01-24-12:00:02.370206,4.0,14.0,409.0
2022-01-24-12:00:02.371361,0.0,18.0,408.0
2022-01-24-12:00:02.371361,0.0,18.0,408.0
2022-01-24-12:00:02.372407,0.0,18.0,408.0
2022-01-24-12:00:02.373358,0.0,18.0,408.0
2022-01-24-12:00:02.374603,1.0,13.0,408.0
2022-01-24-12:00:02.374603,1.0,3.0,408.0
2022-01-24-12:00:02.375657,3.0,13.0,408.0
2022-01-24-12:00:02.376655,3.0,13.0,408.0
2022-01-24-12:00:02.377652,3.0,13.0,408.0
2022-01-24-12:00:02.378653,0.0,9.0,408.0
2022-01-24-12:00:02.379722,16.0,3.0,408.0
2022-01-24-12:00:02.379936,16.0,3.0,408.0
2022-01-24-12:00:02.380390,16.0,3.0,408.0
2022-01-24-12:00:02.380390,16.0,3.0,408.0
2022-01-24-12:00:02.381612,16.0,3.0,408.0
2022-01-24-12:00:02.381612,17.0,9.0,409.0
2022-01-24-12:00:02.382671,5.0,14.0,408.0
2022-01-24-12:00:02.383665,7.0,17.0,408.0
2022-01-24-12:00:02.384664,7.0,17.0,408.0
2022-01-24-12:00:02.385604,7.0,17.0,408.0
2022-01-24-12:00:02.386638,2.0,13.0,408.0
2022-01-24-12:00:02.387656,2.0,11.0,408.0
2022-01-24-12:00:02.388651,2.0,8.0,408.0
2022-01-24-12:00:02.389630,2.0,8.0,408.0
2022-01-24-12:00:02.390646,2.0,8.0,408.0
2022-01-24-12:00:02.391648,2.0,7.0,408.0
2022-01-24-12:00:02.392641,2.0,8.0,408.0
2022-01-24-12:00:02.393641,2.0,8.0,408.0
2022-01-24-12:00:02.394636,0.0,14.0,408.0
2022-01-24-12:00:02.395635,11.0,9.0,408.0
2022-01-24-12:00:02.396631,11.0,9.0,408.0
2022-01-24-12:00:02.398624,11.0,9.0,408.0
2022-01-24-12:00:02.398624,15.0,2.0,408.0
2022-01-24-12:00:02.399711,3.0,13.0,409.0
2022-01-24-12:00:02.399711,3.0,13.0,409.0
2022-01-24-12:00:02.400759,3.0,13.0,409.0
2022-01-24-12:00:02.401708,3.0,13.0,409.0
2022-01-24-12:00:02.402752,3.0,13.0,409.0
2022-01-24-12:00:02.403957,4.0,17.0,408.0
2022-01-24-12:00:02.403957,1.0,14.0,408.0
2022-01-24-12:00:02.405012,1.0,14.0,408.0
2022-01-24-12:00:02.406009,1.0,14.0,408.0
2022-01-24-12:00:02.407011,1.0,14.0,408.0
2022-01-24-12:00:02.408008,1.0,7.0,408.0
2022-01-24-12:00:02.409004,6.0,15.0,408.0
2022-01-24-12:00:02.410000,6.0,15.0,408.0
2022-01-24-12:00:02.411032,1.0,8.0,408.0
2022-01-24-12:00:02.411032,10.0,5.0,408.0
2022-01-24-12:00:02.412087,10.0,5.0,408.0
2022-01-24-12:00:02.413085,14.0,10.0,408.0
2022-01-24-12:00:02.414082,14.0,10.0,408.0
2022-01-24-12:00:02.415080,14.0,10.0,408.0
2022-01-24-12:00:02.416078,18.0,14.0,408.0
2022-01-24-12:00:02.417074,9.0,16.0,408.0
2022-01-24-12:00:02.418072,8.0,16.0,409.0
2022-01-24-12:00:02.419013,8.0,16.0,409.0
2022-01-24-12:00:02.420097,6.0,17.0,408.0
2022-01-24-12:00:02.420097,5.0,9.0,408.0
2022-01-24-12:00:02.421152,2.0,7.0,409.0
2022-01-24-12:00:02.422150,2.0,7.0,409.0
2022-01-24-12:00:02.423155,2.0,7.0,409.0
2022-01-24-12:00:02.424148,2.0,5.0,408.0
2022-01-24-12:00:02.425148,2.0,1.0,409.0
2022-01-24-12:00:02.426141,2.0,6.0,408.0
2022-01-24-12:00:02.427081,2.0,6.0,408.0
2022-01-24-12:00:02.428078,3.0,14.0,408.0
2022-01-24-12:00:02.429075,9.0,13.0,409.0
2022-01-24-12:00:02.430072,9.0,13.0,409.0
2022-01-24-12:00:02.432126,9.0,13.0,409.0
2022-01-24-12:00:02.432126,13.0,2.0,408.0
2022-01-24-12:00:02.433120,12.0,15.0,408.0
2022-01-24-12:00:02.434120,11.0,15.0,409.0
2022-01-24-12:00:02.435118,11.0,15.0,409.0
2022-01-24-12:00:02.436057,6.0,12.0,408.0
2022-01-24-12:00:02.437110,5.0,14.0,408.0
2022-01-24-12:00:02.438107,5.0,14.0,408.0
2022-01-24-12:00:02.439104,5.0,14.0,408.0
2022-01-24-12:00:02.440105,1.0,12.0,408.0
2022-01-24-12:00:02.441099,2.0,0.0,408.0
2022-01-24-12:00:02.442098,6.0,5.0,408.0
2022-01-24-12:00:02.443038,6.0,5.0,408.0
2022-01-24-12:00:02.444083,4.0,17.0,408.0
2022-01-24-12:00:02.445354,4.0,17.0,408.0
2022-01-24-12:00:02.445354,6.0,7.0,408.0
2022-01-24-12:00:02.446403,6.0,7.0,408.0
2022-01-24-12:00:02.447571,6.0,7.0,408.0
2022-01-24-12:00:02.447571,12.0,3.0,409.0
2022-01-24-12:00:02.448619,16.0,14.0,408.0
2022-01-24-12:00:02.449616,8.0,13.0,408.0
2022-01-24-12:00:02.450613,8.0,13.0,408.0
2022-01-24-12:00:02.451600,8.0,13.0,408.0
2022-01-24-12:00:02.452588,8.0,13.0,408.0
2022-01-24-12:00:02.453584,3.0,9.0,408.0
2022-01-24-12:00:02.454604,4.0,7.0,408.0
2022-01-24-12:00:02.455600,4.0,7.0,408.0
2022-01-24-12:00:02.456597,1.0,5.0,408.0
2022-01-24-12:00:02.457629,2.0,9.0,408.0
2022-01-24-12:00:02.457629,2.0,1.0,408.0
2022-01-24-12:00:02.458665,2.0,1.0,408.0
2022-01-24-12:00:02.459659,2.0,1.0,408.0
2022-01-24-12:00:02.461621,4.0,4.0,409.0
2022-01-24-12:00:02.461621,7.0,9.0,409.0
2022-01-24-12:00:02.462651,7.0,9.0,409.0
2022-01-24-12:00:02.463648,7.0,9.0,409.0
2022-01-24-12:00:02.464646,8.0,1.0,408.0
2022-01-24-12:00:02.465642,18.0,12.0,408.0
2022-01-24-12:00:02.466754,8.0,14.0,409.0
2022-01-24-12:00:02.466754,8.0,14.0,409.0
2022-01-24-12:00:02.467953,8.0,14.0,409.0
2022-01-24-12:00:02.467953,6.0,11.0,408.0
2022-01-24-12:00:02.468987,1.0,10.0,408.0
2022-01-24-12:00:02.470005,1.0,10.0,408.0
2022-01-24-12:00:02.471002,1.0,10.0,408.0
2022-01-24-12:00:02.472000,1.0,10.0,408.0
2022-01-24-12:00:02.473001,2.0,9.0,408.0
2022-01-24-12:00:02.473973,1.0,1.0,408.0
2022-01-24-12:00:02.474994,1.0,1.0,408.0
2022-01-24-12:00:02.475990,1.0,1.0,408.0
2022-01-24-12:00:02.476989,2.0,10.0,408.0
2022-01-24-12:00:02.477953,8.0,12.0,408.0
2022-01-24-12:00:02.478982,8.0,12.0,408.0
2022-01-24-12:00:02.479923,8.0,12.0,408.0
2022-01-24-12:00:02.480980,7.0,22.0,408.0
2022-01-24-12:00:02.481973,17.0,9.0,408.0
2022-01-24-12:00:02.482973,13.0,2.0,408.0
2022-01-24-12:00:02.483913,13.0,2.0,408.0
2022-01-24-12:00:02.484955,9.0,12.0,408.0
2022-01-24-12:00:02.485940,2.0,20.0,408.0
2022-01-24-12:00:02.486930,7.0,21.0,408.0
2022-01-24-12:00:02.487946,7.0,21.0,408.0
2022-01-24-12:00:02.488950,2.0,19.0,408.0
2022-01-24-12:00:02.489944,1.0,32.0,408.0
2022-01-24-12:00:02.490944,2.0,29.0,408.0
2022-01-24-12:00:02.491938,2.0,29.0,408.0
2022-01-24-12:00:02.492936,2.0,29.0,408.0
2022-01-24-12:00:02.493933,3.0,13.0,408.0
2022-01-24-12:00:02.495906,9.0,17.0,408.0
2022-01-24-12:00:02.495906,9.0,17.0,408.0
2022-01-24-12:00:02.496929,11.0,13.0,408.0
2022-01-24-12:00:02.497923,17.0,2.0,408.0
2022-01-24-12:00:02.498923,17.0,2.0,408.0
2022-01-24-12:00:02.499917,17.0,2.0,408.0
2022-01-24-12:00:02.500915,17.0,2.0,408.0
2022-01-24-12:00:02.501915,9.0,9.0,408.0
2022-01-24-12:00:02.502909,3.0,5.0,408.0
2022-01-24-12:00:02.503907,0.0,14.0,408.0
2022-01-24-12:00:02.504908,0.0,14.0,408.0
2022-01-24-12:00:02.505901,2.0,16.0,408.0
2022-01-24-12:00:02.506901,1.0,1.0,409.0
2022-01-24-12:00:02.507896,1.0,8.0,409.0
2022-01-24-12:00:02.508894,1.0,8.0,409.0
2022-01-24-12:00:02.509891,3.0,13.0,408.0
2022-01-24-12:00:02.510888,3.0,13.0,408.0
2022-01-24-12:00:02.511985,7.0,5.0,408.0
2022-01-24-12:00:02.511985,7.0,5.0,408.0
2022-01-24-12:00:02.513033,7.0,5.0,408.0
2022-01-24-12:00:02.514241,8.0,5.0,408.0
2022-01-24-12:00:02.514241,16.0,14.0,409.0
2022-01-24-12:00:02.515411,9.0,21.0,408.0
2022-01-24-12:00:02.515411,9.0,21.0,408.0
2022-01-24-12:00:02.516465,9.0,21.0,408.0
2022-01-24-12:00:02.517455,9.0,21.0,408.0
2022-01-24-12:00:02.518453,5.0,25.0,408.0
2022-01-24-12:00:02.519410,4.0,17.0,408.0
2022-01-24-12:00:02.520448,4.0,17.0,408.0
2022-01-24-12:00:02.521446,4.0,17.0,408.0
2022-01-24-12:00:02.522444,0.0,9.0,408.0
2022-01-24-12:00:02.523445,1.0,7.0,408.0
2022-01-24-12:00:02.524606,1.0,1.0,408.0
2022-01-24-12:00:02.524742,1.0,12.0,408.0
2022-01-24-12:00:02.525059,1.0,12.0,408.0
2022-01-24-12:00:02.525059,1.0,13.0,408.0
2022-01-24-12:00:02.526108,8.0,11.0,408.0
2022-01-24-12:00:02.527103,8.0,11.0,408.0
2022-01-24-12:00:02.528101,8.0,11.0,408.0
2022-01-24-12:00:02.530095,8.0,11.0,408.0
2022-01-24-12:00:02.530095,9.0,8.0,408.0
2022-01-24-12:00:02.531093,11.0,3.0,408.0
2022-01-24-12:00:02.532090,11.0,7.0,408.0
2022-01-24-12:00:02.533040,11.0,7.0,408.0
2022-01-24-12:00:02.534087,8.0,6.0,408.0
2022-01-24-12:00:02.535082,5.0,12.0,408.0
2022-01-24-12:00:02.536032,4.0,13.0,409.0
2022-01-24-12:00:02.537079,4.0,13.0,409.0
2022-01-24-12:00:02.538075,4.0,13.0,409.0
2022-01-24-12:00:02.539072,5.0,17.0,409.0
2022-01-24-12:00:02.540069,2.0,11.0,408.0
2022-01-24-12:00:02.541066,2.0,11.0,408.0
2022-01-24-12:00:02.542070,2.0,11.0,408.0
2022-01-24-12:00:02.543061,6.0,15.0,408.0
2022-01-24-12:00:02.544059,7.0,29.0,408.0
2022-01-24-12:00:02.545057,7.0,29.0,408.0
2022-01-24-12:00:02.546053,6.0,17.0,408.0
2022-01-24-12:00:02.547158,12.0,20.0,409.0
2022-01-24-12:00:02.547519,12.0,20.0,409.0
2022-01-24-12:00:02.547519,12.0,20.0,409.0
2022-01-24-12:00:02.548567,12.0,20.0,409.0
2022-01-24-12:00:02.549672,12.0,20.0,409.0
2022-01-24-12:00:02.549672,11.0,19.0,408.0
2022-01-24-12:00:02.550720,6.0,17.0,408.0
2022-01-24-12:00:02.551717,4.0,18.0,408.0
2022-01-24-12:00:02.552693,4.0,18.0,408.0
2022-01-24-12:00:02.553664,4.0,18.0,408.0
2022-01-24-12:00:02.554709,3.0,21.0,408.0
2022-01-24-12:00:02.555707,2.0,13.0,408.0
2022-01-24-12:00:02.556705,3.0,10.0,408.0
2022-01-24-12:00:02.557653,3.0,10.0,408.0
2022-01-24-12:00:02.558699,1.0,2.0,408.0
2022-01-24-12:00:02.559696,3.0,7.0,408.0
2022-01-24-12:00:02.560694,4.0,6.0,408.0
2022-01-24-12:00:02.561672,4.0,6.0,408.0
2022-01-24-12:00:02.563686,4.0,6.0,408.0
2022-01-24-12:00:02.563686,5.0,11.0,408.0
2022-01-24-12:00:02.564684,5.0,11.0,408.0
2022-01-24-12:00:02.565680,5.0,11.0,408.0
2022-01-24-12:00:02.566677,5.0,11.0,408.0
2022-01-24-12:00:02.567675,1.0,5.0,408.0
2022-01-24-12:00:02.568673,7.0,5.0,408.0
2022-01-24-12:00:02.569671,7.0,5.0,408.0
2022-01-24-12:00:02.570667,7.0,5.0,408.0
2022-01-24-12:00:02.571664,5.0,1.0,408.0
2022-01-24-12:00:02.572662,2.0,9.0,408.0
2022-01-24-12:00:02.573659,5.0,13.0,408.0
2022-01-24-12:00:02.574656,5.0,13.0,408.0
2022-01-24-12:00:02.575653,1.0,7.0,408.0
2022-01-24-12:00:02.576651,1.0,11.0,409.0
2022-01-24-12:00:02.577745,6.0,10.0,408.0
2022-01-24-12:00:02.577745,6.0,10.0,408.0
2022-01-24-12:00:02.578779,6.0,6.0,408.0
2022-01-24-12:00:02.579849,10.0,11.0,408.0
2022-01-24-12:00:02.579849,11.0,25.0,408.0
2022-01-24-12:00:02.580898,11.0,25.0,408.0
2022-01-24-12:00:02.581893,11.0,25.0,408.0
2022-01-24-12:00:02.582897,11.0,25.0,408.0
2022-01-24-12:00:02.583866,11.0,25.0,408.0
2022-01-24-12:00:02.584881,7.0,30.0,408.0
2022-01-24-12:00:02.585884,8.0,21.0,409.0
2022-01-24-12:00:02.586859,4.0,18.0,408.0
2022-01-24-12:00:02.587878,3.0,10.0,408.0
2022-01-24-12:00:02.588876,0.0,1.0,408.0
2022-01-24-12:00:02.589872,1.0,4.0,408.0
2022-01-24-12:00:02.590870,1.0,4.0,408.0
2022-01-24-12:00:02.591867,2.0,3.0,408.0
2022-01-24-12:00:02.592867,3.0,15.0,408.0
2022-01-24-12:00:02.593863,0.0,19.0,408.0
2022-01-24-12:00:02.594859,0.0,19.0,408.0
2022-01-24-12:00:02.595856,8.0,22.0,408.0
2022-01-24-12:00:02.597851,8.0,5.0,408.0
2022-01-24-12:00:02.597851,8.0,5.0,408.0
2022-01-24-12:00:02.598848,8.0,5.0,408.0
2022-01-24-12:00:02.599845,8.0,4.0,408.0
2022-01-24-12:00:02.600843,8.0,20.0,408.0
2022-01-24-12:00:02.601846,7.0,22.0,408.0
2022-01-24-12:00:02.602790,7.0,22.0,408.0
2022-01-24-12:00:02.603835,0.0,26.0,408.0
2022-01-24-12:00:02.604833,1.0,16.0,409.0
2022-01-24-12:00:02.605833,2.0,15.0,408.0
2022-01-24-12:00:02.606779,2.0,15.0,408.0
2022-01-24-12:00:02.607824,1.0,13.0,408.0
2022-01-24-12:00:02.608821,3.0,2.0,408.0
2022-01-24-12:00:02.609820,3.0,5.0,408.0
2022-01-24-12:00:02.610823,3.0,5.0,408.0
2022-01-24-12:00:02.611813,6.0,1.0,408.0
2022-01-24-12:00:02.612811,6.0,8.0,408.0
2022-01-24-12:00:02.613808,6.0,8.0,408.0
2022-01-24-12:00:02.614805,6.0,8.0,408.0
2022-01-24-12:00:02.615780,8.0,16.0,409.0
2022-01-24-12:00:02.616801,2.0,6.0,408.0
2022-01-24-12:00:02.617799,5.0,1.0,408.0
2022-01-24-12:00:02.618794,5.0,1.0,408.0
2022-01-24-12:00:02.619745,5.0,1.0,408.0
2022-01-24-12:00:02.620790,3.0,7.0,408.0
2022-01-24-12:00:02.621787,5.0,11.0,409.0
2022-01-24-12:00:02.622785,5.0,2.0,408.0
2022-01-24-12:00:02.623782,5.0,2.0,408.0
2022-01-24-12:00:02.624784,3.0,5.0,408.0
2022-01-24-12:00:02.625777,6.0,5.0,408.0
2022-01-24-12:00:02.626774,8.0,0.0,408.0
2022-01-24-12:00:02.627771,8.0,0.0,408.0
2022-01-24-12:00:02.628769,11.0,3.0,408.0
2022-01-24-12:00:02.629766,7.0,20.0,408.0
2022-01-24-12:00:02.631760,7.0,20.0,408.0
2022-01-24-12:00:02.631760,4.0,29.0,408.0
2022-01-24-12:00:02.632758,1.0,24.0,408.0
2022-01-24-12:00:02.633756,1.0,14.0,409.0
2022-01-24-12:00:02.634752,1.0,14.0,409.0
2022-01-24-12:00:02.635746,1.0,14.0,409.0
2022-01-24-12:00:02.636753,4.0,6.0,408.0
2022-01-24-12:00:02.637750,4.0,9.0,408.0
2022-01-24-12:00:02.638743,2.0,3.0,408.0
2022-01-24-12:00:02.639691,2.0,3.0,408.0
2022-01-24-12:00:02.640736,2.0,4.0,409.0
2022-01-24-12:00:02.641735,4.0,2.0,408.0
2022-01-24-12:00:02.642731,12.0,7.0,408.0
2022-01-24-12:00:02.643681,12.0,7.0,408.0
2022-01-24-12:00:02.644726,12.0,7.0,408.0
2022-01-24-12:00:02.645723,12.0,7.0,408.0
2022-01-24-12:00:02.646727,4.0,5.0,408.0
2022-01-24-12:00:02.647697,4.0,5.0,408.0
2022-01-24-12:00:02.648715,4.0,5.0,408.0
2022-01-24-12:00:02.649664,2.0,11.0,408.0
2022-01-24-12:00:02.650661,2.0,9.0,408.0
2022-01-24-12:00:02.651658,2.0,9.0,408.0
2022-01-24-12:00:02.652656,2.0,9.0,408.0
2022-01-24-12:00:02.653653,4.0,7.0,409.0
2022-01-24-12:00:02.654650,5.0,3.0,408.0
2022-01-24-12:00:02.655685,5.0,3.0,408.0
2022-01-24-12:00:02.656680,5.0,3.0,408.0
2022-01-24-12:00:02.657676,6.0,7.0,408.0
2022-01-24-12:00:02.658794,8.0,7.0,408.0
2022-01-24-12:00:02.658794,8.0,7.0,408.0
2022-01-24-12:00:02.659840,8.0,7.0,408.0
2022-01-24-12:00:02.660836,8.0,7.0,408.0
2022-01-24-12:00:02.661835,10.0,12.0,408.0
2022-01-24-12:00:02.662832,10.0,12.0,408.0
2022-01-24-12:00:02.664828,6.0,3.0,408.0
2022-01-24-12:00:02.664828,5.0,2.0,408.0
2022-01-24-12:00:02.666113,5.0,2.0,408.0
2022-01-24-12:00:02.666113,1.0,15.0,408.0
2022-01-24-12:00:02.667148,1.0,15.0,408.0
2022-01-24-12:00:02.668178,1.0,5.0,408.0
2022-01-24-12:00:02.669145,0.0,1.0,409.0
2022-01-24-12:00:02.670271,0.0,8.0,408.0
2022-01-24-12:00:02.670271,0.0,8.0,408.0
2022-01-24-12:00:02.671317,0.0,8.0,408.0
2022-01-24-12:00:02.672463,0.0,8.0,408.0
2022-01-24-12:00:02.672463,1.0,6.0,408.0
2022-01-24-12:00:02.673494,1.0,6.0,408.0
2022-01-24-12:00:02.674491,8.0,3.0,408.0
2022-01-24-12:00:02.675491,8.0,3.0,408.0
2022-01-24-12:00:02.676454,8.0,3.0,408.0
2022-01-24-12:00:02.677483,10.0,7.0,408.0
2022-01-24-12:00:02.678484,9.0,5.0,408.0
2022-01-24-12:00:02.679478,12.0,4.0,408.0
2022-01-24-12:00:02.680477,12.0,4.0,408.0
2022-01-24-12:00:02.681472,12.0,4.0,408.0
2022-01-24-12:00:02.682470,3.0,2.0,408.0
2022-01-24-12:00:02.683470,3.0,2.0,408.0
2022-01-24-12:00:02.684465,3.0,2.0,408.0
2022-01-24-12:00:02.685462,3.0,2.0,408.0
2022-01-24-12:00:02.686428,4.0,11.0,409.0
2022-01-24-12:00:02.687449,1.0,8.0,408.0
2022-01-24-12:00:02.688455,1.0,8.0,408.0
2022-01-24-12:00:02.689443,1.0,8.0,408.0
2022-01-24-12:00:02.690540,4.0,18.0,408.0
2022-01-24-12:00:02.690540,4.0,5.0,408.0
2022-01-24-12:00:02.691587,4.0,5.0,408.0
2022-01-24-12:00:02.692593,4.0,5.0,408.0
2022-01-24-12:00:02.693581,4.0,5.0,408.0
2022-01-24-12:00:02.694531,12.0,6.0,408.0
2022-01-24-12:00:02.695958,13.0,2.0,408.0
2022-01-24-12:00:02.695958,13.0,2.0,408.0
2022-01-24-12:00:02.697013,13.0,2.0,408.0
2022-01-24-12:00:02.698952,13.0,2.0,408.0
2022-01-24-12:00:02.698952,2.0,3.0,408.0
2022-01-24-12:00:02.700080,2.0,1.0,408.0
2022-01-24-12:00:02.700080,2.0,1.0,408.0
2022-01-24-12:00:02.701080,2.0,1.0,408.0
2022-01-24-12:00:02.702332,2.0,1.0,408.0
2022-01-24-12:00:02.702332,3.0,1.0,408.0
2022-01-24-12:00:02.703366,1.0,15.0,408.0
2022-01-24-12:00:02.704361,1.0,15.0,408.0
2022-01-24-12:00:02.705361,1.0,15.0,408.0
2022-01-24-12:00:02.706356,1.0,21.0,408.0
2022-01-24-12:00:02.707476,2.0,20.0,408.0
2022-01-24-12:00:02.707476,10.0,7.0,408.0
2022-01-24-12:00:02.708523,10.0,7.0,408.0
2022-01-24-12:00:02.709519,10.0,7.0,408.0
2022-01-24-12:00:02.710698,9.0,3.0,408.0
2022-01-24-12:00:02.710698,13.0,11.0,408.0
2022-01-24-12:00:02.711730,13.0,11.0,408.0
2022-01-24-12:00:02.712727,12.0,7.0,408.0
2022-01-24-12:00:02.713727,12.0,7.0,408.0
2022-01-24-12:00:02.714722,12.0,7.0,408.0
2022-01-24-12:00:02.715858,3.0,6.0,408.0
2022-01-24-12:00:02.716162,1.0,12.0,408.0
2022-01-24-12:00:02.716162,1.0,12.0,408.0
2022-01-24-12:00:02.717212,1.0,12.0,408.0
2022-01-24-12:00:02.718189,1.0,12.0,408.0
2022-01-24-12:00:02.719167,2.0,11.0,408.0
2022-01-24-12:00:02.720203,1.0,4.0,408.0
2022-01-24-12:00:02.721200,1.0,4.0,408.0
2022-01-24-12:00:02.722196,1.0,4.0,408.0
2022-01-24-12:00:02.723192,2.0,4.0,408.0
2022-01-24-12:00:02.724191,2.0,6.0,408.0
2022-01-24-12:00:02.725186,10.0,15.0,408.0
2022-01-24-12:00:02.726173,10.0,15.0,408.0
2022-01-24-12:00:02.727181,15.0,20.0,408.0
2022-01-24-12:00:02.728182,15.0,12.0,409.0
2022-01-24-12:00:02.729487,12.0,11.0,408.0
2022-01-24-12:00:02.729487,12.0,11.0,408.0
2022-01-24-12:00:02.730518,12.0,11.0,408.0
2022-01-24-12:00:02.731520,9.0,9.0,408.0
2022-01-24-12:00:02.733514,0.0,13.0,408.0
2022-01-24-12:00:02.733514,1.0,8.0,409.0
2022-01-24-12:00:02.734819,1.0,8.0,409.0
2022-01-24-12:00:02.734819,0.0,11.0,408.0
2022-01-24-12:00:02.735819,0.0,11.0,408.0
2022-01-24-12:00:02.736901,0.0,11.0,408.0
2022-01-24-12:00:02.736901,0.0,11.0,408.0
2022-01-24-12:00:02.738069,0.0,11.0,408.0
2022-01-24-12:00:02.738069,2.0,11.0,408.0
2022-01-24-12:00:02.739124,2.0,13.0,408.0
2022-01-24-12:00:02.740125,9.0,10.0,408.0
2022-01-24-12:00:02.741118,9.0,10.0,408.0
2022-01-24-12:00:02.742121,9.0,10.0,408.0
2022-01-24-12:00:02.743114,14.0,28.0,408.0
2022-01-24-12:00:02.744110,18.0,25.0,408.0
2022-01-24-12:00:02.745107,10.0,11.0,408.0
2022-01-24-12:00:02.746050,10.0,11.0,408.0
2022-01-24-12:00:02.747094,4.0,34.0,408.0
2022-01-24-12:00:02.748096,0.0,30.0,409.0
2022-01-24-12:00:02.749089,0.0,30.0,409.0
2022-01-24-12:00:02.750095,0.0,30.0,409.0
2022-01-24-12:00:02.751084,2.0,20.0,408.0
2022-01-24-12:00:02.752082,0.0,2.0,408.0
2022-01-24-12:00:02.753031,0.0,6.0,409.0
2022-01-24-12:00:02.754076,0.0,6.0,409.0
2022-01-24-12:00:02.755077,0.0,6.0,409.0
2022-01-24-12:00:02.756074,2.0,3.0,408.0
2022-01-24-12:00:02.757106,2.0,9.0,409.0
2022-01-24-12:00:02.757410,2.0,10.0,408.0
2022-01-24-12:00:02.757410,2.0,10.0,408.0
2022-01-24-12:00:02.758410,2.0,10.0,408.0
2022-01-24-12:00:02.759677,8.0,8.0,408.0
2022-01-24-12:00:02.759677,12.0,3.0,408.0
2022-01-24-12:00:02.760811,11.0,4.0,408.0
2022-01-24-12:00:02.760811,11.0,4.0,408.0
2022-01-24-12:00:02.761858,11.0,4.0,408.0
2022-01-24-12:00:02.762858,11.0,4.0,408.0
2022-01-24-12:00:02.764097,0.0,10.0,408.0
2022-01-24-12:00:02.764097,2.0,9.0,408.0
2022-01-24-12:00:02.766094,2.0,9.0,408.0
2022-01-24-12:00:02.766094,2.0,9.0,408.0
2022-01-24-12:00:02.767128,2.0,9.0,408.0
2022-01-24-12:00:02.768191,1.0,17.0,408.0
2022-01-24-12:00:02.768191,1.0,17.0,408.0
2022-01-24-12:00:02.769190,1.0,17.0,408.0
2022-01-24-12:00:02.770188,1.0,17.0,408.0
2022-01-24-12:00:02.771232,1.0,17.0,408.0
2022-01-24-12:00:02.772230,2.0,14.0,408.0
2022-01-24-12:00:02.773228,1.0,9.0,408.0
2022-01-24-12:00:02.774224,2.0,4.0,408.0
2022-01-24-12:00:02.775221,2.0,4.0,408.0
2022-01-24-12:00:02.776220,0.0,14.0,408.0
2022-01-24-12:00:02.777216,6.0,15.0,408.0
2022-01-24-12:00:02.778218,10.0,8.0,408.0
2022-01-24-12:00:02.779693,10.0,8.0,408.0
2022-01-24-12:00:02.779693,6.0,11.0,408.0
2022-01-24-12:00:02.780750,6.0,11.0,408.0
2022-01-24-12:00:02.781745,4.0,11.0,408.0
2022-01-24-12:00:02.782744,4.0,11.0,408.0
2022-01-24-12:00:02.783742,4.0,11.0,408.0
2022-01-24-12:00:02.784729,7.0,10.0,408.0
2022-01-24-12:00:02.785728,7.0,13.0,409.0
2022-01-24-12:00:02.786725,7.0,13.0,409.0
2022-01-24-12:00:02.787721,7.0,13.0,409.0
2022-01-24-12:00:02.788721,5.0,8.0,408.0
2022-01-24-12:00:02.789716,4.0,4.0,408.0
2022-01-24-12:00:02.790715,2.0,13.0,408.0
2022-01-24-12:00:02.791713,2.0,13.0,408.0
2022-01-24-12:00:02.792709,5.0,3.0,408.0
2022-01-24-12:00:02.793706,8.0,10.0,408.0
2022-01-24-12:00:02.794703,10.0,8.0,408.0
2022-01-24-12:00:02.795704,10.0,8.0,408.0
2022-01-24-12:00:02.796700,9.0,7.0,408.0
2022-01-24-12:00:02.797695,9.0,7.0,408.0
2022-01-24-12:00:02.798789,2.0,11.0,408.0
2022-01-24-12:00:02.798789,2.0,11.0,408.0
2022-01-24-12:00:02.800785,2.0,11.0,408.0
2022-01-24-12:00:02.801171,4.0,8.0,408.0
2022-01-24-12:00:02.801171,2.0,9.0,409.0
2022-01-24-12:00:02.802222,2.0,7.0,408.0
2022-01-24-12:00:02.803168,2.0,7.0,408.0
2022-01-24-12:00:02.804193,2.0,7.0,408.0
2022-01-24-12:00:02.805210,2.0,2.0,408.0
2022-01-24-12:00:02.806312,7.0,7.0,408.0
2022-01-24-12:00:02.806312,7.0,7.0,408.0
2022-01-24-12:00:02.807366,7.0,7.0,408.0
2022-01-24-12:00:02.808356,7.0,7.0,408.0
2022-01-24-12:00:02.809542,8.0,1.0,408.0
2022-01-24-12:00:02.809542,7.0,7.0,409.0
2022-01-24-12:00:02.810671,8.0,13.0,408.0
2022-01-24-12:00:02.810671,8.0,13.0,408.0
2022-01-24-12:00:02.811816,8.0,13.0,408.0
2022-01-24-12:00:02.811816,12.0,9.0,408.0
2022-01-24-12:00:02.812864,8.0,10.0,408.0
2022-01-24-12:00:02.813860,6.0,6.0,408.0
2022-01-24-12:00:02.814857,6.0,6.0,408.0
2022-01-24-12:00:02.815807,6.0,6.0,408.0
2022-01-24-12:00:02.816852,4.0,27.0,408.0
2022-01-24-12:00:02.817850,3.0,15.0,408.0
2022-01-24-12:00:02.818849,3.0,15.0,408.0
2022-01-24-12:00:02.819797,3.0,15.0,408.0
2022-01-24-12:00:02.820842,3.0,27.0,409.0
2022-01-24-12:00:02.821839,3.0,31.0,408.0
2022-01-24-12:00:02.822838,0.0,28.0,408.0
2022-01-24-12:00:02.823844,0.0,28.0,408.0
2022-01-24-12:00:02.824837,5.0,25.0,408.0
2022-01-24-12:00:02.825829,3.0,8.0,408.0
2022-01-24-12:00:02.826830,9.0,6.0,408.0
2022-01-24-12:00:02.827823,9.0,6.0,408.0
2022-01-24-12:00:02.828821,9.0,6.0,408.0
2022-01-24-12:00:02.829817,5.0,2.0,409.0
2022-01-24-12:00:02.830815,7.0,8.0,408.0
2022-01-24-12:00:02.831815,2.0,12.0,408.0
2022-01-24-12:00:02.832809,2.0,12.0,408.0
2022-01-24-12:00:02.833808,4.0,4.0,408.0
2022-01-24-12:00:02.835782,3.0,5.0,408.0
2022-01-24-12:00:02.835782,3.0,3.0,408.0
2022-01-24-12:00:02.836800,3.0,1.0,408.0
2022-01-24-12:00:02.837796,3.0,12.0,408.0
2022-01-24-12:00:02.838794,3.0,12.0,408.0
2022-01-24-12:00:02.839793,3.0,12.0,408.0
2022-01-24-12:00:02.840788,3.0,12.0,408.0
2022-01-24-12:00:02.841792,1.0,10.0,409.0
2022-01-24-12:00:02.842785,8.0,5.0,409.0
2022-01-24-12:00:02.843780,13.0,11.0,408.0
2022-01-24-12:00:02.844778,13.0,11.0,408.0
2022-01-24-12:00:02.845775,7.0,13.0,408.0
2022-01-24-12:00:02.846772,2.0,2.0,408.0
2022-01-24-12:00:02.847777,7.0,7.0,408.0
2022-01-24-12:00:02.848767,7.0,7.0,408.0
