2021-12-12-21:46:04.693688,2.0,1.0,486.0
2021-12-12-21:46:04.694686,1.0,8.0,485.0
2021-12-12-21:46:04.695683,1.0,19.0,485.0
2021-12-12-21:46:04.696680,6.0,10.0,485.0
2021-12-12-21:46:04.698674,13.0,4.0,485.0
2021-12-12-21:46:04.698674,10.0,22.0,485.0
2021-12-12-21:46:04.699672,1.0,4.0,485.0
2021-12-12-21:46:04.700669,2.0,11.0,485.0
2021-12-12-21:46:04.701667,6.0,11.0,485.0
2021-12-12-21:46:04.703661,17.0,22.0,485.0
2021-12-12-21:46:04.704660,12.0,39.0,485.0
2021-12-12-21:46:04.704660,4.0,14.0,485.0
2021-12-12-21:46:04.705657,2.0,10.0,486.0
2021-12-12-21:46:04.706654,1.0,9.0,486.0
2021-12-12-21:46:04.707651,19.0,10.0,486.0
2021-12-12-21:46:04.708648,12.0,34.0,485.0
2021-12-12-21:46:04.709645,4.0,5.0,486.0
2021-12-12-21:46:04.710642,2.0,23.0,485.0
2021-12-12-21:46:04.711640,11.0,10.0,485.0
2021-12-12-21:46:04.712637,7.0,33.0,485.0
2021-12-12-21:46:04.713635,2.0,7.0,485.0
2021-12-12-21:46:04.714632,4.0,34.0,485.0
2021-12-12-21:46:04.715629,7.0,17.0,486.0
2021-12-12-21:46:04.716627,10.0,38.0,486.0
2021-12-12-21:46:04.717624,1.0,18.0,486.0
2021-12-12-21:46:04.718622,1.0,14.0,485.0
2021-12-12-21:46:04.719619,4.0,18.0,485.0
2021-12-12-21:46:04.720615,5.0,11.0,485.0
2021-12-12-21:46:04.721614,7.0,9.0,486.0
2021-12-12-21:46:04.722610,17.0,41.0,485.0
2021-12-12-21:46:04.723608,2.0,19.0,485.0
2021-12-12-21:46:04.724606,1.0,10.0,485.0
2021-12-12-21:46:04.725603,8.0,34.0,485.0
2021-12-12-21:46:04.726600,7.0,10.0,485.0
2021-12-12-21:46:04.727598,15.0,36.0,485.0
2021-12-12-21:46:04.728596,9.0,43.0,485.0
2021-12-12-21:46:04.729607,2.0,15.0,485.0
2021-12-12-21:46:04.730590,5.0,22.0,485.0
2021-12-12-21:46:04.731586,0.0,28.0,485.0
2021-12-12-21:46:04.732584,8.0,3.0,485.0
2021-12-12-21:46:04.733581,15.0,46.0,485.0
2021-12-12-21:46:04.734578,3.0,1.0,485.0
2021-12-12-21:46:04.735575,1.0,22.0,485.0
2021-12-12-21:46:04.737570,4.0,39.0,486.0
2021-12-12-21:46:04.737570,16.0,49.0,486.0
2021-12-12-21:46:04.738568,3.0,11.0,486.0
2021-12-12-21:46:04.739565,3.0,29.0,486.0
2021-12-12-21:46:04.740562,3.0,18.0,485.0
2021-12-12-21:46:04.741560,8.0,0.0,486.0
2021-12-12-21:46:04.742557,14.0,41.0,485.0
2021-12-12-21:46:04.743571,1.0,20.0,485.0
2021-12-12-21:46:04.744551,3.0,16.0,485.0
2021-12-12-21:46:04.745550,1.0,21.0,485.0
2021-12-12-21:46:04.746546,7.0,31.0,485.0
2021-12-12-21:46:04.747560,14.0,45.0,485.0
2021-12-12-21:46:04.748541,3.0,10.0,485.0
2021-12-12-21:46:04.749538,6.0,29.0,486.0
2021-12-12-21:46:04.750536,6.0,5.0,485.0
2021-12-12-21:46:04.751533,12.0,17.0,485.0
2021-12-12-21:46:04.752531,7.0,30.0,485.0
2021-12-12-21:46:04.753529,2.0,12.0,485.0
2021-12-12-21:46:04.754526,7.0,33.0,485.0
2021-12-12-21:46:04.755522,6.0,10.0,485.0
2021-12-12-21:46:04.756519,10.0,5.0,485.0
2021-12-12-21:46:04.757517,7.0,42.0,485.0
2021-12-12-21:46:04.758514,2.0,9.0,486.0
2021-12-12-21:46:04.759511,2.0,20.0,486.0
2021-12-12-21:46:04.760509,4.0,3.0,486.0
2021-12-12-21:46:04.761506,6.0,21.0,486.0
2021-12-12-21:46:04.762504,3.0,15.0,485.0
2021-12-12-21:46:04.763501,3.0,25.0,486.0
2021-12-12-21:46:04.764498,10.0,2.0,486.0
2021-12-12-21:46:04.765496,18.0,28.0,485.0
2021-12-12-21:46:04.766493,5.0,22.0,485.0
2021-12-12-21:46:04.767490,4.0,10.0,485.0
2021-12-12-21:46:04.768487,6.0,13.0,486.0
2021-12-12-21:46:04.769485,16.0,46.0,485.0
2021-12-12-21:46:04.770482,8.0,24.0,486.0
2021-12-12-21:46:04.771480,2.0,1.0,485.0
2021-12-12-21:46:04.772477,3.0,10.0,485.0
2021-12-12-21:46:04.774472,5.0,18.0,485.0
2021-12-12-21:46:04.774472,7.0,5.0,486.0
2021-12-12-21:46:04.775469,4.0,25.0,485.0
2021-12-12-21:46:04.776466,3.0,1.0,485.0
2021-12-12-21:46:04.777464,2.0,19.0,486.0
2021-12-12-21:46:04.778461,7.0,4.0,486.0
2021-12-12-21:46:04.779459,17.0,38.0,486.0
2021-12-12-21:46:04.780456,3.0,15.0,485.0
2021-12-12-21:46:04.781453,4.0,20.0,486.0
2021-12-12-21:46:04.782451,7.0,8.0,485.0
2021-12-12-21:46:04.783448,14.0,58.0,486.0
2021-12-12-21:46:04.784445,1.0,19.0,486.0
2021-12-12-21:46:04.785443,6.0,18.0,486.0
2021-12-12-21:46:04.786440,2.0,10.0,486.0
2021-12-12-21:46:04.787437,8.0,46.0,486.0
2021-12-12-21:46:04.788434,18.0,37.0,486.0
2021-12-12-21:46:04.789432,1.0,7.0,485.0
2021-12-12-21:46:04.790429,1.0,28.0,486.0
2021-12-12-21:46:04.791427,17.0,12.0,486.0
2021-12-12-21:46:04.792424,12.0,42.0,486.0
2021-12-12-21:46:04.793421,2.0,11.0,486.0
2021-12-12-21:46:04.794419,2.0,33.0,486.0
2021-12-12-21:46:04.795416,15.0,56.0,485.0
2021-12-12-21:46:04.796413,5.0,9.0,486.0
2021-12-12-21:46:04.797411,5.0,31.0,486.0
2021-12-12-21:46:04.798408,4.0,12.0,486.0
2021-12-12-21:46:04.799405,16.0,37.0,486.0
2021-12-12-21:46:04.800402,6.0,24.0,486.0
2021-12-12-21:46:04.801400,1.0,26.0,485.0
2021-12-12-21:46:04.802397,1.0,22.0,485.0
2021-12-12-21:46:04.803395,1.0,40.0,485.0
2021-12-12-21:46:04.804392,4.0,13.0,486.0
2021-12-12-21:46:04.805389,16.0,55.0,485.0
2021-12-12-21:46:04.806387,6.0,29.0,485.0
2021-12-12-21:46:04.808381,7.0,17.0,485.0
2021-12-12-21:46:04.808381,4.0,27.0,485.0
2021-12-12-21:46:04.809379,1.0,4.0,486.0
2021-12-12-21:46:04.810376,3.0,34.0,485.0
2021-12-12-21:46:04.811373,9.0,15.0,485.0
2021-12-12-21:46:04.812370,18.0,48.0,485.0
2021-12-12-21:46:04.813368,0.0,20.0,485.0
2021-12-12-21:46:04.814365,3.0,11.0,486.0
2021-12-12-21:46:04.815363,4.0,22.0,485.0
2021-12-12-21:46:04.816360,7.0,3.0,485.0
2021-12-12-21:46:04.817357,11.0,41.0,485.0
2021-12-12-21:46:04.818355,1.0,9.0,485.0
2021-12-12-21:46:04.819355,2.0,13.0,486.0
2021-12-12-21:46:04.820349,8.0,4.0,485.0
2021-12-12-21:46:04.821346,16.0,47.0,485.0
2021-12-12-21:46:04.822344,1.0,17.0,485.0
2021-12-12-21:46:04.823341,2.0,38.0,485.0
2021-12-12-21:46:04.824338,2.0,42.0,485.0
2021-12-12-21:46:04.825336,1.0,31.0,485.0
2021-12-12-21:46:04.826333,7.0,19.0,486.0
2021-12-12-21:46:04.827330,18.0,63.0,486.0
2021-12-12-21:46:04.828328,1.0,8.0,486.0
2021-12-12-21:46:04.829325,2.0,20.0,485.0
2021-12-12-21:46:04.830322,5.0,16.0,486.0
2021-12-12-21:46:04.831319,11.0,8.0,486.0
2021-12-12-21:46:04.832317,11.0,47.0,486.0
2021-12-12-21:46:04.833314,1.0,8.0,486.0
2021-12-12-21:46:04.834312,3.0,20.0,486.0
2021-12-12-21:46:04.835309,8.0,23.0,486.0
2021-12-12-21:46:04.836306,16.0,18.0,485.0
2021-12-12-21:46:04.837304,9.0,40.0,485.0
2021-12-12-21:46:04.838301,6.0,17.0,485.0
2021-12-12-21:46:04.839298,1.0,10.0,486.0
2021-12-12-21:46:04.840295,5.0,10.0,486.0
2021-12-12-21:46:04.842290,12.0,6.0,485.0
2021-12-12-21:46:04.842290,1.0,0.0,485.0
2021-12-12-21:46:04.843288,2.0,19.0,485.0
2021-12-12-21:46:04.844286,4.0,31.0,485.0
2021-12-12-21:46:04.845282,7.0,17.0,485.0
2021-12-12-21:46:04.846280,19.0,53.0,485.0
2021-12-12-21:46:04.847277,0.0,15.0,485.0
2021-12-12-21:46:04.848274,5.0,19.0,486.0
2021-12-12-21:46:04.849272,7.0,13.0,485.0
2021-12-12-21:46:04.850269,17.0,37.0,486.0
2021-12-12-21:46:04.851266,5.0,23.0,485.0
2021-12-12-21:46:04.852264,2.0,17.0,485.0
2021-12-12-21:46:04.853261,7.0,11.0,485.0
2021-12-12-21:46:04.854258,17.0,32.0,485.0
2021-12-12-21:46:04.855256,4.0,18.0,485.0
2021-12-12-21:46:04.856253,0.0,16.0,486.0
2021-12-12-21:46:04.857251,3.0,23.0,485.0
2021-12-12-21:46:04.858248,19.0,26.0,485.0
2021-12-12-21:46:04.859245,6.0,29.0,485.0
2021-12-12-21:46:04.860242,1.0,18.0,485.0
2021-12-12-21:46:04.861240,5.0,13.0,485.0
2021-12-12-21:46:04.862237,15.0,12.0,485.0
2021-12-12-21:46:04.863234,3.0,28.0,485.0
2021-12-12-21:46:04.864232,3.0,11.0,485.0
2021-12-12-21:46:04.865229,1.0,13.0,485.0
2021-12-12-21:46:04.866226,11.0,18.0,485.0
2021-12-12-21:46:04.867224,3.0,6.0,485.0
2021-12-12-21:46:04.868221,3.0,13.0,485.0
2021-12-12-21:46:04.869218,4.0,7.0,485.0
2021-12-12-21:46:04.870215,14.0,24.0,485.0
2021-12-12-21:46:04.871213,1.0,3.0,485.0
2021-12-12-21:46:04.872210,7.0,32.0,486.0
2021-12-12-21:46:04.873208,5.0,9.0,485.0
2021-12-12-21:46:04.875202,10.0,14.0,485.0
2021-12-12-21:46:04.875202,15.0,48.0,486.0
2021-12-12-21:46:04.876200,3.0,21.0,485.0
2021-12-12-21:46:04.877197,2.0,27.0,486.0
2021-12-12-21:46:04.878194,8.0,2.0,485.0
2021-12-12-21:46:04.879192,17.0,38.0,485.0
2021-12-12-21:46:04.880189,2.0,6.0,485.0
2021-12-12-21:46:04.881186,4.0,27.0,486.0
2021-12-12-21:46:04.882183,6.0,1.0,486.0
2021-12-12-21:46:04.883181,16.0,26.0,485.0
2021-12-12-21:46:04.884180,0.0,12.0,486.0
2021-12-12-21:46:04.885176,4.0,9.0,486.0
2021-12-12-21:46:04.886173,5.0,17.0,486.0
2021-12-12-21:46:04.887170,14.0,14.0,486.0
2021-12-12-21:46:04.888168,15.0,56.0,486.0
2021-12-12-21:46:04.889166,3.0,1.0,486.0
2021-12-12-21:46:04.890163,7.0,8.0,486.0
2021-12-12-21:46:04.891161,18.0,45.0,486.0
2021-12-12-21:46:04.892158,8.0,28.0,485.0
2021-12-12-21:46:04.893155,2.0,13.0,485.0
2021-12-12-21:46:04.894153,6.0,22.0,486.0
2021-12-12-21:46:04.895150,2.0,27.0,486.0
2021-12-12-21:46:04.896147,10.0,22.0,486.0
2021-12-12-21:46:04.897144,7.0,37.0,485.0
2021-12-12-21:46:04.898142,2.0,16.0,486.0
2021-12-12-21:46:04.899139,2.0,27.0,485.0
2021-12-12-21:46:04.900136,10.0,8.0,485.0
2021-12-12-21:46:04.901134,18.0,50.0,485.0
2021-12-12-21:46:04.902131,4.0,1.0,485.0
2021-12-12-21:46:04.903128,4.0,39.0,486.0
2021-12-12-21:46:04.904126,9.0,13.0,485.0
2021-12-12-21:46:04.905123,14.0,55.0,486.0
2021-12-12-21:46:04.906121,14.0,55.0,486.0
2021-12-12-21:46:04.907118,3.0,1.0,486.0
2021-12-12-21:46:04.908115,1.0,30.0,486.0
2021-12-12-21:46:04.910110,1.0,30.0,486.0
2021-12-12-21:46:04.910110,2.0,18.0,485.0
2021-12-12-21:46:04.911107,10.0,11.0,485.0
2021-12-12-21:46:04.912104,8.0,30.0,485.0
2021-12-12-21:46:04.913102,3.0,9.0,486.0
2021-12-12-21:46:04.914099,1.0,25.0,486.0
2021-12-12-21:46:04.915096,11.0,12.0,486.0
2021-12-12-21:46:04.916094,12.0,50.0,485.0
2021-12-12-21:46:04.917091,3.0,7.0,485.0
2021-12-12-21:46:04.918088,3.0,29.0,485.0
2021-12-12-21:46:04.919086,8.0,5.0,485.0
2021-12-12-21:46:04.920083,12.0,38.0,485.0
2021-12-12-21:46:04.921080,1.0,2.0,485.0
2021-12-12-21:46:04.922078,4.0,7.0,486.0
2021-12-12-21:46:04.923075,7.0,17.0,486.0
2021-12-12-21:46:04.924072,17.0,39.0,485.0
2021-12-12-21:46:04.925070,1.0,1.0,485.0
2021-12-12-21:46:04.926067,3.0,21.0,486.0
2021-12-12-21:46:04.927064,19.0,45.0,486.0
2021-12-12-21:46:04.928062,5.0,2.0,486.0
2021-12-12-21:46:04.929059,3.0,26.0,486.0
2021-12-12-21:46:04.930056,6.0,0.0,485.0
2021-12-12-21:46:04.931054,18.0,42.0,485.0
2021-12-12-21:46:04.932051,1.0,5.0,485.0
2021-12-12-21:46:04.933048,4.0,22.0,485.0
2021-12-12-21:46:04.934046,7.0,6.0,485.0
2021-12-12-21:46:04.935043,17.0,34.0,486.0
2021-12-12-21:46:04.936040,8.0,38.0,485.0
2021-12-12-21:46:04.937038,1.0,15.0,485.0
2021-12-12-21:46:04.938035,2.0,1.0,485.0
2021-12-12-21:46:04.939034,4.0,12.0,485.0
2021-12-12-21:46:04.940030,17.0,33.0,485.0
2021-12-12-21:46:04.941028,3.0,11.0,485.0
2021-12-12-21:46:04.943023,4.0,13.0,485.0
2021-12-12-21:46:04.943023,5.0,25.0,485.0
2021-12-12-21:46:04.944020,1.0,12.0,485.0
2021-12-12-21:46:04.945017,13.0,7.0,486.0
2021-12-12-21:46:04.946014,9.0,34.0,486.0
2021-12-12-21:46:04.947012,2.0,7.0,486.0
2021-12-12-21:46:04.948009,3.0,23.0,485.0
2021-12-12-21:46:04.949007,6.0,1.0,485.0
2021-12-12-21:46:04.950002,13.0,57.0,485.0
2021-12-12-21:46:04.950999,8.0,43.0,485.0
2021-12-12-21:46:04.951998,4.0,28.0,486.0
2021-12-12-21:46:04.953027,4.0,21.0,486.0
2021-12-12-21:46:04.954026,6.0,21.0,486.0
2021-12-12-21:46:04.954989,7.0,0.0,485.0
2021-12-12-21:46:04.955987,18.0,40.0,486.0
2021-12-12-21:46:04.957022,2.0,8.0,486.0
2021-12-12-21:46:04.958015,3.0,7.0,486.0
2021-12-12-21:46:04.959013,1.0,20.0,485.0
2021-12-12-21:46:04.960010,10.0,20.0,486.0
2021-12-12-21:46:04.961007,18.0,18.0,486.0
2021-12-12-21:46:04.962005,2.0,6.0,486.0
2021-12-12-21:46:04.963000,2.0,13.0,486.0
2021-12-12-21:46:04.963999,9.0,10.0,486.0
2021-12-12-21:46:04.965000,12.0,18.0,485.0
2021-12-12-21:46:04.965994,6.0,21.0,485.0
2021-12-12-21:46:04.966957,1.0,19.0,485.0
2021-12-12-21:46:04.967955,2.0,14.0,485.0
2021-12-12-21:46:04.968984,15.0,8.0,485.0
2021-12-12-21:46:04.969949,7.0,26.0,486.0
2021-12-12-21:46:04.970946,3.0,15.0,485.0
2021-12-12-21:46:04.971943,0.0,32.0,485.0
2021-12-12-21:46:04.972940,11.0,12.0,486.0
2021-12-12-21:46:04.973973,15.0,30.0,486.0
2021-12-12-21:46:04.974970,6.0,19.0,486.0
2021-12-12-21:46:04.976930,2.0,10.0,486.0
2021-12-12-21:46:04.977927,3.0,28.0,486.0
2021-12-12-21:46:04.977927,6.0,10.0,486.0
2021-12-12-21:46:04.978924,16.0,43.0,486.0
2021-12-12-21:46:04.979922,2.0,14.0,485.0
2021-12-12-21:46:04.980919,4.0,7.0,485.0
2021-12-12-21:46:04.981917,6.0,19.0,485.0
2021-12-12-21:46:04.982914,13.0,4.0,485.0
2021-12-12-21:46:04.983911,5.0,25.0,486.0
2021-12-12-21:46:04.984908,2.0,4.0,485.0
2021-12-12-21:46:04.985906,5.0,27.0,485.0
2021-12-12-21:46:04.986903,9.0,4.0,485.0
2021-12-12-21:46:04.987900,10.0,34.0,485.0
2021-12-12-21:46:04.988898,1.0,9.0,486.0
2021-12-12-21:46:04.989895,0.0,26.0,486.0
2021-12-12-21:46:04.990892,5.0,9.0,486.0
2021-12-12-21:46:04.991890,5.0,22.0,485.0
2021-12-12-21:46:04.992887,6.0,2.0,486.0
2021-12-12-21:46:04.993885,8.0,36.0,486.0
2021-12-12-21:46:04.994882,9.0,7.0,486.0
2021-12-12-21:46:04.995879,15.0,53.0,485.0
2021-12-12-21:46:04.996877,2.0,7.0,485.0
2021-12-12-21:46:04.997874,6.0,25.0,486.0
2021-12-12-21:46:04.998871,4.0,34.0,485.0
2021-12-12-21:46:04.999868,9.0,2.0,486.0
2021-12-12-21:46:05.000866,15.0,20.0,486.0
2021-12-12-21:46:05.001863,2.0,22.0,486.0
2021-12-12-21:46:05.002862,2.0,12.0,486.0
2021-12-12-21:46:05.003892,5.0,1.0,485.0
2021-12-12-21:46:05.004894,17.0,2.0,485.0
2021-12-12-21:46:05.005853,4.0,25.0,485.0
2021-12-12-21:46:05.006850,4.0,0.0,485.0
2021-12-12-21:46:05.007847,2.0,16.0,486.0
2021-12-12-21:46:05.008844,12.0,10.0,486.0
2021-12-12-21:46:05.009842,18.0,42.0,485.0
2021-12-12-21:46:05.010839,2.0,11.0,485.0
2021-12-12-21:46:05.012834,5.0,31.0,486.0
2021-12-12-21:46:05.012834,5.0,31.0,486.0
2021-12-12-21:46:05.013831,5.0,31.0,486.0
2021-12-12-21:46:05.014828,8.0,0.0,485.0
2021-12-12-21:46:05.015826,8.0,0.0,485.0
2021-12-12-21:46:05.016823,8.0,0.0,485.0
2021-12-12-21:46:05.017820,8.0,0.0,485.0
2021-12-12-21:46:05.018818,11.0,11.0,486.0
2021-12-12-21:46:05.019815,14.0,51.0,486.0
2021-12-12-21:46:05.020812,14.0,51.0,486.0
2021-12-12-21:46:05.021810,14.0,51.0,486.0
2021-12-12-21:46:05.022807,5.0,31.0,486.0
2021-12-12-21:46:05.023805,1.0,10.0,486.0
2021-12-12-21:46:05.024802,1.0,10.0,486.0
2021-12-12-21:46:05.025799,1.0,10.0,486.0
2021-12-12-21:46:05.026797,0.0,22.0,485.0
2021-12-12-21:46:05.027794,0.0,22.0,485.0
2021-12-12-21:46:05.028791,0.0,22.0,485.0
2021-12-12-21:46:05.029788,0.0,22.0,485.0
2021-12-12-21:46:05.030786,3.0,26.0,486.0
2021-12-12-21:46:05.031783,8.0,20.0,486.0
2021-12-12-21:46:05.032781,8.0,20.0,486.0
2021-12-12-21:46:05.033778,8.0,20.0,486.0
2021-12-12-21:46:05.034775,8.0,20.0,486.0
2021-12-12-21:46:05.035772,6.0,4.0,486.0
2021-12-12-21:46:05.036770,20.0,32.0,486.0
2021-12-12-21:46:05.037767,20.0,32.0,486.0
2021-12-12-21:46:05.038765,19.0,39.0,486.0
2021-12-12-21:46:05.039762,1.0,4.0,486.0
2021-12-12-21:46:05.040759,1.0,4.0,486.0
2021-12-12-21:46:05.041756,1.0,4.0,486.0
2021-12-12-21:46:05.042754,1.0,4.0,486.0
2021-12-12-21:46:05.043751,4.0,15.0,486.0
2021-12-12-21:46:05.044749,3.0,15.0,485.0
2021-12-12-21:46:05.046743,2.0,17.0,485.0
2021-12-12-21:46:05.046743,1.0,15.0,485.0
2021-12-12-21:46:05.047740,4.0,4.0,486.0
2021-12-12-21:46:05.048738,4.0,4.0,486.0
2021-12-12-21:46:05.049735,4.0,4.0,486.0
2021-12-12-21:46:05.050733,4.0,4.0,486.0
2021-12-12-21:46:05.051730,9.0,29.0,485.0
2021-12-12-21:46:05.052727,16.0,40.0,485.0
2021-12-12-21:46:05.053725,16.0,40.0,485.0
2021-12-12-21:46:05.054722,16.0,40.0,485.0
2021-12-12-21:46:05.055719,16.0,36.0,485.0
2021-12-12-21:46:05.056717,1.0,7.0,485.0
2021-12-12-21:46:05.057715,1.0,7.0,485.0
2021-12-12-21:46:05.058711,1.0,7.0,485.0
2021-12-12-21:46:05.059709,3.0,5.0,485.0
2021-12-12-21:46:05.060706,2.0,20.0,486.0
2021-12-12-21:46:05.061703,2.0,20.0,486.0
2021-12-12-21:46:05.062701,2.0,20.0,486.0
2021-12-12-21:46:05.063698,3.0,27.0,485.0
2021-12-12-21:46:05.064695,7.0,5.0,485.0
2021-12-12-21:46:05.065692,7.0,5.0,485.0
2021-12-12-21:46:05.066690,7.0,5.0,485.0
2021-12-12-21:46:05.067688,7.0,0.0,485.0
2021-12-12-21:46:05.068685,15.0,18.0,485.0
2021-12-12-21:46:05.069682,15.0,18.0,485.0
2021-12-12-21:46:05.070679,15.0,18.0,485.0
2021-12-12-21:46:05.071677,13.0,42.0,486.0
2021-12-12-21:46:05.072674,6.0,25.0,485.0
2021-12-12-21:46:05.073671,6.0,25.0,485.0
2021-12-12-21:46:05.074668,6.0,25.0,485.0
2021-12-12-21:46:05.075666,6.0,25.0,485.0
2021-12-12-21:46:05.076663,3.0,0.0,485.0
2021-12-12-21:46:05.077660,1.0,7.0,485.0
2021-12-12-21:46:05.078658,1.0,7.0,485.0
2021-12-12-21:46:05.079655,1.0,7.0,485.0
2021-12-12-21:46:05.081650,5.0,18.0,485.0
2021-12-12-21:46:05.081650,5.0,18.0,485.0
2021-12-12-21:46:05.082647,5.0,18.0,485.0
2021-12-12-21:46:05.083645,5.0,18.0,485.0
2021-12-12-21:46:05.084642,7.0,7.0,485.0
2021-12-12-21:46:05.085639,11.0,28.0,485.0
2021-12-12-21:46:05.086636,11.0,28.0,485.0
2021-12-12-21:46:05.087634,11.0,28.0,485.0
2021-12-12-21:46:05.088631,16.0,43.0,485.0
2021-12-12-21:46:05.089629,9.0,3.0,485.0
2021-12-12-21:46:05.090626,9.0,3.0,485.0
2021-12-12-21:46:05.091623,9.0,3.0,485.0
2021-12-12-21:46:05.092621,4.0,11.0,485.0
2021-12-12-21:46:05.093618,4.0,5.0,485.0
2021-12-12-21:46:05.094615,4.0,5.0,485.0
2021-12-12-21:46:05.095613,4.0,5.0,485.0
2021-12-12-21:46:05.096610,6.0,8.0,485.0
2021-12-12-21:46:05.097607,7.0,26.0,485.0
2021-12-12-21:46:05.098605,7.0,26.0,485.0
2021-12-12-21:46:05.099602,7.0,26.0,485.0
2021-12-12-21:46:05.100599,12.0,12.0,485.0
2021-12-12-21:46:05.101596,9.0,8.0,485.0
2021-12-12-21:46:05.102594,9.0,8.0,485.0
2021-12-12-21:46:05.103591,9.0,8.0,485.0
2021-12-12-21:46:05.104588,16.0,44.0,486.0
2021-12-12-21:46:05.105587,14.0,43.0,486.0
2021-12-12-21:46:05.106584,9.0,27.0,486.0
2021-12-12-21:46:05.107580,9.0,27.0,486.0
2021-12-12-21:46:05.108610,5.0,1.0,485.0
2021-12-12-21:46:05.109605,2.0,16.0,485.0
2021-12-12-21:46:05.110608,2.0,16.0,485.0
2021-12-12-21:46:05.111604,2.0,16.0,485.0
2021-12-12-21:46:05.113599,1.0,21.0,486.0
2021-12-12-21:46:05.113599,3.0,23.0,486.0
2021-12-12-21:46:05.114596,3.0,23.0,486.0
2021-12-12-21:46:05.115592,3.0,23.0,486.0
2021-12-12-21:46:05.116589,3.0,23.0,486.0
2021-12-12-21:46:05.117554,5.0,12.0,485.0
2021-12-12-21:46:05.118586,2.0,12.0,485.0
2021-12-12-21:46:05.119581,2.0,12.0,485.0
2021-12-12-21:46:05.120579,2.0,12.0,485.0
2021-12-12-21:46:05.121577,17.0,47.0,486.0
2021-12-12-21:46:05.122576,7.0,22.0,486.0
2021-12-12-21:46:05.123574,7.0,22.0,486.0
2021-12-12-21:46:05.124567,7.0,22.0,486.0
2021-12-12-21:46:05.125565,2.0,1.0,486.0
2021-12-12-21:46:05.126565,2.0,6.0,486.0
2021-12-12-21:46:05.127560,2.0,6.0,486.0
2021-12-12-21:46:05.128557,2.0,6.0,486.0
2021-12-12-21:46:05.129557,7.0,30.0,486.0
2021-12-12-21:46:05.130552,7.0,30.0,486.0
2021-12-12-21:46:05.131549,7.0,30.0,486.0
2021-12-12-21:46:05.132546,7.0,30.0,486.0
2021-12-12-21:46:05.133512,8.0,17.0,486.0
2021-12-12-21:46:05.134544,11.0,10.0,486.0
2021-12-12-21:46:05.135538,11.0,10.0,486.0
2021-12-12-21:46:05.136536,11.0,10.0,486.0
2021-12-12-21:46:05.137535,17.0,42.0,486.0
2021-12-12-21:46:05.138531,7.0,30.0,486.0
2021-12-12-21:46:05.139528,7.0,30.0,486.0
2021-12-12-21:46:05.140493,7.0,30.0,486.0
2021-12-12-21:46:05.141525,3.0,21.0,486.0
2021-12-12-21:46:05.142522,0.0,5.0,486.0
2021-12-12-21:46:05.143519,0.0,5.0,486.0
2021-12-12-21:46:05.144481,0.0,5.0,486.0
2021-12-12-21:46:05.145513,3.0,19.0,486.0
2021-12-12-21:46:05.146510,4.0,17.0,486.0
2021-12-12-21:46:05.148505,4.0,17.0,486.0
2021-12-12-21:46:05.148505,5.0,0.0,486.0
2021-12-12-21:46:05.149501,10.0,13.0,486.0
2021-12-12-21:46:05.150466,10.0,13.0,486.0
2021-12-12-21:46:05.151500,10.0,13.0,486.0
2021-12-12-21:46:05.152497,10.0,13.0,486.0
2021-12-12-21:46:05.153494,10.0,13.0,486.0
2021-12-12-21:46:05.154492,8.0,23.0,486.0
2021-12-12-21:46:05.155486,8.0,23.0,486.0
2021-12-12-21:46:05.156469,8.0,23.0,486.0
2021-12-12-21:46:05.157447,8.0,23.0,486.0
2021-12-12-21:46:05.158479,2.0,2.0,486.0
2021-12-12-21:46:05.159475,3.0,2.0,486.0
2021-12-12-21:46:05.160473,3.0,2.0,486.0
2021-12-12-21:46:05.161473,3.0,2.0,486.0
2021-12-12-21:46:05.162470,3.0,6.0,486.0
2021-12-12-21:46:05.163466,3.0,5.0,486.0
2021-12-12-21:46:05.164466,3.0,5.0,486.0
2021-12-12-21:46:05.165460,3.0,5.0,486.0
2021-12-12-21:46:05.166460,9.0,8.0,486.0
2021-12-12-21:46:05.167421,8.0,2.0,486.0
2021-12-12-21:46:05.168452,8.0,2.0,486.0
2021-12-12-21:46:05.169449,8.0,2.0,486.0
2021-12-12-21:46:05.170449,16.0,55.0,486.0
2021-12-12-21:46:05.171444,9.0,46.0,486.0
2021-12-12-21:46:05.172440,9.0,46.0,486.0
2021-12-12-21:46:05.173439,9.0,46.0,486.0
2021-12-12-21:46:05.174439,1.0,9.0,486.0
2021-12-12-21:46:05.175433,3.0,16.0,486.0
2021-12-12-21:46:05.176431,3.0,16.0,486.0
2021-12-12-21:46:05.177394,3.0,16.0,486.0
2021-12-12-21:46:05.178427,1.0,29.0,486.0
2021-12-12-21:46:05.179389,0.0,24.0,486.0
2021-12-12-21:46:05.180418,0.0,24.0,486.0
2021-12-12-21:46:05.182415,0.0,24.0,486.0
2021-12-12-21:46:05.182415,7.0,6.0,486.0
2021-12-12-21:46:05.183411,7.0,2.0,486.0
2021-12-12-21:46:05.184409,7.0,2.0,486.0
2021-12-12-21:46:05.185386,7.0,2.0,486.0
2021-12-12-21:46:05.186404,16.0,45.0,486.0
2021-12-12-21:46:05.187401,14.0,39.0,486.0
2021-12-12-21:46:05.188398,14.0,39.0,486.0
2021-12-12-21:46:05.189397,14.0,39.0,486.0
2021-12-12-21:46:05.190394,5.0,14.0,486.0
2021-12-12-21:46:05.191390,3.0,14.0,486.0
2021-12-12-21:46:05.192387,3.0,14.0,486.0
2021-12-12-21:46:05.193385,3.0,14.0,486.0
2021-12-12-21:46:05.194382,3.0,14.0,486.0
2021-12-12-21:46:05.195380,6.0,24.0,486.0
2021-12-12-21:46:05.196381,3.0,24.0,486.0
2021-12-12-21:46:05.197373,3.0,24.0,486.0
2021-12-12-21:46:05.198373,12.0,7.0,486.0
2021-12-12-21:46:05.199369,10.0,3.0,486.0
2021-12-12-21:46:05.200333,10.0,3.0,486.0
2021-12-12-21:46:05.201330,10.0,3.0,486.0
2021-12-12-21:46:05.202361,10.0,3.0,486.0
2021-12-12-21:46:05.203365,17.0,16.0,486.0
2021-12-12-21:46:05.204355,14.0,30.0,486.0
2021-12-12-21:46:05.205353,14.0,30.0,486.0
2021-12-12-21:46:05.206351,14.0,30.0,486.0
2021-12-12-21:46:05.207348,3.0,10.0,486.0
2021-12-12-21:46:05.208345,3.0,16.0,486.0
2021-12-12-21:46:05.209343,3.0,16.0,486.0
2021-12-12-21:46:05.210339,3.0,16.0,486.0
2021-12-12-21:46:05.211336,3.0,9.0,485.0
2021-12-12-21:46:05.212339,6.0,8.0,486.0
2021-12-12-21:46:05.213331,6.0,8.0,486.0
2021-12-12-21:46:05.214295,6.0,8.0,486.0
2021-12-12-21:46:05.216324,6.0,8.0,486.0
2021-12-12-21:46:05.216324,13.0,9.0,486.0
2021-12-12-21:46:05.217287,13.0,9.0,486.0
2021-12-12-21:46:05.218285,13.0,9.0,486.0
2021-12-12-21:46:05.219315,22.0,22.0,486.0
2021-12-12-21:46:05.220317,16.0,38.0,486.0
2021-12-12-21:46:05.221311,16.0,38.0,486.0
2021-12-12-21:46:05.222273,16.0,38.0,486.0
2021-12-12-21:46:05.223272,1.0,26.0,486.0
2021-12-12-21:46:05.224302,3.0,3.0,486.0
2021-12-12-21:46:05.225300,3.0,3.0,486.0
2021-12-12-21:46:05.226296,3.0,3.0,486.0
2021-12-12-21:46:05.227294,1.0,9.0,486.0
2021-12-12-21:46:05.228296,4.0,10.0,486.0
2021-12-12-21:46:05.229289,4.0,10.0,486.0
2021-12-12-21:46:05.230287,4.0,10.0,486.0
2021-12-12-21:46:05.231283,10.0,11.0,486.0
2021-12-12-21:46:05.232281,10.0,11.0,486.0
2021-12-12-21:46:05.233279,10.0,11.0,486.0
2021-12-12-21:46:05.234241,10.0,11.0,486.0
2021-12-12-21:46:05.235273,10.0,11.0,486.0
2021-12-12-21:46:05.236270,18.0,31.0,486.0
2021-12-12-21:46:05.237267,20.0,43.0,486.0
2021-12-12-21:46:05.238266,20.0,43.0,486.0
2021-12-12-21:46:05.239262,20.0,43.0,486.0
2021-12-12-21:46:05.240260,1.0,16.0,486.0
2021-12-12-21:46:05.241266,2.0,2.0,486.0
2021-12-12-21:46:05.242254,2.0,2.0,486.0
2021-12-12-21:46:05.243252,2.0,2.0,486.0
2021-12-12-21:46:05.244253,2.0,13.0,486.0
2021-12-12-21:46:05.245246,5.0,18.0,486.0
2021-12-12-21:46:05.246244,5.0,18.0,486.0
2021-12-12-21:46:05.248243,5.0,18.0,486.0
2021-12-12-21:46:05.248243,12.0,6.0,486.0
2021-12-12-21:46:05.249247,12.0,6.0,486.0
2021-12-12-21:46:05.250233,12.0,6.0,486.0
2021-12-12-21:46:05.251197,12.0,6.0,486.0
2021-12-12-21:46:05.252232,8.0,12.0,486.0
2021-12-12-21:46:05.253224,14.0,42.0,486.0
2021-12-12-21:46:05.254223,14.0,42.0,486.0
2021-12-12-21:46:05.255186,14.0,42.0,486.0
2021-12-12-21:46:05.256217,6.0,18.0,486.0
2021-12-12-21:46:05.257181,2.0,3.0,486.0
2021-12-12-21:46:05.258211,2.0,3.0,486.0
2021-12-12-21:46:05.259175,2.0,3.0,486.0
2021-12-12-21:46:05.260206,3.0,7.0,485.0
2021-12-12-21:46:05.261203,7.0,18.0,486.0
2021-12-12-21:46:05.262202,7.0,18.0,486.0
2021-12-12-21:46:05.263198,7.0,18.0,486.0
2021-12-12-21:46:05.264196,4.0,13.0,486.0
2021-12-12-21:46:05.265193,6.0,7.0,486.0
2021-12-12-21:46:05.266190,6.0,7.0,486.0
2021-12-12-21:46:05.267188,6.0,7.0,486.0
2021-12-12-21:46:05.268151,10.0,2.0,486.0
2021-12-12-21:46:05.269182,17.0,41.0,486.0
2021-12-12-21:46:05.270180,17.0,41.0,486.0
2021-12-12-21:46:05.271177,17.0,41.0,486.0
2021-12-12-21:46:05.272174,17.0,41.0,486.0
2021-12-12-21:46:05.273137,4.0,24.0,486.0
2021-12-12-21:46:05.274168,2.0,10.0,486.0
2021-12-12-21:46:05.275168,2.0,10.0,486.0
2021-12-12-21:46:05.276163,2.0,10.0,486.0
2021-12-12-21:46:05.277161,4.0,12.0,486.0
2021-12-12-21:46:05.278159,2.0,17.0,486.0
2021-12-12-21:46:05.279155,2.0,17.0,486.0
2021-12-12-21:46:05.280153,2.0,17.0,486.0
2021-12-12-21:46:05.281150,6.0,9.0,486.0
2021-12-12-21:46:05.283144,8.0,13.0,486.0
2021-12-12-21:46:05.283144,8.0,13.0,486.0
2021-12-12-21:46:05.284109,8.0,13.0,486.0
2021-12-12-21:46:05.285139,16.0,34.0,486.0
2021-12-12-21:46:05.286138,16.0,34.0,486.0
2021-12-12-21:46:05.287134,16.0,34.0,486.0
2021-12-12-21:46:05.288131,16.0,34.0,486.0
2021-12-12-21:46:05.289129,8.0,42.0,486.0
2021-12-12-21:46:05.290128,0.0,23.0,486.0
2021-12-12-21:46:05.291123,0.0,23.0,486.0
2021-12-12-21:46:05.292087,0.0,23.0,486.0
2021-12-12-21:46:05.293118,0.0,19.0,486.0
2021-12-12-21:46:05.294121,0.0,22.0,486.0
2021-12-12-21:46:05.295114,0.0,22.0,486.0
2021-12-12-21:46:05.296076,0.0,22.0,486.0
2021-12-12-21:46:05.297108,3.0,28.0,486.0
2021-12-12-21:46:05.298105,9.0,12.0,486.0
2021-12-12-21:46:05.299102,9.0,12.0,486.0
2021-12-12-21:46:05.300085,9.0,12.0,486.0
2021-12-12-21:46:05.301097,16.0,28.0,486.0
2021-12-12-21:46:05.302095,16.0,28.0,486.0
2021-12-12-21:46:05.303091,16.0,28.0,486.0
2021-12-12-21:46:05.304089,16.0,28.0,486.0
2021-12-12-21:46:05.305086,8.0,16.0,486.0
2021-12-12-21:46:05.306089,4.0,9.0,486.0
2021-12-12-21:46:05.307081,4.0,9.0,486.0
2021-12-12-21:46:05.308082,4.0,9.0,486.0
2021-12-12-21:46:05.309075,4.0,9.0,486.0
2021-12-12-21:46:05.310074,4.0,3.0,486.0
2021-12-12-21:46:05.311070,4.0,3.0,486.0
2021-12-12-21:46:05.312068,4.0,3.0,486.0
2021-12-12-21:46:05.313030,4.0,3.0,486.0
2021-12-12-21:46:05.314063,5.0,1.0,486.0
2021-12-12-21:46:05.315059,6.0,10.0,486.0
2021-12-12-21:46:05.316056,6.0,10.0,486.0
2021-12-12-21:46:05.318052,6.0,10.0,486.0
2021-12-12-21:46:05.318052,8.0,5.0,486.0
2021-12-12-21:46:05.319049,15.0,6.0,486.0
2021-12-12-21:46:05.320051,15.0,6.0,486.0
2021-12-12-21:46:05.321044,15.0,6.0,486.0
2021-12-12-21:46:05.322041,12.0,43.0,486.0
2021-12-12-21:46:05.323038,3.0,34.0,486.0
2021-12-12-21:46:05.324040,3.0,34.0,486.0
2021-12-12-21:46:05.325033,3.0,34.0,486.0
2021-12-12-21:46:05.326031,6.0,0.0,486.0
2021-12-12-21:46:05.327028,7.0,4.0,486.0
2021-12-12-21:46:05.328024,7.0,4.0,486.0
2021-12-12-21:46:05.328988,7.0,4.0,486.0
2021-12-12-21:46:05.330019,1.0,32.0,486.0
2021-12-12-21:46:05.331017,5.0,22.0,486.0
2021-12-12-21:46:05.332013,5.0,22.0,486.0
2021-12-12-21:46:05.332978,5.0,22.0,486.0
2021-12-12-21:46:05.334010,11.0,12.0,486.0
2021-12-12-21:46:05.335006,11.0,12.0,486.0
2021-12-12-21:46:05.336004,11.0,12.0,486.0
2021-12-12-21:46:05.336967,11.0,12.0,486.0
2021-12-12-21:46:05.337998,14.0,45.0,486.0
2021-12-12-21:46:05.338995,6.0,28.0,486.0
2021-12-12-21:46:05.339959,6.0,28.0,486.0
2021-12-12-21:46:05.340990,6.0,28.0,486.0
2021-12-12-21:46:05.341989,2.0,3.0,486.0
2021-12-12-21:46:05.342984,0.0,14.0,486.0
2021-12-12-21:46:05.343982,0.0,14.0,486.0
2021-12-12-21:46:05.344980,0.0,14.0,486.0
2021-12-12-21:46:05.345976,1.0,15.0,486.0
2021-12-12-21:46:05.346974,3.0,9.0,486.0
2021-12-12-21:46:05.347971,3.0,9.0,486.0
2021-12-12-21:46:05.348972,3.0,9.0,486.0
2021-12-12-21:46:05.349967,3.0,9.0,486.0
2021-12-12-21:46:05.351960,21.0,26.0,486.0
2021-12-12-21:46:05.351960,21.0,26.0,486.0
2021-12-12-21:46:05.352959,21.0,26.0,486.0
2021-12-12-21:46:05.353955,21.0,26.0,486.0
2021-12-12-21:46:05.354953,17.0,45.0,486.0
2021-12-12-21:46:05.355949,3.0,18.0,486.0
2021-12-12-21:46:05.356914,3.0,18.0,486.0
2021-12-12-21:46:05.357911,3.0,18.0,486.0
2021-12-12-21:46:05.358942,2.0,15.0,486.0
2021-12-12-21:46:05.359961,2.0,15.0,486.0
2021-12-12-21:46:05.360903,2.0,15.0,486.0
2021-12-12-21:46:05.361934,2.0,15.0,486.0
2021-12-12-21:46:05.362931,6.0,31.0,486.0
2021-12-12-21:46:05.363928,5.0,15.0,486.0
2021-12-12-21:46:05.364926,5.0,15.0,486.0
2021-12-12-21:46:05.365890,5.0,15.0,486.0
2021-12-12-21:46:05.366921,8.0,11.0,485.0
2021-12-12-21:46:05.367919,11.0,25.0,486.0
2021-12-12-21:46:05.368916,11.0,25.0,486.0
2021-12-12-21:46:05.369879,11.0,25.0,486.0
2021-12-12-21:46:05.370911,17.0,57.0,485.0
2021-12-12-21:46:05.371912,6.0,33.0,485.0
2021-12-12-21:46:05.372905,6.0,33.0,485.0
2021-12-12-21:46:05.373869,6.0,33.0,485.0
2021-12-12-21:46:05.374900,3.0,13.0,486.0
2021-12-12-21:46:05.375897,4.0,17.0,486.0
2021-12-12-21:46:05.376894,4.0,17.0,486.0
2021-12-12-21:46:05.377891,4.0,17.0,486.0
2021-12-12-21:46:05.378889,5.0,30.0,486.0
2021-12-12-21:46:05.379890,3.0,20.0,486.0
2021-12-12-21:46:05.380884,3.0,20.0,486.0
2021-12-12-21:46:05.381882,3.0,20.0,486.0
2021-12-12-21:46:05.382878,3.0,9.0,486.0
2021-12-12-21:46:05.383842,9.0,1.0,486.0
2021-12-12-21:46:05.385837,9.0,11.0,486.0
2021-12-12-21:46:05.385837,20.0,36.0,486.0
2021-12-12-21:46:05.386867,11.0,32.0,486.0
2021-12-12-21:46:05.387869,11.0,32.0,486.0
2021-12-12-21:46:05.388866,11.0,32.0,486.0
2021-12-12-21:46:05.389826,11.0,32.0,486.0
2021-12-12-21:46:05.390823,11.0,32.0,486.0
2021-12-12-21:46:05.391820,3.0,3.0,486.0
2021-12-12-21:46:05.392817,4.0,15.0,485.0
2021-12-12-21:46:05.393814,4.0,15.0,485.0
2021-12-12-21:46:05.394812,4.0,15.0,485.0
2021-12-12-21:46:05.395809,7.0,35.0,485.0
2021-12-12-21:46:05.396806,7.0,37.0,486.0
2021-12-12-21:46:05.397804,7.0,37.0,486.0
2021-12-12-21:46:05.398805,7.0,37.0,486.0
2021-12-12-21:46:05.399832,8.0,9.0,486.0
2021-12-12-21:46:05.400796,10.0,20.0,486.0
2021-12-12-21:46:05.401794,10.0,20.0,486.0
2021-12-12-21:46:05.402791,10.0,20.0,486.0
2021-12-12-21:46:05.403826,19.0,51.0,485.0
2021-12-12-21:46:05.404819,9.0,49.0,485.0
2021-12-12-21:46:05.405818,9.0,49.0,485.0
2021-12-12-21:46:05.406780,9.0,49.0,485.0
2021-12-12-21:46:05.407814,3.0,13.0,485.0
2021-12-12-21:46:05.408809,5.0,19.0,484.0
2021-12-12-21:46:05.409806,5.0,19.0,484.0
2021-12-12-21:46:05.410769,5.0,19.0,484.0
2021-12-12-21:46:05.411766,2.0,21.0,484.0
2021-12-12-21:46:05.412766,3.0,24.0,484.0
2021-12-12-21:46:05.413796,3.0,24.0,484.0
2021-12-12-21:46:05.414758,3.0,24.0,484.0
2021-12-12-21:46:05.415756,2.0,9.0,484.0
2021-12-12-21:46:05.416753,6.0,12.0,483.0
2021-12-12-21:46:05.417751,6.0,12.0,483.0
2021-12-12-21:46:05.419772,6.0,12.0,483.0
2021-12-12-21:46:05.420743,22.0,31.0,482.0
2021-12-12-21:46:05.420743,24.0,43.0,482.0
2021-12-12-21:46:05.421771,14.0,36.0,482.0
2021-12-12-21:46:05.422769,14.0,36.0,482.0
2021-12-12-21:46:05.423769,14.0,36.0,482.0
2021-12-12-21:46:05.424733,4.0,14.0,480.0
2021-12-12-21:46:05.425764,4.0,14.0,480.0
2021-12-12-21:46:05.426726,4.0,14.0,480.0
2021-12-12-21:46:05.427723,4.0,14.0,480.0
2021-12-12-21:46:05.428721,1.0,14.0,480.0
2021-12-12-21:46:05.429718,6.0,30.0,480.0
2021-12-12-21:46:05.430715,1.0,32.0,480.0
2021-12-12-21:46:05.431713,1.0,32.0,480.0
2021-12-12-21:46:05.432710,5.0,7.0,479.0
2021-12-12-21:46:05.433707,10.0,3.0,479.0
2021-12-12-21:46:05.434717,10.0,3.0,479.0
2021-12-12-21:46:05.435703,10.0,3.0,479.0
2021-12-12-21:46:05.436701,6.0,15.0,479.0
2021-12-12-21:46:05.437698,13.0,29.0,478.0
2021-12-12-21:46:05.438695,13.0,29.0,478.0
2021-12-12-21:46:05.439692,13.0,29.0,478.0
2021-12-12-21:46:05.440689,6.0,30.0,477.0
2021-12-12-21:46:05.441686,1.0,15.0,477.0
2021-12-12-21:46:05.442684,1.0,15.0,477.0
2021-12-12-21:46:05.443681,1.0,15.0,477.0
2021-12-12-21:46:05.444678,5.0,9.0,476.0
2021-12-12-21:46:05.445676,2.0,23.0,475.0
2021-12-12-21:46:05.446673,6.0,24.0,475.0
2021-12-12-21:46:05.447670,6.0,24.0,475.0
2021-12-12-21:46:05.448668,1.0,5.0,474.0
2021-12-12-21:46:05.449665,8.0,4.0,472.0
2021-12-12-21:46:05.450662,8.0,4.0,472.0
2021-12-12-21:46:05.451660,8.0,4.0,472.0
2021-12-12-21:46:05.452657,11.0,5.0,471.0
2021-12-12-21:46:05.453654,16.0,53.0,470.0
2021-12-12-21:46:05.454652,15.0,51.0,470.0
2021-12-12-21:46:05.456646,15.0,51.0,470.0
2021-12-12-21:46:05.456646,7.0,40.0,469.0
2021-12-12-21:46:05.457644,7.0,40.0,469.0
2021-12-12-21:46:05.458641,1.0,2.0,469.0
2021-12-12-21:46:05.459638,3.0,11.0,468.0
2021-12-12-21:46:05.460636,1.0,19.0,467.0
2021-12-12-21:46:05.461633,7.0,28.0,466.0
2021-12-12-21:46:05.462630,7.0,28.0,466.0
2021-12-12-21:46:05.463628,7.0,28.0,466.0
2021-12-12-21:46:05.464625,7.0,28.0,466.0
2021-12-12-21:46:05.465622,0.0,19.0,466.0
2021-12-12-21:46:05.466620,8.0,6.0,465.0
2021-12-12-21:46:05.467617,8.0,1.0,464.0
2021-12-12-21:46:05.468614,8.0,1.0,464.0
2021-12-12-21:46:05.469612,10.0,7.0,464.0
2021-12-12-21:46:05.470609,12.0,20.0,463.0
2021-12-12-21:46:05.471606,20.0,45.0,462.0
2021-12-12-21:46:05.472604,20.0,45.0,462.0
2021-12-12-21:46:05.473601,16.0,40.0,461.0
2021-12-12-21:46:05.474598,2.0,4.0,460.0
2021-12-12-21:46:05.475595,1.0,6.0,459.0
2021-12-12-21:46:05.476593,1.0,6.0,459.0
2021-12-12-21:46:05.477591,5.0,11.0,459.0
2021-12-12-21:46:05.478587,7.0,18.0,458.0
2021-12-12-21:46:05.479585,6.0,30.0,458.0
2021-12-12-21:46:05.480582,6.0,30.0,458.0
2021-12-12-21:46:05.481580,1.0,25.0,457.0
2021-12-12-21:46:05.482577,9.0,0.0,456.0
2021-12-12-21:46:05.483574,9.0,0.0,456.0
2021-12-12-21:46:05.484572,9.0,0.0,456.0
2021-12-12-21:46:05.485569,9.0,6.0,455.0
2021-12-12-21:46:05.486566,9.0,14.0,455.0
2021-12-12-21:46:05.488561,19.0,51.0,454.0
2021-12-12-21:46:05.488561,19.0,51.0,454.0
2021-12-12-21:46:05.489558,9.0,26.0,453.0
2021-12-12-21:46:05.490556,2.0,1.0,452.0
2021-12-12-21:46:05.491586,2.0,1.0,452.0
2021-12-12-21:46:05.492584,2.0,1.0,452.0
2021-12-12-21:46:05.493583,1.0,23.0,451.0
2021-12-12-21:46:05.494579,5.0,27.0,450.0
2021-12-12-21:46:05.495577,5.0,27.0,450.0
2021-12-12-21:46:05.496574,5.0,27.0,450.0
2021-12-12-21:46:05.497571,5.0,35.0,450.0
2021-12-12-21:46:05.498568,4.0,7.0,448.0
2021-12-12-21:46:05.499565,4.0,7.0,448.0
2021-12-12-21:46:05.500530,4.0,7.0,448.0
2021-12-12-21:46:05.501562,4.0,7.0,448.0
2021-12-12-21:46:05.502558,7.0,5.0,448.0
2021-12-12-21:46:05.503557,17.0,24.0,448.0
2021-12-12-21:46:05.504553,20.0,47.0,447.0
2021-12-12-21:46:05.505549,20.0,47.0,447.0
2021-12-12-21:46:05.506515,7.0,45.0,446.0
2021-12-12-21:46:05.507549,1.0,6.0,445.0
2021-12-12-21:46:05.508540,1.0,6.0,445.0
2021-12-12-21:46:05.509540,1.0,6.0,445.0
2021-12-12-21:46:05.510536,1.0,16.0,444.0
2021-12-12-21:46:05.511533,2.0,21.0,443.0
2021-12-12-21:46:05.512532,2.0,21.0,443.0
2021-12-12-21:46:05.513533,2.0,21.0,443.0
2021-12-12-21:46:05.514525,2.0,28.0,443.0
2021-12-12-21:46:05.515521,7.0,9.0,442.0
2021-12-12-21:46:05.516520,7.0,9.0,442.0
2021-12-12-21:46:05.517486,7.0,9.0,442.0
2021-12-12-21:46:05.518482,22.0,30.0,441.0
2021-12-12-21:46:05.519479,22.0,30.0,441.0
2021-12-12-21:46:05.520476,22.0,30.0,441.0
2021-12-12-21:46:05.522471,22.0,30.0,441.0
2021-12-12-21:46:05.522471,10.0,26.0,439.0
2021-12-12-21:46:05.523469,2.0,29.0,438.0
2021-12-12-21:46:05.524466,2.0,29.0,438.0
2021-12-12-21:46:05.525463,2.0,29.0,438.0
2021-12-12-21:46:05.526460,6.0,11.0,438.0
2021-12-12-21:46:05.527490,10.0,1.0,437.0
2021-12-12-21:46:05.528491,10.0,1.0,437.0
2021-12-12-21:46:05.529486,10.0,1.0,437.0
2021-12-12-21:46:05.530483,8.0,5.0,435.0
2021-12-12-21:46:05.531485,8.0,5.0,435.0
2021-12-12-21:46:05.532478,8.0,5.0,435.0
2021-12-12-21:46:05.533476,8.0,5.0,435.0
2021-12-12-21:46:05.534439,11.0,5.0,433.0
2021-12-12-21:46:05.535471,17.0,32.0,433.0
2021-12-12-21:46:05.536468,17.0,32.0,433.0
2021-12-12-21:46:05.537465,17.0,32.0,433.0
2021-12-12-21:46:05.538462,1.0,18.0,431.0
2021-12-12-21:46:05.539463,1.0,18.0,431.0
2021-12-12-21:46:05.540461,1.0,18.0,431.0
2021-12-12-21:46:05.541455,1.0,18.0,431.0
2021-12-12-21:46:05.542451,1.0,18.0,431.0
2021-12-12-21:46:05.543450,6.0,2.0,430.0
2021-12-12-21:46:05.544451,4.0,22.0,429.0
2021-12-12-21:46:05.545445,4.0,22.0,429.0
2021-12-12-21:46:05.546441,4.0,22.0,429.0
2021-12-12-21:46:05.547437,4.0,37.0,429.0
2021-12-12-21:46:05.548435,4.0,21.0,427.0
2021-12-12-21:46:05.549404,4.0,21.0,427.0
2021-12-12-21:46:05.550430,4.0,21.0,427.0
2021-12-12-21:46:05.551433,10.0,1.0,427.0
2021-12-12-21:46:05.552425,19.0,32.0,425.0
2021-12-12-21:46:05.553422,19.0,32.0,425.0
2021-12-12-21:46:05.554419,19.0,32.0,425.0
2021-12-12-21:46:05.556415,19.0,54.0,425.0
2021-12-12-21:46:05.556415,4.0,24.0,423.0
2021-12-12-21:46:05.557412,4.0,24.0,423.0
2021-12-12-21:46:05.558375,4.0,24.0,423.0
2021-12-12-21:46:05.559406,3.0,12.0,421.0
2021-12-12-21:46:05.560404,3.0,13.0,421.0
2021-12-12-21:46:05.561401,3.0,13.0,421.0
2021-12-12-21:46:05.562364,3.0,13.0,421.0
2021-12-12-21:46:05.563395,6.0,44.0,420.0
2021-12-12-21:46:05.564392,5.0,21.0,419.0
2021-12-12-21:46:05.565391,5.0,21.0,419.0
2021-12-12-21:46:05.566353,5.0,21.0,419.0
2021-12-12-21:46:05.567351,10.0,2.0,418.0
2021-12-12-21:46:05.568383,10.0,35.0,417.0
2021-12-12-21:46:05.569379,10.0,35.0,417.0
2021-12-12-21:46:05.570376,10.0,35.0,417.0
2021-12-12-21:46:05.571378,15.0,40.0,416.0
2021-12-12-21:46:05.572371,0.0,20.0,415.0
2021-12-12-21:46:05.573335,0.0,20.0,415.0
2021-12-12-21:46:05.574366,0.0,20.0,415.0
2021-12-12-21:46:05.575364,1.0,5.0,415.0
2021-12-12-21:46:05.576361,4.0,25.0,414.0
2021-12-12-21:46:05.577358,4.0,25.0,414.0
2021-12-12-21:46:05.578355,4.0,25.0,414.0
2021-12-12-21:46:05.579318,4.0,25.0,414.0
2021-12-12-21:46:05.580351,9.0,32.0,413.0
2021-12-12-21:46:05.581348,6.0,5.0,412.0
2021-12-12-21:46:05.582344,6.0,5.0,412.0
2021-12-12-21:46:05.583341,6.0,5.0,412.0
2021-12-12-21:46:05.584306,6.0,15.0,411.0
2021-12-12-21:46:05.585337,20.0,33.0,411.0
2021-12-12-21:46:05.586333,20.0,33.0,411.0
2021-12-12-21:46:05.587335,20.0,33.0,411.0
2021-12-12-21:46:05.588328,18.0,39.0,410.0
2021-12-12-21:46:05.589327,2.0,18.0,410.0
2021-12-12-21:46:05.591319,2.0,18.0,410.0
2021-12-12-21:46:05.591319,2.0,9.0,409.0
2021-12-12-21:46:05.592319,4.0,15.0,408.0
2021-12-12-21:46:05.593314,4.0,15.0,408.0
2021-12-12-21:46:05.594311,4.0,15.0,408.0
2021-12-12-21:46:05.595314,4.0,15.0,408.0
2021-12-12-21:46:05.596306,4.0,29.0,408.0
2021-12-12-21:46:05.597305,4.0,17.0,408.0
2021-12-12-21:46:05.598300,4.0,17.0,408.0
2021-12-12-21:46:05.599265,4.0,17.0,408.0
2021-12-12-21:46:05.600297,12.0,5.0,407.0
2021-12-12-21:46:05.601293,14.0,22.0,407.0
2021-12-12-21:46:05.602290,14.0,22.0,407.0
2021-12-12-21:46:05.603255,14.0,22.0,407.0
2021-12-12-21:46:05.604285,15.0,62.0,406.0
2021-12-12-21:46:05.605284,3.0,25.0,406.0
2021-12-12-21:46:05.606282,3.0,25.0,406.0
2021-12-12-21:46:05.607278,3.0,25.0,406.0
2021-12-12-21:46:05.608276,2.0,6.0,405.0
2021-12-12-21:46:05.609272,2.0,6.0,405.0
2021-12-12-21:46:05.610269,2.0,6.0,405.0
2021-12-12-21:46:05.611266,2.0,6.0,405.0
2021-12-12-21:46:05.612270,2.0,6.0,405.0
2021-12-12-21:46:05.613263,6.0,17.0,404.0
2021-12-12-21:46:05.614259,6.0,17.0,404.0
2021-12-12-21:46:05.615257,6.0,17.0,404.0
2021-12-12-21:46:05.616254,6.0,17.0,404.0
2021-12-12-21:46:05.617218,7.0,2.0,404.0
2021-12-12-21:46:05.618248,13.0,10.0,403.0
2021-12-12-21:46:05.619250,13.0,10.0,403.0
2021-12-12-21:46:05.620243,13.0,10.0,403.0
2021-12-12-21:46:05.621241,21.0,53.0,403.0
2021-12-12-21:46:05.622237,8.0,40.0,403.0
2021-12-12-21:46:05.624232,8.0,40.0,403.0
2021-12-12-21:46:05.624232,8.0,40.0,403.0
2021-12-12-21:46:05.625230,1.0,25.0,402.0
2021-12-12-21:46:05.626192,1.0,25.0,402.0
2021-12-12-21:46:05.627228,1.0,25.0,402.0
2021-12-12-21:46:05.628221,1.0,25.0,402.0
2021-12-12-21:46:05.629220,6.0,30.0,402.0
2021-12-12-21:46:05.630222,2.0,27.0,402.0
2021-12-12-21:46:05.631213,2.0,27.0,402.0
2021-12-12-21:46:05.632212,2.0,27.0,402.0
2021-12-12-21:46:05.633208,9.0,5.0,402.0
2021-12-12-21:46:05.634205,10.0,16.0,401.0
2021-12-12-21:46:05.635206,10.0,16.0,401.0
2021-12-12-21:46:05.636167,10.0,16.0,401.0
2021-12-12-21:46:05.637198,20.0,46.0,402.0
2021-12-12-21:46:05.638193,7.0,38.0,402.0
2021-12-12-21:46:05.639192,7.0,38.0,402.0
2021-12-12-21:46:05.640156,7.0,38.0,402.0
2021-12-12-21:46:05.641185,2.0,14.0,402.0
2021-12-12-21:46:05.642183,2.0,14.0,402.0
2021-12-12-21:46:05.643185,2.0,14.0,402.0
2021-12-12-21:46:05.644160,2.0,14.0,402.0
2021-12-12-21:46:05.645177,6.0,25.0,402.0
2021-12-12-21:46:05.646173,2.0,26.0,402.0
2021-12-12-21:46:05.647169,2.0,26.0,402.0
2021-12-12-21:46:05.648168,2.0,26.0,402.0
2021-12-12-21:46:05.649166,2.0,26.0,402.0
2021-12-12-21:46:05.650162,11.0,4.0,402.0
2021-12-12-21:46:05.651127,11.0,4.0,402.0
2021-12-12-21:46:05.652156,11.0,4.0,402.0
2021-12-12-21:46:05.653156,11.0,4.0,402.0
2021-12-12-21:46:05.654151,7.0,43.0,402.0
2021-12-12-21:46:05.655148,7.0,43.0,402.0
2021-12-12-21:46:05.656147,7.0,43.0,402.0
2021-12-12-21:46:05.657143,4.0,3.0,402.0
2021-12-12-21:46:05.659142,3.0,5.0,402.0
2021-12-12-21:46:05.659142,3.0,5.0,402.0
2021-12-12-21:46:05.660134,3.0,5.0,402.0
2021-12-12-21:46:05.661134,3.0,5.0,402.0
2021-12-12-21:46:05.662129,2.0,14.0,402.0
2021-12-12-21:46:05.663127,0.0,30.0,402.0
2021-12-12-21:46:05.664126,0.0,30.0,402.0
2021-12-12-21:46:05.665121,0.0,30.0,402.0
2021-12-12-21:46:05.666119,7.0,8.0,402.0
2021-12-12-21:46:05.667121,12.0,3.0,402.0
2021-12-12-21:46:05.668120,12.0,3.0,402.0
2021-12-12-21:46:05.669113,12.0,3.0,402.0
2021-12-12-21:46:05.670108,20.0,32.0,402.0
2021-12-12-21:46:05.671105,12.0,35.0,402.0
2021-12-12-21:46:05.672070,12.0,35.0,402.0
2021-12-12-21:46:05.673071,12.0,35.0,402.0
2021-12-12-21:46:05.674064,5.0,1.0,402.0
2021-12-12-21:46:05.675094,2.0,8.0,402.0
2021-12-12-21:46:05.676092,2.0,8.0,402.0
2021-12-12-21:46:05.677057,2.0,8.0,402.0
2021-12-12-21:46:05.678087,3.0,31.0,403.0
2021-12-12-21:46:05.679084,6.0,38.0,403.0
2021-12-12-21:46:05.680084,6.0,38.0,403.0
2021-12-12-21:46:05.681047,6.0,38.0,403.0
2021-12-12-21:46:05.682076,9.0,1.0,403.0
2021-12-12-21:46:05.683078,11.0,5.0,403.0
2021-12-12-21:46:05.684039,11.0,5.0,403.0
2021-12-12-21:46:05.685035,11.0,5.0,403.0
2021-12-12-21:46:05.686065,11.0,5.0,403.0
2021-12-12-21:46:05.687070,15.0,59.0,405.0
2021-12-12-21:46:05.688062,15.0,59.0,405.0
2021-12-12-21:46:05.689058,15.0,59.0,405.0
2021-12-12-21:46:05.690054,15.0,59.0,405.0
2021-12-12-21:46:05.691019,15.0,59.0,405.0
2021-12-12-21:46:05.693055,4.0,14.0,406.0
2021-12-12-21:46:05.693055,4.0,14.0,406.0
2021-12-12-21:46:05.694050,5.0,49.0,408.0
2021-12-12-21:46:05.695043,5.0,49.0,408.0
2021-12-12-21:46:05.696041,5.0,49.0,408.0
2021-12-12-21:46:05.697040,5.0,49.0,408.0
2021-12-12-21:46:05.698042,5.0,49.0,408.0
2021-12-12-21:46:05.698998,10.0,24.0,409.0
2021-12-12-21:46:05.700037,7.0,5.0,411.0
2021-12-12-21:46:05.700994,7.0,5.0,411.0
2021-12-12-21:46:05.702024,7.0,5.0,411.0
2021-12-12-21:46:05.703021,15.0,21.0,412.0
2021-12-12-21:46:05.703993,20.0,52.0,413.0
2021-12-12-21:46:05.704985,20.0,52.0,413.0
2021-12-12-21:46:05.706012,20.0,52.0,413.0
2021-12-12-21:46:05.707013,3.0,9.0,415.0
2021-12-12-21:46:05.708006,3.0,4.0,416.0
2021-12-12-21:46:05.709007,3.0,4.0,416.0
2021-12-12-21:46:05.709969,3.0,4.0,416.0
2021-12-12-21:46:05.710998,3.0,19.0,417.0
2021-12-12-21:46:05.711998,7.0,38.0,419.0
2021-12-12-21:46:05.712994,7.0,38.0,419.0
2021-12-12-21:46:05.713962,7.0,38.0,419.0
2021-12-12-21:46:05.714994,3.0,22.0,420.0
2021-12-12-21:46:05.715988,9.0,12.0,422.0
2021-12-12-21:46:05.716986,9.0,12.0,422.0
2021-12-12-21:46:05.717948,9.0,12.0,422.0
2021-12-12-21:46:05.718964,10.0,11.0,423.0
2021-12-12-21:46:05.719978,20.0,54.0,426.0
2021-12-12-21:46:05.720974,20.0,54.0,426.0
2021-12-12-21:46:05.721971,20.0,54.0,426.0
2021-12-12-21:46:05.722479,5.0,43.0,427.0
2021-12-12-21:46:05.722972,3.0,24.0,429.0
2021-12-12-21:46:05.723967,3.0,24.0,429.0
2021-12-12-21:46:05.724972,3.0,24.0,429.0
2021-12-12-21:46:05.726996,3.0,24.0,429.0
2021-12-12-21:46:05.726996,1.0,19.0,430.0
2021-12-12-21:46:05.728002,5.0,41.0,432.0
2021-12-12-21:46:05.728002,5.0,41.0,432.0
2021-12-12-21:46:05.729031,5.0,41.0,432.0
2021-12-12-21:46:05.730034,5.0,41.0,432.0
2021-12-12-21:46:05.731061,3.0,42.0,433.0
2021-12-12-21:46:05.732061,8.0,1.0,436.0
2021-12-12-21:46:05.733096,8.0,1.0,436.0
2021-12-12-21:46:05.734060,8.0,1.0,436.0
2021-12-12-21:46:05.735097,8.0,1.0,436.0
2021-12-12-21:46:05.736086,20.0,41.0,440.0
2021-12-12-21:46:05.737085,20.0,41.0,440.0
2021-12-12-21:46:05.738081,20.0,41.0,440.0
2021-12-12-21:46:05.739079,20.0,41.0,440.0
2021-12-12-21:46:05.740042,9.0,42.0,442.0
2021-12-12-21:46:05.741039,2.0,7.0,444.0
2021-12-12-21:46:05.742073,2.0,7.0,444.0
2021-12-12-21:46:05.743068,2.0,7.0,444.0
2021-12-12-21:46:05.744065,4.0,24.0,448.0
2021-12-12-21:46:05.745063,4.0,24.0,448.0
2021-12-12-21:46:05.746059,4.0,24.0,448.0
2021-12-12-21:46:05.747056,4.0,24.0,448.0
2021-12-12-21:46:05.748055,1.0,47.0,449.0
2021-12-12-21:46:05.749051,7.0,25.0,452.0
2021-12-12-21:46:05.750048,7.0,25.0,452.0
2021-12-12-21:46:05.751013,7.0,25.0,452.0
2021-12-12-21:46:05.752026,10.0,15.0,452.0
2021-12-12-21:46:05.753036,10.0,3.0,453.0
2021-12-12-21:46:05.754005,14.0,14.0,455.0
2021-12-12-21:46:05.755004,18.0,62.0,455.0
2021-12-12-21:46:05.756002,17.0,73.0,457.0
2021-12-12-21:46:05.757037,7.0,49.0,458.0
2021-12-12-21:46:05.757994,1.0,38.0,459.0
2021-12-12-21:46:05.758991,1.0,38.0,459.0
2021-12-12-21:46:05.760023,7.0,32.0,460.0
2021-12-12-21:46:05.761983,2.0,2.0,462.0
2021-12-12-21:46:05.761983,3.0,27.0,463.0
2021-12-12-21:46:05.762981,3.0,27.0,463.0
2021-12-12-21:46:05.763989,2.0,27.0,465.0
2021-12-12-21:46:05.764977,5.0,20.0,467.0
2021-12-12-21:46:05.765973,5.0,20.0,467.0
2021-12-12-21:46:05.766971,5.0,20.0,467.0
2021-12-12-21:46:05.767967,13.0,10.0,468.0
2021-12-12-21:46:05.768991,18.0,43.0,470.0
2021-12-12-21:46:05.769995,18.0,43.0,470.0
2021-12-12-21:46:05.770992,18.0,43.0,470.0
2021-12-12-21:46:05.771990,20.0,55.0,471.0
2021-12-12-21:46:05.772987,5.0,18.0,473.0
2021-12-12-21:46:05.773984,5.0,18.0,473.0
2021-12-12-21:46:05.774982,5.0,18.0,473.0
2021-12-12-21:46:05.775945,5.0,18.0,473.0
2021-12-12-21:46:05.776943,3.0,21.0,475.0
2021-12-12-21:46:05.777941,3.0,21.0,476.0
2021-12-12-21:46:05.778974,3.0,21.0,476.0
2021-12-12-21:46:05.779940,3.0,21.0,476.0
2021-12-12-21:46:05.780965,7.0,29.0,477.0
2021-12-12-21:46:05.781966,7.0,13.0,479.0
2021-12-12-21:46:05.782927,7.0,13.0,479.0
2021-12-12-21:46:05.783924,7.0,13.0,479.0
2021-12-12-21:46:05.784921,7.0,2.0,479.0
2021-12-12-21:46:05.785953,20.0,32.0,481.0
2021-12-12-21:46:05.786916,20.0,32.0,481.0
2021-12-12-21:46:05.787914,20.0,32.0,481.0
2021-12-12-21:46:05.788915,21.0,53.0,482.0
2021-12-12-21:46:05.789909,2.0,28.0,484.0
2021-12-12-21:46:05.790932,2.0,28.0,484.0
2021-12-12-21:46:05.791903,2.0,28.0,484.0
2021-12-12-21:46:05.793924,3.0,11.0,484.0
2021-12-12-21:46:05.793924,5.0,21.0,486.0
2021-12-12-21:46:05.794929,5.0,21.0,486.0
2021-12-12-21:46:05.795893,5.0,21.0,486.0
2021-12-12-21:46:05.796911,3.0,31.0,487.0
2021-12-12-21:46:05.797887,8.0,10.0,489.0
2021-12-12-21:46:05.798884,8.0,10.0,489.0
2021-12-12-21:46:05.799882,8.0,10.0,489.0
2021-12-12-21:46:05.800879,10.0,10.0,490.0
2021-12-12-21:46:05.801910,22.0,48.0,491.0
2021-12-12-21:46:05.802906,22.0,48.0,491.0
2021-12-12-21:46:05.803905,22.0,48.0,491.0
2021-12-12-21:46:05.804902,13.0,51.0,491.0
2021-12-12-21:46:05.805899,3.0,18.0,493.0
2021-12-12-21:46:05.806896,3.0,18.0,493.0
2021-12-12-21:46:05.807893,3.0,18.0,493.0
2021-12-12-21:46:05.808893,3.0,18.0,493.0
2021-12-12-21:46:05.809855,0.0,28.0,494.0
2021-12-12-21:46:05.810886,0.0,28.0,494.0
2021-12-12-21:46:05.811886,0.0,28.0,494.0
2021-12-12-21:46:05.812848,0.0,28.0,494.0
2021-12-12-21:46:05.813875,2.0,47.0,495.0
2021-12-12-21:46:05.814867,5.0,20.0,496.0
2021-12-12-21:46:05.815839,5.0,20.0,496.0
2021-12-12-21:46:05.816836,5.0,20.0,496.0
2021-12-12-21:46:05.817834,8.0,0.0,496.0
2021-12-12-21:46:05.818832,20.0,30.0,497.0
2021-12-12-21:46:05.819828,20.0,30.0,497.0
2021-12-12-21:46:05.820825,20.0,30.0,497.0
2021-12-12-21:46:05.821823,19.0,47.0,498.0
2021-12-12-21:46:05.822854,0.0,16.0,498.0
2021-12-12-21:46:05.823850,0.0,16.0,498.0
2021-12-12-21:46:05.824815,0.0,16.0,498.0
2021-12-12-21:46:05.825813,6.0,4.0,499.0
2021-12-12-21:46:05.827807,3.0,2.0,500.0
2021-12-12-21:46:05.827807,3.0,2.0,500.0
2021-12-12-21:46:05.828830,3.0,2.0,500.0
2021-12-12-21:46:05.829828,5.0,5.0,500.0
2021-12-12-21:46:05.830825,5.0,5.0,500.0
2021-12-12-21:46:05.831828,5.0,5.0,500.0
2021-12-12-21:46:05.832794,5.0,5.0,500.0
2021-12-12-21:46:05.833825,11.0,6.0,501.0
2021-12-12-21:46:05.834822,16.0,26.0,501.0
2021-12-12-21:46:05.835786,16.0,26.0,501.0
2021-12-12-21:46:05.836783,16.0,26.0,501.0
2021-12-12-21:46:05.837809,18.0,62.0,501.0
2021-12-12-21:46:05.838778,3.0,32.0,501.0
2021-12-12-21:46:05.839774,3.0,32.0,501.0
2021-12-12-21:46:05.840772,3.0,32.0,501.0
2021-12-12-21:46:05.841770,4.0,13.0,502.0
2021-12-12-21:46:05.842767,3.0,29.0,501.0
2021-12-12-21:46:05.843765,3.0,29.0,501.0
2021-12-12-21:46:05.844761,3.0,29.0,501.0
2021-12-12-21:46:05.845759,9.0,38.0,501.0
2021-12-12-21:46:05.846790,8.0,26.0,502.0
2021-12-12-21:46:05.847787,8.0,26.0,502.0
2021-12-12-21:46:05.848751,8.0,26.0,502.0
2021-12-12-21:46:05.849749,8.0,26.0,502.0
2021-12-12-21:46:05.850746,11.0,1.0,501.0
2021-12-12-21:46:05.851778,15.0,21.0,501.0
2021-12-12-21:46:05.852740,15.0,21.0,501.0
2021-12-12-21:46:05.853774,15.0,21.0,501.0
2021-12-12-21:46:05.854735,20.0,60.0,502.0
2021-12-12-21:46:05.855732,4.0,36.0,501.0
2021-12-12-21:46:05.856765,4.0,36.0,501.0
2021-12-12-21:46:05.857727,4.0,36.0,501.0
2021-12-12-21:46:05.858724,3.0,16.0,501.0
2021-12-12-21:46:05.860751,3.0,2.0,502.0
2021-12-12-21:46:05.861716,4.0,17.0,502.0
2021-12-12-21:46:05.861716,1.0,34.0,502.0
2021-12-12-21:46:05.862714,6.0,22.0,501.0
2021-12-12-21:46:05.863712,6.0,22.0,501.0
2021-12-12-21:46:05.864708,6.0,22.0,501.0
2021-12-12-21:46:05.865739,6.0,22.0,501.0
2021-12-12-21:46:05.866703,12.0,3.0,501.0
2021-12-12-21:46:05.867700,10.0,14.0,501.0
2021-12-12-21:46:05.868698,10.0,14.0,501.0
2021-12-12-21:46:05.869695,10.0,14.0,501.0
2021-12-12-21:46:05.870726,21.0,49.0,501.0
2021-12-12-21:46:05.871723,9.0,40.0,501.0
2021-12-12-21:46:05.872721,9.0,40.0,501.0
2021-12-12-21:46:05.873685,9.0,40.0,501.0
2021-12-12-21:46:05.874715,2.0,20.0,501.0
2021-12-12-21:46:05.875718,3.0,12.0,501.0
2021-12-12-21:46:05.876709,3.0,12.0,501.0
2021-12-12-21:46:05.877673,3.0,12.0,501.0
2021-12-12-21:46:05.878671,8.0,32.0,501.0
2021-12-12-21:46:05.879669,2.0,38.0,500.0
2021-12-12-21:46:05.880666,2.0,38.0,500.0
2021-12-12-21:46:05.881663,2.0,38.0,500.0
2021-12-12-21:46:05.882696,12.0,2.0,500.0
2021-12-12-21:46:05.883693,10.0,7.0,500.0
2021-12-12-21:46:05.884655,10.0,7.0,500.0
2021-12-12-21:46:05.885652,10.0,7.0,500.0
2021-12-12-21:46:05.886683,10.0,7.0,500.0
2021-12-12-21:46:05.887647,11.0,49.0,498.0
2021-12-12-21:46:05.888645,11.0,49.0,498.0
2021-12-12-21:46:05.889674,11.0,49.0,498.0
2021-12-12-21:46:05.890672,11.0,49.0,498.0
2021-12-12-21:46:05.891636,5.0,21.0,497.0
2021-12-12-21:46:05.892634,6.0,17.0,496.0
2021-12-12-21:46:05.893663,6.0,17.0,496.0
2021-12-12-21:46:05.894662,4.0,24.0,496.0
2021-12-12-21:46:05.896662,0.0,34.0,494.0
2021-12-12-21:46:05.896662,0.0,34.0,494.0
2021-12-12-21:46:05.897654,0.0,34.0,494.0
2021-12-12-21:46:05.898652,0.0,34.0,494.0
2021-12-12-21:46:05.899655,6.0,5.0,493.0
2021-12-12-21:46:05.900648,7.0,20.0,492.0
2021-12-12-21:46:05.901646,7.0,20.0,492.0
2021-12-12-21:46:05.902653,7.0,20.0,492.0
2021-12-12-21:46:05.903605,13.0,44.0,488.0
2021-12-12-21:46:05.904636,13.0,44.0,488.0
2021-12-12-21:46:05.905599,13.0,44.0,488.0
2021-12-12-21:46:05.906597,13.0,44.0,488.0
2021-12-12-21:46:05.907600,7.0,28.0,488.0
2021-12-12-21:46:05.908591,4.0,7.0,486.0
2021-12-12-21:46:05.909591,4.0,17.0,485.0
2021-12-12-21:46:05.910586,4.0,17.0,485.0
2021-12-12-21:46:05.911583,2.0,30.0,484.0
2021-12-12-21:46:05.912581,2.0,32.0,484.0
2021-12-12-21:46:05.913578,7.0,40.0,481.0
2021-12-12-21:46:05.914575,7.0,40.0,481.0
2021-12-12-21:46:05.915572,3.0,15.0,479.0
2021-12-12-21:46:05.916569,10.0,3.0,477.0
2021-12-12-21:46:05.917566,10.0,3.0,477.0
2021-12-12-21:46:05.918565,10.0,3.0,477.0
2021-12-12-21:46:05.919595,21.0,44.0,475.0
2021-12-12-21:46:05.920559,15.0,62.0,472.0
2021-12-12-21:46:05.921556,15.0,62.0,472.0
2021-12-12-21:46:05.922553,15.0,62.0,472.0
2021-12-12-21:46:05.923551,15.0,62.0,472.0
2021-12-12-21:46:05.924548,2.0,10.0,468.0
2021-12-12-21:46:05.925545,2.0,10.0,468.0
2021-12-12-21:46:05.926542,2.0,10.0,468.0
2021-12-12-21:46:05.928537,2.0,10.0,468.0
2021-12-12-21:46:05.929536,5.0,27.0,464.0
2021-12-12-21:46:05.929536,4.0,40.0,463.0
2021-12-12-21:46:05.930532,4.0,40.0,463.0
2021-12-12-21:46:05.931531,4.0,40.0,463.0
2021-12-12-21:46:05.932561,4.0,19.0,461.0
2021-12-12-21:46:05.933524,10.0,0.0,459.0
2021-12-12-21:46:05.934522,10.0,0.0,459.0
2021-12-12-21:46:05.935519,10.0,0.0,459.0
2021-12-12-21:46:05.936516,17.0,20.0,456.0
2021-12-12-21:46:05.937513,20.0,51.0,453.0
2021-12-12-21:46:05.938512,20.0,51.0,453.0
2021-12-12-21:46:05.939508,20.0,51.0,453.0
2021-12-12-21:46:05.940507,11.0,35.0,452.0
2021-12-12-21:46:05.941504,3.0,27.0,450.0
2021-12-12-21:46:05.942500,8.0,6.0,448.0
2021-12-12-21:46:05.943497,8.0,6.0,448.0
2021-12-12-21:46:05.944495,3.0,18.0,445.0
2021-12-12-21:46:05.945492,4.0,25.0,445.0
2021-12-12-21:46:05.946489,6.0,30.0,443.0
2021-12-12-21:46:05.947487,6.0,30.0,443.0
2021-12-12-21:46:05.948484,5.0,9.0,440.0
2021-12-12-21:46:05.949482,11.0,7.0,438.0
2021-12-12-21:46:05.950479,11.0,7.0,438.0
2021-12-12-21:46:05.951476,11.0,7.0,438.0
2021-12-12-21:46:05.952474,11.0,7.0,438.0
2021-12-12-21:46:05.953504,25.0,41.0,434.0
2021-12-12-21:46:05.954503,21.0,53.0,433.0
2021-12-12-21:46:05.955481,21.0,53.0,433.0
2021-12-12-21:46:05.956463,1.0,18.0,430.0
2021-12-12-21:46:05.957460,5.0,4.0,428.0
2021-12-12-21:46:05.958495,5.0,4.0,428.0
2021-12-12-21:46:05.959454,5.0,4.0,428.0
2021-12-12-21:46:05.960452,6.0,7.0,426.0
2021-12-12-21:46:05.961482,5.0,13.0,423.0
2021-12-12-21:46:05.963477,5.0,13.0,423.0
2021-12-12-21:46:05.963477,5.0,13.0,423.0
2021-12-12-21:46:05.964444,8.0,23.0,420.0
2021-12-12-21:46:05.965471,8.0,24.0,419.0
2021-12-12-21:46:05.966471,8.0,24.0,419.0
2021-12-12-21:46:05.967433,8.0,24.0,419.0
2021-12-12-21:46:05.968430,8.0,24.0,419.0
2021-12-12-21:46:05.969462,10.0,3.0,416.0
2021-12-12-21:46:05.970461,23.0,54.0,413.0
2021-12-12-21:46:05.971425,23.0,54.0,413.0
2021-12-12-21:46:05.972454,23.0,54.0,413.0
2021-12-12-21:46:05.973473,7.0,45.0,411.0
2021-12-12-21:46:05.974453,5.0,12.0,409.0
2021-12-12-21:46:05.975446,5.0,12.0,409.0
2021-12-12-21:46:05.976444,5.0,12.0,409.0
2021-12-12-21:46:05.977407,5.0,13.0,406.0
2021-12-12-21:46:05.978438,7.0,34.0,403.0
2021-12-12-21:46:05.979402,7.0,34.0,403.0
2021-12-12-21:46:05.980399,7.0,34.0,403.0
2021-12-12-21:46:05.981396,1.0,40.0,401.0
2021-12-12-21:46:05.982394,8.0,5.0,399.0
2021-12-12-21:46:05.983393,8.0,5.0,399.0
2021-12-12-21:46:05.984389,8.0,5.0,399.0
2021-12-12-21:46:05.985419,10.0,3.0,397.0
2021-12-12-21:46:05.986383,14.0,27.0,395.0
2021-12-12-21:46:05.987382,23.0,53.0,394.0
2021-12-12-21:46:05.988378,23.0,53.0,394.0
2021-12-12-21:46:05.989375,19.0,59.0,393.0
2021-12-12-21:46:05.990406,11.0,41.0,391.0
2021-12-12-21:46:05.991403,4.0,22.0,388.0
2021-12-12-21:46:05.992367,4.0,22.0,388.0
2021-12-12-21:46:05.993365,7.0,7.0,388.0
2021-12-12-21:46:05.994362,4.0,22.0,384.0
2021-12-12-21:46:05.995358,4.0,22.0,384.0
2021-12-12-21:46:05.996357,4.0,22.0,384.0
2021-12-12-21:46:05.997353,1.0,34.0,381.0
2021-12-12-21:46:05.998350,6.0,16.0,379.0
2021-12-12-21:46:06.000345,6.0,16.0,379.0
2021-12-12-21:46:06.000345,6.0,16.0,379.0
2021-12-12-21:46:06.001342,14.0,9.0,375.0
2021-12-12-21:46:06.002340,22.0,51.0,374.0
2021-12-12-21:46:06.003337,22.0,51.0,374.0
2021-12-12-21:46:06.004334,22.0,51.0,374.0
2021-12-12-21:46:06.005332,22.0,51.0,374.0
2021-12-12-21:46:06.006330,22.0,51.0,374.0
2021-12-12-21:46:06.007328,1.0,21.0,369.0
2021-12-12-21:46:06.008332,1.0,21.0,369.0
2021-12-12-21:46:06.009321,1.0,21.0,369.0
2021-12-12-21:46:06.010318,3.0,1.0,368.0
2021-12-12-21:46:06.011316,5.0,34.0,366.0
2021-12-12-21:46:06.012314,5.0,34.0,366.0
2021-12-12-21:46:06.013310,5.0,34.0,366.0
2021-12-12-21:46:06.014311,6.0,47.0,364.0
2021-12-12-21:46:06.015305,5.0,44.0,364.0
2021-12-12-21:46:06.016348,6.0,20.0,361.0
2021-12-12-21:46:06.017300,6.0,20.0,361.0
2021-12-12-21:46:06.018300,10.0,11.0,360.0
2021-12-12-21:46:06.019329,10.0,1.0,359.0
2021-12-12-21:46:06.020292,20.0,50.0,357.0
2021-12-12-21:46:06.021290,20.0,50.0,357.0
2021-12-12-21:46:06.022322,17.0,68.0,355.0
2021-12-12-21:46:06.023284,3.0,1.0,352.0
2021-12-12-21:46:06.024283,3.0,1.0,352.0
2021-12-12-21:46:06.025280,3.0,1.0,352.0
2021-12-12-21:46:06.026310,7.0,19.0,350.0
2021-12-12-21:46:06.027308,6.0,24.0,348.0
2021-12-12-21:46:06.028305,6.0,24.0,348.0
2021-12-12-21:46:06.029268,6.0,24.0,348.0
2021-12-12-21:46:06.030300,8.0,1.0,347.0
2021-12-12-21:46:06.031262,11.0,3.0,346.0
2021-12-12-21:46:06.032294,11.0,3.0,346.0
2021-12-12-21:46:06.033290,11.0,3.0,346.0
2021-12-12-21:46:06.034258,18.0,19.0,343.0
2021-12-12-21:46:06.036282,22.0,50.0,343.0
2021-12-12-21:46:06.036282,22.0,50.0,343.0
2021-12-12-21:46:06.037283,22.0,50.0,343.0
2021-12-12-21:46:06.038277,12.0,47.0,341.0
2021-12-12-21:46:06.039280,1.0,11.0,340.0
2021-12-12-21:46:06.040278,1.0,11.0,340.0
2021-12-12-21:46:06.041268,1.0,11.0,340.0
2021-12-12-21:46:06.042266,1.0,11.0,340.0
2021-12-12-21:46:06.043265,8.0,14.0,338.0
2021-12-12-21:46:06.044261,7.0,25.0,337.0
2021-12-12-21:46:06.045258,7.0,25.0,337.0
2021-12-12-21:46:06.046256,7.0,25.0,337.0
2021-12-12-21:46:06.047253,5.0,40.0,336.0
2021-12-12-21:46:06.048252,8.0,15.0,334.0
2021-12-12-21:46:06.049248,8.0,15.0,334.0
2021-12-12-21:46:06.050245,8.0,15.0,334.0
2021-12-12-21:46:06.051244,10.0,4.0,333.0
2021-12-12-21:46:06.052207,20.0,35.0,332.0
2021-12-12-21:46:06.053236,20.0,35.0,332.0
2021-12-12-21:46:06.054235,20.0,35.0,332.0
2021-12-12-21:46:06.055232,12.0,56.0,331.0
2021-12-12-21:46:06.056230,3.0,20.0,330.0
2021-12-12-21:46:06.057226,3.0,20.0,330.0
2021-12-12-21:46:06.058224,3.0,20.0,330.0
2021-12-12-21:46:06.059223,4.0,7.0,328.0
2021-12-12-21:46:06.060228,3.0,14.0,327.0
2021-12-12-21:46:06.061208,3.0,14.0,327.0
2021-12-12-21:46:06.062180,3.0,14.0,327.0
2021-12-12-21:46:06.063212,7.0,26.0,326.0
2021-12-12-21:46:06.064175,4.0,18.0,325.0
2021-12-12-21:46:06.065206,4.0,18.0,325.0
2021-12-12-21:46:06.066170,4.0,18.0,325.0
2021-12-12-21:46:06.067202,11.0,3.0,323.0
2021-12-12-21:46:06.069194,22.0,33.0,323.0
2021-12-12-21:46:06.069194,22.0,33.0,323.0
2021-12-12-21:46:06.070182,22.0,33.0,323.0
2021-12-12-21:46:06.071190,17.0,55.0,322.0
2021-12-12-21:46:06.072188,3.0,20.0,321.0
2021-12-12-21:46:06.073151,3.0,20.0,321.0
2021-12-12-21:46:06.074148,3.0,20.0,321.0
2021-12-12-21:46:06.075180,3.0,29.0,320.0
2021-12-12-21:46:06.076177,2.0,37.0,320.0
2021-12-12-21:46:06.077179,2.0,37.0,320.0
2021-12-12-21:46:06.078137,2.0,37.0,320.0
2021-12-12-21:46:06.079167,2.0,37.0,320.0
2021-12-12-21:46:06.080167,7.0,56.0,319.0
2021-12-12-21:46:06.081162,8.0,12.0,319.0
2021-12-12-21:46:06.082160,8.0,12.0,319.0
2021-12-12-21:46:06.083158,8.0,12.0,319.0
2021-12-12-21:46:06.084154,15.0,55.0,317.0
2021-12-12-21:46:06.085119,15.0,55.0,317.0
2021-12-12-21:46:06.086151,15.0,55.0,317.0
2021-12-12-21:46:06.087146,15.0,55.0,317.0
2021-12-12-21:46:06.088145,22.0,77.0,317.0
2021-12-12-21:46:06.089140,5.0,37.0,316.0
2021-12-12-21:46:06.090147,5.0,37.0,316.0
2021-12-12-21:46:06.091138,5.0,37.0,316.0
2021-12-12-21:46:06.092134,6.0,9.0,316.0
2021-12-12-21:46:06.093133,3.0,26.0,315.0
2021-12-12-21:46:06.094131,3.0,26.0,315.0
2021-12-12-21:46:06.095131,3.0,26.0,315.0
2021-12-12-21:46:06.096090,5.0,45.0,315.0
2021-12-12-21:46:06.097125,2.0,30.0,315.0
2021-12-12-21:46:06.098118,2.0,30.0,315.0
2021-12-12-21:46:06.099082,2.0,30.0,315.0
2021-12-12-21:46:06.100112,7.0,11.0,315.0
2021-12-12-21:46:06.101077,12.0,9.0,315.0
2021-12-12-21:46:06.103071,12.0,9.0,315.0
2021-12-12-21:46:06.103071,12.0,9.0,315.0
2021-12-12-21:46:06.104068,8.0,42.0,314.0
2021-12-12-21:46:06.105099,8.0,42.0,314.0
2021-12-12-21:46:06.106097,8.0,42.0,314.0
2021-12-12-21:46:06.107059,8.0,42.0,314.0
2021-12-12-21:46:06.108092,6.0,15.0,314.0
2021-12-12-21:46:06.109092,6.0,19.0,314.0
2021-12-12-21:46:06.110086,6.0,19.0,314.0
2021-12-12-21:46:06.111083,6.0,19.0,314.0
2021-12-12-21:46:06.112081,8.0,27.0,314.0
2021-12-12-21:46:06.113078,3.0,24.0,314.0
2021-12-12-21:46:06.114075,3.0,24.0,314.0
2021-12-12-21:46:06.115074,3.0,24.0,314.0
2021-12-12-21:46:06.116070,5.0,22.0,314.0
2021-12-12-21:46:06.117070,11.0,5.0,314.0
2021-12-12-21:46:06.118031,11.0,5.0,314.0
2021-12-12-21:46:06.119029,11.0,5.0,314.0
2021-12-12-21:46:06.120060,11.0,5.0,314.0
2021-12-12-21:46:06.121029,7.0,50.0,314.0
2021-12-12-21:46:06.122054,7.0,50.0,314.0
2021-12-12-21:46:06.123052,7.0,50.0,314.0
2021-12-12-21:46:06.124049,7.0,50.0,314.0
2021-12-12-21:46:06.125045,7.0,17.0,314.0
2021-12-12-21:46:06.126013,4.0,14.0,314.0
2021-12-12-21:46:06.127040,4.0,14.0,314.0
2021-12-12-21:46:06.128039,4.0,14.0,314.0
2021-12-12-21:46:06.129036,4.0,34.0,314.0
2021-12-12-21:46:06.130033,1.0,36.0,314.0
2021-12-12-21:46:06.131030,1.0,36.0,314.0
2021-12-12-21:46:06.132027,1.0,36.0,314.0
2021-12-12-21:46:06.133023,10.0,5.0,314.0
2021-12-12-21:46:06.134021,10.0,11.0,314.0
2021-12-12-21:46:06.136017,10.0,11.0,314.0
2021-12-12-21:46:06.136017,10.0,11.0,314.0
2021-12-12-21:46:06.136980,20.0,69.0,314.0
2021-12-12-21:46:06.137977,13.0,50.0,314.0
2021-12-12-21:46:06.139009,13.0,50.0,314.0
2021-12-12-21:46:06.139972,13.0,50.0,314.0
2021-12-12-21:46:06.140970,2.0,7.0,314.0
2021-12-12-21:46:06.142000,7.0,26.0,314.0
2021-12-12-21:46:06.142997,7.0,26.0,314.0
2021-12-12-21:46:06.143964,7.0,26.0,314.0
2021-12-12-21:46:06.144992,5.0,35.0,314.0
2021-12-12-21:46:06.145989,5.0,42.0,314.0
2021-12-12-21:46:06.146987,5.0,42.0,314.0
2021-12-12-21:46:06.147983,5.0,42.0,314.0
2021-12-12-21:46:06.148981,10.0,10.0,314.0
2021-12-12-21:46:06.149979,10.0,10.0,314.0
2021-12-12-21:46:06.150980,10.0,10.0,314.0
2021-12-12-21:46:06.151976,10.0,10.0,314.0
2021-12-12-21:46:06.152970,10.0,10.0,314.0
2021-12-12-21:46:06.153967,16.0,52.0,314.0
2021-12-12-21:46:06.154966,16.0,52.0,314.0
2021-12-12-21:46:06.155962,16.0,52.0,314.0
2021-12-12-21:46:06.156964,16.0,52.0,314.0
2021-12-12-21:46:06.157958,3.0,17.0,314.0
2021-12-12-21:46:06.158954,4.0,11.0,314.0
2021-12-12-21:46:06.159953,4.0,11.0,314.0
2021-12-12-21:46:06.160950,4.0,11.0,314.0
2021-12-12-21:46:06.161949,4.0,34.0,314.0
2021-12-12-21:46:06.162945,5.0,42.0,314.0
2021-12-12-21:46:06.163941,5.0,42.0,314.0
2021-12-12-21:46:06.164938,5.0,42.0,314.0
2021-12-12-21:46:06.165937,6.0,10.0,315.0
2021-12-12-21:46:06.166933,7.0,1.0,315.0
2021-12-12-21:46:06.167932,7.0,1.0,315.0
2021-12-12-21:46:06.168929,7.0,1.0,315.0
2021-12-12-21:46:06.170923,23.0,55.0,316.0
2021-12-12-21:46:06.170923,19.0,60.0,316.0
2021-12-12-21:46:06.171920,19.0,60.0,316.0
2021-12-12-21:46:06.172917,19.0,60.0,316.0
2021-12-12-21:46:06.173915,3.0,17.0,317.0
2021-12-12-21:46:06.174913,4.0,7.0,317.0
2021-12-12-21:46:06.175911,4.0,7.0,317.0
2021-12-12-21:46:06.176874,4.0,7.0,317.0
2021-12-12-21:46:06.177903,7.0,31.0,318.0
2021-12-12-21:46:06.178902,7.0,59.0,319.0
2021-12-12-21:46:06.179898,7.0,59.0,319.0
2021-12-12-21:46:06.180863,7.0,59.0,319.0
2021-12-12-21:46:06.181894,2.0,30.0,319.0
2021-12-12-21:46:06.182891,10.0,6.0,320.0
2021-12-12-21:46:06.183890,10.0,6.0,320.0
2021-12-12-21:46:06.184851,10.0,6.0,320.0
2021-12-12-21:46:06.185882,23.0,77.0,323.0
2021-12-12-21:46:06.186881,23.0,77.0,323.0
2021-12-12-21:46:06.187876,23.0,77.0,323.0
2021-12-12-21:46:06.188874,23.0,77.0,323.0
2021-12-12-21:46:06.189839,23.0,77.0,323.0
2021-12-12-21:46:06.190869,5.0,10.0,324.0
2021-12-12-21:46:06.191867,5.0,10.0,324.0
2021-12-12-21:46:06.192863,5.0,10.0,324.0
2021-12-12-21:46:06.193860,5.0,10.0,324.0
2021-12-12-21:46:06.194859,4.0,24.0,327.0
2021-12-12-21:46:06.195856,8.0,37.0,327.0
2021-12-12-21:46:06.196856,8.0,37.0,327.0
2021-12-12-21:46:06.197851,8.0,37.0,327.0
2021-12-12-21:46:06.198848,4.0,25.0,328.0
2021-12-12-21:46:06.199813,10.0,5.0,330.0
2021-12-12-21:46:06.200842,10.0,5.0,330.0
2021-12-12-21:46:06.201839,10.0,5.0,330.0
2021-12-12-21:46:06.202837,22.0,53.0,333.0
2021-12-12-21:46:06.204831,22.0,53.0,333.0
2021-12-12-21:46:06.204831,22.0,53.0,333.0
2021-12-12-21:46:06.205829,14.0,59.0,334.0
2021-12-12-21:46:06.206826,2.0,10.0,336.0
2021-12-12-21:46:06.207825,2.0,10.0,336.0
2021-12-12-21:46:06.208822,2.0,10.0,336.0
2021-12-12-21:46:06.209819,2.0,10.0,336.0
2021-12-12-21:46:06.210817,4.0,26.0,338.0
2021-12-12-21:46:06.211813,5.0,33.0,339.0
2021-12-12-21:46:06.212809,5.0,33.0,339.0
2021-12-12-21:46:06.213775,5.0,33.0,339.0
2021-12-12-21:46:06.214804,3.0,11.0,341.0
2021-12-12-21:46:06.215805,7.0,2.0,342.0
2021-12-12-21:46:06.216799,7.0,2.0,342.0
2021-12-12-21:46:06.217764,7.0,2.0,342.0
2021-12-12-21:46:06.218782,9.0,4.0,343.0
2021-12-12-21:46:06.219791,23.0,49.0,345.0
2021-12-12-21:46:06.220794,23.0,49.0,345.0
2021-12-12-21:46:06.221781,23.0,49.0,345.0
2021-12-12-21:46:06.222783,2.0,5.0,347.0
2021-12-12-21:46:06.223782,2.0,5.0,347.0
2021-12-12-21:46:06.224779,2.0,5.0,347.0
2021-12-12-21:46:06.225775,2.0,5.0,347.0
2021-12-12-21:46:06.226774,6.0,17.0,349.0
2021-12-12-21:46:06.227772,3.0,31.0,350.0
2021-12-12-21:46:06.228767,3.0,31.0,350.0
2021-12-12-21:46:06.229767,3.0,31.0,350.0
2021-12-12-21:46:06.230762,8.0,45.0,351.0
2021-12-12-21:46:06.231761,5.0,7.0,353.0
2021-12-12-21:46:06.232757,5.0,7.0,353.0
2021-12-12-21:46:06.233754,5.0,7.0,353.0
2021-12-12-21:46:06.234719,5.0,7.0,353.0
2021-12-12-21:46:06.235749,10.0,6.0,354.0
2021-12-12-21:46:06.236751,19.0,54.0,356.0
2021-12-12-21:46:06.237744,19.0,54.0,356.0
2021-12-12-21:46:06.239740,19.0,54.0,356.0
2021-12-12-21:46:06.239740,22.0,65.0,356.0
2021-12-12-21:46:06.240703,12.0,52.0,356.0
2021-12-12-21:46:06.241733,1.0,12.0,358.0
2021-12-12-21:46:06.242731,1.0,12.0,358.0
2021-12-12-21:46:06.243695,3.0,18.0,359.0
2021-12-12-21:46:06.244691,5.0,24.0,359.0
2021-12-12-21:46:06.245689,5.0,29.0,360.0
2021-12-12-21:46:06.247684,5.0,29.0,360.0
2021-12-12-21:46:06.248684,4.0,38.0,361.0
2021-12-12-21:46:06.249678,6.0,8.0,362.0
2021-12-12-21:46:06.250676,6.0,8.0,362.0
2021-12-12-21:46:06.251673,21.0,52.0,364.0
2021-12-12-21:46:06.252670,21.0,52.0,364.0
2021-12-12-21:46:06.254665,21.0,52.0,364.0
2021-12-12-21:46:06.254665,3.0,9.0,366.0
2021-12-12-21:46:06.255662,3.0,9.0,366.0
2021-12-12-21:46:06.256661,3.0,9.0,366.0
2021-12-12-21:46:06.257658,3.0,9.0,366.0
2021-12-12-21:46:06.258654,3.0,9.0,366.0
2021-12-12-21:46:06.259652,3.0,9.0,366.0
2021-12-12-21:46:06.260649,3.0,9.0,366.0
2021-12-12-21:46:06.261646,3.0,9.0,366.0
2021-12-12-21:46:06.262644,3.0,9.0,366.0
2021-12-12-21:46:06.263641,3.0,9.0,366.0
2021-12-12-21:46:06.264639,8.0,19.0,369.0
2021-12-12-21:46:06.265636,8.0,19.0,369.0
2021-12-12-21:46:06.266633,8.0,19.0,369.0
2021-12-12-21:46:06.267630,8.0,19.0,369.0
2021-12-12-21:46:06.268627,8.0,19.0,369.0
2021-12-12-21:46:06.269626,10.0,1.0,369.0
2021-12-12-21:46:06.270655,23.0,49.0,370.0
2021-12-12-21:46:06.271620,23.0,49.0,370.0
2021-12-12-21:46:06.273614,3.0,31.0,371.0
2021-12-12-21:46:06.273614,4.0,13.0,371.0
2021-12-12-21:46:06.274613,4.0,13.0,371.0
2021-12-12-21:46:06.275609,4.0,13.0,371.0
2021-12-12-21:46:06.276607,4.0,1.0,372.0
2021-12-12-21:46:06.277606,4.0,7.0,372.0
2021-12-12-21:46:06.278603,4.0,11.0,372.0
2021-12-12-21:46:06.279600,6.0,17.0,373.0
2021-12-12-21:46:06.280597,9.0,32.0,373.0
2021-12-12-21:46:06.281595,1.0,30.0,373.0
2021-12-12-21:46:06.282592,6.0,10.0,374.0
2021-12-12-21:46:06.283621,6.0,10.0,374.0
2021-12-12-21:46:06.284586,7.0,0.0,374.0
2021-12-12-21:46:06.285616,15.0,14.0,374.0
2021-12-12-21:46:06.286617,21.0,48.0,375.0
2021-12-12-21:46:06.287611,21.0,48.0,375.0
2021-12-12-21:46:06.288607,1.0,7.0,375.0
2021-12-12-21:46:06.289572,1.0,7.0,375.0
2021-12-12-21:46:06.290569,1.0,7.0,375.0
2021-12-12-21:46:06.291567,1.0,7.0,375.0
2021-12-12-21:46:06.292596,6.0,18.0,376.0
2021-12-12-21:46:06.293595,5.0,36.0,376.0
2021-12-12-21:46:06.294591,5.0,36.0,376.0
2021-12-12-21:46:06.295556,5.0,36.0,376.0
2021-12-12-21:46:06.296587,4.0,45.0,376.0
2021-12-12-21:46:06.297583,6.0,10.0,376.0
2021-12-12-21:46:06.298581,6.0,10.0,376.0
2021-12-12-21:46:06.299563,6.0,10.0,376.0
2021-12-12-21:46:06.300578,11.0,25.0,377.0
2021-12-12-21:46:06.301574,19.0,47.0,377.0
2021-12-12-21:46:06.302569,19.0,47.0,377.0
2021-12-12-21:46:06.303569,19.0,47.0,377.0
2021-12-12-21:46:06.304564,20.0,63.0,377.0
2021-12-12-21:46:06.305562,8.0,53.0,377.0
2021-12-12-21:46:06.307558,1.0,41.0,377.0
2021-12-12-21:46:06.307558,1.0,41.0,377.0
2021-12-12-21:46:06.308557,1.0,41.0,377.0
2021-12-12-21:46:06.309553,6.0,15.0,378.0
2021-12-12-21:46:06.310550,6.0,15.0,378.0
2021-12-12-21:46:06.311548,6.0,15.0,378.0
2021-12-12-21:46:06.312545,6.0,15.0,378.0
2021-12-12-21:46:06.313542,7.0,36.0,378.0
2021-12-12-21:46:06.314508,6.0,20.0,378.0
2021-12-12-21:46:06.315536,6.0,20.0,378.0
2021-12-12-21:46:06.316532,6.0,20.0,378.0
2021-12-12-21:46:06.317531,11.0,7.0,378.0
2021-12-12-21:46:06.318527,17.0,25.0,378.0
2021-12-12-21:46:06.319502,17.0,25.0,378.0
2021-12-12-21:46:06.320523,17.0,25.0,378.0
2021-12-12-21:46:06.321520,22.0,60.0,378.0
2021-12-12-21:46:06.322517,6.0,26.0,378.0
2021-12-12-21:46:06.323521,6.0,26.0,378.0
2021-12-12-21:46:06.324514,6.0,26.0,378.0
2021-12-12-21:46:06.325510,6.0,8.0,378.0
2021-12-12-21:46:06.326508,5.0,22.0,379.0
2021-12-12-21:46:06.327505,5.0,22.0,379.0
2021-12-12-21:46:06.328468,5.0,22.0,379.0
2021-12-12-21:46:06.329499,2.0,39.0,378.0
2021-12-12-21:46:06.330503,4.0,22.0,378.0
2021-12-12-21:46:06.331495,4.0,22.0,378.0
2021-12-12-21:46:06.332457,4.0,22.0,378.0
2021-12-12-21:46:06.333490,10.0,4.0,379.0
2021-12-12-21:46:06.334479,12.0,16.0,378.0
2021-12-12-21:46:06.335484,12.0,16.0,378.0
2021-12-12-21:46:06.336446,12.0,16.0,378.0
2021-12-12-21:46:06.337477,13.0,54.0,378.0
2021-12-12-21:46:06.338476,5.0,40.0,379.0
2021-12-12-21:46:06.339475,5.0,40.0,379.0
2021-12-12-21:46:06.341468,5.0,40.0,379.0
2021-12-12-21:46:06.341468,4.0,6.0,379.0
2021-12-12-21:46:06.342464,4.0,24.0,379.0
2021-12-12-21:46:06.343464,4.0,24.0,379.0
2021-12-12-21:46:06.344459,4.0,24.0,379.0
2021-12-12-21:46:06.345455,4.0,24.0,379.0
2021-12-12-21:46:06.346453,2.0,23.0,379.0
2021-12-12-21:46:06.347451,2.0,23.0,379.0
2021-12-12-21:46:06.348451,2.0,23.0,379.0
2021-12-12-21:46:06.349446,2.0,23.0,379.0
2021-12-12-21:46:06.350446,7.0,5.0,379.0
2021-12-12-21:46:06.351458,13.0,17.0,380.0
2021-12-12-21:46:06.352438,13.0,17.0,380.0
2021-12-12-21:46:06.353437,13.0,17.0,380.0
2021-12-12-21:46:06.354433,20.0,59.0,380.0
2021-12-12-21:46:06.355434,10.0,38.0,380.0
2021-12-12-21:46:06.356401,10.0,38.0,380.0
2021-12-12-21:46:06.357424,10.0,38.0,380.0
2021-12-12-21:46:06.358427,2.0,6.0,380.0
2021-12-12-21:46:06.359420,5.0,34.0,380.0
2021-12-12-21:46:06.360382,5.0,34.0,380.0
2021-12-12-21:46:06.361380,5.0,34.0,380.0
2021-12-12-21:46:06.362377,6.0,34.0,380.0
2021-12-12-21:46:06.363375,1.0,17.0,380.0
2021-12-12-21:46:06.364371,1.0,17.0,380.0
2021-12-12-21:46:06.365407,1.0,17.0,380.0
2021-12-12-21:46:06.366398,6.0,2.0,380.0
2021-12-12-21:46:06.367398,10.0,18.0,381.0
2021-12-12-21:46:06.368377,10.0,18.0,381.0
2021-12-12-21:46:06.369358,10.0,18.0,381.0
2021-12-12-21:46:06.370390,19.0,79.0,381.0
2021-12-12-21:46:06.371386,11.0,50.0,380.0
2021-12-12-21:46:06.372387,11.0,50.0,380.0
2021-12-12-21:46:06.373347,11.0,50.0,380.0
2021-12-12-21:46:06.374378,7.0,12.0,381.0
2021-12-12-21:46:06.375376,7.0,12.0,381.0
2021-12-12-21:46:06.377370,7.0,12.0,381.0
2021-12-12-21:46:06.377370,7.0,39.0,381.0
2021-12-12-21:46:06.378368,0.0,33.0,382.0
2021-12-12-21:46:06.379364,0.0,33.0,382.0
2021-12-12-21:46:06.380362,0.0,33.0,382.0
2021-12-12-21:46:06.381363,0.0,33.0,382.0
2021-12-12-21:46:06.382357,0.0,33.0,382.0
2021-12-12-21:46:06.383355,9.0,3.0,381.0
2021-12-12-21:46:06.384351,9.0,3.0,381.0
2021-12-12-21:46:06.385348,9.0,3.0,381.0
2021-12-12-21:46:06.386347,9.0,3.0,381.0
2021-12-12-21:46:06.387343,25.0,43.0,381.0
2021-12-12-21:46:06.388341,14.0,52.0,382.0
2021-12-12-21:46:06.389338,14.0,52.0,382.0
2021-12-12-21:46:06.390342,14.0,52.0,382.0
2021-12-12-21:46:06.391334,1.0,14.0,382.0
2021-12-12-21:46:06.392329,6.0,10.0,382.0
2021-12-12-21:46:06.393328,6.0,10.0,382.0
2021-12-12-21:46:06.394325,6.0,10.0,382.0
2021-12-12-21:46:06.395326,3.0,24.0,381.0
2021-12-12-21:46:06.396319,6.0,40.0,382.0
2021-12-12-21:46:06.397318,6.0,40.0,382.0
2021-12-12-21:46:06.398313,6.0,40.0,382.0
2021-12-12-21:46:06.399312,3.0,12.0,382.0
2021-12-12-21:46:06.400310,9.0,5.0,382.0
2021-12-12-21:46:06.401273,9.0,5.0,382.0
2021-12-12-21:46:06.402281,9.0,5.0,382.0
2021-12-12-21:46:06.403300,20.0,60.0,381.0
2021-12-12-21:46:06.404297,21.0,50.0,381.0
2021-12-12-21:46:06.405296,21.0,50.0,381.0
2021-12-12-21:46:06.406260,21.0,50.0,381.0
2021-12-12-21:46:06.407291,9.0,14.0,382.0
2021-12-12-21:46:06.408287,4.0,12.0,381.0
2021-12-12-21:46:06.409285,4.0,12.0,381.0
2021-12-12-21:46:06.411279,4.0,12.0,381.0
2021-12-12-21:46:06.411279,6.0,26.0,381.0
2021-12-12-21:46:06.412276,8.0,32.0,382.0
2021-12-12-21:46:06.413274,8.0,32.0,382.0
2021-12-12-21:46:06.414257,8.0,32.0,382.0
2021-12-12-21:46:06.415270,0.0,1.0,382.0
2021-12-12-21:46:06.416265,10.0,18.0,381.0
2021-12-12-21:46:06.417263,10.0,18.0,381.0
2021-12-12-21:46:06.418261,10.0,18.0,381.0
2021-12-12-21:46:06.419257,10.0,18.0,381.0
2021-12-12-21:46:06.420258,20.0,48.0,382.0
2021-12-12-21:46:06.421253,20.0,48.0,382.0
2021-12-12-21:46:06.422257,20.0,48.0,382.0
2021-12-12-21:46:06.423214,20.0,48.0,382.0
2021-12-12-21:46:06.424212,5.0,19.0,382.0
2021-12-12-21:46:06.425242,5.0,19.0,382.0
2021-12-12-21:46:06.426241,5.0,19.0,382.0
2021-12-12-21:46:06.427203,5.0,19.0,382.0
2021-12-12-21:46:06.428200,8.0,36.0,382.0
2021-12-12-21:46:06.429197,8.0,36.0,382.0
2021-12-12-21:46:06.430194,8.0,36.0,382.0
2021-12-12-21:46:06.431192,8.0,36.0,382.0
2021-12-12-21:46:06.432189,4.0,15.0,382.0
2021-12-12-21:46:06.433187,9.0,15.0,381.0
2021-12-12-21:46:06.434184,9.0,15.0,381.0
2021-12-12-21:46:06.435181,9.0,15.0,381.0
2021-12-12-21:46:06.436179,13.0,13.0,381.0
2021-12-12-21:46:06.437210,22.0,62.0,381.0
2021-12-12-21:46:06.438206,22.0,62.0,381.0
2021-12-12-21:46:06.439206,22.0,62.0,381.0
2021-12-12-21:46:06.440201,1.0,18.0,381.0
2021-12-12-21:46:06.441198,4.0,0.0,381.0
2021-12-12-21:46:06.442164,4.0,0.0,381.0
2021-12-12-21:46:06.444198,4.0,0.0,381.0
2021-12-12-21:46:06.444198,7.0,24.0,381.0
2021-12-12-21:46:06.445189,7.0,24.0,381.0
2021-12-12-21:46:06.446185,7.0,24.0,381.0
2021-12-12-21:46:06.447150,7.0,24.0,381.0
2021-12-12-21:46:06.448187,1.0,34.0,380.0
2021-12-12-21:46:06.449178,8.0,11.0,380.0
2021-12-12-21:46:06.450176,8.0,11.0,380.0
2021-12-12-21:46:06.451139,8.0,11.0,380.0
2021-12-12-21:46:06.452169,9.0,3.0,379.0
2021-12-12-21:46:06.453167,21.0,49.0,378.0
2021-12-12-21:46:06.454164,21.0,49.0,378.0
2021-12-12-21:46:06.455166,21.0,49.0,378.0
2021-12-12-21:46:06.456159,2.0,8.0,377.0
2021-12-12-21:46:06.457157,2.0,8.0,377.0
2021-12-12-21:46:06.458154,2.0,8.0,377.0
2021-12-12-21:46:06.459151,2.0,8.0,377.0
2021-12-12-21:46:06.460151,5.0,27.0,373.0
2021-12-12-21:46:06.461147,5.0,27.0,373.0
2021-12-12-21:46:06.462146,5.0,27.0,373.0
2021-12-12-21:46:06.463142,5.0,27.0,373.0
2021-12-12-21:46:06.464137,5.0,27.0,373.0
2021-12-12-21:46:06.465135,1.0,31.0,372.0
2021-12-12-21:46:06.466133,6.0,9.0,370.0
2021-12-12-21:46:06.467129,6.0,9.0,370.0
2021-12-12-21:46:06.468094,6.0,9.0,370.0
2021-12-12-21:46:06.469092,14.0,19.0,368.0
2021-12-12-21:46:06.470122,21.0,50.0,367.0
2021-12-12-21:46:06.471120,21.0,50.0,367.0
2021-12-12-21:46:06.472084,21.0,50.0,367.0
2021-12-12-21:46:06.473080,6.0,35.0,363.0
2021-12-12-21:46:06.474113,2.0,18.0,362.0
2021-12-12-21:46:06.475109,2.0,18.0,362.0
2021-12-12-21:46:06.476109,2.0,18.0,362.0
2021-12-12-21:46:06.477104,3.0,24.0,357.0
2021-12-12-21:46:06.479105,7.0,43.0,356.0
2021-12-12-21:46:06.479105,7.0,43.0,356.0
2021-12-12-21:46:06.480062,7.0,43.0,356.0
2021-12-12-21:46:06.481094,6.0,21.0,352.0
2021-12-12-21:46:06.482092,8.0,10.0,351.0
2021-12-12-21:46:06.483087,8.0,10.0,351.0
2021-12-12-21:46:06.484052,8.0,10.0,351.0
2021-12-12-21:46:06.485049,13.0,7.0,348.0
2021-12-12-21:46:06.486079,23.0,56.0,345.0
2021-12-12-21:46:06.487078,23.0,56.0,345.0
2021-12-12-21:46:06.488041,23.0,56.0,345.0
2021-12-12-21:46:06.489074,8.0,50.0,343.0
2021-12-12-21:46:06.490070,1.0,9.0,340.0
2021-12-12-21:46:06.491067,1.0,9.0,340.0
2021-12-12-21:46:06.492066,1.0,9.0,340.0
2021-12-12-21:46:06.493062,5.0,31.0,334.0
2021-12-12-21:46:06.494059,5.0,31.0,334.0
2021-12-12-21:46:06.495056,5.0,31.0,334.0
2021-12-12-21:46:06.496058,5.0,31.0,334.0
2021-12-12-21:46:06.497050,5.0,31.0,334.0
2021-12-12-21:46:06.498049,12.0,0.0,328.0
2021-12-12-21:46:06.499045,12.0,0.0,328.0
2021-12-12-21:46:06.500045,12.0,0.0,328.0
2021-12-12-21:46:06.501040,12.0,0.0,328.0
2021-12-12-21:46:06.502038,7.0,20.0,326.0
2021-12-12-21:46:06.503035,21.0,60.0,323.0
2021-12-12-21:46:06.504031,21.0,60.0,323.0
2021-12-12-21:46:06.505029,21.0,60.0,323.0
2021-12-12-21:46:06.506033,14.0,40.0,320.0
2021-12-12-21:46:06.507024,4.0,6.0,317.0
2021-12-12-21:46:06.508023,4.0,6.0,317.0
2021-12-12-21:46:06.509019,4.0,6.0,317.0
2021-12-12-21:46:06.510016,8.0,18.0,314.0
2021-12-12-21:46:06.512011,5.0,24.0,311.0
2021-12-12-21:46:06.512011,5.0,24.0,311.0
2021-12-12-21:46:06.513008,5.0,24.0,311.0
2021-12-12-21:46:06.514011,6.0,12.0,306.0
2021-12-12-21:46:06.515002,6.0,12.0,306.0
2021-12-12-21:46:06.516001,6.0,12.0,306.0
2021-12-12-21:46:06.517000,6.0,12.0,306.0
2021-12-12-21:46:06.517965,15.0,22.0,302.0
2021-12-12-21:46:06.518992,22.0,51.0,300.0
2021-12-12-21:46:06.519989,22.0,51.0,300.0
2021-12-12-21:46:06.520953,22.0,51.0,300.0
2021-12-12-21:46:06.521985,12.0,49.0,298.0
2021-12-12-21:46:06.522981,1.0,12.0,295.0
2021-12-12-21:46:06.523945,1.0,12.0,295.0
2021-12-12-21:46:06.524942,1.0,12.0,295.0
2021-12-12-21:46:06.525973,6.0,22.0,291.0
2021-12-12-21:46:06.526971,5.0,26.0,290.0
2021-12-12-21:46:06.527967,5.0,26.0,290.0
2021-12-12-21:46:06.528957,5.0,26.0,290.0
2021-12-12-21:46:06.529963,7.0,37.0,287.0
2021-12-12-21:46:06.530964,5.0,11.0,285.0
2021-12-12-21:46:06.531959,5.0,11.0,285.0
2021-12-12-21:46:06.532955,5.0,11.0,285.0
2021-12-12-21:46:06.533958,5.0,11.0,285.0
2021-12-12-21:46:06.534950,19.0,41.0,280.0
2021-12-12-21:46:06.535913,19.0,41.0,280.0
2021-12-12-21:46:06.536944,19.0,41.0,280.0
2021-12-12-21:46:06.537942,19.0,41.0,280.0
2021-12-12-21:46:06.538938,15.0,55.0,278.0
2021-12-12-21:46:06.539902,3.0,19.0,275.0
2021-12-12-21:46:06.540934,3.0,19.0,275.0
2021-12-12-21:46:06.541930,3.0,19.0,275.0
2021-12-12-21:46:06.542932,5.0,11.0,273.0
2021-12-12-21:46:06.543925,5.0,23.0,271.0
2021-12-12-21:46:06.545921,5.0,23.0,271.0
2021-12-12-21:46:06.545921,7.0,44.0,269.0
2021-12-12-21:46:06.546917,3.0,17.0,266.0
2021-12-12-21:46:06.547917,3.0,17.0,266.0
2021-12-12-21:46:06.548912,3.0,17.0,266.0
2021-12-12-21:46:06.549909,3.0,17.0,266.0
2021-12-12-21:46:06.550907,8.0,18.0,264.0
2021-12-12-21:46:06.551904,16.0,14.0,262.0
2021-12-12-21:46:06.552901,16.0,14.0,262.0
2021-12-12-21:46:06.553899,16.0,14.0,262.0
2021-12-12-21:46:06.554895,21.0,50.0,260.0
2021-12-12-21:46:06.555896,6.0,39.0,258.0
2021-12-12-21:46:06.556891,6.0,39.0,258.0
2021-12-12-21:46:06.557856,6.0,39.0,258.0
2021-12-12-21:46:06.558885,5.0,16.0,256.0
2021-12-12-21:46:06.559882,3.0,17.0,255.0
2021-12-12-21:46:06.560880,3.0,17.0,255.0
2021-12-12-21:46:06.561844,3.0,17.0,255.0
2021-12-12-21:46:06.562874,3.0,11.0,253.0
2021-12-12-21:46:06.563837,7.0,11.0,250.0
2021-12-12-21:46:06.564869,7.0,11.0,250.0
2021-12-12-21:46:06.565833,7.0,11.0,250.0
2021-12-12-21:46:06.566864,9.0,10.0,248.0
2021-12-12-21:46:06.567861,11.0,11.0,247.0
2021-12-12-21:46:06.568859,11.0,11.0,247.0
2021-12-12-21:46:06.569857,11.0,11.0,247.0
2021-12-12-21:46:06.570854,19.0,53.0,245.0
2021-12-12-21:46:06.571852,6.0,34.0,244.0
2021-12-12-21:46:06.572848,6.0,34.0,244.0
2021-12-12-21:46:06.573845,6.0,34.0,244.0
2021-12-12-21:46:06.574842,6.0,34.0,244.0
2021-12-12-21:46:06.575840,3.0,20.0,241.0
2021-12-12-21:46:06.576837,3.0,20.0,241.0
2021-12-12-21:46:06.577835,3.0,20.0,241.0
2021-12-12-21:46:06.578832,3.0,20.0,241.0
2021-12-12-21:46:06.580827,3.0,24.0,239.0
2021-12-12-21:46:06.580827,3.0,24.0,239.0
2021-12-12-21:46:06.581824,3.0,24.0,239.0
2021-12-12-21:46:06.582822,3.0,24.0,239.0
2021-12-12-21:46:06.583818,8.0,3.0,238.0
2021-12-12-21:46:06.584782,11.0,9.0,236.0
2021-12-12-21:46:06.585814,11.0,9.0,236.0
2021-12-12-21:46:06.586811,11.0,9.0,236.0
2021-12-12-21:46:06.587810,20.0,54.0,236.0
2021-12-12-21:46:06.588806,5.0,37.0,235.0
2021-12-12-21:46:06.589769,5.0,37.0,235.0
2021-12-12-21:46:06.590800,5.0,37.0,235.0
2021-12-12-21:46:06.591797,5.0,0.0,234.0
2021-12-12-21:46:06.592794,4.0,17.0,233.0
2021-12-12-21:46:06.593758,4.0,17.0,233.0
2021-12-12-21:46:06.594755,4.0,17.0,233.0
2021-12-12-21:46:06.595785,1.0,22.0,232.0
2021-12-12-21:46:06.596783,1.0,22.0,232.0
2021-12-12-21:46:06.597781,1.0,22.0,232.0
2021-12-12-21:46:06.598745,1.0,22.0,232.0
2021-12-12-21:46:06.599774,9.0,5.0,231.0
2021-12-12-21:46:06.600774,10.0,14.0,230.0
2021-12-12-21:46:06.601753,10.0,14.0,230.0
2021-12-12-21:46:06.602734,10.0,14.0,230.0
2021-12-12-21:46:06.603763,19.0,47.0,230.0
2021-12-12-21:46:06.604761,11.0,44.0,229.0
2021-12-12-21:46:06.605758,11.0,44.0,229.0
2021-12-12-21:46:06.606759,11.0,44.0,229.0
2021-12-12-21:46:06.607752,3.0,3.0,229.0
2021-12-12-21:46:06.608749,6.0,13.0,228.0
2021-12-12-21:46:06.609749,6.0,13.0,228.0
2021-12-12-21:46:06.610744,6.0,13.0,228.0
2021-12-12-21:46:06.611748,6.0,17.0,228.0
2021-12-12-21:46:06.613736,1.0,41.0,227.0
2021-12-12-21:46:06.613736,1.0,41.0,227.0
2021-12-12-21:46:06.614736,1.0,41.0,227.0
2021-12-12-21:46:06.615736,1.0,41.0,227.0
2021-12-12-21:46:06.616728,2.0,23.0,227.0
2021-12-12-21:46:06.617727,13.0,13.0,226.0
2021-12-12-21:46:06.618727,13.0,13.0,226.0
2021-12-12-21:46:06.619721,13.0,13.0,226.0
2021-12-12-21:46:06.620718,21.0,39.0,226.0
2021-12-12-21:46:06.621715,14.0,46.0,226.0
2021-12-12-21:46:06.622715,14.0,46.0,226.0
2021-12-12-21:46:06.623710,14.0,46.0,226.0
2021-12-12-21:46:06.624708,2.0,25.0,226.0
2021-12-12-21:46:06.625710,4.0,22.0,225.0
2021-12-12-21:46:06.626702,4.0,22.0,225.0
2021-12-12-21:46:06.627700,4.0,22.0,225.0
2021-12-12-21:46:06.628697,5.0,5.0,224.0
2021-12-12-21:46:06.629693,6.0,31.0,224.0
2021-12-12-21:46:06.630693,6.0,31.0,224.0
2021-12-12-21:46:06.631688,6.0,31.0,224.0
2021-12-12-21:46:06.632685,8.0,17.0,224.0
2021-12-12-21:46:06.633684,8.0,12.0,224.0
2021-12-12-21:46:06.634680,8.0,12.0,224.0
2021-12-12-21:46:06.635646,8.0,12.0,224.0
2021-12-12-21:46:06.636676,23.0,34.0,223.0
2021-12-12-21:46:06.637676,15.0,49.0,223.0
2021-12-12-21:46:06.638637,15.0,49.0,223.0
2021-12-12-21:46:06.639634,15.0,49.0,223.0
2021-12-12-21:46:06.640666,4.0,22.0,223.0
2021-12-12-21:46:06.641663,4.0,9.0,223.0
2021-12-12-21:46:06.642659,4.0,9.0,223.0
2021-12-12-21:46:06.643656,4.0,9.0,223.0
2021-12-12-21:46:06.644655,7.0,30.0,222.0
2021-12-12-21:46:06.645652,6.0,40.0,223.0
2021-12-12-21:46:06.647647,6.0,40.0,223.0
2021-12-12-21:46:06.647647,6.0,40.0,223.0
2021-12-12-21:46:06.648644,9.0,5.0,223.0
2021-12-12-21:46:06.649642,9.0,5.0,223.0
2021-12-12-21:46:06.650638,9.0,5.0,223.0
2021-12-12-21:46:06.651635,9.0,5.0,223.0
2021-12-12-21:46:06.652633,11.0,6.0,223.0
2021-12-12-21:46:06.653630,20.0,48.0,223.0
2021-12-12-21:46:06.654629,20.0,48.0,223.0
2021-12-12-21:46:06.655625,20.0,48.0,223.0
2021-12-12-21:46:06.656590,20.0,48.0,223.0
2021-12-12-21:46:06.657621,3.0,12.0,223.0
2021-12-12-21:46:06.658617,6.0,3.0,223.0
2021-12-12-21:46:06.659614,6.0,3.0,223.0
2021-12-12-21:46:06.660612,6.0,3.0,223.0
2021-12-12-21:46:06.661609,3.0,24.0,223.0
2021-12-12-21:46:06.662613,9.0,34.0,223.0
2021-12-12-21:46:06.663604,9.0,34.0,223.0
2021-12-12-21:46:06.664600,9.0,34.0,223.0
2021-12-12-21:46:06.665599,6.0,6.0,223.0
2021-12-12-21:46:06.666598,8.0,2.0,223.0
2021-12-12-21:46:06.667593,8.0,2.0,223.0
2021-12-12-21:46:06.668582,8.0,2.0,223.0
2021-12-12-21:46:06.669588,11.0,14.0,223.0
2021-12-12-21:46:06.670588,21.0,46.0,223.0
2021-12-12-21:46:06.671582,18.0,59.0,223.0
2021-12-12-21:46:06.672547,18.0,59.0,223.0
2021-12-12-21:46:06.673578,6.0,40.0,223.0
2021-12-12-21:46:06.674575,5.0,1.0,223.0
2021-12-12-21:46:06.675572,5.0,1.0,223.0
2021-12-12-21:46:06.676536,5.0,1.0,223.0
2021-12-12-21:46:06.677566,0.0,26.0,223.0
2021-12-12-21:46:06.678567,5.0,31.0,223.0
2021-12-12-21:46:06.679561,5.0,31.0,223.0
2021-12-12-21:46:06.681557,5.0,31.0,223.0
2021-12-12-21:46:06.681557,4.0,35.0,223.0
2021-12-12-21:46:06.682521,10.0,0.0,223.0
2021-12-12-21:46:06.683550,10.0,0.0,223.0
2021-12-12-21:46:06.684548,10.0,0.0,223.0
2021-12-12-21:46:06.685545,9.0,13.0,224.0
2021-12-12-21:46:06.686509,19.0,52.0,224.0
2021-12-12-21:46:06.687507,19.0,52.0,224.0
2021-12-12-21:46:06.688504,19.0,52.0,224.0
2021-12-12-21:46:06.689535,19.0,52.0,224.0
2021-12-12-21:46:06.690531,6.0,11.0,225.0
2021-12-12-21:46:06.691529,1.0,7.0,226.0
2021-12-12-21:46:06.692527,1.0,7.0,226.0
2021-12-12-21:46:06.693524,1.0,7.0,226.0
2021-12-12-21:46:06.694522,6.0,26.0,227.0
2021-12-12-21:46:06.695518,6.0,26.0,227.0
2021-12-12-21:46:06.696521,6.0,26.0,227.0
2021-12-12-21:46:06.697514,7.0,17.0,229.0
2021-12-12-21:46:06.698513,7.0,5.0,229.0
2021-12-12-21:46:06.699507,7.0,5.0,229.0
2021-12-12-21:46:06.700507,7.0,5.0,229.0
2021-12-12-21:46:06.701470,7.0,5.0,229.0
2021-12-12-21:46:06.702504,10.0,23.0,230.0
2021-12-12-21:46:06.703499,15.0,54.0,232.0
2021-12-12-21:46:06.704495,15.0,54.0,232.0
2021-12-12-21:46:06.705497,15.0,54.0,232.0
2021-12-12-21:46:06.706457,0.0,19.0,234.0
2021-12-12-21:46:06.707486,3.0,8.0,235.0
2021-12-12-21:46:06.708485,3.0,8.0,235.0
2021-12-12-21:46:06.709448,3.0,8.0,235.0
2021-12-12-21:46:06.710479,4.0,25.0,236.0
2021-12-12-21:46:06.711475,4.0,34.0,237.0
2021-12-12-21:46:06.712473,4.0,34.0,237.0
2021-12-12-21:46:06.713438,4.0,34.0,237.0
2021-12-12-21:46:06.714456,8.0,2.0,240.0
2021-12-12-21:46:06.715433,8.0,2.0,240.0
2021-12-12-21:46:06.716464,8.0,2.0,240.0
2021-12-12-21:46:06.717434,8.0,2.0,240.0
2021-12-12-21:46:06.718436,10.0,3.0,241.0
2021-12-12-21:46:06.720452,11.0,8.0,241.0
2021-12-12-21:46:06.720452,15.0,48.0,243.0
2021-12-12-21:46:06.721453,15.0,48.0,243.0
2021-12-12-21:46:06.722449,0.0,4.0,246.0
2021-12-12-21:46:06.723451,0.0,4.0,246.0
2021-12-12-21:46:06.724443,0.0,4.0,246.0
2021-12-12-21:46:06.725439,0.0,4.0,246.0
2021-12-12-21:46:06.726439,2.0,14.0,246.0
2021-12-12-21:46:06.727434,3.0,22.0,249.0
2021-12-12-21:46:06.728431,3.0,22.0,249.0
2021-12-12-21:46:06.729435,3.0,22.0,249.0
2021-12-12-21:46:06.730426,3.0,22.0,249.0
2021-12-12-21:46:06.731425,6.0,4.0,252.0
2021-12-12-21:46:06.732424,6.0,4.0,252.0
2021-12-12-21:46:06.733424,6.0,4.0,252.0
2021-12-12-21:46:06.734415,6.0,4.0,252.0
2021-12-12-21:46:06.735411,16.0,31.0,255.0
2021-12-12-21:46:06.736377,17.0,50.0,256.0
2021-12-12-21:46:06.737409,17.0,50.0,256.0
2021-12-12-21:46:06.738403,17.0,50.0,256.0
2021-12-12-21:46:06.739401,8.0,36.0,258.0
2021-12-12-21:46:06.740399,2.0,8.0,260.0
2021-12-12-21:46:06.741395,2.0,8.0,260.0
2021-12-12-21:46:06.742405,2.0,8.0,260.0
2021-12-12-21:46:06.743406,4.0,16.0,262.0
2021-12-12-21:46:06.744355,4.0,19.0,264.0
2021-12-12-21:46:06.745392,4.0,19.0,264.0
2021-12-12-21:46:06.746384,4.0,19.0,264.0
2021-12-12-21:46:06.747384,2.0,25.0,265.0
2021-12-12-21:46:06.748379,5.0,16.0,266.0
2021-12-12-21:46:06.750339,6.0,11.0,268.0
2021-12-12-21:46:06.750339,6.0,11.0,268.0
2021-12-12-21:46:06.751337,20.0,42.0,271.0
2021-12-12-21:46:06.752367,20.0,42.0,271.0
2021-12-12-21:46:06.753365,20.0,42.0,271.0
2021-12-12-21:46:06.754328,20.0,42.0,271.0
2021-12-12-21:46:06.755366,8.0,27.0,275.0
2021-12-12-21:46:06.756357,2.0,9.0,275.0
2021-12-12-21:46:06.757353,2.0,9.0,275.0
2021-12-12-21:46:06.758334,2.0,9.0,275.0
2021-12-12-21:46:06.759348,1.0,18.0,280.0
2021-12-12-21:46:06.760345,1.0,18.0,280.0
2021-12-12-21:46:06.761343,1.0,18.0,280.0
2021-12-12-21:46:06.762341,1.0,18.0,280.0
2021-12-12-21:46:06.763341,1.0,16.0,283.0
2021-12-12-21:46:06.764336,4.0,10.0,284.0
2021-12-12-21:46:06.765340,4.0,10.0,284.0
2021-12-12-21:46:06.766333,4.0,10.0,284.0
2021-12-12-21:46:06.767327,4.0,10.0,284.0
2021-12-12-21:46:06.768291,9.0,10.0,288.0
2021-12-12-21:46:06.769322,18.0,37.0,288.0
2021-12-12-21:46:06.770320,18.0,37.0,288.0
2021-12-12-21:46:06.771319,18.0,37.0,288.0
2021-12-12-21:46:06.772317,22.0,49.0,289.0
2021-12-12-21:46:06.773312,2.0,19.0,293.0
2021-12-12-21:46:06.774309,2.0,19.0,293.0
2021-12-12-21:46:06.775306,2.0,19.0,293.0
2021-12-12-21:46:06.776303,4.0,16.0,297.0
2021-12-12-21:46:06.777302,1.0,18.0,297.0
2021-12-12-21:46:06.778298,1.0,18.0,297.0
2021-12-12-21:46:06.779297,1.0,18.0,297.0
2021-12-12-21:46:06.780260,4.0,25.0,299.0
2021-12-12-21:46:06.781284,1.0,25.0,301.0
2021-12-12-21:46:06.783251,6.0,15.0,302.0
2021-12-12-21:46:06.783251,6.0,15.0,302.0
2021-12-12-21:46:06.784286,10.0,7.0,306.0
2021-12-12-21:46:06.785248,17.0,28.0,307.0
2021-12-12-21:46:06.786276,17.0,28.0,307.0
2021-12-12-21:46:06.787240,17.0,28.0,307.0
2021-12-12-21:46:06.788272,12.0,36.0,310.0
2021-12-12-21:46:06.789269,4.0,26.0,311.0
2021-12-12-21:46:06.790267,4.0,26.0,311.0
2021-12-12-21:46:06.791230,4.0,26.0,311.0
2021-12-12-21:46:06.792261,3.0,5.0,314.0
2021-12-12-21:46:06.793259,1.0,14.0,316.0
2021-12-12-21:46:06.794255,1.0,14.0,316.0
2021-12-12-21:46:06.795219,1.0,14.0,316.0
2021-12-12-21:46:06.796251,2.0,26.0,320.0
2021-12-12-21:46:06.797247,8.0,15.0,321.0
2021-12-12-21:46:06.798249,8.0,15.0,321.0
2021-12-12-21:46:06.799248,8.0,15.0,321.0
2021-12-12-21:46:06.800239,16.0,16.0,327.0
2021-12-12-21:46:06.801238,16.0,16.0,327.0
2021-12-12-21:46:06.802200,16.0,16.0,327.0
2021-12-12-21:46:06.803234,16.0,16.0,327.0
2021-12-12-21:46:06.804229,19.0,44.0,328.0
2021-12-12-21:46:06.805225,4.0,27.0,332.0
2021-12-12-21:46:06.806226,4.0,27.0,332.0
2021-12-12-21:46:06.807220,4.0,27.0,332.0
2021-12-12-21:46:06.808218,4.0,27.0,332.0
2021-12-12-21:46:06.809221,0.0,1.0,335.0
2021-12-12-21:46:06.810213,3.0,13.0,338.0
2021-12-12-21:46:06.811212,3.0,13.0,338.0
2021-12-12-21:46:06.812208,3.0,13.0,338.0
2021-12-12-21:46:06.813205,3.0,26.0,342.0
2021-12-12-21:46:06.814202,2.0,13.0,344.0
2021-12-12-21:46:06.815199,2.0,13.0,344.0
2021-12-12-21:46:06.816197,2.0,13.0,344.0
2021-12-12-21:46:06.818193,2.0,13.0,344.0
2021-12-12-21:46:06.818193,6.0,7.0,350.0
2021-12-12-21:46:06.819187,6.0,7.0,350.0
2021-12-12-21:46:06.820185,6.0,7.0,350.0
2021-12-12-21:46:06.821182,17.0,46.0,353.0
2021-12-12-21:46:06.822182,6.0,35.0,356.0
2021-12-12-21:46:06.823144,6.0,35.0,356.0
2021-12-12-21:46:06.824142,6.0,35.0,356.0
2021-12-12-21:46:06.825172,1.0,5.0,359.0
2021-12-12-21:46:06.826169,10.0,13.0,363.0
2021-12-12-21:46:06.827166,10.0,13.0,363.0
2021-12-12-21:46:06.828131,10.0,13.0,363.0
2021-12-12-21:46:06.829161,6.0,25.0,366.0
2021-12-12-21:46:06.830160,1.0,24.0,370.0
2021-12-12-21:46:06.831155,1.0,24.0,370.0
2021-12-12-21:46:06.832119,1.0,24.0,370.0
2021-12-12-21:46:06.833151,10.0,7.0,377.0
2021-12-12-21:46:06.834148,10.0,7.0,377.0
2021-12-12-21:46:06.835148,10.0,7.0,377.0
2021-12-12-21:46:06.836143,10.0,7.0,377.0
2021-12-12-21:46:06.837140,16.0,51.0,382.0
2021-12-12-21:46:06.838138,10.0,38.0,383.0
2021-12-12-21:46:06.839140,10.0,38.0,383.0
2021-12-12-21:46:06.840131,10.0,38.0,383.0
2021-12-12-21:46:06.841130,10.0,38.0,383.0
2021-12-12-21:46:06.842126,5.0,12.0,391.0
2021-12-12-21:46:06.843123,5.0,12.0,391.0
2021-12-12-21:46:06.844121,5.0,12.0,391.0
2021-12-12-21:46:06.845119,5.0,12.0,391.0
2021-12-12-21:46:06.846117,3.0,35.0,396.0
2021-12-12-21:46:06.847117,1.0,27.0,398.0
2021-12-12-21:46:06.848109,1.0,27.0,398.0
2021-12-12-21:46:06.849108,1.0,27.0,398.0
2021-12-12-21:46:06.851102,9.0,4.0,405.0
2021-12-12-21:46:06.851102,9.0,4.0,405.0
2021-12-12-21:46:06.852100,9.0,4.0,405.0
2021-12-12-21:46:06.853096,9.0,4.0,405.0
2021-12-12-21:46:06.854096,17.0,38.0,408.0
2021-12-12-21:46:06.855091,12.0,46.0,412.0
2021-12-12-21:46:06.856088,12.0,46.0,412.0
2021-12-12-21:46:06.857088,12.0,46.0,412.0
2021-12-12-21:46:06.858083,9.0,28.0,414.0
2021-12-12-21:46:06.859080,2.0,9.0,419.0
2021-12-12-21:46:06.860078,2.0,9.0,419.0
2021-12-12-21:46:06.861075,2.0,9.0,419.0
2021-12-12-21:46:06.862075,3.0,30.0,424.0
2021-12-12-21:46:06.863070,2.0,33.0,426.0
2021-12-12-21:46:06.864068,2.0,33.0,426.0
2021-12-12-21:46:06.865032,2.0,33.0,426.0
2021-12-12-21:46:06.866062,8.0,14.0,428.0
2021-12-12-21:46:06.867063,9.0,1.0,431.0
2021-12-12-21:46:06.868057,9.0,1.0,431.0
2021-12-12-21:46:06.869020,9.0,1.0,431.0
2021-12-12-21:46:06.870053,18.0,33.0,435.0
2021-12-12-21:46:06.871049,13.0,55.0,437.0
2021-12-12-21:46:06.872045,13.0,55.0,437.0
2021-12-12-21:46:06.873031,13.0,55.0,437.0
2021-12-12-21:46:06.874041,13.0,55.0,437.0
2021-12-12-21:46:06.875038,4.0,9.0,443.0
2021-12-12-21:46:06.876036,4.0,9.0,443.0
2021-12-12-21:46:06.877033,4.0,9.0,443.0
2021-12-12-21:46:06.878032,4.0,9.0,443.0
2021-12-12-21:46:06.879028,5.0,27.0,448.0
2021-12-12-21:46:06.880025,5.0,27.0,448.0
2021-12-12-21:46:06.881023,5.0,27.0,448.0
2021-12-12-21:46:06.882019,5.0,27.0,448.0
2021-12-12-21:46:06.883017,6.0,1.0,453.0
2021-12-12-21:46:06.884979,6.0,1.0,453.0
2021-12-12-21:46:06.884979,6.0,1.0,453.0
2021-12-12-21:46:06.886010,16.0,55.0,457.0
2021-12-12-21:46:06.887006,16.0,55.0,457.0
2021-12-12-21:46:06.888004,16.0,55.0,457.0
2021-12-12-21:46:06.889002,16.0,55.0,457.0
2021-12-12-21:46:06.889966,16.0,55.0,457.0
2021-12-12-21:46:06.890995,8.0,31.0,460.0
2021-12-12-21:46:06.891993,4.0,12.0,462.0
2021-12-12-21:46:06.892990,4.0,12.0,462.0
2021-12-12-21:46:06.893989,4.0,12.0,462.0
2021-12-12-21:46:06.894984,2.0,9.0,464.0
2021-12-12-21:46:06.895982,4.0,35.0,466.0
2021-12-12-21:46:06.896980,4.0,35.0,466.0
2021-12-12-21:46:06.897976,4.0,35.0,466.0
2021-12-12-21:46:06.898974,4.0,22.0,468.0
2021-12-12-21:46:06.899973,8.0,3.0,470.0
2021-12-12-21:46:06.900973,8.0,3.0,470.0
2021-12-12-21:46:06.901933,8.0,3.0,470.0
2021-12-12-21:46:06.902964,20.0,43.0,473.0
2021-12-12-21:46:06.903965,15.0,53.0,474.0
2021-12-12-21:46:06.904965,15.0,53.0,474.0
2021-12-12-21:46:06.905923,15.0,53.0,474.0
2021-12-12-21:46:06.906958,3.0,20.0,476.0
2021-12-12-21:46:06.907951,1.0,4.0,477.0
2021-12-12-21:46:06.908948,1.0,4.0,477.0
2021-12-12-21:46:06.909911,1.0,4.0,477.0
2021-12-12-21:46:06.910943,4.0,17.0,479.0
2021-12-12-21:46:06.911940,2.0,27.0,480.0
2021-12-12-21:46:06.912939,2.0,27.0,480.0
2021-12-12-21:46:06.913935,2.0,27.0,480.0
2021-12-12-21:46:06.914938,6.0,4.0,483.0
2021-12-12-21:46:06.915930,6.0,4.0,483.0
2021-12-12-21:46:06.916927,6.0,4.0,483.0
2021-12-12-21:46:06.918921,6.0,4.0,483.0
2021-12-12-21:46:06.918921,19.0,27.0,484.0
2021-12-12-21:46:06.919885,17.0,41.0,485.0
2021-12-12-21:46:06.920917,17.0,41.0,485.0
2021-12-12-21:46:06.921914,17.0,41.0,485.0
2021-12-12-21:46:06.922913,17.0,41.0,485.0
2021-12-12-21:46:06.923902,8.0,31.0,486.0
2021-12-12-21:46:06.924905,1.0,2.0,487.0
2021-12-12-21:46:06.925903,1.0,2.0,487.0
2021-12-12-21:46:06.926902,1.0,2.0,487.0
2021-12-12-21:46:06.927898,3.0,12.0,488.0
2021-12-12-21:46:06.928896,3.0,32.0,490.0
2021-12-12-21:46:06.929892,3.0,32.0,490.0
2021-12-12-21:46:06.930892,3.0,32.0,490.0
2021-12-12-21:46:06.931888,6.0,9.0,491.0
2021-12-12-21:46:06.932884,8.0,3.0,492.0
2021-12-12-21:46:06.933882,8.0,3.0,492.0
2021-12-12-21:46:06.934879,8.0,3.0,492.0
2021-12-12-21:46:06.935878,8.0,3.0,492.0
2021-12-12-21:46:06.936875,16.0,42.0,493.0
2021-12-12-21:46:06.937870,16.0,42.0,493.0
2021-12-12-21:46:06.938835,16.0,42.0,493.0
2021-12-12-21:46:06.939832,6.0,24.0,494.0
2021-12-12-21:46:06.940863,2.0,7.0,495.0
2021-12-12-21:46:06.941860,2.0,7.0,495.0
2021-12-12-21:46:06.942824,2.0,7.0,495.0
2021-12-12-21:46:06.943854,4.0,17.0,496.0
2021-12-12-21:46:06.944853,3.0,27.0,496.0
2021-12-12-21:46:06.945850,3.0,27.0,496.0
2021-12-12-21:46:06.946814,3.0,27.0,496.0
2021-12-12-21:46:06.947845,5.0,6.0,497.0
2021-12-12-21:46:06.948841,6.0,4.0,497.0
2021-12-12-21:46:06.949839,6.0,4.0,497.0
2021-12-12-21:46:06.950837,6.0,4.0,497.0
2021-12-12-21:46:06.951800,12.0,17.0,498.0
2021-12-12-21:46:06.953830,17.0,49.0,497.0
2021-12-12-21:46:06.953830,17.0,49.0,497.0
2021-12-12-21:46:06.954833,17.0,49.0,497.0
2021-12-12-21:46:06.955825,17.0,49.0,497.0
2021-12-12-21:46:06.956822,2.0,16.0,498.0
2021-12-12-21:46:06.957818,2.0,16.0,498.0
2021-12-12-21:46:06.958816,2.0,16.0,498.0
2021-12-12-21:46:06.959813,2.0,16.0,498.0
2021-12-12-21:46:06.960812,6.0,25.0,498.0
2021-12-12-21:46:06.961812,6.0,25.0,498.0
2021-12-12-21:46:06.962807,6.0,25.0,498.0
2021-12-12-21:46:06.963803,6.0,25.0,498.0
2021-12-12-21:46:06.964800,5.0,5.0,498.0
2021-12-12-21:46:06.965801,4.0,14.0,499.0
2021-12-12-21:46:06.966760,4.0,14.0,499.0
2021-12-12-21:46:06.967791,4.0,14.0,499.0
2021-12-12-21:46:06.968754,16.0,40.0,498.0
2021-12-12-21:46:06.969786,16.0,40.0,498.0
2021-12-12-21:46:06.970785,16.0,40.0,498.0
2021-12-12-21:46:06.971781,16.0,40.0,498.0
2021-12-12-21:46:06.972777,4.0,23.0,498.0
2021-12-12-21:46:06.973775,3.0,4.0,498.0
2021-12-12-21:46:06.974772,3.0,4.0,498.0
2021-12-12-21:46:06.975770,3.0,4.0,498.0
2021-12-12-21:46:06.976768,0.0,7.0,498.0
2021-12-12-21:46:06.977765,5.0,19.0,498.0
2021-12-12-21:46:06.978764,5.0,19.0,498.0
2021-12-12-21:46:06.979725,5.0,19.0,498.0
2021-12-12-21:46:06.980756,6.0,13.0,499.0
2021-12-12-21:46:06.981754,6.0,11.0,499.0
2021-12-12-21:46:06.982751,6.0,11.0,499.0
2021-12-12-21:46:06.983715,6.0,11.0,499.0
2021-12-12-21:46:06.984747,7.0,2.0,498.0
2021-12-12-21:46:06.986747,17.0,34.0,499.0
2021-12-12-21:46:06.986747,17.0,34.0,499.0
2021-12-12-21:46:06.987738,17.0,34.0,499.0
2021-12-12-21:46:06.988734,11.0,38.0,499.0
2021-12-12-21:46:06.989698,0.0,14.0,499.0
2021-12-12-21:46:06.990724,0.0,14.0,499.0
2021-12-12-21:46:06.991726,0.0,14.0,499.0
2021-12-12-21:46:06.992725,0.0,14.0,499.0
2021-12-12-21:46:06.993721,2.0,9.0,499.0
2021-12-12-21:46:06.994721,1.0,17.0,499.0
2021-12-12-21:46:06.995717,1.0,17.0,499.0
2021-12-12-21:46:06.996714,1.0,17.0,499.0
2021-12-12-21:46:06.997711,0.0,19.0,499.0
2021-12-12-21:46:06.998709,3.0,10.0,499.0
2021-12-12-21:46:06.999706,3.0,10.0,499.0
2021-12-12-21:46:07.000704,3.0,10.0,499.0
2021-12-12-21:46:07.001698,10.0,2.0,498.0
2021-12-12-21:46:07.002701,16.0,32.0,498.0
2021-12-12-21:46:07.003694,16.0,32.0,498.0
2021-12-12-21:46:07.004692,16.0,32.0,498.0
2021-12-12-21:46:07.005694,12.0,42.0,498.0
2021-12-12-21:46:07.006685,3.0,22.0,498.0
2021-12-12-21:46:07.007683,3.0,22.0,498.0
2021-12-12-21:46:07.008682,3.0,22.0,498.0
2021-12-12-21:46:07.009678,1.0,5.0,498.0
2021-12-12-21:46:07.010680,1.0,14.0,497.0
2021-12-12-21:46:07.011673,1.0,14.0,497.0
2021-12-12-21:46:07.012670,1.0,14.0,497.0
2021-12-12-21:46:07.013669,1.0,28.0,496.0
2021-12-12-21:46:07.014664,2.0,11.0,495.0
2021-12-12-21:46:07.015662,2.0,11.0,495.0
2021-12-12-21:46:07.016627,2.0,11.0,495.0
2021-12-12-21:46:07.017656,5.0,4.0,494.0
2021-12-12-21:46:07.018658,16.0,32.0,493.0
2021-12-12-21:46:07.020616,16.0,32.0,493.0
2021-12-12-21:46:07.020616,16.0,32.0,493.0
2021-12-12-21:46:07.021648,8.0,23.0,489.0
2021-12-12-21:46:07.022643,8.0,23.0,489.0
2021-12-12-21:46:07.023641,8.0,23.0,489.0
2021-12-12-21:46:07.024606,8.0,23.0,489.0
2021-12-12-21:46:07.025635,4.0,8.0,486.0
2021-12-12-21:46:07.026632,3.0,11.0,485.0
2021-12-12-21:46:07.027630,3.0,11.0,485.0
2021-12-12-21:46:07.028627,3.0,11.0,485.0
2021-12-12-21:46:07.029626,7.0,29.0,483.0
2021-12-12-21:46:07.030622,5.0,14.0,480.0
2021-12-12-21:46:07.031619,5.0,14.0,480.0
2021-12-12-21:46:07.032617,5.0,14.0,480.0
2021-12-12-21:46:07.033613,4.0,7.0,479.0
2021-12-12-21:46:07.034611,11.0,7.0,474.0
2021-12-12-21:46:07.035576,11.0,7.0,474.0
2021-12-12-21:46:07.036606,11.0,7.0,474.0
2021-12-12-21:46:07.037604,9.0,26.0,470.0
2021-12-12-21:46:07.038600,7.0,13.0,468.0
2021-12-12-21:46:07.039597,7.0,13.0,468.0
2021-12-12-21:46:07.040596,7.0,13.0,468.0
2021-12-12-21:46:07.041597,7.0,13.0,468.0
2021-12-12-21:46:07.042590,2.0,12.0,465.0
2021-12-12-21:46:07.043588,4.0,17.0,462.0
2021-12-12-21:46:07.044584,4.0,17.0,462.0
2021-12-12-21:46:07.045583,4.0,17.0,462.0
2021-12-12-21:46:07.046548,3.0,22.0,458.0
2021-12-12-21:46:07.047576,4.0,8.0,455.0
2021-12-12-21:46:07.048543,4.0,8.0,455.0
2021-12-12-21:46:07.049572,4.0,8.0,455.0
2021-12-12-21:46:07.050568,9.0,6.0,449.0
2021-12-12-21:46:07.051566,12.0,6.0,448.0
2021-12-12-21:46:07.052563,12.0,6.0,448.0
2021-12-12-21:46:07.053528,12.0,6.0,448.0
2021-12-12-21:46:07.055555,12.0,6.0,448.0
2021-12-12-21:46:07.055555,7.0,24.0,440.0
2021-12-12-21:46:07.056520,7.0,24.0,440.0
2021-12-12-21:46:07.057517,7.0,24.0,440.0
2021-12-12-21:46:07.058547,1.0,3.0,437.0
2021-12-12-21:46:07.059545,2.0,14.0,433.0
2021-12-12-21:46:07.060541,2.0,14.0,433.0
2021-12-12-21:46:07.061508,2.0,14.0,433.0
2021-12-12-21:46:07.062537,3.0,24.0,429.0
2021-12-12-21:46:07.063534,1.0,27.0,425.0
2021-12-12-21:46:07.064532,1.0,27.0,425.0
2021-12-12-21:46:07.065528,1.0,27.0,425.0
2021-12-12-21:46:07.066530,8.0,14.0,420.0
2021-12-12-21:46:07.067524,10.0,9.0,418.0
2021-12-12-21:46:07.068488,10.0,9.0,418.0
2021-12-12-21:46:07.069484,10.0,9.0,418.0
2021-12-12-21:46:07.070516,15.0,43.0,412.0
2021-12-12-21:46:07.071514,9.0,35.0,410.0
2021-12-12-21:46:07.072512,9.0,35.0,410.0
2021-12-12-21:46:07.073509,9.0,35.0,410.0
2021-12-12-21:46:07.074508,9.0,35.0,410.0
2021-12-12-21:46:07.075503,2.0,12.0,406.0
2021-12-12-21:46:07.076502,4.0,15.0,402.0
2021-12-12-21:46:07.077498,4.0,15.0,402.0
2021-12-12-21:46:07.078497,4.0,15.0,402.0
2021-12-12-21:46:07.079493,3.0,17.0,399.0
2021-12-12-21:46:07.080495,2.0,22.0,395.0
2021-12-12-21:46:07.081487,2.0,22.0,395.0
2021-12-12-21:46:07.082487,2.0,22.0,395.0
2021-12-12-21:46:07.083482,3.0,10.0,390.0
2021-12-12-21:46:07.084479,6.0,16.0,388.0
2021-12-12-21:46:07.085443,6.0,16.0,388.0
2021-12-12-21:46:07.086476,6.0,16.0,388.0
2021-12-12-21:46:07.088483,11.0,27.0,386.0
2021-12-12-21:46:07.088483,16.0,46.0,383.0
2021-12-12-21:46:07.089466,12.0,40.0,381.0
2021-12-12-21:46:07.090465,12.0,40.0,381.0
2021-12-12-21:46:07.091483,14.0,0.0,375.0
2021-12-12-21:46:07.092480,14.0,0.0,375.0
2021-12-12-21:46:07.093478,14.0,0.0,375.0
2021-12-12-21:46:07.094419,14.0,0.0,375.0
2021-12-12-21:46:07.095470,3.0,6.0,372.0
2021-12-12-21:46:07.096469,2.0,21.0,369.0
2021-12-12-21:46:07.097468,2.0,21.0,369.0
2021-12-12-21:46:07.098408,2.0,21.0,369.0
2021-12-12-21:46:07.099460,5.0,8.0,365.0
2021-12-12-21:46:07.100456,5.0,3.0,363.0
2021-12-12-21:46:07.101454,5.0,3.0,363.0
2021-12-12-21:46:07.102397,5.0,3.0,363.0
2021-12-12-21:46:07.103450,15.0,42.0,358.0
2021-12-12-21:46:07.104426,13.0,45.0,357.0
2021-12-12-21:46:07.105424,13.0,45.0,357.0
2021-12-12-21:46:07.106386,13.0,45.0,357.0
2021-12-12-21:46:07.107440,1.0,6.0,352.0
2021-12-12-21:46:07.108436,3.0,2.0,351.0
2021-12-12-21:46:07.109434,3.0,2.0,351.0
2021-12-12-21:46:07.110433,3.0,2.0,351.0
2021-12-12-21:46:07.111428,3.0,2.0,351.0
2021-12-12-21:46:07.112427,4.0,35.0,346.0
2021-12-12-21:46:07.113425,4.0,35.0,346.0
2021-12-12-21:46:07.114420,4.0,35.0,346.0
2021-12-12-21:46:07.115418,4.0,35.0,346.0
2021-12-12-21:46:07.116415,10.0,6.0,341.0
2021-12-12-21:46:07.117391,9.0,7.0,340.0
2021-12-12-21:46:07.118388,9.0,7.0,340.0
2021-12-12-21:46:07.119385,9.0,7.0,340.0
2021-12-12-21:46:07.120406,17.0,54.0,336.0
2021-12-12-21:46:07.122379,15.0,68.0,334.0
2021-12-12-21:46:07.122379,15.0,68.0,334.0
2021-12-12-21:46:07.123405,15.0,68.0,334.0
2021-12-12-21:46:07.124338,3.0,11.0,328.0
2021-12-12-21:46:07.125391,3.0,11.0,328.0
2021-12-12-21:46:07.126390,3.0,11.0,328.0
2021-12-12-21:46:07.127386,3.0,11.0,328.0
2021-12-12-21:46:07.128384,2.0,18.0,324.0
2021-12-12-21:46:07.129382,2.0,30.0,321.0
2021-12-12-21:46:07.130377,2.0,30.0,321.0
2021-12-12-21:46:07.131320,2.0,30.0,321.0
2021-12-12-21:46:07.132373,6.0,14.0,319.0
2021-12-12-21:46:07.133370,8.0,3.0,316.0
2021-12-12-21:46:07.134369,8.0,3.0,316.0
2021-12-12-21:46:07.135309,8.0,3.0,316.0
2021-12-12-21:46:07.136363,12.0,15.0,313.0
2021-12-12-21:46:07.137361,15.0,47.0,310.0
2021-12-12-21:46:07.138336,15.0,47.0,310.0
2021-12-12-21:46:07.139298,15.0,47.0,310.0
2021-12-12-21:46:07.140351,5.0,13.0,308.0
2021-12-12-21:46:07.141348,6.0,6.0,304.0
2021-12-12-21:46:07.142353,6.0,6.0,304.0
2021-12-12-21:46:07.143343,6.0,6.0,304.0
2021-12-12-21:46:07.144342,0.0,11.0,302.0
2021-12-12-21:46:07.145340,3.0,18.0,300.0
2021-12-12-21:46:07.146335,3.0,18.0,300.0
2021-12-12-21:46:07.147333,3.0,18.0,300.0
2021-12-12-21:46:07.148331,2.0,19.0,298.0
2021-12-12-21:46:07.149327,7.0,11.0,295.0
2021-12-12-21:46:07.150326,7.0,11.0,295.0
2021-12-12-21:46:07.151321,7.0,11.0,295.0
2021-12-12-21:46:07.152320,7.0,11.0,295.0
2021-12-12-21:46:07.153318,15.0,24.0,291.0
2021-12-12-21:46:07.154314,12.0,34.0,288.0
2021-12-12-21:46:07.155312,12.0,34.0,288.0
2021-12-12-21:46:07.157285,12.0,34.0,288.0
2021-12-12-21:46:07.157285,6.0,19.0,287.0
2021-12-12-21:46:07.158248,2.0,2.0,284.0
2021-12-12-21:46:07.159278,2.0,2.0,284.0
2021-12-12-21:46:07.160277,2.0,2.0,284.0
2021-12-12-21:46:07.161302,4.0,26.0,282.0
2021-12-12-21:46:07.162273,6.0,35.0,280.0
2021-12-12-21:46:07.163268,6.0,35.0,280.0
2021-12-12-21:46:07.164266,6.0,35.0,280.0
2021-12-12-21:46:07.165284,6.0,18.0,279.0
2021-12-12-21:46:07.166284,7.0,0.0,277.0
2021-12-12-21:46:07.167279,7.0,0.0,277.0
2021-12-12-21:46:07.168221,7.0,0.0,277.0
2021-12-12-21:46:07.169275,15.0,18.0,275.0
2021-12-12-21:46:07.170271,16.0,53.0,273.0
2021-12-12-21:46:07.171247,16.0,53.0,273.0
2021-12-12-21:46:07.172210,16.0,53.0,273.0
2021-12-12-21:46:07.173221,4.0,33.0,272.0
2021-12-12-21:46:07.174226,0.0,3.0,271.0
2021-12-12-21:46:07.175258,0.0,3.0,271.0
2021-12-12-21:46:07.176201,0.0,3.0,271.0
2021-12-12-21:46:07.177254,2.0,11.0,269.0
2021-12-12-21:46:07.178250,1.0,35.0,268.0
2021-12-12-21:46:07.179248,1.0,35.0,268.0
2021-12-12-21:46:07.180244,1.0,35.0,268.0
2021-12-12-21:46:07.181246,11.0,26.0,265.0
2021-12-12-21:46:07.182217,10.0,14.0,265.0
2021-12-12-21:46:07.183214,10.0,14.0,265.0
2021-12-12-21:46:07.184213,10.0,14.0,265.0
2021-12-12-21:46:07.185185,9.0,5.0,264.0
2021-12-12-21:46:07.186229,16.0,45.0,262.0
2021-12-12-21:46:07.187204,16.0,45.0,262.0
2021-12-12-21:46:07.188201,16.0,45.0,262.0
2021-12-12-21:46:07.190196,16.0,45.0,262.0
2021-12-12-21:46:07.190196,3.0,12.0,259.0
2021-12-12-21:46:07.191187,3.0,12.0,259.0
2021-12-12-21:46:07.192192,3.0,12.0,259.0
2021-12-12-21:46:07.193188,3.0,12.0,259.0
2021-12-12-21:46:07.194207,1.0,13.0,258.0
2021-12-12-21:46:07.195183,0.0,26.0,257.0
2021-12-12-21:46:07.196180,0.0,26.0,257.0
2021-12-12-21:46:07.197178,0.0,26.0,257.0
2021-12-12-21:46:07.198198,1.0,22.0,255.0
2021-12-12-21:46:07.199194,6.0,12.0,254.0
2021-12-12-21:46:07.200192,6.0,12.0,254.0
2021-12-12-21:46:07.201190,6.0,12.0,254.0
2021-12-12-21:46:07.202163,9.0,2.0,254.0
2021-12-12-21:46:07.203185,19.0,26.0,252.0
2021-12-12-21:46:07.204185,19.0,26.0,252.0
2021-12-12-21:46:07.205179,19.0,26.0,252.0
2021-12-12-21:46:07.206153,7.0,36.0,250.0
2021-12-12-21:46:07.207174,0.0,11.0,249.0
2021-12-12-21:46:07.208149,0.0,11.0,249.0
2021-12-12-21:46:07.209117,0.0,11.0,249.0
2021-12-12-21:46:07.210145,3.0,4.0,247.0
2021-12-12-21:46:07.211136,4.0,6.0,246.0
2021-12-12-21:46:07.212132,4.0,6.0,246.0
2021-12-12-21:46:07.213101,4.0,6.0,246.0
2021-12-12-21:46:07.214130,1.0,10.0,245.0
2021-12-12-21:46:07.215152,5.0,15.0,243.0
2021-12-12-21:46:07.216132,5.0,15.0,243.0
2021-12-12-21:46:07.217133,5.0,15.0,243.0
2021-12-12-21:46:07.218121,10.0,1.0,242.0
2021-12-12-21:46:07.219100,16.0,34.0,241.0
2021-12-12-21:46:07.220145,16.0,34.0,241.0
2021-12-12-21:46:07.221106,16.0,34.0,241.0
2021-12-12-21:46:07.222111,16.0,34.0,241.0
2021-12-12-21:46:07.223081,15.0,39.0,240.0
2021-12-12-21:46:07.224094,11.0,32.0,239.0
2021-12-12-21:46:07.226094,2.0,13.0,238.0
2021-12-12-21:46:07.227064,2.0,2.0,237.0
2021-12-12-21:46:07.227064,2.0,17.0,236.0
2021-12-12-21:46:07.228118,2.0,21.0,235.0
2021-12-12-21:46:07.229115,2.0,21.0,235.0
2021-12-12-21:46:07.230113,2.0,21.0,235.0
2021-12-12-21:46:07.231108,3.0,26.0,235.0
2021-12-12-21:46:07.232107,7.0,0.0,233.0
2021-12-12-21:46:07.233105,7.0,0.0,233.0
2021-12-12-21:46:07.234080,7.0,0.0,233.0
2021-12-12-21:46:07.235098,9.0,8.0,232.0
2021-12-12-21:46:07.236095,15.0,35.0,231.0
2021-12-12-21:46:07.237092,15.0,35.0,231.0
2021-12-12-21:46:07.238092,15.0,35.0,231.0
2021-12-12-21:46:07.239087,12.0,39.0,231.0
2021-12-12-21:46:07.240086,4.0,15.0,229.0
2021-12-12-21:46:07.241083,4.0,15.0,229.0
2021-12-12-21:46:07.242059,4.0,15.0,229.0
2021-12-12-21:46:07.243077,0.0,8.0,229.0
2021-12-12-21:46:07.244080,1.0,20.0,228.0
2021-12-12-21:46:07.245071,1.0,20.0,228.0
2021-12-12-21:46:07.246013,1.0,20.0,228.0
2021-12-12-21:46:07.247069,0.0,30.0,227.0
2021-12-12-21:46:07.248042,5.0,14.0,226.0
2021-12-12-21:46:07.249038,5.0,14.0,226.0
2021-12-12-21:46:07.250002,5.0,14.0,226.0
2021-12-12-21:46:07.251056,7.0,1.0,226.0
2021-12-12-21:46:07.251997,15.0,21.0,226.0
2021-12-12-21:46:07.253030,15.0,21.0,226.0
2021-12-12-21:46:07.254006,15.0,21.0,226.0
2021-12-12-21:46:07.255044,12.0,41.0,226.0
2021-12-12-21:46:07.256043,5.0,16.0,225.0
2021-12-12-21:46:07.258040,5.0,16.0,225.0
2021-12-12-21:46:07.258040,2.0,14.0,225.0
2021-12-12-21:46:07.259034,1.0,19.0,224.0
2021-12-12-21:46:07.260031,1.0,19.0,224.0
2021-12-12-21:46:07.261028,1.0,19.0,224.0
2021-12-12-21:46:07.262027,1.0,19.0,224.0
2021-12-12-21:46:07.263023,1.0,19.0,224.0
2021-12-12-21:46:07.264021,7.0,25.0,224.0
2021-12-12-21:46:07.265020,7.0,25.0,224.0
2021-12-12-21:46:07.266015,7.0,25.0,224.0
2021-12-12-21:46:07.267013,7.0,25.0,224.0
2021-12-12-21:46:07.268009,8.0,6.0,224.0
2021-12-12-21:46:07.269007,12.0,11.0,224.0
2021-12-12-21:46:07.270006,12.0,11.0,224.0
2021-12-12-21:46:07.271001,12.0,11.0,224.0
2021-12-12-21:46:07.272000,12.0,41.0,223.0
2021-12-12-21:46:07.272998,6.0,35.0,223.0
2021-12-12-21:46:07.273938,6.0,35.0,223.0
2021-12-12-21:46:07.274994,6.0,35.0,223.0
2021-12-12-21:46:07.275988,1.0,10.0,223.0
2021-12-12-21:46:07.276985,1.0,2.0,223.0
2021-12-12-21:46:07.277985,1.0,2.0,223.0
2021-12-12-21:46:07.278980,1.0,2.0,223.0
2021-12-12-21:46:07.279979,0.0,18.0,223.0
2021-12-12-21:46:07.280977,2.0,19.0,223.0
2021-12-12-21:46:07.281952,2.0,19.0,223.0
2021-12-12-21:46:07.282914,2.0,19.0,223.0
2021-12-12-21:46:07.283967,6.0,11.0,222.0
2021-12-12-21:46:07.284964,8.0,1.0,223.0
2021-12-12-21:46:07.285950,8.0,1.0,223.0
2021-12-12-21:46:07.286903,8.0,1.0,223.0
2021-12-12-21:46:07.287957,14.0,29.0,223.0
2021-12-12-21:46:07.288955,9.0,20.0,223.0
2021-12-12-21:46:07.289952,9.0,20.0,223.0
2021-12-12-21:46:07.290892,9.0,20.0,223.0
2021-12-12-21:46:07.292942,9.0,20.0,223.0
2021-12-12-21:46:07.292942,2.0,10.0,223.0
2021-12-12-21:46:07.293942,2.0,10.0,223.0
2021-12-12-21:46:07.294938,2.0,10.0,223.0
2021-12-12-21:46:07.295936,6.0,27.0,223.0
2021-12-12-21:46:07.296934,5.0,28.0,223.0
2021-12-12-21:46:07.297890,5.0,28.0,223.0
2021-12-12-21:46:07.298873,5.0,28.0,223.0
2021-12-12-21:46:07.299870,5.0,28.0,223.0
2021-12-12-21:46:07.300867,9.0,9.0,224.0
2021-12-12-21:46:07.301864,9.0,9.0,224.0
2021-12-12-21:46:07.302861,9.0,9.0,224.0
2021-12-12-21:46:07.303859,9.0,9.0,224.0
2021-12-12-21:46:07.304856,17.0,46.0,224.0
2021-12-12-21:46:07.305853,6.0,48.0,224.0
2021-12-12-21:46:07.306851,6.0,48.0,224.0
2021-12-12-21:46:07.307848,2.0,14.0,225.0
2021-12-12-21:46:07.308845,2.0,14.0,225.0
2021-12-12-21:46:07.309843,2.0,14.0,225.0
2021-12-12-21:46:07.310840,2.0,14.0,225.0
2021-12-12-21:46:07.311837,2.0,14.0,225.0
2021-12-12-21:46:07.312835,1.0,23.0,226.0
2021-12-12-21:46:07.313832,2.0,24.0,227.0
2021-12-12-21:46:07.314829,2.0,24.0,227.0
2021-12-12-21:46:07.315827,2.0,24.0,227.0
2021-12-12-21:46:07.316824,7.0,4.0,230.0
2021-12-12-21:46:07.317821,10.0,2.0,230.0
2021-12-12-21:46:07.318819,10.0,2.0,230.0
2021-12-12-21:46:07.319815,10.0,2.0,230.0
2021-12-12-21:46:07.320814,16.0,41.0,232.0
2021-12-12-21:46:07.321810,10.0,32.0,234.0
2021-12-12-21:46:07.322808,10.0,32.0,234.0
2021-12-12-21:46:07.323806,10.0,32.0,234.0
2021-12-12-21:46:07.324803,1.0,0.0,235.0
2021-12-12-21:46:07.326798,1.0,4.0,236.0
2021-12-12-21:46:07.326798,1.0,4.0,236.0
2021-12-12-21:46:07.327795,1.0,4.0,236.0
2021-12-12-21:46:07.328790,0.0,14.0,238.0
2021-12-12-21:46:07.329789,2.0,22.0,240.0
2021-12-12-21:46:07.330787,2.0,22.0,240.0
2021-12-12-21:46:07.331784,2.0,22.0,240.0
2021-12-12-21:46:07.332781,7.0,4.0,242.0
2021-12-12-21:46:07.333779,10.0,1.0,243.0
2021-12-12-21:46:07.334776,10.0,1.0,243.0
2021-12-12-21:46:07.335774,10.0,1.0,243.0
2021-12-12-21:46:07.336771,8.0,6.0,245.0
2021-12-12-21:46:07.337768,10.0,35.0,247.0
2021-12-12-21:46:07.338765,10.0,35.0,247.0
2021-12-12-21:46:07.339763,10.0,35.0,247.0
2021-12-12-21:46:07.340760,10.0,35.0,247.0
2021-12-12-21:46:07.341757,2.0,10.0,251.0
2021-12-12-21:46:07.342755,2.0,10.0,251.0
2021-12-12-21:46:07.343752,2.0,10.0,251.0
2021-12-12-21:46:07.344749,2.0,10.0,251.0
2021-12-12-21:46:07.345747,1.0,36.0,254.0
2021-12-12-21:46:07.346744,1.0,37.0,256.0
2021-12-12-21:46:07.347741,1.0,37.0,256.0
2021-12-12-21:46:07.348739,1.0,37.0,256.0
2021-12-12-21:46:07.349736,6.0,10.0,259.0
2021-12-12-21:46:07.350733,8.0,14.0,261.0
2021-12-12-21:46:07.351731,8.0,14.0,261.0
2021-12-12-21:46:07.352728,8.0,14.0,261.0
2021-12-12-21:46:07.353726,16.0,64.0,264.0
2021-12-12-21:46:07.354723,14.0,71.0,265.0
2021-12-12-21:46:07.355720,14.0,71.0,265.0
2021-12-12-21:46:07.356718,14.0,71.0,265.0
2021-12-12-21:46:07.357715,1.0,2.0,268.0
2021-12-12-21:46:07.359709,1.0,7.0,269.0
2021-12-12-21:46:07.359709,1.0,7.0,269.0
2021-12-12-21:46:07.360707,1.0,7.0,269.0
2021-12-12-21:46:07.361704,1.0,14.0,272.0
2021-12-12-21:46:07.362701,0.0,26.0,274.0
2021-12-12-21:46:07.363699,0.0,26.0,274.0
2021-12-12-21:46:07.364696,0.0,26.0,274.0
2021-12-12-21:46:07.365693,6.0,7.0,277.0
2021-12-12-21:46:07.366691,7.0,2.0,279.0
2021-12-12-21:46:07.367688,7.0,2.0,279.0
2021-12-12-21:46:07.368685,7.0,2.0,279.0
2021-12-12-21:46:07.369683,14.0,36.0,283.0
2021-12-12-21:46:07.370680,14.0,36.0,283.0
2021-12-12-21:46:07.371677,14.0,36.0,283.0
2021-12-12-21:46:07.372675,14.0,36.0,283.0
2021-12-12-21:46:07.373672,14.0,36.0,283.0
2021-12-12-21:46:07.374669,2.0,3.0,289.0
2021-12-12-21:46:07.375666,2.0,3.0,289.0
2021-12-12-21:46:07.376664,2.0,3.0,289.0
2021-12-12-21:46:07.377661,2.0,3.0,289.0
2021-12-12-21:46:07.378659,4.0,22.0,294.0
2021-12-12-21:46:07.379656,4.0,22.0,294.0
2021-12-12-21:46:07.380653,4.0,22.0,294.0
2021-12-12-21:46:07.381651,4.0,22.0,294.0
2021-12-12-21:46:07.382648,4.0,15.0,296.0
2021-12-12-21:46:07.383645,7.0,4.0,300.0
2021-12-12-21:46:07.384643,7.0,4.0,300.0
2021-12-12-21:46:07.385640,7.0,4.0,300.0
2021-12-12-21:46:07.386638,14.0,15.0,302.0
2021-12-12-21:46:07.387635,12.0,21.0,305.0
2021-12-12-21:46:07.388632,12.0,21.0,305.0
2021-12-12-21:46:07.389629,12.0,21.0,305.0
2021-12-12-21:46:07.390627,2.0,3.0,309.0
2021-12-12-21:46:07.391624,1.0,4.0,310.0
2021-12-12-21:46:07.393619,1.0,4.0,310.0
2021-12-12-21:46:07.393619,1.0,4.0,310.0
2021-12-12-21:46:07.394616,4.0,9.0,315.0
2021-12-12-21:46:07.395613,4.0,9.0,315.0
2021-12-12-21:46:07.396610,4.0,9.0,315.0
2021-12-12-21:46:07.397608,4.0,9.0,315.0
2021-12-12-21:46:07.398605,7.0,1.0,320.0
2021-12-12-21:46:07.399603,7.0,5.0,321.0
2021-12-12-21:46:07.400600,7.0,5.0,321.0
2021-12-12-21:46:07.401597,7.0,5.0,321.0
2021-12-12-21:46:07.402595,16.0,30.0,325.0
2021-12-12-21:46:07.403592,14.0,36.0,327.0
2021-12-12-21:46:07.404590,14.0,36.0,327.0
2021-12-12-21:46:07.405585,14.0,36.0,327.0
2021-12-12-21:46:07.406584,2.0,8.0,331.0
2021-12-12-21:46:07.407581,1.0,2.0,333.0
2021-12-12-21:46:07.408579,1.0,2.0,333.0
2021-12-12-21:46:07.409576,1.0,2.0,333.0
2021-12-12-21:46:07.410573,1.0,7.0,334.0
2021-12-12-21:46:07.411571,2.0,27.0,338.0
2021-12-12-21:46:07.412568,2.0,27.0,338.0
2021-12-12-21:46:07.413565,2.0,27.0,338.0
2021-12-12-21:46:07.414562,2.0,27.0,338.0
2021-12-12-21:46:07.415560,7.0,10.0,342.0
2021-12-12-21:46:07.416557,8.0,4.0,344.0
2021-12-12-21:46:07.417554,8.0,4.0,344.0
2021-12-12-21:46:07.418552,8.0,4.0,344.0
2021-12-12-21:46:07.419549,15.0,35.0,348.0
2021-12-12-21:46:07.420547,15.0,40.0,350.0
2021-12-12-21:46:07.421544,15.0,40.0,350.0
2021-12-12-21:46:07.422541,15.0,40.0,350.0
2021-12-12-21:46:07.423539,5.0,23.0,352.0
2021-12-12-21:46:07.424536,1.0,1.0,356.0
2021-12-12-21:46:07.425533,1.0,1.0,356.0
2021-12-12-21:46:07.427528,1.0,1.0,356.0
2021-12-12-21:46:07.427528,1.0,17.0,360.0
2021-12-12-21:46:07.428525,0.0,23.0,361.0
2021-12-12-21:46:07.429523,0.0,23.0,361.0
2021-12-12-21:46:07.430520,0.0,23.0,361.0
2021-12-12-21:46:07.431517,6.0,9.0,365.0
2021-12-12-21:46:07.432515,6.0,5.0,367.0
2021-12-12-21:46:07.433512,6.0,5.0,367.0
2021-12-12-21:46:07.434509,6.0,5.0,367.0
2021-12-12-21:46:07.435507,11.0,2.0,370.0
2021-12-12-21:46:07.436504,14.0,36.0,372.0
2021-12-12-21:46:07.437501,14.0,36.0,372.0
2021-12-12-21:46:07.438499,14.0,36.0,372.0
2021-12-12-21:46:07.439496,7.0,29.0,375.0
2021-12-12-21:46:07.440493,1.0,7.0,378.0
2021-12-12-21:46:07.441491,1.0,7.0,378.0
2021-12-12-21:46:07.442488,1.0,7.0,378.0
2021-12-12-21:46:07.443485,2.0,17.0,384.0
2021-12-12-21:46:07.444483,2.0,17.0,384.0
2021-12-12-21:46:07.445480,2.0,17.0,384.0
2021-12-12-21:46:07.446476,2.0,17.0,384.0
2021-12-12-21:46:07.447475,4.0,11.0,388.0
2021-12-12-21:46:07.448472,8.0,8.0,389.0
2021-12-12-21:46:07.449469,8.0,8.0,389.0
2021-12-12-21:46:07.450466,8.0,8.0,389.0
2021-12-12-21:46:07.451464,8.0,8.0,389.0
2021-12-12-21:46:07.452461,16.0,35.0,395.0
2021-12-12-21:46:07.453459,16.0,35.0,395.0
2021-12-12-21:46:07.454457,16.0,35.0,395.0
2021-12-12-21:46:07.455453,16.0,35.0,395.0
2021-12-12-21:46:07.456450,8.0,32.0,398.0
2021-12-12-21:46:07.457448,0.0,8.0,401.0
2021-12-12-21:46:07.458445,0.0,8.0,401.0
2021-12-12-21:46:07.459442,0.0,8.0,401.0
2021-12-12-21:46:07.460440,1.0,13.0,405.0
2021-12-12-21:46:07.462435,1.0,17.0,407.0
2021-12-12-21:46:07.462435,1.0,17.0,407.0
2021-12-12-21:46:07.463432,1.0,17.0,407.0
2021-12-12-21:46:07.464429,6.0,8.0,412.0
2021-12-12-21:46:07.465426,6.0,8.0,412.0
2021-12-12-21:46:07.466423,6.0,8.0,412.0
2021-12-12-21:46:07.467421,6.0,8.0,412.0
2021-12-12-21:46:07.468419,8.0,5.0,415.0
2021-12-12-21:46:07.469416,15.0,32.0,417.0
2021-12-12-21:46:07.470413,15.0,32.0,417.0
2021-12-12-21:46:07.471410,15.0,32.0,417.0
2021-12-12-21:46:07.472408,8.0,23.0,421.0
2021-12-12-21:46:07.473405,2.0,14.0,423.0
2021-12-12-21:46:07.474403,2.0,14.0,423.0
2021-12-12-21:46:07.475400,2.0,14.0,423.0
2021-12-12-21:46:07.476397,2.0,9.0,426.0
2021-12-12-21:46:07.477394,3.0,11.0,428.0
2021-12-12-21:46:07.478391,3.0,11.0,428.0
2021-12-12-21:46:07.479389,3.0,11.0,428.0
2021-12-12-21:46:07.480386,1.0,22.0,430.0
2021-12-12-21:46:07.481384,7.0,8.0,433.0
2021-12-12-21:46:07.482381,7.0,8.0,433.0
2021-12-12-21:46:07.483379,7.0,8.0,433.0
2021-12-12-21:46:07.484376,14.0,27.0,439.0
2021-12-12-21:46:07.485373,14.0,27.0,439.0
2021-12-12-21:46:07.486371,14.0,27.0,439.0
2021-12-12-21:46:07.487368,14.0,27.0,439.0
2021-12-12-21:46:07.488365,14.0,27.0,439.0
2021-12-12-21:46:07.489362,5.0,17.0,444.0
2021-12-12-21:46:07.490360,5.0,17.0,444.0
2021-12-12-21:46:07.491357,5.0,17.0,444.0
2021-12-12-21:46:07.492354,5.0,17.0,444.0
2021-12-12-21:46:07.493352,4.0,5.0,447.0
2021-12-12-21:46:07.495346,1.0,14.0,449.0
2021-12-12-21:46:07.495346,1.0,14.0,449.0
2021-12-12-21:46:07.496344,4.0,6.0,455.0
2021-12-12-21:46:07.497341,4.0,6.0,455.0
2021-12-12-21:46:07.498338,4.0,6.0,455.0
2021-12-12-21:46:07.499335,4.0,6.0,455.0
2021-12-12-21:46:07.500333,4.0,6.0,455.0
2021-12-12-21:46:07.501330,6.0,1.0,458.0
2021-12-12-21:46:07.502328,10.0,16.0,461.0
2021-12-12-21:46:07.503325,10.0,16.0,461.0
2021-12-12-21:46:07.504322,10.0,16.0,461.0
2021-12-12-21:46:07.505320,9.0,32.0,465.0
2021-12-12-21:46:07.506319,6.0,21.0,467.0
2021-12-12-21:46:07.507334,6.0,21.0,467.0
2021-12-12-21:46:07.508312,6.0,21.0,467.0
2021-12-12-21:46:07.509309,2.0,4.0,469.0
2021-12-12-21:46:07.510306,1.0,13.0,472.0
2021-12-12-21:46:07.511303,1.0,13.0,472.0
2021-12-12-21:46:07.512301,1.0,13.0,472.0
2021-12-12-21:46:07.513297,2.0,20.0,473.0
2021-12-12-21:46:07.514294,4.0,16.0,477.0
2021-12-12-21:46:07.515292,4.0,16.0,477.0
2021-12-12-21:46:07.516289,4.0,16.0,477.0
2021-12-12-21:46:07.517286,7.0,6.0,479.0
2021-12-12-21:46:07.518283,13.0,8.0,481.0
2021-12-12-21:46:07.519281,13.0,8.0,481.0
2021-12-12-21:46:07.520278,13.0,8.0,481.0
2021-12-12-21:46:07.521275,11.0,36.0,485.0
2021-12-12-21:46:07.522273,7.0,29.0,486.0
2021-12-12-21:46:07.523270,7.0,29.0,486.0
2021-12-12-21:46:07.524267,7.0,29.0,486.0
2021-12-12-21:46:07.525265,0.0,1.0,488.0
2021-12-12-21:46:07.526262,1.0,11.0,490.0
2021-12-12-21:46:07.527259,1.0,11.0,490.0
2021-12-12-21:46:07.528257,1.0,11.0,490.0
2021-12-12-21:46:07.530251,2.0,14.0,492.0
2021-12-12-21:46:07.530251,2.0,16.0,494.0
2021-12-12-21:46:07.531249,2.0,16.0,494.0
2021-12-12-21:46:07.532246,2.0,16.0,494.0
2021-12-12-21:46:07.533243,2.0,16.0,494.0
2021-12-12-21:46:07.534241,10.0,6.0,496.0
2021-12-12-21:46:07.535238,9.0,9.0,497.0
2021-12-12-21:46:07.536235,9.0,9.0,497.0
2021-12-12-21:46:07.537233,9.0,9.0,497.0
2021-12-12-21:46:07.538230,13.0,38.0,500.0
2021-12-12-21:46:07.539227,6.0,31.0,500.0
