2021-12-12-21:47:01.066729,2.0,17.0,354.0
2021-12-12-21:47:01.066729,1.0,8.0,354.0
2021-12-12-21:47:01.067726,2.0,37.0,355.0
2021-12-12-21:47:01.068723,2.0,37.0,355.0
2021-12-12-21:47:01.069721,6.0,3.0,355.0
2021-12-12-21:47:01.070718,9.0,5.0,355.0
2021-12-12-21:47:01.071715,16.0,20.0,355.0
2021-12-12-21:47:01.073710,16.0,48.0,355.0
2021-12-12-21:47:01.073710,1.0,24.0,355.0
2021-12-12-21:47:01.074708,1.0,10.0,355.0
2021-12-12-21:47:01.075704,1.0,19.0,355.0
2021-12-12-21:47:01.076702,3.0,33.0,355.0
2021-12-12-21:47:01.077699,7.0,26.0,355.0
2021-12-12-21:47:01.078697,7.0,16.0,355.0
2021-12-12-21:47:01.079694,8.0,9.0,355.0
2021-12-12-21:47:01.081689,11.0,5.0,355.0
2021-12-12-21:47:01.081689,16.0,30.0,355.0
2021-12-12-21:47:01.082686,10.0,41.0,355.0
2021-12-12-21:47:01.083684,0.0,24.0,355.0
2021-12-12-21:47:01.084681,1.0,6.0,356.0
2021-12-12-21:47:01.085678,1.0,6.0,356.0
2021-12-12-21:47:01.086676,5.0,21.0,355.0
2021-12-12-21:47:01.087673,8.0,8.0,356.0
2021-12-12-21:47:01.088670,17.0,33.0,356.0
2021-12-12-21:47:01.089668,3.0,7.0,355.0
2021-12-12-21:47:01.090665,1.0,20.0,356.0
2021-12-12-21:47:01.091662,10.0,16.0,356.0
2021-12-12-21:47:01.092659,5.0,22.0,356.0
2021-12-12-21:47:01.093657,11.0,1.0,356.0
2021-12-12-21:47:01.094654,1.0,13.0,356.0
2021-12-12-21:47:01.095652,5.0,14.0,356.0
2021-12-12-21:47:01.096667,8.0,17.0,356.0
2021-12-12-21:47:01.097646,7.0,5.0,356.0
2021-12-12-21:47:01.098644,2.0,23.0,356.0
2021-12-12-21:47:01.099641,0.0,19.0,356.0
2021-12-12-21:47:01.100638,9.0,2.0,356.0
2021-12-12-21:47:01.101636,11.0,39.0,357.0
2021-12-12-21:47:01.102633,0.0,18.0,356.0
2021-12-12-21:47:01.103630,9.0,8.0,356.0
2021-12-12-21:47:01.104628,12.0,39.0,356.0
2021-12-12-21:47:01.105625,4.0,2.0,356.0
2021-12-12-21:47:01.106622,5.0,37.0,356.0
2021-12-12-21:47:01.107619,17.0,31.0,356.0
2021-12-12-21:47:01.108617,0.0,15.0,356.0
2021-12-12-21:47:01.109614,3.0,4.0,356.0
2021-12-12-21:47:01.110612,17.0,5.0,356.0
2021-12-12-21:47:01.111609,0.0,2.0,356.0
2021-12-12-21:47:01.113604,2.0,10.0,356.0
2021-12-12-21:47:01.113604,11.0,2.0,356.0
2021-12-12-21:47:01.114601,1.0,4.0,356.0
2021-12-12-21:47:01.115598,7.0,15.0,356.0
2021-12-12-21:47:01.116595,4.0,6.0,357.0
2021-12-12-21:47:01.117593,15.0,36.0,356.0
2021-12-12-21:47:01.118590,3.0,13.0,356.0
2021-12-12-21:47:01.119587,2.0,23.0,356.0
2021-12-12-21:47:01.120585,2.0,23.0,356.0
2021-12-12-21:47:01.121583,1.0,32.0,356.0
2021-12-12-21:47:01.122579,3.0,30.0,356.0
2021-12-12-21:47:01.123577,3.0,14.0,356.0
2021-12-12-21:47:01.124574,11.0,12.0,356.0
2021-12-12-21:47:01.125572,4.0,23.0,356.0
2021-12-12-21:47:01.126569,0.0,17.0,356.0
2021-12-12-21:47:01.127566,6.0,21.0,356.0
2021-12-12-21:47:01.128563,13.0,31.0,357.0
2021-12-12-21:47:01.129561,5.0,8.0,356.0
2021-12-12-21:47:01.130559,1.0,18.0,356.0
2021-12-12-21:47:01.131556,7.0,22.0,356.0
2021-12-12-21:47:01.132554,1.0,30.0,356.0
2021-12-12-21:47:01.133552,7.0,6.0,356.0
2021-12-12-21:47:01.134547,15.0,17.0,356.0
2021-12-12-21:47:01.135547,12.0,22.0,356.0
2021-12-12-21:47:01.136575,4.0,13.0,356.0
2021-12-12-21:47:01.137540,2.0,19.0,356.0
2021-12-12-21:47:01.138571,3.0,21.0,356.0
2021-12-12-21:47:01.139534,14.0,9.0,356.0
2021-12-12-21:47:01.140532,0.0,8.0,357.0
2021-12-12-21:47:01.141564,1.0,22.0,356.0
2021-12-12-21:47:01.142527,9.0,1.0,356.0
2021-12-12-21:47:01.143560,13.0,32.0,356.0
2021-12-12-21:47:01.144522,0.0,2.0,356.0
2021-12-12-21:47:01.146552,1.0,23.0,356.0
2021-12-12-21:47:01.147513,3.0,4.0,357.0
2021-12-12-21:47:01.147513,14.0,39.0,356.0
2021-12-12-21:47:01.148511,14.0,39.0,356.0
2021-12-12-21:47:01.149509,7.0,24.0,356.0
2021-12-12-21:47:01.150534,1.0,7.0,356.0
2021-12-12-21:47:01.151502,1.0,7.0,356.0
2021-12-12-21:47:01.152500,1.0,7.0,356.0
2021-12-12-21:47:01.153531,3.0,20.0,356.0
2021-12-12-21:47:01.154494,2.0,36.0,356.0
2021-12-12-21:47:01.155492,2.0,36.0,356.0
2021-12-12-21:47:01.156488,2.0,36.0,356.0
2021-12-12-21:47:01.157486,6.0,23.0,356.0
2021-12-12-21:47:01.158483,8.0,20.0,356.0
2021-12-12-21:47:01.159481,8.0,20.0,356.0
2021-12-12-21:47:01.160478,8.0,20.0,356.0
2021-12-12-21:47:01.161475,12.0,43.0,356.0
2021-12-12-21:47:01.162473,12.0,43.0,356.0
2021-12-12-21:47:01.163470,12.0,43.0,356.0
2021-12-12-21:47:01.164467,12.0,43.0,356.0
2021-12-12-21:47:01.165465,12.0,43.0,356.0
2021-12-12-21:47:01.166462,13.0,41.0,356.0
2021-12-12-21:47:01.167459,2.0,22.0,356.0
2021-12-12-21:47:01.168457,2.0,22.0,356.0
2021-12-12-21:47:01.169454,2.0,22.0,356.0
2021-12-12-21:47:01.170451,2.0,13.0,356.0
2021-12-12-21:47:01.171448,1.0,21.0,356.0
2021-12-12-21:47:01.172446,1.0,21.0,356.0
2021-12-12-21:47:01.173443,1.0,21.0,356.0
2021-12-12-21:47:01.174440,7.0,25.0,356.0
2021-12-12-21:47:01.175438,8.0,20.0,356.0
2021-12-12-21:47:01.176435,8.0,20.0,356.0
2021-12-12-21:47:01.177432,8.0,20.0,356.0
2021-12-12-21:47:01.178430,7.0,8.0,356.0
2021-12-12-21:47:01.179427,15.0,41.0,356.0
2021-12-12-21:47:01.181422,15.0,41.0,356.0
2021-12-12-21:47:01.182423,15.0,41.0,356.0
2021-12-12-21:47:01.182423,2.0,13.0,356.0
2021-12-12-21:47:01.183417,2.0,13.0,356.0
2021-12-12-21:47:01.184416,2.0,13.0,356.0
2021-12-12-21:47:01.185411,2.0,13.0,356.0
2021-12-12-21:47:01.186408,2.0,3.0,356.0
2021-12-12-21:47:01.186883,0.0,24.0,356.0
2021-12-12-21:47:01.187406,0.0,24.0,356.0
2021-12-12-21:47:01.188404,0.0,24.0,356.0
2021-12-12-21:47:01.189400,0.0,24.0,356.0
2021-12-12-21:47:01.190398,0.0,27.0,356.0
2021-12-12-21:47:01.191395,7.0,3.0,356.0
2021-12-12-21:47:01.192393,7.0,3.0,356.0
2021-12-12-21:47:01.193390,7.0,3.0,356.0
2021-12-12-21:47:01.194387,12.0,39.0,356.0
2021-12-12-21:47:01.195384,13.0,45.0,356.0
2021-12-12-21:47:01.196382,13.0,45.0,356.0
2021-12-12-21:47:01.197379,13.0,45.0,356.0
2021-12-12-21:47:01.198377,10.0,32.0,356.0
2021-12-12-21:47:01.199376,7.0,21.0,356.0
2021-12-12-21:47:01.200373,0.0,7.0,356.0
2021-12-12-21:47:01.201371,0.0,7.0,356.0
2021-12-12-21:47:01.202368,4.0,13.0,356.0
2021-12-12-21:47:01.203365,2.0,31.0,356.0
2021-12-12-21:47:01.204361,2.0,31.0,356.0
2021-12-12-21:47:01.205358,2.0,31.0,356.0
2021-12-12-21:47:01.206355,2.0,31.0,356.0
2021-12-12-21:47:01.207352,8.0,12.0,356.0
2021-12-12-21:47:01.208350,7.0,2.0,356.0
2021-12-12-21:47:01.209347,7.0,2.0,356.0
2021-12-12-21:47:01.210344,7.0,2.0,356.0
2021-12-12-21:47:01.211342,15.0,29.0,356.0
2021-12-12-21:47:01.212339,17.0,36.0,356.0
2021-12-12-21:47:01.213336,17.0,36.0,356.0
2021-12-12-21:47:01.214334,17.0,36.0,356.0
2021-12-12-21:47:01.215331,12.0,38.0,356.0
2021-12-12-21:47:01.217326,5.0,14.0,356.0
2021-12-12-21:47:01.217326,1.0,0.0,356.0
2021-12-12-21:47:01.218323,3.0,11.0,357.0
2021-12-12-21:47:01.219320,2.0,22.0,356.0
2021-12-12-21:47:01.220318,2.0,22.0,356.0
2021-12-12-21:47:01.221315,2.0,22.0,356.0
2021-12-12-21:47:01.222312,2.0,22.0,356.0
2021-12-12-21:47:01.223310,4.0,18.0,356.0
2021-12-12-21:47:01.224307,6.0,8.0,356.0
2021-12-12-21:47:01.225305,6.0,8.0,356.0
2021-12-12-21:47:01.226302,6.0,8.0,356.0
2021-12-12-21:47:01.227299,8.0,8.0,356.0
2021-12-12-21:47:01.228296,16.0,37.0,356.0
2021-12-12-21:47:01.229294,16.0,37.0,356.0
2021-12-12-21:47:01.230291,16.0,37.0,356.0
2021-12-12-21:47:01.231297,15.0,42.0,356.0
2021-12-12-21:47:01.232287,8.0,33.0,356.0
2021-12-12-21:47:01.233283,3.0,23.0,356.0
2021-12-12-21:47:01.234280,1.0,9.0,356.0
2021-12-12-21:47:01.235279,1.0,2.0,356.0
2021-12-12-21:47:01.236275,0.0,10.0,356.0
2021-12-12-21:47:01.237272,5.0,23.0,356.0
2021-12-12-21:47:01.238270,5.0,23.0,356.0
2021-12-12-21:47:01.239267,3.0,36.0,356.0
2021-12-12-21:47:01.240265,7.0,8.0,356.0
2021-12-12-21:47:01.241262,7.0,8.0,356.0
2021-12-12-21:47:01.242259,7.0,8.0,356.0
2021-12-12-21:47:01.243258,7.0,8.0,356.0
2021-12-12-21:47:01.244288,7.0,6.0,356.0
2021-12-12-21:47:01.245286,15.0,33.0,356.0
2021-12-12-21:47:01.246251,15.0,33.0,356.0
2021-12-12-21:47:01.247247,15.0,33.0,356.0
2021-12-12-21:47:01.248244,15.0,40.0,356.0
2021-12-12-21:47:01.249241,7.0,22.0,356.0
2021-12-12-21:47:01.250237,4.0,11.0,356.0
2021-12-12-21:47:01.251235,4.0,11.0,356.0
2021-12-12-21:47:01.252233,2.0,1.0,356.0
2021-12-12-21:47:01.254228,0.0,1.0,356.0
2021-12-12-21:47:01.255225,3.0,6.0,356.0
2021-12-12-21:47:01.255225,7.0,7.0,356.0
2021-12-12-21:47:01.256222,7.0,7.0,356.0
2021-12-12-21:47:01.257219,7.0,7.0,356.0
2021-12-12-21:47:01.258217,7.0,7.0,356.0
2021-12-12-21:47:01.259214,7.0,7.0,356.0
2021-12-12-21:47:01.260211,11.0,1.0,356.0
2021-12-12-21:47:01.261209,17.0,29.0,356.0
2021-12-12-21:47:01.262206,17.0,29.0,356.0
2021-12-12-21:47:01.263203,17.0,29.0,356.0
2021-12-12-21:47:01.264201,13.0,38.0,356.0
2021-12-12-21:47:01.265198,2.0,19.0,356.0
2021-12-12-21:47:01.266197,2.0,19.0,356.0
2021-12-12-21:47:01.267193,2.0,19.0,356.0
2021-12-12-21:47:01.268190,1.0,6.0,356.0
2021-12-12-21:47:01.269188,2.0,9.0,356.0
2021-12-12-21:47:01.270185,2.0,9.0,356.0
2021-12-12-21:47:01.271182,2.0,9.0,356.0
2021-12-12-21:47:01.272180,4.0,8.0,356.0
2021-12-12-21:47:01.273177,3.0,4.0,356.0
2021-12-12-21:47:01.274174,3.0,4.0,356.0
2021-12-12-21:47:01.275171,3.0,4.0,356.0
2021-12-12-21:47:01.276168,7.0,1.0,356.0
2021-12-12-21:47:01.277166,12.0,24.0,357.0
2021-12-12-21:47:01.278163,12.0,24.0,357.0
2021-12-12-21:47:01.279161,12.0,24.0,357.0
2021-12-12-21:47:01.280158,15.0,38.0,356.0
2021-12-12-21:47:01.281155,7.0,37.0,356.0
2021-12-12-21:47:01.282153,3.0,22.0,356.0
2021-12-12-21:47:01.283150,3.0,22.0,356.0
2021-12-12-21:47:01.284147,3.0,22.0,356.0
2021-12-12-21:47:01.285145,2.0,7.0,356.0
2021-12-12-21:47:01.287139,2.0,7.0,356.0
2021-12-12-21:47:01.287139,2.0,7.0,356.0
2021-12-12-21:47:01.288136,2.0,14.0,356.0
2021-12-12-21:47:01.289134,5.0,12.0,356.0
2021-12-12-21:47:01.290132,5.0,12.0,356.0
2021-12-12-21:47:01.291128,5.0,12.0,356.0
2021-12-12-21:47:01.292126,5.0,12.0,356.0
2021-12-12-21:47:01.293123,14.0,10.0,356.0
2021-12-12-21:47:01.294121,14.0,10.0,356.0
2021-12-12-21:47:01.295118,14.0,10.0,356.0
2021-12-12-21:47:01.296115,14.0,10.0,356.0
2021-12-12-21:47:01.297112,9.0,39.0,356.0
2021-12-12-21:47:01.298110,6.0,28.0,356.0
2021-12-12-21:47:01.299107,6.0,28.0,356.0
2021-12-12-21:47:01.300137,6.0,28.0,356.0
2021-12-12-21:47:01.301135,1.0,17.0,356.0
2021-12-12-21:47:01.302134,1.0,17.0,356.0
2021-12-12-21:47:01.303129,1.0,11.0,356.0
2021-12-12-21:47:01.304094,1.0,11.0,356.0
2021-12-12-21:47:01.305124,2.0,27.0,356.0
2021-12-12-21:47:01.306121,5.0,19.0,356.0
2021-12-12-21:47:01.307123,5.0,19.0,356.0
2021-12-12-21:47:01.308084,5.0,19.0,356.0
2021-12-12-21:47:01.309081,9.0,1.0,356.0
2021-12-12-21:47:01.310079,9.0,4.0,356.0
2021-12-12-21:47:01.311075,9.0,4.0,356.0
2021-12-12-21:47:01.312072,9.0,4.0,356.0
2021-12-12-21:47:01.313070,12.0,40.0,356.0
2021-12-12-21:47:01.314067,10.0,33.0,356.0
2021-12-12-21:47:01.315064,10.0,33.0,356.0
2021-12-12-21:47:01.316061,10.0,33.0,356.0
2021-12-12-21:47:01.317059,2.0,10.0,356.0
2021-12-12-21:47:01.318056,1.0,6.0,356.0
2021-12-12-21:47:01.320051,1.0,6.0,356.0
2021-12-12-21:47:01.320051,1.0,6.0,356.0
2021-12-12-21:47:01.321048,2.0,17.0,356.0
2021-12-12-21:47:01.322045,1.0,21.0,356.0
2021-12-12-21:47:01.323043,1.0,21.0,356.0
2021-12-12-21:47:01.324040,1.0,21.0,356.0
2021-12-12-21:47:01.325038,1.0,21.0,356.0
2021-12-12-21:47:01.326035,6.0,8.0,356.0
2021-12-12-21:47:01.327032,11.0,3.0,356.0
2021-12-12-21:47:01.328029,11.0,3.0,356.0
2021-12-12-21:47:01.329027,11.0,3.0,356.0
2021-12-12-21:47:01.330024,16.0,35.0,356.0
2021-12-12-21:47:01.331022,13.0,35.0,356.0
2021-12-12-21:47:01.332019,13.0,35.0,356.0
2021-12-12-21:47:01.333016,13.0,35.0,356.0
2021-12-12-21:47:01.334014,1.0,11.0,356.0
2021-12-12-21:47:01.335011,1.0,11.0,356.0
2021-12-12-21:47:01.336008,1.0,11.0,356.0
2021-12-12-21:47:01.337005,1.0,11.0,356.0
2021-12-12-21:47:01.338003,2.0,18.0,356.0
2021-12-12-21:47:01.339000,3.0,21.0,356.0
2021-12-12-21:47:01.339998,3.0,21.0,356.0
2021-12-12-21:47:01.340995,3.0,21.0,356.0
2021-12-12-21:47:01.341992,5.0,12.0,356.0
2021-12-12-21:47:01.342989,5.0,2.0,356.0
2021-12-12-21:47:01.343987,5.0,2.0,356.0
2021-12-12-21:47:01.344984,5.0,2.0,356.0
2021-12-12-21:47:01.345982,16.0,33.0,356.0
2021-12-12-21:47:01.346979,10.0,31.0,356.0
2021-12-12-21:47:01.347976,10.0,31.0,356.0
2021-12-12-21:47:01.348973,10.0,31.0,356.0
2021-12-12-21:47:01.349971,1.0,14.0,356.0
2021-12-12-21:47:01.350968,6.0,9.0,356.0
2021-12-12-21:47:01.351965,6.0,9.0,356.0
2021-12-12-21:47:01.352963,6.0,9.0,356.0
2021-12-12-21:47:01.353960,4.0,15.0,356.0
2021-12-12-21:47:01.355955,2.0,27.0,356.0
2021-12-12-21:47:01.355955,2.0,27.0,356.0
2021-12-12-21:47:01.356952,2.0,27.0,356.0
2021-12-12-21:47:01.357950,2.0,27.0,356.0
2021-12-12-21:47:01.358947,7.0,0.0,356.0
2021-12-12-21:47:01.359944,7.0,0.0,356.0
2021-12-12-21:47:01.360942,7.0,0.0,356.0
2021-12-12-21:47:01.361939,7.0,0.0,356.0
2021-12-12-21:47:01.362936,15.0,29.0,356.0
2021-12-12-21:47:01.363934,11.0,40.0,356.0
2021-12-12-21:47:01.364931,11.0,40.0,356.0
2021-12-12-21:47:01.365928,11.0,40.0,356.0
2021-12-12-21:47:01.366926,5.0,30.0,356.0
2021-12-12-21:47:01.367923,2.0,16.0,356.0
2021-12-12-21:47:01.368920,2.0,16.0,356.0
2021-12-12-21:47:01.369918,2.0,8.0,356.0
2021-12-12-21:47:01.370915,1.0,11.0,356.0
2021-12-12-21:47:01.371912,1.0,11.0,356.0
2021-12-12-21:47:01.372910,1.0,17.0,356.0
2021-12-12-21:47:01.373907,4.0,21.0,356.0
2021-12-12-21:47:01.374904,0.0,30.0,356.0
2021-12-12-21:47:01.375902,2.0,26.0,356.0
2021-12-12-21:47:01.376899,2.0,15.0,356.0
2021-12-12-21:47:01.377896,6.0,11.0,356.0
2021-12-12-21:47:01.378894,6.0,1.0,356.0
2021-12-12-21:47:01.379891,6.0,3.0,356.0
2021-12-12-21:47:01.380888,13.0,38.0,357.0
2021-12-12-21:47:01.381886,14.0,48.0,356.0
2021-12-12-21:47:01.382883,8.0,36.0,356.0
2021-12-12-21:47:01.383880,2.0,23.0,357.0
2021-12-12-21:47:01.384877,4.0,12.0,356.0
2021-12-12-21:47:01.386872,2.0,3.0,357.0
2021-12-12-21:47:01.386872,2.0,15.0,357.0
2021-12-12-21:47:01.387870,1.0,28.0,356.0
2021-12-12-21:47:01.388867,1.0,28.0,356.0
2021-12-12-21:47:01.389864,1.0,28.0,356.0
2021-12-12-21:47:01.390861,1.0,24.0,356.0
2021-12-12-21:47:01.391859,3.0,15.0,356.0
2021-12-12-21:47:01.392856,3.0,9.0,356.0
2021-12-12-21:47:01.393853,7.0,2.0,356.0
2021-12-12-21:47:01.394851,10.0,4.0,357.0
2021-12-12-21:47:01.395848,14.0,9.0,356.0
2021-12-12-21:47:01.396845,15.0,33.0,356.0
2021-12-12-21:47:01.397843,15.0,39.0,356.0
2021-12-12-21:47:01.398840,15.0,39.0,356.0
2021-12-12-21:47:01.399837,6.0,23.0,356.0
2021-12-12-21:47:01.400834,1.0,2.0,356.0
2021-12-12-21:47:01.401832,1.0,2.0,356.0
2021-12-12-21:47:01.402829,1.0,2.0,356.0
2021-12-12-21:47:01.403827,2.0,5.0,356.0
2021-12-12-21:47:01.404824,1.0,16.0,356.0
2021-12-12-21:47:01.405821,1.0,16.0,356.0
2021-12-12-21:47:01.406819,1.0,16.0,356.0
2021-12-12-21:47:01.407816,0.0,23.0,356.0
2021-12-12-21:47:01.408814,3.0,13.0,356.0
2021-12-12-21:47:01.409811,3.0,5.0,356.0
2021-12-12-21:47:01.410808,8.0,6.0,356.0
2021-12-12-21:47:01.411807,8.0,3.0,356.0
2021-12-12-21:47:01.412803,8.0,2.0,356.0
2021-12-12-21:47:01.413802,13.0,13.0,356.0
2021-12-12-21:47:01.414797,12.0,19.0,356.0
2021-12-12-21:47:01.415795,12.0,26.0,357.0
2021-12-12-21:47:01.416792,2.0,3.0,356.0
2021-12-12-21:47:01.417789,2.0,3.0,356.0
2021-12-12-21:47:01.418787,2.0,3.0,356.0
2021-12-12-21:47:01.419784,4.0,9.0,356.0
2021-12-12-21:47:01.421779,3.0,16.0,356.0
2021-12-12-21:47:01.421779,3.0,16.0,356.0
2021-12-12-21:47:01.422776,3.0,16.0,356.0
2021-12-12-21:47:01.423774,1.0,12.0,356.0
2021-12-12-21:47:01.424771,4.0,6.0,356.0
2021-12-12-21:47:01.425768,6.0,3.0,356.0
2021-12-12-21:47:01.426765,5.0,1.0,356.0
2021-12-12-21:47:01.427762,5.0,1.0,356.0
2021-12-12-21:47:01.428760,7.0,3.0,356.0
2021-12-12-21:47:01.429757,14.0,10.0,356.0
2021-12-12-21:47:01.430754,11.0,26.0,356.0
2021-12-12-21:47:01.431752,11.0,32.0,356.0
2021-12-12-21:47:01.432749,9.0,22.0,356.0
2021-12-12-21:47:01.433746,4.0,19.0,356.0
2021-12-12-21:47:01.434744,1.0,10.0,356.0
2021-12-12-21:47:01.435741,4.0,0.0,356.0
2021-12-12-21:47:01.436738,2.0,2.0,356.0
2021-12-12-21:47:01.437736,1.0,7.0,356.0
2021-12-12-21:47:01.438733,2.0,18.0,356.0
2021-12-12-21:47:01.439730,2.0,18.0,356.0
2021-12-12-21:47:01.440728,1.0,14.0,356.0
2021-12-12-21:47:01.441725,1.0,11.0,356.0
2021-12-12-21:47:01.442722,6.0,2.0,356.0
2021-12-12-21:47:01.443720,7.0,0.0,356.0
2021-12-12-21:47:01.444718,8.0,5.0,356.0
2021-12-12-21:47:01.445715,13.0,5.0,356.0
2021-12-12-21:47:01.446712,13.0,26.0,356.0
2021-12-12-21:47:01.447709,14.0,34.0,356.0
2021-12-12-21:47:01.448707,10.0,29.0,356.0
2021-12-12-21:47:01.449704,3.0,11.0,356.0
2021-12-12-21:47:01.450702,0.0,1.0,356.0
2021-12-12-21:47:01.451699,0.0,1.0,356.0
2021-12-12-21:47:01.452696,2.0,8.0,356.0
2021-12-12-21:47:01.453694,1.0,10.0,356.0
2021-12-12-21:47:01.455688,1.0,10.0,356.0
2021-12-12-21:47:01.455688,3.0,23.0,356.0
2021-12-12-21:47:01.456685,4.0,20.0,356.0
2021-12-12-21:47:01.457683,5.0,8.0,357.0
2021-12-12-21:47:01.458680,5.0,8.0,357.0
2021-12-12-21:47:01.459677,5.0,8.0,357.0
2021-12-12-21:47:01.460675,6.0,1.0,356.0
2021-12-12-21:47:01.461672,8.0,3.0,356.0
2021-12-12-21:47:01.462669,16.0,21.0,356.0
2021-12-12-21:47:01.463666,13.0,36.0,356.0
2021-12-12-21:47:01.464664,6.0,26.0,357.0
2021-12-12-21:47:01.465661,1.0,19.0,356.0
2021-12-12-21:47:01.466659,3.0,7.0,356.0
2021-12-12-21:47:01.467656,3.0,7.0,356.0
2021-12-12-21:47:01.468653,3.0,7.0,356.0
2021-12-12-21:47:01.469650,2.0,12.0,356.0
2021-12-12-21:47:01.470648,2.0,16.0,356.0
2021-12-12-21:47:01.471646,8.0,21.0,356.0
2021-12-12-21:47:01.472643,1.0,24.0,356.0
2021-12-12-21:47:01.473640,8.0,15.0,356.0
2021-12-12-21:47:01.474637,8.0,9.0,356.0
2021-12-12-21:47:01.475635,8.0,9.0,356.0
2021-12-12-21:47:01.476632,8.0,9.0,356.0
2021-12-12-21:47:01.477629,10.0,3.0,356.0
2021-12-12-21:47:01.478627,12.0,1.0,356.0
2021-12-12-21:47:01.479624,15.0,13.0,356.0
2021-12-12-21:47:01.480621,16.0,33.0,356.0
2021-12-12-21:47:01.481619,11.0,32.0,356.0
2021-12-12-21:47:01.482616,1.0,7.0,356.0
2021-12-12-21:47:01.483613,1.0,7.0,356.0
2021-12-12-21:47:01.484611,1.0,7.0,356.0
2021-12-12-21:47:01.485608,1.0,2.0,356.0
2021-12-12-21:47:01.486605,3.0,6.0,356.0
2021-12-12-21:47:01.487603,4.0,13.0,356.0
2021-12-12-21:47:01.488600,5.0,13.0,356.0
2021-12-12-21:47:01.490595,5.0,23.0,357.0
2021-12-12-21:47:01.490595,2.0,12.0,356.0
2021-12-12-21:47:01.491592,2.0,12.0,356.0
2021-12-12-21:47:01.492589,2.0,12.0,356.0
2021-12-12-21:47:01.493587,15.0,5.0,356.0
2021-12-12-21:47:01.494584,8.0,2.0,356.0
2021-12-12-21:47:01.495581,10.0,9.0,356.0
2021-12-12-21:47:01.496579,14.0,31.0,356.0
2021-12-12-21:47:01.497576,14.0,42.0,356.0
2021-12-12-21:47:01.498573,6.0,36.0,356.0
2021-12-12-21:47:01.499571,2.0,26.0,356.0
2021-12-12-21:47:01.500568,1.0,12.0,356.0
2021-12-12-21:47:01.501565,0.0,0.0,356.0
2021-12-12-21:47:01.502562,1.0,11.0,357.0
2021-12-12-21:47:01.503560,3.0,13.0,356.0
2021-12-12-21:47:01.504557,3.0,19.0,356.0
2021-12-12-21:47:01.505554,2.0,23.0,356.0
2021-12-12-21:47:01.506552,6.0,11.0,356.0
2021-12-12-21:47:01.507549,6.0,11.0,356.0
2021-12-12-21:47:01.508547,6.0,11.0,356.0
2021-12-12-21:47:01.509544,6.0,11.0,356.0
2021-12-12-21:47:01.510541,6.0,7.0,356.0
2021-12-12-21:47:01.511539,13.0,20.0,356.0
2021-12-12-21:47:01.512536,13.0,20.0,356.0
2021-12-12-21:47:01.513533,13.0,20.0,356.0
2021-12-12-21:47:01.514531,15.0,34.0,356.0
2021-12-12-21:47:01.515528,3.0,19.0,356.0
2021-12-12-21:47:01.516525,3.0,19.0,356.0
2021-12-12-21:47:01.517523,3.0,19.0,356.0
2021-12-12-21:47:01.518520,11.0,3.0,356.0
2021-12-12-21:47:01.519517,0.0,13.0,356.0
2021-12-12-21:47:01.520515,0.0,13.0,356.0
2021-12-12-21:47:01.521512,0.0,13.0,356.0
2021-12-12-21:47:01.522509,3.0,14.0,357.0
2021-12-12-21:47:01.523507,4.0,9.0,356.0
2021-12-12-21:47:01.525501,4.0,9.0,356.0
2021-12-12-21:47:01.525501,4.0,9.0,356.0
2021-12-12-21:47:01.526499,13.0,22.0,356.0
2021-12-12-21:47:01.527496,13.0,22.0,356.0
2021-12-12-21:47:01.528493,13.0,22.0,356.0
2021-12-12-21:47:01.529491,13.0,22.0,356.0
2021-12-12-21:47:01.530488,14.0,47.0,356.0
2021-12-12-21:47:01.531485,4.0,28.0,356.0
2021-12-12-21:47:01.532483,4.0,28.0,356.0
2021-12-12-21:47:01.533480,4.0,28.0,356.0
2021-12-12-21:47:01.534477,0.0,18.0,356.0
2021-12-12-21:47:01.535475,3.0,3.0,356.0
2021-12-12-21:47:01.536472,1.0,10.0,356.0
2021-12-12-21:47:01.537470,1.0,10.0,356.0
2021-12-12-21:47:01.538467,6.0,25.0,356.0
2021-12-12-21:47:01.539464,3.0,14.0,356.0
2021-12-12-21:47:01.540467,3.0,14.0,356.0
2021-12-12-21:47:01.541458,3.0,14.0,356.0
2021-12-12-21:47:01.542456,13.0,9.0,356.0
2021-12-12-21:47:01.543453,13.0,9.0,356.0
2021-12-12-21:47:01.544451,13.0,9.0,356.0
2021-12-12-21:47:01.545448,13.0,9.0,356.0
2021-12-12-21:47:01.546445,14.0,43.0,356.0
2021-12-12-21:47:01.547443,5.0,35.0,356.0
2021-12-12-21:47:01.548440,5.0,35.0,356.0
2021-12-12-21:47:01.549437,5.0,35.0,356.0
2021-12-12-21:47:01.550435,5.0,35.0,356.0
2021-12-12-21:47:01.551432,1.0,7.0,356.0
2021-12-12-21:47:01.552429,1.0,6.0,356.0
2021-12-12-21:47:01.553427,1.0,6.0,356.0
2021-12-12-21:47:01.554424,1.0,6.0,356.0
2021-12-12-21:47:01.555421,4.0,23.0,356.0
2021-12-12-21:47:01.556418,0.0,19.0,356.0
2021-12-12-21:47:01.558413,0.0,19.0,356.0
2021-12-12-21:47:01.558413,0.0,19.0,356.0
2021-12-12-21:47:01.559411,7.0,12.0,356.0
2021-12-12-21:47:01.560408,7.0,12.0,356.0
2021-12-12-21:47:01.561406,7.0,12.0,356.0
2021-12-12-21:47:01.562403,7.0,12.0,356.0
2021-12-12-21:47:01.563400,17.0,46.0,357.0
2021-12-12-21:47:01.564397,7.0,36.0,356.0
2021-12-12-21:47:01.565394,7.0,36.0,356.0
2021-12-12-21:47:01.566392,7.0,36.0,356.0
2021-12-12-21:47:01.567389,1.0,2.0,356.0
2021-12-12-21:47:01.568387,3.0,6.0,356.0
2021-12-12-21:47:01.569384,3.0,6.0,356.0
2021-12-12-21:47:01.570381,3.0,6.0,356.0
2021-12-12-21:47:01.571379,0.0,24.0,356.0
2021-12-12-21:47:01.572376,0.0,36.0,356.0
2021-12-12-21:47:01.573373,0.0,36.0,356.0
2021-12-12-21:47:01.574370,0.0,36.0,356.0
2021-12-12-21:47:01.575368,9.0,14.0,356.0
2021-12-12-21:47:01.576365,9.0,10.0,356.0
2021-12-12-21:47:01.577362,9.0,10.0,356.0
2021-12-12-21:47:01.578360,9.0,10.0,356.0
2021-12-12-21:47:01.579357,15.0,21.0,356.0
2021-12-12-21:47:01.580354,10.0,23.0,356.0
2021-12-12-21:47:01.581352,10.0,23.0,356.0
2021-12-12-21:47:01.582349,10.0,23.0,356.0
2021-12-12-21:47:01.583347,0.0,3.0,356.0
2021-12-12-21:47:01.584344,2.0,13.0,356.0
2021-12-12-21:47:01.585341,2.0,13.0,356.0
2021-12-12-21:47:01.586339,2.0,13.0,356.0
2021-12-12-21:47:01.587336,2.0,13.0,356.0
2021-12-12-21:47:01.588333,2.0,20.0,356.0
2021-12-12-21:47:01.589331,2.0,28.0,356.0
2021-12-12-21:47:01.590328,2.0,28.0,356.0
2021-12-12-21:47:01.591325,2.0,28.0,356.0
2021-12-12-21:47:01.593320,2.0,16.0,356.0
2021-12-12-21:47:01.594317,9.0,16.0,356.0
2021-12-12-21:47:01.594317,9.0,16.0,356.0
2021-12-12-21:47:01.595314,9.0,16.0,356.0
2021-12-12-21:47:01.596312,14.0,50.0,356.0
2021-12-12-21:47:01.597309,10.0,67.0,356.0
2021-12-12-21:47:01.598309,10.0,67.0,356.0
2021-12-12-21:47:01.599304,10.0,67.0,356.0
2021-12-12-21:47:01.600301,2.0,47.0,356.0
2021-12-12-21:47:01.601299,4.0,1.0,356.0
2021-12-12-21:47:01.602296,4.0,1.0,356.0
2021-12-12-21:47:01.603293,4.0,1.0,356.0
2021-12-12-21:47:01.604291,6.0,17.0,356.0
2021-12-12-21:47:01.605288,3.0,26.0,356.0
2021-12-12-21:47:01.606285,3.0,26.0,356.0
2021-12-12-21:47:01.607282,3.0,26.0,356.0
2021-12-12-21:47:01.608280,5.0,13.0,356.0
2021-12-12-21:47:01.609277,10.0,3.0,357.0
2021-12-12-21:47:01.610274,10.0,3.0,357.0
2021-12-12-21:47:01.611272,10.0,3.0,357.0
2021-12-12-21:47:01.612269,15.0,27.0,356.0
2021-12-12-21:47:01.613267,14.0,46.0,356.0
2021-12-12-21:47:01.614264,14.0,46.0,356.0
2021-12-12-21:47:01.615261,14.0,46.0,356.0
2021-12-12-21:47:01.616259,4.0,24.0,356.0
2021-12-12-21:47:01.617256,0.0,4.0,356.0
2021-12-12-21:47:01.618253,0.0,4.0,356.0
2021-12-12-21:47:01.619250,0.0,4.0,356.0
2021-12-12-21:47:01.620248,1.0,10.0,357.0
2021-12-12-21:47:01.621245,4.0,28.0,356.0
2021-12-12-21:47:01.622242,4.0,28.0,356.0
2021-12-12-21:47:01.623240,4.0,28.0,356.0
2021-12-12-21:47:01.624237,4.0,28.0,356.0
2021-12-12-21:47:01.627229,3.0,14.0,356.0
2021-12-12-21:47:01.627229,8.0,1.0,356.0
2021-12-12-21:47:01.628226,8.0,1.0,356.0
2021-12-12-21:47:01.629224,17.0,29.0,356.0
2021-12-12-21:47:01.630221,17.0,42.0,356.0
2021-12-12-21:47:01.631218,17.0,42.0,356.0
2021-12-12-21:47:01.632216,17.0,42.0,356.0
2021-12-12-21:47:01.633213,1.0,10.0,355.0
2021-12-12-21:47:01.634211,2.0,3.0,356.0
2021-12-12-21:47:01.635208,2.0,3.0,356.0
2021-12-12-21:47:01.636205,2.0,3.0,356.0
2021-12-12-21:47:01.637203,3.0,14.0,356.0
2021-12-12-21:47:01.638200,6.0,24.0,356.0
2021-12-12-21:47:01.639197,6.0,24.0,356.0
2021-12-12-21:47:01.640194,6.0,24.0,356.0
2021-12-12-21:47:01.641192,4.0,19.0,356.0
2021-12-12-21:47:01.642189,8.0,1.0,356.0
2021-12-12-21:47:01.643187,8.0,1.0,356.0
2021-12-12-21:47:01.644184,8.0,1.0,356.0
2021-12-12-21:47:01.645181,14.0,26.0,356.0
2021-12-12-21:47:01.646178,13.0,37.0,357.0
2021-12-12-21:47:01.647176,13.0,37.0,357.0
2021-12-12-21:47:01.648173,13.0,37.0,357.0
2021-12-12-21:47:01.649170,4.0,14.0,356.0
2021-12-12-21:47:01.650168,2.0,9.0,356.0
2021-12-12-21:47:01.651165,2.0,9.0,356.0
2021-12-12-21:47:01.652162,2.0,9.0,356.0
2021-12-12-21:47:01.653160,4.0,15.0,356.0
2021-12-12-21:47:01.654157,2.0,26.0,356.0
2021-12-12-21:47:01.655154,2.0,26.0,356.0
2021-12-12-21:47:01.656151,2.0,26.0,356.0
2021-12-12-21:47:01.657149,5.0,11.0,356.0
2021-12-12-21:47:01.658146,6.0,0.0,357.0
2021-12-12-21:47:01.659144,6.0,0.0,357.0
2021-12-12-21:47:01.660141,6.0,0.0,357.0
2021-12-12-21:47:01.661138,6.0,0.0,357.0
2021-12-12-21:47:01.663133,15.0,18.0,356.0
2021-12-12-21:47:01.663133,14.0,41.0,356.0
2021-12-12-21:47:01.664131,14.0,41.0,356.0
2021-12-12-21:47:01.665128,14.0,41.0,356.0
2021-12-12-21:47:01.666125,0.0,3.0,356.0
2021-12-12-21:47:01.667123,0.0,3.0,356.0
2021-12-12-21:47:01.668120,0.0,3.0,356.0
2021-12-12-21:47:01.669117,0.0,3.0,356.0
2021-12-12-21:47:01.670114,2.0,6.0,356.0
2021-12-12-21:47:01.671112,2.0,30.0,356.0
2021-12-12-21:47:01.672109,2.0,30.0,356.0
2021-12-12-21:47:01.673106,2.0,30.0,356.0
2021-12-12-21:47:01.674104,2.0,15.0,356.0
2021-12-12-21:47:01.675101,9.0,6.0,356.0
2021-12-12-21:47:01.676098,9.0,6.0,356.0
2021-12-12-21:47:01.677096,9.0,6.0,356.0
2021-12-12-21:47:01.678093,16.0,34.0,356.0
2021-12-12-21:47:01.679091,16.0,34.0,356.0
2021-12-12-21:47:01.680087,16.0,34.0,356.0
2021-12-12-21:47:01.681085,16.0,34.0,356.0
2021-12-12-21:47:01.682083,7.0,18.0,356.0
2021-12-12-21:47:01.683080,0.0,5.0,356.0
2021-12-12-21:47:01.684078,0.0,5.0,356.0
2021-12-12-21:47:01.685074,0.0,5.0,356.0
2021-12-12-21:47:01.686072,2.0,22.0,356.0
2021-12-12-21:47:01.687069,3.0,27.0,356.0
2021-12-12-21:47:01.688067,3.0,27.0,356.0
2021-12-12-21:47:01.689064,3.0,27.0,356.0
2021-12-12-21:47:01.690061,5.0,18.0,356.0
2021-12-12-21:47:01.691058,5.0,4.0,356.0
2021-12-12-21:47:01.692056,5.0,4.0,356.0
2021-12-12-21:47:01.693053,5.0,4.0,356.0
2021-12-12-21:47:01.695048,19.0,41.0,356.0
2021-12-12-21:47:01.695048,19.0,41.0,356.0
2021-12-12-21:47:01.696045,19.0,41.0,356.0
2021-12-12-21:47:01.697042,19.0,41.0,356.0
2021-12-12-21:47:01.698040,7.0,30.0,356.0
2021-12-12-21:47:01.699037,1.0,7.0,356.0
2021-12-12-21:47:01.700034,1.0,7.0,356.0
2021-12-12-21:47:01.701032,1.0,7.0,356.0
2021-12-12-21:47:01.702029,1.0,7.0,356.0
2021-12-12-21:47:01.703026,1.0,14.0,356.0
2021-12-12-21:47:01.704024,3.0,22.0,356.0
2021-12-12-21:47:01.705021,3.0,22.0,356.0
2021-12-12-21:47:01.706018,3.0,22.0,356.0
2021-12-12-21:47:01.707016,1.0,20.0,357.0
2021-12-12-21:47:01.708013,1.0,20.0,357.0
2021-12-12-21:47:01.709010,6.0,4.0,357.0
2021-12-12-21:47:01.710008,6.0,4.0,357.0
2021-12-12-21:47:01.711005,6.0,0.0,356.0
2021-12-12-21:47:01.712002,19.0,32.0,356.0
2021-12-12-21:47:01.713000,19.0,32.0,356.0
2021-12-12-21:47:01.713997,19.0,32.0,356.0
2021-12-12-21:47:01.714994,9.0,36.0,356.0
2021-12-12-21:47:01.715992,2.0,10.0,356.0
2021-12-12-21:47:01.716989,2.0,10.0,356.0
2021-12-12-21:47:01.717986,2.0,10.0,356.0
2021-12-12-21:47:01.718984,4.0,6.0,356.0
2021-12-12-21:47:01.719981,2.0,16.0,356.0
2021-12-12-21:47:01.720978,2.0,16.0,356.0
2021-12-12-21:47:01.721976,2.0,16.0,356.0
2021-12-12-21:47:01.722973,1.0,26.0,356.0
2021-12-12-21:47:01.723970,2.0,6.0,356.0
2021-12-12-21:47:01.724968,2.0,6.0,356.0
2021-12-12-21:47:01.725965,2.0,6.0,356.0
2021-12-12-21:47:01.726962,11.0,12.0,356.0
2021-12-12-21:47:01.727960,14.0,38.0,356.0
2021-12-12-21:47:01.729954,14.0,38.0,356.0
2021-12-12-21:47:01.729954,14.0,38.0,356.0
2021-12-12-21:47:01.730952,10.0,38.0,356.0
2021-12-12-21:47:01.731949,2.0,12.0,356.0
2021-12-12-21:47:01.732946,2.0,12.0,356.0
2021-12-12-21:47:01.733944,2.0,12.0,356.0
2021-12-12-21:47:01.734941,2.0,12.0,356.0
2021-12-12-21:47:01.735940,2.0,6.0,356.0
2021-12-12-21:47:01.736936,1.0,17.0,356.0
2021-12-12-21:47:01.737933,1.0,17.0,356.0
2021-12-12-21:47:01.738930,1.0,17.0,356.0
2021-12-12-21:47:01.739928,4.0,13.0,356.0
2021-12-12-21:47:01.740925,4.0,13.0,356.0
2021-12-12-21:47:01.741922,4.0,13.0,356.0
2021-12-12-21:47:01.742920,4.0,13.0,356.0
2021-12-12-21:47:01.743917,10.0,2.0,356.0
2021-12-12-21:47:01.744914,18.0,23.0,356.0
2021-12-12-21:47:01.745912,18.0,23.0,356.0
2021-12-12-21:47:01.746909,18.0,23.0,356.0
2021-12-12-21:47:01.747906,1.0,16.0,356.0
2021-12-12-21:47:01.748904,1.0,16.0,356.0
2021-12-12-21:47:01.749901,1.0,16.0,356.0
2021-12-12-21:47:01.750898,1.0,16.0,356.0
2021-12-12-21:47:01.751895,5.0,13.0,356.0
2021-12-12-21:47:01.752893,2.0,19.0,356.0
2021-12-12-21:47:01.753890,2.0,19.0,356.0
2021-12-12-21:47:01.754887,2.0,19.0,356.0
2021-12-12-21:47:01.755885,4.0,38.0,356.0
2021-12-12-21:47:01.756882,5.0,25.0,356.0
2021-12-12-21:47:01.757880,5.0,25.0,356.0
2021-12-12-21:47:01.758877,5.0,25.0,356.0
2021-12-12-21:47:01.759874,9.0,18.0,356.0
2021-12-12-21:47:01.760871,13.0,0.0,356.0
2021-12-12-21:47:01.761869,13.0,0.0,356.0
2021-12-12-21:47:01.762866,13.0,0.0,356.0
2021-12-12-21:47:01.763864,14.0,39.0,356.0
2021-12-12-21:47:01.765859,2.0,30.0,356.0
2021-12-12-21:47:01.765859,2.0,30.0,356.0
2021-12-12-21:47:01.766856,2.0,30.0,356.0
2021-12-12-21:47:01.767853,4.0,10.0,356.0
2021-12-12-21:47:01.768851,4.0,1.0,356.0
2021-12-12-21:47:01.769847,4.0,1.0,356.0
2021-12-12-21:47:01.770844,4.0,1.0,356.0
2021-12-12-21:47:01.771843,4.0,11.0,356.0
2021-12-12-21:47:01.772840,2.0,2.0,356.0
2021-12-12-21:47:01.773837,2.0,2.0,356.0
2021-12-12-21:47:01.774834,2.0,2.0,356.0
2021-12-12-21:47:01.775832,2.0,2.0,356.0
2021-12-12-21:47:01.776829,12.0,21.0,357.0
2021-12-12-21:47:01.777826,12.0,21.0,357.0
2021-12-12-21:47:01.778823,12.0,21.0,357.0
2021-12-12-21:47:01.779821,12.0,21.0,357.0
2021-12-12-21:47:01.780818,4.0,38.0,356.0
2021-12-12-21:47:01.781817,4.0,38.0,356.0
2021-12-12-21:47:01.782813,4.0,38.0,356.0
2021-12-12-21:47:01.783810,4.0,38.0,356.0
2021-12-12-21:47:01.784808,2.0,15.0,356.0
2021-12-12-21:47:01.785805,4.0,6.0,356.0
2021-12-12-21:47:01.786802,4.0,6.0,356.0
2021-12-12-21:47:01.787800,4.0,6.0,356.0
2021-12-12-21:47:01.788797,3.0,9.0,356.0
2021-12-12-21:47:01.789795,2.0,7.0,356.0
2021-12-12-21:47:01.790791,2.0,7.0,356.0
2021-12-12-21:47:01.791789,2.0,7.0,356.0
2021-12-12-21:47:01.792786,6.0,9.0,356.0
2021-12-12-21:47:01.793784,11.0,12.0,356.0
2021-12-12-21:47:01.794781,11.0,12.0,356.0
2021-12-12-21:47:01.795778,11.0,12.0,356.0
2021-12-12-21:47:01.796775,15.0,28.0,357.0
2021-12-12-21:47:01.797773,13.0,43.0,356.0
2021-12-12-21:47:01.798770,7.0,28.0,357.0
2021-12-12-21:47:01.800797,7.0,28.0,357.0
2021-12-12-21:47:01.800797,1.0,4.0,356.0
2021-12-12-21:47:01.801799,2.0,10.0,357.0
2021-12-12-21:47:01.802792,2.0,10.0,357.0
2021-12-12-21:47:01.803758,2.0,10.0,357.0
2021-12-12-21:47:01.804790,0.0,10.0,356.0
2021-12-12-21:47:01.805752,4.0,19.0,356.0
2021-12-12-21:47:01.806749,4.0,19.0,356.0
2021-12-12-21:47:01.807746,4.0,19.0,356.0
2021-12-12-21:47:01.808743,9.0,6.0,356.0
2021-12-12-21:47:01.809741,9.0,3.0,356.0
2021-12-12-21:47:01.810738,9.0,3.0,356.0
2021-12-12-21:47:01.811737,9.0,3.0,356.0
2021-12-12-21:47:01.812733,9.0,3.0,356.0
2021-12-12-21:47:01.813730,7.0,39.0,356.0
2021-12-12-21:47:01.814728,7.0,39.0,356.0
2021-12-12-21:47:01.815725,7.0,39.0,356.0
2021-12-12-21:47:01.816722,7.0,39.0,356.0
2021-12-12-21:47:01.817719,1.0,7.0,356.0
2021-12-12-21:47:01.818717,2.0,10.0,356.0
2021-12-12-21:47:01.819714,2.0,10.0,356.0
2021-12-12-21:47:01.820711,2.0,10.0,356.0
2021-12-12-21:47:01.821709,1.0,25.0,356.0
2021-12-12-21:47:01.822706,1.0,30.0,356.0
2021-12-12-21:47:01.823704,1.0,30.0,356.0
2021-12-12-21:47:01.824701,1.0,30.0,356.0
2021-12-12-21:47:01.825698,3.0,11.0,356.0
2021-12-12-21:47:01.826696,6.0,4.0,356.0
2021-12-12-21:47:01.827693,6.0,4.0,356.0
2021-12-12-21:47:01.828690,6.0,4.0,356.0
2021-12-12-21:47:01.829688,14.0,35.0,356.0
2021-12-12-21:47:01.830685,9.0,36.0,356.0
2021-12-12-21:47:01.831682,9.0,36.0,356.0
2021-12-12-21:47:01.833677,9.0,36.0,356.0
2021-12-12-21:47:01.833677,3.0,15.0,356.0
2021-12-12-21:47:01.834674,3.0,8.0,356.0
2021-12-12-21:47:01.835671,3.0,8.0,356.0
2021-12-12-21:47:01.836669,3.0,8.0,356.0
2021-12-12-21:47:01.837666,2.0,20.0,356.0
2021-12-12-21:47:01.838664,3.0,19.0,356.0
2021-12-12-21:47:01.839661,3.0,19.0,356.0
2021-12-12-21:47:01.840658,3.0,19.0,356.0
2021-12-12-21:47:01.841656,6.0,9.0,356.0
2021-12-12-21:47:01.842653,8.0,2.0,356.0
2021-12-12-21:47:01.843650,8.0,2.0,356.0
2021-12-12-21:47:01.844647,8.0,2.0,356.0
2021-12-12-21:47:01.845645,17.0,22.0,356.0
2021-12-12-21:47:01.846642,14.0,43.0,356.0
2021-12-12-21:47:01.847640,14.0,43.0,356.0
2021-12-12-21:47:01.848671,14.0,43.0,356.0
2021-12-12-21:47:01.849670,3.0,0.0,356.0
2021-12-12-21:47:01.850631,3.0,0.0,356.0
2021-12-12-21:47:01.851629,3.0,0.0,356.0
2021-12-12-21:47:01.852626,3.0,0.0,356.0
2021-12-12-21:47:01.853623,3.0,0.0,356.0
2021-12-12-21:47:01.854621,3.0,26.0,356.0
2021-12-12-21:47:01.855618,3.0,26.0,356.0
2021-12-12-21:47:01.856615,3.0,26.0,356.0
2021-12-12-21:47:01.857613,3.0,26.0,356.0
2021-12-12-21:47:01.858611,6.0,14.0,356.0
2021-12-12-21:47:01.859607,8.0,2.0,356.0
2021-12-12-21:47:01.860604,8.0,2.0,356.0
2021-12-12-21:47:01.861602,8.0,2.0,356.0
2021-12-12-21:47:01.862600,15.0,31.0,356.0
2021-12-12-21:47:01.863597,15.0,44.0,356.0
2021-12-12-21:47:01.864594,15.0,44.0,356.0
2021-12-12-21:47:01.865591,15.0,44.0,356.0
2021-12-12-21:47:01.866589,15.0,44.0,356.0
2021-12-12-21:47:01.868583,6.0,36.0,356.0
2021-12-12-21:47:01.868583,0.0,12.0,356.0
2021-12-12-21:47:01.869580,0.0,14.0,356.0
2021-12-12-21:47:01.870578,3.0,28.0,356.0
2021-12-12-21:47:01.871575,3.0,28.0,356.0
2021-12-12-21:47:01.872572,3.0,28.0,356.0
2021-12-12-21:47:01.873570,3.0,28.0,356.0
2021-12-12-21:47:01.874567,9.0,14.0,356.0
2021-12-12-21:47:01.875565,5.0,12.0,356.0
2021-12-12-21:47:01.876562,5.0,12.0,356.0
2021-12-12-21:47:01.877559,5.0,12.0,356.0
2021-12-12-21:47:01.878557,14.0,37.0,356.0
2021-12-12-21:47:01.879554,4.0,59.0,356.0
2021-12-12-21:47:01.880551,4.0,59.0,356.0
2021-12-12-21:47:01.881549,4.0,59.0,356.0
2021-12-12-21:47:01.882547,1.0,8.0,356.0
2021-12-12-21:47:01.883543,7.0,4.0,356.0
2021-12-12-21:47:01.884541,7.0,4.0,356.0
2021-12-12-21:47:01.885538,7.0,4.0,356.0
2021-12-12-21:47:01.886535,5.0,7.0,356.0
2021-12-12-21:47:01.887533,1.0,17.0,356.0
2021-12-12-21:47:01.888530,6.0,19.0,356.0
2021-12-12-21:47:01.889528,6.0,19.0,356.0
2021-12-12-21:47:01.890524,6.0,19.0,356.0
2021-12-12-21:47:01.891521,1.0,21.0,356.0
2021-12-12-21:47:01.892519,1.0,21.0,356.0
2021-12-12-21:47:01.893516,10.0,19.0,356.0
2021-12-12-21:47:01.894520,10.0,19.0,356.0
2021-12-12-21:47:01.895518,21.0,16.0,356.0
2021-12-12-21:47:01.896509,18.0,45.0,356.0
2021-12-12-21:47:01.897506,10.0,55.0,356.0
2021-12-12-21:47:01.898505,10.0,55.0,356.0
2021-12-12-21:47:01.899502,3.0,24.0,356.0
2021-12-12-21:47:01.900499,2.0,3.0,356.0
2021-12-12-21:47:01.901496,2.0,3.0,356.0
2021-12-12-21:47:01.902494,2.0,3.0,356.0
2021-12-12-21:47:01.903491,8.0,5.0,356.0
2021-12-12-21:47:01.905486,12.0,16.0,356.0
2021-12-12-21:47:01.905486,12.0,16.0,356.0
2021-12-12-21:47:01.906483,3.0,9.0,356.0
2021-12-12-21:47:01.907480,10.0,27.0,356.0
2021-12-12-21:47:01.908478,10.0,27.0,356.0
2021-12-12-21:47:01.909475,10.0,27.0,356.0
2021-12-12-21:47:01.910472,10.0,27.0,356.0
2021-12-12-21:47:01.911470,17.0,35.0,356.0
2021-12-12-21:47:01.912467,18.0,65.0,356.0
2021-12-12-21:47:01.913465,18.0,65.0,356.0
2021-12-12-21:47:01.914461,18.0,65.0,356.0
2021-12-12-21:47:01.915459,10.0,17.0,356.0
2021-12-12-21:47:01.916455,3.0,23.0,356.0
2021-12-12-21:47:01.917453,3.0,23.0,356.0
2021-12-12-21:47:01.918450,3.0,23.0,356.0
2021-12-12-21:47:01.919447,3.0,19.0,356.0
2021-12-12-21:47:01.920457,1.0,14.0,356.0
2021-12-12-21:47:01.921443,7.0,21.0,357.0
2021-12-12-21:47:01.922440,7.0,21.0,357.0
2021-12-12-21:47:01.923437,10.0,8.0,356.0
2021-12-12-21:47:01.924434,6.0,13.0,357.0
2021-12-12-21:47:01.925431,6.0,13.0,357.0
2021-12-12-21:47:01.926429,6.0,13.0,357.0
2021-12-12-21:47:01.927426,6.0,13.0,357.0
2021-12-12-21:47:01.928423,7.0,11.0,356.0
2021-12-12-21:47:01.929420,12.0,48.0,356.0
2021-12-12-21:47:01.930417,12.0,48.0,356.0
2021-12-12-21:47:01.931415,12.0,48.0,356.0
2021-12-12-21:47:01.932412,4.0,2.0,356.0
2021-12-12-21:47:01.933409,4.0,2.0,356.0
2021-12-12-21:47:01.934407,4.0,2.0,356.0
2021-12-12-21:47:01.935404,4.0,2.0,356.0
2021-12-12-21:47:01.936402,1.0,33.0,357.0
2021-12-12-21:47:01.937399,4.0,42.0,356.0
2021-12-12-21:47:01.939393,4.0,42.0,356.0
2021-12-12-21:47:01.939393,3.0,49.0,357.0
2021-12-12-21:47:01.940391,9.0,10.0,356.0
2021-12-12-21:47:01.941389,9.0,10.0,356.0
2021-12-12-21:47:01.942385,9.0,10.0,356.0
2021-12-12-21:47:01.943383,9.0,10.0,356.0
2021-12-12-21:47:01.944380,10.0,4.0,356.0
2021-12-12-21:47:01.945377,21.0,28.0,356.0
2021-12-12-21:47:01.946375,21.0,28.0,356.0
2021-12-12-21:47:01.947372,21.0,28.0,356.0
2021-12-12-21:47:01.948370,15.0,43.0,356.0
2021-12-12-21:47:01.949367,4.0,2.0,356.0
2021-12-12-21:47:01.950365,4.0,2.0,356.0
2021-12-12-21:47:01.951361,4.0,2.0,356.0
2021-12-12-21:47:01.952359,1.0,11.0,356.0
2021-12-12-21:47:01.953356,8.0,12.0,356.0
2021-12-12-21:47:01.954354,10.0,10.0,356.0
2021-12-12-21:47:01.955351,10.0,10.0,356.0
2021-12-12-21:47:01.956348,9.0,20.0,356.0
2021-12-12-21:47:01.957345,17.0,7.0,356.0
2021-12-12-21:47:01.958343,17.0,7.0,356.0
2021-12-12-21:47:01.959340,17.0,7.0,356.0
2021-12-12-21:47:01.960337,16.0,13.0,356.0
2021-12-12-21:47:01.961335,21.0,19.0,356.0
2021-12-12-21:47:01.962332,21.0,19.0,356.0
2021-12-12-21:47:01.963329,21.0,19.0,356.0
2021-12-12-21:47:01.964327,1.0,19.0,356.0
2021-12-12-21:47:01.965324,0.0,9.0,356.0
2021-12-12-21:47:01.966321,0.0,9.0,356.0
2021-12-12-21:47:01.967320,0.0,9.0,356.0
2021-12-12-21:47:01.968317,6.0,7.0,356.0
2021-12-12-21:47:01.969314,1.0,16.0,356.0
2021-12-12-21:47:01.970311,1.0,16.0,356.0
2021-12-12-21:47:01.971308,1.0,16.0,356.0
2021-12-12-21:47:01.972306,3.0,26.0,356.0
2021-12-12-21:47:01.974301,6.0,24.0,356.0
2021-12-12-21:47:01.974301,7.0,12.0,356.0
2021-12-12-21:47:01.975298,7.0,12.0,356.0
2021-12-12-21:47:01.976295,7.0,12.0,356.0
2021-12-12-21:47:01.977293,10.0,3.0,356.0
2021-12-12-21:47:01.978290,15.0,21.0,356.0
2021-12-12-21:47:01.979287,15.0,21.0,356.0
2021-12-12-21:47:01.980285,15.0,21.0,356.0
2021-12-12-21:47:01.981282,11.0,28.0,356.0
2021-12-12-21:47:01.982280,1.0,8.0,356.0
2021-12-12-21:47:01.983277,1.0,8.0,356.0
2021-12-12-21:47:01.984274,1.0,8.0,356.0
2021-12-12-21:47:01.985272,5.0,7.0,356.0
2021-12-12-21:47:01.986269,1.0,14.0,356.0
2021-12-12-21:47:01.987266,1.0,14.0,356.0
2021-12-12-21:47:01.988263,1.0,14.0,356.0
2021-12-12-21:47:01.989261,5.0,16.0,356.0
2021-12-12-21:47:01.990258,7.0,6.0,356.0
2021-12-12-21:47:01.991255,7.0,6.0,356.0
2021-12-12-21:47:01.992253,7.0,6.0,356.0
2021-12-12-21:47:01.993250,7.0,21.0,356.0
2021-12-12-21:47:01.994247,14.0,37.0,356.0
2021-12-12-21:47:01.995244,14.0,37.0,356.0
2021-12-12-21:47:01.996242,14.0,37.0,356.0
2021-12-12-21:47:01.997240,13.0,57.0,356.0
2021-12-12-21:47:01.998237,3.0,34.0,356.0
2021-12-12-21:47:01.999234,3.0,34.0,356.0
2021-12-12-21:47:02.000231,3.0,34.0,356.0
2021-12-12-21:47:02.001229,2.0,6.0,356.0
2021-12-12-21:47:02.002226,1.0,6.0,356.0
2021-12-12-21:47:02.003223,1.0,6.0,356.0
2021-12-12-21:47:02.004220,1.0,6.0,356.0
2021-12-12-21:47:02.005218,7.0,1.0,357.0
2021-12-12-21:47:02.006215,7.0,1.0,357.0
2021-12-12-21:47:02.007212,7.0,1.0,357.0
2021-12-12-21:47:02.009208,7.0,1.0,357.0
2021-12-12-21:47:02.009208,12.0,21.0,356.0
2021-12-12-21:47:02.010205,12.0,21.0,356.0
2021-12-12-21:47:02.011202,12.0,21.0,356.0
2021-12-12-21:47:02.012199,12.0,21.0,356.0
2021-12-12-21:47:02.013196,12.0,21.0,356.0
2021-12-12-21:47:02.014195,14.0,44.0,356.0
2021-12-12-21:47:02.015191,6.0,22.0,356.0
2021-12-12-21:47:02.016188,6.0,22.0,356.0
2021-12-12-21:47:02.017186,6.0,22.0,356.0
2021-12-12-21:47:02.018217,3.0,5.0,356.0
2021-12-12-21:47:02.019213,3.0,18.0,356.0
2021-12-12-21:47:02.020216,3.0,18.0,356.0
2021-12-12-21:47:02.021208,3.0,18.0,356.0
2021-12-12-21:47:02.022205,3.0,26.0,356.0
2021-12-12-21:47:02.023203,5.0,13.0,356.0
2021-12-12-21:47:02.024206,5.0,13.0,356.0
2021-12-12-21:47:02.025205,5.0,13.0,356.0
2021-12-12-21:47:02.026196,7.0,6.0,356.0
2021-12-12-21:47:02.027193,13.0,15.0,356.0
2021-12-12-21:47:02.028191,13.0,15.0,356.0
2021-12-12-21:47:02.029154,13.0,15.0,356.0
2021-12-12-21:47:02.030188,17.0,42.0,356.0
2021-12-12-21:47:02.031148,4.0,28.0,356.0
2021-12-12-21:47:02.032180,4.0,28.0,356.0
2021-12-12-21:47:02.033144,4.0,28.0,356.0
2021-12-12-21:47:02.034174,6.0,3.0,356.0
2021-12-12-21:47:02.035172,5.0,15.0,356.0
2021-12-12-21:47:02.036170,5.0,15.0,356.0
2021-12-12-21:47:02.037134,5.0,15.0,356.0
2021-12-12-21:47:02.038165,3.0,38.0,356.0
2021-12-12-21:47:02.039162,3.0,27.0,356.0
2021-12-12-21:47:02.040159,3.0,27.0,356.0
2021-12-12-21:47:02.042153,3.0,27.0,356.0
2021-12-12-21:47:02.042153,9.0,5.0,356.0
2021-12-12-21:47:02.043149,9.0,5.0,356.0
2021-12-12-21:47:02.044149,9.0,5.0,356.0
2021-12-12-21:47:02.045145,9.0,5.0,356.0
2021-12-12-21:47:02.046143,15.0,44.0,356.0
2021-12-12-21:47:02.047140,10.0,26.0,356.0
2021-12-12-21:47:02.048138,10.0,26.0,356.0
2021-12-12-21:47:02.049136,10.0,26.0,356.0
2021-12-12-21:47:02.050132,10.0,26.0,356.0
2021-12-12-21:47:02.051130,4.0,23.0,356.0
2021-12-12-21:47:02.052127,0.0,27.0,356.0
2021-12-12-21:47:02.053124,0.0,27.0,356.0
2021-12-12-21:47:02.054087,0.0,27.0,356.0
2021-12-12-21:47:02.055085,2.0,26.0,356.0
2021-12-12-21:47:02.056116,1.0,15.0,356.0
2021-12-12-21:47:02.057119,1.0,15.0,356.0
2021-12-12-21:47:02.058077,1.0,15.0,356.0
2021-12-12-21:47:02.059074,0.0,6.0,357.0
2021-12-12-21:47:02.060072,3.0,4.0,356.0
2021-12-12-21:47:02.061096,3.0,4.0,356.0
2021-12-12-21:47:02.062065,3.0,4.0,356.0
2021-12-12-21:47:02.063064,21.0,12.0,356.0
2021-12-12-21:47:02.064061,10.0,22.0,356.0
2021-12-12-21:47:02.065058,10.0,22.0,356.0
2021-12-12-21:47:02.066055,10.0,22.0,356.0
2021-12-12-21:47:02.067052,1.0,0.0,356.0
2021-12-12-21:47:02.068050,3.0,19.0,356.0
2021-12-12-21:47:02.069047,3.0,19.0,356.0
2021-12-12-21:47:02.070044,3.0,19.0,356.0
2021-12-12-21:47:02.071041,2.0,25.0,356.0
2021-12-12-21:47:02.072073,2.0,31.0,356.0
2021-12-12-21:47:02.073072,2.0,31.0,356.0
2021-12-12-21:47:02.074036,2.0,31.0,356.0
2021-12-12-21:47:02.075065,6.0,13.0,356.0
2021-12-12-21:47:02.077059,7.0,3.0,356.0
2021-12-12-21:47:02.077059,7.0,3.0,356.0
2021-12-12-21:47:02.078057,7.0,3.0,356.0
2021-12-12-21:47:02.079021,11.0,24.0,356.0
2021-12-12-21:47:02.080054,11.0,24.0,356.0
2021-12-12-21:47:02.081017,11.0,24.0,356.0
2021-12-12-21:47:02.082047,11.0,24.0,356.0
2021-12-12-21:47:02.083043,7.0,19.0,356.0
2021-12-12-21:47:02.084042,2.0,5.0,356.0
2021-12-12-21:47:02.085043,2.0,5.0,356.0
2021-12-12-21:47:02.086034,2.0,5.0,356.0
2021-12-12-21:47:02.087032,2.0,5.0,356.0
2021-12-12-21:47:02.088029,2.0,16.0,356.0
2021-12-12-21:47:02.089030,2.0,32.0,356.0
2021-12-12-21:47:02.090024,2.0,32.0,356.0
2021-12-12-21:47:02.091021,2.0,32.0,356.0
2021-12-12-21:47:02.092021,5.0,4.0,356.0
2021-12-12-21:47:02.093017,5.0,4.0,356.0
2021-12-12-21:47:02.094014,5.0,4.0,356.0
2021-12-12-21:47:02.095016,5.0,4.0,356.0
2021-12-12-21:47:02.096008,14.0,30.0,357.0
2021-12-12-21:47:02.097008,15.0,26.0,356.0
2021-12-12-21:47:02.097970,15.0,26.0,356.0
2021-12-12-21:47:02.098968,15.0,26.0,356.0
2021-12-12-21:47:02.100000,8.0,20.0,356.0
2021-12-12-21:47:02.100984,1.0,11.0,356.0
2021-12-12-21:47:02.101959,1.0,11.0,356.0
2021-12-12-21:47:02.102958,1.0,11.0,356.0
2021-12-12-21:47:02.103989,3.0,20.0,356.0
2021-12-12-21:47:02.104987,2.0,22.0,356.0
2021-12-12-21:47:02.105983,2.0,22.0,356.0
2021-12-12-21:47:02.106947,2.0,22.0,356.0
2021-12-12-21:47:02.107979,2.0,22.0,356.0
2021-12-12-21:47:02.109972,7.0,8.0,356.0
2021-12-12-21:47:02.109972,7.0,8.0,356.0
2021-12-12-21:47:02.110936,7.0,8.0,356.0
2021-12-12-21:47:02.111967,21.0,42.0,356.0
2021-12-12-21:47:02.112966,10.0,42.0,356.0
2021-12-12-21:47:02.113962,10.0,42.0,356.0
2021-12-12-21:47:02.114925,10.0,42.0,356.0
2021-12-12-21:47:02.115957,7.0,11.0,356.0
2021-12-12-21:47:02.116953,7.0,11.0,356.0
2021-12-12-21:47:02.117952,7.0,11.0,356.0
2021-12-12-21:47:02.118953,7.0,11.0,356.0
2021-12-12-21:47:02.119946,7.0,11.0,356.0
2021-12-12-21:47:02.120944,0.0,29.0,356.0
2021-12-12-21:47:02.121906,0.0,29.0,356.0
2021-12-12-21:47:02.122942,0.0,29.0,356.0
2021-12-12-21:47:02.123905,2.0,16.0,356.0
2021-12-12-21:47:02.124932,2.0,16.0,356.0
2021-12-12-21:47:02.125897,10.0,6.0,356.0
2021-12-12-21:47:02.126926,10.0,6.0,356.0
2021-12-12-21:47:02.127924,10.0,6.0,356.0
2021-12-12-21:47:02.128927,17.0,33.0,356.0
2021-12-12-21:47:02.129917,10.0,51.0,356.0
2021-12-12-21:47:02.130882,10.0,51.0,356.0
2021-12-12-21:47:02.131880,10.0,51.0,356.0
2021-12-12-21:47:02.132913,1.0,23.0,356.0
2021-12-12-21:47:02.133912,4.0,5.0,356.0
2021-12-12-21:47:02.134908,4.0,5.0,356.0
2021-12-12-21:47:02.135903,4.0,5.0,356.0
2021-12-12-21:47:02.136902,3.0,19.0,356.0
2021-12-12-21:47:02.137896,5.0,22.0,356.0
2021-12-12-21:47:02.138893,5.0,22.0,356.0
2021-12-12-21:47:02.139866,5.0,22.0,356.0
2021-12-12-21:47:02.140891,1.0,13.0,356.0
2021-12-12-21:47:02.141852,4.0,11.0,356.0
2021-12-12-21:47:02.142850,4.0,10.0,356.0
2021-12-12-21:47:02.144844,7.0,2.0,356.0
2021-12-12-21:47:02.144844,5.0,18.0,356.0
2021-12-12-21:47:02.145842,17.0,45.0,356.0
2021-12-12-21:47:02.146839,18.0,53.0,356.0
2021-12-12-21:47:02.147836,18.0,53.0,356.0
2021-12-12-21:47:02.148867,4.0,36.0,356.0
2021-12-12-21:47:02.149864,1.0,0.0,356.0
2021-12-12-21:47:02.150828,1.0,0.0,356.0
2021-12-12-21:47:02.151825,1.0,0.0,356.0
2021-12-12-21:47:02.152822,3.0,16.0,356.0
2021-12-12-21:47:02.153820,3.0,16.0,356.0
2021-12-12-21:47:02.154817,3.0,16.0,356.0
2021-12-12-21:47:02.155814,3.0,16.0,356.0
2021-12-12-21:47:02.156812,3.0,16.0,356.0
2021-12-12-21:47:02.157809,6.0,0.0,356.0
2021-12-12-21:47:02.158807,7.0,9.0,356.0
2021-12-12-21:47:02.159805,7.0,9.0,356.0
2021-12-12-21:47:02.160801,7.0,9.0,356.0
2021-12-12-21:47:02.161799,8.0,27.0,356.0
2021-12-12-21:47:02.162796,18.0,41.0,356.0
2021-12-12-21:47:02.163793,17.0,52.0,356.0
2021-12-12-21:47:02.164791,17.0,52.0,356.0
2021-12-12-21:47:02.165788,5.0,32.0,356.0
2021-12-12-21:47:02.166785,1.0,1.0,356.0
2021-12-12-21:47:02.167782,1.0,1.0,356.0
2021-12-12-21:47:02.168780,1.0,1.0,356.0
2021-12-12-21:47:02.169777,6.0,7.0,356.0
2021-12-12-21:47:02.170775,5.0,8.0,356.0
2021-12-12-21:47:02.171772,7.0,20.0,356.0
2021-12-12-21:47:02.172769,7.0,20.0,356.0
2021-12-12-21:47:02.173766,6.0,14.0,356.0
2021-12-12-21:47:02.174764,14.0,2.0,356.0
2021-12-12-21:47:02.175761,14.0,2.0,356.0
2021-12-12-21:47:02.176758,14.0,2.0,356.0
2021-12-12-21:47:02.177756,9.0,5.0,356.0
2021-12-12-21:47:02.179750,16.0,32.0,356.0
2021-12-12-21:47:02.179750,14.0,48.0,356.0
2021-12-12-21:47:02.180748,4.0,43.0,356.0
2021-12-12-21:47:02.181745,4.0,7.0,356.0
2021-12-12-21:47:02.182743,4.0,7.0,356.0
2021-12-12-21:47:02.183740,4.0,7.0,356.0
2021-12-12-21:47:02.184737,4.0,7.0,356.0
2021-12-12-21:47:02.185734,1.0,23.0,356.0
2021-12-12-21:47:02.186732,2.0,24.0,356.0
2021-12-12-21:47:02.187729,7.0,23.0,356.0
2021-12-12-21:47:02.188726,7.0,23.0,356.0
2021-12-12-21:47:02.189724,2.0,34.0,356.0
2021-12-12-21:47:02.190722,5.0,1.0,356.0
2021-12-12-21:47:02.191718,5.0,1.0,356.0
2021-12-12-21:47:02.192716,5.0,1.0,356.0
2021-12-12-21:47:02.193713,8.0,15.0,356.0
2021-12-12-21:47:02.194710,19.0,44.0,356.0
2021-12-12-21:47:02.195708,19.0,44.0,356.0
2021-12-12-21:47:02.196705,19.0,44.0,356.0
2021-12-12-21:47:02.197703,19.0,44.0,356.0
2021-12-12-21:47:02.198700,1.0,11.0,356.0
2021-12-12-21:47:02.199697,1.0,11.0,356.0
2021-12-12-21:47:02.200695,1.0,11.0,356.0
2021-12-12-21:47:02.201692,1.0,11.0,356.0
2021-12-12-21:47:02.202689,1.0,11.0,356.0
2021-12-12-21:47:02.203686,1.0,16.0,356.0
2021-12-12-21:47:02.204683,1.0,16.0,356.0
2021-12-12-21:47:02.205681,1.0,16.0,356.0
2021-12-12-21:47:02.206678,0.0,10.0,356.0
2021-12-12-21:47:02.207676,4.0,5.0,356.0
2021-12-12-21:47:02.208674,4.0,5.0,356.0
2021-12-12-21:47:02.210668,4.0,5.0,356.0
2021-12-12-21:47:02.210668,22.0,16.0,356.0
2021-12-12-21:47:02.211665,22.0,16.0,356.0
2021-12-12-21:47:02.212662,22.0,16.0,356.0
2021-12-12-21:47:02.213660,22.0,16.0,356.0
2021-12-12-21:47:02.214657,8.0,22.0,356.0
2021-12-12-21:47:02.215654,3.0,17.0,356.0
2021-12-12-21:47:02.216652,3.0,17.0,356.0
2021-12-12-21:47:02.217649,3.0,17.0,356.0
2021-12-12-21:47:02.218648,7.0,6.0,356.0
2021-12-12-21:47:02.219645,1.0,21.0,356.0
2021-12-12-21:47:02.220643,1.0,21.0,356.0
2021-12-12-21:47:02.221640,1.0,21.0,356.0
2021-12-12-21:47:02.222637,0.0,28.0,356.0
2021-12-12-21:47:02.223635,7.0,7.0,356.0
2021-12-12-21:47:02.224632,7.0,7.0,356.0
2021-12-12-21:47:02.225628,7.0,7.0,356.0
2021-12-12-21:47:02.226627,11.0,19.0,356.0
2021-12-12-21:47:02.227624,11.0,13.0,356.0
2021-12-12-21:47:02.228621,19.0,40.0,356.0
2021-12-12-21:47:02.229619,19.0,40.0,356.0
2021-12-12-21:47:02.230616,14.0,53.0,356.0
2021-12-12-21:47:02.231614,4.0,21.0,356.0
2021-12-12-21:47:02.232611,4.0,21.0,356.0
2021-12-12-21:47:02.233608,4.0,21.0,356.0
2021-12-12-21:47:02.234607,1.0,14.0,356.0
2021-12-12-21:47:02.235603,3.0,1.0,357.0
2021-12-12-21:47:02.236600,3.0,1.0,357.0
2021-12-12-21:47:02.237597,3.0,1.0,357.0
2021-12-12-21:47:02.238594,3.0,1.0,357.0
2021-12-12-21:47:02.239592,7.0,14.0,357.0
2021-12-12-21:47:02.240589,13.0,1.0,357.0
2021-12-12-21:47:02.241587,13.0,1.0,357.0
2021-12-12-21:47:02.242584,13.0,1.0,357.0
2021-12-12-21:47:02.243581,7.0,4.0,357.0
2021-12-12-21:47:02.245576,8.0,21.0,356.0
2021-12-12-21:47:02.245576,7.0,32.0,357.0
2021-12-12-21:47:02.246573,7.0,32.0,357.0
2021-12-12-21:47:02.247571,7.0,32.0,357.0
2021-12-12-21:47:02.248568,7.0,32.0,357.0
2021-12-12-21:47:02.249566,7.0,32.0,357.0
2021-12-12-21:47:02.250563,7.0,32.0,357.0
2021-12-12-21:47:02.251560,12.0,5.0,356.0
2021-12-12-21:47:02.252557,9.0,6.0,356.0
2021-12-12-21:47:02.253555,9.0,6.0,356.0
2021-12-12-21:47:02.254552,9.0,6.0,356.0
2021-12-12-21:47:02.255549,7.0,12.0,357.0
2021-12-12-21:47:02.256547,8.0,11.0,356.0
2021-12-12-21:47:02.257544,8.0,11.0,356.0
2021-12-12-21:47:02.258541,8.0,11.0,356.0
2021-12-12-21:47:02.259539,10.0,14.0,357.0
2021-12-12-21:47:02.260536,9.0,28.0,356.0
2021-12-12-21:47:02.261533,9.0,28.0,356.0
2021-12-12-21:47:02.262531,9.0,28.0,356.0
2021-12-12-21:47:02.263528,15.0,54.0,356.0
2021-12-12-21:47:02.264526,9.0,45.0,356.0
2021-12-12-21:47:02.265523,9.0,45.0,356.0
2021-12-12-21:47:02.266521,9.0,45.0,356.0
2021-12-12-21:47:02.267518,9.0,45.0,356.0
2021-12-12-21:47:02.268515,5.0,3.0,356.0
2021-12-12-21:47:02.269512,5.0,3.0,356.0
2021-12-12-21:47:02.270510,5.0,3.0,356.0
2021-12-12-21:47:02.271507,5.0,3.0,356.0
2021-12-12-21:47:02.272504,4.0,31.0,356.0
2021-12-12-21:47:02.273501,4.0,31.0,356.0
2021-12-12-21:47:02.274500,4.0,31.0,356.0
2021-12-12-21:47:02.275496,4.0,31.0,356.0
2021-12-12-21:47:02.276493,10.0,14.0,357.0
2021-12-12-21:47:02.277491,10.0,14.0,357.0
2021-12-12-21:47:02.279485,10.0,14.0,357.0
2021-12-12-21:47:02.279485,10.0,14.0,357.0
2021-12-12-21:47:02.280483,21.0,38.0,356.0
2021-12-12-21:47:02.281480,20.0,19.0,357.0
2021-12-12-21:47:02.282477,20.0,19.0,357.0
2021-12-12-21:47:02.283475,20.0,19.0,357.0
2021-12-12-21:47:02.284472,15.0,4.0,356.0
2021-12-12-21:47:02.285469,3.0,32.0,356.0
2021-12-12-21:47:02.286466,3.0,32.0,356.0
2021-12-12-21:47:02.287464,3.0,32.0,356.0
2021-12-12-21:47:02.288461,13.0,31.0,356.0
2021-12-12-21:47:02.289458,6.0,18.0,357.0
2021-12-12-21:47:02.290455,6.0,18.0,357.0
2021-12-12-21:47:02.291453,6.0,18.0,357.0
2021-12-12-21:47:02.292450,1.0,10.0,356.0
2021-12-12-21:47:02.293448,4.0,1.0,357.0
2021-12-12-21:47:02.294445,4.0,1.0,357.0
2021-12-12-21:47:02.295442,4.0,1.0,357.0
2021-12-12-21:47:02.296480,9.0,38.0,356.0
2021-12-12-21:47:02.297470,9.0,38.0,356.0
2021-12-12-21:47:02.298469,9.0,38.0,356.0
2021-12-12-21:47:02.299431,9.0,38.0,356.0
2021-12-12-21:47:02.300462,2.0,4.0,357.0
2021-12-12-21:47:02.301460,3.0,28.0,356.0
2021-12-12-21:47:02.302457,3.0,28.0,356.0
2021-12-12-21:47:02.303421,3.0,28.0,356.0
2021-12-12-21:47:02.304453,4.0,23.0,356.0
2021-12-12-21:47:02.305449,0.0,41.0,357.0
2021-12-12-21:47:02.306446,0.0,41.0,357.0
2021-12-12-21:47:02.307446,0.0,41.0,357.0
2021-12-12-21:47:02.308441,7.0,6.0,356.0
2021-12-12-21:47:02.309438,7.0,6.0,356.0
2021-12-12-21:47:02.310436,7.0,6.0,356.0
2021-12-12-21:47:02.311432,7.0,6.0,356.0
2021-12-12-21:47:02.312432,19.0,26.0,357.0
2021-12-12-21:47:02.314391,12.0,46.0,356.0
2021-12-12-21:47:02.314391,12.0,46.0,356.0
2021-12-12-21:47:02.315423,12.0,46.0,356.0
2021-12-12-21:47:02.316386,12.0,46.0,356.0
2021-12-12-21:47:02.317383,5.0,5.0,357.0
2021-12-12-21:47:02.318420,5.0,5.0,357.0
2021-12-12-21:47:02.319378,5.0,5.0,357.0
2021-12-12-21:47:02.320412,5.0,5.0,357.0
2021-12-12-21:47:02.321407,5.0,12.0,356.0
2021-12-12-21:47:02.322370,6.0,20.0,356.0
2021-12-12-21:47:02.323401,2.0,19.0,356.0
2021-12-12-21:47:02.324397,2.0,19.0,356.0
2021-12-12-21:47:02.325361,4.0,11.0,356.0
2021-12-12-21:47:02.326359,9.0,20.0,356.0
2021-12-12-21:47:02.327357,9.0,20.0,356.0
2021-12-12-21:47:02.328382,9.0,20.0,356.0
2021-12-12-21:47:02.329351,22.0,49.0,356.0
2021-12-12-21:47:02.330376,12.0,17.0,356.0
2021-12-12-21:47:02.331346,12.0,17.0,356.0
2021-12-12-21:47:02.332343,12.0,17.0,356.0
2021-12-12-21:47:02.333367,2.0,5.0,356.0
2021-12-12-21:47:02.334371,3.0,17.0,356.0
2021-12-12-21:47:02.335372,3.0,17.0,356.0
2021-12-12-21:47:02.336333,3.0,17.0,356.0
2021-12-12-21:47:02.337332,2.0,0.0,356.0
2021-12-12-21:47:02.338327,2.0,0.0,356.0
2021-12-12-21:47:02.339358,2.0,0.0,356.0
2021-12-12-21:47:02.340321,2.0,0.0,356.0
2021-12-12-21:47:02.341370,4.0,7.0,356.0
2021-12-12-21:47:02.342316,16.0,13.0,356.0
2021-12-12-21:47:02.343314,16.0,13.0,356.0
2021-12-12-21:47:02.344310,16.0,13.0,356.0
2021-12-12-21:47:02.345344,20.0,30.0,357.0
2021-12-12-21:47:02.346305,9.0,44.0,356.0
2021-12-12-21:47:02.348300,9.0,44.0,356.0
2021-12-12-21:47:02.348300,9.0,44.0,356.0
2021-12-12-21:47:02.349297,4.0,17.0,356.0
2021-12-12-21:47:02.350329,4.0,17.0,356.0
2021-12-12-21:47:02.351325,4.0,17.0,356.0
2021-12-12-21:47:02.352328,4.0,17.0,356.0
2021-12-12-21:47:02.353321,4.0,17.0,356.0
2021-12-12-21:47:02.354318,5.0,38.0,356.0
2021-12-12-21:47:02.355317,5.0,38.0,356.0
2021-12-12-21:47:02.356313,5.0,38.0,356.0
2021-12-12-21:47:02.357310,5.0,38.0,356.0
2021-12-12-21:47:02.358275,4.0,2.0,356.0
2021-12-12-21:47:02.359272,9.0,8.0,356.0
2021-12-12-21:47:02.360303,9.0,8.0,356.0
2021-12-12-21:47:02.361266,9.0,8.0,356.0
2021-12-12-21:47:02.362295,24.0,15.0,356.0
2021-12-12-21:47:02.363295,14.0,35.0,356.0
2021-12-12-21:47:02.364257,14.0,35.0,356.0
2021-12-12-21:47:02.365288,14.0,35.0,356.0
2021-12-12-21:47:02.366290,2.0,12.0,357.0
2021-12-12-21:47:02.367282,8.0,1.0,356.0
2021-12-12-21:47:02.368282,8.0,1.0,356.0
2021-12-12-21:47:02.369279,8.0,1.0,356.0
2021-12-12-21:47:02.370242,8.0,19.0,356.0
2021-12-12-21:47:02.371239,5.0,33.0,356.0
2021-12-12-21:47:02.372236,5.0,33.0,356.0
2021-12-12-21:47:02.373235,5.0,33.0,356.0
2021-12-12-21:47:02.374264,3.0,37.0,356.0
2021-12-12-21:47:02.375228,4.0,2.0,357.0
2021-12-12-21:47:02.376226,4.0,2.0,357.0
2021-12-12-21:47:02.377223,4.0,2.0,357.0
2021-12-12-21:47:02.378253,22.0,23.0,356.0
2021-12-12-21:47:02.379217,21.0,62.0,356.0
2021-12-12-21:47:02.380215,21.0,62.0,356.0
2021-12-12-21:47:02.381212,21.0,62.0,356.0
2021-12-12-21:47:02.383240,9.0,37.0,356.0
2021-12-12-21:47:02.383240,9.0,37.0,356.0
2021-12-12-21:47:02.384206,6.0,10.0,356.0
2021-12-12-21:47:02.385201,6.0,10.0,356.0
2021-12-12-21:47:02.386198,6.0,10.0,356.0
2021-12-12-21:47:02.387231,7.0,37.0,356.0
2021-12-12-21:47:02.388194,7.0,37.0,356.0
2021-12-12-21:47:02.389224,7.0,37.0,356.0
2021-12-12-21:47:02.390222,5.0,14.0,356.0
2021-12-12-21:47:02.391218,7.0,2.0,356.0
2021-12-12-21:47:02.392218,7.0,2.0,356.0
2021-12-12-21:47:02.393214,7.0,2.0,356.0
2021-12-12-21:47:02.394210,7.0,2.0,356.0
2021-12-12-21:47:02.395209,11.0,14.0,356.0
2021-12-12-21:47:02.396173,15.0,60.0,356.0
2021-12-12-21:47:02.397170,15.0,60.0,356.0
2021-12-12-21:47:02.398167,15.0,60.0,356.0
2021-12-12-21:47:02.399198,6.0,33.0,356.0
2021-12-12-21:47:02.400197,6.0,3.0,356.0
2021-12-12-21:47:02.401192,6.0,3.0,356.0
2021-12-12-21:47:02.402164,6.0,3.0,356.0
2021-12-12-21:47:02.403153,6.0,18.0,356.0
2021-12-12-21:47:02.404150,3.0,46.0,356.0
2021-12-12-21:47:02.405148,3.0,46.0,356.0
2021-12-12-21:47:02.406145,3.0,46.0,356.0
2021-12-12-21:47:02.407144,3.0,46.0,356.0
2021-12-12-21:47:02.408140,4.0,7.0,357.0
2021-12-12-21:47:02.409138,4.0,7.0,357.0
2021-12-12-21:47:02.410135,4.0,7.0,357.0
2021-12-12-21:47:02.411167,13.0,1.0,356.0
2021-12-12-21:47:02.412162,24.0,47.0,356.0
2021-12-12-21:47:02.413159,24.0,47.0,356.0
2021-12-12-21:47:02.414125,24.0,47.0,356.0
2021-12-12-21:47:02.416119,3.0,32.0,356.0
2021-12-12-21:47:02.416119,3.0,32.0,356.0
2021-12-12-21:47:02.417141,3.0,1.0,356.0
2021-12-12-21:47:02.418113,3.0,1.0,356.0
2021-12-12-21:47:02.419111,3.0,31.0,356.0
2021-12-12-21:47:02.420108,6.0,26.0,356.0
2021-12-12-21:47:02.421155,6.0,26.0,356.0
2021-12-12-21:47:02.422103,6.0,26.0,356.0
2021-12-12-21:47:02.423102,6.0,26.0,356.0
2021-12-12-21:47:02.424133,8.0,11.0,356.0
2021-12-12-21:47:02.425095,8.0,11.0,356.0
2021-12-12-21:47:02.426125,8.0,11.0,356.0
2021-12-12-21:47:02.427089,9.0,5.0,356.0
2021-12-12-21:47:02.428086,20.0,0.0,356.0
2021-12-12-21:47:02.429084,22.0,40.0,356.0
2021-12-12-21:47:02.430081,22.0,40.0,356.0
2021-12-12-21:47:02.431078,22.0,40.0,356.0
2021-12-12-21:47:02.432077,4.0,20.0,356.0
2021-12-12-21:47:02.433074,4.0,20.0,356.0
2021-12-12-21:47:02.434071,4.0,20.0,356.0
2021-12-12-21:47:02.435069,4.0,20.0,356.0
2021-12-12-21:47:02.436066,5.0,8.0,356.0
2021-12-12-21:47:02.437063,5.0,5.0,356.0
2021-12-12-21:47:02.438061,5.0,5.0,356.0
2021-12-12-21:47:02.439058,5.0,5.0,356.0
2021-12-12-21:47:02.440056,4.0,40.0,356.0
2021-12-12-21:47:02.441053,9.0,20.0,356.0
2021-12-12-21:47:02.442050,9.0,20.0,356.0
2021-12-12-21:47:02.443048,9.0,20.0,356.0
2021-12-12-21:47:02.444045,13.0,8.0,357.0
2021-12-12-21:47:02.445042,17.0,61.0,356.0
2021-12-12-21:47:02.446038,17.0,61.0,356.0
2021-12-12-21:47:02.447036,17.0,61.0,356.0
2021-12-12-21:47:02.448033,3.0,32.0,357.0
2021-12-12-21:47:02.449030,0.0,19.0,356.0
2021-12-12-21:47:02.451026,0.0,19.0,356.0
2021-12-12-21:47:02.451026,0.0,19.0,356.0
2021-12-12-21:47:02.452055,1.0,65.0,356.0
2021-12-12-21:47:02.453057,1.0,65.0,356.0
2021-12-12-21:47:02.454051,1.0,65.0,356.0
2021-12-12-21:47:02.455015,1.0,65.0,356.0
2021-12-12-21:47:02.456048,3.0,64.0,356.0
2021-12-12-21:47:02.457044,1.0,28.0,356.0
2021-12-12-21:47:02.458039,1.0,28.0,356.0
2021-12-12-21:47:02.459004,1.0,28.0,356.0
2021-12-12-21:47:02.460002,3.0,40.0,356.0
2021-12-12-21:47:02.461032,20.0,26.0,356.0
2021-12-12-21:47:02.462029,20.0,26.0,356.0
2021-12-12-21:47:02.463027,20.0,26.0,356.0
2021-12-12-21:47:02.463991,20.0,26.0,356.0
2021-12-12-21:47:02.464988,21.0,65.0,356.0
2021-12-12-21:47:02.466014,3.0,39.0,356.0
2021-12-12-21:47:02.466983,3.0,39.0,356.0
2021-12-12-21:47:02.467981,3.0,39.0,356.0
2021-12-12-21:47:02.468977,6.0,25.0,357.0
2021-12-12-21:47:02.469975,8.0,13.0,356.0
2021-12-12-21:47:02.470972,5.0,5.0,356.0
2021-12-12-21:47:02.471969,5.0,5.0,356.0
2021-12-12-21:47:02.472967,6.0,11.0,356.0
2021-12-12-21:47:02.473964,7.0,20.0,356.0
2021-12-12-21:47:02.474962,1.0,1.0,357.0
2021-12-12-21:47:02.475975,6.0,23.0,356.0
2021-12-12-21:47:02.476956,18.0,33.0,356.0
2021-12-12-21:47:02.477953,18.0,33.0,356.0
2021-12-12-21:47:02.478951,18.0,33.0,356.0
2021-12-12-21:47:02.479948,18.0,33.0,356.0
2021-12-12-21:47:02.480945,15.0,39.0,356.0
2021-12-12-21:47:02.482940,8.0,2.0,356.0
2021-12-12-21:47:02.482940,8.0,2.0,356.0
2021-12-12-21:47:02.483937,4.0,4.0,356.0
2021-12-12-21:47:02.484968,5.0,16.0,356.0
2021-12-12-21:47:02.485966,5.0,16.0,356.0
2021-12-12-21:47:02.486966,5.0,16.0,356.0
2021-12-12-21:47:02.487927,5.0,16.0,356.0
2021-12-12-21:47:02.488957,3.0,4.0,356.0
2021-12-12-21:47:02.489955,5.0,28.0,356.0
2021-12-12-21:47:02.490953,5.0,28.0,356.0
2021-12-12-21:47:02.491916,5.0,28.0,356.0
2021-12-12-21:47:02.492913,10.0,49.0,356.0
2021-12-12-21:47:02.493910,7.0,14.0,356.0
2021-12-12-21:47:02.494908,7.0,14.0,356.0
2021-12-12-21:47:02.495911,7.0,14.0,356.0
2021-12-12-21:47:02.496902,4.0,44.0,356.0
2021-12-12-21:47:02.497900,4.0,44.0,356.0
2021-12-12-21:47:02.498898,4.0,44.0,356.0
2021-12-12-21:47:02.499896,4.0,44.0,356.0
2021-12-12-21:47:02.500892,4.0,44.0,356.0
2021-12-12-21:47:02.501889,12.0,65.0,356.0
2021-12-12-21:47:02.502887,13.0,71.0,356.0
2021-12-12-21:47:02.503884,15.0,70.0,356.0
2021-12-12-21:47:02.504882,15.0,70.0,356.0
2021-12-12-21:47:02.505882,7.0,36.0,356.0
2021-12-12-21:47:02.506876,7.0,36.0,356.0
2021-12-12-21:47:02.507873,7.0,36.0,356.0
2021-12-12-21:47:02.508870,7.0,36.0,356.0
2021-12-12-21:47:02.509901,9.0,23.0,356.0
2021-12-12-21:47:02.510898,10.0,13.0,356.0
2021-12-12-21:47:02.511903,11.0,3.0,356.0
2021-12-12-21:47:02.512860,11.0,3.0,356.0
2021-12-12-21:47:02.513891,20.0,58.0,356.0
2021-12-12-21:47:02.514855,13.0,39.0,356.0
2021-12-12-21:47:02.516850,13.0,39.0,356.0
2021-12-12-21:47:02.516850,13.0,39.0,356.0
2021-12-12-21:47:02.517848,5.0,14.0,356.0
2021-12-12-21:47:02.518845,5.0,18.0,356.0
2021-12-12-21:47:02.519842,5.0,18.0,356.0
2021-12-12-21:47:02.520839,5.0,18.0,356.0
2021-12-12-21:47:02.521837,10.0,2.0,356.0
2021-12-12-21:47:02.522834,0.0,29.0,356.0
2021-12-12-21:47:02.523832,0.0,29.0,356.0
2021-12-12-21:47:02.524829,0.0,29.0,356.0
2021-12-12-21:47:02.525826,9.0,4.0,356.0
2021-12-12-21:47:02.526824,12.0,3.0,356.0
2021-12-12-21:47:02.527821,12.0,3.0,356.0
2021-12-12-21:47:02.528819,12.0,3.0,356.0
2021-12-12-21:47:02.529816,17.0,19.0,356.0
2021-12-12-21:47:02.530813,10.0,50.0,356.0
2021-12-12-21:47:02.531810,10.0,50.0,356.0
2021-12-12-21:47:02.532808,10.0,50.0,356.0
2021-12-12-21:47:02.533805,5.0,22.0,356.0
2021-12-12-21:47:02.534802,1.0,17.0,356.0
2021-12-12-21:47:02.535800,1.0,17.0,356.0
2021-12-12-21:47:02.536797,1.0,17.0,356.0
2021-12-12-21:47:02.537794,10.0,29.0,356.0
2021-12-12-21:47:02.538791,6.0,24.0,356.0
2021-12-12-21:47:02.539789,6.0,24.0,356.0
2021-12-12-21:47:02.540786,6.0,24.0,356.0
2021-12-12-21:47:02.541784,6.0,24.0,356.0
2021-12-12-21:47:02.542781,14.0,12.0,357.0
2021-12-12-21:47:02.543778,14.0,12.0,357.0
2021-12-12-21:47:02.544776,14.0,12.0,357.0
2021-12-12-21:47:02.545773,14.0,12.0,357.0
2021-12-12-21:47:02.546770,25.0,27.0,356.0
2021-12-12-21:47:02.547768,3.0,20.0,356.0
2021-12-12-21:47:02.548765,3.0,20.0,356.0
2021-12-12-21:47:02.549762,3.0,20.0,356.0
2021-12-12-21:47:02.551759,8.0,16.0,357.0
2021-12-12-21:47:02.551759,8.0,16.0,357.0
2021-12-12-21:47:02.552753,8.0,16.0,357.0
2021-12-12-21:47:02.553752,8.0,16.0,357.0
2021-12-12-21:47:02.554749,5.0,6.0,356.0
2021-12-12-21:47:02.555747,6.0,32.0,356.0
2021-12-12-21:47:02.556744,6.0,32.0,356.0
2021-12-12-21:47:02.557741,6.0,32.0,356.0
2021-12-12-21:47:02.558739,5.0,20.0,356.0
2021-12-12-21:47:02.559738,11.0,12.0,356.0
2021-12-12-21:47:02.560733,15.0,5.0,356.0
2021-12-12-21:47:02.561730,15.0,5.0,356.0
2021-12-12-21:47:02.562727,16.0,47.0,356.0
2021-12-12-21:47:02.563725,5.0,43.0,356.0
2021-12-12-21:47:02.564722,5.0,43.0,356.0
2021-12-12-21:47:02.565720,5.0,43.0,356.0
2021-12-12-21:47:02.566717,0.0,31.0,356.0
2021-12-12-21:47:02.567714,3.0,32.0,356.0
2021-12-12-21:47:02.568712,3.0,32.0,356.0
2021-12-12-21:47:02.569707,3.0,32.0,356.0
2021-12-12-21:47:02.570707,5.0,35.0,356.0
2021-12-12-21:47:02.571705,3.0,49.0,356.0
2021-12-12-21:47:02.572701,3.0,49.0,356.0
2021-12-12-21:47:02.573699,3.0,49.0,356.0
2021-12-12-21:47:02.574698,7.0,18.0,357.0
2021-12-12-21:47:02.575693,5.0,12.0,356.0
2021-12-12-21:47:02.576691,5.0,12.0,356.0
2021-12-12-21:47:02.577688,5.0,12.0,356.0
2021-12-12-21:47:02.578685,5.0,12.0,356.0
2021-12-12-21:47:02.579682,9.0,67.0,356.0
2021-12-12-21:47:02.580680,9.0,67.0,356.0
2021-12-12-21:47:02.581677,9.0,67.0,356.0
2021-12-12-21:47:02.582676,9.0,67.0,356.0
2021-12-12-21:47:02.583672,4.0,40.0,356.0
2021-12-12-21:47:02.584669,1.0,1.0,356.0
2021-12-12-21:47:02.585667,3.0,23.0,356.0
2021-12-12-21:47:02.587661,1.0,21.0,356.0
2021-12-12-21:47:02.587661,4.0,15.0,356.0
2021-12-12-21:47:02.588658,5.0,10.0,356.0
2021-12-12-21:47:02.589655,5.0,10.0,356.0
2021-12-12-21:47:02.590653,5.0,10.0,356.0
2021-12-12-21:47:02.591650,10.0,3.0,356.0
2021-12-12-21:47:02.592647,11.0,0.0,356.0
2021-12-12-21:47:02.593645,11.0,0.0,356.0
2021-12-12-21:47:02.594642,11.0,0.0,356.0
2021-12-12-21:47:02.595640,11.0,2.0,356.0
2021-12-12-21:47:02.596637,10.0,25.0,357.0
2021-12-12-21:47:02.597635,10.0,25.0,357.0
2021-12-12-21:47:02.598632,10.0,25.0,357.0
2021-12-12-21:47:02.599629,8.0,17.0,356.0
2021-12-12-21:47:02.600626,1.0,15.0,356.0
2021-12-12-21:47:02.601623,1.0,15.0,356.0
2021-12-12-21:47:02.602619,1.0,15.0,356.0
2021-12-12-21:47:02.603618,5.0,0.0,356.0
2021-12-12-21:47:02.604616,10.0,9.0,356.0
2021-12-12-21:47:02.605613,10.0,9.0,356.0
2021-12-12-21:47:02.606610,10.0,9.0,356.0
2021-12-12-21:47:02.607607,7.0,0.0,356.0
2021-12-12-21:47:02.608605,9.0,2.0,356.0
2021-12-12-21:47:02.609602,9.0,2.0,356.0
2021-12-12-21:47:02.610599,9.0,2.0,356.0
2021-12-12-21:47:02.611597,19.0,54.0,356.0
2021-12-12-21:47:02.612594,19.0,54.0,356.0
2021-12-12-21:47:02.613591,19.0,54.0,356.0
2021-12-12-21:47:02.614588,19.0,54.0,356.0
2021-12-12-21:47:02.615586,1.0,48.0,356.0
2021-12-12-21:47:02.616583,11.0,7.0,356.0
2021-12-12-21:47:02.617581,11.0,7.0,356.0
2021-12-12-21:47:02.619575,11.0,7.0,356.0
2021-12-12-21:47:02.619575,3.0,27.0,356.0
2021-12-12-21:47:02.620572,4.0,43.0,357.0
2021-12-12-21:47:02.621570,4.0,43.0,357.0
2021-12-12-21:47:02.622567,4.0,43.0,357.0
2021-12-12-21:47:02.623565,4.0,43.0,357.0
2021-12-12-21:47:02.624562,5.0,10.0,356.0
2021-12-12-21:47:02.625559,11.0,0.0,356.0
2021-12-12-21:47:02.626556,11.0,0.0,356.0
2021-12-12-21:47:02.627553,11.0,0.0,356.0
2021-12-12-21:47:02.628550,6.0,12.0,356.0
2021-12-12-21:47:02.629588,16.0,33.0,357.0
2021-12-12-21:47:02.630577,16.0,33.0,357.0
2021-12-12-21:47:02.631543,16.0,33.0,357.0
2021-12-12-21:47:02.632540,4.0,7.0,356.0
2021-12-12-21:47:02.633571,2.0,11.0,356.0
2021-12-12-21:47:02.634568,2.0,11.0,356.0
2021-12-12-21:47:02.635566,2.0,11.0,356.0
2021-12-12-21:47:02.636563,5.0,27.0,356.0
2021-12-12-21:47:02.637561,5.0,27.0,356.0
2021-12-12-21:47:02.638558,5.0,27.0,356.0
2021-12-12-21:47:02.639521,5.0,27.0,356.0
2021-12-12-21:47:02.640551,4.0,14.0,356.0
2021-12-12-21:47:02.641548,7.0,10.0,356.0
2021-12-12-21:47:02.642548,7.0,10.0,356.0
2021-12-12-21:47:02.643511,7.0,10.0,356.0
2021-12-12-21:47:02.644545,9.0,15.0,357.0
2021-12-12-21:47:02.645539,18.0,48.0,356.0
2021-12-12-21:47:02.646536,18.0,48.0,356.0
2021-12-12-21:47:02.647500,18.0,48.0,356.0
2021-12-12-21:47:02.648530,6.0,34.0,356.0
2021-12-12-21:47:02.649528,9.0,10.0,356.0
2021-12-12-21:47:02.650526,9.0,10.0,356.0
2021-12-12-21:47:02.651528,9.0,10.0,356.0
2021-12-12-21:47:02.653517,3.0,23.0,356.0
2021-12-12-21:47:02.653517,4.0,27.0,356.0
2021-12-12-21:47:02.654513,4.0,27.0,356.0
2021-12-12-21:47:02.655514,4.0,27.0,356.0
2021-12-12-21:47:02.656510,6.0,37.0,356.0
2021-12-12-21:47:02.657506,9.0,2.0,356.0
2021-12-12-21:47:02.658505,9.0,2.0,356.0
2021-12-12-21:47:02.659501,9.0,2.0,356.0
2021-12-12-21:47:02.660498,9.0,2.0,356.0
2021-12-12-21:47:02.661495,12.0,27.0,356.0
2021-12-12-21:47:02.662493,18.0,17.0,356.0
2021-12-12-21:47:02.663493,18.0,17.0,356.0
2021-12-12-21:47:02.664455,18.0,17.0,356.0
2021-12-12-21:47:02.665486,2.0,33.0,357.0
2021-12-12-21:47:02.666450,5.0,28.0,356.0
2021-12-12-21:47:02.667479,5.0,28.0,356.0
2021-12-12-21:47:02.668476,5.0,28.0,356.0
2021-12-12-21:47:02.669474,7.0,35.0,357.0
2021-12-12-21:47:02.670471,7.0,35.0,357.0
2021-12-12-21:47:02.671471,7.0,35.0,357.0
2021-12-12-21:47:02.672466,7.0,35.0,357.0
2021-12-12-21:47:02.673466,1.0,17.0,356.0
2021-12-12-21:47:02.674428,9.0,1.0,356.0
2021-12-12-21:47:02.675458,11.0,17.0,356.0
2021-12-12-21:47:02.676455,11.0,17.0,356.0
2021-12-12-21:47:02.677453,7.0,17.0,356.0
2021-12-12-21:47:02.678450,20.0,27.0,357.0
2021-12-12-21:47:02.679450,20.0,27.0,357.0
2021-12-12-21:47:02.680411,20.0,27.0,357.0
2021-12-12-21:47:02.681409,16.0,53.0,356.0
2021-12-12-21:47:02.682440,0.0,18.0,356.0
2021-12-12-21:47:02.683436,0.0,18.0,356.0
2021-12-12-21:47:02.684401,0.0,18.0,356.0
2021-12-12-21:47:02.685431,5.0,17.0,356.0
2021-12-12-21:47:02.687429,4.0,1.0,356.0
2021-12-12-21:47:02.687429,4.0,1.0,356.0
2021-12-12-21:47:02.688426,4.0,1.0,356.0
2021-12-12-21:47:02.689424,7.0,0.0,356.0
2021-12-12-21:47:02.690421,7.0,0.0,356.0
2021-12-12-21:47:02.691416,7.0,0.0,356.0
2021-12-12-21:47:02.692380,7.0,0.0,356.0
2021-12-12-21:47:02.693377,7.0,14.0,356.0
2021-12-12-21:47:02.694408,20.0,53.0,356.0
2021-12-12-21:47:02.695404,20.0,53.0,356.0
2021-12-12-21:47:02.696402,20.0,53.0,356.0
2021-12-12-21:47:02.697399,20.0,53.0,356.0
2021-12-12-21:47:02.698364,5.0,20.0,356.0
2021-12-12-21:47:02.699396,2.0,9.0,356.0
2021-12-12-21:47:02.700394,2.0,9.0,356.0
2021-12-12-21:47:02.701390,2.0,9.0,356.0
2021-12-12-21:47:02.702388,9.0,11.0,356.0
2021-12-12-21:47:02.703386,6.0,4.0,356.0
2021-12-12-21:47:02.704382,6.0,4.0,356.0
2021-12-12-21:47:02.705381,6.0,4.0,356.0
2021-12-12-21:47:02.706383,5.0,30.0,356.0
2021-12-12-21:47:02.707375,7.0,14.0,356.0
2021-12-12-21:47:02.708372,7.0,14.0,356.0
2021-12-12-21:47:02.709373,7.0,14.0,356.0
2021-12-12-21:47:02.710366,13.0,14.0,357.0
2021-12-12-21:47:02.711368,18.0,5.0,357.0
2021-12-12-21:47:02.712362,18.0,5.0,357.0
2021-12-12-21:47:02.713360,18.0,5.0,357.0
2021-12-12-21:47:02.714355,9.0,12.0,356.0
2021-12-12-21:47:02.715318,3.0,3.0,356.0
2021-12-12-21:47:02.716349,3.0,3.0,356.0
2021-12-12-21:47:02.717313,3.0,3.0,356.0
2021-12-12-21:47:02.718344,6.0,3.0,356.0
2021-12-12-21:47:02.719343,0.0,27.0,356.0
2021-12-12-21:47:02.720339,0.0,27.0,356.0
2021-12-12-21:47:02.721302,0.0,27.0,356.0
2021-12-12-21:47:02.723297,0.0,27.0,356.0
2021-12-12-21:47:02.723297,3.0,33.0,357.0
2021-12-12-21:47:02.724328,3.0,33.0,357.0
2021-12-12-21:47:02.725291,3.0,33.0,357.0
2021-12-12-21:47:02.726323,11.0,38.0,356.0
2021-12-12-21:47:02.727325,12.0,50.0,356.0
2021-12-12-21:47:02.728318,12.0,50.0,356.0
2021-12-12-21:47:02.729315,12.0,50.0,356.0
2021-12-12-21:47:02.730312,6.0,4.0,356.0
2021-12-12-21:47:02.731277,6.0,4.0,356.0
2021-12-12-21:47:02.732300,6.0,4.0,356.0
2021-12-12-21:47:02.733304,6.0,4.0,356.0
2021-12-12-21:47:02.734301,6.0,4.0,356.0
2021-12-12-21:47:02.735300,6.0,18.0,356.0
2021-12-12-21:47:02.736264,6.0,18.0,356.0
2021-12-12-21:47:02.737261,6.0,18.0,356.0
2021-12-12-21:47:02.738258,6.0,29.0,356.0
2021-12-12-21:47:02.739255,1.0,2.0,356.0
2021-12-12-21:47:02.740252,1.0,2.0,356.0
2021-12-12-21:47:02.741250,1.0,2.0,356.0
2021-12-12-21:47:02.742247,1.0,2.0,356.0
2021-12-12-21:47:02.743245,9.0,1.0,356.0
2021-12-12-21:47:02.744242,11.0,8.0,356.0
2021-12-12-21:47:02.745239,11.0,8.0,356.0
2021-12-12-21:47:02.746237,11.0,8.0,356.0
2021-12-12-21:47:02.747234,22.0,65.0,357.0
2021-12-12-21:47:02.748231,6.0,51.0,356.0
2021-12-12-21:47:02.749228,6.0,51.0,356.0
2021-12-12-21:47:02.750226,6.0,51.0,356.0
2021-12-12-21:47:02.751223,5.0,10.0,356.0
2021-12-12-21:47:02.752221,6.0,21.0,356.0
2021-12-12-21:47:02.753218,6.0,21.0,356.0
2021-12-12-21:47:02.755213,6.0,21.0,356.0
2021-12-12-21:47:02.755213,5.0,48.0,357.0
2021-12-12-21:47:02.756210,5.0,37.0,356.0
2021-12-12-21:47:02.757207,5.0,37.0,356.0
2021-12-12-21:47:02.758204,5.0,37.0,356.0
2021-12-12-21:47:02.759202,9.0,0.0,357.0
2021-12-12-21:47:02.760199,13.0,2.0,356.0
2021-12-12-21:47:02.761196,13.0,2.0,356.0
2021-12-12-21:47:02.762192,13.0,2.0,356.0
2021-12-12-21:47:02.763191,19.0,57.0,357.0
2021-12-12-21:47:02.764189,9.0,59.0,356.0
2021-12-12-21:47:02.765186,9.0,59.0,356.0
2021-12-12-21:47:02.766183,9.0,59.0,356.0
2021-12-12-21:47:02.767181,9.0,59.0,356.0
2021-12-12-21:47:02.768178,8.0,16.0,356.0
2021-12-12-21:47:02.769175,8.0,16.0,356.0
2021-12-12-21:47:02.770172,8.0,16.0,356.0
2021-12-12-21:47:02.771170,8.0,16.0,356.0
2021-12-12-21:47:02.772167,3.0,12.0,357.0
2021-12-12-21:47:02.773165,3.0,12.0,357.0
2021-12-12-21:47:02.774162,3.0,12.0,357.0
2021-12-12-21:47:02.775159,3.0,12.0,357.0
2021-12-12-21:47:02.776156,11.0,35.0,356.0
2021-12-12-21:47:02.777154,11.0,14.0,356.0
2021-12-12-21:47:02.778151,11.0,14.0,356.0
2021-12-12-21:47:02.779149,11.0,14.0,356.0
2021-12-12-21:47:02.780146,9.0,65.0,356.0
2021-12-12-21:47:02.781143,4.0,47.0,356.0
2021-12-12-21:47:02.782141,4.0,47.0,356.0
2021-12-12-21:47:02.783138,4.0,47.0,356.0
2021-12-12-21:47:02.784135,3.0,5.0,356.0
2021-12-12-21:47:02.785133,5.0,17.0,356.0
2021-12-12-21:47:02.786130,5.0,17.0,356.0
2021-12-12-21:47:02.787127,5.0,17.0,356.0
2021-12-12-21:47:02.788124,4.0,21.0,357.0
2021-12-12-21:47:02.790119,4.0,21.0,357.0
2021-12-12-21:47:02.790119,4.0,21.0,357.0
2021-12-12-21:47:02.791117,4.0,21.0,357.0
2021-12-12-21:47:02.792114,5.0,25.0,357.0
2021-12-12-21:47:02.793111,22.0,19.0,356.0
2021-12-12-21:47:02.794108,22.0,19.0,356.0
2021-12-12-21:47:02.795106,22.0,19.0,356.0
2021-12-12-21:47:02.796103,21.0,59.0,357.0
2021-12-12-21:47:02.797100,8.0,44.0,356.0
2021-12-12-21:47:02.798098,8.0,44.0,356.0
2021-12-12-21:47:02.799094,8.0,44.0,356.0
2021-12-12-21:47:02.800093,6.0,6.0,356.0
2021-12-12-21:47:02.801090,4.0,13.0,356.0
2021-12-12-21:47:02.802087,4.0,13.0,356.0
2021-12-12-21:47:02.803084,4.0,13.0,356.0
2021-12-12-21:47:02.804082,9.0,53.0,356.0
2021-12-12-21:47:02.805111,5.0,40.0,357.0
2021-12-12-21:47:02.806109,5.0,40.0,357.0
2021-12-12-21:47:02.807108,5.0,40.0,357.0
2021-12-12-21:47:02.808104,5.0,40.0,357.0
2021-12-12-21:47:02.809068,8.0,8.0,356.0
2021-12-12-21:47:02.810099,8.0,8.0,356.0
2021-12-12-21:47:02.811096,8.0,8.0,356.0
2021-12-12-21:47:02.812093,8.0,8.0,356.0
2021-12-12-21:47:02.813090,24.0,41.0,357.0
2021-12-12-21:47:02.814086,17.0,60.0,356.0
2021-12-12-21:47:02.815052,4.0,80.0,356.0
2021-12-12-21:47:02.816049,4.0,80.0,356.0
2021-12-12-21:47:02.817081,6.0,32.0,356.0
2021-12-12-21:47:02.818077,7.0,57.0,356.0
2021-12-12-21:47:02.819077,7.0,57.0,356.0
2021-12-12-21:47:02.820073,7.0,57.0,356.0
2021-12-12-21:47:02.821069,3.0,23.0,356.0
2021-12-12-21:47:02.822067,3.0,26.0,356.0
2021-12-12-21:47:02.824067,3.0,26.0,356.0
2021-12-12-21:47:02.824067,3.0,26.0,356.0
2021-12-12-21:47:02.825059,3.0,48.0,356.0
2021-12-12-21:47:02.826058,3.0,48.0,356.0
2021-12-12-21:47:02.827053,3.0,48.0,356.0
2021-12-12-21:47:02.828051,3.0,48.0,356.0
2021-12-12-21:47:02.829048,22.0,38.0,356.0
2021-12-12-21:47:02.830045,13.0,82.0,356.0
2021-12-12-21:47:02.831044,13.0,82.0,356.0
2021-12-12-21:47:02.832006,13.0,82.0,356.0
2021-12-12-21:47:02.833028,2.0,2.0,356.0
2021-12-12-21:47:02.834001,4.0,16.0,356.0
2021-12-12-21:47:02.835032,4.0,16.0,356.0
2021-12-12-21:47:02.835996,4.0,16.0,356.0
2021-12-12-21:47:02.837027,3.0,40.0,357.0
2021-12-12-21:47:02.838024,3.0,50.0,357.0
2021-12-12-21:47:02.839023,3.0,50.0,357.0
2021-12-12-21:47:02.839989,3.0,50.0,357.0
2021-12-12-21:47:02.841015,9.0,8.0,356.0
2021-12-12-21:47:02.842013,9.0,8.0,356.0
2021-12-12-21:47:02.843010,9.0,8.0,356.0
2021-12-12-21:47:02.844008,9.0,8.0,356.0
2021-12-12-21:47:02.845005,9.0,8.0,356.0
2021-12-12-21:47:02.846007,21.0,59.0,356.0
2021-12-12-21:47:02.847002,21.0,59.0,356.0
2021-12-12-21:47:02.847976,21.0,59.0,356.0
2021-12-12-21:47:02.848996,21.0,59.0,356.0
2021-12-12-21:47:02.849997,4.0,4.0,356.0
2021-12-12-21:47:02.850989,4.0,4.0,356.0
2021-12-12-21:47:02.851986,4.0,4.0,356.0
2021-12-12-21:47:02.852984,4.0,4.0,356.0
2021-12-12-21:47:02.853988,7.0,16.0,357.0
2021-12-12-21:47:02.854980,9.0,39.0,356.0
2021-12-12-21:47:02.856973,9.0,39.0,356.0
2021-12-12-21:47:02.856973,9.0,39.0,356.0
2021-12-12-21:47:02.857971,13.0,3.0,356.0
2021-12-12-21:47:02.858942,13.0,3.0,356.0
2021-12-12-21:47:02.859932,13.0,3.0,356.0
2021-12-12-21:47:02.860963,13.0,3.0,356.0
2021-12-12-21:47:02.861960,15.0,12.0,357.0
2021-12-12-21:47:02.862961,16.0,61.0,357.0
2021-12-12-21:47:02.863955,16.0,61.0,357.0
2021-12-12-21:47:02.864931,16.0,61.0,357.0
2021-12-12-21:47:02.865952,10.0,54.0,356.0
2021-12-12-21:47:02.866946,4.0,11.0,356.0
2021-12-12-21:47:02.867944,4.0,11.0,356.0
2021-12-12-21:47:02.868908,4.0,11.0,356.0
2021-12-12-21:47:02.869939,1.0,15.0,357.0
2021-12-12-21:47:02.870938,6.0,34.0,357.0
2021-12-12-21:47:02.871933,6.0,34.0,357.0
2021-12-12-21:47:02.872897,6.0,34.0,357.0
2021-12-12-21:47:02.873928,7.0,9.0,357.0
2021-12-12-21:47:02.874892,11.0,7.0,356.0
2021-12-12-21:47:02.875922,11.0,7.0,356.0
2021-12-12-21:47:02.876887,11.0,7.0,356.0
2021-12-12-21:47:02.877917,11.0,12.0,357.0
2021-12-12-21:47:02.878916,16.0,63.0,356.0
2021-12-12-21:47:02.879912,16.0,63.0,356.0
2021-12-12-21:47:02.880909,16.0,63.0,356.0
2021-12-12-21:47:02.881907,1.0,20.0,357.0
2021-12-12-21:47:02.882904,2.0,39.0,356.0
2021-12-12-21:47:02.883902,2.0,39.0,356.0
2021-12-12-21:47:02.884899,2.0,39.0,356.0
2021-12-12-21:47:02.885902,2.0,35.0,356.0
2021-12-12-21:47:02.886895,4.0,35.0,357.0
2021-12-12-21:47:02.887891,4.0,35.0,357.0
2021-12-12-21:47:02.888888,4.0,35.0,357.0
2021-12-12-21:47:02.889885,4.0,35.0,357.0
2021-12-12-21:47:02.891880,8.0,5.0,356.0
2021-12-12-21:47:02.891880,8.0,5.0,356.0
2021-12-12-21:47:02.892877,8.0,5.0,356.0
2021-12-12-21:47:02.893875,8.0,5.0,356.0
2021-12-12-21:47:02.894873,15.0,3.0,357.0
2021-12-12-21:47:02.895869,26.0,41.0,357.0
2021-12-12-21:47:02.896866,26.0,41.0,357.0
2021-12-12-21:47:02.897864,26.0,41.0,357.0
2021-12-12-21:47:02.898861,9.0,10.0,357.0
2021-12-12-21:47:02.899858,1.0,8.0,356.0
2021-12-12-21:47:02.900856,1.0,8.0,356.0
2021-12-12-21:47:02.901853,1.0,8.0,356.0
2021-12-12-21:47:02.902852,6.0,20.0,356.0
2021-12-12-21:47:02.903847,7.0,3.0,356.0
2021-12-12-21:47:02.904845,7.0,3.0,356.0
2021-12-12-21:47:02.905809,7.0,3.0,356.0
2021-12-12-21:47:02.906840,12.0,8.0,357.0
2021-12-12-21:47:02.907837,12.0,8.0,357.0
2021-12-12-21:47:02.908835,12.0,8.0,357.0
2021-12-12-21:47:02.909797,12.0,8.0,357.0
2021-12-12-21:47:02.910831,12.0,32.0,356.0
2021-12-12-21:47:02.911826,20.0,48.0,356.0
2021-12-12-21:47:02.912824,20.0,48.0,356.0
2021-12-12-21:47:02.913786,20.0,48.0,356.0
2021-12-12-21:47:02.914785,10.0,46.0,356.0
2021-12-12-21:47:02.915781,1.0,37.0,356.0
2021-12-12-21:47:02.916813,1.0,37.0,356.0
2021-12-12-21:47:02.917810,1.0,37.0,356.0
2021-12-12-21:47:02.918809,5.0,41.0,357.0
2021-12-12-21:47:02.919806,2.0,50.0,356.0
2021-12-12-21:47:02.920801,2.0,50.0,356.0
2021-12-12-21:47:02.921801,2.0,50.0,356.0
2021-12-12-21:47:02.922796,2.0,50.0,356.0
2021-12-12-21:47:02.923761,5.0,26.0,356.0
2021-12-12-21:47:02.924757,8.0,28.0,356.0
2021-12-12-21:47:02.926752,8.0,28.0,356.0
2021-12-12-21:47:02.926752,9.0,0.0,356.0
2021-12-12-21:47:02.927750,20.0,43.0,357.0
2021-12-12-21:47:02.928779,20.0,43.0,357.0
2021-12-12-21:47:02.929781,20.0,43.0,357.0
2021-12-12-21:47:02.930776,20.0,43.0,357.0
2021-12-12-21:47:02.931740,14.0,55.0,356.0
2021-12-12-21:47:02.932771,2.0,32.0,356.0
2021-12-12-21:47:02.933768,2.0,32.0,356.0
2021-12-12-21:47:02.934767,2.0,32.0,356.0
2021-12-12-21:47:02.935763,6.0,22.0,357.0
2021-12-12-21:47:02.936760,4.0,16.0,356.0
2021-12-12-21:47:02.937757,4.0,16.0,356.0
2021-12-12-21:47:02.938754,4.0,16.0,356.0
2021-12-12-21:47:02.939751,3.0,49.0,357.0
2021-12-12-21:47:02.940749,3.0,10.0,356.0
2021-12-12-21:47:02.941746,3.0,10.0,356.0
2021-12-12-21:47:02.942746,3.0,10.0,356.0
2021-12-12-21:47:02.943741,9.0,19.0,356.0
2021-12-12-21:47:02.944742,19.0,38.0,357.0
2021-12-12-21:47:02.945741,19.0,38.0,357.0
2021-12-12-21:47:02.946699,19.0,38.0,357.0
2021-12-12-21:47:02.947730,9.0,50.0,357.0
2021-12-12-21:47:02.948694,4.0,20.0,356.0
2021-12-12-21:47:02.949726,4.0,20.0,356.0
2021-12-12-21:47:02.950689,4.0,20.0,356.0
2021-12-12-21:47:02.951720,6.0,28.0,356.0
2021-12-12-21:47:02.952717,3.0,27.0,356.0
2021-12-12-21:47:02.953715,3.0,27.0,356.0
2021-12-12-21:47:02.954688,3.0,27.0,356.0
2021-12-12-21:47:02.955711,10.0,44.0,356.0
2021-12-12-21:47:02.956707,6.0,31.0,356.0
2021-12-12-21:47:02.957703,6.0,31.0,356.0
2021-12-12-21:47:02.959699,6.0,31.0,356.0
2021-12-12-21:47:02.959699,11.0,15.0,356.0
2021-12-12-21:47:02.960699,11.0,15.0,357.0
2021-12-12-21:47:02.961693,11.0,15.0,357.0
2021-12-12-21:47:02.962697,11.0,15.0,357.0
2021-12-12-21:47:02.963687,11.0,15.0,357.0
2021-12-12-21:47:02.964685,4.0,18.0,356.0
2021-12-12-21:47:02.965649,4.0,18.0,356.0
2021-12-12-21:47:02.966681,4.0,18.0,356.0
2021-12-12-21:47:02.967677,4.0,18.0,356.0
2021-12-12-21:47:02.968674,9.0,2.0,357.0
2021-12-12-21:47:02.969672,4.0,30.0,356.0
2021-12-12-21:47:02.970669,4.0,30.0,356.0
2021-12-12-21:47:02.971666,4.0,30.0,356.0
2021-12-12-21:47:02.972664,3.0,58.0,356.0
2021-12-12-21:47:02.973661,3.0,11.0,356.0
2021-12-12-21:47:02.974660,3.0,11.0,356.0
2021-12-12-21:47:02.975622,3.0,11.0,356.0
2021-12-12-21:47:02.976619,7.0,6.0,356.0
2021-12-12-21:47:02.977651,9.0,41.0,356.0
2021-12-12-21:47:02.978647,9.0,41.0,356.0
2021-12-12-21:47:02.979644,9.0,41.0,356.0
2021-12-12-21:47:02.980643,14.0,103.0,356.0
2021-12-12-21:47:02.981613,10.0,41.0,356.0
2021-12-12-21:47:02.982602,10.0,41.0,356.0
2021-12-12-21:47:02.983601,10.0,41.0,356.0
2021-12-12-21:47:02.984632,7.0,17.0,357.0
2021-12-12-21:47:02.985629,6.0,27.0,357.0
2021-12-12-21:47:02.986627,6.0,27.0,357.0
2021-12-12-21:47:02.987590,6.0,27.0,357.0
2021-12-12-21:47:02.988621,6.0,58.0,357.0
2021-12-12-21:47:02.989618,2.0,70.0,356.0
2021-12-12-21:47:02.990617,2.0,70.0,356.0
2021-12-12-21:47:02.991580,2.0,70.0,356.0
2021-12-12-21:47:02.993608,10.0,13.0,356.0
2021-12-12-21:47:02.993608,8.0,12.0,357.0
2021-12-12-21:47:02.994604,8.0,12.0,357.0
2021-12-12-21:47:02.995602,8.0,12.0,357.0
2021-12-12-21:47:02.996605,23.0,77.0,356.0
2021-12-12-21:47:02.997599,0.0,57.0,356.0
2021-12-12-21:47:02.998561,0.0,57.0,356.0
2021-12-12-21:47:02.999596,0.0,57.0,356.0
2021-12-12-21:47:03.000589,0.0,57.0,356.0
2021-12-12-21:47:03.001587,2.0,15.0,356.0
2021-12-12-21:47:03.002550,2.0,15.0,356.0
2021-12-12-21:47:03.003581,2.0,15.0,356.0
2021-12-12-21:47:03.004578,2.0,15.0,356.0
2021-12-12-21:47:03.005575,4.0,48.0,357.0
2021-12-12-21:47:03.006575,3.0,12.0,357.0
2021-12-12-21:47:03.007570,3.0,12.0,357.0
2021-12-12-21:47:03.008567,7.0,9.0,356.0
2021-12-12-21:47:03.009566,14.0,8.0,357.0
2021-12-12-21:47:03.010562,14.0,8.0,357.0
2021-12-12-21:47:03.011559,14.0,8.0,357.0
2021-12-12-21:47:03.012557,14.0,8.0,357.0
2021-12-12-21:47:03.013554,21.0,73.0,356.0
2021-12-12-21:47:03.014553,7.0,26.0,356.0
2021-12-12-21:47:03.015553,7.0,26.0,356.0
2021-12-12-21:47:03.016546,7.0,26.0,356.0
2021-12-12-21:47:03.017544,5.0,1.0,356.0
2021-12-12-21:47:03.018548,5.0,12.0,356.0
2021-12-12-21:47:03.019504,5.0,12.0,356.0
2021-12-12-21:47:03.020506,5.0,12.0,356.0
2021-12-12-21:47:03.021500,4.0,41.0,356.0
2021-12-12-21:47:03.022532,4.0,21.0,357.0
2021-12-12-21:47:03.023528,4.0,21.0,357.0
2021-12-12-21:47:03.024491,4.0,21.0,357.0
2021-12-12-21:47:03.026494,12.0,0.0,357.0
2021-12-12-21:47:03.026494,12.0,0.0,357.0
2021-12-12-21:47:03.027517,12.0,0.0,357.0
2021-12-12-21:47:03.028481,12.0,0.0,357.0
2021-12-12-21:47:03.029511,15.0,73.0,356.0
2021-12-12-21:47:03.030511,6.0,59.0,356.0
2021-12-12-21:47:03.031472,6.0,59.0,356.0
2021-12-12-21:47:03.032504,6.0,59.0,356.0
2021-12-12-21:47:03.033502,2.0,32.0,356.0
2021-12-12-21:47:03.034464,2.0,49.0,356.0
2021-12-12-21:47:03.035495,2.0,49.0,356.0
2021-12-12-21:47:03.036499,2.0,49.0,356.0
2021-12-12-21:47:03.037490,2.0,49.0,356.0
2021-12-12-21:47:03.038489,0.0,30.0,356.0
2021-12-12-21:47:03.039485,0.0,30.0,356.0
2021-12-12-21:47:03.040482,0.0,30.0,356.0
2021-12-12-21:47:03.041480,0.0,30.0,356.0
2021-12-12-21:47:03.042443,6.0,22.0,356.0
2021-12-12-21:47:03.043474,16.0,41.0,357.0
2021-12-12-21:47:03.044472,16.0,41.0,357.0
2021-12-12-21:47:03.045468,16.0,41.0,357.0
2021-12-12-21:47:03.046468,22.0,67.0,356.0
2021-12-12-21:47:03.047463,8.0,79.0,356.0
2021-12-12-21:47:03.048428,8.0,79.0,356.0
2021-12-12-21:47:03.049427,8.0,79.0,356.0
2021-12-12-21:47:03.050455,2.0,14.0,356.0
2021-12-12-21:47:03.051453,4.0,4.0,356.0
2021-12-12-21:47:03.052450,4.0,4.0,356.0
2021-12-12-21:47:03.053447,4.0,4.0,356.0
2021-12-12-21:47:03.054447,6.0,52.0,356.0
2021-12-12-21:47:03.055442,2.0,49.0,357.0
2021-12-12-21:47:03.056440,2.0,49.0,357.0
2021-12-12-21:47:03.057438,2.0,49.0,357.0
2021-12-12-21:47:03.058434,10.0,21.0,356.0
2021-12-12-21:47:03.059431,10.0,7.0,357.0
2021-12-12-21:47:03.060434,10.0,7.0,357.0
2021-12-12-21:47:03.062425,10.0,7.0,357.0
2021-12-12-21:47:03.062425,22.0,79.0,357.0
2021-12-12-21:47:03.063421,15.0,80.0,356.0
2021-12-12-21:47:03.064418,15.0,80.0,356.0
2021-12-12-21:47:03.065382,15.0,80.0,356.0
2021-12-12-21:47:03.066412,5.0,20.0,357.0
2021-12-12-21:47:03.067410,8.0,6.0,356.0
2021-12-12-21:47:03.068413,8.0,6.0,356.0
2021-12-12-21:47:03.069389,8.0,6.0,356.0
2021-12-12-21:47:03.070404,10.0,29.0,357.0
2021-12-12-21:47:03.071401,5.0,32.0,356.0
2021-12-12-21:47:03.072398,5.0,32.0,356.0
2021-12-12-21:47:03.073395,5.0,32.0,356.0
2021-12-12-21:47:03.074391,7.0,11.0,356.0
2021-12-12-21:47:03.075388,10.0,2.0,356.0
2021-12-12-21:47:03.076386,10.0,2.0,356.0
2021-12-12-21:47:03.077386,10.0,2.0,356.0
2021-12-12-21:47:03.078383,21.0,53.0,356.0
2021-12-12-21:47:03.079380,18.0,54.0,357.0
2021-12-12-21:47:03.080375,18.0,54.0,357.0
2021-12-12-21:47:03.081375,18.0,54.0,357.0
2021-12-12-21:47:03.082371,18.0,54.0,357.0
2021-12-12-21:47:03.083368,1.0,15.0,356.0
2021-12-12-21:47:03.084365,6.0,24.0,356.0
2021-12-12-21:47:03.085364,6.0,24.0,356.0
2021-12-12-21:47:03.086362,6.0,24.0,356.0
2021-12-12-21:47:03.087357,5.0,21.0,356.0
2021-12-12-21:47:03.088356,8.0,27.0,357.0
2021-12-12-21:47:03.089352,8.0,27.0,357.0
2021-12-12-21:47:03.090349,8.0,27.0,357.0
2021-12-12-21:47:03.091348,8.0,2.0,356.0
2021-12-12-21:47:03.092310,13.0,0.0,356.0
2021-12-12-21:47:03.093341,13.0,0.0,356.0
2021-12-12-21:47:03.094304,13.0,0.0,356.0
2021-12-12-21:47:03.096333,15.0,28.0,356.0
2021-12-12-21:47:03.096333,23.0,63.0,357.0
2021-12-12-21:47:03.097331,23.0,63.0,357.0
2021-12-12-21:47:03.098294,23.0,63.0,357.0
2021-12-12-21:47:03.099291,7.0,24.0,356.0
2021-12-12-21:47:03.100323,7.0,24.0,356.0
2021-12-12-21:47:03.101319,7.0,24.0,356.0
2021-12-12-21:47:03.102283,7.0,24.0,356.0
2021-12-12-21:47:03.103314,1.0,44.0,356.0
2021-12-12-21:47:03.104311,5.0,49.0,357.0
2021-12-12-21:47:03.105309,5.0,49.0,357.0
2021-12-12-21:47:03.106273,5.0,49.0,357.0
2021-12-12-21:47:03.107310,2.0,10.0,356.0
2021-12-12-21:47:03.108301,10.0,4.0,356.0
2021-12-12-21:47:03.109299,10.0,4.0,356.0
2021-12-12-21:47:03.110297,10.0,4.0,356.0
2021-12-12-21:47:03.111293,23.0,60.0,357.0
2021-12-12-21:47:03.112290,20.0,71.0,356.0
2021-12-12-21:47:03.113287,20.0,71.0,356.0
2021-12-12-21:47:03.114284,20.0,71.0,356.0
2021-12-12-21:47:03.115282,12.0,44.0,356.0
2021-12-12-21:47:03.116280,3.0,9.0,356.0
2021-12-12-21:47:03.117277,3.0,9.0,356.0
2021-12-12-21:47:03.118276,3.0,9.0,356.0
2021-12-12-21:47:03.119271,3.0,9.0,356.0
2021-12-12-21:47:03.120269,8.0,2.0,356.0
2021-12-12-21:47:03.121266,7.0,32.0,356.0
2021-12-12-21:47:03.122263,7.0,32.0,356.0
2021-12-12-21:47:03.123261,7.0,32.0,356.0
2021-12-12-21:47:03.124258,6.0,13.0,356.0
2021-12-12-21:47:03.125255,9.0,16.0,356.0
2021-12-12-21:47:03.126258,9.0,16.0,356.0
2021-12-12-21:47:03.127253,9.0,16.0,356.0
2021-12-12-21:47:03.129213,23.0,64.0,357.0
2021-12-12-21:47:03.130215,23.0,64.0,357.0
2021-12-12-21:47:03.130215,23.0,64.0,357.0
2021-12-12-21:47:03.131206,23.0,64.0,357.0
2021-12-12-21:47:03.132209,6.0,57.0,356.0
2021-12-12-21:47:03.133236,3.0,7.0,356.0
2021-12-12-21:47:03.134234,3.0,7.0,356.0
2021-12-12-21:47:03.135228,3.0,7.0,356.0
2021-12-12-21:47:03.136226,4.0,38.0,356.0
2021-12-12-21:47:03.137189,6.0,53.0,357.0
2021-12-12-21:47:03.138221,6.0,53.0,357.0
2021-12-12-21:47:03.139185,6.0,53.0,357.0
2021-12-12-21:47:03.140216,3.0,47.0,356.0
2021-12-12-21:47:03.141216,12.0,14.0,356.0
2021-12-12-21:47:03.142214,12.0,14.0,356.0
2021-12-12-21:47:03.143173,12.0,14.0,356.0
2021-12-12-21:47:03.144172,10.0,23.0,356.0
2021-12-12-21:47:03.145168,26.0,78.0,356.0
2021-12-12-21:47:03.146197,26.0,78.0,356.0
2021-12-12-21:47:03.147194,26.0,78.0,356.0
2021-12-12-21:47:03.148192,12.0,62.0,356.0
2021-12-12-21:47:03.149191,1.0,7.0,357.0
2021-12-12-21:47:03.150190,1.0,7.0,357.0
2021-12-12-21:47:03.151186,1.0,7.0,357.0
2021-12-12-21:47:03.152184,1.0,7.0,357.0
2021-12-12-21:47:03.153182,4.0,34.0,357.0
2021-12-12-21:47:03.154179,4.0,34.0,357.0
2021-12-12-21:47:03.155176,4.0,34.0,357.0
2021-12-12-21:47:03.156173,4.0,34.0,357.0
2021-12-12-21:47:03.157170,13.0,17.0,357.0
2021-12-12-21:47:03.158169,13.0,17.0,357.0
2021-12-12-21:47:03.159165,13.0,17.0,357.0
2021-12-12-21:47:03.160162,13.0,17.0,357.0
2021-12-12-21:47:03.161160,11.0,4.0,356.0
2021-12-12-21:47:03.162157,23.0,29.0,356.0
2021-12-12-21:47:03.164155,23.0,29.0,356.0
2021-12-12-21:47:03.164155,7.0,37.0,357.0
2021-12-12-21:47:03.165115,2.0,13.0,356.0
2021-12-12-21:47:03.166148,2.0,13.0,356.0
2021-12-12-21:47:03.167144,2.0,13.0,356.0
2021-12-12-21:47:03.168304,2.0,13.0,356.0
2021-12-12-21:47:03.168304,9.0,18.0,356.0
2021-12-12-21:47:03.169139,5.0,8.0,356.0
2021-12-12-21:47:03.170135,5.0,8.0,356.0
2021-12-12-21:47:03.171133,5.0,8.0,356.0
2021-12-12-21:47:03.172130,5.0,8.0,356.0
2021-12-12-21:47:03.173127,6.0,37.0,356.0
2021-12-12-21:47:03.174126,3.0,14.0,356.0
2021-12-12-21:47:03.175122,3.0,14.0,356.0
2021-12-12-21:47:03.176086,3.0,14.0,356.0
2021-12-12-21:47:03.177117,14.0,25.0,356.0
2021-12-12-21:47:03.178114,20.0,36.0,356.0
2021-12-12-21:47:03.179111,20.0,36.0,356.0
2021-12-12-21:47:03.180075,20.0,36.0,356.0
2021-12-12-21:47:03.181106,10.0,44.0,356.0
2021-12-12-21:47:03.182070,1.0,28.0,356.0
2021-12-12-21:47:03.183100,1.0,28.0,356.0
2021-12-12-21:47:03.184088,1.0,28.0,356.0
2021-12-12-21:47:03.185098,5.0,9.0,356.0
2021-12-12-21:47:03.186093,1.0,11.0,357.0
2021-12-12-21:47:03.187057,1.0,11.0,357.0
2021-12-12-21:47:03.188087,1.0,11.0,357.0
2021-12-12-21:47:03.189084,7.0,39.0,357.0
2021-12-12-21:47:03.190084,3.0,17.0,356.0
2021-12-12-21:47:03.191078,3.0,17.0,356.0
2021-12-12-21:47:03.192076,3.0,17.0,356.0
2021-12-12-21:47:03.193076,3.0,17.0,356.0
2021-12-12-21:47:03.194072,16.0,13.0,356.0
2021-12-12-21:47:03.195068,16.0,13.0,356.0
2021-12-12-21:47:03.196070,16.0,13.0,356.0
2021-12-12-21:47:03.198062,16.0,13.0,356.0
2021-12-12-21:47:03.198062,3.0,31.0,356.0
2021-12-12-21:47:03.199059,3.0,31.0,356.0
2021-12-12-21:47:03.200055,3.0,31.0,356.0
2021-12-12-21:47:03.201053,3.0,31.0,356.0
2021-12-12-21:47:03.202049,7.0,12.0,356.0
2021-12-12-21:47:03.203046,4.0,28.0,356.0
2021-12-12-21:47:03.204044,4.0,28.0,356.0
2021-12-12-21:47:03.205041,4.0,28.0,356.0
2021-12-12-21:47:03.206040,6.0,46.0,356.0
2021-12-12-21:47:03.207042,4.0,27.0,357.0
2021-12-12-21:47:03.208034,4.0,27.0,357.0
2021-12-12-21:47:03.208997,4.0,27.0,357.0
2021-12-12-21:47:03.210027,14.0,5.0,357.0
2021-12-12-21:47:03.211025,11.0,15.0,356.0
2021-12-12-21:47:03.212022,11.0,15.0,356.0
2021-12-12-21:47:03.212987,11.0,15.0,356.0
2021-12-12-21:47:03.214016,8.0,37.0,357.0
2021-12-12-21:47:03.214982,8.0,37.0,357.0
2021-12-12-21:47:03.216012,8.0,37.0,357.0
2021-12-12-21:47:03.216976,8.0,37.0,357.0
2021-12-12-21:47:03.218006,9.0,10.0,356.0
2021-12-12-21:47:03.219003,6.0,25.0,357.0
2021-12-12-21:47:03.220001,6.0,25.0,357.0
2021-12-12-21:47:03.220966,6.0,25.0,357.0
2021-12-12-21:47:03.221995,8.0,47.0,356.0
2021-12-12-21:47:03.222993,4.0,35.0,356.0
2021-12-12-21:47:03.223957,4.0,35.0,356.0
2021-12-12-21:47:03.224990,4.0,35.0,356.0
2021-12-12-21:47:03.225984,14.0,5.0,356.0
2021-12-12-21:47:03.226991,18.0,34.0,356.0
2021-12-12-21:47:03.227980,18.0,34.0,356.0
2021-12-12-21:47:03.228977,18.0,34.0,356.0
2021-12-12-21:47:03.230971,3.0,42.0,357.0
2021-12-12-21:47:03.230971,3.0,42.0,357.0
2021-12-12-21:47:03.231972,3.0,42.0,357.0
2021-12-12-21:47:03.232971,3.0,42.0,357.0
2021-12-12-21:47:03.233963,3.0,42.0,357.0
2021-12-12-21:47:03.234960,7.0,5.0,356.0
2021-12-12-21:47:03.235958,3.0,8.0,356.0
2021-12-12-21:47:03.236956,3.0,8.0,356.0
2021-12-12-21:47:03.237956,3.0,8.0,356.0
2021-12-12-21:47:03.238950,8.0,40.0,356.0
2021-12-12-21:47:03.239917,4.0,18.0,356.0
2021-12-12-21:47:03.240946,4.0,18.0,356.0
2021-12-12-21:47:03.241942,4.0,18.0,356.0
2021-12-12-21:47:03.242939,9.0,6.0,357.0
2021-12-12-21:47:03.243937,14.0,5.0,357.0
2021-12-12-21:47:03.244934,14.0,5.0,357.0
2021-12-12-21:47:03.245934,14.0,5.0,357.0
2021-12-12-21:47:03.246929,5.0,23.0,357.0
2021-12-12-21:47:03.247926,5.0,23.0,357.0
2021-12-12-21:47:03.248891,5.0,23.0,357.0
2021-12-12-21:47:03.249887,5.0,23.0,357.0
2021-12-12-21:47:03.250926,4.0,13.0,357.0
2021-12-12-21:47:03.251915,8.0,18.0,356.0
2021-12-12-21:47:03.252912,8.0,18.0,356.0
2021-12-12-21:47:03.253878,8.0,18.0,356.0
2021-12-12-21:47:03.254907,8.0,16.0,356.0
2021-12-12-21:47:03.255871,1.0,0.0,356.0
2021-12-12-21:47:03.256907,1.0,0.0,356.0
2021-12-12-21:47:03.257867,1.0,0.0,356.0
2021-12-12-21:47:03.258897,7.0,0.0,356.0
2021-12-12-21:47:03.259894,10.0,11.0,356.0
2021-12-12-21:47:03.260891,10.0,11.0,356.0
2021-12-12-21:47:03.261891,10.0,11.0,356.0
2021-12-12-21:47:03.262891,23.0,64.0,356.0
2021-12-12-21:47:03.264883,6.0,43.0,356.0
2021-12-12-21:47:03.264883,6.0,43.0,356.0
2021-12-12-21:47:03.265880,6.0,43.0,356.0
2021-12-12-21:47:03.266875,4.0,5.0,357.0
2021-12-12-21:47:03.267873,7.0,34.0,357.0
2021-12-12-21:47:03.268870,7.0,34.0,357.0
2021-12-12-21:47:03.269876,7.0,34.0,357.0
2021-12-12-21:47:03.270864,7.0,34.0,357.0
2021-12-12-21:47:03.271829,7.0,54.0,357.0
2021-12-12-21:47:03.272862,7.0,44.0,356.0
2021-12-12-21:47:03.273857,7.0,44.0,356.0
2021-12-12-21:47:03.274854,7.0,44.0,356.0
2021-12-12-21:47:03.275819,8.0,6.0,357.0
2021-12-12-21:47:03.276848,10.0,17.0,356.0
2021-12-12-21:47:03.277848,10.0,17.0,356.0
2021-12-12-21:47:03.278843,10.0,17.0,356.0
2021-12-12-21:47:03.279840,23.0,70.0,356.0
2021-12-12-21:47:03.280839,11.0,44.0,356.0
2021-12-12-21:47:03.281803,11.0,44.0,356.0
2021-12-12-21:47:03.282835,11.0,44.0,356.0
2021-12-12-21:47:03.283831,3.0,11.0,356.0
2021-12-12-21:47:03.284828,5.0,15.0,356.0
2021-12-12-21:47:03.285828,5.0,15.0,356.0
2021-12-12-21:47:03.286823,5.0,15.0,356.0
2021-12-12-21:47:03.287794,4.0,22.0,356.0
2021-12-12-21:47:03.288818,1.0,42.0,357.0
2021-12-12-21:47:03.289815,1.0,42.0,357.0
2021-12-12-21:47:03.290779,1.0,42.0,357.0
2021-12-12-21:47:03.291810,5.0,19.0,356.0
2021-12-12-21:47:03.292807,10.0,1.0,356.0
2021-12-12-21:47:03.293806,10.0,1.0,356.0
2021-12-12-21:47:03.294768,10.0,1.0,356.0
2021-12-12-21:47:03.295799,22.0,53.0,356.0
2021-12-12-21:47:03.296797,15.0,69.0,357.0
2021-12-12-21:47:03.297794,15.0,69.0,357.0
2021-12-12-21:47:03.299789,15.0,69.0,357.0
2021-12-12-21:47:03.299789,6.0,2.0,356.0
2021-12-12-21:47:03.300786,6.0,2.0,356.0
2021-12-12-21:47:03.301785,6.0,2.0,356.0
2021-12-12-21:47:03.302780,6.0,2.0,356.0
2021-12-12-21:47:03.303778,6.0,2.0,356.0
2021-12-12-21:47:03.304775,5.0,51.0,356.0
2021-12-12-21:47:03.305772,5.0,51.0,356.0
2021-12-12-21:47:03.306769,5.0,51.0,356.0
2021-12-12-21:47:03.307767,5.0,51.0,356.0
2021-12-12-21:47:03.308765,11.0,5.0,357.0
2021-12-12-21:47:03.309763,11.0,5.0,357.0
2021-12-12-21:47:03.310765,11.0,5.0,357.0
2021-12-12-21:47:03.311762,11.0,5.0,357.0
2021-12-12-21:47:03.312754,20.0,39.0,357.0
2021-12-12-21:47:03.313752,16.0,80.0,357.0
2021-12-12-21:47:03.314748,16.0,80.0,357.0
2021-12-12-21:47:03.315712,16.0,80.0,357.0
2021-12-12-21:47:03.316744,6.0,24.0,356.0
2021-12-12-21:47:03.317742,6.0,24.0,356.0
2021-12-12-21:47:03.318739,6.0,24.0,356.0
2021-12-12-21:47:03.319702,6.0,24.0,356.0
2021-12-12-21:47:03.320733,6.0,27.0,356.0
2021-12-12-21:47:03.321731,8.0,59.0,357.0
2021-12-12-21:47:03.322729,8.0,59.0,357.0
2021-12-12-21:47:03.323725,8.0,59.0,357.0
2021-12-12-21:47:03.324722,8.0,22.0,357.0
2021-12-12-21:47:03.325686,9.0,13.0,356.0
2021-12-12-21:47:03.326717,9.0,13.0,356.0
2021-12-12-21:47:03.327680,9.0,13.0,356.0
2021-12-12-21:47:03.328711,24.0,59.0,357.0
2021-12-12-21:47:03.329709,19.0,67.0,357.0
2021-12-12-21:47:03.330707,19.0,67.0,357.0
2021-12-12-21:47:03.332708,19.0,67.0,357.0
2021-12-12-21:47:03.332708,7.0,19.0,356.0
2021-12-12-21:47:03.333700,7.0,19.0,356.0
2021-12-12-21:47:03.334696,7.0,19.0,356.0
2021-12-12-21:47:03.335689,7.0,19.0,356.0
2021-12-12-21:47:03.336690,4.0,27.0,356.0
2021-12-12-21:47:03.337688,5.0,41.0,356.0
2021-12-12-21:47:03.338685,5.0,41.0,356.0
2021-12-12-21:47:03.339683,5.0,41.0,356.0
2021-12-12-21:47:03.340680,11.0,8.0,357.0
2021-12-12-21:47:03.341683,11.0,8.0,357.0
2021-12-12-21:47:03.342706,11.0,8.0,357.0
2021-12-12-21:47:03.343672,11.0,8.0,357.0
2021-12-12-21:47:03.344669,11.0,8.0,357.0
2021-12-12-21:47:03.345667,23.0,62.0,356.0
2021-12-12-21:47:03.346664,23.0,62.0,356.0
2021-12-12-21:47:03.347662,23.0,62.0,356.0
2021-12-12-21:47:03.348658,23.0,62.0,356.0
2021-12-12-21:47:03.349622,1.0,12.0,357.0
2021-12-12-21:47:03.350653,1.0,12.0,357.0
2021-12-12-21:47:03.351650,1.0,12.0,357.0
2021-12-12-21:47:03.352647,1.0,12.0,357.0
2021-12-12-21:47:03.353645,2.0,32.0,356.0
2021-12-12-21:47:03.354643,4.0,42.0,356.0
2021-12-12-21:47:03.355640,4.0,42.0,356.0
2021-12-12-21:47:03.356637,4.0,42.0,356.0
2021-12-12-21:47:03.357635,3.0,14.0,356.0
2021-12-12-21:47:03.358632,7.0,12.0,356.0
2021-12-12-21:47:03.359629,7.0,12.0,356.0
2021-12-12-21:47:03.360627,7.0,12.0,356.0
2021-12-12-21:47:03.361624,18.0,42.0,356.0
2021-12-12-21:47:03.362622,22.0,53.0,356.0
2021-12-12-21:47:03.363619,22.0,53.0,356.0
2021-12-12-21:47:03.364616,22.0,53.0,356.0
2021-12-12-21:47:03.366611,14.0,47.0,356.0
2021-12-12-21:47:03.366611,2.0,15.0,356.0
2021-12-12-21:47:03.367608,2.0,15.0,356.0
2021-12-12-21:47:03.368571,2.0,15.0,356.0
2021-12-12-21:47:03.369607,2.0,3.0,356.0
2021-12-12-21:47:03.370600,6.0,33.0,356.0
2021-12-12-21:47:03.371597,6.0,33.0,356.0
2021-12-12-21:47:03.372560,6.0,33.0,356.0
2021-12-12-21:47:03.373593,2.0,15.0,356.0
2021-12-12-21:47:03.374589,5.0,8.0,356.0
2021-12-12-21:47:03.375577,5.0,8.0,356.0
2021-12-12-21:47:03.376572,5.0,8.0,356.0
2021-12-12-21:47:03.377581,13.0,18.0,356.0
2021-12-12-21:47:03.378579,19.0,61.0,357.0
2021-12-12-21:47:03.379576,19.0,61.0,357.0
2021-12-12-21:47:03.380574,19.0,61.0,357.0
2021-12-12-21:47:03.381571,19.0,61.0,357.0
2021-12-12-21:47:03.382567,12.0,65.0,357.0
2021-12-12-21:47:03.383566,2.0,16.0,356.0
2021-12-12-21:47:03.384562,2.0,16.0,356.0
2021-12-12-21:47:03.385559,9.0,2.0,356.0
2021-12-12-21:47:03.386560,5.0,10.0,356.0
2021-12-12-21:47:03.387554,5.0,10.0,356.0
2021-12-12-21:47:03.388550,5.0,10.0,356.0
2021-12-12-21:47:03.389550,5.0,10.0,356.0
2021-12-12-21:47:03.390545,5.0,38.0,357.0
2021-12-12-21:47:03.391543,9.0,24.0,356.0
2021-12-12-21:47:03.392540,9.0,24.0,356.0
2021-12-12-21:47:03.393537,9.0,24.0,356.0
2021-12-12-21:47:03.394535,13.0,9.0,356.0
2021-12-12-21:47:03.395532,24.0,47.0,356.0
2021-12-12-21:47:03.396533,24.0,47.0,356.0
2021-12-12-21:47:03.397529,24.0,47.0,356.0
2021-12-12-21:47:03.398491,7.0,39.0,357.0
2021-12-12-21:47:03.399524,0.0,17.0,357.0
2021-12-12-21:47:03.401520,0.0,17.0,357.0
2021-12-12-21:47:03.401520,0.0,17.0,357.0
2021-12-12-21:47:03.402517,4.0,26.0,356.0
2021-12-12-21:47:03.403512,4.0,26.0,356.0
2021-12-12-21:47:03.404509,4.0,26.0,356.0
2021-12-12-21:47:03.405472,4.0,26.0,356.0
2021-12-12-21:47:03.406504,2.0,33.0,357.0
2021-12-12-21:47:03.407501,8.0,18.0,356.0
2021-12-12-21:47:03.408498,8.0,18.0,356.0
2021-12-12-21:47:03.409461,8.0,18.0,356.0
2021-12-12-21:47:03.410493,11.0,4.0,357.0
2021-12-12-21:47:03.411491,20.0,29.0,357.0
2021-12-12-21:47:03.412488,20.0,29.0,357.0
2021-12-12-21:47:03.413466,20.0,29.0,357.0
2021-12-12-21:47:03.414483,12.0,41.0,356.0
2021-12-12-21:47:03.415479,4.0,24.0,357.0
2021-12-12-21:47:03.416477,4.0,24.0,357.0
2021-12-12-21:47:03.417474,4.0,24.0,357.0
2021-12-12-21:47:03.418470,4.0,21.0,356.0
2021-12-12-21:47:03.419469,4.0,21.0,356.0
2021-12-12-21:47:03.420465,4.0,21.0,356.0
2021-12-12-21:47:03.421465,4.0,21.0,356.0
2021-12-12-21:47:03.422461,4.0,21.0,356.0
2021-12-12-21:47:03.423458,7.0,21.0,356.0
2021-12-12-21:47:03.424457,7.0,21.0,356.0
2021-12-12-21:47:03.425452,7.0,21.0,356.0
2021-12-12-21:47:03.426415,7.0,21.0,356.0
2021-12-12-21:47:03.427412,13.0,12.0,356.0
2021-12-12-21:47:03.428410,21.0,10.0,357.0
2021-12-12-21:47:03.429407,21.0,10.0,357.0
2021-12-12-21:47:03.430404,21.0,10.0,357.0
2021-12-12-21:47:03.431401,30.0,39.0,356.0
2021-12-12-21:47:03.432399,13.0,40.0,357.0
2021-12-12-21:47:03.433396,2.0,27.0,356.0
2021-12-12-21:47:03.434428,2.0,27.0,356.0
2021-12-12-21:47:03.436422,2.0,27.0,356.0
2021-12-12-21:47:03.436422,7.0,1.0,356.0
2021-12-12-21:47:03.437422,7.0,1.0,356.0
2021-12-12-21:47:03.438416,7.0,1.0,356.0
2021-12-12-21:47:03.439415,7.0,21.0,356.0
2021-12-12-21:47:03.440413,1.0,5.0,356.0
2021-12-12-21:47:03.441409,1.0,5.0,356.0
2021-12-12-21:47:03.442377,1.0,5.0,356.0
2021-12-12-21:47:03.443403,9.0,8.0,356.0
2021-12-12-21:47:03.444402,13.0,9.0,356.0
2021-12-12-21:47:03.445400,13.0,9.0,356.0
2021-12-12-21:47:03.446363,13.0,9.0,356.0
2021-12-12-21:47:03.447395,25.0,55.0,356.0
2021-12-12-21:47:03.448391,9.0,35.0,356.0
2021-12-12-21:47:03.449390,9.0,35.0,356.0
2021-12-12-21:47:03.450353,9.0,35.0,356.0
2021-12-12-21:47:03.451387,2.0,14.0,356.0
2021-12-12-21:47:03.452380,7.0,20.0,356.0
2021-12-12-21:47:03.453379,7.0,20.0,356.0
2021-12-12-21:47:03.454375,7.0,20.0,356.0
2021-12-12-21:47:03.455373,1.0,26.0,356.0
2021-12-12-21:47:03.456371,5.0,15.0,356.0
2021-12-12-21:47:03.457365,5.0,15.0,356.0
2021-12-12-21:47:03.458362,5.0,15.0,356.0
2021-12-12-21:47:03.459360,19.0,34.0,356.0
2021-12-12-21:47:03.460357,19.0,34.0,356.0
2021-12-12-21:47:03.461357,19.0,34.0,356.0
2021-12-12-21:47:03.462352,19.0,34.0,356.0
2021-12-12-21:47:03.463350,19.0,34.0,356.0
2021-12-12-21:47:03.464349,10.0,51.0,356.0
2021-12-12-21:47:03.465312,4.0,31.0,357.0
2021-12-12-21:47:03.466345,4.0,31.0,357.0
2021-12-12-21:47:03.468336,4.0,10.0,356.0
2021-12-12-21:47:03.468336,4.0,18.0,356.0
2021-12-12-21:47:03.469333,5.0,26.0,356.0
2021-12-12-21:47:03.470331,5.0,26.0,356.0
2021-12-12-21:47:03.471327,5.0,26.0,356.0
2021-12-12-21:47:03.472327,6.0,47.0,357.0
2021-12-12-21:47:03.473327,7.0,20.0,356.0
2021-12-12-21:47:03.474320,7.0,20.0,356.0
2021-12-12-21:47:03.475317,7.0,20.0,356.0
2021-12-12-21:47:03.476315,10.0,3.0,356.0
2021-12-12-21:47:03.477315,14.0,22.0,356.0
2021-12-12-21:47:03.478309,14.0,22.0,356.0
2021-12-12-21:47:03.479310,14.0,22.0,356.0
2021-12-12-21:47:03.480308,23.0,74.0,356.0
2021-12-12-21:47:03.481301,4.0,38.0,356.0
2021-12-12-21:47:03.482276,4.0,38.0,356.0
2021-12-12-21:47:03.483264,4.0,38.0,356.0
2021-12-12-21:47:03.484293,4.0,21.0,357.0
2021-12-12-21:47:03.485293,4.0,21.0,357.0
2021-12-12-21:47:03.486288,4.0,21.0,357.0
2021-12-12-21:47:03.487253,4.0,21.0,357.0
2021-12-12-21:47:03.488284,1.0,46.0,356.0
2021-12-12-21:47:03.489279,6.0,30.0,356.0
2021-12-12-21:47:03.490277,6.0,30.0,356.0
2021-12-12-21:47:03.491275,6.0,30.0,356.0
2021-12-12-21:47:03.492239,19.0,1.0,356.0
2021-12-12-21:47:03.493273,21.0,6.0,356.0
2021-12-12-21:47:03.494235,21.0,6.0,356.0
2021-12-12-21:47:03.495271,21.0,6.0,356.0
2021-12-12-21:47:03.496263,21.0,6.0,356.0
2021-12-12-21:47:03.497261,8.0,53.0,356.0
2021-12-12-21:47:03.498258,8.0,53.0,356.0
2021-12-12-21:47:03.499255,8.0,53.0,356.0
2021-12-12-21:47:03.500252,8.0,53.0,356.0
2021-12-12-21:47:03.502247,1.0,32.0,357.0
2021-12-12-21:47:03.502247,8.0,23.0,356.0
2021-12-12-21:47:03.503244,8.0,23.0,356.0
2021-12-12-21:47:03.504242,8.0,23.0,356.0
2021-12-12-21:47:03.505239,12.0,30.0,356.0
2021-12-12-21:47:03.506236,3.0,31.0,356.0
2021-12-12-21:47:03.507234,3.0,31.0,356.0
2021-12-12-21:47:03.508230,3.0,31.0,356.0
2021-12-12-21:47:03.509226,1.0,8.0,356.0
2021-12-12-21:47:03.510225,5.0,5.0,356.0
2021-12-12-21:47:03.511223,5.0,5.0,356.0
2021-12-12-21:47:03.512221,5.0,5.0,356.0
2021-12-12-21:47:03.513217,17.0,43.0,357.0
2021-12-12-21:47:03.514214,9.0,40.0,356.0
2021-12-12-21:47:03.515196,9.0,40.0,356.0
2021-12-12-21:47:03.516175,9.0,40.0,356.0
2021-12-12-21:47:03.517208,5.0,10.0,356.0
2021-12-12-21:47:03.518204,4.0,7.0,356.0
2021-12-12-21:47:03.519201,4.0,7.0,356.0
2021-12-12-21:47:03.520165,4.0,7.0,356.0
2021-12-12-21:47:03.521196,6.0,18.0,356.0
2021-12-12-21:47:03.522194,3.0,23.0,356.0
2021-12-12-21:47:03.523191,3.0,23.0,356.0
2021-12-12-21:47:03.524154,3.0,23.0,356.0
2021-12-12-21:47:03.525187,9.0,15.0,356.0
2021-12-12-21:47:03.526183,11.0,3.0,356.0
2021-12-12-21:47:03.527180,11.0,3.0,356.0
2021-12-12-21:47:03.528163,11.0,3.0,356.0
2021-12-12-21:47:03.529179,20.0,66.0,356.0
2021-12-12-21:47:03.530172,10.0,58.0,357.0
2021-12-12-21:47:03.531169,10.0,58.0,357.0
2021-12-12-21:47:03.532166,10.0,58.0,357.0
2021-12-12-21:47:03.533171,10.0,58.0,357.0
2021-12-12-21:47:03.534161,8.0,17.0,356.0
2021-12-12-21:47:03.535158,8.0,17.0,356.0
2021-12-12-21:47:03.537153,8.0,17.0,356.0
2021-12-12-21:47:03.537153,9.0,33.0,356.0
2021-12-12-21:47:03.538150,7.0,38.0,357.0
2021-12-12-21:47:03.539148,7.0,38.0,357.0
2021-12-12-21:47:03.540145,7.0,38.0,357.0
2021-12-12-21:47:03.541144,7.0,38.0,357.0
2021-12-12-21:47:03.542140,11.0,2.0,356.0
2021-12-12-21:47:03.543104,9.0,7.0,356.0
2021-12-12-21:47:03.544135,9.0,7.0,356.0
2021-12-12-21:47:03.545133,9.0,7.0,356.0
2021-12-12-21:47:03.546129,21.0,57.0,356.0
2021-12-12-21:47:03.547127,19.0,62.0,356.0
2021-12-12-21:47:03.548124,19.0,62.0,356.0
2021-12-12-21:47:03.549088,19.0,62.0,356.0
2021-12-12-21:47:03.550119,3.0,23.0,356.0
2021-12-12-21:47:03.551116,4.0,18.0,356.0
2021-12-12-21:47:03.552115,4.0,18.0,356.0
2021-12-12-21:47:03.553111,4.0,18.0,356.0
2021-12-12-21:47:03.554107,5.0,31.0,356.0
2021-12-12-21:47:03.555110,10.0,53.0,356.0
2021-12-12-21:47:03.556103,10.0,53.0,356.0
2021-12-12-21:47:03.557066,10.0,53.0,356.0
2021-12-12-21:47:03.558097,9.0,3.0,356.0
2021-12-12-21:47:03.559061,9.0,6.0,357.0
2021-12-12-21:47:03.560093,9.0,6.0,357.0
2021-12-12-21:47:03.561056,9.0,6.0,357.0
2021-12-12-21:47:03.562088,18.0,41.0,356.0
2021-12-12-21:47:03.563084,17.0,74.0,356.0
2021-12-12-21:47:03.564082,17.0,74.0,356.0
2021-12-12-21:47:03.565045,17.0,74.0,356.0
2021-12-12-21:47:03.566077,1.0,9.0,356.0
2021-12-12-21:47:03.567073,5.0,13.0,357.0
2021-12-12-21:47:03.568071,5.0,13.0,357.0
2021-12-12-21:47:03.570065,5.0,13.0,357.0
2021-12-12-21:47:03.570065,7.0,54.0,356.0
2021-12-12-21:47:03.571063,7.0,54.0,356.0
2021-12-12-21:47:03.572060,7.0,54.0,356.0
2021-12-12-21:47:03.573059,7.0,54.0,356.0
2021-12-12-21:47:03.574061,7.0,54.0,356.0
2021-12-12-21:47:03.575053,10.0,5.0,357.0
2021-12-12-21:47:03.576055,10.0,5.0,357.0
2021-12-12-21:47:03.577046,10.0,5.0,357.0
2021-12-12-21:47:03.578044,10.0,5.0,357.0
2021-12-12-21:47:03.579041,10.0,26.0,357.0
2021-12-12-21:47:03.580044,24.0,81.0,356.0
2021-12-12-21:47:03.581038,24.0,81.0,356.0
2021-12-12-21:47:03.582000,24.0,81.0,356.0
2021-12-12-21:47:03.582996,7.0,49.0,357.0
2021-12-12-21:47:03.584028,2.0,0.0,356.0
2021-12-12-21:47:03.585031,2.0,0.0,356.0
2021-12-12-21:47:03.586022,2.0,0.0,356.0
2021-12-12-21:47:03.587020,2.0,41.0,357.0
2021-12-12-21:47:03.588017,2.0,41.0,357.0
2021-12-12-21:47:03.589016,2.0,41.0,357.0
2021-12-12-21:47:03.590012,2.0,41.0,357.0
2021-12-12-21:47:03.591010,6.0,30.0,357.0
2021-12-12-21:47:03.592007,13.0,6.0,357.0
2021-12-12-21:47:03.593004,13.0,6.0,357.0
2021-12-12-21:47:03.594002,13.0,6.0,357.0
2021-12-12-21:47:03.595004,16.0,8.0,356.0
2021-12-12-21:47:03.595998,33.0,60.0,356.0
2021-12-12-21:47:03.596995,33.0,60.0,356.0
2021-12-12-21:47:03.597957,33.0,60.0,356.0
2021-12-12-21:47:03.598989,5.0,27.0,356.0
2021-12-12-21:47:03.599986,3.0,1.0,356.0
2021-12-12-21:47:03.600982,3.0,1.0,356.0
2021-12-12-21:47:03.601946,3.0,1.0,356.0
2021-12-12-21:47:03.602978,16.0,24.0,356.0
2021-12-12-21:47:03.604974,16.0,24.0,356.0
2021-12-12-21:47:03.604974,16.0,24.0,356.0
2021-12-12-21:47:03.605971,16.0,24.0,356.0
2021-12-12-21:47:03.606967,2.0,17.0,356.0
2021-12-12-21:47:03.607965,3.0,10.0,356.0
2021-12-12-21:47:03.608928,3.0,10.0,356.0
2021-12-12-21:47:03.609942,3.0,10.0,356.0
2021-12-12-21:47:03.610957,6.0,1.0,356.0
2021-12-12-21:47:03.611954,25.0,62.0,356.0
2021-12-12-21:47:03.612952,25.0,62.0,356.0
2021-12-12-21:47:03.613949,25.0,62.0,356.0
2021-12-12-21:47:03.614945,25.0,62.0,356.0
2021-12-12-21:47:03.615961,10.0,54.0,357.0
2021-12-12-21:47:03.616940,5.0,11.0,356.0
2021-12-12-21:47:03.617937,5.0,11.0,356.0
2021-12-12-21:47:03.618935,5.0,11.0,356.0
2021-12-12-21:47:03.619932,7.0,32.0,356.0
2021-12-12-21:47:03.620931,7.0,32.0,356.0
2021-12-12-21:47:03.621898,7.0,32.0,356.0
2021-12-12-21:47:03.622890,7.0,32.0,356.0
2021-12-12-21:47:03.623922,4.0,42.0,356.0
2021-12-12-21:47:03.624918,3.0,12.0,356.0
2021-12-12-21:47:03.625919,3.0,12.0,356.0
2021-12-12-21:47:03.626918,3.0,12.0,356.0
2021-12-12-21:47:03.627911,5.0,10.0,356.0
2021-12-12-21:47:03.628910,21.0,51.0,357.0
2021-12-12-21:47:03.629905,21.0,51.0,357.0
2021-12-12-21:47:03.630903,21.0,51.0,357.0
2021-12-12-21:47:03.631900,4.0,39.0,356.0
2021-12-12-21:47:03.632898,1.0,19.0,357.0
2021-12-12-21:47:03.633897,1.0,19.0,357.0
2021-12-12-21:47:03.634858,1.0,19.0,357.0
2021-12-12-21:47:03.635891,3.0,18.0,356.0
2021-12-12-21:47:03.636888,2.0,31.0,357.0
2021-12-12-21:47:03.638848,2.0,31.0,357.0
2021-12-12-21:47:03.638848,1.0,47.0,356.0
2021-12-12-21:47:03.639884,5.0,13.0,356.0
2021-12-12-21:47:03.640876,5.0,13.0,356.0
2021-12-12-21:47:03.641873,5.0,13.0,356.0
2021-12-12-21:47:03.642850,5.0,13.0,356.0
2021-12-12-21:47:03.643868,5.0,12.0,357.0
2021-12-12-21:47:03.644867,21.0,40.0,356.0
2021-12-12-21:47:03.645863,21.0,40.0,356.0
2021-12-12-21:47:03.646864,21.0,40.0,356.0
2021-12-12-21:47:03.647857,18.0,68.0,357.0
2021-12-12-21:47:03.648821,4.0,30.0,357.0
2021-12-12-21:47:03.649819,4.0,30.0,357.0
2021-12-12-21:47:03.650849,4.0,30.0,357.0
2021-12-12-21:47:03.651846,4.0,30.0,357.0
2021-12-12-21:47:03.652846,4.0,21.0,356.0
2021-12-12-21:47:03.653842,4.0,21.0,356.0
2021-12-12-21:47:03.654838,4.0,21.0,356.0
2021-12-12-21:47:03.655836,4.0,21.0,356.0
2021-12-12-21:47:03.656833,5.0,15.0,357.0
2021-12-12-21:47:03.657831,5.0,15.0,357.0
2021-12-12-21:47:03.658828,5.0,15.0,357.0
2021-12-12-21:47:03.659827,5.0,15.0,357.0
2021-12-12-21:47:03.660824,14.0,12.0,356.0
2021-12-12-21:47:03.661820,16.0,24.0,357.0
2021-12-12-21:47:03.662818,16.0,24.0,357.0
2021-12-12-21:47:03.663815,16.0,24.0,357.0
2021-12-12-21:47:03.664817,19.0,67.0,356.0
2021-12-12-21:47:03.665810,0.0,34.0,356.0
2021-12-12-21:47:03.666807,0.0,34.0,356.0
2021-12-12-21:47:03.667804,0.0,34.0,356.0
2021-12-12-21:47:03.668803,10.0,9.0,356.0
2021-12-12-21:47:03.669799,13.0,24.0,356.0
2021-12-12-21:47:03.670795,13.0,24.0,356.0
2021-12-12-21:47:03.672791,13.0,24.0,356.0
2021-12-12-21:47:03.672791,8.0,43.0,357.0
2021-12-12-21:47:03.673789,2.0,27.0,356.0
2021-12-12-21:47:03.674785,2.0,27.0,356.0
2021-12-12-21:47:03.675749,2.0,27.0,356.0
2021-12-12-21:47:03.676781,9.0,0.0,357.0
2021-12-12-21:47:03.677777,39.0,53.0,356.0
2021-12-12-21:47:03.678775,39.0,53.0,356.0
2021-12-12-21:47:03.679739,39.0,53.0,356.0
2021-12-12-21:47:03.680769,18.0,41.0,356.0
2021-12-12-21:47:03.681773,10.0,21.0,357.0
2021-12-12-21:47:03.682765,10.0,21.0,357.0
2021-12-12-21:47:03.683764,10.0,21.0,357.0
2021-12-12-21:47:03.684761,4.0,18.0,356.0
2021-12-12-21:47:03.685757,7.0,27.0,356.0
2021-12-12-21:47:03.686753,7.0,27.0,356.0
2021-12-12-21:47:03.687751,7.0,27.0,356.0
2021-12-12-21:47:03.688747,9.0,31.0,356.0
2021-12-12-21:47:03.689745,7.0,16.0,356.0
2021-12-12-21:47:03.690743,7.0,16.0,356.0
2021-12-12-21:47:03.691740,7.0,16.0,356.0
2021-12-12-21:47:03.692739,7.0,16.0,356.0
2021-12-12-21:47:03.693735,1.0,3.0,356.0
2021-12-12-21:47:03.694732,14.0,33.0,356.0
2021-12-12-21:47:03.695729,14.0,33.0,356.0
2021-12-12-21:47:03.696726,14.0,33.0,356.0
2021-12-12-21:47:03.697731,13.0,45.0,356.0
2021-12-12-21:47:03.698686,10.0,24.0,356.0
2021-12-12-21:47:03.699719,10.0,24.0,356.0
2021-12-12-21:47:03.700718,10.0,24.0,356.0
2021-12-12-21:47:03.701713,0.0,21.0,356.0
2021-12-12-21:47:03.702710,1.0,27.0,357.0
2021-12-12-21:47:03.703710,1.0,27.0,357.0
2021-12-12-21:47:03.704706,1.0,27.0,357.0
2021-12-12-21:47:03.706700,1.0,36.0,356.0
2021-12-12-21:47:03.706700,6.0,19.0,356.0
2021-12-12-21:47:03.707697,6.0,19.0,356.0
2021-12-12-21:47:03.708696,6.0,19.0,356.0
2021-12-12-21:47:03.709692,12.0,12.0,356.0
2021-12-12-21:47:03.710689,20.0,24.0,357.0
2021-12-12-21:47:03.711687,20.0,24.0,357.0
2021-12-12-21:47:03.712650,20.0,24.0,357.0
2021-12-12-21:47:03.713681,18.0,57.0,356.0
2021-12-12-21:47:03.714679,5.0,34.0,356.0
2021-12-12-21:47:03.715675,5.0,34.0,356.0
2021-12-12-21:47:03.716640,5.0,34.0,356.0
2021-12-12-21:47:03.717676,8.0,16.0,356.0
2021-12-12-21:47:03.718668,9.0,23.0,356.0
2021-12-12-21:47:03.719666,9.0,23.0,356.0
2021-12-12-21:47:03.720663,9.0,23.0,356.0
2021-12-12-21:47:03.721659,15.0,42.0,356.0
2021-12-12-21:47:03.722657,2.0,22.0,356.0
2021-12-12-21:47:03.723654,2.0,22.0,356.0
2021-12-12-21:47:03.724653,2.0,22.0,356.0
2021-12-12-21:47:03.725615,5.0,15.0,356.0
2021-12-12-21:47:03.726646,5.0,15.0,356.0
2021-12-12-21:47:03.727644,5.0,15.0,356.0
2021-12-12-21:47:03.728641,5.0,15.0,356.0
2021-12-12-21:47:03.729645,5.0,15.0,356.0
2021-12-12-21:47:03.730636,15.0,69.0,357.0
2021-12-12-21:47:03.731633,5.0,45.0,356.0
2021-12-12-21:47:03.732632,5.0,45.0,356.0
2021-12-12-21:47:03.733628,5.0,45.0,356.0
2021-12-12-21:47:03.734626,6.0,3.0,356.0
2021-12-12-21:47:03.735624,17.0,23.0,356.0
2021-12-12-21:47:03.736627,17.0,23.0,356.0
2021-12-12-21:47:03.737618,17.0,23.0,356.0
2021-12-12-21:47:03.738620,19.0,31.0,357.0
2021-12-12-21:47:03.740611,19.0,31.0,357.0
2021-12-12-21:47:03.740611,19.0,31.0,357.0
2021-12-12-21:47:03.741613,19.0,31.0,357.0
2021-12-12-21:47:03.742620,14.0,5.0,356.0
2021-12-12-21:47:03.743602,3.0,13.0,356.0
2021-12-12-21:47:03.744598,3.0,13.0,356.0
2021-12-12-21:47:03.745595,3.0,13.0,356.0
2021-12-12-21:47:03.746593,1.0,70.0,357.0
2021-12-12-21:47:03.747590,10.0,50.0,357.0
2021-12-12-21:47:03.748589,10.0,50.0,357.0
2021-12-12-21:47:03.749552,10.0,50.0,357.0
2021-12-12-21:47:03.750582,21.0,6.0,357.0
2021-12-12-21:47:03.751580,15.0,23.0,356.0
2021-12-12-21:47:03.752577,15.0,23.0,356.0
2021-12-12-21:47:03.753541,15.0,23.0,356.0
2021-12-12-21:47:03.754572,7.0,32.0,357.0
2021-12-12-21:47:03.755569,2.0,43.0,357.0
2021-12-12-21:47:03.756568,2.0,43.0,357.0
2021-12-12-21:47:03.757540,2.0,43.0,357.0
2021-12-12-21:47:03.758561,9.0,12.0,356.0
2021-12-12-21:47:03.759559,16.0,9.0,356.0
2021-12-12-21:47:03.760556,16.0,9.0,356.0
2021-12-12-21:47:03.761553,16.0,9.0,356.0
2021-12-12-21:47:03.762550,20.0,22.0,356.0
2021-12-12-21:47:03.763547,17.0,57.0,356.0
2021-12-12-21:47:03.764547,17.0,57.0,356.0
2021-12-12-21:47:03.765508,17.0,57.0,356.0
2021-12-12-21:47:03.766539,17.0,57.0,356.0
2021-12-12-21:47:03.767540,2.0,16.0,357.0
2021-12-12-21:47:03.768535,2.0,16.0,357.0
2021-12-12-21:47:03.769531,2.0,16.0,357.0
2021-12-12-21:47:03.770529,2.0,16.0,357.0
2021-12-12-21:47:03.771526,10.0,41.0,357.0
2021-12-12-21:47:03.772525,4.0,44.0,356.0
2021-12-12-21:47:03.774519,4.0,44.0,356.0
2021-12-12-21:47:03.774519,16.0,6.0,356.0
2021-12-12-21:47:03.775516,12.0,4.0,356.0
2021-12-12-21:47:03.776484,12.0,4.0,356.0
2021-12-12-21:47:03.777511,12.0,4.0,356.0
2021-12-12-21:47:03.778509,12.0,4.0,356.0
2021-12-12-21:47:03.779505,21.0,64.0,356.0
2021-12-12-21:47:03.780504,16.0,64.0,357.0
2021-12-12-21:47:03.781500,16.0,64.0,357.0
2021-12-12-21:47:03.782463,16.0,64.0,357.0
2021-12-12-21:47:03.783494,8.0,2.0,356.0
2021-12-12-21:47:03.784491,8.0,14.0,356.0
2021-12-12-21:47:03.785491,8.0,14.0,356.0
2021-12-12-21:47:03.786453,8.0,14.0,356.0
2021-12-12-21:47:03.787485,1.0,27.0,356.0
2021-12-12-21:47:03.788483,9.0,48.0,356.0
2021-12-12-21:47:03.789478,9.0,48.0,356.0
2021-12-12-21:47:03.790442,9.0,48.0,356.0
2021-12-12-21:47:03.791474,9.0,14.0,357.0
2021-12-12-21:47:03.792470,16.0,8.0,357.0
2021-12-12-21:47:03.793468,16.0,8.0,357.0
2021-12-12-21:47:03.794431,16.0,8.0,357.0
2021-12-12-21:47:03.795462,16.0,34.0,356.0
2021-12-12-21:47:03.796461,16.0,71.0,357.0
2021-12-12-21:47:03.797461,16.0,71.0,357.0
2021-12-12-21:47:03.798458,16.0,71.0,357.0
2021-12-12-21:47:03.799453,5.0,12.0,356.0
2021-12-12-21:47:03.800452,2.0,10.0,356.0
2021-12-12-21:47:03.801448,2.0,10.0,356.0
2021-12-12-21:47:03.802445,2.0,10.0,356.0
2021-12-12-21:47:03.803443,8.0,18.0,356.0
2021-12-12-21:47:03.804440,7.0,27.0,356.0
2021-12-12-21:47:03.805444,15.0,45.0,356.0
2021-12-12-21:47:03.807431,15.0,45.0,356.0
2021-12-12-21:47:03.807431,8.0,22.0,356.0
2021-12-12-21:47:03.808428,1.0,3.0,357.0
2021-12-12-21:47:03.809426,1.0,3.0,357.0
2021-12-12-21:47:03.810422,1.0,3.0,357.0
2021-12-12-21:47:03.811420,1.0,3.0,357.0
2021-12-12-21:47:03.812419,10.0,17.0,357.0
2021-12-12-21:47:03.813420,28.0,67.0,356.0
2021-12-12-21:47:03.814411,28.0,67.0,356.0
2021-12-12-21:47:03.815409,28.0,67.0,356.0
2021-12-12-21:47:03.816408,6.0,16.0,356.0
2021-12-12-21:47:03.817404,3.0,6.0,357.0
2021-12-12-21:47:03.818402,3.0,6.0,357.0
2021-12-12-21:47:03.819401,3.0,6.0,357.0
2021-12-12-21:47:03.820397,8.0,22.0,357.0
2021-12-12-21:47:03.821396,13.0,38.0,357.0
2021-12-12-21:47:03.822391,13.0,38.0,357.0
2021-12-12-21:47:03.823389,13.0,38.0,357.0
2021-12-12-21:47:03.824385,0.0,3.0,356.0
2021-12-12-21:47:03.825383,0.0,3.0,356.0
2021-12-12-21:47:03.826384,0.0,3.0,356.0
2021-12-12-21:47:03.827343,0.0,3.0,356.0
2021-12-12-21:47:03.828376,9.0,11.0,356.0
2021-12-12-21:47:03.829371,17.0,63.0,356.0
2021-12-12-21:47:03.830369,17.0,63.0,356.0
2021-12-12-21:47:03.831332,17.0,63.0,356.0
2021-12-12-21:47:03.832369,13.0,43.0,357.0
2021-12-12-21:47:03.833363,6.0,2.0,356.0
2021-12-12-21:47:03.834363,6.0,2.0,356.0
2021-12-12-21:47:03.835358,6.0,2.0,356.0
2021-12-12-21:47:03.836355,3.0,24.0,356.0
2021-12-12-21:47:03.837350,4.0,31.0,356.0
2021-12-12-21:47:03.838354,4.0,31.0,356.0
2021-12-12-21:47:03.839347,4.0,31.0,356.0
2021-12-12-21:47:03.840342,5.0,16.0,357.0
2021-12-12-21:47:03.842303,7.0,6.0,357.0
2021-12-12-21:47:03.842303,7.0,6.0,357.0
2021-12-12-21:47:03.843334,7.0,6.0,357.0
2021-12-12-21:47:03.844333,7.0,6.0,357.0
2021-12-12-21:47:03.845329,9.0,13.0,357.0
2021-12-12-21:47:03.846326,25.0,66.0,357.0
2021-12-12-21:47:03.847324,25.0,66.0,357.0
2021-12-12-21:47:03.848320,25.0,66.0,357.0
2021-12-12-21:47:03.849319,8.0,53.0,356.0
2021-12-12-21:47:03.850316,6.0,9.0,357.0
2021-12-12-21:47:03.851316,6.0,9.0,357.0
2021-12-12-21:47:03.852312,6.0,9.0,357.0
2021-12-12-21:47:03.853307,6.0,27.0,356.0
2021-12-12-21:47:03.854305,2.0,34.0,357.0
2021-12-12-21:47:03.855303,2.0,34.0,357.0
2021-12-12-21:47:03.856299,2.0,34.0,357.0
2021-12-12-21:47:03.857298,11.0,43.0,356.0
2021-12-12-21:47:03.858294,17.0,7.0,356.0
2021-12-12-21:47:03.859297,17.0,7.0,356.0
2021-12-12-21:47:03.860291,17.0,7.0,356.0
2021-12-12-21:47:03.861286,11.0,24.0,356.0
2021-12-12-21:47:03.862284,21.0,61.0,356.0
2021-12-12-21:47:03.863281,21.0,61.0,356.0
2021-12-12-21:47:03.864245,21.0,61.0,356.0
2021-12-12-21:47:03.865275,2.0,42.0,357.0
2021-12-12-21:47:03.866278,4.0,21.0,356.0
2021-12-12-21:47:03.867270,4.0,21.0,356.0
2021-12-12-21:47:03.868234,4.0,21.0,356.0
2021-12-12-21:47:03.869265,11.0,16.0,356.0
2021-12-12-21:47:03.870262,13.0,27.0,356.0
2021-12-12-21:47:03.871261,13.0,27.0,356.0
2021-12-12-21:47:03.872238,13.0,27.0,356.0
2021-12-12-21:47:03.873254,14.0,49.0,356.0
2021-12-12-21:47:03.875249,3.0,20.0,356.0
2021-12-12-21:47:03.875249,3.0,20.0,356.0
2021-12-12-21:47:03.876248,3.0,20.0,356.0
2021-12-12-21:47:03.877243,7.0,1.0,356.0
2021-12-12-21:47:03.878241,21.0,39.0,356.0
2021-12-12-21:47:03.879250,21.0,39.0,356.0
2021-12-12-21:47:03.880236,21.0,39.0,356.0
2021-12-12-21:47:03.881234,21.0,39.0,356.0
2021-12-12-21:47:03.882197,21.0,72.0,356.0
2021-12-12-21:47:03.883227,9.0,32.0,356.0
2021-12-12-21:47:03.884227,9.0,32.0,356.0
2021-12-12-21:47:03.885222,9.0,32.0,356.0
2021-12-12-21:47:03.886219,13.0,11.0,357.0
2021-12-12-21:47:03.887218,9.0,26.0,356.0
2021-12-12-21:47:03.888214,9.0,26.0,356.0
2021-12-12-21:47:03.889211,9.0,26.0,356.0
2021-12-12-21:47:03.890209,3.0,41.0,357.0
2021-12-12-21:47:03.891208,2.0,25.0,356.0
2021-12-12-21:47:03.892205,2.0,25.0,356.0
2021-12-12-21:47:03.893167,2.0,25.0,356.0
2021-12-12-21:47:03.894199,1.0,13.0,357.0
2021-12-12-21:47:03.895197,5.0,10.0,356.0
2021-12-12-21:47:03.896193,5.0,10.0,356.0
2021-12-12-21:47:03.897190,5.0,10.0,356.0
2021-12-12-21:47:03.898188,10.0,67.0,356.0
2021-12-12-21:47:03.899185,0.0,38.0,357.0
2021-12-12-21:47:03.900184,0.0,38.0,357.0
2021-12-12-21:47:03.901146,0.0,38.0,357.0
2021-12-12-21:47:03.902178,6.0,6.0,356.0
2021-12-12-21:47:03.903175,7.0,8.0,357.0
2021-12-12-21:47:03.904173,7.0,8.0,357.0
2021-12-12-21:47:03.905135,7.0,8.0,357.0
2021-12-12-21:47:03.906166,3.0,21.0,357.0
2021-12-12-21:47:03.907163,5.0,10.0,357.0
2021-12-12-21:47:03.908163,5.0,10.0,357.0
2021-12-12-21:47:03.910155,5.0,10.0,357.0
2021-12-12-21:47:03.910155,10.0,13.0,357.0
