# 
# 
# 
# 
# 
# 
# 
# 
# 
# 
# time,realtime,ref,inp,dis,state...
0.000000000000000000e+00,1.644605423352569580e+09,0.000000000000000000e+00,0.000000000000000000e+00,0.000000000000000000e+00,6.058920396141737053e-01
1.666666666666666644e-02,1.644605423356558561e+09,0.000000000000000000e+00,6.058920396141737053e-01,0.000000000000000000e+00,6.058920396141737053e-01
3.333333333333333287e-02,1.644605423358554602e+09,0.000000000000000000e+00,0.000000000000000000e+00,0.000000000000000000e+00,0.000000000000000000e+00
5.000000000000000278e-02,1.644605423374118328e+09,0.000000000000000000e+00,-6.216417629971178194e-01,0.000000000000000000e+00,-6.216417629971178194e-01
6.666666666666666574e-02,1.644605423390714884e+09,0.000000000000000000e+00,-5.850898103955973761e-01,0.000000000000000000e+00,-5.850898103955973761e-01
8.333333333333332871e-02,1.644605423412047148e+09,0.000000000000000000e+00,-6.477503005696317873e-01,0.000000000000000000e+00,-6.477503005696317873e-01
1.000000000000000056e-01,1.644605423428022146e+09,0.000000000000000000e+00,-7.260759132871753563e-01,0.000000000000000000e+00,-7.260759132871753563e-01
1.166666666666666685e-01,1.644605423444978714e+09,0.000000000000000000e+00,-6.373068855406260891e-01,0.000000000000000000e+00,-6.373068855406260891e-01
1.333333333333333315e-01,1.644605423462933779e+09,0.000000000000000000e+00,-6.164200554826141376e-01,0.000000000000000000e+00,-6.164200554826141376e-01
1.499999999999999944e-01,1.644605423479042053e+09,0.000000000000000000e+00,0.000000000000000000e+00,0.000000000000000000e+00,0.000000000000000000e+00
1.666666666666666574e-01,1.644605423495453358e+09,0.000000000000000000e+00,0.000000000000000000e+00,0.000000000000000000e+00,0.000000000000000000e+00
1.833333333333333204e-01,1.644605423512392521e+09,0.000000000000000000e+00,0.000000000000000000e+00,0.000000000000000000e+00,0.000000000000000000e+00
2.000000000000000111e-01,1.644605423529716492e+09,0.000000000000000000e+00,0.000000000000000000e+00,0.000000000000000000e+00,0.000000000000000000e+00
2.166666666666666741e-01,1.644605423546689987e+09,0.000000000000000000e+00,0.000000000000000000e+00,0.000000000000000000e+00,0.000000000000000000e+00
2.333333333333333370e-01,1.644605423563676834e+09,0.000000000000000000e+00,0.000000000000000000e+00,0.000000000000000000e+00,0.000000000000000000e+00
2.500000000000000000e-01,1.644605423579634190e+09,0.000000000000000000e+00,0.000000000000000000e+00,0.000000000000000000e+00,0.000000000000000000e+00
2.666666666666666630e-01,1.644605423597536802e+09,0.000000000000000000e+00,0.000000000000000000e+00,0.000000000000000000e+00,0.000000000000000000e+00
2.833333333333333259e-01,1.644605423615535259e+09,0.000000000000000000e+00,0.000000000000000000e+00,0.000000000000000000e+00,0.000000000000000000e+00
2.999999999999999889e-01,1.644605423632469654e+09,0.000000000000000000e+00,0.000000000000000000e+00,0.000000000000000000e+00,0.000000000000000000e+00
3.166666666666666519e-01,1.644605423649866581e+09,0.000000000000000000e+00,0.000000000000000000e+00,0.000000000000000000e+00,0.000000000000000000e+00
3.333333333333333148e-01,1.644605423664362192e+09,0.000000000000000000e+00,0.000000000000000000e+00,0.000000000000000000e+00,0.000000000000000000e+00
3.499999999999999778e-01,1.644605423683322430e+09,0.000000000000000000e+00,0.000000000000000000e+00,0.000000000000000000e+00,0.000000000000000000e+00
3.666666666666666408e-01,1.644605423698597670e+09,0.000000000000000000e+00,0.000000000000000000e+00,0.000000000000000000e+00,0.000000000000000000e+00
3.833333333333333037e-01,1.644605423717576504e+09,0.000000000000000000e+00,0.000000000000000000e+00,0.000000000000000000e+00,0.000000000000000000e+00
4.000000000000000222e-01,1.644605423734124422e+09,0.000000000000000000e+00,0.000000000000000000e+00,0.000000000000000000e+00,0.000000000000000000e+00
4.166666666666666852e-01,1.644605423751079559e+09,0.000000000000000000e+00,0.000000000000000000e+00,0.000000000000000000e+00,0.000000000000000000e+00
4.333333333333333481e-01,1.644605423768031120e+09,0.000000000000000000e+00,0.000000000000000000e+00,0.000000000000000000e+00,0.000000000000000000e+00
4.500000000000000111e-01,1.644605423786981583e+09,0.000000000000000000e+00,0.000000000000000000e+00,0.000000000000000000e+00,0.000000000000000000e+00
4.666666666666666741e-01,1.644605423801437855e+09,0.000000000000000000e+00,0.000000000000000000e+00,0.000000000000000000e+00,0.000000000000000000e+00
4.833333333333333370e-01,1.644605423821786404e+09,0.000000000000000000e+00,0.000000000000000000e+00,0.000000000000000000e+00,0.000000000000000000e+00
5.000000000000000000e-01,1.644605423837716103e+09,0.000000000000000000e+00,0.000000000000000000e+00,0.000000000000000000e+00,0.000000000000000000e+00
5.166666666666666075e-01,1.644605423853206635e+09,0.000000000000000000e+00,0.000000000000000000e+00,0.000000000000000000e+00,0.000000000000000000e+00
5.333333333333333259e-01,1.644605423872309208e+09,0.000000000000000000e+00,0.000000000000000000e+00,0.000000000000000000e+00,0.000000000000000000e+00
5.500000000000000444e-01,1.644605423890307426e+09,0.000000000000000000e+00,0.000000000000000000e+00,0.000000000000000000e+00,0.000000000000000000e+00
5.666666666666666519e-01,1.644605423906565189e+09,0.000000000000000000e+00,0.000000000000000000e+00,0.000000000000000000e+00,0.000000000000000000e+00
5.833333333333333703e-01,1.644605423922881603e+09,0.000000000000000000e+00,5.905982429267173650e-01,0.000000000000000000e+00,5.905982429267173650e-01
5.999999999999999778e-01,1.644605423939151525e+09,0.000000000000000000e+00,0.000000000000000000e+00,0.000000000000000000e+00,0.000000000000000000e+00
6.166666666666666963e-01,1.644605423957357168e+09,0.000000000000000000e+00,0.000000000000000000e+00,0.000000000000000000e+00,0.000000000000000000e+00
6.333333333333333037e-01,1.644605423971831560e+09,0.000000000000000000e+00,0.000000000000000000e+00,0.000000000000000000e+00,0.000000000000000000e+00
6.500000000000000222e-01,1.644605423993769646e+09,0.000000000000000000e+00,0.000000000000000000e+00,0.000000000000000000e+00,0.000000000000000000e+00
6.666666666666666297e-01,1.644605424010725737e+09,0.000000000000000000e+00,0.000000000000000000e+00,0.000000000000000000e+00,0.000000000000000000e+00
6.833333333333333481e-01,1.644605424025661707e+09,0.000000000000000000e+00,5.542754757940089316e-01,0.000000000000000000e+00,5.542754757940089316e-01
6.999999999999999556e-01,1.644605424042869091e+09,0.000000000000000000e+00,5.561872003799409603e-01,0.000000000000000000e+00,5.561872003799409603e-01
7.166666666666666741e-01,1.644605424058854103e+09,0.000000000000000000e+00,6.078037642001056229e-01,0.000000000000000000e+00,6.078037642001056229e-01
7.333333333333332815e-01,1.644605424075292826e+09,0.000000000000000000e+00,6.403030821609504430e-01,0.000000000000000000e+00,6.403030821609504430e-01
7.500000000000000000e-01,1.644605424094256401e+09,0.000000000000000000e+00,5.848630691689215011e-01,0.000000000000000000e+00,5.848630691689215011e-01
7.666666666666666075e-01,1.644605424110538483e+09,0.000000000000000000e+00,5.733927216533292182e-01,0.000000000000000000e+00,5.733927216533292182e-01
7.833333333333333259e-01,1.644605424126660824e+09,0.000000000000000000e+00,6.995665443248431092e-01,0.000000000000000000e+00,6.995665443248431092e-01
8.000000000000000444e-01,1.644605424144196749e+09,0.000000000000000000e+00,6.708906755358626794e-01,0.000000000000000000e+00,6.708906755358626794e-01
8.166666666666666519e-01,1.644605424160151720e+09,0.000000000000000000e+00,7.205955147700956465e-01,0.000000000000000000e+00,7.205955147700956465e-01
8.333333333333333703e-01,1.644605424176458836e+09,0.000000000000000000e+00,6.689789509499306508e-01,0.000000000000000000e+00,6.689789509499306508e-01
8.499999999999999778e-01,1.644605424193413258e+09,0.000000000000000000e+00,7.033899934967071665e-01,0.000000000000000000e+00,7.033899934967071665e-01
8.666666666666666963e-01,1.644605424210615396e+09,0.000000000000000000e+00,5.580989249658729889e-01,0.000000000000000000e+00,5.580989249658729889e-01
8.833333333333333037e-01,1.644605424227941513e+09,0.000000000000000000e+00,0.000000000000000000e+00,0.000000000000000000e+00,0.000000000000000000e+00
9.000000000000000222e-01,1.644605424244764328e+09,0.000000000000000000e+00,5.447168528643490104e-01,0.000000000000000000e+00,5.447168528643490104e-01
9.166666666666666297e-01,1.644605424262110710e+09,0.000000000000000000e+00,0.000000000000000000e+00,0.000000000000000000e+00,0.000000000000000000e+00
9.333333333333333481e-01,1.644605424277971983e+09,0.000000000000000000e+00,5.485403020362129567e-01,0.000000000000000000e+00,5.485403020362129567e-01
9.499999999999999556e-01,1.644605424297921658e+09,0.000000000000000000e+00,5.466285774502809280e-01,0.000000000000000000e+00,5.466285774502809280e-01
9.666666666666666741e-01,1.644605424312282801e+09,0.000000000000000000e+00,0.000000000000000000e+00,0.000000000000000000e+00,0.000000000000000000e+00
9.833333333333332815e-01,1.644605424328483820e+09,0.000000000000000000e+00,6.097154887860379846e-01,0.000000000000000000e+00,6.097154887860379846e-01
1.000000000000000000e+00,1.644605424349405289e+09,0.000000000000000000e+00,5.561872003799409603e-01,0.000000000000000000e+00,5.561872003799409603e-01
1.016666666666666607e+00,1.644605424364369392e+09,0.000000000000000000e+00,0.000000000000000000e+00,0.000000000000000000e+00,0.000000000000000000e+00
1.033333333333333215e+00,1.644605424379528999e+09,0.000000000000000000e+00,5.561872003799409603e-01,0.000000000000000000e+00,5.561872003799409603e-01
1.050000000000000044e+00,1.644605424398469925e+09,0.000000000000000000e+00,0.000000000000000000e+00,0.000000000000000000e+00,0.000000000000000000e+00
1.066666666666666652e+00,1.644605424413441420e+09,0.000000000000000000e+00,5.466285774502809280e-01,0.000000000000000000e+00,5.466285774502809280e-01
1.083333333333333259e+00,1.644605424430394650e+09,0.000000000000000000e+00,0.000000000000000000e+00,0.000000000000000000e+00,0.000000000000000000e+00
1.100000000000000089e+00,1.644605424447838068e+09,0.000000000000000000e+00,0.000000000000000000e+00,0.000000000000000000e+00,0.000000000000000000e+00
1.116666666666666696e+00,1.644605424465375900e+09,0.000000000000000000e+00,0.000000000000000000e+00,0.000000000000000000e+00,0.000000000000000000e+00
1.133333333333333304e+00,1.644605424481333017e+09,0.000000000000000000e+00,0.000000000000000000e+00,0.000000000000000000e+00,0.000000000000000000e+00
1.149999999999999911e+00,1.644605424499751806e+09,0.000000000000000000e+00,6.173623871297658772e-01,0.000000000000000000e+00,6.173623871297658772e-01
1.166666666666666741e+00,1.644605424517349005e+09,0.000000000000000000e+00,0.000000000000000000e+00,0.000000000000000000e+00,0.000000000000000000e+00
1.183333333333333348e+00,1.644605424534968376e+09,0.000000000000000000e+00,5.542754757940089316e-01,0.000000000000000000e+00,5.542754757940089316e-01
1.199999999999999956e+00,1.644605424551047087e+09,0.000000000000000000e+00,5.867747937548534187e-01,0.000000000000000000e+00,5.867747937548534187e-01
1.216666666666666563e+00,1.644605424569977045e+09,0.000000000000000000e+00,0.000000000000000000e+00,0.000000000000000000e+00,0.000000000000000000e+00
1.233333333333333393e+00,1.644605424585929394e+09,0.000000000000000000e+00,8.372107145119491722e-01,0.000000000000000000e+00,8.372107145119491722e-01
1.250000000000000000e+00,1.644605424605248690e+09,0.000000000000000000e+00,7.970644982073770146e-01,0.000000000000000000e+00,7.970644982073770146e-01
1.266666666666666607e+00,1.644605424619259119e+09,0.000000000000000000e+00,8.773569308165218850e-01,0.000000000000000000e+00,8.773569308165218850e-01
1.283333333333333215e+00,1.644605424638160706e+09,0.000000000000000000e+00,8.142700194807651615e-01,0.000000000000000000e+00,8.142700194807651615e-01
1.300000000000000044e+00,1.644605424656587362e+09,0.000000000000000000e+00,7.244189639419597038e-01,0.000000000000000000e+00,7.244189639419597038e-01
1.316666666666666652e+00,1.644605424671520948e+09,0.000000000000000000e+00,7.167720655982314781e-01,0.000000000000000000e+00,7.167720655982314781e-01
1.333333333333333259e+00,1.644605424687318087e+09,0.000000000000000000e+00,6.364796329890861637e-01,0.000000000000000000e+00,6.364796329890861637e-01
1.350000000000000089e+00,1.644605424706673861e+09,0.000000000000000000e+00,6.020685904423096479e-01,0.000000000000000000e+00,6.020685904423096479e-01
1.366666666666666696e+00,1.644605424724112272e+09,0.000000000000000000e+00,0.000000000000000000e+00,0.000000000000000000e+00,0.000000000000000000e+00
1.383333333333333304e+00,1.644605424738389969e+09,0.000000000000000000e+00,5.695692724814652719e-01,0.000000000000000000e+00,5.695692724814652719e-01
1.399999999999999911e+00,1.644605424757338285e+09,0.000000000000000000e+00,5.733927216533292182e-01,0.000000000000000000e+00,5.733927216533292182e-01
1.416666666666666741e+00,1.644605424773001432e+09,0.000000000000000000e+00,0.000000000000000000e+00,0.000000000000000000e+00,0.000000000000000000e+00
1.433333333333333348e+00,1.644605424792326927e+09,0.000000000000000000e+00,0.000000000000000000e+00,0.000000000000000000e+00,0.000000000000000000e+00
1.449999999999999956e+00,1.644605424807310104e+09,0.000000000000000000e+00,0.000000000000000000e+00,0.000000000000000000e+00,0.000000000000000000e+00
1.466666666666666563e+00,1.644605424823574543e+09,0.000000000000000000e+00,0.000000000000000000e+00,0.000000000000000000e+00,0.000000000000000000e+00
1.483333333333333393e+00,1.644605424840505838e+09,0.000000000000000000e+00,0.000000000000000000e+00,0.000000000000000000e+00,0.000000000000000000e+00
1.500000000000000000e+00,1.644605424860476017e+09,0.000000000000000000e+00,0.000000000000000000e+00,0.000000000000000000e+00,0.000000000000000000e+00
1.516666666666666607e+00,1.644605424876505136e+09,0.000000000000000000e+00,-6.373068855406260891e-01,0.000000000000000000e+00,-6.373068855406260891e-01
1.533333333333333215e+00,1.644605424895779371e+09,0.000000000000000000e+00,-6.686371306276438498e-01,0.000000000000000000e+00,-6.686371306276438498e-01
1.550000000000000044e+00,1.644605424909095049e+09,0.000000000000000000e+00,6.383913575750181923e-01,0.000000000000000000e+00,6.383913575750181923e-01
1.566666666666666652e+00,1.644605424928731203e+09,0.000000000000000000e+00,5.542754757940089316e-01,0.000000000000000000e+00,5.542754757940089316e-01
1.583333333333333259e+00,1.644605424945687294e+09,0.000000000000000000e+00,0.000000000000000000e+00,0.000000000000000000e+00,0.000000000000000000e+00
1.600000000000000089e+00,1.644605424960985661e+09,0.000000000000000000e+00,0.000000000000000000e+00,0.000000000000000000e+00,0.000000000000000000e+00
1.616666666666666696e+00,1.644605424980911732e+09,0.000000000000000000e+00,-6.164200554826141376e-01,0.000000000000000000e+00,-6.164200554826141376e-01
1.633333333333333304e+00,1.644605424996841431e+09,0.000000000000000000e+00,0.000000000000000000e+00,0.000000000000000000e+00,0.000000000000000000e+00
1.649999999999999911e+00,1.644605425016788244e+09,0.000000000000000000e+00,-6.373068855406260891e-01,0.000000000000000000e+00,-6.373068855406260891e-01
1.666666666666666741e+00,1.644605425029788017e+09,0.000000000000000000e+00,0.000000000000000000e+00,0.000000000000000000e+00,0.000000000000000000e+00
1.683333333333333348e+00,1.644605425047730446e+09,0.000000000000000000e+00,0.000000000000000000e+00,0.000000000000000000e+00,0.000000000000000000e+00
1.699999999999999956e+00,1.644605425064691067e+09,0.000000000000000000e+00,0.000000000000000000e+00,0.000000000000000000e+00,0.000000000000000000e+00
1.716666666666666563e+00,1.644605425083644152e+09,0.000000000000000000e+00,0.000000000000000000e+00,0.000000000000000000e+00,0.000000000000000000e+00
1.733333333333333393e+00,1.644605425100564003e+09,0.000000000000000000e+00,0.000000000000000000e+00,0.000000000000000000e+00,0.000000000000000000e+00
1.750000000000000000e+00,1.644605425117545128e+09,0.000000000000000000e+00,0.000000000000000000e+00,0.000000000000000000e+00,0.000000000000000000e+00
1.766666666666666607e+00,1.644605425134473562e+09,0.000000000000000000e+00,0.000000000000000000e+00,0.000000000000000000e+00,0.000000000000000000e+00
1.783333333333333215e+00,1.644605425151428223e+09,0.000000000000000000e+00,0.000000000000000000e+00,0.000000000000000000e+00,0.000000000000000000e+00
1.800000000000000044e+00,1.644605425170379639e+09,0.000000000000000000e+00,0.000000000000000000e+00,0.000000000000000000e+00,0.000000000000000000e+00
1.816666666666666652e+00,1.644605425188354969e+09,0.000000000000000000e+00,0.000000000000000000e+00,0.000000000000000000e+00,0.000000000000000000e+00
1.833333333333333259e+00,1.644605425205284119e+09,0.000000000000000000e+00,0.000000000000000000e+00,0.000000000000000000e+00,0.000000000000000000e+00
1.849999999999999867e+00,1.644605425219281435e+09,0.000000000000000000e+00,0.000000000000000000e+00,0.000000000000000000e+00,0.000000000000000000e+00
1.866666666666666696e+00,1.644605425237237215e+09,0.000000000000000000e+00,0.000000000000000000e+00,0.000000000000000000e+00,0.000000000000000000e+00
1.883333333333333304e+00,1.644605425253189087e+09,0.000000000000000000e+00,0.000000000000000000e+00,0.000000000000000000e+00,0.000000000000000000e+00
1.899999999999999911e+00,1.644605425272106409e+09,0.000000000000000000e+00,0.000000000000000000e+00,0.000000000000000000e+00,0.000000000000000000e+00
1.916666666666666741e+00,1.644605425290058136e+09,0.000000000000000000e+00,0.000000000000000000e+00,0.000000000000000000e+00,0.000000000000000000e+00
1.933333333333333348e+00,1.644605425306014776e+09,0.000000000000000000e+00,0.000000000000000000e+00,0.000000000000000000e+00,0.000000000000000000e+00
1.949999999999999956e+00,1.644605425323966980e+09,0.000000000000000000e+00,0.000000000000000000e+00,0.000000000000000000e+00,0.000000000000000000e+00
1.966666666666666563e+00,1.644605425340954304e+09,0.000000000000000000e+00,0.000000000000000000e+00,0.000000000000000000e+00,0.000000000000000000e+00
1.983333333333333393e+00,1.644605425358875036e+09,0.000000000000000000e+00,6.135389379579019309e-01,0.000000000000000000e+00,6.135389379579019309e-01
2.000000000000000000e+00,1.644605425376825809e+09,0.000000000000000000e+00,0.000000000000000000e+00,0.000000000000000000e+00,0.000000000000000000e+00
2.016666666666666607e+00,1.644605425392942429e+09,0.000000000000000000e+00,0.000000000000000000e+00,0.000000000000000000e+00,0.000000000000000000e+00
2.033333333333333215e+00,1.644605425409451246e+09,0.000000000000000000e+00,0.000000000000000000e+00,0.000000000000000000e+00,0.000000000000000000e+00
2.049999999999999822e+00,1.644605425425380707e+09,0.000000000000000000e+00,0.000000000000000000e+00,0.000000000000000000e+00,0.000000000000000000e+00
2.066666666666666430e+00,1.644605425441369534e+09,0.000000000000000000e+00,5.695692724814652719e-01,0.000000000000000000e+00,5.695692724814652719e-01
2.083333333333333481e+00,1.644605425460334539e+09,0.000000000000000000e+00,0.000000000000000000e+00,0.000000000000000000e+00,0.000000000000000000e+00
2.100000000000000089e+00,1.644605425476220131e+09,0.000000000000000000e+00,0.000000000000000000e+00,0.000000000000000000e+00,0.000000000000000000e+00
2.116666666666666696e+00,1.644605425495168447e+09,0.000000000000000000e+00,0.000000000000000000e+00,0.000000000000000000e+00,0.000000000000000000e+00
2.133333333333333304e+00,1.644605425511432409e+09,0.000000000000000000e+00,0.000000000000000000e+00,0.000000000000000000e+00,0.000000000000000000e+00
2.149999999999999911e+00,1.644605425528138399e+09,0.000000000000000000e+00,0.000000000000000000e+00,0.000000000000000000e+00,0.000000000000000000e+00
2.166666666666666519e+00,1.644605425545112371e+09,0.000000000000000000e+00,0.000000000000000000e+00,0.000000000000000000e+00,0.000000000000000000e+00
2.183333333333333126e+00,1.644605425560573101e+09,0.000000000000000000e+00,0.000000000000000000e+00,0.000000000000000000e+00,0.000000000000000000e+00
2.200000000000000178e+00,1.644605425579727888e+09,0.000000000000000000e+00,0.000000000000000000e+00,0.000000000000000000e+00,0.000000000000000000e+00
2.216666666666666785e+00,1.644605425596077204e+09,0.000000000000000000e+00,0.000000000000000000e+00,0.000000000000000000e+00,0.000000000000000000e+00
2.233333333333333393e+00,1.644605425612976074e+09,0.000000000000000000e+00,0.000000000000000000e+00,0.000000000000000000e+00,0.000000000000000000e+00
2.250000000000000000e+00,1.644605425629944563e+09,0.000000000000000000e+00,0.000000000000000000e+00,0.000000000000000000e+00,0.000000000000000000e+00
2.266666666666666607e+00,1.644605425646637201e+09,0.000000000000000000e+00,0.000000000000000000e+00,0.000000000000000000e+00,0.000000000000000000e+00
2.283333333333333215e+00,1.644605425662877083e+09,0.000000000000000000e+00,0.000000000000000000e+00,0.000000000000000000e+00,0.000000000000000000e+00
2.299999999999999822e+00,1.644605425679904461e+09,0.000000000000000000e+00,0.000000000000000000e+00,0.000000000000000000e+00,0.000000000000000000e+00
2.316666666666666430e+00,1.644605425699421167e+09,0.000000000000000000e+00,0.000000000000000000e+00,0.000000000000000000e+00,0.000000000000000000e+00
2.333333333333333481e+00,1.644605425717367411e+09,0.000000000000000000e+00,0.000000000000000000e+00,0.000000000000000000e+00,0.000000000000000000e+00
2.350000000000000089e+00,1.644605425731532812e+09,0.000000000000000000e+00,0.000000000000000000e+00,0.000000000000000000e+00,0.000000000000000000e+00
2.366666666666666696e+00,1.644605425747879505e+09,0.000000000000000000e+00,0.000000000000000000e+00,0.000000000000000000e+00,0.000000000000000000e+00
2.383333333333333304e+00,1.644605425763836861e+09,0.000000000000000000e+00,0.000000000000000000e+00,0.000000000000000000e+00,0.000000000000000000e+00
2.399999999999999911e+00,1.644605425781767845e+09,0.000000000000000000e+00,0.000000000000000000e+00,0.000000000000000000e+00,0.000000000000000000e+00
2.416666666666666519e+00,1.644605425797059774e+09,0.000000000000000000e+00,0.000000000000000000e+00,0.000000000000000000e+00,0.000000000000000000e+00
2.433333333333333126e+00,1.644605425815448284e+09,0.000000000000000000e+00,0.000000000000000000e+00,0.000000000000000000e+00,0.000000000000000000e+00
2.450000000000000178e+00,1.644605425832380295e+09,0.000000000000000000e+00,6.269210100594262425e-01,0.000000000000000000e+00,6.269210100594262425e-01
2.466666666666666785e+00,1.644605425847946882e+09,0.000000000000000000e+00,5.886865183407854474e-01,0.000000000000000000e+00,5.886865183407854474e-01
2.483333333333333393e+00,1.644605425865338326e+09,0.000000000000000000e+00,6.326561838172222174e-01,0.000000000000000000e+00,6.326561838172222174e-01
2.500000000000000000e+00,1.644605425883234739e+09,0.000000000000000000e+00,7.014782689107751379e-01,0.000000000000000000e+00,7.014782689107751379e-01
2.516666666666666607e+00,1.644605425902219296e+09,0.000000000000000000e+00,7.033899934967071665e-01,0.000000000000000000e+00,7.033899934967071665e-01
2.533333333333333215e+00,1.644605425917178392e+09,0.000000000000000000e+00,6.689789509499306508e-01,0.000000000000000000e+00,6.689789509499306508e-01
2.549999999999999822e+00,1.644605425935130596e+09,0.000000000000000000e+00,5.810396199970575548e-01,0.000000000000000000e+00,5.810396199970575548e-01
2.566666666666666430e+00,1.644605425953082085e+09,0.000000000000000000e+00,0.000000000000000000e+00,0.000000000000000000e+00,0.000000000000000000e+00
2.583333333333333481e+00,1.644605425969039917e+09,0.000000000000000000e+00,6.058920396141737053e-01,0.000000000000000000e+00,6.058920396141737053e-01
2.600000000000000089e+00,1.644605425985994101e+09,0.000000000000000000e+00,5.963334166845137840e-01,0.000000000000000000e+00,5.963334166845137840e-01
2.616666666666666696e+00,1.644605426001957893e+09,0.000000000000000000e+00,6.345679084031541350e-01,0.000000000000000000e+00,6.345679084031541350e-01
2.633333333333333304e+00,1.644605426021268606e+09,0.000000000000000000e+00,5.695692724814652719e-01,0.000000000000000000e+00,5.695692724814652719e-01
2.649999999999999911e+00,1.644605426036239624e+09,0.000000000000000000e+00,0.000000000000000000e+00,0.000000000000000000e+00,0.000000000000000000e+00
2.666666666666666519e+00,1.644605426054588795e+09,0.000000000000000000e+00,0.000000000000000000e+00,0.000000000000000000e+00,0.000000000000000000e+00
2.683333333333333126e+00,1.644605426073578596e+09,0.000000000000000000e+00,0.000000000000000000e+00,0.000000000000000000e+00,0.000000000000000000e+00
2.700000000000000178e+00,1.644605426091528416e+09,0.000000000000000000e+00,0.000000000000000000e+00,0.000000000000000000e+00,0.000000000000000000e+00
2.716666666666666785e+00,1.644605426107439041e+09,0.000000000000000000e+00,0.000000000000000000e+00,0.000000000000000000e+00,0.000000000000000000e+00
2.733333333333333393e+00,1.644605426123639107e+09,0.000000000000000000e+00,0.000000000000000000e+00,0.000000000000000000e+00,0.000000000000000000e+00
2.750000000000000000e+00,1.644605426139622450e+09,0.000000000000000000e+00,0.000000000000000000e+00,0.000000000000000000e+00,0.000000000000000000e+00
2.766666666666666607e+00,1.644605426155602217e+09,0.000000000000000000e+00,0.000000000000000000e+00,0.000000000000000000e+00,0.000000000000000000e+00
2.783333333333333215e+00,1.644605426173937321e+09,0.000000000000000000e+00,0.000000000000000000e+00,0.000000000000000000e+00,0.000000000000000000e+00
2.799999999999999822e+00,1.644605426190937996e+09,0.000000000000000000e+00,0.000000000000000000e+00,0.000000000000000000e+00,0.000000000000000000e+00
2.816666666666666430e+00,1.644605426208242893e+09,0.000000000000000000e+00,0.000000000000000000e+00,0.000000000000000000e+00,0.000000000000000000e+00
2.833333333333333481e+00,1.644605426225577116e+09,0.000000000000000000e+00,0.000000000000000000e+00,0.000000000000000000e+00,0.000000000000000000e+00
2.850000000000000089e+00,1.644605426240535736e+09,0.000000000000000000e+00,0.000000000000000000e+00,0.000000000000000000e+00,0.000000000000000000e+00
2.866666666666666696e+00,1.644605426259805918e+09,0.000000000000000000e+00,0.000000000000000000e+00,0.000000000000000000e+00,0.000000000000000000e+00
2.883333333333333304e+00,1.644605426274752378e+09,0.000000000000000000e+00,0.000000000000000000e+00,0.000000000000000000e+00,0.000000000000000000e+00
2.899999999999999911e+00,1.644605426291419268e+09,0.000000000000000000e+00,0.000000000000000000e+00,0.000000000000000000e+00,0.000000000000000000e+00
2.916666666666666519e+00,1.644605426307615280e+09,0.000000000000000000e+00,0.000000000000000000e+00,0.000000000000000000e+00,0.000000000000000000e+00
2.933333333333333126e+00,1.644605426326937437e+09,0.000000000000000000e+00,0.000000000000000000e+00,0.000000000000000000e+00,0.000000000000000000e+00
2.950000000000000178e+00,1.644605426343252659e+09,0.000000000000000000e+00,0.000000000000000000e+00,0.000000000000000000e+00,0.000000000000000000e+00
2.966666666666666785e+00,1.644605426360231161e+09,0.000000000000000000e+00,0.000000000000000000e+00,0.000000000000000000e+00,0.000000000000000000e+00
2.983333333333333393e+00,1.644605426377179861e+09,0.000000000000000000e+00,0.000000000000000000e+00,0.000000000000000000e+00,0.000000000000000000e+00
3.000000000000000000e+00,1.644605426396160603e+09,0.000000000000000000e+00,0.000000000000000000e+00,0.000000000000000000e+00,0.000000000000000000e+00
3.016666666666666607e+00,1.644605426412379980e+09,0.000000000000000000e+00,0.000000000000000000e+00,0.000000000000000000e+00,0.000000000000000000e+00
3.033333333333333215e+00,1.644605426427166462e+09,0.000000000000000000e+00,0.000000000000000000e+00,0.000000000000000000e+00,0.000000000000000000e+00
3.049999999999999822e+00,1.644605426445034504e+09,0.000000000000000000e+00,0.000000000000000000e+00,0.000000000000000000e+00,0.000000000000000000e+00
3.066666666666666430e+00,1.644605426461388826e+09,0.000000000000000000e+00,0.000000000000000000e+00,0.000000000000000000e+00,0.000000000000000000e+00
3.083333333333333481e+00,1.644605426478749037e+09,0.000000000000000000e+00,0.000000000000000000e+00,0.000000000000000000e+00,0.000000000000000000e+00
3.100000000000000089e+00,1.644605426495419025e+09,0.000000000000000000e+00,0.000000000000000000e+00,0.000000000000000000e+00,0.000000000000000000e+00
3.116666666666666696e+00,1.644605426513347626e+09,0.000000000000000000e+00,0.000000000000000000e+00,0.000000000000000000e+00,0.000000000000000000e+00
3.133333333333333304e+00,1.644605426529568672e+09,0.000000000000000000e+00,0.000000000000000000e+00,0.000000000000000000e+00,0.000000000000000000e+00
3.149999999999999911e+00,1.644605426548566580e+09,0.000000000000000000e+00,0.000000000000000000e+00,0.000000000000000000e+00,0.000000000000000000e+00
3.166666666666666519e+00,1.644605426564524174e+09,0.000000000000000000e+00,0.000000000000000000e+00,0.000000000000000000e+00,0.000000000000000000e+00
3.183333333333333126e+00,1.644605426579476833e+09,0.000000000000000000e+00,0.000000000000000000e+00,0.000000000000000000e+00,0.000000000000000000e+00
3.200000000000000178e+00,1.644605426596833706e+09,0.000000000000000000e+00,0.000000000000000000e+00,0.000000000000000000e+00,0.000000000000000000e+00
3.216666666666666785e+00,1.644605426615382195e+09,0.000000000000000000e+00,0.000000000000000000e+00,0.000000000000000000e+00,0.000000000000000000e+00
3.233333333333333393e+00,1.644605426629751444e+09,0.000000000000000000e+00,0.000000000000000000e+00,0.000000000000000000e+00,0.000000000000000000e+00
3.250000000000000000e+00,1.644605426647909641e+09,0.000000000000000000e+00,0.000000000000000000e+00,0.000000000000000000e+00,0.000000000000000000e+00
3.266666666666666607e+00,1.644605426664353609e+09,0.000000000000000000e+00,0.000000000000000000e+00,0.000000000000000000e+00,0.000000000000000000e+00
3.283333333333333215e+00,1.644605426683724642e+09,0.000000000000000000e+00,0.000000000000000000e+00,0.000000000000000000e+00,0.000000000000000000e+00
3.299999999999999822e+00,1.644605426703670502e+09,0.000000000000000000e+00,0.000000000000000000e+00,0.000000000000000000e+00,0.000000000000000000e+00
3.316666666666666430e+00,1.644605426720912218e+09,0.000000000000000000e+00,0.000000000000000000e+00,0.000000000000000000e+00,0.000000000000000000e+00
3.333333333333333481e+00,1.644605426736267567e+09,0.000000000000000000e+00,0.000000000000000000e+00,0.000000000000000000e+00,0.000000000000000000e+00
3.350000000000000089e+00,1.644605426754553080e+09,0.000000000000000000e+00,0.000000000000000000e+00,0.000000000000000000e+00,0.000000000000000000e+00
3.366666666666666696e+00,1.644605426772531509e+09,0.000000000000000000e+00,0.000000000000000000e+00,0.000000000000000000e+00,0.000000000000000000e+00
3.383333333333333304e+00,1.644605426789462805e+09,0.000000000000000000e+00,-5.850898103955973761e-01,0.000000000000000000e+00,-5.850898103955973761e-01
3.399999999999999911e+00,1.644605426806685686e+09,0.000000000000000000e+00,0.000000000000000000e+00,0.000000000000000000e+00,0.000000000000000000e+00
3.416666666666666519e+00,1.644605426823661089e+09,0.000000000000000000e+00,-5.642029803375853136e-01,0.000000000000000000e+00,-5.642029803375853136e-01
3.433333333333333126e+00,1.644605426838621616e+09,0.000000000000000000e+00,0.000000000000000000e+00,0.000000000000000000e+00,0.000000000000000000e+00
3.449999999999999734e+00,1.644605426855265856e+09,0.000000000000000000e+00,0.000000000000000000e+00,0.000000000000000000e+00,0.000000000000000000e+00
3.466666666666666785e+00,1.644605426874214888e+09,0.000000000000000000e+00,0.000000000000000000e+00,0.000000000000000000e+00,0.000000000000000000e+00
3.483333333333333393e+00,1.644605426891194344e+09,0.000000000000000000e+00,0.000000000000000000e+00,0.000000000000000000e+00,0.000000000000000000e+00
3.500000000000000000e+00,1.644605426908098459e+09,0.000000000000000000e+00,0.000000000000000000e+00,0.000000000000000000e+00,0.000000000000000000e+00
3.516666666666666607e+00,1.644605426926102400e+09,0.000000000000000000e+00,0.000000000000000000e+00,0.000000000000000000e+00,0.000000000000000000e+00
3.533333333333333215e+00,1.644605426943329811e+09,0.000000000000000000e+00,0.000000000000000000e+00,0.000000000000000000e+00,0.000000000000000000e+00
3.549999999999999822e+00,1.644605426961283445e+09,0.000000000000000000e+00,0.000000000000000000e+00,0.000000000000000000e+00,0.000000000000000000e+00
3.566666666666666430e+00,1.644605426977114439e+09,0.000000000000000000e+00,0.000000000000000000e+00,0.000000000000000000e+00,0.000000000000000000e+00
3.583333333333333481e+00,1.644605426994523287e+09,0.000000000000000000e+00,0.000000000000000000e+00,0.000000000000000000e+00,0.000000000000000000e+00
3.600000000000000089e+00,1.644605427011391878e+09,0.000000000000000000e+00,0.000000000000000000e+00,0.000000000000000000e+00,0.000000000000000000e+00
3.616666666666666696e+00,1.644605427029357910e+09,0.000000000000000000e+00,0.000000000000000000e+00,0.000000000000000000e+00,0.000000000000000000e+00
3.633333333333333304e+00,1.644605427046312809e+09,0.000000000000000000e+00,0.000000000000000000e+00,0.000000000000000000e+00,0.000000000000000000e+00
3.649999999999999911e+00,1.644605427061782598e+09,0.000000000000000000e+00,0.000000000000000000e+00,0.000000000000000000e+00,0.000000000000000000e+00
3.666666666666666519e+00,1.644605427077746391e+09,0.000000000000000000e+00,0.000000000000000000e+00,0.000000000000000000e+00,0.000000000000000000e+00
3.683333333333333126e+00,1.644605427096695185e+09,0.000000000000000000e+00,0.000000000000000000e+00,0.000000000000000000e+00,0.000000000000000000e+00
3.699999999999999734e+00,1.644605427112652540e+09,0.000000000000000000e+00,0.000000000000000000e+00,0.000000000000000000e+00,0.000000000000000000e+00
3.716666666666666785e+00,1.644605427130603313e+09,0.000000000000000000e+00,0.000000000000000000e+00,0.000000000000000000e+00,0.000000000000000000e+00
3.733333333333333393e+00,1.644605427146660805e+09,0.000000000000000000e+00,0.000000000000000000e+00,0.000000000000000000e+00,0.000000000000000000e+00
3.750000000000000000e+00,1.644605427163905382e+09,0.000000000000000000e+00,0.000000000000000000e+00,0.000000000000000000e+00,0.000000000000000000e+00
3.766666666666666607e+00,1.644605427183190346e+09,0.000000000000000000e+00,0.000000000000000000e+00,0.000000000000000000e+00,0.000000000000000000e+00
3.783333333333333215e+00,1.644605427198617458e+09,0.000000000000000000e+00,0.000000000000000000e+00,0.000000000000000000e+00,0.000000000000000000e+00
3.799999999999999822e+00,1.644605427218539000e+09,0.000000000000000000e+00,0.000000000000000000e+00,0.000000000000000000e+00,0.000000000000000000e+00
3.816666666666666430e+00,1.644605427232966423e+09,0.000000000000000000e+00,0.000000000000000000e+00,0.000000000000000000e+00,0.000000000000000000e+00
3.833333333333333481e+00,1.644605427253831625e+09,0.000000000000000000e+00,0.000000000000000000e+00,0.000000000000000000e+00,0.000000000000000000e+00
3.850000000000000089e+00,1.644605427268792629e+09,0.000000000000000000e+00,0.000000000000000000e+00,0.000000000000000000e+00,0.000000000000000000e+00
3.866666666666666696e+00,1.644605427286747932e+09,0.000000000000000000e+00,0.000000000000000000e+00,0.000000000000000000e+00,0.000000000000000000e+00
3.883333333333333304e+00,1.644605427303702354e+09,0.000000000000000000e+00,0.000000000000000000e+00,0.000000000000000000e+00,0.000000000000000000e+00
3.899999999999999911e+00,1.644605427321332693e+09,0.000000000000000000e+00,0.000000000000000000e+00,0.000000000000000000e+00,0.000000000000000000e+00
3.916666666666666519e+00,1.644605427337304354e+09,0.000000000000000000e+00,0.000000000000000000e+00,0.000000000000000000e+00,0.000000000000000000e+00
3.933333333333333126e+00,1.644605427352067947e+09,0.000000000000000000e+00,0.000000000000000000e+00,0.000000000000000000e+00,0.000000000000000000e+00
3.949999999999999734e+00,1.644605427371067762e+09,0.000000000000000000e+00,0.000000000000000000e+00,0.000000000000000000e+00,0.000000000000000000e+00
3.966666666666666785e+00,1.644605427388995647e+09,0.000000000000000000e+00,0.000000000000000000e+00,0.000000000000000000e+00,0.000000000000000000e+00
3.983333333333333393e+00,1.644605427405097246e+09,0.000000000000000000e+00,0.000000000000000000e+00,0.000000000000000000e+00,0.000000000000000000e+00
4.000000000000000000e+00,1.644605427424067497e+09,0.000000000000000000e+00,0.000000000000000000e+00,0.000000000000000000e+00,0.000000000000000000e+00
4.016666666666666607e+00,1.644605427440003872e+09,0.000000000000000000e+00,0.000000000000000000e+00,0.000000000000000000e+00,0.000000000000000000e+00
4.033333333333333215e+00,1.644605427457272768e+09,0.000000000000000000e+00,0.000000000000000000e+00,0.000000000000000000e+00,0.000000000000000000e+00
4.049999999999999822e+00,1.644605427472643375e+09,0.000000000000000000e+00,0.000000000000000000e+00,0.000000000000000000e+00,0.000000000000000000e+00
4.066666666666666430e+00,1.644605427491252422e+09,0.000000000000000000e+00,0.000000000000000000e+00,0.000000000000000000e+00,0.000000000000000000e+00
4.083333333333333037e+00,1.644605427507210016e+09,0.000000000000000000e+00,0.000000000000000000e+00,0.000000000000000000e+00,0.000000000000000000e+00
4.099999999999999645e+00,1.644605427523370504e+09,0.000000000000000000e+00,0.000000000000000000e+00,0.000000000000000000e+00,0.000000000000000000e+00
4.116666666666666252e+00,1.644605427539949417e+09,0.000000000000000000e+00,0.000000000000000000e+00,0.000000000000000000e+00,0.000000000000000000e+00
4.133333333333332860e+00,1.644605427556927681e+09,0.000000000000000000e+00,0.000000000000000000e+00,0.000000000000000000e+00,0.000000000000000000e+00
4.150000000000000355e+00,1.644605427574476719e+09,0.000000000000000000e+00,-5.642029803375853136e-01,0.000000000000000000e+00,-5.642029803375853136e-01
4.166666666666666963e+00,1.644605427589982986e+09,0.000000000000000000e+00,0.000000000000000000e+00,0.000000000000000000e+00,0.000000000000000000e+00
4.183333333333333570e+00,1.644605427608258009e+09,0.000000000000000000e+00,0.000000000000000000e+00,0.000000000000000000e+00,0.000000000000000000e+00
4.200000000000000178e+00,1.644605427625243902e+09,0.000000000000000000e+00,0.000000000000000000e+00,0.000000000000000000e+00,0.000000000000000000e+00
4.216666666666666785e+00,1.644605427643379688e+09,0.000000000000000000e+00,0.000000000000000000e+00,0.000000000000000000e+00,0.000000000000000000e+00
4.233333333333333393e+00,1.644605427658409119e+09,0.000000000000000000e+00,0.000000000000000000e+00,0.000000000000000000e+00,0.000000000000000000e+00
4.250000000000000000e+00,1.644605427675556898e+09,0.000000000000000000e+00,0.000000000000000000e+00,0.000000000000000000e+00,0.000000000000000000e+00
4.266666666666666607e+00,1.644605427693682194e+09,0.000000000000000000e+00,0.000000000000000000e+00,0.000000000000000000e+00,0.000000000000000000e+00
4.283333333333333215e+00,1.644605427707646608e+09,0.000000000000000000e+00,0.000000000000000000e+00,0.000000000000000000e+00,0.000000000000000000e+00
4.299999999999999822e+00,1.644605427726037502e+09,0.000000000000000000e+00,0.000000000000000000e+00,0.000000000000000000e+00,0.000000000000000000e+00
4.316666666666666430e+00,1.644605427743966103e+09,0.000000000000000000e+00,0.000000000000000000e+00,0.000000000000000000e+00,0.000000000000000000e+00
4.333333333333333037e+00,1.644605427759881020e+09,0.000000000000000000e+00,0.000000000000000000e+00,0.000000000000000000e+00,0.000000000000000000e+00
4.349999999999999645e+00,1.644605427776932955e+09,0.000000000000000000e+00,0.000000000000000000e+00,0.000000000000000000e+00,0.000000000000000000e+00
4.366666666666666252e+00,1.644605427792856693e+09,0.000000000000000000e+00,0.000000000000000000e+00,0.000000000000000000e+00,0.000000000000000000e+00
4.383333333333332860e+00,1.644605427809380770e+09,0.000000000000000000e+00,6.555968788484064502e-01,0.000000000000000000e+00,6.555968788484064502e-01
4.400000000000000355e+00,1.644605427825341463e+09,0.000000000000000000e+00,6.670672263639987332e-01,0.000000000000000000e+00,6.670672263639987332e-01
4.416666666666666963e+00,1.644605427842297554e+09,0.000000000000000000e+00,6.594203280202707296e-01,0.000000000000000000e+00,6.594203280202707296e-01
4.433333333333333570e+00,1.644605427861627579e+09,0.000000000000000000e+00,5.428051282784166487e-01,0.000000000000000000e+00,5.428051282784166487e-01
4.450000000000000178e+00,1.644605427880982637e+09,0.000000000000000000e+00,0.000000000000000000e+00,0.000000000000000000e+00,0.000000000000000000e+00
4.466666666666666785e+00,1.644605427897342920e+09,0.000000000000000000e+00,0.000000000000000000e+00,0.000000000000000000e+00,0.000000000000000000e+00
4.483333333333333393e+00,1.644605427913069487e+09,0.000000000000000000e+00,0.000000000000000000e+00,0.000000000000000000e+00,0.000000000000000000e+00
4.500000000000000000e+00,1.644605427928571463e+09,0.000000000000000000e+00,0.000000000000000000e+00,0.000000000000000000e+00,0.000000000000000000e+00
4.516666666666666607e+00,1.644605427947548866e+09,0.000000000000000000e+00,0.000000000000000000e+00,0.000000000000000000e+00,0.000000000000000000e+00
4.533333333333333215e+00,1.644605427964498043e+09,0.000000000000000000e+00,0.000000000000000000e+00,0.000000000000000000e+00,0.000000000000000000e+00
4.549999999999999822e+00,1.644605427979767084e+09,0.000000000000000000e+00,0.000000000000000000e+00,0.000000000000000000e+00,0.000000000000000000e+00
4.566666666666666430e+00,1.644605427998936415e+09,0.000000000000000000e+00,0.000000000000000000e+00,0.000000000000000000e+00,0.000000000000000000e+00
4.583333333333333037e+00,1.644605428013815403e+09,0.000000000000000000e+00,0.000000000000000000e+00,0.000000000000000000e+00,0.000000000000000000e+00
4.599999999999999645e+00,1.644605428031744242e+09,0.000000000000000000e+00,0.000000000000000000e+00,0.000000000000000000e+00,0.000000000000000000e+00
4.616666666666666252e+00,1.644605428050126553e+09,0.000000000000000000e+00,0.000000000000000000e+00,0.000000000000000000e+00,0.000000000000000000e+00
4.633333333333332860e+00,1.644605428066481590e+09,0.000000000000000000e+00,0.000000000000000000e+00,0.000000000000000000e+00,0.000000000000000000e+00
4.650000000000000355e+00,1.644605428083484888e+09,0.000000000000000000e+00,0.000000000000000000e+00,0.000000000000000000e+00,0.000000000000000000e+00
4.666666666666666963e+00,1.644605428101413965e+09,0.000000000000000000e+00,0.000000000000000000e+00,0.000000000000000000e+00,0.000000000000000000e+00
4.683333333333333570e+00,1.644605428118392229e+09,0.000000000000000000e+00,0.000000000000000000e+00,0.000000000000000000e+00,0.000000000000000000e+00
4.700000000000000178e+00,1.644605428135344267e+09,0.000000000000000000e+00,0.000000000000000000e+00,0.000000000000000000e+00,0.000000000000000000e+00
4.716666666666666785e+00,1.644605428150893211e+09,0.000000000000000000e+00,0.000000000000000000e+00,0.000000000000000000e+00,0.000000000000000000e+00
4.733333333333333393e+00,1.644605428166506767e+09,0.000000000000000000e+00,0.000000000000000000e+00,0.000000000000000000e+00,0.000000000000000000e+00
4.750000000000000000e+00,1.644605428185804129e+09,0.000000000000000000e+00,0.000000000000000000e+00,0.000000000000000000e+00,0.000000000000000000e+00
4.766666666666666607e+00,1.644605428202752352e+09,0.000000000000000000e+00,0.000000000000000000e+00,0.000000000000000000e+00,0.000000000000000000e+00
4.783333333333333215e+00,1.644605428220227718e+09,0.000000000000000000e+00,0.000000000000000000e+00,0.000000000000000000e+00,0.000000000000000000e+00
4.799999999999999822e+00,1.644605428237399817e+09,0.000000000000000000e+00,0.000000000000000000e+00,0.000000000000000000e+00,0.000000000000000000e+00
4.816666666666666430e+00,1.644605428251833439e+09,0.000000000000000000e+00,0.000000000000000000e+00,0.000000000000000000e+00,0.000000000000000000e+00
4.833333333333333037e+00,1.644605428271907091e+09,0.000000000000000000e+00,6.230975608875618521e-01,0.000000000000000000e+00,6.230975608875618521e-01
4.849999999999999645e+00,1.644605428286866188e+09,0.000000000000000000e+00,0.000000000000000000e+00,0.000000000000000000e+00,0.000000000000000000e+00
4.866666666666666252e+00,1.644605428305839777e+09,0.000000000000000000e+00,0.000000000000000000e+00,0.000000000000000000e+00,0.000000000000000000e+00
4.883333333333332860e+00,1.644605428322694302e+09,0.000000000000000000e+00,0.000000000000000000e+00,0.000000000000000000e+00,0.000000000000000000e+00
4.900000000000000355e+00,1.644605428340984821e+09,0.000000000000000000e+00,0.000000000000000000e+00,0.000000000000000000e+00,0.000000000000000000e+00
4.916666666666666963e+00,1.644605428356256485e+09,0.000000000000000000e+00,0.000000000000000000e+00,0.000000000000000000e+00,0.000000000000000000e+00
4.933333333333333570e+00,1.644605428373242378e+09,0.000000000000000000e+00,0.000000000000000000e+00,0.000000000000000000e+00,0.000000000000000000e+00
4.950000000000000178e+00,1.644605428393208742e+09,0.000000000000000000e+00,0.000000000000000000e+00,0.000000000000000000e+00,0.000000000000000000e+00
4.966666666666666785e+00,1.644605428407492876e+09,0.000000000000000000e+00,0.000000000000000000e+00,0.000000000000000000e+00,0.000000000000000000e+00
4.983333333333333393e+00,1.644605428427362204e+09,0.000000000000000000e+00,0.000000000000000000e+00,0.000000000000000000e+00,0.000000000000000000e+00
5.000000000000000000e+00,1.644605428445554495e+09,0.000000000000000000e+00,0.000000000000000000e+00,0.000000000000000000e+00,0.000000000000000000e+00
5.016666666666666607e+00,1.644605428462482929e+09,0.000000000000000000e+00,0.000000000000000000e+00,0.000000000000000000e+00,0.000000000000000000e+00
5.033333333333333215e+00,1.644605428477644205e+09,0.000000000000000000e+00,0.000000000000000000e+00,0.000000000000000000e+00,0.000000000000000000e+00
5.049999999999999822e+00,1.644605428494626284e+09,0.000000000000000000e+00,0.000000000000000000e+00,0.000000000000000000e+00,0.000000000000000000e+00
5.066666666666666430e+00,1.644605428513594627e+09,0.000000000000000000e+00,0.000000000000000000e+00,0.000000000000000000e+00,0.000000000000000000e+00
5.083333333333333037e+00,1.644605428528839350e+09,0.000000000000000000e+00,0.000000000000000000e+00,0.000000000000000000e+00,0.000000000000000000e+00
5.099999999999999645e+00,1.644605428545121193e+09,0.000000000000000000e+00,0.000000000000000000e+00,0.000000000000000000e+00,0.000000000000000000e+00
5.116666666666666252e+00,1.644605428562054157e+09,0.000000000000000000e+00,0.000000000000000000e+00,0.000000000000000000e+00,0.000000000000000000e+00
5.133333333333332860e+00,1.644605428581667423e+09,0.000000000000000000e+00,0.000000000000000000e+00,0.000000000000000000e+00,0.000000000000000000e+00
5.150000000000000355e+00,1.644605428601588249e+09,0.000000000000000000e+00,0.000000000000000000e+00,0.000000000000000000e+00,0.000000000000000000e+00
5.166666666666666963e+00,1.644605428614748478e+09,0.000000000000000000e+00,0.000000000000000000e+00,0.000000000000000000e+00,0.000000000000000000e+00
5.183333333333333570e+00,1.644605428634865046e+09,0.000000000000000000e+00,0.000000000000000000e+00,0.000000000000000000e+00,0.000000000000000000e+00
5.200000000000000178e+00,1.644605428651812315e+09,0.000000000000000000e+00,0.000000000000000000e+00,0.000000000000000000e+00,0.000000000000000000e+00
5.216666666666666785e+00,1.644605428667164803e+09,0.000000000000000000e+00,0.000000000000000000e+00,0.000000000000000000e+00,0.000000000000000000e+00
5.233333333333333393e+00,1.644605428686435223e+09,0.000000000000000000e+00,0.000000000000000000e+00,0.000000000000000000e+00,0.000000000000000000e+00
5.250000000000000000e+00,1.644605428703399420e+09,0.000000000000000000e+00,0.000000000000000000e+00,0.000000000000000000e+00,0.000000000000000000e+00
5.266666666666666607e+00,1.644605428719370842e+09,0.000000000000000000e+00,0.000000000000000000e+00,0.000000000000000000e+00,0.000000000000000000e+00
5.283333333333333215e+00,1.644605428738272429e+09,0.000000000000000000e+00,0.000000000000000000e+00,0.000000000000000000e+00,0.000000000000000000e+00
5.299999999999999822e+00,1.644605428753280163e+09,0.000000000000000000e+00,0.000000000000000000e+00,0.000000000000000000e+00,0.000000000000000000e+00
5.316666666666666430e+00,1.644605428772182703e+09,0.000000000000000000e+00,0.000000000000000000e+00,0.000000000000000000e+00,0.000000000000000000e+00
5.333333333333333037e+00,1.644605428787070513e+09,0.000000000000000000e+00,0.000000000000000000e+00,0.000000000000000000e+00,0.000000000000000000e+00
5.349999999999999645e+00,1.644605428805614710e+09,0.000000000000000000e+00,0.000000000000000000e+00,0.000000000000000000e+00,0.000000000000000000e+00
5.366666666666666252e+00,1.644605428821479559e+09,0.000000000000000000e+00,0.000000000000000000e+00,0.000000000000000000e+00,0.000000000000000000e+00
5.383333333333332860e+00,1.644605428839481354e+09,0.000000000000000000e+00,0.000000000000000000e+00,0.000000000000000000e+00,0.000000000000000000e+00
5.400000000000000355e+00,1.644605428856888294e+09,0.000000000000000000e+00,0.000000000000000000e+00,0.000000000000000000e+00,0.000000000000000000e+00
5.416666666666666963e+00,1.644605428872645617e+09,0.000000000000000000e+00,0.000000000000000000e+00,0.000000000000000000e+00,0.000000000000000000e+00
5.433333333333333570e+00,1.644605428892819643e+09,0.000000000000000000e+00,0.000000000000000000e+00,0.000000000000000000e+00,0.000000000000000000e+00
5.450000000000000178e+00,1.644605428910082817e+09,0.000000000000000000e+00,0.000000000000000000e+00,0.000000000000000000e+00,0.000000000000000000e+00
5.466666666666666785e+00,1.644605428927500486e+09,0.000000000000000000e+00,0.000000000000000000e+00,0.000000000000000000e+00,0.000000000000000000e+00
5.483333333333333393e+00,1.644605428944455862e+09,0.000000000000000000e+00,0.000000000000000000e+00,0.000000000000000000e+00,0.000000000000000000e+00
5.500000000000000000e+00,1.644605428961386919e+09,0.000000000000000000e+00,0.000000000000000000e+00,0.000000000000000000e+00,0.000000000000000000e+00
5.516666666666666607e+00,1.644605428979984522e+09,0.000000000000000000e+00,0.000000000000000000e+00,0.000000000000000000e+00,0.000000000000000000e+00
5.533333333333333215e+00,1.644605428995093822e+09,0.000000000000000000e+00,0.000000000000000000e+00,0.000000000000000000e+00,0.000000000000000000e+00
5.549999999999999822e+00,1.644605429013172150e+09,0.000000000000000000e+00,-5.694246878520881072e-01,0.000000000000000000e+00,-5.694246878520881072e-01
5.566666666666666430e+00,1.644605429032515049e+09,0.000000000000000000e+00,0.000000000000000000e+00,0.000000000000000000e+00,0.000000000000000000e+00
5.583333333333333037e+00,1.644605429048712254e+09,0.000000000000000000e+00,-5.537595653085796155e-01,0.000000000000000000e+00,-5.537595653085796155e-01
5.599999999999999645e+00,1.644605429066178560e+09,0.000000000000000000e+00,-6.111983479681113440e-01,0.000000000000000000e+00,-6.111983479681113440e-01
5.616666666666666252e+00,1.644605429083673000e+09,0.000000000000000000e+00,0.000000000000000000e+00,0.000000000000000000e+00,0.000000000000000000e+00
5.633333333333332860e+00,1.644605429099094152e+09,0.000000000000000000e+00,0.000000000000000000e+00,0.000000000000000000e+00,0.000000000000000000e+00
5.650000000000000355e+00,1.644605429116601944e+09,0.000000000000000000e+00,0.000000000000000000e+00,0.000000000000000000e+00,0.000000000000000000e+00
5.666666666666666963e+00,1.644605429135578632e+09,0.000000000000000000e+00,0.000000000000000000e+00,0.000000000000000000e+00,0.000000000000000000e+00
5.683333333333333570e+00,1.644605429151103020e+09,0.000000000000000000e+00,0.000000000000000000e+00,0.000000000000000000e+00,0.000000000000000000e+00
5.700000000000000178e+00,1.644605429167630196e+09,0.000000000000000000e+00,0.000000000000000000e+00,0.000000000000000000e+00,0.000000000000000000e+00
5.716666666666666785e+00,1.644605429188882351e+09,0.000000000000000000e+00,0.000000000000000000e+00,0.000000000000000000e+00,0.000000000000000000e+00
5.733333333333333393e+00,1.644605429203889370e+09,0.000000000000000000e+00,0.000000000000000000e+00,0.000000000000000000e+00,0.000000000000000000e+00
5.750000000000000000e+00,1.644605429222520828e+09,0.000000000000000000e+00,0.000000000000000000e+00,0.000000000000000000e+00,0.000000000000000000e+00
5.766666666666666607e+00,1.644605429237895250e+09,0.000000000000000000e+00,0.000000000000000000e+00,0.000000000000000000e+00,0.000000000000000000e+00
5.783333333333333215e+00,1.644605429254606962e+09,0.000000000000000000e+00,0.000000000000000000e+00,0.000000000000000000e+00,0.000000000000000000e+00
5.799999999999999822e+00,1.644605429272582769e+09,0.000000000000000000e+00,0.000000000000000000e+00,0.000000000000000000e+00,0.000000000000000000e+00
5.816666666666666430e+00,1.644605429289537430e+09,0.000000000000000000e+00,0.000000000000000000e+00,0.000000000000000000e+00,0.000000000000000000e+00
5.833333333333333037e+00,1.644605429306328535e+09,0.000000000000000000e+00,0.000000000000000000e+00,0.000000000000000000e+00,0.000000000000000000e+00
5.849999999999999645e+00,1.644605429322676182e+09,0.000000000000000000e+00,0.000000000000000000e+00,0.000000000000000000e+00,0.000000000000000000e+00
5.866666666666666252e+00,1.644605429337365627e+09,0.000000000000000000e+00,0.000000000000000000e+00,0.000000000000000000e+00,0.000000000000000000e+00
5.883333333333332860e+00,1.644605429356736660e+09,0.000000000000000000e+00,0.000000000000000000e+00,0.000000000000000000e+00,0.000000000000000000e+00
5.900000000000000355e+00,1.644605429373090744e+09,0.000000000000000000e+00,0.000000000000000000e+00,0.000000000000000000e+00,0.000000000000000000e+00
5.916666666666666963e+00,1.644605429390469313e+09,0.000000000000000000e+00,0.000000000000000000e+00,0.000000000000000000e+00,0.000000000000000000e+00
5.933333333333333570e+00,1.644605429410497189e+09,0.000000000000000000e+00,0.000000000000000000e+00,0.000000000000000000e+00,0.000000000000000000e+00
5.950000000000000178e+00,1.644605429424093246e+09,0.000000000000000000e+00,0.000000000000000000e+00,0.000000000000000000e+00,0.000000000000000000e+00
5.966666666666666785e+00,1.644605429440988541e+09,0.000000000000000000e+00,0.000000000000000000e+00,0.000000000000000000e+00,0.000000000000000000e+00
5.983333333333333393e+00,1.644605429458204985e+09,0.000000000000000000e+00,0.000000000000000000e+00,0.000000000000000000e+00,0.000000000000000000e+00
6.000000000000000000e+00,1.644605429476242304e+09,0.000000000000000000e+00,0.000000000000000000e+00,0.000000000000000000e+00,0.000000000000000000e+00
6.016666666666666607e+00,1.644605429491422892e+09,0.000000000000000000e+00,0.000000000000000000e+00,0.000000000000000000e+00,0.000000000000000000e+00
6.033333333333333215e+00,1.644605429508641720e+09,0.000000000000000000e+00,0.000000000000000000e+00,0.000000000000000000e+00,0.000000000000000000e+00
6.049999999999999822e+00,1.644605429527544498e+09,0.000000000000000000e+00,0.000000000000000000e+00,0.000000000000000000e+00,0.000000000000000000e+00
6.066666666666666430e+00,1.644605429542549849e+09,0.000000000000000000e+00,0.000000000000000000e+00,0.000000000000000000e+00,0.000000000000000000e+00
6.083333333333333037e+00,1.644605429557480097e+09,0.000000000000000000e+00,0.000000000000000000e+00,0.000000000000000000e+00,0.000000000000000000e+00
6.099999999999999645e+00,1.644605429575789213e+09,0.000000000000000000e+00,0.000000000000000000e+00,0.000000000000000000e+00,0.000000000000000000e+00
6.116666666666666252e+00,1.644605429593688011e+09,0.000000000000000000e+00,0.000000000000000000e+00,0.000000000000000000e+00,0.000000000000000000e+00
6.133333333333332860e+00,1.644605429611641169e+09,0.000000000000000000e+00,0.000000000000000000e+00,0.000000000000000000e+00,0.000000000000000000e+00
6.150000000000000355e+00,1.644605429627472162e+09,0.000000000000000000e+00,0.000000000000000000e+00,0.000000000000000000e+00,0.000000000000000000e+00
6.166666666666666963e+00,1.644605429643412352e+09,0.000000000000000000e+00,0.000000000000000000e+00,0.000000000000000000e+00,0.000000000000000000e+00
6.183333333333333570e+00,1.644605429661349058e+09,0.000000000000000000e+00,0.000000000000000000e+00,0.000000000000000000e+00,0.000000000000000000e+00
6.200000000000000178e+00,1.644605429677318096e+09,0.000000000000000000e+00,0.000000000000000000e+00,0.000000000000000000e+00,0.000000000000000000e+00
6.216666666666666785e+00,1.644605429694609642e+09,0.000000000000000000e+00,0.000000000000000000e+00,0.000000000000000000e+00,0.000000000000000000e+00
6.233333333333333393e+00,1.644605429711814642e+09,0.000000000000000000e+00,0.000000000000000000e+00,0.000000000000000000e+00,0.000000000000000000e+00
6.250000000000000000e+00,1.644605429729095459e+09,0.000000000000000000e+00,0.000000000000000000e+00,0.000000000000000000e+00,0.000000000000000000e+00
6.266666666666666607e+00,1.644605429746002436e+09,0.000000000000000000e+00,0.000000000000000000e+00,0.000000000000000000e+00,0.000000000000000000e+00
6.283333333333333215e+00,1.644605429761119843e+09,0.000000000000000000e+00,-6.477503005696317873e-01,0.000000000000000000e+00,-6.477503005696317873e-01
6.299999999999999822e+00,1.644605429779256105e+09,0.000000000000000000e+00,-7.678495734031987041e-01,0.000000000000000000e+00,-7.678495734031987041e-01
6.316666666666666430e+00,1.644605429796472073e+09,0.000000000000000000e+00,-7.417410358306838480e-01,0.000000000000000000e+00,-7.417410358306838480e-01
6.333333333333333037e+00,1.644605429813447475e+09,0.000000000000000000e+00,-8.200666485482274171e-01,0.000000000000000000e+00,-8.200666485482274171e-01
6.349999999999999645e+00,1.644605429828784466e+09,0.000000000000000000e+00,-8.148449410337246235e-01,0.000000000000000000e+00,-8.148449410337246235e-01
6.366666666666666252e+00,1.644605429846987486e+09,0.000000000000000000e+00,-6.373068855406260891e-01,0.000000000000000000e+00,-6.373068855406260891e-01
6.383333333333332860e+00,1.644605429864306211e+09,0.000000000000000000e+00,0.000000000000000000e+00,0.000000000000000000e+00,0.000000000000000000e+00
6.400000000000000355e+00,1.644605429879760027e+09,0.000000000000000000e+00,-7.469627433451866416e-01,0.000000000000000000e+00,-7.469627433451866416e-01
6.416666666666666963e+00,1.644605429896926641e+09,0.000000000000000000e+00,-7.626278658886959105e-01,0.000000000000000000e+00,-7.626278658886959105e-01
6.433333333333333570e+00,1.644605429915936708e+09,0.000000000000000000e+00,-7.104107907436669755e-01,0.000000000000000000e+00,-7.104107907436669755e-01
6.450000000000000178e+00,1.644605429932894945e+09,0.000000000000000000e+00,-6.216417629971178194e-01,0.000000000000000000e+00,-6.216417629971178194e-01
6.466666666666666785e+00,1.644605429948837757e+09,0.000000000000000000e+00,-6.007549329391056459e-01,0.000000000000000000e+00,-6.007549329391056459e-01
6.483333333333333393e+00,1.644605429965790510e+09,0.000000000000000000e+00,0.000000000000000000e+00,0.000000000000000000e+00,0.000000000000000000e+00
6.500000000000000000e+00,1.644605429981070995e+09,0.000000000000000000e+00,0.000000000000000000e+00,0.000000000000000000e+00,0.000000000000000000e+00
6.516666666666666607e+00,1.644605430000139713e+09,0.000000000000000000e+00,0.000000000000000000e+00,0.000000000000000000e+00,0.000000000000000000e+00
6.533333333333333215e+00,1.644605430017167330e+09,0.000000000000000000e+00,0.000000000000000000e+00,0.000000000000000000e+00,0.000000000000000000e+00
6.549999999999999822e+00,1.644605430036201239e+09,0.000000000000000000e+00,0.000000000000000000e+00,0.000000000000000000e+00,0.000000000000000000e+00
6.566666666666666430e+00,1.644605430050597906e+09,0.000000000000000000e+00,0.000000000000000000e+00,0.000000000000000000e+00,0.000000000000000000e+00
6.583333333333333037e+00,1.644605430068570375e+09,0.000000000000000000e+00,6.154506625438339595e-01,0.000000000000000000e+00,6.154506625438339595e-01
6.599999999999999645e+00,1.644605430085525036e+09,0.000000000000000000e+00,5.561872003799409603e-01,0.000000000000000000e+00,5.561872003799409603e-01
6.616666666666666252e+00,1.644605430102352858e+09,0.000000000000000000e+00,0.000000000000000000e+00,0.000000000000000000e+00,0.000000000000000000e+00
6.633333333333332860e+00,1.644605430120413303e+09,0.000000000000000000e+00,0.000000000000000000e+00,0.000000000000000000e+00,0.000000000000000000e+00
6.649999999999999467e+00,1.644605430136683941e+09,0.000000000000000000e+00,0.000000000000000000e+00,0.000000000000000000e+00,0.000000000000000000e+00
6.666666666666666963e+00,1.644605430153778791e+09,0.000000000000000000e+00,0.000000000000000000e+00,0.000000000000000000e+00,0.000000000000000000e+00
6.683333333333333570e+00,1.644605430169728994e+09,0.000000000000000000e+00,0.000000000000000000e+00,0.000000000000000000e+00,0.000000000000000000e+00
6.700000000000000178e+00,1.644605430187656641e+09,0.000000000000000000e+00,0.000000000000000000e+00,0.000000000000000000e+00,0.000000000000000000e+00
6.716666666666666785e+00,1.644605430204637051e+09,0.000000000000000000e+00,0.000000000000000000e+00,0.000000000000000000e+00,0.000000000000000000e+00
6.733333333333333393e+00,1.644605430221945286e+09,0.000000000000000000e+00,0.000000000000000000e+00,0.000000000000000000e+00,0.000000000000000000e+00
6.750000000000000000e+00,1.644605430238485813e+09,0.000000000000000000e+00,0.000000000000000000e+00,0.000000000000000000e+00,0.000000000000000000e+00
6.766666666666666607e+00,1.644605430254819870e+09,0.000000000000000000e+00,0.000000000000000000e+00,0.000000000000000000e+00,0.000000000000000000e+00
6.783333333333333215e+00,1.644605430270364285e+09,0.000000000000000000e+00,0.000000000000000000e+00,0.000000000000000000e+00,0.000000000000000000e+00
6.799999999999999822e+00,1.644605430288491011e+09,0.000000000000000000e+00,0.000000000000000000e+00,0.000000000000000000e+00,0.000000000000000000e+00
6.816666666666666430e+00,1.644605430304889917e+09,0.000000000000000000e+00,0.000000000000000000e+00,0.000000000000000000e+00,0.000000000000000000e+00
6.833333333333333037e+00,1.644605430323245049e+09,0.000000000000000000e+00,0.000000000000000000e+00,0.000000000000000000e+00,0.000000000000000000e+00
6.849999999999999645e+00,1.644605430338017941e+09,0.000000000000000000e+00,-6.947456682001578177e-01,0.000000000000000000e+00,-6.947456682001578177e-01
6.866666666666666252e+00,1.644605430358050346e+09,0.000000000000000000e+00,-7.887364034612098784e-01,0.000000000000000000e+00,-7.887364034612098784e-01
6.883333333333332860e+00,1.644605430374208689e+09,0.000000000000000000e+00,-6.686371306276438498e-01,0.000000000000000000e+00,-6.686371306276438498e-01
6.899999999999999467e+00,1.644605430393106699e+09,0.000000000000000000e+00,0.000000000000000000e+00,0.000000000000000000e+00,0.000000000000000000e+00
6.916666666666666963e+00,1.644605430407093287e+09,0.000000000000000000e+00,0.000000000000000000e+00,0.000000000000000000e+00,0.000000000000000000e+00
6.933333333333333570e+00,1.644605430427756071e+09,0.000000000000000000e+00,0.000000000000000000e+00,0.000000000000000000e+00,0.000000000000000000e+00
6.950000000000000178e+00,1.644605430445388317e+09,0.000000000000000000e+00,0.000000000000000000e+00,0.000000000000000000e+00,0.000000000000000000e+00
6.966666666666666785e+00,1.644605430460347652e+09,0.000000000000000000e+00,0.000000000000000000e+00,0.000000000000000000e+00,0.000000000000000000e+00
6.983333333333333393e+00,1.644605430476694107e+09,0.000000000000000000e+00,0.000000000000000000e+00,0.000000000000000000e+00,0.000000000000000000e+00
7.000000000000000000e+00,1.644605430495596170e+09,0.000000000000000000e+00,0.000000000000000000e+00,0.000000000000000000e+00,0.000000000000000000e+00
7.016666666666666607e+00,1.644605430513901949e+09,0.000000000000000000e+00,0.000000000000000000e+00,0.000000000000000000e+00,0.000000000000000000e+00
7.033333333333333215e+00,1.644605430529833555e+09,0.000000000000000000e+00,0.000000000000000000e+00,0.000000000000000000e+00,0.000000000000000000e+00
7.049999999999999822e+00,1.644605430547176600e+09,0.000000000000000000e+00,-6.216417629971178194e-01,0.000000000000000000e+00,-6.216417629971178194e-01
7.066666666666666430e+00,1.644605430562162638e+09,0.000000000000000000e+00,-6.999673757146605002e-01,0.000000000000000000e+00,-6.999673757146605002e-01
7.083333333333333037e+00,1.644605430579153061e+09,0.000000000000000000e+00,-8.670620161787535585e-01,0.000000000000000000e+00,-8.670620161787535585e-01
7.099999999999999645e+00,1.644605430598076105e+09,0.000000000000000000e+00,-7.208542057726725627e-01,0.000000000000000000e+00,-7.208542057726725627e-01
7.116666666666666252e+00,1.644605430614394426e+09,0.000000000000000000e+00,-6.477503005696317873e-01,0.000000000000000000e+00,-6.477503005696317873e-01
7.133333333333332860e+00,1.644605430631394863e+09,0.000000000000000000e+00,-7.730712809177014977e-01,0.000000000000000000e+00,-7.730712809177014977e-01
7.149999999999999467e+00,1.644605430648092985e+09,0.000000000000000000e+00,-7.312976208016781499e-01,0.000000000000000000e+00,-7.312976208016781499e-01
7.166666666666666963e+00,1.644605430665046215e+09,0.000000000000000000e+00,-7.887364034612098784e-01,0.000000000000000000e+00,-7.887364034612098784e-01
7.183333333333333570e+00,1.644605430683970690e+09,0.000000000000000000e+00,-9.558310439253028257e-01,0.000000000000000000e+00,-9.558310439253028257e-01
7.200000000000000178e+00,1.644605430698624611e+09,0.000000000000000000e+00,-8.566186011497479713e-01,0.000000000000000000e+00,-8.566186011497479713e-01
7.216666666666666785e+00,1.644605430716624737e+09,0.000000000000000000e+00,-9.976047040413260625e-01,0.000000000000000000e+00,-9.976047040413260625e-01
7.233333333333333393e+00,1.644605430732582092e+09,0.000000000000000000e+00,-5.589812728230825201e-01,0.000000000000000000e+00,-5.589812728230825201e-01
7.250000000000000000e+00,1.644605430751533031e+09,0.000000000000000000e+00,0.000000000000000000e+00,0.000000000000000000e+00,0.000000000000000000e+00
7.266666666666666607e+00,1.644605430767489672e+09,0.000000000000000000e+00,0.000000000000000000e+00,0.000000000000000000e+00,0.000000000000000000e+00
7.283333333333333215e+00,1.644605430783245087e+09,0.000000000000000000e+00,0.000000000000000000e+00,0.000000000000000000e+00,0.000000000000000000e+00
7.299999999999999822e+00,1.644605430802194595e+09,0.000000000000000000e+00,0.000000000000000000e+00,0.000000000000000000e+00,0.000000000000000000e+00
7.316666666666666430e+00,1.644605430818173647e+09,0.000000000000000000e+00,0.000000000000000000e+00,0.000000000000000000e+00,0.000000000000000000e+00
7.333333333333333037e+00,1.644605430835400343e+09,0.000000000000000000e+00,0.000000000000000000e+00,0.000000000000000000e+00,0.000000000000000000e+00
7.349999999999999645e+00,1.644605430852683067e+09,0.000000000000000000e+00,0.000000000000000000e+00,0.000000000000000000e+00,0.000000000000000000e+00
7.366666666666666252e+00,1.644605430869725227e+09,0.000000000000000000e+00,0.000000000000000000e+00,0.000000000000000000e+00,0.000000000000000000e+00
7.383333333333332860e+00,1.644605430887103796e+09,0.000000000000000000e+00,0.000000000000000000e+00,0.000000000000000000e+00,0.000000000000000000e+00
7.399999999999999467e+00,1.644605430905910969e+09,0.000000000000000000e+00,0.000000000000000000e+00,0.000000000000000000e+00,0.000000000000000000e+00
7.416666666666666963e+00,1.644605430919892550e+09,0.000000000000000000e+00,0.000000000000000000e+00,0.000000000000000000e+00,0.000000000000000000e+00
7.433333333333333570e+00,1.644605430939095974e+09,0.000000000000000000e+00,0.000000000000000000e+00,0.000000000000000000e+00,0.000000000000000000e+00
7.450000000000000178e+00,1.644605430955033541e+09,0.000000000000000000e+00,0.000000000000000000e+00,0.000000000000000000e+00,0.000000000000000000e+00
7.466666666666666785e+00,1.644605430973376036e+09,0.000000000000000000e+00,0.000000000000000000e+00,0.000000000000000000e+00,0.000000000000000000e+00
7.483333333333333393e+00,1.644605430989737511e+09,0.000000000000000000e+00,0.000000000000000000e+00,0.000000000000000000e+00,0.000000000000000000e+00
7.500000000000000000e+00,1.644605431007359743e+09,0.000000000000000000e+00,0.000000000000000000e+00,0.000000000000000000e+00,0.000000000000000000e+00
7.516666666666666607e+00,1.644605431022772312e+09,0.000000000000000000e+00,0.000000000000000000e+00,0.000000000000000000e+00,0.000000000000000000e+00
7.533333333333333215e+00,1.644605431040188789e+09,0.000000000000000000e+00,0.000000000000000000e+00,0.000000000000000000e+00,0.000000000000000000e+00
7.549999999999999822e+00,1.644605431057775497e+09,0.000000000000000000e+00,0.000000000000000000e+00,0.000000000000000000e+00,0.000000000000000000e+00
7.566666666666666430e+00,1.644605431074202299e+09,0.000000000000000000e+00,0.000000000000000000e+00,0.000000000000000000e+00,0.000000000000000000e+00
7.583333333333333037e+00,1.644605431091499805e+09,0.000000000000000000e+00,0.000000000000000000e+00,0.000000000000000000e+00,0.000000000000000000e+00
7.599999999999999645e+00,1.644605431108446598e+09,0.000000000000000000e+00,0.000000000000000000e+00,0.000000000000000000e+00,0.000000000000000000e+00
7.616666666666666252e+00,1.644605431124053001e+09,0.000000000000000000e+00,0.000000000000000000e+00,0.000000000000000000e+00,0.000000000000000000e+00
7.633333333333332860e+00,1.644605431142055035e+09,0.000000000000000000e+00,0.000000000000000000e+00,0.000000000000000000e+00,0.000000000000000000e+00
7.649999999999999467e+00,1.644605431159009457e+09,0.000000000000000000e+00,0.000000000000000000e+00,0.000000000000000000e+00,0.000000000000000000e+00
7.666666666666666963e+00,1.644605431177436113e+09,0.000000000000000000e+00,0.000000000000000000e+00,0.000000000000000000e+00,0.000000000000000000e+00
7.683333333333333570e+00,1.644605431196224451e+09,0.000000000000000000e+00,0.000000000000000000e+00,0.000000000000000000e+00,0.000000000000000000e+00
7.700000000000000178e+00,1.644605431210188150e+09,0.000000000000000000e+00,0.000000000000000000e+00,0.000000000000000000e+00,0.000000000000000000e+00
7.716666666666666785e+00,1.644605431227825880e+09,0.000000000000000000e+00,0.000000000000000000e+00,0.000000000000000000e+00,0.000000000000000000e+00
7.733333333333333393e+00,1.644605431245806217e+09,0.000000000000000000e+00,0.000000000000000000e+00,0.000000000000000000e+00,0.000000000000000000e+00
7.750000000000000000e+00,1.644605431262042284e+09,0.000000000000000000e+00,0.000000000000000000e+00,0.000000000000000000e+00,0.000000000000000000e+00
7.766666666666666607e+00,1.644605431280147076e+09,0.000000000000000000e+00,-6.007549329391056459e-01,0.000000000000000000e+00,-6.007549329391056459e-01
7.783333333333333215e+00,1.644605431295081615e+09,0.000000000000000000e+00,-6.947456682001578177e-01,0.000000000000000000e+00,-6.947456682001578177e-01
7.799999999999999822e+00,1.644605431313058615e+09,0.000000000000000000e+00,-7.208542057726725627e-01,0.000000000000000000e+00,-7.208542057726725627e-01
7.816666666666666430e+00,1.644605431331031084e+09,0.000000000000000000e+00,-6.843022531711522305e-01,0.000000000000000000e+00,-6.843022531711522305e-01
7.833333333333333037e+00,1.644605431347988844e+09,0.000000000000000000e+00,-8.722837236932563520e-01,0.000000000000000000e+00,-8.722837236932563520e-01
7.849999999999999645e+00,1.644605431365687847e+09,0.000000000000000000e+00,0.000000000000000000e+00,0.000000000000000000e+00,0.000000000000000000e+00
7.866666666666666252e+00,1.644605431381636143e+09,0.000000000000000000e+00,-6.268634705116206129e-01,0.000000000000000000e+00,-6.268634705116206129e-01
7.883333333333332860e+00,1.644605431399414062e+09,0.000000000000000000e+00,-5.955332254246028523e-01,0.000000000000000000e+00,-5.955332254246028523e-01
7.899999999999999467e+00,1.644605431415360451e+09,0.000000000000000000e+00,-5.433161502795740283e-01,0.000000000000000000e+00,-5.433161502795740283e-01
7.916666666666666963e+00,1.644605431435687304e+09,0.000000000000000000e+00,-5.694246878520881072e-01,0.000000000000000000e+00,-5.694246878520881072e-01
7.933333333333333570e+00,1.644605431451161623e+09,0.000000000000000000e+00,0.000000000000000000e+00,0.000000000000000000e+00,0.000000000000000000e+00
7.950000000000000178e+00,1.644605431467405319e+09,0.000000000000000000e+00,0.000000000000000000e+00,0.000000000000000000e+00,0.000000000000000000e+00
7.966666666666666785e+00,1.644605431484522581e+09,0.000000000000000000e+00,0.000000000000000000e+00,0.000000000000000000e+00,0.000000000000000000e+00
7.983333333333333393e+00,1.644605431501503944e+09,0.000000000000000000e+00,0.000000000000000000e+00,0.000000000000000000e+00,0.000000000000000000e+00
8.000000000000000000e+00,1.644605431521596670e+09,0.000000000000000000e+00,0.000000000000000000e+00,0.000000000000000000e+00,0.000000000000000000e+00
8.016666666666665719e+00,1.644605431534585714e+09,0.000000000000000000e+00,0.000000000000000000e+00,0.000000000000000000e+00,0.000000000000000000e+00
8.033333333333333215e+00,1.644605431554582834e+09,0.000000000000000000e+00,0.000000000000000000e+00,0.000000000000000000e+00,0.000000000000000000e+00
8.050000000000000711e+00,1.644605431569590569e+09,0.000000000000000000e+00,0.000000000000000000e+00,0.000000000000000000e+00,0.000000000000000000e+00
8.066666666666666430e+00,1.644605431588512421e+09,0.000000000000000000e+00,0.000000000000000000e+00,0.000000000000000000e+00,0.000000000000000000e+00
8.083333333333333925e+00,1.644605431604905128e+09,0.000000000000000000e+00,0.000000000000000000e+00,0.000000000000000000e+00,0.000000000000000000e+00
8.099999999999999645e+00,1.644605431622833252e+09,0.000000000000000000e+00,0.000000000000000000e+00,0.000000000000000000e+00,0.000000000000000000e+00
8.116666666666667140e+00,1.644605431638784647e+09,0.000000000000000000e+00,0.000000000000000000e+00,0.000000000000000000e+00,0.000000000000000000e+00
8.133333333333332860e+00,1.644605431657995701e+09,0.000000000000000000e+00,0.000000000000000000e+00,0.000000000000000000e+00,0.000000000000000000e+00
8.150000000000000355e+00,1.644605431671406507e+09,0.000000000000000000e+00,0.000000000000000000e+00,0.000000000000000000e+00,0.000000000000000000e+00
8.166666666666666075e+00,1.644605431688361406e+09,0.000000000000000000e+00,0.000000000000000000e+00,0.000000000000000000e+00,0.000000000000000000e+00
8.183333333333333570e+00,1.644605431706319332e+09,0.000000000000000000e+00,0.000000000000000000e+00,0.000000000000000000e+00,0.000000000000000000e+00
8.199999999999999289e+00,1.644605431725563049e+09,0.000000000000000000e+00,0.000000000000000000e+00,0.000000000000000000e+00,0.000000000000000000e+00
8.216666666666666785e+00,1.644605431741022348e+09,0.000000000000000000e+00,0.000000000000000000e+00,0.000000000000000000e+00,0.000000000000000000e+00
8.233333333333332504e+00,1.644605431759004593e+09,0.000000000000000000e+00,0.000000000000000000e+00,0.000000000000000000e+00,0.000000000000000000e+00
8.250000000000000000e+00,1.644605431776374817e+09,0.000000000000000000e+00,0.000000000000000000e+00,0.000000000000000000e+00,0.000000000000000000e+00
8.266666666666665719e+00,1.644605431793270826e+09,0.000000000000000000e+00,0.000000000000000000e+00,0.000000000000000000e+00,0.000000000000000000e+00
8.283333333333333215e+00,1.644605431808206558e+09,0.000000000000000000e+00,0.000000000000000000e+00,0.000000000000000000e+00,0.000000000000000000e+00
8.300000000000000711e+00,1.644605431827180147e+09,0.000000000000000000e+00,0.000000000000000000e+00,0.000000000000000000e+00,0.000000000000000000e+00
8.316666666666666430e+00,1.644605431846130371e+09,0.000000000000000000e+00,0.000000000000000000e+00,0.000000000000000000e+00,0.000000000000000000e+00
8.333333333333333925e+00,1.644605431861473322e+09,0.000000000000000000e+00,0.000000000000000000e+00,0.000000000000000000e+00,0.000000000000000000e+00
8.349999999999999645e+00,1.644605431878406286e+09,0.000000000000000000e+00,0.000000000000000000e+00,0.000000000000000000e+00,0.000000000000000000e+00
8.366666666666667140e+00,1.644605431895337820e+09,0.000000000000000000e+00,0.000000000000000000e+00,0.000000000000000000e+00,0.000000000000000000e+00
8.383333333333332860e+00,1.644605431912292480e+09,0.000000000000000000e+00,0.000000000000000000e+00,0.000000000000000000e+00,0.000000000000000000e+00
8.400000000000000355e+00,1.644605431931292534e+09,0.000000000000000000e+00,0.000000000000000000e+00,0.000000000000000000e+00,0.000000000000000000e+00
8.416666666666666075e+00,1.644605431947009325e+09,0.000000000000000000e+00,0.000000000000000000e+00,0.000000000000000000e+00,0.000000000000000000e+00
8.433333333333333570e+00,1.644605431964321613e+09,0.000000000000000000e+00,0.000000000000000000e+00,0.000000000000000000e+00,0.000000000000000000e+00
8.449999999999999289e+00,1.644605431982255697e+09,0.000000000000000000e+00,0.000000000000000000e+00,0.000000000000000000e+00,0.000000000000000000e+00
8.466666666666666785e+00,1.644605431999225616e+09,0.000000000000000000e+00,0.000000000000000000e+00,0.000000000000000000e+00,0.000000000000000000e+00
8.483333333333332504e+00,1.644605432017180443e+09,0.000000000000000000e+00,0.000000000000000000e+00,0.000000000000000000e+00,0.000000000000000000e+00
8.500000000000000000e+00,1.644605432033137798e+09,0.000000000000000000e+00,0.000000000000000000e+00,0.000000000000000000e+00,0.000000000000000000e+00
8.516666666666665719e+00,1.644605432050091505e+09,0.000000000000000000e+00,0.000000000000000000e+00,0.000000000000000000e+00,0.000000000000000000e+00
8.533333333333333215e+00,1.644605432067298412e+09,0.000000000000000000e+00,0.000000000000000000e+00,0.000000000000000000e+00,0.000000000000000000e+00
8.550000000000000711e+00,1.644605432084590435e+09,0.000000000000000000e+00,0.000000000000000000e+00,0.000000000000000000e+00,0.000000000000000000e+00
8.566666666666666430e+00,1.644605432100142717e+09,0.000000000000000000e+00,0.000000000000000000e+00,0.000000000000000000e+00,0.000000000000000000e+00
8.583333333333333925e+00,1.644605432116152048e+09,0.000000000000000000e+00,0.000000000000000000e+00,0.000000000000000000e+00,0.000000000000000000e+00
8.599999999999999645e+00,1.644605432135500669e+09,0.000000000000000000e+00,0.000000000000000000e+00,0.000000000000000000e+00,0.000000000000000000e+00
8.616666666666667140e+00,1.644605432153053045e+09,0.000000000000000000e+00,0.000000000000000000e+00,0.000000000000000000e+00,0.000000000000000000e+00
8.633333333333332860e+00,1.644605432169499874e+09,0.000000000000000000e+00,0.000000000000000000e+00,0.000000000000000000e+00,0.000000000000000000e+00
8.650000000000000355e+00,1.644605432187758684e+09,0.000000000000000000e+00,0.000000000000000000e+00,0.000000000000000000e+00,0.000000000000000000e+00
8.666666666666666075e+00,1.644605432204032898e+09,0.000000000000000000e+00,0.000000000000000000e+00,0.000000000000000000e+00,0.000000000000000000e+00
8.683333333333333570e+00,1.644605432221950293e+09,0.000000000000000000e+00,0.000000000000000000e+00,0.000000000000000000e+00,0.000000000000000000e+00
8.699999999999999289e+00,1.644605432237932920e+09,0.000000000000000000e+00,0.000000000000000000e+00,0.000000000000000000e+00,0.000000000000000000e+00
8.716666666666666785e+00,1.644605432253913879e+09,0.000000000000000000e+00,0.000000000000000000e+00,0.000000000000000000e+00,0.000000000000000000e+00
8.733333333333332504e+00,1.644605432272005081e+09,0.000000000000000000e+00,0.000000000000000000e+00,0.000000000000000000e+00,0.000000000000000000e+00
8.750000000000000000e+00,1.644605432287811518e+09,0.000000000000000000e+00,0.000000000000000000e+00,0.000000000000000000e+00,0.000000000000000000e+00
8.766666666666665719e+00,1.644605432303665400e+09,0.000000000000000000e+00,0.000000000000000000e+00,0.000000000000000000e+00,0.000000000000000000e+00
8.783333333333333215e+00,1.644605432320941925e+09,0.000000000000000000e+00,0.000000000000000000e+00,0.000000000000000000e+00,0.000000000000000000e+00
8.800000000000000711e+00,1.644605432337449074e+09,0.000000000000000000e+00,0.000000000000000000e+00,0.000000000000000000e+00,0.000000000000000000e+00
8.816666666666666430e+00,1.644605432356447697e+09,0.000000000000000000e+00,0.000000000000000000e+00,0.000000000000000000e+00,0.000000000000000000e+00
8.833333333333333925e+00,1.644605432373168468e+09,0.000000000000000000e+00,0.000000000000000000e+00,0.000000000000000000e+00,0.000000000000000000e+00
8.849999999999999645e+00,1.644605432390123129e+09,0.000000000000000000e+00,0.000000000000000000e+00,0.000000000000000000e+00,0.000000000000000000e+00
8.866666666666667140e+00,1.644605432408072710e+09,0.000000000000000000e+00,0.000000000000000000e+00,0.000000000000000000e+00,0.000000000000000000e+00
8.883333333333332860e+00,1.644605432424980402e+09,0.000000000000000000e+00,0.000000000000000000e+00,0.000000000000000000e+00,0.000000000000000000e+00
8.900000000000000355e+00,1.644605432442358732e+09,0.000000000000000000e+00,0.000000000000000000e+00,0.000000000000000000e+00,0.000000000000000000e+00
8.916666666666666075e+00,1.644605432459753990e+09,0.000000000000000000e+00,0.000000000000000000e+00,0.000000000000000000e+00,0.000000000000000000e+00
