# 
# 
# 
# 
# 
# 
# 
# 
# 
# 
# time,realtime,ref,inp,dis,state...
0.000000000000000000e+00,1.644605418630429506e+09,0.000000000000000000e+00,1.200438385839035060e+00,0.000000000000000000e+00,2.295856573578088256e+00
1.666666666666666644e-02,1.644605418631427526e+09,0.000000000000000000e+00,2.295856573578088256e+00,-1.234613757503345566e-01,2.295856573578088256e+00
3.333333333333333287e-02,1.644605418634420395e+09,0.000000000000000000e+00,-1.216916419650447834e+00,0.000000000000000000e+00,-1.216916419650447834e+00
5.000000000000000278e-02,1.644605418648428917e+09,0.000000000000000000e+00,1.294112890549704353e+00,0.000000000000000000e+00,1.294112890549704353e+00
6.666666666666666574e-02,1.644605418667357445e+09,0.000000000000000000e+00,1.395434293604102205e+00,0.000000000000000000e+00,1.395434293604102205e+00
8.333333333333332871e-02,1.644605418684322357e+09,0.000000000000000000e+00,1.515872942517819899e+00,0.000000000000000000e+00,1.515872942517819899e+00
1.000000000000000056e-01,1.644605418699293852e+09,0.000000000000000000e+00,1.515872942517819899e+00,0.000000000000000000e+00,1.515872942517819899e+00
1.166666666666666685e-01,1.644605418719484091e+09,0.000000000000000000e+00,1.431757060736810860e+00,0.000000000000000000e+00,1.431757060736810860e+00
1.333333333333333315e-01,1.644605418734468699e+09,0.000000000000000000e+00,1.561754332580189031e+00,0.000000000000000000e+00,1.561754332580189031e+00
1.499999999999999944e-01,1.644605418752418518e+09,0.000000000000000000e+00,1.489108798314771276e+00,0.000000000000000000e+00,1.489108798314771276e+00
1.666666666666666574e-01,1.644605418770347834e+09,0.000000000000000000e+00,1.351464628127665213e+00,0.000000000000000000e+00,1.351464628127665213e+00
1.833333333333333204e-01,1.644605418785331726e+09,0.000000000000000000e+00,1.353376352713597575e+00,0.000000000000000000e+00,1.353376352713597575e+00
2.000000000000000111e-01,1.644605418803508997e+09,0.000000000000000000e+00,1.339994280612073485e+00,0.000000000000000000e+00,1.339994280612073485e+00
2.166666666666666741e-01,1.644605418820471287e+09,0.000000000000000000e+00,1.185144589151578609e+00,0.000000000000000000e+00,1.185144589151578609e+00
2.333333333333333370e-01,1.644605418838369608e+09,0.000000000000000000e+00,1.045588694378540406e+00,0.000000000000000000e+00,1.045588694378540406e+00
2.500000000000000000e-01,1.644605418855579138e+09,0.000000000000000000e+00,1.043676969792608711e+00,0.000000000000000000e+00,1.043676969792608711e+00
2.666666666666666630e-01,1.644605418874494314e+09,0.000000000000000000e+00,6.116272133719700133e-01,0.000000000000000000e+00,6.116272133719700133e-01
2.833333333333333259e-01,1.644605418888458252e+09,0.000000000000000000e+00,5.695692724814652719e-01,0.000000000000000000e+00,5.695692724814652719e-01
2.999999999999999889e-01,1.644605418908428907e+09,0.000000000000000000e+00,5.753044462392611358e-01,0.000000000000000000e+00,5.753044462392611358e-01
3.166666666666666519e-01,1.644605418924385071e+09,0.000000000000000000e+00,0.000000000000000000e+00,0.000000000000000000e+00,0.000000000000000000e+00
3.333333333333333148e-01,1.644605418941363811e+09,0.000000000000000000e+00,0.000000000000000000e+00,0.000000000000000000e+00,0.000000000000000000e+00
3.499999999999999778e-01,1.644605418960264206e+09,0.000000000000000000e+00,0.000000000000000000e+00,0.000000000000000000e+00,0.000000000000000000e+00
3.666666666666666408e-01,1.644605418977274895e+09,0.000000000000000000e+00,0.000000000000000000e+00,0.000000000000000000e+00,0.000000000000000000e+00
3.833333333333333037e-01,1.644605418993210554e+09,0.000000000000000000e+00,0.000000000000000000e+00,0.000000000000000000e+00,0.000000000000000000e+00
4.000000000000000222e-01,1.644605419010157108e+09,0.000000000000000000e+00,0.000000000000000000e+00,0.000000000000000000e+00,0.000000000000000000e+00
4.166666666666666852e-01,1.644605419025511742e+09,0.000000000000000000e+00,0.000000000000000000e+00,0.000000000000000000e+00,0.000000000000000000e+00
4.333333333333333481e-01,1.644605419043485880e+09,0.000000000000000000e+00,0.000000000000000000e+00,0.000000000000000000e+00,0.000000000000000000e+00
4.500000000000000111e-01,1.644605419060326576e+09,0.000000000000000000e+00,0.000000000000000000e+00,0.000000000000000000e+00,0.000000000000000000e+00
4.666666666666666741e-01,1.644605419077675819e+09,0.000000000000000000e+00,0.000000000000000000e+00,0.000000000000000000e+00,0.000000000000000000e+00
4.833333333333333370e-01,1.644605419093341589e+09,0.000000000000000000e+00,0.000000000000000000e+00,0.000000000000000000e+00,0.000000000000000000e+00
5.000000000000000000e-01,1.644605419110443115e+09,0.000000000000000000e+00,0.000000000000000000e+00,0.000000000000000000e+00,0.000000000000000000e+00
5.166666666666666075e-01,1.644605419126450062e+09,0.000000000000000000e+00,0.000000000000000000e+00,0.000000000000000000e+00,0.000000000000000000e+00
5.333333333333333259e-01,1.644605419146775961e+09,0.000000000000000000e+00,0.000000000000000000e+00,0.000000000000000000e+00,0.000000000000000000e+00
5.500000000000000444e-01,1.644605419162205935e+09,0.000000000000000000e+00,0.000000000000000000e+00,0.000000000000000000e+00,0.000000000000000000e+00
5.666666666666666519e-01,1.644605419180184126e+09,0.000000000000000000e+00,0.000000000000000000e+00,0.000000000000000000e+00,0.000000000000000000e+00
5.833333333333333703e-01,1.644605419194468975e+09,0.000000000000000000e+00,0.000000000000000000e+00,0.000000000000000000e+00,0.000000000000000000e+00
5.999999999999999778e-01,1.644605419213672161e+09,0.000000000000000000e+00,0.000000000000000000e+00,0.000000000000000000e+00,0.000000000000000000e+00
6.166666666666666963e-01,1.644605419229748249e+09,0.000000000000000000e+00,0.000000000000000000e+00,0.000000000000000000e+00,0.000000000000000000e+00
6.333333333333333037e-01,1.644605419245796919e+09,0.000000000000000000e+00,-5.485378577940768219e-01,0.000000000000000000e+00,-5.485378577940768219e-01
6.500000000000000222e-01,1.644605419264250040e+09,0.000000000000000000e+00,0.000000000000000000e+00,0.000000000000000000e+00,0.000000000000000000e+00
6.666666666666666297e-01,1.644605419277485609e+09,0.000000000000000000e+00,0.000000000000000000e+00,0.000000000000000000e+00,0.000000000000000000e+00
6.833333333333333481e-01,1.644605419296401501e+09,0.000000000000000000e+00,0.000000000000000000e+00,0.000000000000000000e+00,0.000000000000000000e+00
6.999999999999999556e-01,1.644605419313380241e+09,0.000000000000000000e+00,0.000000000000000000e+00,0.000000000000000000e+00,0.000000000000000000e+00
7.166666666666666741e-01,1.644605419327853203e+09,0.000000000000000000e+00,0.000000000000000000e+00,0.000000000000000000e+00,0.000000000000000000e+00
7.333333333333332815e-01,1.644605419346795321e+09,0.000000000000000000e+00,0.000000000000000000e+00,0.000000000000000000e+00,0.000000000000000000e+00
7.500000000000000000e-01,1.644605419364382744e+09,0.000000000000000000e+00,0.000000000000000000e+00,0.000000000000000000e+00,0.000000000000000000e+00
7.666666666666666075e-01,1.644605419383305311e+09,0.000000000000000000e+00,0.000000000000000000e+00,0.000000000000000000e+00,0.000000000000000000e+00
7.833333333333333259e-01,1.644605419399485111e+09,0.000000000000000000e+00,0.000000000000000000e+00,0.000000000000000000e+00,0.000000000000000000e+00
8.000000000000000444e-01,1.644605419416512489e+09,0.000000000000000000e+00,0.000000000000000000e+00,0.000000000000000000e+00,0.000000000000000000e+00
8.166666666666666519e-01,1.644605419433075666e+09,0.000000000000000000e+00,0.000000000000000000e+00,0.000000000000000000e+00,0.000000000000000000e+00
8.333333333333333703e-01,1.644605419450021744e+09,0.000000000000000000e+00,0.000000000000000000e+00,0.000000000000000000e+00,0.000000000000000000e+00
8.499999999999999778e-01,1.644605419467000008e+09,0.000000000000000000e+00,0.000000000000000000e+00,0.000000000000000000e+00,0.000000000000000000e+00
8.666666666666666963e-01,1.644605419484902859e+09,0.000000000000000000e+00,0.000000000000000000e+00,0.000000000000000000e+00,0.000000000000000000e+00
8.833333333333333037e-01,1.644605419502218485e+09,0.000000000000000000e+00,0.000000000000000000e+00,0.000000000000000000e+00,0.000000000000000000e+00
9.000000000000000222e-01,1.644605419520216465e+09,0.000000000000000000e+00,6.192741117156979058e-01,0.000000000000000000e+00,6.192741117156979058e-01
9.166666666666666297e-01,1.644605419535472155e+09,0.000000000000000000e+00,7.263306885278917324e-01,0.000000000000000000e+00,7.263306885278917324e-01
9.333333333333333481e-01,1.644605419551840305e+09,0.000000000000000000e+00,7.951527736214446529e-01,0.000000000000000000e+00,7.951527736214446529e-01
9.499999999999999556e-01,1.644605419570176840e+09,0.000000000000000000e+00,7.875058752777167603e-01,0.000000000000000000e+00,7.875058752777167603e-01
9.666666666666666741e-01,1.644605419584508419e+09,0.000000000000000000e+00,9.404438421522791636e-01,0.000000000000000000e+00,9.404438421522791636e-01
9.833333333333332815e-01,1.644605419601764441e+09,0.000000000000000000e+00,9.863252322146477402e-01,0.000000000000000000e+00,9.863252322146477402e-01
1.000000000000000000e+00,1.644605419621674299e+09,0.000000000000000000e+00,8.926507275039785583e-01,0.000000000000000000e+00,8.926507275039785583e-01
1.016666666666666607e+00,1.644605419637631893e+09,0.000000000000000000e+00,7.339775868716196250e-01,0.000000000000000000e+00,7.339775868716196250e-01
1.033333333333333215e+00,1.644605419653618336e+09,0.000000000000000000e+00,6.976548197389110806e-01,0.000000000000000000e+00,6.976548197389110806e-01
1.050000000000000044e+00,1.644605419672769547e+09,0.000000000000000000e+00,6.422148067468824717e-01,0.000000000000000000e+00,6.422148067468824717e-01
1.066666666666666652e+00,1.644605419688575506e+09,0.000000000000000000e+00,6.422148067468824717e-01,0.000000000000000000e+00,6.422148067468824717e-01
1.083333333333333259e+00,1.644605419705480337e+09,0.000000000000000000e+00,5.772161708251934975e-01,0.000000000000000000e+00,5.772161708251934975e-01
1.100000000000000089e+00,1.644605419723459005e+09,0.000000000000000000e+00,0.000000000000000000e+00,0.000000000000000000e+00,0.000000000000000000e+00
1.116666666666666696e+00,1.644605419739389658e+09,0.000000000000000000e+00,0.000000000000000000e+00,0.000000000000000000e+00,0.000000000000000000e+00
1.133333333333333304e+00,1.644605419757341623e+09,0.000000000000000000e+00,0.000000000000000000e+00,0.000000000000000000e+00,0.000000000000000000e+00
1.149999999999999911e+00,1.644605419772301912e+09,0.000000000000000000e+00,0.000000000000000000e+00,0.000000000000000000e+00,0.000000000000000000e+00
1.166666666666666741e+00,1.644605419791250944e+09,0.000000000000000000e+00,0.000000000000000000e+00,0.000000000000000000e+00,0.000000000000000000e+00
1.183333333333333348e+00,1.644605419809202909e+09,0.000000000000000000e+00,0.000000000000000000e+00,0.000000000000000000e+00,0.000000000000000000e+00
1.199999999999999956e+00,1.644605419829183102e+09,0.000000000000000000e+00,0.000000000000000000e+00,0.000000000000000000e+00,0.000000000000000000e+00
1.216666666666666563e+00,1.644605419842115879e+09,0.000000000000000000e+00,0.000000000000000000e+00,0.000000000000000000e+00,0.000000000000000000e+00
1.233333333333333393e+00,1.644605419861064911e+09,0.000000000000000000e+00,0.000000000000000000e+00,0.000000000000000000e+00,0.000000000000000000e+00
1.250000000000000000e+00,1.644605419880013466e+09,0.000000000000000000e+00,0.000000000000000000e+00,0.000000000000000000e+00,0.000000000000000000e+00
1.266666666666666607e+00,1.644605419895971060e+09,0.000000000000000000e+00,0.000000000000000000e+00,0.000000000000000000e+00,0.000000000000000000e+00
1.283333333333333215e+00,1.644605419911928654e+09,0.000000000000000000e+00,0.000000000000000000e+00,0.000000000000000000e+00,0.000000000000000000e+00
1.300000000000000044e+00,1.644605419927886009e+09,0.000000000000000000e+00,0.000000000000000000e+00,0.000000000000000000e+00,0.000000000000000000e+00
1.316666666666666652e+00,1.644605419944840193e+09,0.000000000000000000e+00,0.000000000000000000e+00,0.000000000000000000e+00,0.000000000000000000e+00
1.333333333333333259e+00,1.644605419964886189e+09,0.000000000000000000e+00,0.000000000000000000e+00,0.000000000000000000e+00,0.000000000000000000e+00
1.350000000000000089e+00,1.644605419980863571e+09,0.000000000000000000e+00,0.000000000000000000e+00,0.000000000000000000e+00,0.000000000000000000e+00
1.366666666666666696e+00,1.644605419997798204e+09,0.000000000000000000e+00,0.000000000000000000e+00,0.000000000000000000e+00,0.000000000000000000e+00
1.383333333333333304e+00,1.644605420013938904e+09,0.000000000000000000e+00,0.000000000000000000e+00,0.000000000000000000e+00,0.000000000000000000e+00
1.399999999999999911e+00,1.644605420031892776e+09,0.000000000000000000e+00,0.000000000000000000e+00,0.000000000000000000e+00,0.000000000000000000e+00
1.416666666666666741e+00,1.644605420048847437e+09,0.000000000000000000e+00,0.000000000000000000e+00,0.000000000000000000e+00,0.000000000000000000e+00
1.433333333333333348e+00,1.644605420067797184e+09,0.000000000000000000e+00,0.000000000000000000e+00,0.000000000000000000e+00,0.000000000000000000e+00
1.449999999999999956e+00,1.644605420083841801e+09,0.000000000000000000e+00,0.000000000000000000e+00,0.000000000000000000e+00,0.000000000000000000e+00
1.466666666666666563e+00,1.644605420099819183e+09,0.000000000000000000e+00,0.000000000000000000e+00,0.000000000000000000e+00,0.000000000000000000e+00
1.483333333333333393e+00,1.644605420116963148e+09,0.000000000000000000e+00,0.000000000000000000e+00,0.000000000000000000e+00,0.000000000000000000e+00
1.500000000000000000e+00,1.644605420132944345e+09,0.000000000000000000e+00,0.000000000000000000e+00,0.000000000000000000e+00,0.000000000000000000e+00
1.516666666666666607e+00,1.644605420149969339e+09,0.000000000000000000e+00,0.000000000000000000e+00,0.000000000000000000e+00,0.000000000000000000e+00
1.533333333333333215e+00,1.644605420168470383e+09,0.000000000000000000e+00,0.000000000000000000e+00,0.000000000000000000e+00,0.000000000000000000e+00
1.550000000000000044e+00,1.644605420182962894e+09,0.000000000000000000e+00,0.000000000000000000e+00,0.000000000000000000e+00,0.000000000000000000e+00
1.566666666666666652e+00,1.644605420199361801e+09,0.000000000000000000e+00,0.000000000000000000e+00,0.000000000000000000e+00,0.000000000000000000e+00
1.583333333333333259e+00,1.644605420215298414e+09,0.000000000000000000e+00,0.000000000000000000e+00,0.000000000000000000e+00,0.000000000000000000e+00
1.600000000000000089e+00,1.644605420233599901e+09,0.000000000000000000e+00,0.000000000000000000e+00,0.000000000000000000e+00,0.000000000000000000e+00
1.616666666666666696e+00,1.644605420251229286e+09,0.000000000000000000e+00,0.000000000000000000e+00,0.000000000000000000e+00,0.000000000000000000e+00
1.633333333333333304e+00,1.644605420267575026e+09,0.000000000000000000e+00,0.000000000000000000e+00,0.000000000000000000e+00,0.000000000000000000e+00
1.649999999999999911e+00,1.644605420285604000e+09,0.000000000000000000e+00,0.000000000000000000e+00,0.000000000000000000e+00,0.000000000000000000e+00
1.666666666666666741e+00,1.644605420301799297e+09,0.000000000000000000e+00,0.000000000000000000e+00,0.000000000000000000e+00,0.000000000000000000e+00
1.683333333333333348e+00,1.644605420320066690e+09,0.000000000000000000e+00,0.000000000000000000e+00,0.000000000000000000e+00,0.000000000000000000e+00
1.699999999999999956e+00,1.644605420337017298e+09,0.000000000000000000e+00,0.000000000000000000e+00,0.000000000000000000e+00,0.000000000000000000e+00
1.716666666666666563e+00,1.644605420353291273e+09,0.000000000000000000e+00,0.000000000000000000e+00,0.000000000000000000e+00,0.000000000000000000e+00
1.733333333333333393e+00,1.644605420370246172e+09,0.000000000000000000e+00,0.000000000000000000e+00,0.000000000000000000e+00,0.000000000000000000e+00
1.750000000000000000e+00,1.644605420385676622e+09,0.000000000000000000e+00,0.000000000000000000e+00,0.000000000000000000e+00,0.000000000000000000e+00
1.766666666666666607e+00,1.644605420403673887e+09,0.000000000000000000e+00,0.000000000000000000e+00,0.000000000000000000e+00,0.000000000000000000e+00
1.783333333333333215e+00,1.644605420419677734e+09,0.000000000000000000e+00,0.000000000000000000e+00,0.000000000000000000e+00,0.000000000000000000e+00
1.800000000000000044e+00,1.644605420436613321e+09,0.000000000000000000e+00,0.000000000000000000e+00,0.000000000000000000e+00,0.000000000000000000e+00
1.816666666666666652e+00,1.644605420453907728e+09,0.000000000000000000e+00,0.000000000000000000e+00,0.000000000000000000e+00,0.000000000000000000e+00
1.833333333333333259e+00,1.644605420472404242e+09,0.000000000000000000e+00,0.000000000000000000e+00,0.000000000000000000e+00,0.000000000000000000e+00
1.849999999999999867e+00,1.644605420489680290e+09,0.000000000000000000e+00,0.000000000000000000e+00,0.000000000000000000e+00,0.000000000000000000e+00
1.866666666666666696e+00,1.644605420506319761e+09,0.000000000000000000e+00,0.000000000000000000e+00,0.000000000000000000e+00,0.000000000000000000e+00
1.883333333333333304e+00,1.644605420522278547e+09,0.000000000000000000e+00,0.000000000000000000e+00,0.000000000000000000e+00,0.000000000000000000e+00
1.899999999999999911e+00,1.644605420539255857e+09,0.000000000000000000e+00,0.000000000000000000e+00,0.000000000000000000e+00,0.000000000000000000e+00
1.916666666666666741e+00,1.644605420553905964e+09,0.000000000000000000e+00,0.000000000000000000e+00,0.000000000000000000e+00,0.000000000000000000e+00
1.933333333333333348e+00,1.644605420572154284e+09,0.000000000000000000e+00,0.000000000000000000e+00,0.000000000000000000e+00,0.000000000000000000e+00
1.949999999999999956e+00,1.644605420588516474e+09,0.000000000000000000e+00,0.000000000000000000e+00,0.000000000000000000e+00,0.000000000000000000e+00
1.966666666666666563e+00,1.644605420605183840e+09,0.000000000000000000e+00,0.000000000000000000e+00,0.000000000000000000e+00,0.000000000000000000e+00
1.983333333333333393e+00,1.644605420621279478e+09,0.000000000000000000e+00,0.000000000000000000e+00,0.000000000000000000e+00,0.000000000000000000e+00
2.000000000000000000e+00,1.644605420642004251e+09,0.000000000000000000e+00,0.000000000000000000e+00,0.000000000000000000e+00,0.000000000000000000e+00
2.016666666666666607e+00,1.644605420657016039e+09,0.000000000000000000e+00,0.000000000000000000e+00,0.000000000000000000e+00,0.000000000000000000e+00
2.033333333333333215e+00,1.644605420674966097e+09,0.000000000000000000e+00,0.000000000000000000e+00,0.000000000000000000e+00,0.000000000000000000e+00
2.049999999999999822e+00,1.644605420690073013e+09,0.000000000000000000e+00,0.000000000000000000e+00,0.000000000000000000e+00,0.000000000000000000e+00
2.066666666666666430e+00,1.644605420708852291e+09,0.000000000000000000e+00,0.000000000000000000e+00,0.000000000000000000e+00,0.000000000000000000e+00
2.083333333333333481e+00,1.644605420725808144e+09,0.000000000000000000e+00,0.000000000000000000e+00,0.000000000000000000e+00,0.000000000000000000e+00
2.100000000000000089e+00,1.644605420741120100e+09,0.000000000000000000e+00,0.000000000000000000e+00,0.000000000000000000e+00,0.000000000000000000e+00
2.116666666666666696e+00,1.644605420758070707e+09,0.000000000000000000e+00,0.000000000000000000e+00,0.000000000000000000e+00,0.000000000000000000e+00
2.133333333333333304e+00,1.644605420776044607e+09,0.000000000000000000e+00,0.000000000000000000e+00,0.000000000000000000e+00,0.000000000000000000e+00
2.149999999999999911e+00,1.644605420792883158e+09,0.000000000000000000e+00,0.000000000000000000e+00,0.000000000000000000e+00,0.000000000000000000e+00
2.166666666666666519e+00,1.644605420810835123e+09,0.000000000000000000e+00,0.000000000000000000e+00,0.000000000000000000e+00,0.000000000000000000e+00
2.183333333333333126e+00,1.644605420826770782e+09,0.000000000000000000e+00,0.000000000000000000e+00,0.000000000000000000e+00,0.000000000000000000e+00
2.200000000000000178e+00,1.644605420843958616e+09,0.000000000000000000e+00,0.000000000000000000e+00,0.000000000000000000e+00,0.000000000000000000e+00
2.216666666666666785e+00,1.644605420862334967e+09,0.000000000000000000e+00,0.000000000000000000e+00,0.000000000000000000e+00,0.000000000000000000e+00
2.233333333333333393e+00,1.644605420879602909e+09,0.000000000000000000e+00,0.000000000000000000e+00,0.000000000000000000e+00,0.000000000000000000e+00
2.250000000000000000e+00,1.644605420894842625e+09,0.000000000000000000e+00,0.000000000000000000e+00,0.000000000000000000e+00,0.000000000000000000e+00
2.266666666666666607e+00,1.644605420911777258e+09,0.000000000000000000e+00,0.000000000000000000e+00,0.000000000000000000e+00,0.000000000000000000e+00
2.283333333333333215e+00,1.644605420928016186e+09,0.000000000000000000e+00,0.000000000000000000e+00,0.000000000000000000e+00,0.000000000000000000e+00
2.299999999999999822e+00,1.644605420943974495e+09,0.000000000000000000e+00,0.000000000000000000e+00,0.000000000000000000e+00,0.000000000000000000e+00
2.316666666666666430e+00,1.644605420961047411e+09,0.000000000000000000e+00,0.000000000000000000e+00,0.000000000000000000e+00,0.000000000000000000e+00
2.333333333333333481e+00,1.644605420975983858e+09,0.000000000000000000e+00,0.000000000000000000e+00,0.000000000000000000e+00,0.000000000000000000e+00
2.350000000000000089e+00,1.644605420994457960e+09,0.000000000000000000e+00,0.000000000000000000e+00,0.000000000000000000e+00,0.000000000000000000e+00
2.366666666666666696e+00,1.644605421011407137e+09,0.000000000000000000e+00,5.561872003799409603e-01,0.000000000000000000e+00,5.561872003799409603e-01
2.383333333333333304e+00,1.644605421029363155e+09,0.000000000000000000e+00,6.135389379579019309e-01,0.000000000000000000e+00,6.135389379579019309e-01
2.399999999999999911e+00,1.644605421046594620e+09,0.000000000000000000e+00,5.600106495518049066e-01,0.000000000000000000e+00,5.600106495518049066e-01
2.416666666666666519e+00,1.644605421062572479e+09,0.000000000000000000e+00,5.810396199970575548e-01,0.000000000000000000e+00,5.810396199970575548e-01
2.433333333333333126e+00,1.644605421078910828e+09,0.000000000000000000e+00,5.791278954111255262e-01,0.000000000000000000e+00,5.791278954111255262e-01
2.450000000000000178e+00,1.644605421094898939e+09,0.000000000000000000e+00,0.000000000000000000e+00,0.000000000000000000e+00,0.000000000000000000e+00
2.466666666666666785e+00,1.644605421113197327e+09,0.000000000000000000e+00,0.000000000000000000e+00,0.000000000000000000e+00,0.000000000000000000e+00
2.483333333333333393e+00,1.644605421130179882e+09,0.000000000000000000e+00,0.000000000000000000e+00,0.000000000000000000e+00,0.000000000000000000e+00
2.500000000000000000e+00,1.644605421147130013e+09,0.000000000000000000e+00,0.000000000000000000e+00,0.000000000000000000e+00,0.000000000000000000e+00
2.516666666666666607e+00,1.644605421162476063e+09,0.000000000000000000e+00,0.000000000000000000e+00,0.000000000000000000e+00,0.000000000000000000e+00
2.533333333333333215e+00,1.644605421181400299e+09,0.000000000000000000e+00,0.000000000000000000e+00,0.000000000000000000e+00,0.000000000000000000e+00
2.549999999999999822e+00,1.644605421198378563e+09,0.000000000000000000e+00,0.000000000000000000e+00,0.000000000000000000e+00,0.000000000000000000e+00
2.566666666666666430e+00,1.644605421214334488e+09,0.000000000000000000e+00,0.000000000000000000e+00,0.000000000000000000e+00,0.000000000000000000e+00
2.583333333333333481e+00,1.644605421231863976e+09,0.000000000000000000e+00,0.000000000000000000e+00,0.000000000000000000e+00,0.000000000000000000e+00
2.600000000000000089e+00,1.644605421248816729e+09,0.000000000000000000e+00,0.000000000000000000e+00,0.000000000000000000e+00,0.000000000000000000e+00
2.616666666666666696e+00,1.644605421266155005e+09,0.000000000000000000e+00,0.000000000000000000e+00,0.000000000000000000e+00,0.000000000000000000e+00
2.633333333333333304e+00,1.644605421285486221e+09,0.000000000000000000e+00,0.000000000000000000e+00,0.000000000000000000e+00,0.000000000000000000e+00
2.649999999999999911e+00,1.644605421299428225e+09,0.000000000000000000e+00,0.000000000000000000e+00,0.000000000000000000e+00,0.000000000000000000e+00
2.666666666666666519e+00,1.644605421319233894e+09,0.000000000000000000e+00,0.000000000000000000e+00,0.000000000000000000e+00,0.000000000000000000e+00
2.683333333333333126e+00,1.644605421336152315e+09,0.000000000000000000e+00,0.000000000000000000e+00,0.000000000000000000e+00,0.000000000000000000e+00
2.700000000000000178e+00,1.644605421353180408e+09,0.000000000000000000e+00,0.000000000000000000e+00,0.000000000000000000e+00,0.000000000000000000e+00
2.716666666666666785e+00,1.644605421370634794e+09,0.000000000000000000e+00,0.000000000000000000e+00,0.000000000000000000e+00,0.000000000000000000e+00
2.733333333333333393e+00,1.644605421388653517e+09,0.000000000000000000e+00,0.000000000000000000e+00,0.000000000000000000e+00,0.000000000000000000e+00
2.750000000000000000e+00,1.644605421405076027e+09,0.000000000000000000e+00,0.000000000000000000e+00,0.000000000000000000e+00,0.000000000000000000e+00
2.766666666666666607e+00,1.644605421421499252e+09,0.000000000000000000e+00,0.000000000000000000e+00,0.000000000000000000e+00,0.000000000000000000e+00
2.783333333333333215e+00,1.644605421438909292e+09,0.000000000000000000e+00,0.000000000000000000e+00,0.000000000000000000e+00,0.000000000000000000e+00
2.799999999999999822e+00,1.644605421455969810e+09,0.000000000000000000e+00,0.000000000000000000e+00,0.000000000000000000e+00,0.000000000000000000e+00
2.816666666666666430e+00,1.644605421473913908e+09,0.000000000000000000e+00,0.000000000000000000e+00,0.000000000000000000e+00,0.000000000000000000e+00
2.833333333333333481e+00,1.644605421490466595e+09,0.000000000000000000e+00,0.000000000000000000e+00,0.000000000000000000e+00,0.000000000000000000e+00
2.850000000000000089e+00,1.644605421506418943e+09,0.000000000000000000e+00,0.000000000000000000e+00,0.000000000000000000e+00,0.000000000000000000e+00
2.866666666666666696e+00,1.644605421524502754e+09,0.000000000000000000e+00,0.000000000000000000e+00,0.000000000000000000e+00,0.000000000000000000e+00
2.883333333333333304e+00,1.644605421543671131e+09,0.000000000000000000e+00,0.000000000000000000e+00,0.000000000000000000e+00,0.000000000000000000e+00
2.899999999999999911e+00,1.644605421558660507e+09,0.000000000000000000e+00,6.594203280202707296e-01,0.000000000000000000e+00,6.594203280202707296e-01
2.916666666666666519e+00,1.644605421575612545e+09,0.000000000000000000e+00,5.447168528643490104e-01,0.000000000000000000e+00,5.447168528643490104e-01
2.933333333333333126e+00,1.644605421592569828e+09,0.000000000000000000e+00,6.517734296765425039e-01,0.000000000000000000e+00,6.517734296765425039e-01
2.950000000000000178e+00,1.644605421609080791e+09,0.000000000000000000e+00,6.288327346453581601e-01,0.000000000000000000e+00,6.288327346453581601e-01
2.966666666666666785e+00,1.644605421626084566e+09,0.000000000000000000e+00,0.000000000000000000e+00,0.000000000000000000e+00,0.000000000000000000e+00
2.983333333333333393e+00,1.644605421644416571e+09,0.000000000000000000e+00,0.000000000000000000e+00,0.000000000000000000e+00,0.000000000000000000e+00
3.000000000000000000e+00,1.644605421661350489e+09,0.000000000000000000e+00,0.000000000000000000e+00,0.000000000000000000e+00,0.000000000000000000e+00
