# 
# 
# 
# 
# 
# 
# 
# 
# 
# 
# time,realtime,ref,inp,dis,state...
0.000000000000000000e+00,1.684346545272918701e+09,0.000000000000000000e+00,-7.357236071122229548e-01,0.000000000000000000e+00,-6.386654433913415696e-01
1.666666666666666644e-02,1.684346545275938272e+09,0.000000000000000000e+00,-6.386654433913415696e-01,0.000000000000000000e+00,-6.386654433913415696e-01
3.333333333333333287e-02,1.684346545276942253e+09,0.000000000000000000e+00,-7.114590661820028306e-01,0.000000000000000000e+00,-7.114590661820028306e-01
5.000000000000000278e-02,1.684346545296919346e+09,0.000000000000000000e+00,-3.349196410368071586e-01,0.000000000000000000e+00,-3.349196410368071586e-01
6.666666666666666574e-02,1.684346545314917088e+09,0.000000000000000000e+00,-3.349196410368071586e-01,0.000000000000000000e+00,-3.349196410368071586e-01
8.333333333333332871e-02,1.684346545329937696e+09,0.000000000000000000e+00,-3.349196410368071586e-01,0.000000000000000000e+00,-3.349196410368071586e-01
1.000000000000000056e-01,1.684346545346917152e+09,0.000000000000000000e+00,-3.349196410368071586e-01,0.000000000000000000e+00,-3.349196410368071586e-01
1.166666666666666685e-01,1.684346545363918781e+09,0.000000000000000000e+00,-3.349196410368071586e-01,0.000000000000000000e+00,-3.349196410368071586e-01
1.333333333333333315e-01,1.684346545382893801e+09,0.000000000000000000e+00,-3.509445042443096185e-01,0.000000000000000000e+00,-3.509445042443096185e-01
1.499999999999999944e-01,1.684346545400917768e+09,0.000000000000000000e+00,-3.669693674518120785e-01,0.000000000000000000e+00,-3.669693674518120785e-01
1.666666666666666574e-01,1.684346545418903112e+09,0.000000000000000000e+00,-3.990190938668175535e-01,0.000000000000000000e+00,-3.990190938668175535e-01
1.833333333333333204e-01,1.684346545436939955e+09,0.000000000000000000e+00,-4.791434099043316297e-01,0.000000000000000000e+00,-4.791434099043316297e-01
2.000000000000000111e-01,1.684346545452944756e+09,0.000000000000000000e+00,-5.592677259418450397e-01,0.000000000000000000e+00,-5.592677259418450397e-01
2.166666666666666741e-01,1.684346545469939709e+09,0.000000000000000000e+00,-6.233671787718561008e-01,0.000000000000000000e+00,-6.233671787718561008e-01
2.333333333333333370e-01,1.684346545490918398e+09,0.000000000000000000e+00,-6.233671787718561008e-01,0.000000000000000000e+00,-6.233671787718561008e-01
2.500000000000000000e-01,1.684346545505892038e+09,0.000000000000000000e+00,-6.233671787718561008e-01,0.000000000000000000e+00,-6.233671787718561008e-01
2.666666666666666630e-01,1.684346545523940086e+09,0.000000000000000000e+00,-6.233671787718561008e-01,0.000000000000000000e+00,-6.233671787718561008e-01
2.833333333333333259e-01,1.684346545540951729e+09,0.000000000000000000e+00,-6.233671787718561008e-01,0.000000000000000000e+00,-6.233671787718561008e-01
2.999999999999999889e-01,1.684346545558941364e+09,0.000000000000000000e+00,-6.233671787718561008e-01,0.000000000000000000e+00,-6.233671787718561008e-01
3.166666666666666519e-01,1.684346545575938702e+09,0.000000000000000000e+00,-6.233671787718561008e-01,0.000000000000000000e+00,-6.233671787718561008e-01
3.333333333333333148e-01,1.684346545590940952e+09,0.000000000000000000e+00,-6.233671787718561008e-01,0.000000000000000000e+00,-6.233671787718561008e-01
3.499999999999999778e-01,1.684346545608950377e+09,0.000000000000000000e+00,-6.233671787718561008e-01,0.000000000000000000e+00,-6.233671787718561008e-01
3.666666666666666408e-01,1.684346545627939939e+09,0.000000000000000000e+00,-6.233671787718561008e-01,0.000000000000000000e+00,-6.233671787718561008e-01
3.833333333333333037e-01,1.684346545644949675e+09,0.000000000000000000e+00,-6.233671787718561008e-01,0.000000000000000000e+00,-6.233671787718561008e-01
4.000000000000000222e-01,1.684346545661917686e+09,0.000000000000000000e+00,-6.233671787718561008e-01,0.000000000000000000e+00,-6.233671787718561008e-01
4.166666666666666852e-01,1.684346545677949190e+09,0.000000000000000000e+00,-6.233671787718561008e-01,0.000000000000000000e+00,-6.233671787718561008e-01
4.333333333333333481e-01,1.684346545696939230e+09,0.000000000000000000e+00,-9.149807106612792840e-01,0.000000000000000000e+00,-9.149807106612792840e-01
4.500000000000000111e-01,1.684346545711954355e+09,0.000000000000000000e+00,-8.807574417561118141e-01,0.000000000000000000e+00,-8.807574417561118141e-01
4.666666666666666741e-01,1.684346545730940342e+09,0.000000000000000000e+00,-6.073423155643535853e-01,0.000000000000000000e+00,-6.073423155643535853e-01
4.833333333333333370e-01,1.684346545746940136e+09,0.000000000000000000e+00,-8.647325785486087435e-01,0.000000000000000000e+00,-8.647325785486087435e-01
5.000000000000000000e-01,1.684346545763943434e+09,0.000000000000000000e+00,-9.093690676666574824e-01,0.000000000000000000e+00,-9.093690676666574824e-01
5.166666666666666075e-01,1.684346545780915976e+09,0.000000000000000000e+00,-8.309638018813740867e-01,0.000000000000000000e+00,-8.309638018813740867e-01
5.333333333333333259e-01,1.684346545799918890e+09,0.000000000000000000e+00,-7.690378915415255756e-01,0.000000000000000000e+00,-7.690378915415255756e-01
5.500000000000000444e-01,1.684346545816918373e+09,0.000000000000000000e+00,-3.669693674518120785e-01,0.000000000000000000e+00,-3.669693674518120785e-01
5.666666666666666519e-01,1.684346545833923817e+09,0.000000000000000000e+00,-2.868450514142986130e-01,0.000000000000000000e+00,-2.868450514142986130e-01
5.833333333333333703e-01,1.684346545852941513e+09,0.000000000000000000e+00,-2.067207353767851752e-01,0.000000000000000000e+00,-2.067207353767851752e-01
5.999999999999999778e-01,1.684346545868917704e+09,0.000000000000000000e+00,-1.426212825467741974e-01,0.000000000000000000e+00,-1.426212825467741974e-01
6.166666666666666963e-01,1.684346545887916088e+09,0.000000000000000000e+00,-6.249696650926014896e-02,0.000000000000000000e+00,-6.249696650926014896e-02
6.333333333333333037e-01,1.684346545906939030e+09,0.000000000000000000e+00,-3.044724009425465311e-02,0.000000000000000000e+00,-3.044724009425465311e-02
6.500000000000000222e-01,1.684346545923943758e+09,0.000000000000000000e+00,-1.442237688675220356e-02,0.000000000000000000e+00,-1.442237688675220356e-02
6.666666666666666297e-01,1.684346545939891577e+09,0.000000000000000000e+00,1.602486320750845994e-03,0.000000000000000000e+00,1.602486320750845994e-03
6.833333333333333481e-01,1.684346545959919214e+09,0.000000000000000000e+00,-1.442237688675220356e-02,0.000000000000000000e+00,-1.442237688675220356e-02
6.999999999999999556e-01,1.684346545973891497e+09,0.000000000000000000e+00,-1.442237688675220356e-02,0.000000000000000000e+00,-1.442237688675220356e-02
7.166666666666666741e-01,1.684346545991919041e+09,0.000000000000000000e+00,-1.442237688675220356e-02,0.000000000000000000e+00,-1.442237688675220356e-02
7.333333333333332815e-01,1.684346546009941101e+09,0.000000000000000000e+00,-1.442237688675220356e-02,0.000000000000000000e+00,-1.442237688675220356e-02
7.500000000000000000e-01,1.684346546024922132e+09,0.000000000000000000e+00,-1.442237688675220356e-02,0.000000000000000000e+00,-1.442237688675220356e-02
7.666666666666666075e-01,1.684346546043917179e+09,0.000000000000000000e+00,-1.442237688675220356e-02,0.000000000000000000e+00,-1.442237688675220356e-02
7.833333333333333259e-01,1.684346546062939167e+09,0.000000000000000000e+00,-1.442237688675220356e-02,0.000000000000000000e+00,-1.442237688675220356e-02
8.000000000000000444e-01,1.684346546079891920e+09,0.000000000000000000e+00,1.602486320750845994e-03,0.000000000000000000e+00,1.602486320750845994e-03
8.166666666666666519e-01,1.684346546096940279e+09,0.000000000000000000e+00,-1.442237688675220356e-02,0.000000000000000000e+00,-1.442237688675220356e-02
8.333333333333333703e-01,1.684346546115939617e+09,0.000000000000000000e+00,-1.442237688675220356e-02,0.000000000000000000e+00,-1.442237688675220356e-02
8.499999999999999778e-01,1.684346546133939505e+09,0.000000000000000000e+00,-1.442237688675220356e-02,0.000000000000000000e+00,-1.442237688675220356e-02
8.666666666666666963e-01,1.684346546149939537e+09,0.000000000000000000e+00,1.602486320750845994e-03,0.000000000000000000e+00,1.602486320750845994e-03
8.833333333333333037e-01,1.684346546168940544e+09,0.000000000000000000e+00,-1.442237688675220356e-02,0.000000000000000000e+00,-1.442237688675220356e-02
9.000000000000000222e-01,1.684346546184943438e+09,0.000000000000000000e+00,1.602486320750845994e-03,0.000000000000000000e+00,1.602486320750845994e-03
9.166666666666666297e-01,1.684346546200916767e+09,0.000000000000000000e+00,-1.442237688675220356e-02,0.000000000000000000e+00,-1.442237688675220356e-02
9.333333333333333481e-01,1.684346546219917774e+09,0.000000000000000000e+00,1.602486320750845994e-03,0.000000000000000000e+00,1.602486320750845994e-03
9.499999999999999556e-01,1.684346546238894463e+09,0.000000000000000000e+00,1.602486320750845994e-03,0.000000000000000000e+00,1.602486320750845994e-03
9.666666666666666741e-01,1.684346546256940126e+09,0.000000000000000000e+00,-1.442237688675220356e-02,0.000000000000000000e+00,-1.442237688675220356e-02
9.833333333333332815e-01,1.684346546273890972e+09,0.000000000000000000e+00,-1.442237688675220356e-02,0.000000000000000000e+00,-1.442237688675220356e-02
1.000000000000000000e+00,1.684346546291918993e+09,0.000000000000000000e+00,-1.442237688675220356e-02,0.000000000000000000e+00,-1.442237688675220356e-02
1.016666666666666607e+00,1.684346546308894873e+09,0.000000000000000000e+00,-1.442237688675220356e-02,0.000000000000000000e+00,-1.442237688675220356e-02
1.033333333333333215e+00,1.684346546327929020e+09,0.000000000000000000e+00,-1.442237688675220356e-02,0.000000000000000000e+00,-1.442237688675220356e-02
1.050000000000000044e+00,1.684346546343919992e+09,0.000000000000000000e+00,-1.442237688675220356e-02,0.000000000000000000e+00,-1.442237688675220356e-02
1.066666666666666652e+00,1.684346546361916304e+09,0.000000000000000000e+00,-1.442237688675220356e-02,0.000000000000000000e+00,-1.442237688675220356e-02
1.083333333333333259e+00,1.684346546378941059e+09,0.000000000000000000e+00,-1.442237688675220356e-02,0.000000000000000000e+00,-1.442237688675220356e-02
1.100000000000000089e+00,1.684346546396920204e+09,0.000000000000000000e+00,1.602486320750845994e-03,0.000000000000000000e+00,1.602486320750845994e-03
1.116666666666666696e+00,1.684346546414938211e+09,0.000000000000000000e+00,1.602486320750845994e-03,0.000000000000000000e+00,1.602486320750845994e-03
1.133333333333333304e+00,1.684346546431941986e+09,0.000000000000000000e+00,-1.442237688675220356e-02,0.000000000000000000e+00,-1.442237688675220356e-02
1.149999999999999911e+00,1.684346546447916746e+09,0.000000000000000000e+00,1.602486320750845994e-03,0.000000000000000000e+00,1.602486320750845994e-03
1.166666666666666741e+00,1.684346546465917349e+09,0.000000000000000000e+00,-1.442237688675220356e-02,0.000000000000000000e+00,-1.442237688675220356e-02
1.183333333333333348e+00,1.684346546485892296e+09,0.000000000000000000e+00,1.602486320750845994e-03,0.000000000000000000e+00,1.602486320750845994e-03
1.199999999999999956e+00,1.684346546502940178e+09,0.000000000000000000e+00,1.602486320750845994e-03,0.000000000000000000e+00,1.602486320750845994e-03
1.216666666666666563e+00,1.684346546517918110e+09,0.000000000000000000e+00,-1.442237688675220356e-02,0.000000000000000000e+00,-1.442237688675220356e-02
1.233333333333333393e+00,1.684346546537940025e+09,0.000000000000000000e+00,-1.442237688675220356e-02,0.000000000000000000e+00,-1.442237688675220356e-02
1.250000000000000000e+00,1.684346546553939819e+09,0.000000000000000000e+00,-1.442237688675220356e-02,0.000000000000000000e+00,-1.442237688675220356e-02
1.266666666666666607e+00,1.684346546569917202e+09,0.000000000000000000e+00,-1.442237688675220356e-02,0.000000000000000000e+00,-1.442237688675220356e-02
1.283333333333333215e+00,1.684346546586920023e+09,0.000000000000000000e+00,-1.442237688675220356e-02,0.000000000000000000e+00,-1.442237688675220356e-02
1.300000000000000044e+00,1.684346546604918718e+09,0.000000000000000000e+00,-1.442237688675220356e-02,0.000000000000000000e+00,-1.442237688675220356e-02
1.316666666666666652e+00,1.684346546624939919e+09,0.000000000000000000e+00,1.602486320750845994e-03,0.000000000000000000e+00,1.602486320750845994e-03
1.333333333333333259e+00,1.684346546640941143e+09,0.000000000000000000e+00,-1.442237688675220356e-02,0.000000000000000000e+00,-1.442237688675220356e-02
1.350000000000000089e+00,1.684346546656916857e+09,0.000000000000000000e+00,-1.442237688675220356e-02,0.000000000000000000e+00,-1.442237688675220356e-02
1.366666666666666696e+00,1.684346546675918102e+09,0.000000000000000000e+00,1.602486320750845994e-03,0.000000000000000000e+00,1.602486320750845994e-03
1.383333333333333304e+00,1.684346546692918301e+09,0.000000000000000000e+00,-1.442237688675220356e-02,0.000000000000000000e+00,-1.442237688675220356e-02
1.399999999999999911e+00,1.684346546709918499e+09,0.000000000000000000e+00,1.602486320750845994e-03,0.000000000000000000e+00,1.602486320750845994e-03
1.416666666666666741e+00,1.684346546725940943e+09,0.000000000000000000e+00,1.602486320750845994e-03,0.000000000000000000e+00,1.602486320750845994e-03
1.433333333333333348e+00,1.684346546745918512e+09,0.000000000000000000e+00,1.602486320750845994e-03,0.000000000000000000e+00,1.602486320750845994e-03
1.449999999999999956e+00,1.684346546762939215e+09,0.000000000000000000e+00,1.602486320750845994e-03,0.000000000000000000e+00,1.602486320750845994e-03
1.466666666666666563e+00,1.684346546780939579e+09,0.000000000000000000e+00,1.602486320750845994e-03,0.000000000000000000e+00,1.602486320750845994e-03
1.483333333333333393e+00,1.684346546798940897e+09,0.000000000000000000e+00,1.602486320750845994e-03,0.000000000000000000e+00,1.602486320750845994e-03
1.500000000000000000e+00,1.684346546816939831e+09,0.000000000000000000e+00,1.602486320750845994e-03,0.000000000000000000e+00,1.602486320750845994e-03
1.516666666666666607e+00,1.684346546831943035e+09,0.000000000000000000e+00,1.602486320750845994e-03,0.000000000000000000e+00,1.602486320750845994e-03
1.533333333333333215e+00,1.684346546849942684e+09,0.000000000000000000e+00,-1.442237688675220356e-02,0.000000000000000000e+00,-1.442237688675220356e-02
