# 
# 
# 
# 
# 
# 
# 
# 
# 
# 
# time,realtime,ref,inp,dis,state...
0.000000000000000000e+00,1.684973878990210533e+09,0.000000000000000000e+00,4.390696200563081741e-01,0.000000000000000000e+00,9.150196891484072559e-01
1.666666666666666644e-02,1.684973878995211363e+09,0.000000000000000000e+00,9.150196891484072559e-01,-5.997465898830154352e-01,9.150196891484072559e-01
3.333333333333333287e-02,1.684973878997210503e+09,0.000000000000000000e+00,4.017165355038280206e-01,0.000000000000000000e+00,4.017165355038280206e-01
5.000000000000000278e-02,1.684973879015209675e+09,0.000000000000000000e+00,3.163380565267307487e-01,0.000000000000000000e+00,3.163380565267307487e-01
6.666666666666666574e-02,1.684973879032211542e+09,0.000000000000000000e+00,2.523041972939083499e-01,0.000000000000000000e+00,2.523041972939083499e-01
8.333333333333332871e-02,1.684973879049331427e+09,0.000000000000000000e+00,3.323465213349361957e-01,0.000000000000000000e+00,3.323465213349361957e-01
1.000000000000000056e-01,1.684973879064211130e+09,0.000000000000000000e+00,3.643634509513478670e-01,0.000000000000000000e+00,3.643634509513478670e-01
1.166666666666666685e-01,1.684973879084243536e+09,0.000000000000000000e+00,3.590272960152794401e-01,0.000000000000000000e+00,3.590272960152794401e-01
1.333333333333333315e-01,1.684973879098211765e+09,0.000000000000000000e+00,5.724734934580225643e-01,0.000000000000000000e+00,5.724734934580225643e-01
1.499999999999999944e-01,1.684973879118218184e+09,0.000000000000000000e+00,5.564650286498162846e-01,0.000000000000000000e+00,5.564650286498162846e-01
1.666666666666666574e-01,1.684973879132210255e+09,0.000000000000000000e+00,9.310445523559096603e-01,0.000000000000000000e+00,9.310445523559096603e-01
1.833333333333333204e-01,1.684973879150211096e+09,0.000000000000000000e+00,9.150196891484072559e-01,0.000000000000000000e+00,9.150196891484072559e-01
2.000000000000000111e-01,1.684973879168211460e+09,0.000000000000000000e+00,9.150196891484072559e-01,0.000000000000000000e+00,9.150196891484072559e-01
2.166666666666666741e-01,1.684973879186243296e+09,0.000000000000000000e+00,9.150196891484072559e-01,0.000000000000000000e+00,9.150196891484072559e-01
2.333333333333333370e-01,1.684973879201210737e+09,0.000000000000000000e+00,9.150196891484072559e-01,0.000000000000000000e+00,9.150196891484072559e-01
2.500000000000000000e-01,1.684973879219210863e+09,0.000000000000000000e+00,9.150196891484072559e-01,0.000000000000000000e+00,9.150196891484072559e-01
2.666666666666666630e-01,1.684973879236244202e+09,0.000000000000000000e+00,9.150196891484072559e-01,0.000000000000000000e+00,9.150196891484072559e-01
2.833333333333333259e-01,1.684973879253214359e+09,0.000000000000000000e+00,9.150196891484072559e-01,0.000000000000000000e+00,9.150196891484072559e-01
2.999999999999999889e-01,1.684973879269243002e+09,0.000000000000000000e+00,9.150196891484072559e-01,0.000000000000000000e+00,9.150196891484072559e-01
3.166666666666666519e-01,1.684973879288244009e+09,0.000000000000000000e+00,9.150196891484072559e-01,0.000000000000000000e+00,9.150196891484072559e-01
3.333333333333333148e-01,1.684973879303210497e+09,0.000000000000000000e+00,9.150196891484072559e-01,0.000000000000000000e+00,9.150196891484072559e-01
3.499999999999999778e-01,1.684973879322263002e+09,0.000000000000000000e+00,6.044904230744332363e-01,0.000000000000000000e+00,6.044904230744332363e-01
3.666666666666666408e-01,1.684973879340210915e+09,0.000000000000000000e+00,5.351204089055423552e-01,0.000000000000000000e+00,5.351204089055423552e-01
3.833333333333333037e-01,1.684973879356211185e+09,0.000000000000000000e+00,5.297842539694739283e-01,0.000000000000000000e+00,5.297842539694739283e-01
4.000000000000000222e-01,1.684973879373211145e+09,0.000000000000000000e+00,5.351204089055423552e-01,0.000000000000000000e+00,5.351204089055423552e-01
4.166666666666666852e-01,1.684973879390241861e+09,0.000000000000000000e+00,5.351204089055423552e-01,0.000000000000000000e+00,5.351204089055423552e-01
4.333333333333333481e-01,1.684973879406212568e+09,0.000000000000000000e+00,6.418435076269135564e-01,0.000000000000000000e+00,6.418435076269135564e-01
4.500000000000000111e-01,1.684973879423207760e+09,0.000000000000000000e+00,6.258350428187080539e-01,0.000000000000000000e+00,6.258350428187080539e-01
4.666666666666666741e-01,1.684973879440210819e+09,0.000000000000000000e+00,9.150196891484072559e-01,0.000000000000000000e+00,9.150196891484072559e-01
4.833333333333333370e-01,1.684973879457206488e+09,0.000000000000000000e+00,9.150196891484072559e-01,0.000000000000000000e+00,9.150196891484072559e-01
5.000000000000000000e-01,1.684973879475210905e+09,0.000000000000000000e+00,9.150196891484072559e-01,0.000000000000000000e+00,9.150196891484072559e-01
5.166666666666666075e-01,1.684973879491210699e+09,0.000000000000000000e+00,9.150196891484072559e-01,0.000000000000000000e+00,9.150196891484072559e-01
5.333333333333333259e-01,1.684973879508210897e+09,0.000000000000000000e+00,9.150196891484072559e-01,0.000000000000000000e+00,9.150196891484072559e-01
5.500000000000000444e-01,1.684973879526210785e+09,0.000000000000000000e+00,9.150196891484072559e-01,0.000000000000000000e+00,9.150196891484072559e-01
5.666666666666666519e-01,1.684973879542207718e+09,0.000000000000000000e+00,9.150196891484072559e-01,0.000000000000000000e+00,9.150196891484072559e-01
5.833333333333333703e-01,1.684973879560210705e+09,0.000000000000000000e+00,9.150196891484072559e-01,0.000000000000000000e+00,9.150196891484072559e-01
5.999999999999999778e-01,1.684973879576206684e+09,0.000000000000000000e+00,9.150196891484072559e-01,0.000000000000000000e+00,9.150196891484072559e-01
6.166666666666666963e-01,1.684973879593210697e+09,0.000000000000000000e+00,9.150196891484072559e-01,0.000000000000000000e+00,9.150196891484072559e-01
6.333333333333333037e-01,1.684973879610210657e+09,0.000000000000000000e+00,9.150196891484072559e-01,0.000000000000000000e+00,9.150196891484072559e-01
6.500000000000000222e-01,1.684973879629206896e+09,0.000000000000000000e+00,5.938181132022963826e-01,0.000000000000000000e+00,5.938181132022963826e-01
6.666666666666666297e-01,1.684973879645210505e+09,0.000000000000000000e+00,9.150196891484072559e-01,0.000000000000000000e+00,9.150196891484072559e-01
6.833333333333333481e-01,1.684973879661210775e+09,0.000000000000000000e+00,5.884819582662279558e-01,0.000000000000000000e+00,5.884819582662279558e-01
6.999999999999999556e-01,1.684973879678210497e+09,0.000000000000000000e+00,6.098265780105026623e-01,0.000000000000000000e+00,6.098265780105026623e-01
7.166666666666666741e-01,1.684973879695210457e+09,0.000000000000000000e+00,5.671373385219541374e-01,0.000000000000000000e+00,5.671373385219541374e-01
7.333333333333332815e-01,1.684973879713210106e+09,0.000000000000000000e+00,6.044904230744332363e-01,0.000000000000000000e+00,6.044904230744332363e-01
7.500000000000000000e-01,1.684973879731226444e+09,0.000000000000000000e+00,6.258350428187080539e-01,0.000000000000000000e+00,6.258350428187080539e-01
7.666666666666666075e-01,1.684973879747217417e+09,0.000000000000000000e+00,6.204988878826396270e-01,0.000000000000000000e+00,6.204988878826396270e-01
7.833333333333333259e-01,1.684973879763210535e+09,0.000000000000000000e+00,9.150196891484072559e-01,0.000000000000000000e+00,9.150196891484072559e-01
8.000000000000000444e-01,1.684973879782210588e+09,0.000000000000000000e+00,8.829699627334011147e-01,0.000000000000000000e+00,8.829699627334011147e-01
8.166666666666666519e-01,1.684973879796208382e+09,0.000000000000000000e+00,8.509202363183961948e-01,0.000000000000000000e+00,8.509202363183961948e-01
8.333333333333333703e-01,1.684973879815207481e+09,0.000000000000000000e+00,7.868207834883852447e-01,0.000000000000000000e+00,7.868207834883852447e-01
8.499999999999999778e-01,1.684973879831209898e+09,0.000000000000000000e+00,7.066964674508705579e-01,0.000000000000000000e+00,7.066964674508705579e-01
8.666666666666666963e-01,1.684973879850221395e+09,0.000000000000000000e+00,6.586218778283632336e-01,0.000000000000000000e+00,6.586218778283632336e-01
8.833333333333333037e-01,1.684973879866210699e+09,0.000000000000000000e+00,6.265721514133570924e-01,0.000000000000000000e+00,6.265721514133570924e-01
9.000000000000000222e-01,1.684973879883210897e+09,0.000000000000000000e+00,5.784975617908497680e-01,0.000000000000000000e+00,5.784975617908497680e-01
9.166666666666666297e-01,1.684973879899243593e+09,0.000000000000000000e+00,5.464478353758437379e-01,0.000000000000000000e+00,5.464478353758437379e-01
9.333333333333333481e-01,1.684973879917245865e+09,0.000000000000000000e+00,5.143981089608388180e-01,0.000000000000000000e+00,5.143981089608388180e-01
9.499999999999999556e-01,1.684973879933210135e+09,0.000000000000000000e+00,4.983732457533351368e-01,0.000000000000000000e+00,4.983732457533351368e-01
9.666666666666666741e-01,1.684973879951210737e+09,0.000000000000000000e+00,4.663235193383302724e-01,0.000000000000000000e+00,4.663235193383302724e-01
9.833333333333332815e-01,1.684973879968216896e+09,0.000000000000000000e+00,4.182489297158217267e-01,0.000000000000000000e+00,4.182489297158217267e-01
1.000000000000000000e+00,1.684973879987210751e+09,0.000000000000000000e+00,3.541494768858107212e-01,0.000000000000000000e+00,3.541494768858107212e-01
1.016666666666666607e+00,1.684973880004209995e+09,0.000000000000000000e+00,3.220997504708058012e-01,0.000000000000000000e+00,3.220997504708058012e-01
1.033333333333333215e+00,1.684973880018253803e+09,0.000000000000000000e+00,2.740251608482972556e-01,0.000000000000000000e+00,2.740251608482972556e-01
1.050000000000000044e+00,1.684973880035211086e+09,0.000000000000000000e+00,2.259505712257887378e-01,0.000000000000000000e+00,2.259505712257887378e-01
1.066666666666666652e+00,1.684973880052243233e+09,0.000000000000000000e+00,1.939008448107838178e-01,0.000000000000000000e+00,1.939008448107838178e-01
1.083333333333333259e+00,1.684973880070211411e+09,0.000000000000000000e+00,1.458262551882752722e-01,0.000000000000000000e+00,1.458262551882752722e-01
1.100000000000000089e+00,1.684973880087208748e+09,0.000000000000000000e+00,1.137765287732703939e-01,0.000000000000000000e+00,1.137765287732703939e-01
1.116666666666666696e+00,1.684973880103211403e+09,0.000000000000000000e+00,8.172680235826429440e-02,0.000000000000000000e+00,8.172680235826429440e-02
1.133333333333333304e+00,1.684973880120210886e+09,0.000000000000000000e+00,4.967707594325939530e-02,0.000000000000000000e+00,4.967707594325939530e-02
1.149999999999999911e+00,1.684973880138211012e+09,0.000000000000000000e+00,1.762734952825329576e-02,0.000000000000000000e+00,1.762734952825329576e-02
1.166666666666666741e+00,1.684973880154210806e+09,0.000000000000000000e+00,-1.442237688675220356e-02,0.000000000000000000e+00,-1.442237688675220356e-02
1.183333333333333348e+00,1.684973880171211720e+09,0.000000000000000000e+00,-3.044724009425465311e-02,0.000000000000000000e+00,-3.044724009425465311e-02
1.199999999999999956e+00,1.684973880188210726e+09,0.000000000000000000e+00,-4.647210330175770288e-02,0.000000000000000000e+00,-4.647210330175770288e-02
1.216666666666666563e+00,1.684973880206242085e+09,0.000000000000000000e+00,-6.249696650926014896e-02,0.000000000000000000e+00,-6.249696650926014896e-02
1.233333333333333393e+00,1.684973880223210812e+09,0.000000000000000000e+00,-7.852182971676319179e-02,0.000000000000000000e+00,-7.852182971676319179e-02
1.250000000000000000e+00,1.684973880240207911e+09,0.000000000000000000e+00,-7.852182971676319179e-02,0.000000000000000000e+00,-7.852182971676319179e-02
1.266666666666666607e+00,1.684973880257251024e+09,0.000000000000000000e+00,-7.852182971676319179e-02,0.000000000000000000e+00,-7.852182971676319179e-02
1.283333333333333215e+00,1.684973880275243759e+09,0.000000000000000000e+00,-7.852182971676319179e-02,0.000000000000000000e+00,-7.852182971676319179e-02
1.300000000000000044e+00,1.684973880291219473e+09,0.000000000000000000e+00,-7.852182971676319179e-02,0.000000000000000000e+00,-7.852182971676319179e-02
1.316666666666666652e+00,1.684973880308208466e+09,0.000000000000000000e+00,-7.852182971676319179e-02,0.000000000000000000e+00,-7.852182971676319179e-02
1.333333333333333259e+00,1.684973880325207710e+09,0.000000000000000000e+00,-7.852182971676319179e-02,0.000000000000000000e+00,-7.852182971676319179e-02
1.350000000000000089e+00,1.684973880342210293e+09,0.000000000000000000e+00,-7.852182971676319179e-02,0.000000000000000000e+00,-7.852182971676319179e-02
1.366666666666666696e+00,1.684973880361210823e+09,0.000000000000000000e+00,-7.852182971676319179e-02,0.000000000000000000e+00,-7.852182971676319179e-02
1.383333333333333304e+00,1.684973880377210617e+09,0.000000000000000000e+00,-7.852182971676319179e-02,0.000000000000000000e+00,-7.852182971676319179e-02
1.399999999999999911e+00,1.684973880394246101e+09,0.000000000000000000e+00,-7.852182971676319179e-02,0.000000000000000000e+00,-7.852182971676319179e-02
1.416666666666666741e+00,1.684973880410241604e+09,0.000000000000000000e+00,-7.852182971676319179e-02,0.000000000000000000e+00,-7.852182971676319179e-02
1.433333333333333348e+00,1.684973880428210974e+09,0.000000000000000000e+00,-7.852182971676319179e-02,0.000000000000000000e+00,-7.852182971676319179e-02
1.449999999999999956e+00,1.684973880445210695e+09,0.000000000000000000e+00,-7.852182971676319179e-02,0.000000000000000000e+00,-7.852182971676319179e-02
1.466666666666666563e+00,1.684973880462210894e+09,0.000000000000000000e+00,-7.852182971676319179e-02,0.000000000000000000e+00,-7.852182971676319179e-02
1.483333333333333393e+00,1.684973880481208324e+09,0.000000000000000000e+00,-7.852182971676319179e-02,0.000000000000000000e+00,-7.852182971676319179e-02
1.500000000000000000e+00,1.684973880497208357e+09,0.000000000000000000e+00,-7.852182971676319179e-02,0.000000000000000000e+00,-7.852182971676319179e-02
1.516666666666666607e+00,1.684973880513210535e+09,0.000000000000000000e+00,-7.852182971676319179e-02,0.000000000000000000e+00,-7.852182971676319179e-02
1.533333333333333215e+00,1.684973880529255629e+09,0.000000000000000000e+00,-4.647210330175770288e-02,0.000000000000000000e+00,-4.647210330175770288e-02
1.550000000000000044e+00,1.684973880547215462e+09,0.000000000000000000e+00,-1.442237688675220356e-02,0.000000000000000000e+00,-1.442237688675220356e-02
1.566666666666666652e+00,1.684973880565210581e+09,0.000000000000000000e+00,4.967707594325939530e-02,0.000000000000000000e+00,4.967707594325939530e-02
1.583333333333333259e+00,1.684973880582210779e+09,0.000000000000000000e+00,8.172680235826429440e-02,0.000000000000000000e+00,8.172680235826429440e-02
1.600000000000000089e+00,1.684973880599210739e+09,0.000000000000000000e+00,1.458262551882752722e-01,0.000000000000000000e+00,1.458262551882752722e-01
1.616666666666666696e+00,1.684973880616210699e+09,0.000000000000000000e+00,2.259505712257887378e-01,0.000000000000000000e+00,2.259505712257887378e-01
1.633333333333333304e+00,1.684973880632210493e+09,0.000000000000000000e+00,2.900500240557997156e-01,0.000000000000000000e+00,2.900500240557997156e-01
1.649999999999999911e+00,1.684973880649210453e+09,0.000000000000000000e+00,3.701743400933131811e-01,0.000000000000000000e+00,3.701743400933131811e-01
1.666666666666666741e+00,1.684973880666210651e+09,0.000000000000000000e+00,4.342737929233241867e-01,0.000000000000000000e+00,4.342737929233241867e-01
1.683333333333333348e+00,1.684973880683210850e+09,0.000000000000000000e+00,4.983732457533351368e-01,0.000000000000000000e+00,4.983732457533351368e-01
1.699999999999999956e+00,1.684973880701215982e+09,0.000000000000000000e+00,2.732716538543499274e-01,0.000000000000000000e+00,2.732716538543499274e-01
1.716666666666666563e+00,1.684973880717210531e+09,0.000000000000000000e+00,1.345644223151615526e-01,0.000000000000000000e+00,1.345644223151615526e-01
1.733333333333333393e+00,1.684973880733210564e+09,0.000000000000000000e+00,2.893293138604477455e-01,0.000000000000000000e+00,2.893293138604477455e-01
1.750000000000000000e+00,1.684973880752210140e+09,0.000000000000000000e+00,2.786734023876069610e-01,0.000000000000000000e+00,2.786734023876069610e-01
1.766666666666666607e+00,1.684973880769210100e+09,0.000000000000000000e+00,3.213790402754526654e-01,0.000000000000000000e+00,3.213790402754526654e-01
1.783333333333333215e+00,1.684973880788209915e+09,0.000000000000000000e+00,6.265721514133570924e-01,0.000000000000000000e+00,6.265721514133570924e-01
1.800000000000000044e+00,1.684973880803210258e+09,0.000000000000000000e+00,6.265721514133570924e-01,0.000000000000000000e+00,6.265721514133570924e-01
1.816666666666666652e+00,1.684973880820210218e+09,0.000000000000000000e+00,6.265721514133570924e-01,0.000000000000000000e+00,6.265721514133570924e-01
1.833333333333333259e+00,1.684973880840210199e+09,0.000000000000000000e+00,6.265721514133570924e-01,0.000000000000000000e+00,6.265721514133570924e-01
1.849999999999999867e+00,1.684973880856209993e+09,0.000000000000000000e+00,6.105472882058546880e-01,0.000000000000000000e+00,6.105472882058546880e-01
1.866666666666666696e+00,1.684973880873207331e+09,0.000000000000000000e+00,3.320349517482925061e-01,0.000000000000000000e+00,3.320349517482925061e-01
1.883333333333333304e+00,1.684973880890208244e+09,0.000000000000000000e+00,5.945224249983522835e-01,0.000000000000000000e+00,5.945224249983522835e-01
1.899999999999999911e+00,1.684973880906208038e+09,0.000000000000000000e+00,5.784975617908497680e-01,0.000000000000000000e+00,5.784975617908497680e-01
1.916666666666666741e+00,1.684973880923209190e+09,0.000000000000000000e+00,5.304229721683412224e-01,0.000000000000000000e+00,5.304229721683412224e-01
1.933333333333333348e+00,1.684973880939208269e+09,0.000000000000000000e+00,4.823483825458327323e-01,0.000000000000000000e+00,4.823483825458327323e-01
1.949999999999999956e+00,1.684973880957210064e+09,0.000000000000000000e+00,4.182489297158217267e-01,0.000000000000000000e+00,4.182489297158217267e-01
1.966666666666666563e+00,1.684973880973209381e+09,0.000000000000000000e+00,3.701743400933131811e-01,0.000000000000000000e+00,3.701743400933131811e-01
1.983333333333333393e+00,1.684973880991210222e+09,0.000000000000000000e+00,3.060748872633021755e-01,0.000000000000000000e+00,3.060748872633021755e-01
2.000000000000000000e+00,1.684973881012206793e+09,0.000000000000000000e+00,2.259505712257887378e-01,0.000000000000000000e+00,2.259505712257887378e-01
2.016666666666666607e+00,1.684973881026208162e+09,0.000000000000000000e+00,1.778759816032801921e-01,0.000000000000000000e+00,1.778759816032801921e-01
2.033333333333333215e+00,1.684973881042209864e+09,0.000000000000000000e+00,1.137765287732703939e-01,0.000000000000000000e+00,1.137765287732703939e-01
2.049999999999999822e+00,1.684973881059210300e+09,0.000000000000000000e+00,6.570193915076183444e-02,0.000000000000000000e+00,6.570193915076183444e-02
2.066666666666666430e+00,1.684973881077210426e+09,0.000000000000000000e+00,1.762734952825329576e-02,0.000000000000000000e+00,1.762734952825329576e-02
2.083333333333333481e+00,1.684973881097210407e+09,0.000000000000000000e+00,-3.044724009425465311e-02,0.000000000000000000e+00,-3.044724009425465311e-02
2.100000000000000089e+00,1.684973881111208200e+09,0.000000000000000000e+00,-6.249696650926014896e-02,0.000000000000000000e+00,-6.249696650926014896e-02
2.116666666666666696e+00,1.684973881129210234e+09,0.000000000000000000e+00,-9.454669292426565175e-02,0.000000000000000000e+00,-9.454669292426565175e-02
2.133333333333333304e+00,1.684973881144208193e+09,0.000000000000000000e+00,-1.105715561317686946e-01,0.000000000000000000e+00,-1.105715561317686946e-01
2.149999999999999911e+00,1.684973881163210392e+09,0.000000000000000000e+00,-1.426212825467741974e-01,0.000000000000000000e+00,-1.426212825467741974e-01
2.166666666666666519e+00,1.684973881178210020e+09,0.000000000000000000e+00,-1.586461457542766296e-01,0.000000000000000000e+00,-1.586461457542766296e-01
2.183333333333333126e+00,1.684973881196210146e+09,0.000000000000000000e+00,-1.746710089617797002e-01,0.000000000000000000e+00,-1.746710089617797002e-01
2.200000000000000178e+00,1.684973881213208199e+09,0.000000000000000000e+00,-1.906958721692821324e-01,0.000000000000000000e+00,-1.906958721692821324e-01
2.216666666666666785e+00,1.684973881231324434e+09,0.000000000000000000e+00,-1.906958721692821324e-01,0.000000000000000000e+00,-1.906958721692821324e-01
2.233333333333333393e+00,1.684973881247209549e+09,0.000000000000000000e+00,-2.067207353767851752e-01,0.000000000000000000e+00,-2.067207353767851752e-01
2.250000000000000000e+00,1.684973881264207125e+09,0.000000000000000000e+00,-1.906958721692821324e-01,0.000000000000000000e+00,-1.906958721692821324e-01
2.266666666666666607e+00,1.684973881284207821e+09,0.000000000000000000e+00,-2.067207353767851752e-01,0.000000000000000000e+00,-2.067207353767851752e-01
2.283333333333333215e+00,1.684973881301210165e+09,0.000000000000000000e+00,-1.906958721692821324e-01,0.000000000000000000e+00,-1.906958721692821324e-01
2.299999999999999822e+00,1.684973881319210052e+09,0.000000000000000000e+00,-1.906958721692821324e-01,0.000000000000000000e+00,-1.906958721692821324e-01
2.316666666666666430e+00,1.684973881335210085e+09,0.000000000000000000e+00,-1.746710089617797002e-01,0.000000000000000000e+00,-1.746710089617797002e-01
2.333333333333333481e+00,1.684973881352207899e+09,0.000000000000000000e+00,-1.586461457542766296e-01,0.000000000000000000e+00,-1.586461457542766296e-01
2.350000000000000089e+00,1.684973881370216846e+09,0.000000000000000000e+00,-1.265964193392711545e-01,0.000000000000000000e+00,-1.265964193392711545e-01
2.366666666666666696e+00,1.684973881387210131e+09,0.000000000000000000e+00,-9.454669292426565175e-02,0.000000000000000000e+00,-9.454669292426565175e-02
2.383333333333333304e+00,1.684973881403210163e+09,0.000000000000000000e+00,-4.647210330175770288e-02,0.000000000000000000e+00,-4.647210330175770288e-02
2.399999999999999911e+00,1.684973881419210196e+09,0.000000000000000000e+00,-1.442237688675220356e-02,0.000000000000000000e+00,-1.442237688675220356e-02
2.416666666666666519e+00,1.684973881436210155e+09,0.000000000000000000e+00,3.365221273575574185e-02,0.000000000000000000e+00,3.365221273575574185e-02
2.433333333333333126e+00,1.684973881455210209e+09,0.000000000000000000e+00,8.172680235826429440e-02,0.000000000000000000e+00,8.172680235826429440e-02
2.450000000000000178e+00,1.684973881471210003e+09,0.000000000000000000e+00,1.137765287732703939e-01,0.000000000000000000e+00,1.137765287732703939e-01
2.466666666666666785e+00,1.684973881489210129e+09,0.000000000000000000e+00,1.458262551882752722e-01,0.000000000000000000e+00,1.458262551882752722e-01
2.483333333333333393e+00,1.684973881505209446e+09,0.000000000000000000e+00,1.618511183957777322e-01,0.000000000000000000e+00,1.618511183957777322e-01
2.500000000000000000e+00,1.684973881522209883e+09,0.000000000000000000e+00,1.939008448107838178e-01,0.000000000000000000e+00,1.939008448107838178e-01
2.516666666666666607e+00,1.684973881539210081e+09,0.000000000000000000e+00,2.259505712257887378e-01,0.000000000000000000e+00,2.259505712257887378e-01
2.533333333333333215e+00,1.684973881557208061e+09,0.000000000000000000e+00,2.740251608482972556e-01,0.000000000000000000e+00,2.740251608482972556e-01
2.549999999999999822e+00,1.684973881574208021e+09,0.000000000000000000e+00,3.060748872633021755e-01,0.000000000000000000e+00,3.060748872633021755e-01
2.566666666666666430e+00,1.684973881592210054e+09,0.000000000000000000e+00,3.541494768858107212e-01,0.000000000000000000e+00,3.541494768858107212e-01
2.583333333333333481e+00,1.684973881607210159e+09,0.000000000000000000e+00,3.701743400933131811e-01,0.000000000000000000e+00,3.701743400933131811e-01
2.600000000000000089e+00,1.684973881623209715e+09,0.000000000000000000e+00,3.861992033008168068e-01,0.000000000000000000e+00,3.861992033008168068e-01
2.616666666666666696e+00,1.684973881642210007e+09,0.000000000000000000e+00,3.861992033008168068e-01,0.000000000000000000e+00,3.861992033008168068e-01
2.633333333333333304e+00,1.684973881658210039e+09,0.000000000000000000e+00,4.022240665083192668e-01,0.000000000000000000e+00,4.022240665083192668e-01
2.649999999999999911e+00,1.684973881677210093e+09,0.000000000000000000e+00,3.861992033008168068e-01,0.000000000000000000e+00,3.861992033008168068e-01
2.666666666666666519e+00,1.684973881694209576e+09,0.000000000000000000e+00,3.861992033008168068e-01,0.000000000000000000e+00,3.861992033008168068e-01
2.683333333333333126e+00,1.684973881709208250e+09,0.000000000000000000e+00,3.861992033008168068e-01,0.000000000000000000e+00,3.861992033008168068e-01
2.700000000000000178e+00,1.684973881727207184e+09,0.000000000000000000e+00,4.022240665083192668e-01,0.000000000000000000e+00,4.022240665083192668e-01
2.716666666666666785e+00,1.684973881744210243e+09,0.000000000000000000e+00,4.022240665083192668e-01,0.000000000000000000e+00,4.022240665083192668e-01
2.733333333333333393e+00,1.684973881762207985e+09,0.000000000000000000e+00,4.022240665083192668e-01,0.000000000000000000e+00,4.022240665083192668e-01
2.750000000000000000e+00,1.684973881779207945e+09,0.000000000000000000e+00,4.022240665083192668e-01,0.000000000000000000e+00,4.022240665083192668e-01
2.766666666666666607e+00,1.684973881796209812e+09,0.000000000000000000e+00,4.022240665083192668e-01,0.000000000000000000e+00,4.022240665083192668e-01
2.783333333333333215e+00,1.684973881813210011e+09,0.000000000000000000e+00,4.022240665083192668e-01,0.000000000000000000e+00,4.022240665083192668e-01
2.799999999999999822e+00,1.684973881830210209e+09,0.000000000000000000e+00,4.022240665083192668e-01,0.000000000000000000e+00,4.022240665083192668e-01
2.816666666666666430e+00,1.684973881848210096e+09,0.000000000000000000e+00,4.022240665083192668e-01,0.000000000000000000e+00,4.022240665083192668e-01
2.833333333333333481e+00,1.684973881864207983e+09,0.000000000000000000e+00,3.861992033008168068e-01,0.000000000000000000e+00,3.861992033008168068e-01
2.850000000000000089e+00,1.684973881881210089e+09,0.000000000000000000e+00,4.022240665083192668e-01,0.000000000000000000e+00,4.022240665083192668e-01
2.866666666666666696e+00,1.684973881898210287e+09,0.000000000000000000e+00,4.022240665083192668e-01,0.000000000000000000e+00,4.022240665083192668e-01
2.883333333333333304e+00,1.684973881914208174e+09,0.000000000000000000e+00,4.022240665083192668e-01,0.000000000000000000e+00,4.022240665083192668e-01
2.899999999999999911e+00,1.684973881936208010e+09,0.000000000000000000e+00,4.022240665083192668e-01,0.000000000000000000e+00,4.022240665083192668e-01
2.916666666666666519e+00,1.684973881951208115e+09,0.000000000000000000e+00,3.861992033008168068e-01,0.000000000000000000e+00,3.861992033008168068e-01
2.933333333333333126e+00,1.684973881968209982e+09,0.000000000000000000e+00,4.022240665083192668e-01,0.000000000000000000e+00,4.022240665083192668e-01
2.950000000000000178e+00,1.684973881987210035e+09,0.000000000000000000e+00,3.861992033008168068e-01,0.000000000000000000e+00,3.861992033008168068e-01
2.966666666666666785e+00,1.684973882005209684e+09,0.000000000000000000e+00,3.861992033008168068e-01,0.000000000000000000e+00,3.861992033008168068e-01
2.983333333333333393e+00,1.684973882020210028e+09,0.000000000000000000e+00,4.022240665083192668e-01,0.000000000000000000e+00,4.022240665083192668e-01
3.000000000000000000e+00,1.684973882042209148e+09,0.000000000000000000e+00,4.022240665083192668e-01,0.000000000000000000e+00,4.022240665083192668e-01
