# 
# 
# 
# 
# 
# 
# 
# 
# 
# 
# time,realtime,ref,inp,inp0,inp1,dis,state...
0.000000000000000000e+00,1.644186092628893614e+09,-0.000000000000000000e+00,1.647252685050017151e-01,8.415845145855347376e-01,-6.089448018850930622e-02,0.000000000000000000e+00,0.000000000000000000e+00,0.000000000000000000e+00
1.666666666666666644e-02,1.644186092630889893e+09,-6.418826485120109801e-06,1.442693858409981877e-01,7.597609839295207390e-01,-6.089448018850930622e-02,0.000000000000000000e+00,1.992655955862629360e-05,2.384563204458009684e-03
3.333333333333333287e-02,1.644186092631900787e+09,-2.573099529579324401e-05,1.577118230202005367e-01,8.135307326463300237e-01,-6.089448018850930622e-02,6.554416811020512150e-06,8.112406356182541751e-05,4.952005324405003503e-03
5.000000000000000278e-02,1.644186092649846792e+09,-5.798354769857891035e-05,1.588807306010007192e-01,8.182063629695307538e-01,-6.089448018850930622e-02,2.538228703685628090e-05,1.849217037905958433e-04,7.496642898976859509e-03
6.666666666666666574e-02,1.644186092666800022e+09,-1.031767434332470410e-04,1.553740078586000606e-01,8.041794719999281194e-01,-6.089448018850930622e-02,5.413036346579454239e-05,3.302981240544566226e-04,9.941735449080762316e-03
8.333333333333332871e-02,1.644186092683757067e+09,-1.612669257716369193e-04,1.547895540681999693e-01,8.018416568383277543e-01,-6.089448018850930622e-02,8.896668294798774196e-05,5.160124559776715740e-04,1.233732979634334648e-02
1.000000000000000056e-01,1.644186092701706409e+09,-2.321699459471909181e-04,1.453636040169479504e-01,8.602870358783379912e-01,-9.294420660351540575e-02,1.246019007009392427e-04,7.400254846983869532e-04,1.453812019958344512e-02
1.166666666666666685e-01,1.644186092717864990e+09,-3.157650632640398637e-04,1.635563609242015326e-01,8.369088842623340074e-01,-6.089448018850930622e-02,1.543540894588426703e-04,1.002931281253325625e-03,1.700372631992284542e-02
1.333333333333333315e-01,1.644186092734968662e+09,-4.118992299738261369e-04,1.419315706793978227e-01,7.504097232831191677e-01,-6.089448018850930622e-02,1.702564111404418457e-04,1.303605332017492274e-03,1.907141605400098153e-02
1.499999999999999944e-01,1.644186092751231909e+09,-5.203916641662132770e-04,1.026984773177406218e-01,6.896265290815086768e-01,-9.294420660351540575e-02,1.632062052751674652e-04,1.633035419802592123e-03,2.045634735826614564e-02
1.666666666666666574e-01,1.644186092769748211e+09,-6.410386095336579465e-04,1.273202259193952912e-01,6.919643442431090419e-01,-6.089448018850930622e-02,1.231531933766387356e-04,1.988751644649740247e-03,2.222468745196519435e-02
1.833333333333333204e-01,1.644186092786953211e+09,-7.736181780026473494e-04,-4.567086014138197619e-02,0.000000000000000000e+00,-6.089448018850930622e-02,3.932368582160518410e-05,2.349790766678084772e-03,2.110312272234417599e-02
2.000000000000000111e-01,1.644186092803909302e+09,-9.178951699133207787e-04,-4.567086014138197619e-02,0.000000000000000000e+00,-6.089448018850930622e-02,-9.952308881550196598e-05,2.692272876707036289e-03,1.999780089181193293e-02
2.166666666666666741e-01,1.644186092821836948e+09,-1.073625766698801812e-03,-4.567086014138197619e-02,0.000000000000000000e+00,-6.089448018850930622e-02,-3.048111196377810655e-04,3.016457269344624027e-03,1.890735531149068116e-02
2.333333333333333370e-01,1.644186092838199615e+09,-1.240561992866332387e-03,-4.567086014138197619e-02,0.000000000000000000e+00,-6.089448018850930622e-02,-5.878414386582611617e-04,3.322579089575625113e-03,1.783025513159234438e-02
2.500000000000000000e-01,1.644186092855176687e+09,-1.418455847496296555e-03,-6.970815495263654737e-02,0.000000000000000000e+00,-9.294420660351540575e-02,-9.594694137553362112e-04,3.607526637161343440e-03,1.636751384456676048e-02
2.666666666666666630e-01,1.644186092873104095e+09,-1.607063010414450056e-03,-4.567086014138197619e-02,0.000000000000000000e+00,-6.089448018850930622e-02,-1.429771749722111036e-03,3.871552282613002337e-03,1.531847766759670063e-02
2.833333333333333259e-01,1.644186092888749599e+09,-1.806146034599806320e-03,-6.970815495263654737e-02,0.000000000000000000e+00,-9.294420660351540575e-02,-2.007709798955984587e-03,4.114839016937045860e-03,1.387992652074611540e-02
2.999999999999999889e-01,1.644186092908344984e+09,-2.015476944189604092e-03,-6.970815495263654737e-02,0.000000000000000000e+00,-9.294420660351540575e-02,-2.700796036533883223e-03,4.334252862798813541e-03,1.245369682506483958e-02
3.166666666666666519e-01,1.644186092926240444e+09,-2.234839166539458188e-03,-6.970815495263654737e-02,0.000000000000000000e+00,-9.294420660351540575e-02,-3.514770694078084030e-03,4.529980778703925418e-03,1.103758681504781770e-02
3.333333333333333148e-01,1.644186092941652775e+09,-2.464028737080263196e-03,-6.970815495263654737e-02,0.000000000000000000e+00,-9.294420660351540575e-02,-4.453295569053252780e-03,4.702172825405906940e-03,9.629370592984340393e-03
3.499999999999999778e-01,1.644186092959915876e+09,-2.702854727056849815e-03,-9.374544976389022344e-02,0.000000000000000000e+00,-1.249939330185202979e-01,-5.517671928809983820e-03,4.847622049920263451e-03,7.829536006924979474e-03
3.666666666666666408e-01,1.644186092977842093e+09,-2.951138856495975123e-03,-9.374544976389022344e-02,0.000000000000000000e+00,-1.249939330185202979e-01,-6.706589211462226849e-03,4.963158411536407882e-03,6.039798995719628145e-03
3.833333333333333037e-01,1.644186092993796587e+09,-3.208714267778974873e-03,-9.374544976389022344e-02,0.000000000000000000e+00,-1.249939330185202979e-01,-8.015910890029865135e-03,5.048932178171253692e-03,4.258002551519447614e-03
4.000000000000000222e-01,1.644186093012720346e+09,-3.475423448822917254e-03,-9.374544976389022344e-02,0.000000000000000000e+00,-1.249939330185202979e-01,-9.438503415479001027e-03,5.105058950827252862e-03,2.482143225873961051e-03
4.166666666666666852e-01,1.644186093029676914e+09,-3.751115308929227864e-03,-9.374544976389022344e-02,0.000000000000000000e+00,-1.249939330185202979e-01,-1.096411359342054463e-02,5.131622632592976012e-03,7.104201548197254176e-04
4.333333333333333481e-01,1.644186093046654463e+09,-4.035641424659832874e-03,-9.374544976389022344e-02,0.000000000000000000e+00,-1.249939330185202979e-01,-1.257929908507907091e-02,5.128679217556368457e-03,-1.058715577626488744e-03
4.500000000000000111e-01,1.644186093062608242e+09,-4.328851487461654254e-03,-9.374544976389022344e-02,0.000000000000000000e+00,-1.249939330185202979e-01,-1.426741596416379945e-02,5.096261397343443238e-03,-2.826512186214463762e-03
4.666666666666666741e-01,1.644186093080537319e+09,-4.630587998991941498e-03,-9.374544976389022344e-02,0.000000000000000000e+00,-1.249939330185202979e-01,-1.600866641745262581e-02,5.034383966888934282e-03,-4.593870025449002178e-03
4.833333333333333370e-01,1.644186093096507788e+09,-4.940680274009745694e-03,-9.374544976389022344e-02,0.000000000000000000e+00,-1.249939330185202979e-01,-1.778020875964936992e-02,4.943049994481545431e-03,-6.361297028433940230e-03
5.000000000000000000e-01,1.644186093114473820e+09,-5.258937824104863330e-03,-9.374544976389022344e-02,0.000000000000000000e+00,-1.249939330185202979e-01,-1.955633095507649730e-02,4.822257704373422368e-03,-8.128867750308596193e-03
5.166666666666666075e-01,1.644186093133396626e+09,-5.585143208249859943e-03,-9.374544976389022344e-02,0.000000000000000000e+00,-1.249939330185202979e-01,-2.130868781381353369e-02,4.672008003580423348e-03,-9.896187009143993588e-03
5.333333333333333259e-01,1.644186093148358822e+09,-5.919044448005726308e-03,4.476286266328111108e-02,5.540332497086853936e-01,-1.249939330185202979e-01,-2.300660097269767099e-02,4.511443405436089613e-03,-9.373018049489936776e-03
5.500000000000000444e-01,1.644186093165338755e+09,-6.260347116015798838e-03,5.878975363288353045e-02,6.101408135870950433e-01,-1.249939330185202979e-01,-2.461741969761430809e-02,4.361240943688601823e-03,-8.653276688821294818e-03
5.666666666666666519e-01,1.644186093183264494e+09,-6.608706216026469064e-03,6.346538395608425365e-02,6.288433348798978528e-01,-1.249939330185202979e-01,-2.610693946867604504e-02,4.223374827428964112e-03,-7.892769831104854208e-03
5.833333333333333703e-01,1.644186093200218916e+09,-6.963717980928388340e-03,5.294521572888243738e-02,5.867626619710906155e-01,-1.249939330185202979e-01,-2.743987425048068085e-02,4.096441627375981172e-03,-7.340747606411841646e-03
5.999999999999999778e-01,1.644186093215211868e+09,-7.324911722083805865e-03,8.275235903928758463e-02,7.059912352127112323e-01,-1.249939330185202979e-01,-2.858037732197676525e-02,3.982592002803056475e-03,-6.324031619883737146e-03
6.166666666666666963e-01,1.644186093233154774e+09,-7.691741868377056229e-03,1.154817713016932784e-01,8.369088842623340074e-01,-1.249939330185202979e-01,-2.949260456072227629e-02,3.889941820824222019e-03,-4.798228658888719494e-03
6.333333333333333037e-01,1.644186093252081394e+09,-8.063580336893595366e-03,1.248330319480948913e-01,8.743139268479404036e-01,-1.249939330185202979e-01,-3.014131316027940030e-02,3.823712944360033259e-03,-3.153804469294272782e-03
6.500000000000000222e-01,1.644186093268036842e+09,-8.439709378817075031e-03,1.026237879128911179e-01,7.854769507071254209e-01,-1.249939330185202979e-01,-3.049248792231269364e-02,3.781547952731558263e-03,-1.909451144489490628e-03
6.666666666666666297e-01,1.644186093283611536e+09,-8.819315043970476012e-03,7.983009008728714218e-02,6.943021594047095180e-01,-1.249939330185202979e-01,-3.051398652097701489e-02,3.756799066166798505e-03,-1.062767198486229024e-03
6.833333333333333481e-01,1.644186093301553488e+09,-9.201481405375270747e-03,6.580319911768470198e-02,6.381945955262997572e-01,-1.249939330185202979e-01,-3.017619449967067977e-02,3.744153889115795809e-03,-4.563386111349924728e-04
6.999999999999999556e-01,1.644186093317830086e+09,-9.585185681241321573e-03,-9.374544976389022344e-02,0.000000000000000000e+00,-1.249939330185202979e-01,-2.945268024121446698e-02,3.719595088124926213e-03,-2.485081976895867246e-03
7.166666666666666741e-01,1.644186093334756374e+09,-9.969294385932513450e-03,6.821570368413469587e-02,5.516954345470849175e-01,-9.294420660351540575e-02,-2.832083976257127045e-02,3.684030594450529196e-03,-1.784603084528746473e-03
7.333333333333332815e-01,1.644186093352709293e+09,-1.035256063370340943e-02,-9.374544976389022344e-02,0.000000000000000000e+00,-1.249939330185202979e-01,-2.676252093332106077e-02,3.637889078934179125e-03,-3.746927747299251283e-03
7.500000000000000000e-01,1.644186093368666649e+09,-1.073362270941788550e-02,-9.374544976389022344e-02,0.000000000000000000e+00,-1.249939330185202979e-01,-2.476461661044907295e-02,3.559589141175191485e-03,-5.643795582445917947e-03
7.666666666666666075e-01,1.644186093386618614e+09,-1.111100400911098178e-02,-9.374544976389022344e-02,0.000000000000000000e+00,-1.249939330185202979e-01,-2.231961622590472247e-02,3.450274440502063347e-03,-7.468898648269372068e-03
7.833333333333333259e-01,1.644186093402575970e+09,-1.148311444023239480e-02,-9.374544976389022344e-02,0.000000000000000000e+00,-1.249939330185202979e-01,-1.942610556115960743e-02,3.311193092681462800e-03,-9.216009889199601804e-03
8.000000000000000444e-01,1.644186093419530630e+09,-1.184825335682609081e-02,-9.374544976389022344e-02,0.000000000000000000e+00,-1.249939330185202979e-01,-1.608920479585939853e-02,3.143695430453767852e-03,-1.087908980296773374e-02
8.166666666666666519e-01,1.644186093437482595e+09,-1.220461408888904968e-02,-9.374544976389022344e-02,0.000000000000000000e+00,-1.249939330185202979e-01,-1.232093542473720188e-02,2.949229950336586595e-03,-1.245239740932767639e-02
8.333333333333333703e-01,1.644186093454437494e+09,-1.255029010786508532e-02,-9.374544976389022344e-02,0.000000000000000000e+00,-1.249939330185202979e-01,-8.140507295160493220e-03,2.729337385630868900e-03,-1.393060412893947116e-02
8.499999999999999778e-01,1.644186093472389221e+09,-1.288328285183712105e-02,-9.374544976389022344e-02,0.000000000000000000e+00,-1.249939330185202979e-01,-3.574517821816305691e-03,2.485642869659005546e-03,-1.530890907272938403e-02
8.666666666666666963e-01,1.644186093490366697e+09,-1.320151121466965963e-02,-6.970815495263654737e-02,0.000000000000000000e+00,-9.294420660351540575e-02,1.342943622253527222e-03,2.223166222172122224e-03,-1.618585261408221621e-02
8.833333333333333037e-01,1.644186093509289980e+09,-1.350282268332211183e-02,-9.374544976389022344e-02,0.000000000000000000e+00,-1.249939330185202979e-01,6.570292067174739875e-03,1.943596933697787181e-03,-1.735920262055314078e-02
9.000000000000000222e-01,1.644186093522281885e+09,-1.378500608701743908e-02,-9.374544976389022344e-02,0.000000000000000000e+00,-1.249939330185202979e-01,1.205854879956235262e-02,1.645391916228990852e-03,-1.842244595248980835e-02
9.166666666666666297e-01,1.644186093541204214e+09,-1.404580590113085198e-02,-9.374544976389022344e-02,0.000000000000000000e+00,-1.249939330185202979e-01,1.775155215268021253e-02,1.330399352724562353e-03,-1.937401834917221177e-02
9.333333333333333481e-01,1.644186093558160067e+09,-1.428293802779269546e-02,-9.374544976389022344e-02,0.000000000000000000e+00,-1.249939330185202979e-01,2.358627929469264695e-02,1.000484576353879605e-03,-2.021342308062148985e-02
9.499999999999999556e-01,1.644186093573729515e+09,-1.449410695451368997e-02,-9.374544976389022344e-02,0.000000000000000000e+00,-1.249939330185202979e-01,2.949327961942512996e-02,6.575115379583306059e-04,-2.094131954463369222e-02
9.666666666666666741e-01,1.644186093591673136e+09,-1.467702417188036269e-02,-9.374544976389022344e-02,0.000000000000000000e+00,-1.249939330185202979e-01,3.539721883202222308e-02,3.033228842819930826e-04,-2.155960140648848639e-02
9.833333333333332815e-01,1.644186093608626604e+09,-1.482942771177308411e-02,-9.374544976389022344e-02,0.000000000000000000e+00,-1.249939330185202979e-01,4.121753127370803016e-02,-6.028116523404625443e-05,-2.207146266514214972e-02
1.000000000000000000e+00,1.644186093625584364e+09,-1.494910264886796514e-02,-9.374544976389022344e-02,0.000000000000000000e+00,-1.249939330185202979e-01,4.686917646544908750e-02,-4.315649291413058901e-04,-2.248145012287557434e-02
1.016666666666666607e+00,1.644186093642537117e+09,-1.503390239063026601e-02,-9.374544976389022344e-02,0.000000000000000000e+00,-1.249939330185202979e-01,5.226349429032181582e-02,-8.088801238023079175e-04,-2.279550085277404561e-02
1.033333333333333215e+00,1.644186093661486387e+09,-1.508177056481680225e-02,-9.374544976389022344e-02,0.000000000000000000e+00,-1.249939330185202979e-01,5.730915169980767276e-02,-1.190689211732399392e-03,-2.302096339924532969e-02
1.050000000000000044e+00,1.644186093677458763e+09,-1.509076329889560628e-02,-9.374544976389022344e-02,0.000000000000000000e+00,-1.249939330185202979e-01,6.191317234128070751e-02,-1.575588958142653704e-03,-2.316660160987856626e-02
1.066666666666666652e+00,1.644186093694411993e+09,-1.505907167296634611e-02,7.164773702168571179e-02,6.615727471423037409e-01,-1.249939330185202979e-01,6.598203908363452219e-02,-1.939489709051179286e-03,-2.050887125721470236e-02
1.083333333333333259e+00,1.644186093711560726e+09,-1.498504411691448622e-02,7.749227492568667996e-02,6.849508987583076136e-01,-1.249939330185202979e-01,6.942285808597950525e-02,-2.258179542995384682e-03,-1.774159587307606173e-02
1.100000000000000089e+00,1.644186093726764202e+09,-1.486720851382703802e-02,8.801244315288860032e-02,7.270315716671152950e-01,-1.249939330185202979e-01,7.214457183057673695e-02,-2.529301362648864789e-03,-1.480119047036482574e-02
1.116666666666666696e+00,1.644186093744696856e+09,-1.470429376529374874e-02,9.619479621848994744e-02,7.597609839295207390e-01,-1.249939330185202979e-01,7.405920744465001315e-02,-2.750427954737347941e-03,-1.174249715055734368e-02
1.133333333333333304e+00,1.644186093763245583e+09,-1.449525057024322709e-02,1.458733684024985100e-01,9.584752726655548782e-01,-1.249939330185202979e-01,7.508314568422917723e-02,-2.913995737037773214e-03,-7.896320800144790777e-03
1.149999999999999911e+00,1.644186093779311419e+09,-1.423927116753008308e-02,1.891229488921059854e-01,1.131473594623984891e+00,-1.249939330185202979e-01,7.513839516300147015e-02,-3.008010531238210737e-03,-3.397950271692561953e-03
1.166666666666666741e+00,1.644186093797710896e+09,-1.393580779368073716e-02,1.715893351801030253e-01,1.061339139775973051e+00,-1.249939330185202979e-01,7.415385579488108225e-02,-3.030231537023176346e-03,7.199905836754718833e-04
1.183333333333333348e+00,1.644186093815664291e+09,-1.358458961107843546e-02,1.645758896953017636e-01,1.033285357836768004e+00,-1.249939330185202979e-01,7.206655499327978276e-02,-2.985645966882440310e-03,4.619445758344427853e-03
1.199999999999999956e+00,1.644186093831987381e+09,-1.318563786845662958e-02,1.628225283241014898e-01,1.026271912351966797e+00,-1.249939330185202979e-01,6.882283994338064814e-02,-2.877298270547008763e-03,8.371854199800365243e-03
1.216666666666666563e+00,1.644186093849095106e+09,-1.273927906487498304e-02,1.470422759832987758e-01,9.631509029887559414e-01,-1.249939330185202979e-01,6.437950924425746291e-02,-2.709722009427382831e-03,1.172797435914000805e-02
1.233333333333333393e+00,1.644186093867030382e+09,-1.224615590035000971e-02,1.826939571977048982e-01,1.105757627846380542e+00,-1.249939330185202979e-01,5.870486741116399260e-02,-2.482533517672751763e-03,1.552409961086652530e-02
1.250000000000000000e+00,1.644186093882993460e+09,-1.170723581094914451e-02,2.119166467177099611e-01,1.222648385926400794e+00,-1.249939330185202979e-01,5.177968613784941082e-02,-2.189520851471757172e-03,1.962602582559152056e-02
1.266666666666666607e+00,1.644186093902205944e+09,-1.112381690334922346e-02,2.148389156697105284e-01,1.234337461734402952e+00,-1.249939330185202979e-01,4.359805684478403054e-02,-1.829435733928777476e-03,2.357322358329011491e-02
1.283333333333333215e+00,1.644186093919186831e+09,-1.049753112349894810e-02,1.973053019577074574e-01,1.164203006886390668e+00,-1.249939330185202979e-01,3.416811987938707385e-02,-1.407833395088250138e-03,2.700951160840116272e-02
1.300000000000000044e+00,1.644186093935432911e+09,-9.830344515967974484e-03,2.049032012329087826e-01,1.194594603987195969e+00,-1.249939330185202979e-01,2.351265678366064316e-02,-9.298565232197028704e-04,3.033846570347543958e-02
1.316666666666666652e+00,1.644186093952413321e+09,-9.124554454651835275e-03,1.879540413113058028e-01,1.126797964300784161e+00,-1.249939330185202979e-01,1.166953329521174844e-02,-4.008336844516978631e-04,3.313650244148272361e-02
1.333333333333333259e+00,1.644186093968369007e+09,-8.382783751534641364e-03,1.137284099304930185e-01,8.298954387775330233e-01,-1.249939330185202979e-01,-1.308017811069130771e-03,1.623920866423751589e-04,3.444694987237904849e-02
1.350000000000000089e+00,1.644186093986419201e+09,-7.607971577980101978e-03,1.061305106552916655e-01,7.995038416767275002e-01,-1.249939330185202979e-01,-1.535128331462016181e-02,7.442885601207969255e-04,3.537804052124515070e-02
1.366666666666666696e+00,1.644186094002935648e+09,-6.803361162285049071e-03,1.026237879128911179e-01,7.854769507071254209e-01,-1.249939330185202979e-01,-3.037613306747796380e-02,1.339015018335545579e-03,3.598744164378728932e-02
1.383333333333333304e+00,1.644186094020879507e+09,-5.972484257727670928e-03,9.970151896089056442e-02,7.737878748991231515e-01,-1.249939330185202979e-01,-4.628326600832875087e-02,1.941213264754107536e-03,3.627554761324475879e-02
1.399999999999999911e+00,1.644186094036182880e+09,-5.119142406803070533e-03,1.055460568648915604e-01,7.971660265151271352e-01,-1.249939330185202979e-01,-6.295864219386901328e-02,2.546677523202313734e-03,3.637987359931359188e-02
1.416666666666666741e+00,1.644186094054470062e+09,-4.247385059463504656e-03,9.677925000889001095e-02,7.620987990911208820e-01,-1.249939330185202979e-01,-8.027410222033443121e-02,3.150263642811642825e-03,3.605137327618018750e-02
1.433333333333333348e+00,1.644186094070600510e+09,-3.361484635665626126e-03,-9.374544976389022344e-02,0.000000000000000000e+00,-1.249939330185202979e-01,-9.808817318242457617e-02,3.719644274695013079e-03,3.228476559519156963e-02
1.449999999999999956e+00,1.644186094087707043e+09,-2.465908655056747289e-03,-9.374544976389022344e-02,0.000000000000000000e+00,-1.249939330185202979e-01,-1.162470580397815256e-01,4.224260243390308422e-03,2.828027449643507815e-02
1.466666666666666563e+00,1.644186094105398178e+09,-1.565289088881013533e-03,-9.374544976389022344e-02,0.000000000000000000e+00,-1.249939330185202979e-01,-1.345858029594486360e-01,4.660154839482870924e-03,2.403885902162020138e-02
1.483333333333333393e+00,1.644186094120671272e+09,-6.643891208254237065e-04,6.580319911768470198e-02,6.381945955262997572e-01,-1.249939330185202979e-01,-1.529296349040284442e-01,5.045448283856051631e-03,2.220145831414128967e-02
1.500000000000000000e+00,1.644186094140611649e+09,2.319324657698447999e-04,1.014548803320908521e-01,7.808013203839243577e-01,-1.249939330185202979e-01,-1.710954594677910889e-01,5.402787321052636774e-03,2.068344295801636742e-02
1.516666666666666607e+00,1.644186094156549454e+09,1.118759027476388989e-03,1.055460568648915604e-01,7.971660265151271352e-01,-1.249939330185202979e-01,-1.888935067552745262e-01,5.733142571524269850e-03,1.896396354270501669e-02
1.533333333333333215e+00,1.644186094172554493e+09,1.991155652404432656e-03,9.736370379929010221e-02,7.644366142527213581e-01,-1.249939330185202979e-01,-2.061291109773350783e-01,6.031566586152127193e-03,1.685278274177641131e-02
1.550000000000000044e+00,1.644186094189508677e+09,2.844210303226572117e-03,9.970151896089056442e-02,7.737878748991231515e-01,-1.249939330185202979e-01,-2.226046074360737703e-01,6.293143147848427252e-03,1.454282137216039196e-02
1.566666666666666652e+00,1.644186094208411694e+09,3.673076187179342717e-03,1.108061409784924650e-01,8.182063629695307538e-01,-1.249939330185202979e-01,-2.381213287097325437e-01,6.515930005050678264e-03,1.219811471943747262e-02
1.583333333333333259e+00,1.644186094222399712e+09,4.473015007356384055e-03,1.359376539656967919e-01,9.187324149183481170e-01,-1.249939330185202979e-01,-2.524816801574744085e-01,6.701449988300025966e-03,1.007019429965849699e-02
1.600000000000000089e+00,1.644186094239856005e+09,5.239440731090012904e-03,1.359376539656967919e-01,9.187324149183481170e-01,-1.249939330185202979e-01,-2.654912733664223090e-01,6.850001649144442720e-03,7.762415648801988637e-03
1.616666666666666696e+00,1.644186094257812262e+09,5.967963495698941703e-03,1.511334525160994147e-01,9.795156091199584969e-01,-1.249939330185202979e-01,-2.769610948821106255e-01,6.960923717820545996e-03,5.554366207359032540e-03
1.633333333333333304e+00,1.644186094273452044e+09,6.654433259580115612e-03,1.447044608216982997e-01,9.537996423423541481e-01,-1.249939330185202979e-01,-2.867096865191007815e-01,7.033115483481324794e-03,3.115420680074879045e-03
1.649999999999999911e+00,1.644186094292397022e+09,7.294982797735401377e-03,1.184040402536938319e-01,8.485979600703362768e-01,-1.249939330185202979e-01,-2.945653127590916465e-01,7.060277375165889893e-03,1.522375799670174987e-04
1.666666666666666741e+00,1.644186094307613611e+09,7.886069635514709325e-03,9.970151896089056442e-02,7.737878748991231515e-01,-1.249939330185202979e-01,-3.003680902247767848e-01,7.035077474085026268e-03,-3.167005373350222346e-03
1.683333333333333348e+00,1.644186094325537205e+09,8.424516512763163475e-03,5.528303089048289959e-02,5.961139226174925199e-01,-1.249939330185202979e-01,-3.039720539815208844e-01,6.948382427600274976e-03,-7.225127378382770887e-03
1.699999999999999956e+00,1.644186094341496706e+09,8.907549972774573416e-03,4.359395508248082446e-02,5.493576193854842193e-01,-1.249939330185202979e-01,-3.052471354749602961e-01,6.792821908325985709e-03,-1.143045319898313913e-02
1.716666666666666563e+00,1.644186094357842684e+09,9.332836676551718030e-03,5.352966951928253558e-02,5.891004771326910916e-01,-1.249939330185202979e-01,-3.040810272669642877e-01,6.569286856358890619e-03,-1.538277410947740641e-02
1.733333333333333393e+00,1.644186094376791239e+09,9.698517052878084105e-03,6.697210669848488451e-02,6.428702258495003763e-01,-1.249939330185202979e-01,-3.003809103876003417e-01,6.282793423873353142e-03,-1.898642740514379368e-02
1.750000000000000000e+00,1.644186094392748117e+09,1.000323590861030253e-02,8.333681282968780080e-02,7.083290503743120414e-01,-1.249939330185202979e-01,-2.940750210759118799e-01,5.939868115472571666e-03,-2.215580556751341190e-02
1.766666666666666607e+00,1.644186094410177469e+09,1.024616964136445402e-02,9.327252726648950498e-02,7.480719081215189137e-01,-1.249939330185202979e-01,-2.851140349328858958e-01,5.547167615505173288e-03,-2.496046352865262039e-02
1.783333333333333215e+00,1.644186094427477598e+09,1.042704971830167755e-02,7.983009008728714218e-02,6.943021594047095180e-01,-1.249939330185202979e-01,-2.734722480477931872e-01,5.107861490225395866e-03,-2.774852670271461125e-02
1.800000000000000044e+00,1.644186094444743395e+09,1.054618210990577142e-02,1.032082417032912230e-01,7.878147658687257859e-01,-1.249939330185202979e-01,-2.591485364724078200e-01,4.627680134210821611e-03,-2.986735025951864700e-02
1.816666666666666652e+00,1.644186094461742163e+09,1.060446239632441973e-02,1.131439561400929272e-01,8.275576236159326582e-01,-1.249939330185202979e-01,-2.421670774911347246e-01,4.116195518639809495e-03,-3.150625099979833393e-02
1.833333333333333259e+00,1.644186094478149652e+09,1.060338629582356640e-02,1.055460568648915604e-01,7.971660265151271352e-01,-1.249939330185202979e-01,-2.225778184501869816e-01,3.579278509113002597e-03,-3.291986335002645286e-02
1.849999999999999867e+00,1.644186094497089386e+09,1.054505539994986772e-02,7.690782113528658870e-02,6.826130835967072485e-01,-1.249939330185202979e-01,-2.004566814436596345e-01,3.018096397664749714e-03,-3.441782891038441816e-02
1.866666666666666696e+00,1.644186094513151884e+09,1.043217793784726073e-02,1.429510994504980537e-01,9.467861968575531639e-01,-1.249939330185202979e-01,-1.759054948837716348e-01,2.444668045987079263e-03,-3.439364048259464096e-02
1.883333333333333304e+00,1.644186094529639006e+09,1.026806443253004686e-02,1.219107629960943379e-01,8.626248510399382452e-01,-1.249939330185202979e-01,-1.490516458788165854e-01,1.872442459109113560e-03,-3.427376294376204696e-02
1.899999999999999911e+00,1.644186094545570135e+09,1.005661815445871646e-02,1.160662250920933697e-01,8.392466994239343725e-01,-1.249939330185202979e-01,-1.200474503752252953e-01,1.305397097129869276e-03,-3.377307133650166854e-02
1.916666666666666741e+00,1.644186094564763069e+09,9.802320322134310329e-03,9.035025831448895151e-02,7.363828323135167553e-01,-1.249939330185202979e-01,-8.906924115705715239e-02,7.473542630486039364e-04,-3.319367821646320577e-02
1.933333333333333348e+00,1.644186094581805706e+09,9.510210045256109468e-03,7.223219081208578918e-02,6.639105623039039950e-01,-1.249939330185202979e-01,-5.631617700274119814e-02,2.009093479411434369e-04,-3.238196640453333552e-02
1.949999999999999956e+00,1.644186094599760771e+09,9.185859052866793620e-03,7.047882944088551538e-02,6.568971168191028998e-01,-1.249939330185202979e-01,-2.200877953911608773e-02,-3.276227712993585442e-04,-3.104560012026334401e-02
1.966666666666666563e+00,1.644186094616712809e+09,8.835341296438654901e-03,1.043771492840913778e-01,7.924903961919264050e-01,-1.249939330185202979e-01,1.361279243034509492e-02,-8.244645765677633808e-04,-2.858225928642099678e-02
1.983333333333333393e+00,1.644186094632646799e+09,8.465197565589372905e-03,5.294521572888243738e-02,5.867626619710906155e-01,-1.249939330185202979e-01,5.029071815045582650e-02,-1.282628770061244004e-03,-2.640349619493854300e-02
2.000000000000000000e+00,1.644186094654614449e+09,8.082395301629937204e-03,-9.374544976389022344e-02,0.000000000000000000e+00,-1.249939330185202979e-01,8.775172360308873543e-02,-1.719868032355883862e-03,-2.606615236865725965e-02
2.016666666666666607e+00,1.644186094666554928e+09,7.694283840989027227e-03,-9.374544976389022344e-02,0.000000000000000000e+00,-1.249939330185202979e-01,1.257095045708080394e-01,-2.146288743996345970e-03,-2.510699741023483464e-02
2.033333333333333215e+00,1.644186094684508085e+09,7.308545366281900268e-03,-9.374544976389022344e-02,0.000000000000000000e+00,-1.249939330185202979e-01,1.638673421408594622e-01,-2.551585639059711710e-03,-2.353300230888864808e-02
2.049999999999999822e+00,1.644186094700465202e+09,6.933141886953909927e-03,4.184059371128055760e-02,5.423441739006831241e-01,-1.249939330185202979e-01,2.019208860598428190e-01,-2.906883496970717913e-03,-1.911501312145891945e-02
2.066666666666666430e+00,1.644186094717562675e+09,6.576258613589039577e-03,5.177630814808226872e-02,5.820870316478899964e-01,-1.249939330185202979e-01,2.395610789192026135e-01,-3.182587208574159422e-03,-1.398368629206739669e-02
2.083333333333333481e+00,1.644186094734516621e+09,6.246244129706408563e-03,5.645193847128309600e-02,6.007895529406932500e-01,-1.249939330185202979e-01,2.764771919791711441e-01,-3.367732875427303582e-03,-8.249721784373349048e-03
2.100000000000000089e+00,1.644186094752469301e+09,5.951547801757585410e-03,-9.374544976389022344e-02,0.000000000000000000e+00,-1.249939330185202979e-01,3.123599415543415470e-01,-3.473893640122530536e-03,-4.499986156503933167e-03
2.116666666666666696e+00,1.644186094767747164e+09,5.700654901692490950e-03,-9.374544976389022344e-02,0.000000000000000000e+00,-1.249939330185202979e-01,3.469046533151838863e-01,-3.513305393550641715e-03,-2.412543438875943899e-04
2.133333333333333304e+00,1.644186094784693956e+09,5.502019946510814524e-03,-9.374544976389022344e-02,0.000000000000000000e+00,-1.249939330185202979e-01,3.798144406310978161e-01,-3.477780985352980393e-03,4.491037762368203963e-03
2.149999999999999911e+00,1.644186094799629927e+09,5.363998785311595296e-03,6.463429153688453332e-02,6.335189652030990271e-01,-1.249939330185202979e-01,4.108033622128586249e-01,-3.337882974391205657e-03,1.227510064723548108e-02
2.166666666666666519e+00,1.644186094818603516e+09,5.294779986190470758e-03,-9.374544976389022344e-02,0.000000000000000000e+00,-1.249939330185202979e-01,4.395995238229488122e-01,-3.087223869350008264e-03,1.778867610984526115e-02
2.183333333333333126e+00,1.644186094832859516e+09,5.302316092620021522e-03,-9.374544976389022344e-02,0.000000000000000000e+00,-1.249939330185202979e-01,4.659480887242798408e-01,-2.741794100794645288e-03,2.364662365729638949e-02
2.200000000000000178e+00,1.644186094850926399e+09,5.394255331456131348e-03,5.177630814808226872e-02,5.820870316478899964e-01,-1.249939330185202979e-01,4.896141618401966822e-01,-2.276172668111872167e-03,3.220417672441826251e-02
2.216666666666666785e+00,1.644186094867179155e+09,5.577874362225394671e-03,-9.374544976389022344e-02,0.000000000000000000e+00,-1.249939330185202979e-01,5.103855133057891846e-01,-1.686337912861904115e-03,3.855834302819994425e-02
2.233333333333333393e+00,1.644186094884512901e+09,5.860012659716810207e-03,8.918135073368875509e-02,7.317072019903159141e-01,-1.249939330185202979e-01,5.280751082023277254e-01,-9.637687898690279779e-04,4.812338155414067065e-02
2.250000000000000000e+00,1.644186094900470018e+09,6.247009119003307624e-03,8.918135073368875509e-02,7.317072019903159141e-01,-1.249939330185202979e-01,5.425234107781938819e-01,-8.110787924328914569e-05,5.776913333537964101e-02
2.266666666666666607e+00,1.644186094917647839e+09,6.744641463790195489e-03,8.041454387768724732e-02,6.966399745663098830e-01,-1.249939330185202979e-01,5.536004333615869299e-01,9.613023731697870966e-04,6.729363937028780274e-02
2.283333333333333215e+00,1.644186094934939623e+09,7.358069025404439904e-03,8.684353557208830676e-02,7.223559413439141208e-01,-1.249939330185202979e-01,5.612075024482749974e-01,2.163077531024011017e-03,7.689271484610629703e-02
2.299999999999999822e+00,1.644186094952660561e+09,8.091779440835170784e-03,7.047882944088551538e-02,6.568971168191028998e-01,-1.249939330185202979e-01,5.652787170830583241e-01,3.521813467867911020e-03,8.612993801799478932e-02
2.316666666666666430e+00,1.644186094971578836e+09,8.949539794081142266e-03,1.277553009000954587e-01,8.860030026559426730e-01,-1.249939330185202979e-01,5.657820776230858550e-01,5.041207853595882152e-03,9.616949994098650256e-02
2.333333333333333481e+00,1.644186094988559484e+09,9.934352695790798701e-03,1.616536207433013350e-01,1.021596282028766289e+00,-1.249939330185202979e-01,5.627202662473577144e-01,6.730800756007517330e-03,1.065528051550858474e-01
2.350000000000000089e+00,1.644186095005946636e+09,1.104841776196637849e-02,1.558090828393002003e-01,9.982181304127617505e-01,-1.249939330185202979e-01,5.561310641280321487e-01,8.590297243647565875e-03,1.165589777835679963e-01
2.366666666666666696e+00,1.644186095022351980e+09,1.229309891357312570e-02,1.388599229176973593e-01,9.304214907263502754e-01,-1.249939330185202979e-01,5.460873939703511093e-01,1.061145295438021760e-02,1.259536106876361639e-01
2.383333333333333304e+00,1.644186095040302992e+09,1.366889787551760910e-02,1.037926954936912727e-01,7.901525810303260400e-01,-1.249939330185202979e-01,5.326969806204389091e-01,1.278119529527365142e-02,1.343920296153115757e-01
2.399999999999999911e+00,1.644186095058254004e+09,1.517543420595341905e-02,9.853261138009040965e-02,7.691122445759225323e-01,-1.249939330185202979e-01,5.161016265922176993e-01,1.508739374897414068e-02,1.423297351278162148e-01
2.416666666666666519e+00,1.644186095073398113e+09,1.681143213560177055e-02,6.872546806968526933e-02,6.498836713343019156e-01,-1.249939330185202979e-01,4.964761036320794463e-01,1.751796327017286770e-02,1.493191918016469055e-01
2.433333333333333126e+00,1.644186095090039492e+09,1.857471444213260048e-02,-9.374544976389022344e-02,0.000000000000000000e+00,-1.249939330185202979e-01,4.740266657762194913e-01,2.003851705689435950e-02,1.531366582817975663e-01
2.450000000000000178e+00,1.644186095107995510e+09,2.046220352708257029e-02,4.184059371128055760e-02,5.423441739006831241e-01,-1.249939330185202979e-01,4.489891937127760690e-01,2.263743703842058946e-02,1.587182347573389551e-01
2.466666666666666785e+00,1.644186095123226881e+09,2.246992980276170393e-02,-9.374544976389022344e-02,0.000000000000000000e+00,-1.249939330185202979e-01,4.216269845900214031e-01,2.530610587045602211e-02,1.615142581724057225e-01
2.483333333333333393e+00,1.644186095141561508e+09,2.459304743461733153e-02,-9.374544976389022344e-02,0.000000000000000000e+00,-1.249939330185202979e-01,3.922282056629523561e-01,2.801692833057879001e-02,1.637781483106006686e-01
2.500000000000000000e+00,1.644186095160147429e+09,2.682585742111583127e-02,-9.374544976389022344e-02,0.000000000000000000e+00,-1.249939330185202979e-01,3.611030342942076476e-01,3.076087057916929157e-02,1.654901658041821322e-01
2.516666666666666607e+00,1.644186095175389528e+09,2.916183792891973575e-02,-9.374544976389022344e-02,0.000000000000000000e+00,-1.249939330185202979e-01,3.285805107720085605e-01,3.352861796076566508e-02,1.666363361060543835e-01
2.533333333333333215e+00,1.644186095192652225e+09,3.159368173653646916e-02,-9.374544976389022344e-02,0.000000000000000000e+00,-1.249939330185202979e-01,2.950051341297487140e-01,3.631067242333760325e-02,1.672086097162467644e-01
2.549999999999999822e+00,1.644186095209625721e+09,3.411334057529457481e-02,4.300950129208073319e-02,5.470198042238838543e-01,-1.249939330185202979e-01,2.607332346026201564e-01,3.911634074690941570e-02,1.694653203242532935e-01
2.566666666666666430e+00,1.644186095225878000e+09,3.671207609302104546e-02,-9.374544976389022344e-02,0.000000000000000000e+00,-1.249939330185202979e-01,2.261291594920690207e-01,4.193564102175545427e-02,1.688524152115435661e-01
2.583333333333333481e+00,1.644186095245084047e+09,3.938051710376162806e-02,-9.374544976389022344e-02,0.000000000000000000e+00,-1.249939330185202979e-01,1.915613119877364046e-01,4.474003633780399003e-02,1.676782842658924577e-01
2.600000000000000089e+00,1.644186095261094570e+09,4.210872272687235518e-02,-9.374544976389022344e-02,0.000000000000000000e+00,-1.249939330185202979e-01,1.573980848805886790e-01,4.752030633433591139e-02,1.659588915213055238e-01
2.616666666666666696e+00,1.644186095277384996e+09,4.488625096139374493e-02,-9.374544976389022344e-02,0.000000000000000000e+00,-1.249939330185202979e-01,1.240037330561891832e-01,5.026754482397172152e-02,1.637159577532080190e-01
2.633333333333333304e+00,1.644186095295332909e+09,4.770223218735994419e-02,-9.374544976389022344e-02,0.000000000000000000e+00,-1.249939330185202979e-01,9.173423015333520558e-02,5.297325379942795232e-02,1.609767284509092122e-01
2.649999999999999911e+00,1.644186095314281225e+09,5.054544703512409143e-02,6.463429153688453332e-02,6.335189652030990271e-01,-1.249939330185202979e-01,6.093315578532874227e-02,5.565130852603206862e-02,1.603914645130086469e-01
2.666666666666666519e+00,1.644186095332241058e+09,5.340440801743040478e-02,7.223219081208578918e-02,6.639105623039039950e-01,-1.249939330185202979e-01,3.192766022857902730e-02,5.831673286273812706e-02,1.594620376936470019e-01
2.683333333333333126e+00,1.644186095347206116e+09,5.626744427729130776e-02,7.573891355448643392e-02,6.779374532735066294e-01,-1.249939330185202979e-01,5.024553471168107313e-03,6.096356360511659411e-02,1.581612647350294498e-01
2.700000000000000178e+00,1.644186095363165617e+09,5.912278876820981771e-02,6.521874532728462459e-02,6.358567803646993921e-01,-1.249939330185202979e-01,-1.949343502702247100e-02,6.358405497390491601e-02,1.563028618712455076e-01
2.716666666666666785e+00,1.644186095381084919e+09,6.195866715230834848e-02,4.885403919608172912e-02,5.703979558398878380e-01,-1.249939330185202979e-01,-4.137118058453323477e-02,6.616854757865188452e-02,1.538430835766910199e-01
2.733333333333333393e+00,1.644186095397087812e+09,6.476338767686980191e-02,-9.374544976389022344e-02,0.000000000000000000e+00,-1.249939330185202979e-01,-6.038442788444043502e-02,6.869006159252269428e-02,1.487527382686813504e-01
2.750000000000000000e+00,1.644186095415024519e+09,6.752543127097043740e-02,-9.374544976389022344e-02,0.000000000000000000e+00,-1.249939330185202979e-01,-7.634275434729138887e-02,7.112523542694676459e-02,1.434827610324042602e-01
2.766666666666666607e+00,1.644186095430636406e+09,7.023354109155072189e-02,-9.374544976389022344e-02,0.000000000000000000e+00,-1.249939330185202979e-01,-8.909219337445309361e-02,7.347154324043829454e-02,1.380891591666070228e-01
2.783333333333333215e+00,1.644186095447857380e+09,7.287681074265475734e-02,-9.374544976389022344e-02,0.000000000000000000e+00,-1.249939330185202979e-01,-9.851748166511192784e-02,7.572740083095916286e-02,1.326289193856027837e-01
2.799999999999999822e+00,1.644186095464271307e+09,7.544477039280131359e-02,4.534731645368118846e-02,5.563710648702856476e-01,-1.249939330185202979e-01,-1.045438983904973945e-01,7.791138778676115484e-02,1.294583227308538642e-01
2.816666666666666430e+00,1.644186095481354713e+09,7.792747002364774911e-02,4.943849298648191753e-02,5.727357710014885361e-01,-1.249939330185202979e-01,-1.071386680180757139e-01,8.004317607384441036e-02,1.263648648599107194e-01
2.833333333333333481e+00,1.644186095497311115e+09,8.031555905828337283e-02,5.586748468088299779e-02,5.984517377790928849e-01,-1.249939330185202979e-01,-1.063119029792779224e-01,8.212483616843035961e-02,1.234424644603515225e-01
2.850000000000000089e+00,1.644186095514783144e+09,8.260036163962154732e-02,-9.374544976389022344e-02,0.000000000000000000e+00,-1.249939330185202979e-01,-1.021170671243974704e-01,8.413810801275502238e-02,1.181648173345554026e-01
2.866666666666666696e+00,1.644186095532140493e+09,8.477394685835056010e-02,-9.374544976389022344e-02,0.000000000000000000e+00,-1.249939330185202979e-01,-9.465094596076761846e-02,8.606517924728465663e-02,1.130978061712814703e-01
2.883333333333333304e+00,1.644186095548511982e+09,8.682919326559783435e-02,-9.374544976389022344e-02,0.000000000000000000e+00,-1.249939330185202979e-01,-8.405311497390847986e-02,8.790996393157381184e-02,1.082897120746956765e-01
2.899999999999999911e+00,1.644186095567658901e+09,8.875984704762999999e-02,-6.970815495263654737e-02,0.000000000000000000e+00,-9.294420660351540575e-02,-7.050490283120607049e-02,8.968046913958348243e-02,1.041823225702886296e-01
2.916666666666666519e+00,1.644186095583616495e+09,9.056057328828989728e-02,-9.374544976389022344e-02,0.000000000000000000e+00,-1.249939330185202979e-01,-5.422785190580599324e-02,9.138201332178320924e-02,1.000145566935939645e-01
2.933333333333333126e+00,1.644186095599860907e+09,9.222699979907907075e-02,-9.374544976389022344e-02,0.000000000000000000e+00,-1.249939330185202979e-01,-3.548168427399725489e-02,9.301725962330094355e-02,9.622552482477809976e-02
2.950000000000000178e+00,1.644186095616159201e+09,9.375575305649054558e-02,-9.374544976389022344e-02,0.000000000000000000e+00,-1.249939330185202979e-01,-1.456178707013877464e-02,9.459276820328431368e-02,9.284489563089425024e-02
2.966666666666666785e+00,1.644186095632887602e+09,9.514448585084614440e-02,4.534731645368118846e-02,5.563710648702856476e-01,-1.249939330185202979e-01,8.203763235025779421e-03,9.613475584900146864e-02,9.219542597998887923e-02
2.983333333333333393e+00,1.644186095650839806e+09,9.639189632006296693e-02,-9.374544976389022344e-02,0.000000000000000000e+00,-1.249939330185202979e-01,3.245761249801787374e-02,9.765014709709804452e-02,8.965857077746110237e-02
3.000000000000000000e+00,1.644186095669271708e+09,9.749773811485834552e-02,6.288093016568417626e-02,6.265055197182975988e-01,-1.249939330185202979e-01,5.781694598241498423e-02,9.914874377440123510e-02,9.017160536929288983e-02
3.016666666666666607e+00,1.644186095684207439e+09,9.846282151830719476e-02,5.411412330968272399e-02,5.914382922942917897e-01,-1.249939330185202979e-01,8.387767517855905519e-02,1.006582088128239322e-01,9.096200363900755481e-02
3.033333333333333215e+00,1.644186095702184916e+09,9.928900542179167066e-02,6.404983774648444206e-02,6.311811500414986620e-01,-1.249939330185202979e-01,1.102189538392623069e-01,1.021857485819262779e-01,9.233894372966765240e-02
3.049999999999999822e+00,1.644186095718588829e+09,9.997918014047628421e-02,-9.374544976389022344e-02,0.000000000000000000e+00,-1.249939330185202979e-01,1.364079782221681858e-01,1.037178696461563548e-01,9.151786480640887456e-02
3.066666666666666430e+00,1.644186095734564781e+09,1.005372411338978367e-01,-9.374544976389022344e-02,0.000000000000000000e+00,-1.249939330185202979e-01,1.620050224627889168e-01,1.052399549460187322e-01,9.113343905152813951e-02
3.083333333333333481e+00,1.644186095752496481e+09,1.009680537802685879e-01,5.352966951928253558e-02,5.891004771326910916e-01,-1.249939330185202979e-01,1.865686564072729370e-01,1.067794207013818969e-01,9.359561206160756097e-02
3.100000000000000089e+00,1.644186095769043684e+09,1.012774094359644994e-01,7.807672871608678511e-02,6.872887139199079787e-01,-1.249939330185202979e-01,2.096610901592592668e-01,1.083661625875518425e-01,9.680450049002671531e-02
3.116666666666666696e+00,1.644186095788066626e+09,1.014719730936435999e-01,9.268807347608930269e-02,7.457340929599181045e-01,-1.249939330185202979e-01,2.308535870844192484e-01,1.100108879787365379e-01,1.005521361081838372e-01
3.133333333333333304e+00,1.644186095803945065e+09,1.015592230327497514e-01,1.096372333976922825e-01,8.135307326463300237e-01,-1.249939330185202979e-01,2.497318851074702695e-01,1.117225048446238295e-01,1.048300045507159217e-01
3.149999999999999911e+00,1.644186095820197105e+09,1.015473829340650530e-01,1.160662250920933697e-01,8.392466994239343725e-01,-1.249939330185202979e-01,2.659015648619271199e-01,1.135079499963394384e-01,1.094106892315673263e-01
3.166666666666666519e+00,1.644186095836470604e+09,1.014453470047498168e-01,1.049616030744914691e-01,7.948282113535267701e-01,-1.249939330185202979e-01,2.789933026380931325e-01,1.153693816677022477e-01,1.139485059887476032e-01
3.183333333333333126e+00,1.644186095853427649e+09,1.012625987311929904e-01,1.131439561400929272e-01,8.275576236159326582e-01,-1.249939330185202979e-01,2.886679461387970935e-01,1.173082832701125150e-01,1.187064694243188390e-01
3.200000000000000178e+00,1.644186095870602608e+09,1.010091239433490162e-01,1.312620236424959785e-01,9.000298936255448634e-01,-1.249939330185202979e-01,2.946213518065470827e-01,1.193291518547170554e-01,1.237836570971983519e-01
3.216666666666666785e+00,1.644186095887535810e+09,1.006953189353231859e-01,1.318464774328961531e-01,9.023677087871455615e-01,-1.249939330185202979e-01,2.965889239346039541e-01,1.214342914572680843e-01,1.288191075174389966e-01
3.233333333333333393e+00,1.644186095905461788e+09,1.003318944422292719e-01,1.499645449352992044e-01,9.748399787967577668e-01,-1.249939330185202979e-01,2.943497979143024912e-01,1.236248529418858405e-01,1.340337850803146047e-01
3.250000000000000000e+00,1.644186095923825502e+09,9.992977632211409722e-02,1.482111835640989583e-01,9.678265333119567826e-01,-1.249939330185202979e-01,2.877306127909018962e-01,1.259004490450517377e-01,1.390238855830653875e-01
3.266666666666666607e+00,1.644186095939504385e+09,9.950000383356835676e-02,1.727582427609031801e-01,1.066014770099173559e+00,-1.249939330185202979e-01,2.766088217813976735e-01,1.282603785594996493e-01,1.441534071443224818e-01
3.283333333333333215e+00,1.644186095956883192e+09,9.905362643396427302e-02,1.072994182360918203e-01,8.041794719999281194e-01,-1.249939330185202979e-01,2.609154935238838791e-01,1.306938828320561019e-01,1.478568180677656274e-01
3.299999999999999822e+00,1.644186095972468615e+09,9.860160004970376646e-02,1.347687463848966094e-01,9.140567845951472759e-01,-1.249939330185202979e-01,2.406375615451874228e-01,1.331895923822659644e-01,1.516178803163905076e-01
3.316666666666666430e+00,1.644186095988426685e+09,9.815468378805157490e-02,1.616536207433013350e-01,1.021596282028766289e+00,-1.249939330185202979e-01,2.158194847107540448e-01,1.357477522905970735e-01,1.553509388322936446e-01
3.333333333333333481e+00,1.644186096004993916e+09,9.772333806975985748e-02,1.388599229176973593e-01,9.304214907263502754e-01,-1.249939330185202979e-01,1.865642872101807848e-01,1.383604252095616549e-01,1.581620027487937175e-01
3.350000000000000089e+00,1.644186096024150848e+09,9.731762516258064821e-02,1.359376539656967919e-01,9.187324149183481170e-01,-1.249939330185202979e-01,1.530339528789867176e-01,1.410145260764961717e-01,1.603240953292706106e-01
3.366666666666666696e+00,1.644186096040109396e+09,9.694711308772643865e-02,1.306775698520958873e-01,8.976920784639444983e-01,-1.249939330185202979e-01,1.154491553020522837e-01,1.436984454340284600e-01,1.617422880576407929e-01
3.383333333333333304e+00,1.644186096058234215e+09,9.662078385435400596e-02,9.444143484728965976e-02,7.527475384447195328e-01,-1.249939330185202979e-01,7.408831212068173189e-02,1.463950877222005842e-01,1.618544748856015347e-01
3.399999999999999911e+00,1.644186096074520111e+09,9.634694695118196928e-02,9.561034242808985617e-02,7.574231687679202629e-01,-1.249939330185202979e-01,2.928595920324895616e-02,1.490875576222963350e-01,1.612436100126947713e-01
3.416666666666666519e+00,1.644186096091566324e+09,9.613315898954552519e-02,9.385698105688956849e-02,7.504097232831191677e-01,-1.249939330185202979e-01,-1.856955223590530182e-02,1.517630788118720653e-01,1.598228793034687789e-01
3.433333333333333126e+00,1.644186096109545946e+09,9.598615034868866747e-02,8.099899766808733859e-02,6.989777897279102481e-01,-1.249939330185202979e-01,-6.903902495087560487e-02,1.544063705684928511e-01,1.573789204254681939e-01
3.449999999999999734e+00,1.644186096124634981e+09,9.591175962215979511e-02,1.400288304984975141e-01,9.350971210495508945e-01,-1.249939330185202979e-01,-1.216360332312930170e-01,1.570101557429033068e-01,1.550816818721778290e-01
3.466666666666666785e+00,1.644186096143218756e+09,9.591487660414847738e-02,1.651603434857018271e-01,1.035623172998368258e+00,-1.249939330185202979e-01,-1.758311630328090458e-01,1.595719566225711761e-01,1.523420340000581630e-01
3.483333333333333393e+00,1.644186096159472942e+09,9.599939448689277788e-02,1.587313517913007677e-01,1.009907206220763909e+00,-1.249939330185202979e-01,-2.310568416094007649e-01,1.620799593320797483e-01,1.486286064602479196e-01
3.500000000000000000e+00,1.644186096175645351e+09,9.616817186536899542e-02,6.697210669848488451e-02,6.428702258495003763e-01,-1.249939330185202979e-01,-2.867127164331614853e-01,1.645062234331374218e-01,1.425399988636123216e-01
3.516666666666666607e+00,1.644186096194624186e+09,9.642300506394425874e-02,6.989437565048543799e-02,6.545593016575026457e-01,-1.249939330185202979e-01,-3.421715363355747330e-01,1.668245953278056082e-01,1.356836742908593130e-01
3.533333333333333215e+00,1.644186096208558798e+09,9.676461121210142013e-02,6.872546806968526933e-02,6.498836713343019156e-01,-1.249939330185202979e-01,-3.967854813337456377e-01,1.690219373898000921e-01,1.280186653411304887e-01
3.549999999999999822e+00,1.644186096225562096e+09,9.719262240348147674e-02,6.521874532728462459e-02,6.358567803646993921e-01,-1.249939330185202979e-01,-4.498928815932904390e-01,1.710847684265753565e-01,1.195445986999218030e-01
3.566666666666666430e+00,1.644186096243492126e+09,9.770559117503699320e-02,8.041454387768724732e-02,6.966399745663098830e-01,-1.249939330185202979e-01,-5.008252604995125923e-01,1.730025995073329881e-01,1.106199223421337335e-01
3.583333333333333481e+00,1.644186096261572361e+09,9.830100744186549833e-02,8.742798936248839803e-02,7.246937565055144859e-01,-1.249939330185202979e-01,-5.489146319297244503e-01,1.747672452354919193e-01,1.011638325711875508e-01
3.600000000000000089e+00,1.644186096277533531e+09,9.897532691916215153e-02,7.281664460248588044e-02,6.662483774655043600e-01,-1.249939330185202979e-01,-5.935009776054948061e-01,1.763674191327649354e-01,9.088558645719771456e-02
3.616666666666666696e+00,1.644186096293842316e+09,9.972401095652513869e-02,7.924563629688705091e-02,6.919643442431090419e-01,-1.249939330185202979e-01,-6.339398269119382867e-01,1.777930111061166440e-01,8.021509130692849876e-02
3.633333333333333304e+00,1.644186096310817719e+09,1.005415776025625624e-01,-9.374544976389022344e-02,0.000000000000000000e+00,-1.249939330185202979e-01,-6.696098588526372408e-01,1.790134149300106892e-01,6.627209900609232207e-02
3.649999999999999911e+00,1.644186096327753067e+09,1.014216636102451136e-01,-9.374544976389022344e-02,0.000000000000000000e+00,-1.249939330185202979e-01,-6.999204439065548344e-01,1.799991748488127818e-01,5.205857419278279996e-02
3.666666666666666519e+00,1.644186096345003605e+09,1.023570969867470537e-01,-9.374544976389022344e-02,0.000000000000000000e+00,-1.249939330185202979e-01,-7.243190425027609125e-01,1.807466359199201011e-01,3.767670491723128928e-02
3.683333333333333126e+00,1.644186096361138582e+09,1.033399795865409670e-01,-9.374544976389022344e-02,0.000000000000000000e+00,-1.249939330185202979e-01,-7.422983766562273322e-01,1.812539022861242577e-01,2.323537477735850010e-02
3.699999999999999734e+00,1.644186096378356695e+09,1.043617791442585235e-01,-9.374544976389022344e-02,0.000000000000000000e+00,-1.249939330185202979e-01,-7.534032920310733683e-01,1.815209406439360074e-01,8.849190722964035694e-03
3.716666666666666785e+00,1.644186096418934107e+09,1.054134300452225642e-01,-9.374544976389022344e-02,0.000000000000000000e+00,-1.249939330185202979e-01,-7.572372293246378838e-01,1.815496667490957006e-01,-5.362580033671135796e-03
3.733333333333333393e+00,1.644186096420882463e+09,1.064854420375642569e-01,-9.374544976389022344e-02,0.000000000000000000e+00,-1.249939330185202979e-01,-7.534682263951374415e-01,1.813440135217448956e-01,-1.927715474230413256e-02
3.750000000000000000e+00,1.644186096438226700e+09,1.075680160013563758e-01,-9.374544976389022344e-02,0.000000000000000000e+00,-1.249939330185202979e-01,-7.418343759763982304e-01,1.809099794771434067e-01,-3.276945112670744120e-02
3.766666666666666607e+00,1.644186096456709146e+09,1.086511658081063675e-01,-9.374544976389022344e-02,0.000000000000000000e+00,-1.249939330185202979e-01,-7.221486681142834652e-01,1.802556563886365815e-01,-4.571336333617018188e-02
3.783333333333333215e+00,1.644186096472089291e+09,1.097248452290881388e-01,-9.374544976389022344e-02,0.000000000000000000e+00,-1.249939330185202979e-01,-6.943031515904058981e-01,1.793912352862214454e-01,-5.798308558965998422e-02
3.799999999999999822e+00,1.644186096491246939e+09,1.107790787841615027e-01,-1.177827445751448016e-01,0.000000000000000000e+00,-1.570436594335263836e-01,-6.582723545293931444e-01,1.783256700615898638e-01,-6.985177201677068848e-02
3.816666666666666430e+00,1.644186096507488251e+09,1.118040953645940971e-01,-9.374544976389022344e-02,0.000000000000000000e+00,-1.249939330185202979e-01,-6.141159110671190469e-01,1.770733516585549228e-01,-8.039714296091923784e-02
3.833333333333333481e+00,1.644186096523376226e+09,1.127904634147258167e-01,4.534731645368118846e-02,5.563710648702856476e-01,-1.249939330185202979e-01,-5.619803483306361480e-01,1.756731461572267061e-01,-8.760748799087360317e-02
3.850000000000000089e+00,1.644186096540391207e+09,1.137292264185828378e-01,-9.374544976389022344e-02,0.000000000000000000e+00,-1.249939330185202979e-01,-5.020999959795402479e-01,1.741428232770579343e-01,-9.600792253976199453e-02
3.866666666666666696e+00,1.644186096558404446e+09,1.146120374093294036e-01,6.288093016568417626e-02,6.265055197182975988e-01,-1.249939330185202979e-01,-4.347969891088647731e-01,1.725045826652583103e-01,-1.005682829103487219e-01
3.883333333333333304e+00,1.644186096573891401e+09,1.154312912021711324e-01,5.060740056728209313e-02,5.774114013246892663e-01,-1.249939330185202979e-01,-3.604803443338747693e-01,1.707995353525580406e-01,-1.040277846604249906e-01
3.899999999999999911e+00,1.644186096591937780e+09,1.161802530452753501e-01,8.976580452408886024e-02,7.340450171519162792e-01,-1.249939330185202979e-01,-2.796440982795669883e-01,1.690538812263978063e-01,-1.054467687635227413e-01
3.916666666666666519e+00,1.644186096609483242e+09,1.168531823887657972e-01,1.283397546904955500e-01,8.883408178175430381e-01,-1.249939330185202979e-01,-1.928645073888675121e-01,1.673020872496169265e-01,-1.047703873317147177e-01
3.933333333333333126e+00,1.644186096625566244e+09,1.174454504889663187e-01,1.663292510665021207e-01,1.040298803321569432e+00,-1.249939330185202979e-01,-1.007963178457941811e-01,1.655794365070328289e-01,-1.019555210354521624e-01
3.949999999999999734e+00,1.644186096641603947e+09,1.179536505938987428e-01,1.429510994504980537e-01,9.467861968575531639e-01,-1.249939330185202979e-01,-4.168124381513541726e-03,1.639134287443121396e-01,-9.797646368824840246e-02
3.966666666666666785e+00,1.644186096658537388e+09,1.183756994965096260e-01,1.669137048569021842e-01,1.042636618483169686e+00,-1.249939330185202979e-01,9.622315331182086651e-02,1.623303648350413741e-01,-9.200778547616557390e-02
3.983333333333333393e+00,1.644186096675655842e+09,1.187109292940505823e-01,1.826939571977048982e-01,1.105757627846380542e+00,-1.249939330185202979e-01,1.995186379976788271e-01,1.608624012993725982e-01,-8.416961202057374192e-02
4.000000000000000000e+00,1.644186096695627451e+09,1.189601682552259981e-01,2.066565626041090564e-01,1.201608049471997175e+00,-1.249939330185202979e-01,3.048046579701045311e-01,1.595418432601636571e-01,-7.432470030512790260e-02
4.016666666666666607e+00,1.644186096709591150e+09,1.191258097707573599e-01,2.633485802729189085e-01,1.428376120147236472e+00,-1.249939330185202979e-01,4.111206483360457242e-01,1.584065220461663981e-01,-6.194822528098124781e-02
4.033333333333333215e+00,1.644186096727738619e+09,1.192118684474667151e-01,4.696607682841544285e-01,2.253624872192178774e+00,-1.249939330185202979e-01,5.174677242105706343e-01,1.575189506245349425e-01,-4.460851231777105547e-02
4.049999999999999822e+00,1.644186096744696856e+09,1.192240225002692278e-01,4.982990040137594834e-01,2.368177815110598772e+00,-1.249939330185202979e-01,6.228178512225338581e-01,1.569364859886687169e-01,-2.534076676129992656e-02
4.066666666666666430e+00,1.644186096761624813e+09,1.191696416999363101e-01,4.766742137689556902e-01,2.281678654131383599e+00,-1.249939330185202979e-01,7.261235310527293096e-01,1.566837709800059653e-01,-5.041422672275759631e-03
4.083333333333333037e+00,1.644186096778605461e+09,1.190578002464189739e-01,6.046695938665779257e-01,2.793660174521872541e+00,-1.249939330185202979e-01,8.263279127745634112e-01,1.567980936822601923e-01,1.869421306948902683e-02
4.099999999999999645e+00,1.644186096795559883e+09,1.188992740570461309e-01,6.952599313785936541e-01,3.156021524569935455e+00,-1.249939330185202979e-01,9.223752346239341149e-01,1.573305104223295947e-01,4.512238242946174649e-02
4.116666666666666252e+00,1.644186096811788559e+09,1.187065220851605679e-01,7.467665543386520222e-01,3.265898837165154056e+00,-9.294420660351540575e-02,1.013221495568402686e+00,1.583194082311478734e-01,7.346661878576105087e-02
4.133333333333332860e+00,1.644186096830881119e+09,1.184936514167220789e-01,7.070236965914451499e-01,3.106927406176326567e+00,-9.294420660351540575e-02,1.097845251745871442e+00,1.597829940312547603e-01,1.020841821246094294e-01
4.150000000000000355e+00,1.644186096846838951e+09,1.182763660290486601e-01,7.076081503818451024e-01,3.109265221337926377e+00,-9.294420660351540575e-02,1.175258429559895346e+00,1.617303596200105331e-01,1.315179262015493122e-01
4.166666666666666963e+00,1.644186096863961220e+09,1.180718992361130537e-01,6.468249561802346115e-01,2.866132444531484413e+00,-9.294420660351540575e-02,1.244517045004828404e+00,1.641653928360412573e-01,1.606052596719362846e-01
4.183333333333333570e+00,1.644186096880542755e+09,1.178989299874461938e-01,7.281387224506991052e-01,3.095238330368324409e+00,-6.089448018850930622e-02,1.304731717688544901e+00,1.671007453648394037e-01,1.915510811454588791e-01
4.200000000000000178e+00,1.644186096897547245e+09,1.177774833316323766e-01,6.380581493242331037e-01,2.831065217107478826e+00,-9.294420660351540575e-02,1.355077868054145984e+00,1.705420991942618592e-01,2.213286609390094084e-01
4.216666666666666785e+00,1.644186096914763927e+09,1.177288154992725960e-01,5.199984836634128360e-01,2.358826554464197311e+00,-9.294420660351540575e-02,1.394805487492158713e+00,1.744648138647545144e-01,2.493193457877762587e-01
4.233333333333333393e+00,1.644186096931192636e+09,1.177752842030360542e-01,4.791614077402559513e-01,2.099329071526551793e+00,-6.089448018850930622e-02,1.423248373388249499e+00,1.788484619703245571e-01,2.766425273676813013e-01
4.250000000000000000e+00,1.644186096948800325e+09,1.179402048926587038e-01,5.024648699514097094e-01,2.288692099616185249e+00,-9.294420660351540575e-02,1.439832724661952446e+00,1.836892318687877723e-01,3.041733840461074423e-01
4.266666666666666607e+00,1.644186096966275215e+09,1.182476938393007132e-01,2.844636061321720311e-01,1.416687044339234314e+00,-9.294420660351540575e-02,1.444084998001617048e+00,1.889555236856769460e-01,3.277162356314480829e-01
4.283333333333333215e+00,1.644186096983230829e+09,1.187224990553163162e-01,2.482274711273657064e-01,1.271742504320009015e+00,-9.294420660351540575e-02,1.435638930759532972e+00,1.946047730838441625e-01,3.501314262647292064e-01
4.299999999999999822e+00,1.644186096999520302e+09,1.193898201809426296e-01,1.833531003929545489e-01,1.012245021382364385e+00,-9.294420660351540575e-02,1.414241643296410889e+00,2.006125971107739214e-01,3.707501812992888279e-01
4.316666666666666430e+00,1.644186097016082287e+09,1.202751185876140688e-01,2.126504793178100039e-01,1.033285357836768004e+00,-6.089448018850930622e-02,1.379758741402209887e+00,2.069605029551928599e-01,3.909424291335368840e-01
4.333333333333333037e+00,1.644186097032772779e+09,1.214039190573081295e-01,1.980391345578074724e-01,9.748399787967577668e-01,-6.089448018850930622e-02,1.332178348205362628e+00,2.136335673462912421e-01,4.097729894551579988e-01
4.349999999999999645e+00,1.644186097049726009e+09,1.228016044975590165e-01,2.564845135978175428e-01,1.208621494956798159e+00,-6.089448018850930622e-02,1.271614004637968920e+00,2.206175808505912717e-01,4.282572845881210677e-01
4.366666666666666252e+00,1.644186097066679955e+09,1.244932052414408213e-01,2.721900765337698092e-01,1.367592925945625426e+00,-9.294420660351540575e-02,1.198306387964739539e+00,2.278991568559698422e-01,4.454839829910509641e-01
4.383333333333332860e+00,1.644186097083959818e+09,1.265031845600568805e-01,3.259598252505792604e-01,1.582671920812863231e+00,-9.294420660351540575e-02,1.112623809011530573e+00,2.354610573251823546e-01,4.618984764262069609e-01
4.400000000000000355e+00,1.644186097100837708e+09,1.288552220809635052e-01,3.259598252505792604e-01,1.582671920812863231e+00,-9.294420660351540575e-02,1.015061460441554431e+00,2.432807901466919054e-01,4.764290983662329837e-01
4.416666666666666963e+00,1.644186097118144274e+09,1.315719968588022759e-01,3.534291533993839107e-01,1.692549233408081832e+00,-9.294420660351540575e-02,9.062394006108476230e-01,2.513294565438899397e-01,4.893749078692054555e-01
4.433333333333333570e+00,1.644186097136094809e+09,1.346749718835014153e-01,3.709627671113870373e-01,1.762683688256094339e+00,-9.294420660351540575e-02,7.868992700714763089e-01,2.595780367842333014e-01,5.004240282485764579e-01
4.450000000000000178e+00,1.644186097154047966e+09,1.381841818362189167e-01,4.066144483257931319e-01,1.905290413113718717e+00,-9.294420660351540575e-02,6.578997505562343973e-01,2.679963496708755444e-01,5.097476186766346506e-01
4.466666666666666785e+00,1.644186097171003819e+09,1.421180259132763246e-01,4.071989021161933064e-01,1.907628228275319415e+00,-9.294420660351540575e-02,5.202107891453169319e-01,2.765498310093528755e-01,5.166509655258491041e-01
4.483333333333333393e+00,1.644186097186961889e+09,1.464930675333565580e-01,4.270703309897966871e-01,1.987113943769732938e+00,-9.294420660351540575e-02,3.749066231510983505e-01,2.852000898027006737e-01,5.213669893015162593e-01
4.500000000000000000e+00,1.644186097203904629e+09,1.513238427230065020e-01,4.323304151033975917e-01,2.008154280224136556e+00,-9.294420660351540575e-02,2.231576539305608342e-01,2.939080644948477983e-01,5.235838157599350673e-01
4.516666666666666607e+00,1.644186097221077681e+09,1.566226789399232100e-01,4.744110880122048290e-01,2.176476971859365506e+00,-9.294420660351540575e-02,6.622123021193228321e-02,3.026368161718471228e-01,5.238656027200047083e-01
4.533333333333333215e+00,1.644186097237035513e+09,1.623995260426657483e-01,5.135694919690115823e-01,2.333110587686592297e+00,-9.294420660351540575e-02,-9.456858652754357442e-02,3.113534255862012712e-01,5.221323417296750424e-01
4.549999999999999822e+00,1.644186097254987478e+09,1.686618010495084252e-01,4.259014234089963935e-01,1.982438313446531764e+00,-9.294420660351540575e-02,-2.578121907023153137e-01,3.200067306708203052e-01,5.162805238568340949e-01
4.566666666666666430e+00,1.644186097270821810e+09,1.754142482484256638e-01,3.925875573561907750e-01,1.849182849235309289e+00,-9.294420660351540575e-02,-4.220564406349524567e-01,3.285360268880074264e-01,5.072600795850009670e-01
4.583333333333333037e+00,1.644186097288800716e+09,1.826588161251603559e-01,4.071989021161933064e-01,1.907628228275319415e+00,-9.294420660351540575e-02,-5.858074013943049829e-01,3.368956290374162110e-01,4.959236691142903108e-01
4.599999999999999645e+00,1.644186097305758238e+09,1.903945524674983680e-01,3.318043631545801175e-01,1.606050072428866660e+00,-9.294420660351540575e-02,-7.475437089042307193e-01,3.450351041721477774e-01,4.808552048837312354e-01
4.616666666666666252e+00,1.644186097323812008e+09,1.986175188819636339e-01,3.125173880713768559e-01,1.528902172096053835e+00,-9.294420660351540575e-02,-9.057304337943531403e-01,3.529010067441737397e-01,4.631024182163223646e-01
4.633333333333332860e+00,1.644186097340964317e+09,2.073207258249851748e-01,2.990749508921745625e-01,1.475132423379244440e+00,-9.294420660351540575e-02,-1.058833316601558439e+00,3.604504782394643003e-01,4.428903072925420292e-01
4.650000000000000355e+00,1.644186097355926275e+09,2.164940891050749217e-01,2.657610848393687775e-01,1.341876959168021299e+00,-9.294420660351540575e-02,-1.205333240270365813e+00,3.676410369558463231e-01,4.200402126523100077e-01
4.666666666666666963e+00,1.644186097374018192e+09,2.261244086567253675e-01,2.938148667785736579e-01,1.454092086924840821e+00,-9.294420660351540575e-02,-1.343740801515016736e+00,3.744386747089700762e-01,3.957438093202455542e-01
4.683333333333333570e+00,1.644186097391447544e+09,2.361953702217707562e-01,3.066728501673757767e-01,1.505524020480049296e+00,-9.294420660351540575e-02,-1.472610839559349794e+00,3.808187045950351401e-01,3.699314796109809400e-01
4.700000000000000178e+00,1.644186097408405066e+09,2.466875704009861558e-01,3.084262115385761893e-01,1.512537465964850947e+00,-9.294420660351540575e-02,-1.590556779111868657e+00,3.867560456209296893e-01,3.426252957921981923e-01
4.716666666666666785e+00,1.644186097424361706e+09,2.575785653591733393e-01,2.599165469353677538e-01,1.318498807552017205e+00,-9.294420660351540575e-02,-1.696264644197786664e+00,3.922207545247611282e-01,3.132214519339930892e-01
4.733333333333333393e+00,1.644186097442311525e+09,2.688429432821383691e-01,2.523186476601664285e-01,1.288107210451211904e+00,-9.294420660351540575e-02,-1.788506600680323411e+00,3.971856707071800829e-01,2.826534032012382180e-01
4.750000000000000000e+00,1.644186097458552122e+09,2.804524204953735556e-01,2.727745303241700392e-01,1.369930741107226346e+00,-9.294420660351540575e-02,-1.866153887965681379e+00,4.016374421795201322e-01,2.516453091015396493e-01
4.766666666666666607e+00,1.644186097474803448e+09,2.923759609633491685e-01,2.721900765337698092e-01,1.367592925945625426e+00,-9.294420660351540575e-02,-1.928189004493175984e+00,4.055680458906634200e-01,2.201147232577396196e-01
4.783333333333333215e+00,1.644186097491082430e+09,3.045799186966404726e-01,3.370644472681810222e-01,1.627090408883270278e+00,-9.294420660351540575e-02,-1.973717017140721230e+00,4.089801669866252043e-01,1.894250593305688291e-01
4.799999999999999822e+00,1.644186097508146048e+09,3.170282024032789470e-01,3.645337754169859501e-01,1.736967721478489990e+00,-9.294420660351540575e-02,-2.001975871588547395e+00,4.118849235057293057e-01,1.592296012086053536e-01
4.816666666666666430e+00,1.644186097526529312e+09,3.296824615322356822e-01,3.259598252505792604e-01,1.582671920812863231e+00,-9.294420660351540575e-02,-2.012345588928425855e+00,4.142838328774323675e-01,1.287242624422715032e-01
4.833333333333333037e+00,1.644186097543474197e+09,3.425022926724530237e-01,3.558416579658346679e-01,1.606050072428866660e+00,-6.089448018850930622e-02,-2.004356243314930897e+00,4.161837641350222827e-01,9.934908809552997488e-02
4.849999999999999645e+00,1.644186097560614109e+09,3.554454650919174896e-01,3.049194887961756417e-01,1.498510574995248978e+00,-9.294420660351540575e-02,-1.977694626148740031e+00,4.175948155876899603e-01,7.005845102031957317e-02
4.866666666666666252e+00,1.644186097576597214e+09,3.684681640293788196e-01,2.932304129881735943e-01,1.451754271763240567e+00,-9.294420660351540575e-02,-1.932209514065954759e+00,4.185264033185723265e-01,4.181054493814086170e-02
4.883333333333332860e+00,1.644186097593550682e+09,3.815252501881093439e-01,3.195308335561781732e-01,1.556955954035258882e+00,-9.294420660351540575e-02,-1.867915470775785902e+00,4.190036071821867658e-01,1.552693045419960283e-02
4.900000000000000355e+00,1.644186097611636639e+09,3.945705337278754832e-01,2.879703288745726897e-01,1.430713935308836948e+00,-9.294420660351540575e-02,-1.784995126424029355e+00,4.190534749570318240e-01,-9.473350613136394260e-03
4.916666666666666963e+00,1.644186097629713297e+09,4.075570609095763297e-01,2.873858750841725707e-01,1.428376120147236472e+00,-9.294420660351540575e-02,-1.683799892533708320e+00,4.187040208431993538e-01,-3.239746345679616474e-02
4.933333333333333570e+00,1.644186097644672155e+09,4.204374114180435273e-01,3.236220100889786733e-01,1.573320660166460883e+00,-9.294420660351540575e-02,-1.564849085550144236e+00,4.179970989697382455e-01,-5.237765950768778767e-02
4.950000000000000178e+00,1.644186097661623955e+09,4.331640042734940521e-01,-3.714766279154513851e-01,-1.207073891851259351e+00,-9.294420660351540575e-02,-1.428827447450298660e+00,4.168827135092201819e-01,-8.126834196993223958e-02
4.966666666666666785e+00,1.644186097679572105e+09,4.456894101423438115e-01,2.745278916953702852e-01,1.376944186592027330e+00,-9.294420660351540575e-02,-1.276581067614670717e+00,4.154010618823444356e-01,-9.648757660837818662e-02
4.983333333333333393e+00,1.644186097696525812e+09,4.579666677743476910e-01,2.142544618793103262e-01,1.231999646572802254e+00,-1.249939330185202979e-01,-1.109111726047627755e+00,4.136826643859288777e-01,-1.096834668481012492e-01
5.000000000000000000e+00,1.644186097715953588e+09,4.699496022264214590e-01,2.873111856793230112e-01,1.524226541772852883e+00,-1.249939330185202979e-01,-9.275696939092606952e-01,4.117813233156698560e-01,-1.184531009150078668e-01
5.016666666666666607e+00,1.644186097730939388e+09,4.783985035884716353e-01,3.200405979417286217e-01,1.655144190822475325e+00,-1.249939330185202979e-01,-7.332450430272764441e-01,4.097663937643571397e-01,-1.233249121151209354e-01
5.033333333333333215e+00,1.644186097748008251e+09,4.863473887758127390e-01,3.878372376281403744e-01,1.926330749568122336e+00,-1.249939330185202979e-01,-5.240579886386911301e-01,4.077091973827355886e-01,-1.235380615836752100e-01
5.049999999999999822e+00,1.644186097764755726e+09,4.937644918801066263e-01,4.058806157256929503e-01,2.094653441203350841e+00,-1.570436594335263836e-01,-3.079257841040264343e-01,4.056808223986024253e-01,-1.198771060725142834e-01
5.066666666666666430e+00,1.644186097781494856e+09,5.006209224043864925e-01,4.433603477161499606e-01,2.148423189920160681e+00,-1.249939330185202979e-01,-8.661053241500554778e-02,4.037487025789304185e-01,-1.119991559978232021e-01
5.083333333333333037e+00,1.644186097798994303e+09,5.068908595165568798e-01,4.112153892441443026e-01,2.019843356032138271e+00,-1.249939330185202979e-01,1.380817650206789260e-01,4.019733885553080088e-01,-1.010688894031203794e-01
5.099999999999999645e+00,1.644186097815345526e+09,5.125517256491787244e-01,4.204919604856954818e-01,2.153098820243361189e+00,-1.570436594335263836e-01,3.643173942374820506e-01,4.004112650103624493e-01,-8.642660994612186287e-02
5.116666666666666252e+00,1.644186097830796003e+09,5.175843381199269899e-01,3.819180103192888476e-01,1.998803019577734430e+00,-1.570436594335263836e-01,5.902513415780666906e-01,3.991170353137191151e-01,-6.892955771785595764e-02
5.133333333333332860e+00,1.644186097848396540e+09,5.219730376088727031e-01,4.275800953753472466e-01,2.085302180556949825e+00,-1.249939330185202979e-01,8.140437788744800951e-01,3.981492236457066514e-01,-4.726801481234635394e-02
5.150000000000000355e+00,1.644186097865654230e+09,5.257057924996476617e-01,4.812751546873061392e-01,2.396231597049804041e+00,-1.570436594335263836e-01,1.033876465746923490e+00,3.975772255784568721e-01,-2.144348973785940166e-02
5.166666666666666963e+00,1.644186097883680582e+09,5.287742782702724575e-01,4.199821961001459214e-01,2.054910583456144746e+00,-1.249939330185202979e-01,1.247968914816582675e+00,3.974531741080275515e-01,6.479746914515412820e-03
5.183333333333333570e+00,1.644186097899199724e+09,5.311739313045966693e-01,3.591990018985354860e-01,1.811777806649702782e+00,-1.249939330185202979e-01,1.454594168111816188e+00,3.978107969217314910e-01,3.635201026765068344e-02
5.200000000000000178e+00,1.644186097917252302e+09,5.329039766854765103e-01,2.778852356280710478e-01,1.582671920812863231e+00,-1.570436594335263836e-01,1.652094036892440165e+00,3.986782125018534795e-01,6.765091589620386703e-02
5.216666666666666785e+00,1.644186097934206009e+09,5.339674297245745604e-01,2.328822937672631321e-01,1.402660153369631679e+00,-1.570436594335263836e-01,1.838893662486126734e+00,4.000825385173650273e-01,1.007761891515821656e-01
5.233333333333333393e+00,1.644186097949216604e+09,5.343710711794604773e-01,2.445713695752652073e-01,1.449416456601640091e+00,-1.570436594335263836e-01,2.013515262470241485e+00,4.020601104646996937e-01,1.364333944050059588e-01
5.250000000000000000e+00,1.644186097966160059e+09,5.341253963050387465e-01,2.767163280472708653e-01,1.577996290489662501e+00,-1.570436594335263836e-01,2.174590934575430623e+00,4.046537319051833892e-01,1.746948940082339308e-01
5.266666666666666607e+00,1.644186097984116077e+09,5.332445380817381064e-01,3.024322948248751586e-01,1.680860157600079896e+00,-1.570436594335263836e-01,2.320874399953314793e+00,4.079035169556963769e-01,2.151668872040241043e-01
5.283333333333333215e+00,1.644186098001065969e+09,5.317461651558050839e-01,3.450974215240825149e-01,1.851520664396909321e+00,-1.570436594335263836e-01,2.451251577850175334e+00,4.118461459036985572e-01,2.578300749122595104e-01
5.299999999999999822e+00,1.644186098019400835e+09,5.296513552160064808e-01,3.211348161176783567e-01,1.755670242771292688e+00,-1.570436594335263836e-01,2.564749895156943182e+00,4.165063020366008284e-01,3.012679973006009426e-01
5.316666666666666430e+00,1.644186098035330296e+09,5.269844447145801691e-01,3.456818753144827450e-01,1.853858479558510020e+00,-1.570436594335263836e-01,2.660546246652382596e+00,4.219010457670602787e-01,3.459770556029225785e-01
5.333333333333333037e+00,1.644186098053309202e+09,5.237728560169789827e-01,2.649525628344190920e-01,1.627090408883270278e+00,-1.890933858485313035e-01,2.737973534898780148e+00,4.280343091545490419e-01,3.898925605109871406e-01
5.349999999999999645e+00,1.644186098070261240e+09,5.200469032334527064e-01,1.725341745463528365e-01,1.353566034976023458e+00,-2.211431122635373892e-01,2.796525732558869048e+00,4.348887543772406161e-01,4.325224470733826099e-01
5.366666666666666252e+00,1.644186098087646484e+09,5.158395781445064276e-01,2.094294527464095335e-01,1.404997968531231933e+00,-1.890933858485313035e-01,2.835861424243697471e+00,4.424583387076999608e-01,4.757077106927584120e-01
5.383333333333332860e+00,1.644186098105848551e+09,5.111863177805395786e-01,1.883891162920059426e-01,1.320836622713617681e+00,-1.890933858485313035e-01,2.855805799733091455e+00,4.507415612869808963e-01,5.181610700472291109e-01
5.400000000000000355e+00,1.644186098122801781e+09,5.061247553523802178e-01,2.129361754888101921e-01,1.419024859500834568e+00,-1.890933858485313035e-01,2.856351085388729061e+00,4.597299419435173506e-01,5.603274770719849363e-01
5.416666666666666963e+00,1.644186098138760090e+09,5.006944563528836767e-01,1.731186283367529000e-01,1.355903850137623712e+00,-2.211431122635373892e-01,2.837655415658377756e+00,4.694071901305760797e-01,6.008297962848450080e-01
5.433333333333333570e+00,1.644186098156712055e+09,4.949366417593810685e-01,1.444803926071479561e-01,1.241350907219203936e+00,-2.211431122635373892e-01,2.800040161600809263e+00,4.797447318055753640e-01,6.395675971799783532e-01
5.450000000000000178e+00,1.644186098173665524e+09,4.888939003616394885e-01,1.210275515862943851e-01,1.243688722380804412e+00,-2.531928386785423091e-01,2.743985748197470542e+00,4.907115714294519315e-01,6.763509792191645387e-01
5.466666666666666785e+00,1.644186098192149401e+09,4.826098923194351298e-01,5.556872706148308777e-02,9.818534242815591950e-01,-2.531928386785423091e-01,2.670126006714671263e+00,5.022671441317142493e-01,7.102236520798381747e-01
5.483333333333333393e+00,1.644186098208204031e+09,4.761290461172459909e-01,-4.630013349727384736e-03,7.410584626367173744e-01,-2.531928386785423091e-01,2.579241122396894070e+00,5.143617151255435171e-01,7.410392662367950578e-01
5.500000000000000000e+00,1.644186098224500656e+09,4.694962511303980568e-01,-3.977193017858382529e-02,6.966399745663098830e-01,-2.852425650935483947e-01,2.472249251172163653e+00,5.269459918309252755e-01,7.689962782146395615e-01
5.516666666666666607e+00,1.644186098242163658e+09,4.627565480470149928e-01,-2.139319238201612960e-01,0.000000000000000000e+00,-2.852425650935483947e-01,2.350196891703073554e+00,5.399514443014805654e-01,7.915952418754661490e-01
5.533333333333333215e+00,1.644186098259531498e+09,4.559548194029326984e-01,-9.303191450984255040e-02,5.797492164862896313e-01,-3.172922915085532591e-01,2.214248110900024713e+00,5.533283462424184451e-01,8.135719432076979896e-01
5.549999999999999822e+00,1.644186098277443409e+09,4.491354824824563274e-01,-1.106402176266960413e-01,6.054651832638939801e-01,-3.493420179235594003e-01,2.065672731812012053e+00,5.670455377328327273e-01,8.324386269537056293e-01
5.566666666666666430e+00,1.644186098294425488e+09,4.423421868163064929e-01,-1.259107055819481957e-01,6.405324106879001222e-01,-3.813917443385642647e-01,1.905833602520192294e+00,5.810503818488654826e-01,8.480991644533103502e-01
5.583333333333333037e+00,1.644186098312350273e+09,4.356175184696710057e-01,-8.858035240119210840e-02,8.860030026559426730e-01,-4.134414707535703504e-01,1.736173073188128413e+00,5.952957943720124101e-01,8.613136306099457018e-01
5.599999999999999645e+00,1.644186098329340219e+09,4.290027132581500924e-01,-8.448917586839140015e-02,9.023677087871455615e-01,-4.134414707535703504e-01,1.558198815686502536e+00,6.097356059912046877e-01,8.714356463210553017e-01
5.616666666666666252e+00,1.644186098343269587e+09,4.225373809580283413e-01,-1.395025215708504684e-01,7.784635052223238816e-01,-4.454911971685752703e-01,1.373469126142094598e+00,6.243096063867349388e-01,8.774277560017124111e-01
5.633333333333332860e+00,1.644186098361247301e+09,4.162592424903130972e-01,-1.699688080765061338e-01,7.527475384447195328e-01,-4.775409235835813559e-01,1.183577855302571535e+00,6.389522117479912167e-01,8.796786347608904766e-01
5.650000000000000355e+00,1.644186098378176928e+09,4.102038819560147598e-01,-1.869179679981091136e-01,6.849508987583076136e-01,-4.775409235835813559e-01,9.901391147199717357e-01,6.536029619809413660e-01,8.784149036399714339e-01
5.666666666666666963e+00,1.644186098396128178e+09,4.044045152840115009e-01,-1.980972794205605181e-01,7.363828323135167553e-01,-5.095906499985862759e-01,7.947719084071029894e-01,6.682042962676254527e-01,8.737581465030630490e-01
5.683333333333333570e+00,1.644186098414113045e+09,3.988917771234432585e-01,-2.268102045550159096e-01,7.176803110207135017e-01,-5.416403764135924170e-01,5.990848397989285701e-01,6.826976668898755429e-01,8.654693531348781610e-01
5.700000000000000178e+00,1.644186098432030439e+09,3.936935274709912891e-01,-1.975875150350108744e-01,8.345710691007336424e-01,-5.416403764135924170e-01,4.046610425568988312e-01,6.970312181488359515e-01,8.545870273346158896e-01
5.716666666666666785e+00,1.644186098447987556e+09,3.888346793706470850e-01,-2.081823726670621877e-01,8.883408178175430381e-01,-5.736901028285972259e-01,2.130434810025612080e-01,7.111569707031586418e-01,8.405422932525514756e-01
5.733333333333333393e+00,1.644186098466937065e+09,3.843370488609142432e-01,-1.848042210510581485e-01,9.818534242815591950e-01,-5.736901028285972259e-01,2.572076178745574815e-02,7.250279401163125526e-01,8.240199328516708555e-01
5.750000000000000000e+00,1.644186098482894421e+09,3.802192281730705226e-01,-1.719462376622559463e-01,1.033285357836768004e+00,-5.736901028285972259e-01,-1.558864071563046405e-01,7.386025112110713442e-01,8.049814843432694378e-01
5.766666666666666607e+00,1.644186098500847101e+09,3.764964830055101963e-01,-1.965679862639106157e-01,1.030947542675167528e+00,-6.057398292436033671e-01,-3.304379812297492114e-01,7.518348945119880389e-01,7.829656682507917242e-01
5.783333333333333215e+00,1.644186098515831709e+09,3.731806745146121207e-01,-7.013866939653823351e-01,-8.921781088857044795e-01,-6.377895556586082870e-01,-4.966864463357645310e-01,7.646107002474493708e-01,7.502219768436445557e-01
5.799999999999999822e+00,1.644186098533758640e+09,3.702802064736011034e-01,-7.275935208819492850e-01,-8.047070580619395397e-01,-7.018890084886192371e-01,-6.534876769118262985e-01,7.768200232035703534e-01,7.149946339242940763e-01
5.816666666666666430e+00,1.644186098554737091e+09,3.677999978587966345e-01,-7.656261838250054685e-01,-8.606885305891491811e-01,-7.339387349036241570e-01,-7.998106835344277465e-01,7.884216260988149427e-01,6.773024165730588964e-01
5.833333333333333037e+00,1.644186098568666935e+09,3.657414809291765767e-01,-2.694137032977725887e-01,1.220310570764800318e+00,-7.659884613186302982e-01,-9.347461601748332516e-01,7.994501311994505199e-01,6.462045804145465366e-01
5.849999999999999645e+00,1.644186098586643934e+09,3.641026246715861059e-01,-2.864375526242251002e-01,1.248364352704004920e+00,-7.980381877336351071e-01,-1.057513753419081493e+00,8.099453262156249833e-01,6.133101969643169893e-01
5.866666666666666252e+00,1.644186098603573084e+09,3.628779832919493686e-01,-3.450323104739351221e-01,1.206283679795197683e+00,-8.621376405636461682e-01,-1.167467988935097400e+00,8.198735448252196800e-01,5.781736400312385005e-01
5.883333333333332860e+00,1.644186098619530678e+09,3.620587692437650662e-01,-3.363401930227840619e-01,1.337201328844820569e+00,-8.941873669786521983e-01,-1.264102804048216511e+00,8.292088605420901981e-01,5.421642743631847061e-01
5.900000000000000355e+00,1.644186098638503551e+09,3.616329501006061431e-01,-4.324146828629501504e-01,1.241350907219203936e+00,-9.903365462236681793e-01,-1.347054649336683063e+00,8.379242665893098518e-01,5.037910461126378081e-01
5.916666666666666963e+00,1.644186098661417007e+09,3.615853684006525848e-01,-4.337329692534502290e-01,1.428376120147236472e+00,-1.054435999053679129e+00,-1.416104136541042280e+00,8.459956997297863879e-01,4.648889945422530201e-01
5.933333333333333570e+00,1.644186098676378489e+09,3.618978834198388062e-01,-4.244563980118989943e-01,1.561631584358459612e+00,-1.086485725468685271e+00,-1.471176224652465780e+00,8.534178132152230312e-01,4.258730040124102389e-01
5.950000000000000178e+00,1.644186098690341234e+09,3.625495336673899005e-01,-4.841453740375589176e-01,1.419024859500834568e+00,-1.118535451883690079e+00,-1.512338950659976033e+00,8.601811194125019711e-01,3.858349590701724563e-01
5.966666666666666785e+00,1.644186098714526892e+09,3.635167187444844350e-01,-5.778820487161254738e-01,1.332525698521619839e+00,-1.214684631128707171e+00,-1.539800725949702631e+00,8.662659149451046314e-01,3.444554506264726479e-01
5.983333333333333393e+00,1.644186098722497940e+09,3.647733990648320823e-01,-5.895711245241275211e-01,1.285769395289611650e+00,-1.214684631128707171e+00,-1.553906233617243338e+00,8.716632046012586787e-01,3.033335383346290604e-01
6.000000000000000000e+00,1.644186098744412899e+09,3.662913118060465711e-01,-6.135337299305316794e-01,1.189918973663995017e+00,-1.214684631128707171e+00,-1.555130975834912999e+00,8.763773299425714480e-01,2.624750012305588354e-01
6.016666666666666607e+00,1.644186098760370016e+09,3.680402013439061371e-01,-6.545201846633882381e-01,1.122122333977583430e+00,-1.246734357543712202e+00,-1.544074533771762514e+00,8.804119891187309754e-01,2.217970967471468158e-01
6.033333333333333215e+00,1.644186098778322935e+09,3.699880623187815076e-01,-7.860969769082614134e-01,6.919643442431090419e-01,-1.278784083958718121e+00,-1.521452615263989339e+00,8.837592527711054524e-01,1.799906732252348762e-01
6.049999999999999822e+00,1.644186098795279503e+09,3.721013933954208097e-01,-7.825902541658609213e-01,7.059912352127112323e-01,-1.278784083958718121e+00,-1.488087977350903923e+00,8.864206097129232464e-01,1.394846790914710533e-01
6.066666666666666430e+00,1.644186098818261862e+09,3.743454597046292354e-01,-7.920162042171120520e-01,7.644366142527213581e-01,-1.310833810373723152e+00,-1.444900321809455601e+00,8.884171246442411629e-01,1.002062220597104009e-01
6.083333333333333037e+00,1.644186098830151320e+09,3.766845618986426891e-01,-7.756514980859090524e-01,8.298954387775330233e-01,-1.310833810373723152e+00,-1.392895271830474568e+00,8.897738670499422131e-01,6.270703348873629679e-02
6.099999999999999645e+00,1.644186098848429680e+09,3.790823097116174933e-01,-8.259892134651684037e-01,7.246937565055144859e-01,-1.342883536788729293e+00,-1.333152546883308531e+00,8.905121014107111321e-01,2.598310312215941498e-02
6.116666666666666252e+00,1.644186098865490675e+09,3.815018978928957916e-01,-1.183847522876377845e+00,-7.067394811393234999e-01,-1.342883536788729293e+00,-1.266813460525717083e+00,8.906030778124089942e-01,-1.495222300290670325e-02
6.133333333333332860e+00,1.644186098881475925e+09,3.839063823737492998e-01,-1.007162652591546914e+00,0.000000000000000000e+00,-1.342883536788729293e+00,-1.195067872357015837e+00,8.900517661252402846e-01,-5.110475339821404089e-02
6.150000000000000355e+00,1.644186098898456335e+09,3.862589545380638589e-01,-8.903538198140289461e-01,5.633845103550867428e-01,-1.374933263203734102e+00,-1.119140730422784724e+00,8.889295264593506385e-01,-8.347408956960458704e-02
6.166666666666666963e+00,1.644186098914412498e+09,3.885232114939849990e-01,-8.055333308011646265e-01,8.065172871615290395e-01,-1.342883536788729293e+00,-1.040278344108809039e+00,8.872948766865476067e-01,-1.126029677119678302e-01
6.183333333333333570e+00,1.644186098931012630e+09,3.906634202863518701e-01,-8.120370119004153286e-01,8.766517420095408797e-01,-1.374933263203734102e+00,-9.597345298755038945e-01,8.851889953666878252e-01,-1.400266120883733034e-01
6.200000000000000178e+00,1.644186098947615623e+09,3.926447740488003268e-01,-8.296453150172687918e-01,9.023677087871455615e-01,-1.406982989618740243e+00,-8.787567730606576921e-01,8.826385936952304556e-01,-1.659495785515479882e-01
6.216666666666666785e+00,1.644186098965706110e+09,3.944336381688055004e-01,-8.565301893756734897e-01,7.948282113535267701e-01,-1.406982989618740243e+00,-7.985725484108617822e-01,8.796670848086399763e-01,-1.905631152947330487e-01
6.233333333333333393e+00,1.644186098981675386e+09,3.959977846284332137e-01,-8.793238872012774099e-01,7.036534200511108672e-01,-1.406982989618740243e+00,-7.203759399973256317e-01,8.762964022212943460e-01,-2.138540964940307543e-01
6.250000000000000000e+00,1.644186098999609709e+09,3.973066127870656938e-01,-8.834150637340781875e-01,6.872887139199079787e-01,-1.406982989618740243e+00,-6.453146977534375273e-01,8.725505559967932090e-01,-2.355870796276548496e-01
6.266666666666666607e+00,1.644186099014541388e+09,3.983313549893249816e-01,-9.331683253229361430e-01,5.844248468094903615e-01,-1.439032716033745052e+00,-5.744778630730713598e-01,8.684484072308417124e-01,-2.566123673349701151e-01
6.283333333333333215e+00,1.644186099032595396e+09,3.990452655106329627e-01,-1.284824854081981993e+00,-8.222012682266927053e-01,-1.439032716033745052e+00,-5.088840897821125253e-01,8.639592298958084227e-01,-2.820183390643384302e-01
6.299999999999999822e+00,1.644186099047672272e+09,3.994237914934165579e-01,-8.612805091037238903e-01,8.719761116863400385e-01,-1.439032716033745052e+00,-4.494707794019667801e-01,8.591168351364512068e-01,-2.990217991134093700e-01
6.316666666666666430e+00,1.644186099066934347e+09,3.994447246777074190e-01,-9.016825100461811626e-01,8.065172871615290395e-01,-1.471082442448751193e+00,-3.970841410399574833e-01,8.539950532267627237e-01,-3.155461280551564718e-01
6.333333333333333037e+00,1.644186099082879066e+09,3.990883328895108439e-01,-8.707811485598253576e-01,1.026271912351966797e+00,-1.503132168863756002e+00,-3.524702765538776372e-01,8.486105783839615890e-01,-3.305491769642504019e-01
6.349999999999999645e+00,1.644186099099477291e+09,3.983374704176657066e-01,-9.263789480526853914e-01,9.000298936255448634e-01,-1.535181895278762143e+00,-3.162673809448732776e-01,8.429754461208083249e-01,-3.456248168510565044e-01
6.366666666666666252e+00,1.644186099116748571e+09,3.971776665835223818e-01,-1.366558554106358736e+00,-8.606885305891491811e-01,-1.535181895278762143e+00,-2.889991363435135963e-01,8.370341039245038361e-01,-3.672761028289165397e-01
6.383333333333332860e+00,1.644186099132704973e+09,3.955971919862653619e-01,-9.995103612575475527e-01,7.036534200511108672e-01,-1.567231621693767174e+00,-2.710693655840354932e-01,8.307880707967507661e-01,-3.822063984818565574e-01
6.400000000000000355e+00,1.644186099151649714e+09,3.935871020887373728e-01,-1.019456479536001492e+00,7.200181261823138668e-01,-1.599281348108773093e+00,-2.627579983377892336e-01,8.242936545903827295e-01,-3.970822235733850736e-01
6.416666666666666963e+00,1.644186099167607546e+09,3.911412579925803712e-01,-1.034067824296003968e+00,6.615727471423037409e-01,-1.599281348108773093e+00,-2.642183892290066449e-01,8.175511427860593372e-01,-4.119778153278118582e-01
6.433333333333333570e+00,1.644186099184799671e+09,3.882563244360799914e-01,-1.021209840907201682e+00,7.130046806975126605e-01,-1.599281348108773093e+00,-2.754760134215843426e-01,8.105626495481385030e-01,-4.266007529953708133e-01
6.450000000000000178e+00,1.644186099201071501e+09,3.849317452316935451e-01,-9.855581596927956989e-01,8.556114055551372610e-01,-1.599281348108773093e+00,-2.964285509846085187e-01,8.033344906629276139e-01,-4.407390392881166963e-01
6.466666666666666785e+00,1.644186099218218088e+09,3.811696965414280158e-01,-9.849737059023954133e-01,8.579492207167376261e-01,-1.599281348108773093e+00,-3.268473570595951117e-01,7.958685257243709454e-01,-4.551367587322598940e-01
6.483333333333333393e+00,1.644186099234399557e+09,3.769750185656260411e-01,-9.867270672735958259e-01,8.509357752319364199e-01,-1.599281348108773093e+00,-3.663803006080683655e-01,7.881588849302361144e-01,-4.699789074028194458e-01
6.500000000000000000e+00,1.644186099253031015e+09,3.723551263927668553e-01,-9.844639415168450203e-01,9.561374575039545132e-01,-1.631331074523778124e+00,-4.145559404567948913e-01,7.801975835372166879e-01,-4.853346040426940733e-01
6.516666666666666607e+00,1.644186099270975351e+09,3.673199009234053847e-01,-9.838794877264448457e-01,9.584752726655548782e-01,-1.631331074523778124e+00,-4.707889936221461014e-01,7.719747885910352991e-01,-5.013562837856558874e-01
6.533333333333333215e+00,1.644186099285938740e+09,3.618815609388828514e-01,-1.044078228137655273e+00,7.176803110207135017e-01,-1.631331074523778124e+00,-5.343870376215864582e-01,7.634700796979044801e-01,-5.191593293218457195e-01
6.549999999999999822e+00,1.644186099302983522e+09,3.560545175337755941e-01,-1.068040833544059431e+00,6.218298893950967576e-01,-1.631331074523778124e+00,-6.045583758042513134e-01,7.546581105174444692e-01,-5.382240136305243006e-01
6.566666666666666430e+00,1.644186099319937944e+09,3.498552122691133137e-01,-1.057520665316857622e+00,6.639105623039039950e-01,-1.631331074523778124e+00,-6.804209827797322863e-01,7.455220046919720511e-01,-5.580536019399950920e-01
6.583333333333333037e+00,1.644186099336430788e+09,3.433019405298151083e-01,-1.056936211526457337e+00,6.662483774655043600e-01,-1.631331074523778124e+00,-7.610124359165095775e-01,7.360470939939692814e-01,-5.788778353660417597e-01
6.599999999999999645e+00,1.644186099353550673e+09,3.364146616840524295e-01,-1.199461011081579986e+00,0.000000000000000000e+00,-1.599281348108773093e+00,-8.453007287294558303e-01,7.261966614548861498e-01,-6.031067651571425658e-01
6.616666666666666252e+00,1.644186099368777514e+09,3.292147977428774297e-01,-1.199461011081579986e+00,0.000000000000000000e+00,-1.599281348108773093e+00,-9.321958528821647771e-01,7.159337579332507584e-01,-6.283714760349029538e-01
6.633333333333332860e+00,1.644186099387071609e+09,3.217250223052088298e-01,-1.223498305892833482e+00,0.000000000000000000e+00,-1.631331074523778124e+00,-1.020562027586514597e+00,7.052377402481633251e-01,-6.550764639078046070e-01
6.649999999999999467e+00,1.644186099404021263e+09,3.139690416450681698e-01,-1.199461011081579986e+00,0.000000000000000000e+00,-1.599281348108773093e+00,-1.109230448468175867e+00,6.940914010547288848e-01,-6.824083157068661087e-01
6.666666666666666963e+00,1.644186099420973063e+09,3.059713698544758165e-01,-1.199461011081579986e+00,0.000000000000000000e+00,-1.599281348108773093e+00,-1.197012422551162469e+00,6.824811815969240580e-01,-7.107393201429403895e-01
6.683333333333333570e+00,1.644186099436932087e+09,2.977570999961894338e-01,-1.223498305892833482e+00,0.000000000000000000e+00,-1.631331074523778124e+00,-1.282712751951520902e+00,6.703875348089083364e-01,-7.404158576523306445e-01
6.700000000000000178e+00,1.644186099456212044e+09,2.893516732450687190e-01,-1.223498305892833482e+00,0.000000000000000000e+00,-1.631331074523778124e+00,-1.365143226201069648e+00,6.577919926623375657e-01,-7.709643410406582520e-01
6.716666666666666785e+00,1.644186099473315477e+09,2.807806480053098852e-01,-1.199461011081579986e+00,0.000000000000000000e+00,-1.599281348108773093e+00,-1.443136081874657251e+00,6.446840761287412347e-01,-8.018997093896658157e-01
6.733333333333333393e+00,1.644186099490317583e+09,2.720694709828693769e-01,-1.223498305892833482e+00,0.000000000000000000e+00,-1.631331074523778124e+00,-1.515557288380209089e+00,6.310515200348417730e-01,-8.339180798669836303e-01
6.750000000000000000e+00,1.644186099507341385e+09,2.632432521683358839e-01,-1.223498305892833482e+00,0.000000000000000000e+00,-1.631331074523778124e+00,-1.581319520391337496e+00,6.168806637139947480e-01,-8.664941873175393550e-01
6.766666666666666607e+00,1.644186099522460461e+09,2.543265456454176787e-01,-1.199461011081579986e+00,0.000000000000000000e+00,-1.599281348108773093e+00,-1.639394680438746921e+00,6.021666703702570622e-01,-8.990944554991404658e-01
6.783333333333333215e+00,1.644186099540421486e+09,2.453431380844984799e-01,-1.223498305892833482e+00,0.000000000000000000e+00,-1.631331074523778124e+00,-1.688825839601816092e+00,5.869036944892789265e-01,-9.323702153764065192e-01
6.799999999999999822e+00,1.644186099557358265e+09,2.363158467098469551e-01,-1.247535600704088088e+00,0.000000000000000000e+00,-1.663380800938784265e+00,-1.728738470010691142e+00,5.710818858793236252e-01,-9.661529746116975792e-01
6.816666666666666430e+00,1.644186099576664686e+09,2.272663284436090281e-01,-1.247535600704088088e+00,0.000000000000000000e+00,-1.663380800938784265e+00,-1.758350849924697812e+00,5.546976072969862503e-01,-9.998668035398400322e-01
6.833333333333333037e+00,1.644186099592621088e+09,2.182149018303804200e-01,-1.247535600704088088e+00,0.000000000000000000e+00,-1.663380800938784265e+00,-1.776983530425767732e+00,5.377535145815923734e-01,-1.033331363009943660e+00
6.849999999999999645e+00,1.644186099610093355e+09,2.091803832338466063e-01,-1.271572895515341806e+00,0.000000000000000000e+00,-1.695430527353789074e+00,-1.784067762172361515e+00,5.202520028292383358e-01,-1.066757195552384685e+00
6.866666666666666252e+00,1.644186099625375986e+09,2.001799386724359420e-01,-1.133649036878570548e+00,5.516954345470849175e-01,-1.695430527353789074e+00,-1.779152791107612597e+00,5.022177396309437380e-01,-1.097269629487193088e+00
6.883333333333332860e+00,1.644186099642327309e+09,1.912289525254772526e-01,-1.067531069158509816e+00,7.200181261823138668e-01,-1.663380800938784265e+00,-1.761911943400030545e+00,4.836906638208494091e-01,-1.125899937219741131e+00
6.899999999999999467e+00,1.644186099658284664e+09,1.823409141957025859e-01,-1.103257439777765248e+00,6.732618229503058993e-01,-1.695430527353789074e+00,-1.732147432102993267e+00,4.646895471926179577e-01,-1.154155568456189052e+00
6.916666666666666963e+00,1.644186099676237345e+09,1.735273236597008051e-01,-1.106764162520165851e+00,6.592349319807033758e-01,-1.695430527353789074e+00,-1.689793830928894458e+00,4.452267716092299654e-01,-1.181302092763618639e+00
6.933333333333333570e+00,1.644186099692618370e+09,1.647976166760264372e-01,-1.247535600704088088e+00,0.000000000000000000e+00,-1.663380800938784265e+00,-1.634920174015090932e+00,4.253034392011246223e-01,-1.209419689934166264e+00
6.950000000000000178e+00,1.644186099708575487e+09,1.561591102526322661e-01,-1.096169304888114704e+00,6.054651832638939801e-01,-1.663380800938784265e+00,-1.567730654478651564e+00,4.049455508283307248e-01,-1.233460134217485127e+00
6.966666666666666785e+00,1.644186099726696730e+09,1.476169688024092097e-01,-1.078635691176111466e+00,6.755996381119062644e-01,-1.663380800938784265e+00,-1.488563908774460209e+00,3.842036651642013467e-01,-1.255504908552532051e+00
6.983333333333333393e+00,1.644186099744647741e+09,1.391741912392920888e-01,-1.103257439777765248e+00,6.732618229503058993e-01,-1.695430527353789074e+00,-1.397890888245324703e+00,3.631065344643550352e-01,-1.276093583319737323e+00
7.000000000000000000e+00,1.644186099761873722e+09,1.308316190891273545e-01,-1.106179708729765787e+00,6.615727471423037409e-01,-1.695430527353789074e+00,-1.296311333638895835e+00,3.416827294966090500e-01,-1.294711295724802369e+00
7.016666666666666607e+00,1.644186099777832747e+09,1.225879655106267840e-01,-1.082217103323361629e+00,7.574231687679202629e-01,-1.695430527353789074e+00,-1.184548882620097832e+00,3.199699472223553887e-01,-1.310777946549606332e+00
7.033333333333333215e+00,1.644186099793789387e+09,1.144398649438796295e-01,-1.045321825123305848e+00,8.088551023231294046e-01,-1.663380800938784265e+00,-1.063444854286929697e+00,2.980134295112392140e-01,-1.323967540161994139e+00
7.049999999999999822e+00,1.644186099810743809e+09,1.063819429283267282e-01,-1.083895775289712482e+00,6.545593016575026457e-01,-1.663380800938784265e+00,-9.339507682606975614e-01,2.758514649276990194e-01,-1.335436351304294167e+00
7.066666666666666430e+00,1.644186099827701569e+09,9.840690546039537745e-02,-1.128388952764969533e+00,5.727357710014885361e-01,-1.695430527353789074e+00,-7.971196689334736352e-01,2.535126913295449036e-01,-1.345189388067780767e+00
7.083333333333333037e+00,1.644186099845654488e+09,9.050564709448041811e-02,-1.090324766984113625e+00,6.288433348798978528e-01,-1.663380800938784265e+00,-6.540963377840128823e-01,2.310377261111661029e-01,-1.351788107928870719e+00
7.099999999999999645e+00,1.644186099863066196e+09,8.266737683097005740e-02,-1.072791153272110609e+00,6.989777897279102481e-01,-1.663380800938784265e+00,-5.061064881948456051e-01,2.084765558302582034e-01,-1.355541898339078788e+00
7.116666666666666252e+00,1.644186099878128290e+09,7.487976068294829868e-02,-1.056501136545757280e+00,8.602870358783379912e-01,-1.695430527353789074e+00,-3.544450478010751082e-01,1.858765383903116797e-01,-1.356457650638246193e+00
7.133333333333332860e+00,1.644186099896056414e+09,6.712907967020426137e-02,-1.034876346300953376e+00,9.467861968575531639e-01,-1.695430527353789074e+00,-2.004636429679211851e-01,1.632856397114967884e-01,-1.354455751780579309e+00
7.149999999999999467e+00,1.644186099912037134e+09,5.940040185646910942e-02,-1.035460800091353439e+00,9.444483816959527989e-01,-1.695430527353789074e+00,-4.555740843317424016e-02,1.407491445117324547e-01,-1.349936226722890487e+00
7.166666666666666963e+00,1.644186099929209232e+09,5.167776692444886466e-02,-1.014930228022500547e+00,9.304214907263502754e-01,-1.663380800938784265e+00,1.088487476252231745e-01,1.183115128387175058e-01,-1.342599953056496931e+00
7.183333333333333570e+00,1.644186099945557594e+09,4.394438167423259795e-02,-1.034876346300953376e+00,9.467861968575531639e-01,-1.695430527353789074e+00,2.613142868993340029e-01,9.601344275224768521e-02,-1.333194583960054080e+00
7.200000000000000178e+00,1.644186099961225748e+09,3.618282473489753404e-02,-1.032538531139353344e+00,9.561374575039545132e-01,-1.695430527353789074e+00,4.103974518553971107e-01,7.389174408444119935e-02,-1.321441903280313523e+00
7.216666666666666785e+00,1.644186099980175257e+09,2.837525869745302978e-02,-1.027278447025752328e+00,9.771777939583581318e-01,-1.695430527353789074e+00,5.546698002586087917e-01,5.198495363603558572e-02,-1.307411923611360383e+00
7.233333333333333393e+00,1.644186099997009993e+09,2.050364781023257532e-02,-9.991499756816979438e-01,9.935425000895610204e-01,-1.663380800938784265e+00,6.927307175865713429e-01,3.033301251560718836e-02,-1.290866970125850832e+00
7.250000000000000000e+00,1.644186100014257908e+09,1.254997932619470249e-02,-1.023771724283351725e+00,9.912046849279607663e-01,-1.695430527353789074e+00,8.232217612933282469e-01,8.969158142572056236e-03,-1.272845615135982822e+00
7.266666666666666607e+00,1.644186100031214952e+09,4.496486555496810068e-03,-1.020774765926501626e+00,9.070433391103462917e-01,-1.663380800938784265e+00,9.448406920351613003e-01,-1.207961742372656161e-02,-1.253062407467873118e+00
7.283333333333333215e+00,1.644186100046782732e+09,-3.674128343176326361e-03,-1.020265001540950900e+00,1.005231575897563179e+00,-1.695430527353789074e+00,1.056355049567850202e+00,-3.278593250112157159e-02,-1.231754591590029868e+00
7.299999999999999822e+00,1.644186100063840151e+09,-1.197847380295631418e-02,-9.085596381696822155e-01,1.355903850137623712e+00,-1.663380800938784265e+00,1.156615135046947795e+00,-5.311078358648702730e-02,-1.207295482223376570e+00
7.316666666666666430e+00,1.644186100080794811e+09,-2.043225247867235320e-02,-8.664789652608748671e-01,1.524226541772852883e+00,-1.663380800938784265e+00,1.244566266872113136e+00,-7.301340109571305415e-02,-1.181091409687296645e+00
7.333333333333333037e+00,1.644186100098486900e+09,-2.905005099558369622e-02,-8.319961916272690106e-01,1.662157636307276976e+00,-1.663380800938784265e+00,1.319260183961764366e+00,-9.246782384324613024e-02,-1.153515920400855377e+00
7.349999999999999645e+00,1.644186100116413355e+09,-3.784513770169495306e-02,-7.986823255744631700e-01,1.795413100518499894e+00,-1.663380800938784265e+00,1.379865478359506792e+00,-1.114534916817070814e-01,-1.124843866682643689e+00
7.366666666666666252e+00,1.644186100132045984e+09,-4.682927024814764749e-02,-7.033416683343963749e-01,2.080626550233748873e+00,-1.631331074523778124e+00,1.425676948284147816e+00,-1.299457561543291007e-01,-1.094312680877525867e+00
7.383333333333332860e+00,1.644186100149135351e+09,-5.601251474692363341e-02,-7.022474501584465845e-01,2.181152602182566458e+00,-1.663380800938784265e+00,1.456123773048384695e+00,-1.479290280482277731e-01,-1.063764803602128328e+00
7.399999999999999467e+00,1.644186100167075396e+09,-6.540307816510776417e-02,-6.711220204575412129e-01,2.113355962496154650e+00,-1.599281348108773093e+00,1.470776422589624266e+00,-1.654010650511080760e-01,-1.032965193230380052e+00
7.416666666666666963e+00,1.644186100184620857e+09,-7.500715551127280778e-02,-6.541728605359382609e-01,2.181152602182566458e+00,-1.599281348108773093e+00,1.469352226567856246e+00,-1.823618849562515520e-01,-1.002418050558038010e+00
7.433333333333333570e+00,1.644186100201321125e+09,-8.482879325273978699e-02,-5.688426071375235482e-01,2.522473615776225309e+00,-1.599281348108773093e+00,1.451719540971711853e+00,-1.988084545816000415e-01,-9.712568653687864151e-01
7.450000000000000178e+00,1.644186100219277859e+09,-9.486977027351173319e-02,-4.577216975566540391e-01,2.870808074854684921e+00,-1.567231621693767174e+00,1.417900463807064249e+00,-2.147292981512431698e-01,-9.393330423616365055e-01
7.466666666666666785e+00,1.644186100236227512e+09,-1.051294975427675416e-01,-4.126440662909967583e-01,2.954969420672299396e+00,-1.535181895278762143e+00,1.368072065589002850e+00,-2.301231435167652439e-01,-9.080153970078143066e-01
7.483333333333333393e+00,1.644186100252183914e+09,-1.156049375137360447e-01,-3.880223176893419779e-01,2.957307235833900538e+00,-1.503132168863756002e+00,1.302566114879555759e+00,-2.450050006815883141e-01,-8.778911432231543133e-01
7.500000000000000000e+00,1.644186100271137238e+09,-1.262905441140551588e-01,-5.049130757693620630e-01,2.489744203513819976e+00,-1.503132168863756002e+00,1.221867293866276238e+00,-2.594162388982201306e-01,-8.515306680382406235e-01
7.516666666666666607e+00,1.644186100291253328e+09,-1.371782240224190541e-01,-4.194334435612473988e-01,2.639364373856245560e+00,-1.439032716033745052e+00,1.126609913815997510e+00,-2.733931272911664934e-01,-8.257675051410484635e-01
7.533333333333333215e+00,1.644186100303752899e+09,-1.482573197537993270e-01,-3.850253593324919343e-01,2.873145890016286064e+00,-1.471082442448751193e+00,1.017573155017631237e+00,-2.869544958065098905e-01,-8.016636733642861223e-01
7.549999999999999822e+00,1.644186100321303368e+09,-1.595146148982843348e-01,-3.632511902779881341e-01,2.767944207744267970e+00,-1.406982989618740243e+00,8.956748704013264284e-01,-3.001312922183131393e-01,-7.796131489504272150e-01
7.566666666666666430e+00,1.644186100340341568e+09,-1.709343616777925234e-01,-3.666085342106889522e-01,2.562216473523431848e+00,-1.342883536788729293e+00,7.619640062449872797e-01,-3.129625574486143424e-01,-7.601926258528877156e-01
7.583333333333333037e+00,1.644186100359289169e+09,-1.824983308023345741e-01,-2.865383649258750332e-01,2.882497150662687524e+00,-1.342883536788729293e+00,6.176117071123430335e-01,-3.254817083461465921e-01,-7.421555859189142845e-01
7.599999999999999645e+00,1.644186100374394655e+09,-1.941858834243329612e-01,-2.543187170490190385e-01,2.915226562925093301e+00,-1.310833810373723152e+00,4.639011852730453578e-01,-3.377195135765337364e-01,-7.264247395514600303e-01
7.616666666666666252e+00,1.644186100392772198e+09,-2.059740648073119795e-01,-1.846940265865573416e-01,3.097576145529925107e+00,-1.278784083958718121e+00,3.022164472049559958e-01,-3.497100261661900689e-01,-7.124755199514970494e-01
7.633333333333332860e+00,1.644186100410240412e+09,-2.178377191456601358e-01,-3.161214400217297049e-01,2.475717312544217563e+00,-1.246734357543712202e+00,1.340299812490605147e-01,-3.615113612542052990e-01,-7.037090425096930169e-01
7.649999999999999467e+00,1.644186100428505421e+09,-2.297496247962383942e-01,-3.026043134376778521e-01,2.433636639635410326e+00,-1.214684631128707171e+00,-3.911047903615916255e-02,-3.731898464695938555e-01,-6.977258038355350633e-01
7.666666666666666963e+00,1.644186100444463015e+09,-2.416806490122471451e-01,-3.915159789833428938e-01,2.174139156697764808e+00,-1.246734357543712202e+00,-2.155959918960286825e-01,-3.848060942390311712e-01,-6.962280889140872731e-01
7.683333333333333570e+00,1.644186100461630583e+09,-2.535999211058658220e-01,-4.026206010009447112e-01,2.129720668627357760e+00,-1.246734357543712202e+00,-3.937711126651670668e-01,-3.964237303707621174e-01,-6.978836480101248130e-01
7.700000000000000178e+00,1.644186100477606297e+09,-2.654750228104894583e-01,-3.991138782585441080e-01,2.143747559596959729e+00,-1.246734357543712202e+00,-5.719491282945610156e-01,-4.080928561735747695e-01,-7.023989056498638472e-01
7.716666666666666785e+00,1.644186100495558500e+09,-2.772721944668574690e-01,-4.365189208441506707e-01,1.994127389254533700e+00,-1.246734357543712202e+00,-7.484276765293901290e-01,-4.198661543290307940e-01,-7.103747174506335194e-01
7.733333333333333393e+00,1.644186100512376308e+09,-2.889565555214035908e-01,-4.482079966521525516e-01,1.947371086022525954e+00,-1.246734357543712202e+00,-9.215046009802687621e-01,-4.317968010302093429e-01,-7.212726140433286526e-01
7.750000000000000000e+00,1.644186100531616926e+09,-3.004923377007459040e-01,-4.359344670537504407e-01,1.996465204416134620e+00,-1.246734357543712202e+00,-1.089493890606901161e+00,-4.439290816568238207e-01,-7.345641393777250228e-01
7.766666666666666607e+00,1.644186100547574282e+09,-3.118431291144353468e-01,-4.669105179449558607e-01,1.872561000851312940e+00,-1.246734357543712202e+00,-1.250741550882428887e+00,-4.563076019084673640e-01,-7.508131536065378864e-01
7.783333333333333215e+00,1.644186100563631535e+09,-3.229721274398614783e-01,-4.137252230185466395e-01,2.085302180556949825e+00,-1.246734357543712202e+00,-1.403641254142821371e+00,-4.689684673458051067e-01,-7.684417294552229327e-01
7.799999999999999822e+00,1.644186100580724478e+09,-3.338424002592784157e-01,-4.254142988265486314e-01,2.038545877324941635e+00,-1.246734357543712202e+00,-1.546649618347128552e+00,-4.819420744005326052e-01,-7.883358543533900420e-01
7.816666666666666430e+00,1.644186100599388361e+09,-3.444171505501027464e-01,-3.821647183369412115e-01,2.211544199283371537e+00,-1.246734357543712202e+00,-1.678300966669262539e+00,-4.952567125133883197e-01,-8.093623109906377122e-01
7.833333333333333037e+00,1.644186100614920378e+09,-3.546599852764268368e-01,-3.915159789833428938e-01,2.174139156697764808e+00,-1.246734357543712202e+00,-1.797221424977176962e+00,-5.089366043393417360e-01,-8.321613758973596120e-01
7.849999999999999645e+00,1.644186100633885145e+09,-3.645351849925824728e-01,-2.261155563001141511e-01,2.835740847430679779e+00,-1.246734357543712202e+00,-1.902142220290614860e+00,-5.229849780858762953e-01,-8.535839650940039158e-01
7.866666666666666252e+00,1.644186100648569822e+09,-3.740079723489427854e-01,-1.437075718536998670e-01,3.165372785216336915e+00,-1.246734357543712202e+00,-1.991912050684715219e+00,-5.373884529088147621e-01,-8.747741506467057171e-01
7.883333333333332860e+00,1.644186100665776968e+09,-3.830447773861320737e-01,-1.255895043512968434e-01,3.237845055225948787e+00,-1.246734357543712202e+00,-2.065508405753924137e+00,-5.521498333807238756e-01,-8.965310686765503023e-01
7.899999999999999467e+00,1.644186100681710958e+09,-3.916134975164758947e-01,-1.782650348921562544e-01,3.123292112307529678e+00,-1.278784083958718121e+00,-2.122047726585979177e+00,-5.672859088865227495e-01,-9.197335391953870287e-01
7.916666666666666963e+00,1.644186100699314594e+09,-3.996837501209491439e-01,-3.156713350173102201e-02,3.710083717869230746e+00,-1.278784083958718121e+00,-2.160794305124045245e+00,-5.827905772069198465e-01,-9.407682281854194972e-01
7.933333333333333570e+00,1.644186100716576338e+09,-4.072271157355786819e-01,3.213832965187987667e-02,3.964905570483673980e+00,-1.278784083958718121e+00,-2.181167834711526865e+00,-5.986369333271263082e-01,-9.607390304828739014e-01
7.950000000000000178e+00,1.644186100732534409e+09,-4.142173698633573320e-01,1.327390710055478262e-01,4.271159356653327244e+00,-1.246734357543712202e+00,-2.182749536402504464e+00,-6.147997012159462926e-01,-9.787431036840031906e-01
7.966666666666666785e+00,1.644186100751430988e+09,-4.206307015252330750e-01,6.202016236713548542e-02,3.988283722099678297e+00,-1.246734357543712202e+00,-2.165286799158300912e+00,-6.312674060288439026e-01,-9.973298428176249342e-01
7.983333333333333393e+00,1.644186100765772104e+09,-4.264459167566189146e-01,8.247604503113918628e-02,4.070107252755692961e+00,-1.246734357543712202e+00,-2.128696286205189026e+00,-6.480344433409913618e-01,-1.014666476191711686e+00
8.000000000000000000e+00,1.644186100786187410e+09,-4.316446253629973584e-01,2.135430728904617603e-01,4.402077005702950352e+00,-1.182634904713701030e+00,-2.073065474462787883e+00,-6.650622431994922534e-01,-1.028630716359416164e+00
8.016666666666665719e+00,1.644186100802571297e+09,-4.362114093690050987e-01,3.158971756153288735e-01,4.715344237357403934e+00,-1.150585178298696221e+00,-1.998652608924880614e+00,-6.822964365044437152e-01,-1.039442446942957288e+00
8.033333333333333215e+00,1.644186100817624807e+09,-4.401339717289263209e-01,2.663679822410205400e-01,4.324929105370137528e+00,-1.086485725468685271e+00,-1.905885069038604440e+00,-6.997033598955030298e-01,-1.049360808331857742e+00
8.050000000000000711e+00,1.644186100834147453e+09,-4.434032640116206125e-01,3.121794461067786131e-01,4.219727423098118990e+00,-9.903365462236681793e-01,-1.795356159336761070e+00,-7.172526255702801334e-01,-1.056531154544247064e+00
8.066666666666666430e+00,1.644186100852345943e+09,-4.460135919287290251e-01,2.415352268732160468e-01,3.841001366918853854e+00,-9.582868198086632594e-01,-1.667820351683221958e+00,-7.349125487488872288e-01,-1.062642650112473275e+00
8.083333333333333925e+00,1.644186100869129181e+09,-4.479626977400368304e-01,2.194006722428623879e-01,3.656313969152420906e+00,-9.262370933936571182e-01,-1.524187021345727144e+00,-7.526567045926223498e-01,-1.066644933420452412e+00
8.099999999999999645e+00,1.644186100884244919e+09,-4.492518187430939447e-01,1.066757801004924316e-01,3.109265221337926377e+00,-8.941873669786521983e-01,-1.365512733569778536e+00,-7.704606658073372971e-01,-1.069821588096892206e+00
8.116666666666667140e+00,1.644186100901002169e+09,-4.498857212341171308e-01,5.531853595013402902e-02,2.807687065491474510e+00,-8.621376405636461682e-01,-1.192992151249979926e+00,-7.883003973648056162e-01,-1.070943083461088019e+00
8.133333333333332860e+00,1.644186100919002295e+09,-4.498727095124862019e-01,1.908240094532769049e-02,2.662742525472248989e+00,-8.621376405636461682e-01,-1.007947647545540670e+00,-8.061381121240420722e-01,-1.069586456145188436e+00
8.150000000000000355e+00,1.644186100935938597e+09,-4.492246096903659280e-01,-3.877852430428217062e-02,2.431298824473809628e+00,-8.621376405636461682e-01,-8.118177197368469100e-01,-8.239343060224295634e-01,-1.065966866314153050e+00
8.166666666666666075e+00,1.644186100954251766e+09,-4.479567282606261580e-01,-4.871423874108399277e-02,2.391555966726602644e+00,-8.621376405636461682e-01,-6.061443121455520888e-01,-8.416436379753406971e-01,-1.059171843542685787e+00
8.183333333333333570e+00,1.644186100970210314e+09,-4.460877855688358262e-01,-1.369667610914991618e-01,2.038545877324941635e+00,-8.621376405636461682e-01,-3.925591664334827091e-01,-8.592233470761870828e-01,-1.050417566567255712e+00
8.199999999999999289e+00,1.644186100987165451e+09,-4.436398245271838126e-01,-1.848172824994579466e-01,1.750994612448091958e+00,-8.300879141486412482e-01,-1.727693269485229277e-01,-8.766346123614746633e-01,-1.038966078106101198e+00
8.216666666666666785e+00,1.644186101005266666e+09,-4.406380950981532707e-01,-2.298202243602656958e-01,1.570982845004860851e+00,-8.300879141486412482e-01,5.145806308785377814e-02,-8.938318466208333701e-01,-1.024741546534615910e+00
8.233333333333332504e+00,1.644186101019418001e+09,-4.371109152622762450e-01,-2.865869314339250518e-01,1.440065195955238186e+00,-8.621376405636461682e-01,2.783115319404815824e-01,-9.107704775849936318e-01,-1.007940838895346358e+00
8.250000000000000000e+00,1.644186101037522316e+09,-4.330895093657590733e-01,-2.087798879058620771e-01,1.655144190822475325e+00,-8.300879141486412482e-01,5.059514682122884244e-01,-9.273892287880290963e-01,-9.863692280205371699e-01
8.266666666666665719e+00,1.644186101054646730e+09,-4.286078249188292055e-01,-9.364249119704226576e-02,2.115693777657754460e+00,-8.300879141486412482e-01,7.325265761189077018e-01,-9.436042351231664904e-01,-9.595061536033686611e-01
8.283333333333333215e+00,1.644186101071601152e+09,-4.237023290829469158e-01,8.644396565103937280e-02,2.739890425805063146e+00,-7.980381877336351071e-01,9.561904425657505868e-01,-9.593194676964802436e-01,-9.264136808931083822e-01
8.300000000000000711e+00,1.644186101088246346e+09,-4.184117862431513957e-01,6.014354508303485641e-02,2.634688743533045052e+00,-7.980381877336351071e-01,1.175118060351786564e+00,-9.744611240422040854e-01,-8.906843311234708960e-01
8.316666666666666430e+00,1.644186101104203701e+09,-4.127770182096843210e-01,1.940581524895074461e-01,3.074197993913920346e+00,-7.659884613186302982e-01,1.387522152265795672e+00,-9.889643924691655652e-01,-8.498213909505877295e-01
8.333333333333333925e+00,1.644186101123071909e+09,-4.068406487292712259e-01,2.157576321391617702e-01,3.064846733267519774e+00,-7.339387349036241570e-01,1.591669142784010615e+00,-1.002761061875781179e+00,-8.059009419619191927e-01
8.349999999999999645e+00,1.644186101140023947e+09,-4.006468341102442099e-01,3.187708780592783953e-01,3.284601358457956533e+00,-6.698392820736143172e-01,1.785894627495156373e+00,-1.015790735351793428e+00,-7.577935100599997309e-01
8.366666666666667140e+00,1.644186101156449080e+09,-3.942409818757194317e-01,3.276123743201305172e-01,3.223818164256346819e+00,-6.377895556586082870e-01,1.968618195242713309e+00,-1.027998803856379206e+00,-7.073149320626999081e-01
8.383333333333332860e+00,1.644186101172754288e+09,-3.876694594548774075e-01,3.593222578114357857e-01,3.158359339731534821e+00,-5.736901028285972259e-01,2.138357464234795113e+00,-1.039344710596598720e+00,-6.543410299550432851e-01
8.400000000000000355e+00,1.644186101190845728e+09,-3.809792950027711678e-01,4.214237384035466327e-01,3.214466903609945359e+00,-5.095906499985862759e-01,2.293741200966207483e+00,-1.049784996583413177e+00,-5.986479949787328891e-01
8.416666666666666075e+00,1.644186101206795931e+09,-3.742178725038380338e-01,5.385385646981162289e-01,3.394478671053176022e+00,-4.134414707535703504e-01,2.433521399655261597e+00,-1.059269275201368599e+00,-5.396293836215544371e-01
8.433333333333333570e+00,1.644186101224098206e+09,-3.674326233624918836e-01,5.983022301286265998e-01,3.441234974285184212e+00,-3.493420179235594003e-01,2.556584209927516671e+00,-1.067752809892704491e+00,-4.785644082626161477e-01
8.449999999999999289e+00,1.644186101242054462e+09,-3.606707167157639504e-01,6.135727180838796979e-01,3.406167746861178625e+00,-3.172922915085532591e-01,2.661959611587506380e+00,-1.075210365649118538e+00,-4.165146470116790067e-01
8.466666666666666785e+00,1.644186101257301331e+09,-3.539787507174058101e-01,5.453410034167676113e-01,2.940942529702697428e+00,-2.531928386785423091e-01,2.748829747393541467e+00,-1.081639754713974222e+00,-3.551824120999848011e-01
8.483333333333332504e+00,1.644186101275254726e+09,-3.474024470402354847e-01,4.782035069256056481e-01,2.576243364493034704e+00,-2.211431122635373892e-01,2.816535837676982013e+00,-1.087055332568065635e+00,-2.948545118358501527e-01
8.500000000000000000e+00,1.644186101292183638e+09,-3.409863508236848917e-01,5.209433230296635076e-01,2.651053449664248163e+00,-1.890933858485313035e-01,2.864583614295198366e+00,-1.091461238309834103e+00,-2.340231571386673648e-01
8.516666666666665719e+00,1.644186101308594704e+09,-3.347735382567016416e-01,4.351033052456980688e-01,2.211544199283371537e+00,-1.570436594335263836e-01,2.892647225647328568e+00,-1.094869670303131759e+00,-1.751522162971525520e-01
8.533333333333333215e+00,1.644186101325987816e+09,-3.288053339325687774e-01,4.111406998392938550e-01,2.115693777657754460e+00,-1.570436594335263836e-01,2.900571579171777437e+00,-1.097307266444147444e+00,-1.175194155059524070e-01
8.550000000000000711e+00,1.644186101341822863e+09,-3.231210400423124018e-01,4.123096074200942596e-01,2.120369407980956300e+00,-1.570436594335263836e-01,2.888373102743469367e+00,-1.098793799586064823e+00,-6.102150386130901494e-02
8.566666666666666430e+00,1.644186101358904839e+09,-3.177576793876238370e-01,5.028999449321097659e-01,2.482730758029018325e+00,-1.570436594335263836e-01,2.856238921548710508e+00,-1.099338430393506760e+00,-4.491225279186689123e-03
8.583333333333333925e+00,1.644186101376238823e+09,-3.127497540933399933e-01,4.994679115945597214e-01,2.372853445433799724e+00,-1.249939330185202979e-01,2.804524462190177481e+00,-1.098956314742619123e+00,5.019319863300467088e-02
8.599999999999999645e+00,1.644186101392892122e+09,-3.081290217842548862e-01,4.742617092025049330e-01,2.368177815110598772e+00,-1.570436594335263836e-01,2.733749510814957429e+00,-1.097683602031295225e+00,1.023873395886384374e-01
8.616666666666667140e+00,1.644186101408604860e+09,-3.039242908621864192e-01,4.315965825032975212e-01,2.197517308313769124e+00,-1.570436594335263836e-01,2.644592766819196861e+00,-1.095566403354058638e+00,1.515399634001100559e-01
8.633333333333332860e+00,1.644186101424796104e+09,-3.001612363779689874e-01,5.180957434825125274e-01,2.543513952230628927e+00,-1.570436594335263836e-01,2.537884948019287101e+00,-1.092639574494792543e+00,1.995461460658738972e-01
8.650000000000000355e+00,1.644186101442372084e+09,-2.968622378402102080e-01,5.338759958233152414e-01,2.606634961593839783e+00,-1.570436594335263836e-01,2.414600516953962828e+00,-1.088934121759807416e+00,2.449819685438433814e-01
8.666666666666666075e+00,1.644186101457201719e+09,-2.940462401396705672e-01,5.742033073609222882e-01,2.767944207744267970e+00,-1.570436594335263836e-01,2.275848111057769074e+00,-1.084491275458472126e+00,2.880399792161528749e-01
8.683333333333333570e+00,1.644186101475371838e+09,-2.917286385960604078e-01,5.999939635433769736e-01,2.774957653229068733e+00,-1.249939330185202979e-01,2.122859771701285148e+00,-1.079354311447318304e+00,3.282839107924100941e-01
8.699999999999999289e+00,1.644186101492951870e+09,-2.899211889543271692e-01,6.362300985481833537e-01,2.919902193248294253e+00,-1.249939330185202979e-01,1.956979078403629169e+00,-1.073570080326217147e+00,3.657198326205057248e-01
8.716666666666666785e+00,1.644186101509230614e+09,-2.886319429715011320e-01,5.473184330025174793e-01,2.660404710310649179e+00,-1.570436594335263836e-01,1.779648304784815727e+00,-1.067203861381394780e+00,3.981363926388055141e-01
8.733333333333332504e+00,1.644186101525033712e+09,-2.878652100442342654e-01,5.455650716313171777e-01,2.653391264825847973e+00,-1.570436594335263836e-01,1.592394721933977353e+00,-1.060327949561157057e+00,4.268931440446559478e-01
