2022-01-20-16:27:15.422329,9.0,3.0,264.0
2022-01-20-16:27:15.423326,8.0,6.0,264.0
2022-01-20-16:27:15.424323,7.0,19.0,264.0
2022-01-20-16:27:15.424323,1.0,1.0,266.0
2022-01-20-16:27:15.425336,1.0,11.0,266.0
2022-01-20-16:27:15.426320,2.0,6.0,266.0
2022-01-20-16:27:15.427318,2.0,4.0,266.0
2022-01-20-16:27:15.429313,9.0,3.0,266.0
2022-01-20-16:27:15.430311,13.0,1.0,267.0
2022-01-20-16:27:15.430311,15.0,16.0,267.0
2022-01-20-16:27:15.431320,11.0,9.0,267.0
2022-01-20-16:27:15.432305,19.0,2.0,267.0
2022-01-20-16:27:15.433304,30.0,10.0,267.0
2022-01-20-16:27:15.434299,14.0,4.0,268.0
2022-01-20-16:27:15.435297,13.0,2.0,269.0
2022-01-20-16:27:15.436293,18.0,6.0,268.0
2022-01-20-16:27:15.437290,6.0,20.0,269.0
2022-01-20-16:27:15.438287,3.0,3.0,270.0
2022-01-20-16:27:15.439284,4.0,7.0,270.0
2022-01-20-16:27:15.440280,12.0,2.0,270.0
2022-01-20-16:27:15.441279,12.0,2.0,270.0
2022-01-20-16:27:15.442279,10.0,21.0,271.0
2022-01-20-16:27:15.443274,9.0,12.0,271.0
2022-01-20-16:27:15.444272,8.0,2.0,272.0
2022-01-20-16:27:15.445268,10.0,6.0,272.0
2022-01-20-16:27:15.446266,8.0,16.0,273.0
2022-01-20-16:27:15.447263,1.0,12.0,273.0
2022-01-20-16:27:15.448260,1.0,2.0,274.0
2022-01-20-16:27:15.449255,3.0,3.0,274.0
2022-01-20-16:27:15.450253,8.0,10.0,274.0
2022-01-20-16:27:15.451250,10.0,16.0,274.0
2022-01-20-16:27:15.452282,6.0,13.0,274.0
2022-01-20-16:27:15.453279,7.0,0.0,274.0
2022-01-20-16:27:15.454283,4.0,9.0,274.0
2022-01-20-16:27:15.455276,7.0,11.0,275.0
2022-01-20-16:27:15.456272,9.0,15.0,275.0
2022-01-20-16:27:15.457269,1.0,4.0,275.0
2022-01-20-16:27:15.458267,2.0,1.0,275.0
2022-01-20-16:27:15.459266,8.0,1.0,275.0
2022-01-20-16:27:15.460259,5.0,15.0,275.0
2022-01-20-16:27:15.461258,7.0,15.0,274.0
2022-01-20-16:27:15.463252,1.0,5.0,275.0
2022-01-20-16:27:15.463252,7.0,0.0,274.0
2022-01-20-16:27:15.464216,8.0,14.0,274.0
2022-01-20-16:27:15.472194,3.0,18.0,275.0
2022-01-20-16:27:15.473191,8.0,3.0,274.0
2022-01-20-16:27:15.474203,3.0,5.0,275.0
2022-01-20-16:27:15.475194,6.0,19.0,274.0
2022-01-20-16:27:15.476185,4.0,17.0,274.0
2022-01-20-16:27:15.477181,6.0,14.0,274.0
2022-01-20-16:27:15.478181,5.0,2.0,275.0
2022-01-20-16:27:15.480177,5.0,4.0,275.0
2022-01-20-16:27:15.481174,2.0,7.0,274.0
2022-01-20-16:27:15.481174,7.0,16.0,275.0
2022-01-20-16:27:15.482170,4.0,13.0,274.0
2022-01-20-16:27:15.483168,4.0,5.0,275.0
2022-01-20-16:27:15.484166,9.0,2.0,274.0
2022-01-20-16:27:15.485164,5.0,2.0,274.0
2022-01-20-16:27:15.486162,6.0,23.0,275.0
2022-01-20-16:27:15.487156,3.0,1.0,274.0
2022-01-20-16:27:15.488155,7.0,7.0,275.0
2022-01-20-16:27:15.489152,12.0,0.0,275.0
2022-01-20-16:27:15.490150,4.0,3.0,274.0
2022-01-20-16:27:15.491146,7.0,17.0,275.0
2022-01-20-16:27:15.492145,4.0,4.0,275.0
2022-01-20-16:27:15.493142,1.0,10.0,274.0
2022-01-20-16:27:15.494139,3.0,2.0,274.0
2022-01-20-16:27:15.495134,5.0,4.0,275.0
2022-01-20-16:27:15.496131,8.0,14.0,275.0
2022-01-20-16:27:15.497128,7.0,23.0,275.0
2022-01-20-16:27:15.499123,11.0,10.0,274.0
2022-01-20-16:27:15.499123,6.0,2.0,274.0
2022-01-20-16:27:15.500121,4.0,8.0,274.0
2022-01-20-16:27:15.501118,1.0,23.0,275.0
2022-01-20-16:27:15.502113,1.0,14.0,275.0
2022-01-20-16:27:15.503112,1.0,8.0,275.0
2022-01-20-16:27:15.504109,6.0,1.0,275.0
2022-01-20-16:27:15.505108,7.0,12.0,275.0
2022-01-20-16:27:15.506104,6.0,12.0,275.0
2022-01-20-16:27:15.507100,3.0,8.0,275.0
2022-01-20-16:27:15.508097,6.0,1.0,275.0
2022-01-20-16:27:15.509094,10.0,17.0,274.0
2022-01-20-16:27:15.510092,5.0,15.0,275.0
2022-01-20-16:27:15.511089,3.0,6.0,275.0
2022-01-20-16:27:15.512087,2.0,2.0,275.0
2022-01-20-16:27:15.513084,11.0,11.0,275.0
2022-01-20-16:27:15.514081,2.0,18.0,275.0
2022-01-20-16:27:15.515078,7.0,10.0,275.0
2022-01-20-16:27:15.516076,2.0,1.0,275.0
2022-01-20-16:27:15.517073,6.0,11.0,275.0
2022-01-20-16:27:15.518071,2.0,17.0,276.0
2022-01-20-16:27:15.519069,6.0,11.0,276.0
2022-01-20-16:27:15.520065,5.0,2.0,275.0
2022-01-20-16:27:15.521062,7.0,15.0,276.0
2022-01-20-16:27:15.522060,2.0,15.0,275.0
2022-01-20-16:27:15.523057,6.0,7.0,275.0
2022-01-20-16:27:15.524054,2.0,3.0,275.0
2022-01-20-16:27:15.525052,6.0,5.0,275.0
2022-01-20-16:27:15.526049,9.0,17.0,275.0
2022-01-20-16:27:15.527048,2.0,18.0,275.0
2022-01-20-16:27:15.528044,2.0,3.0,275.0
2022-01-20-16:27:15.529041,2.0,3.0,275.0
2022-01-20-16:27:15.530038,2.0,7.0,275.0
2022-01-20-16:27:15.532033,6.0,5.0,276.0
2022-01-20-16:27:15.532033,7.0,3.0,275.0
2022-01-20-16:27:15.533030,10.0,1.0,275.0
2022-01-20-16:27:15.534030,10.0,1.0,275.0
2022-01-20-16:27:15.535025,10.0,1.0,275.0
2022-01-20-16:27:15.536022,10.0,1.0,275.0
2022-01-20-16:27:15.537021,10.0,1.0,275.0
2022-01-20-16:27:15.538017,10.0,1.0,275.0
2022-01-20-16:27:15.539014,18.0,16.0,276.0
2022-01-20-16:27:15.540012,18.0,16.0,276.0
2022-01-20-16:27:15.541009,18.0,16.0,276.0
2022-01-20-16:27:15.542006,9.0,15.0,275.0
2022-01-20-16:27:15.543004,2.0,9.0,276.0
2022-01-20-16:27:15.544001,6.0,6.0,275.0
2022-01-20-16:27:15.544998,6.0,6.0,275.0
2022-01-20-16:27:15.545996,5.0,14.0,276.0
2022-01-20-16:27:15.546993,6.0,1.0,275.0
2022-01-20-16:27:15.547991,6.0,1.0,275.0
2022-01-20-16:27:15.548988,6.0,1.0,275.0
2022-01-20-16:27:15.549986,3.0,3.0,275.0
2022-01-20-16:27:15.550983,2.0,2.0,275.0
2022-01-20-16:27:15.551980,2.0,2.0,275.0
2022-01-20-16:27:15.552977,2.0,2.0,275.0
2022-01-20-16:27:15.553975,2.0,2.0,275.0
2022-01-20-16:27:15.554972,8.0,16.0,276.0
2022-01-20-16:27:15.555969,8.0,16.0,276.0
2022-01-20-16:27:15.556967,8.0,16.0,276.0
2022-01-20-16:27:15.557964,8.0,16.0,276.0
2022-01-20-16:27:15.558963,7.0,18.0,275.0
2022-01-20-16:27:15.559960,1.0,11.0,275.0
2022-01-20-16:27:15.560957,1.0,11.0,275.0
2022-01-20-16:27:15.561955,1.0,11.0,275.0
2022-01-20-16:27:15.562952,5.0,8.0,275.0
2022-01-20-16:27:15.563949,3.0,6.0,276.0
2022-01-20-16:27:15.564947,3.0,6.0,276.0
2022-01-20-16:27:15.566941,5.0,5.0,276.0
2022-01-20-16:27:15.566941,6.0,3.0,275.0
2022-01-20-16:27:15.567938,6.0,3.0,275.0
2022-01-20-16:27:15.568936,6.0,3.0,275.0
2022-01-20-16:27:15.569933,6.0,3.0,275.0
2022-01-20-16:27:15.570930,5.0,4.0,276.0
2022-01-20-16:27:15.571928,6.0,10.0,276.0
2022-01-20-16:27:15.572925,6.0,10.0,276.0
2022-01-20-16:27:15.573922,6.0,10.0,276.0
2022-01-20-16:27:15.574921,6.0,21.0,275.0
2022-01-20-16:27:15.575917,3.0,12.0,276.0
2022-01-20-16:27:15.576916,3.0,12.0,276.0
2022-01-20-16:27:15.577914,3.0,12.0,276.0
2022-01-20-16:27:15.578913,5.0,14.0,275.0
2022-01-20-16:27:15.579907,4.0,8.0,275.0
2022-01-20-16:27:15.580903,4.0,8.0,275.0
2022-01-20-16:27:15.581903,4.0,8.0,275.0
2022-01-20-16:27:15.582901,4.0,4.0,276.0
2022-01-20-16:27:15.583900,7.0,1.0,276.0
2022-01-20-16:27:15.584897,4.0,2.0,276.0
2022-01-20-16:27:15.585893,4.0,2.0,276.0
2022-01-20-16:27:15.586891,1.0,4.0,275.0
2022-01-20-16:27:15.587887,7.0,7.0,275.0
2022-01-20-16:27:15.588883,7.0,7.0,275.0
2022-01-20-16:27:15.589880,7.0,7.0,275.0
2022-01-20-16:27:15.590880,7.0,16.0,275.0
2022-01-20-16:27:15.591878,5.0,14.0,275.0
2022-01-20-16:27:15.592877,5.0,14.0,275.0
2022-01-20-16:27:15.593874,5.0,14.0,275.0
2022-01-20-16:27:15.594868,4.0,8.0,276.0
2022-01-20-16:27:15.595868,7.0,9.0,276.0
2022-01-20-16:27:15.596862,7.0,9.0,276.0
2022-01-20-16:27:15.597861,7.0,9.0,276.0
2022-01-20-16:27:15.599852,8.0,2.0,275.0
2022-01-20-16:27:15.599852,6.0,3.0,276.0
2022-01-20-16:27:15.600856,6.0,3.0,276.0
2022-01-20-16:27:15.601849,6.0,3.0,276.0
2022-01-20-16:27:15.602847,6.0,3.0,276.0
2022-01-20-16:27:15.603844,6.0,5.0,275.0
2022-01-20-16:27:15.604842,7.0,7.0,275.0
2022-01-20-16:27:15.605840,7.0,7.0,275.0
2022-01-20-16:27:15.606838,7.0,7.0,275.0
2022-01-20-16:27:15.607835,5.0,20.0,275.0
2022-01-20-16:27:15.608833,1.0,12.0,276.0
2022-01-20-16:27:15.609830,1.0,12.0,276.0
2022-01-20-16:27:15.610826,1.0,12.0,276.0
2022-01-20-16:27:15.611823,1.0,12.0,276.0
2022-01-20-16:27:15.612823,0.0,0.0,275.0
2022-01-20-16:27:15.613818,5.0,15.0,275.0
2022-01-20-16:27:15.614816,5.0,15.0,275.0
2022-01-20-16:27:15.615811,4.0,7.0,276.0
2022-01-20-16:27:15.616808,7.0,1.0,275.0
2022-01-20-16:27:15.617806,9.0,3.0,276.0
2022-01-20-16:27:15.618803,9.0,3.0,276.0
2022-01-20-16:27:15.619802,7.0,4.0,276.0
2022-01-20-16:27:15.620796,4.0,5.0,276.0
2022-01-20-16:27:15.621793,6.0,3.0,276.0
2022-01-20-16:27:15.622790,6.0,3.0,276.0
2022-01-20-16:27:15.623788,5.0,21.0,276.0
2022-01-20-16:27:15.624785,1.0,17.0,275.0
2022-01-20-16:27:15.625782,1.0,17.0,275.0
2022-01-20-16:27:15.626780,1.0,17.0,275.0
2022-01-20-16:27:15.627779,1.0,17.0,275.0
2022-01-20-16:27:15.628774,3.0,6.0,276.0
2022-01-20-16:27:15.629772,2.0,12.0,276.0
2022-01-20-16:27:15.630771,2.0,12.0,276.0
2022-01-20-16:27:15.631769,2.0,12.0,276.0
2022-01-20-16:27:15.632765,8.0,3.0,275.0
2022-01-20-16:27:15.633764,4.0,1.0,275.0
2022-01-20-16:27:15.634762,4.0,1.0,275.0
2022-01-20-16:27:15.635757,5.0,3.0,275.0
2022-01-20-16:27:15.637751,5.0,6.0,275.0
2022-01-20-16:27:15.637751,8.0,2.0,276.0
2022-01-20-16:27:15.638748,8.0,2.0,276.0
2022-01-20-16:27:15.639746,8.0,2.0,276.0
2022-01-20-16:27:15.640744,10.0,10.0,275.0
2022-01-20-16:27:15.641740,5.0,20.0,276.0
2022-01-20-16:27:15.642739,5.0,20.0,276.0
2022-01-20-16:27:15.643735,5.0,20.0,276.0
2022-01-20-16:27:15.644733,5.0,8.0,275.0
2022-01-20-16:27:15.645731,4.0,15.0,276.0
2022-01-20-16:27:15.646727,4.0,15.0,276.0
2022-01-20-16:27:15.647724,4.0,15.0,276.0
2022-01-20-16:27:15.648724,8.0,0.0,275.0
2022-01-20-16:27:15.649719,8.0,0.0,275.0
2022-01-20-16:27:15.650717,8.0,0.0,275.0
2022-01-20-16:27:15.651713,8.0,0.0,275.0
2022-01-20-16:27:15.652710,4.0,4.0,275.0
2022-01-20-16:27:15.653709,4.0,4.0,275.0
2022-01-20-16:27:15.654705,4.0,4.0,275.0
2022-01-20-16:27:15.655703,4.0,4.0,275.0
2022-01-20-16:27:15.656700,6.0,20.0,276.0
2022-01-20-16:27:15.657699,6.0,20.0,276.0
2022-01-20-16:27:15.658694,6.0,20.0,276.0
2022-01-20-16:27:15.659692,6.0,20.0,276.0
2022-01-20-16:27:15.660691,3.0,13.0,276.0
2022-01-20-16:27:15.661688,3.0,6.0,275.0
2022-01-20-16:27:15.662683,3.0,6.0,275.0
2022-01-20-16:27:15.663682,3.0,6.0,275.0
2022-01-20-16:27:15.664680,6.0,1.0,276.0
2022-01-20-16:27:15.665676,4.0,3.0,275.0
2022-01-20-16:27:15.666675,4.0,3.0,275.0
2022-01-20-16:27:15.667671,4.0,3.0,275.0
2022-01-20-16:27:15.668668,4.0,3.0,275.0
2022-01-20-16:27:15.670663,6.0,1.0,275.0
2022-01-20-16:27:15.670663,4.0,5.0,276.0
2022-01-20-16:27:15.671661,4.0,5.0,276.0
2022-01-20-16:27:15.672660,4.0,5.0,276.0
2022-01-20-16:27:15.673654,9.0,16.0,275.0
2022-01-20-16:27:15.674652,9.0,16.0,275.0
2022-01-20-16:27:15.675649,9.0,16.0,275.0
2022-01-20-16:27:15.676646,9.0,16.0,275.0
2022-01-20-16:27:15.677644,11.0,14.0,276.0
2022-01-20-16:27:15.678641,3.0,2.0,275.0
2022-01-20-16:27:15.679640,3.0,2.0,275.0
2022-01-20-16:27:15.680637,3.0,2.0,275.0
2022-01-20-16:27:15.681635,1.0,5.0,276.0
2022-01-20-16:27:15.682630,1.0,2.0,275.0
2022-01-20-16:27:15.683629,1.0,2.0,275.0
2022-01-20-16:27:15.684660,1.0,2.0,275.0
2022-01-20-16:27:15.685622,1.0,2.0,275.0
2022-01-20-16:27:15.686620,3.0,5.0,275.0
2022-01-20-16:27:15.687618,3.0,2.0,276.0
2022-01-20-16:27:15.688615,2.0,5.0,276.0
2022-01-20-16:27:15.689612,4.0,3.0,276.0
2022-01-20-16:27:15.690610,7.0,3.0,276.0
2022-01-20-16:27:15.691606,6.0,15.0,276.0
2022-01-20-16:27:15.692604,4.0,20.0,275.0
2022-01-20-16:27:15.693603,0.0,11.0,276.0
2022-01-20-16:27:15.694601,5.0,1.0,276.0
2022-01-20-16:27:15.695597,5.0,1.0,276.0
2022-01-20-16:27:15.696594,5.0,1.0,276.0
2022-01-20-16:27:15.697590,4.0,12.0,276.0
2022-01-20-16:27:15.698590,8.0,3.0,276.0
2022-01-20-16:27:15.699587,8.0,3.0,276.0
2022-01-20-16:27:15.700584,8.0,3.0,276.0
2022-01-20-16:27:15.701582,6.0,1.0,276.0
2022-01-20-16:27:15.702580,4.0,6.0,276.0
2022-01-20-16:27:15.703576,4.0,6.0,276.0
2022-01-20-16:27:15.704573,4.0,6.0,276.0
2022-01-20-16:27:15.706568,4.0,3.0,276.0
2022-01-20-16:27:15.706568,10.0,18.0,276.0
2022-01-20-16:27:15.707566,10.0,18.0,276.0
2022-01-20-16:27:15.708564,10.0,18.0,276.0
2022-01-20-16:27:15.709559,10.0,18.0,276.0
2022-01-20-16:27:15.710558,1.0,1.0,276.0
2022-01-20-16:27:15.711555,1.0,1.0,276.0
2022-01-20-16:27:15.712552,1.0,1.0,276.0
2022-01-20-16:27:15.713550,1.0,1.0,276.0
2022-01-20-16:27:15.714547,4.0,0.0,276.0
2022-01-20-16:27:15.715545,4.0,0.0,276.0
2022-01-20-16:27:15.716540,4.0,0.0,276.0
2022-01-20-16:27:15.717538,4.0,0.0,276.0
2022-01-20-16:27:15.718535,4.0,1.0,276.0
2022-01-20-16:27:15.719531,7.0,2.0,276.0
2022-01-20-16:27:15.720529,7.0,2.0,276.0
2022-01-20-16:27:15.721526,7.0,2.0,276.0
2022-01-20-16:27:15.722525,8.0,12.0,275.0
2022-01-20-16:27:15.723521,7.0,16.0,275.0
2022-01-20-16:27:15.724521,7.0,21.0,276.0
2022-01-20-16:27:15.725518,7.0,21.0,276.0
2022-01-20-16:27:15.726514,4.0,15.0,276.0
2022-01-20-16:27:15.727510,1.0,6.0,276.0
2022-01-20-16:27:15.728508,1.0,6.0,276.0
2022-01-20-16:27:15.729507,1.0,6.0,276.0
2022-01-20-16:27:15.730502,5.0,8.0,276.0
2022-01-20-16:27:15.731499,7.0,2.0,275.0
2022-01-20-16:27:15.732497,7.0,2.0,275.0
2022-01-20-16:27:15.733494,7.0,2.0,275.0
2022-01-20-16:27:15.734492,7.0,1.0,275.0
2022-01-20-16:27:15.735489,6.0,6.0,276.0
2022-01-20-16:27:15.736486,6.0,6.0,276.0
2022-01-20-16:27:15.737483,6.0,6.0,276.0
2022-01-20-16:27:15.739479,8.0,16.0,275.0
2022-01-20-16:27:15.739479,3.0,19.0,276.0
2022-01-20-16:27:15.740476,3.0,19.0,276.0
2022-01-20-16:27:15.741473,3.0,19.0,276.0
2022-01-20-16:27:15.742473,0.0,10.0,275.0
2022-01-20-16:27:15.743468,1.0,3.0,276.0
2022-01-20-16:27:15.744465,1.0,3.0,276.0
2022-01-20-16:27:15.745464,1.0,3.0,276.0
2022-01-20-16:27:15.746462,8.0,7.0,276.0
2022-01-20-16:27:15.747458,6.0,1.0,275.0
2022-01-20-16:27:15.748454,6.0,1.0,275.0
2022-01-20-16:27:15.749454,6.0,1.0,275.0
2022-01-20-16:27:15.750451,6.0,1.0,275.0
2022-01-20-16:27:15.751447,4.0,2.0,276.0
2022-01-20-16:27:15.752444,6.0,5.0,276.0
2022-01-20-16:27:15.753443,6.0,5.0,276.0
2022-01-20-16:27:15.754440,6.0,5.0,276.0
2022-01-20-16:27:15.755436,3.0,10.0,276.0
2022-01-20-16:27:15.756436,6.0,21.0,275.0
2022-01-20-16:27:15.757433,6.0,21.0,275.0
2022-01-20-16:27:15.758429,6.0,21.0,275.0
2022-01-20-16:27:15.759425,3.0,5.0,275.0
2022-01-20-16:27:15.760422,3.0,5.0,275.0
2022-01-20-16:27:15.761420,3.0,5.0,275.0
2022-01-20-16:27:15.762417,3.0,5.0,275.0
2022-01-20-16:27:15.763414,1.0,5.0,276.0
2022-01-20-16:27:15.764411,8.0,10.0,275.0
2022-01-20-16:27:15.765409,11.0,7.0,276.0
2022-01-20-16:27:15.766407,6.0,0.0,275.0
2022-01-20-16:27:15.767404,9.0,4.0,276.0
2022-01-20-16:27:15.768401,4.0,1.0,275.0
2022-01-20-16:27:15.769399,4.0,5.0,275.0
2022-01-20-16:27:15.770395,4.0,5.0,275.0
2022-01-20-16:27:15.771393,3.0,5.0,276.0
2022-01-20-16:27:15.772390,6.0,3.0,275.0
2022-01-20-16:27:15.773387,5.0,20.0,276.0
2022-01-20-16:27:15.775383,5.0,20.0,276.0
2022-01-20-16:27:15.775383,6.0,9.0,276.0
2022-01-20-16:27:15.776380,7.0,6.0,275.0
2022-01-20-16:27:15.777379,7.0,6.0,275.0
2022-01-20-16:27:15.778375,7.0,6.0,275.0
2022-01-20-16:27:15.779375,3.0,12.0,276.0
2022-01-20-16:27:15.780371,6.0,2.0,276.0
2022-01-20-16:27:15.781368,6.0,2.0,276.0
2022-01-20-16:27:15.782366,6.0,2.0,276.0
2022-01-20-16:27:15.783363,0.0,2.0,276.0
2022-01-20-16:27:15.784360,2.0,3.0,275.0
2022-01-20-16:27:15.785357,2.0,3.0,275.0
2022-01-20-16:27:15.786355,2.0,3.0,275.0
2022-01-20-16:27:15.787351,2.0,3.0,275.0
2022-01-20-16:27:15.788348,2.0,2.0,276.0
2022-01-20-16:27:15.789345,10.0,13.0,275.0
2022-01-20-16:27:15.790346,10.0,13.0,275.0
2022-01-20-16:27:15.791340,10.0,13.0,275.0
2022-01-20-16:27:15.792339,1.0,14.0,275.0
2022-01-20-16:27:15.793335,1.0,14.0,275.0
2022-01-20-16:27:15.794332,1.0,14.0,275.0
2022-01-20-16:27:15.795329,1.0,14.0,275.0
2022-01-20-16:27:15.796326,5.0,2.0,276.0
2022-01-20-16:27:15.797324,7.0,5.0,276.0
2022-01-20-16:27:15.798321,7.0,5.0,276.0
2022-01-20-16:27:15.799319,7.0,5.0,276.0
2022-01-20-16:27:15.800316,8.0,3.0,276.0
2022-01-20-16:27:15.801313,9.0,2.0,276.0
2022-01-20-16:27:15.802310,6.0,4.0,276.0
2022-01-20-16:27:15.803308,6.0,4.0,276.0
2022-01-20-16:27:15.804305,9.0,7.0,275.0
2022-01-20-16:27:15.805303,10.0,1.0,275.0
2022-01-20-16:27:15.806300,7.0,15.0,276.0
2022-01-20-16:27:15.807297,7.0,15.0,276.0
2022-01-20-16:27:15.809293,4.0,19.0,275.0
2022-01-20-16:27:15.809293,5.0,14.0,275.0
2022-01-20-16:27:15.810289,5.0,14.0,275.0
2022-01-20-16:27:15.811288,2.0,11.0,275.0
2022-01-20-16:27:15.812287,4.0,8.0,276.0
2022-01-20-16:27:15.813285,5.0,9.0,275.0
2022-01-20-16:27:15.814281,5.0,9.0,275.0
2022-01-20-16:27:15.815278,5.0,9.0,275.0
2022-01-20-16:27:15.816278,2.0,2.0,275.0
2022-01-20-16:27:15.817273,2.0,0.0,276.0
2022-01-20-16:27:15.818273,2.0,0.0,276.0
2022-01-20-16:27:15.819266,2.0,0.0,276.0
2022-01-20-16:27:15.820268,3.0,3.0,276.0
2022-01-20-16:27:15.821265,9.0,10.0,276.0
2022-01-20-16:27:15.822260,9.0,10.0,276.0
2022-01-20-16:27:15.823258,9.0,10.0,276.0
2022-01-20-16:27:15.824252,9.0,10.0,276.0
2022-01-20-16:27:15.825250,4.0,19.0,276.0
2022-01-20-16:27:15.826247,6.0,20.0,275.0
2022-01-20-16:27:15.827244,6.0,16.0,276.0
2022-01-20-16:27:15.828242,6.0,16.0,276.0
2022-01-20-16:27:15.829239,2.0,8.0,276.0
2022-01-20-16:27:15.830236,5.0,14.0,276.0
2022-01-20-16:27:15.831234,5.0,7.0,276.0
2022-01-20-16:27:15.832231,5.0,7.0,276.0
2022-01-20-16:27:15.833228,3.0,5.0,275.0
2022-01-20-16:27:15.834226,9.0,1.0,275.0
2022-01-20-16:27:15.835223,9.0,1.0,275.0
2022-01-20-16:27:15.836220,9.0,1.0,275.0
2022-01-20-16:27:15.837218,5.0,4.0,275.0
2022-01-20-16:27:15.838215,8.0,7.0,276.0
2022-01-20-16:27:15.839212,8.0,7.0,276.0
2022-01-20-16:27:15.840210,8.0,7.0,276.0
2022-01-20-16:27:15.841211,4.0,17.0,275.0
2022-01-20-16:27:15.843205,6.0,11.0,275.0
2022-01-20-16:27:15.843205,6.0,11.0,275.0
2022-01-20-16:27:15.844203,6.0,11.0,275.0
2022-01-20-16:27:15.845201,4.0,12.0,275.0
2022-01-20-16:27:15.846195,2.0,3.0,275.0
2022-01-20-16:27:15.847194,1.0,15.0,275.0
2022-01-20-16:27:15.848190,8.0,13.0,276.0
2022-01-20-16:27:15.849188,6.0,3.0,276.0
2022-01-20-16:27:15.850188,6.0,2.0,276.0
2022-01-20-16:27:15.851183,6.0,4.0,276.0
2022-01-20-16:27:15.852180,7.0,0.0,275.0
2022-01-20-16:27:15.853178,6.0,3.0,275.0
2022-01-20-16:27:15.854175,6.0,4.0,276.0
2022-01-20-16:27:15.855174,1.0,7.0,276.0
2022-01-20-16:27:15.856177,2.0,1.0,275.0
2022-01-20-16:27:15.857168,6.0,13.0,275.0
2022-01-20-16:27:15.858166,7.0,18.0,276.0
2022-01-20-16:27:15.859162,4.0,15.0,275.0
2022-01-20-16:27:15.860160,4.0,15.0,275.0
2022-01-20-16:27:15.861158,4.0,15.0,275.0
2022-01-20-16:27:15.862153,2.0,4.0,275.0
2022-01-20-16:27:15.863150,3.0,5.0,275.0
2022-01-20-16:27:15.864148,7.0,11.0,275.0
2022-01-20-16:27:15.865146,7.0,11.0,275.0
2022-01-20-16:27:15.866142,10.0,9.0,275.0
2022-01-20-16:27:15.867140,11.0,4.0,275.0
2022-01-20-16:27:15.868138,9.0,2.0,275.0
2022-01-20-16:27:15.869137,4.0,4.0,275.0
2022-01-20-16:27:15.870132,3.0,0.0,276.0
2022-01-20-16:27:15.871129,7.0,4.0,275.0
2022-01-20-16:27:15.872126,5.0,1.0,275.0
2022-01-20-16:27:15.874121,5.0,1.0,275.0
2022-01-20-16:27:15.874121,2.0,16.0,276.0
2022-01-20-16:27:15.875122,2.0,16.0,276.0
2022-01-20-16:27:15.876116,2.0,16.0,276.0
2022-01-20-16:27:15.877115,2.0,16.0,276.0
2022-01-20-16:27:15.878111,4.0,10.0,275.0
2022-01-20-16:27:15.879106,2.0,3.0,275.0
2022-01-20-16:27:15.880105,3.0,13.0,275.0
2022-01-20-16:27:15.881103,3.0,13.0,275.0
2022-01-20-16:27:15.882101,1.0,0.0,276.0
2022-01-20-16:27:15.883097,1.0,0.0,276.0
2022-01-20-16:27:15.884096,1.0,0.0,276.0
2022-01-20-16:27:15.885091,1.0,0.0,276.0
2022-01-20-16:27:15.886092,8.0,4.0,275.0
2022-01-20-16:27:15.887086,6.0,2.0,276.0
2022-01-20-16:27:15.888082,6.0,2.0,276.0
2022-01-20-16:27:15.889080,6.0,2.0,276.0
2022-01-20-16:27:15.890077,5.0,6.0,276.0
2022-01-20-16:27:15.891074,5.0,20.0,276.0
2022-01-20-16:27:15.892074,5.0,20.0,276.0
2022-01-20-16:27:15.893070,5.0,20.0,276.0
2022-01-20-16:27:15.894067,4.0,10.0,275.0
2022-01-20-16:27:15.895066,7.0,14.0,275.0
2022-01-20-16:27:15.896062,7.0,14.0,275.0
2022-01-20-16:27:15.897059,7.0,14.0,275.0
2022-01-20-16:27:15.898057,7.0,14.0,275.0
2022-01-20-16:27:15.899054,6.0,1.0,276.0
2022-01-20-16:27:15.900052,6.0,1.0,276.0
2022-01-20-16:27:15.901050,6.0,1.0,276.0
2022-01-20-16:27:15.902045,5.0,2.0,276.0
2022-01-20-16:27:15.903045,2.0,5.0,276.0
2022-01-20-16:27:15.904042,5.0,7.0,275.0
2022-01-20-16:27:15.905041,5.0,7.0,275.0
2022-01-20-16:27:15.906036,5.0,7.0,275.0
2022-01-20-16:27:15.907033,5.0,20.0,276.0
2022-01-20-16:27:15.908028,5.0,19.0,276.0
2022-01-20-16:27:15.909027,5.0,19.0,276.0
2022-01-20-16:27:15.910025,5.0,19.0,276.0
2022-01-20-16:27:15.912019,1.0,17.0,276.0
2022-01-20-16:27:15.912019,2.0,5.0,276.0
2022-01-20-16:27:15.913020,2.0,5.0,276.0
2022-01-20-16:27:15.914014,2.0,5.0,276.0
2022-01-20-16:27:15.915014,7.0,7.0,275.0
2022-01-20-16:27:15.916012,5.0,0.0,275.0
2022-01-20-16:27:15.917006,5.0,0.0,275.0
2022-01-20-16:27:15.918033,5.0,0.0,275.0
2022-01-20-16:27:15.918999,7.0,2.0,276.0
2022-01-20-16:27:15.919996,3.0,6.0,276.0
2022-01-20-16:27:15.921031,3.0,6.0,276.0
2022-01-20-16:27:15.922023,3.0,6.0,276.0
2022-01-20-16:27:15.922988,7.0,6.0,275.0
2022-01-20-16:27:15.923985,2.0,18.0,276.0
2022-01-20-16:27:15.925015,2.0,18.0,276.0
2022-01-20-16:27:15.925980,2.0,18.0,276.0
2022-01-20-16:27:15.927011,3.0,8.0,276.0
2022-01-20-16:27:15.928009,1.0,1.0,276.0
2022-01-20-16:27:15.929011,1.0,1.0,276.0
2022-01-20-16:27:15.929970,1.0,1.0,276.0
2022-01-20-16:27:15.930972,1.0,18.0,275.0
2022-01-20-16:27:15.931964,1.0,9.0,276.0
2022-01-20-16:27:15.932961,3.0,7.0,276.0
2022-01-20-16:27:15.933958,2.0,4.0,275.0
2022-01-20-16:27:15.934956,6.0,5.0,276.0
2022-01-20-16:27:15.935953,6.0,6.0,275.0
2022-01-20-16:27:15.936951,6.0,6.0,275.0
2022-01-20-16:27:15.937948,6.0,6.0,275.0
2022-01-20-16:27:15.938945,4.0,16.0,276.0
2022-01-20-16:27:15.939943,4.0,16.0,276.0
2022-01-20-16:27:15.940940,4.0,16.0,276.0
2022-01-20-16:27:15.941937,4.0,16.0,276.0
2022-01-20-16:27:15.942934,4.0,16.0,276.0
2022-01-20-16:27:15.943932,4.0,9.0,276.0
2022-01-20-16:27:15.945926,4.0,9.0,276.0
2022-01-20-16:27:15.945926,4.0,9.0,276.0
2022-01-20-16:27:15.946924,2.0,4.0,275.0
2022-01-20-16:27:15.947921,5.0,1.0,276.0
2022-01-20-16:27:15.948918,5.0,1.0,276.0
2022-01-20-16:27:15.949916,5.0,1.0,276.0
2022-01-20-16:27:15.950914,5.0,1.0,276.0
2022-01-20-16:27:15.951911,7.0,2.0,275.0
2022-01-20-16:27:15.952943,11.0,3.0,276.0
2022-01-20-16:27:15.953906,11.0,3.0,276.0
2022-01-20-16:27:15.954936,11.0,3.0,276.0
2022-01-20-16:27:15.955900,10.0,11.0,275.0
2022-01-20-16:27:15.956897,8.0,23.0,276.0
2022-01-20-16:27:15.957894,8.0,23.0,276.0
2022-01-20-16:27:15.958892,8.0,23.0,276.0
2022-01-20-16:27:15.959923,2.0,3.0,276.0
2022-01-20-16:27:15.960921,2.0,3.0,276.0
2022-01-20-16:27:15.961918,2.0,3.0,276.0
2022-01-20-16:27:15.962882,2.0,3.0,276.0
2022-01-20-16:27:15.963913,1.0,9.0,276.0
2022-01-20-16:27:15.964911,3.0,1.0,275.0
2022-01-20-16:27:15.965907,3.0,1.0,275.0
2022-01-20-16:27:15.966873,3.0,1.0,275.0
2022-01-20-16:27:15.967903,6.0,6.0,275.0
2022-01-20-16:27:15.968899,3.0,6.0,275.0
2022-01-20-16:27:15.969903,3.0,6.0,275.0
2022-01-20-16:27:15.970894,3.0,6.0,275.0
2022-01-20-16:27:15.971891,9.0,17.0,275.0
2022-01-20-16:27:15.972889,10.0,24.0,275.0
2022-01-20-16:27:15.973886,10.0,24.0,275.0
2022-01-20-16:27:15.974885,10.0,24.0,275.0
2022-01-20-16:27:15.975880,10.0,24.0,275.0
2022-01-20-16:27:15.977875,7.0,2.0,275.0
2022-01-20-16:27:15.977875,7.0,2.0,275.0
2022-01-20-16:27:15.978872,7.0,2.0,275.0
2022-01-20-16:27:15.979870,7.0,2.0,275.0
2022-01-20-16:27:15.980870,16.0,9.0,275.0
2022-01-20-16:27:15.981868,5.0,5.0,276.0
2022-01-20-16:27:15.982863,5.0,5.0,276.0
2022-01-20-16:27:15.983825,5.0,5.0,276.0
2022-01-20-16:27:15.984823,0.0,4.0,275.0
2022-01-20-16:27:15.985820,0.0,4.0,275.0
2022-01-20-16:27:15.986851,0.0,4.0,275.0
2022-01-20-16:27:15.987855,0.0,4.0,275.0
2022-01-20-16:27:15.988846,4.0,5.0,275.0
2022-01-20-16:27:15.989843,6.0,18.0,275.0
2022-01-20-16:27:15.990807,6.0,18.0,275.0
2022-01-20-16:27:15.991838,6.0,18.0,275.0
2022-01-20-16:27:15.992835,7.0,11.0,275.0
2022-01-20-16:27:15.993832,6.0,0.0,276.0
2022-01-20-16:27:15.994830,6.0,0.0,276.0
2022-01-20-16:27:15.995829,6.0,0.0,276.0
2022-01-20-16:27:15.996824,4.0,4.0,275.0
2022-01-20-16:27:15.997825,4.0,4.0,275.0
2022-01-20-16:27:15.998821,4.0,4.0,275.0
2022-01-20-16:27:15.999783,4.0,4.0,275.0
2022-01-20-16:27:16.000780,3.0,3.0,276.0
2022-01-20-16:27:16.001813,4.0,4.0,276.0
2022-01-20-16:27:16.002808,4.0,4.0,276.0
2022-01-20-16:27:16.003772,4.0,4.0,276.0
2022-01-20-16:27:16.004803,10.0,1.0,276.0
2022-01-20-16:27:16.005804,12.0,15.0,275.0
2022-01-20-16:27:16.006799,12.0,15.0,275.0
2022-01-20-16:27:16.007761,12.0,15.0,275.0
2022-01-20-16:27:16.008795,2.0,6.0,275.0
2022-01-20-16:27:16.009789,2.0,6.0,275.0
2022-01-20-16:27:16.011785,2.0,6.0,275.0
2022-01-20-16:27:16.011785,2.0,6.0,275.0
2022-01-20-16:27:16.012783,2.0,4.0,275.0
2022-01-20-16:27:16.013782,2.0,4.0,275.0
2022-01-20-16:27:16.014777,2.0,4.0,275.0
2022-01-20-16:27:16.015772,2.0,4.0,275.0
2022-01-20-16:27:16.016774,2.0,4.0,275.0
2022-01-20-16:27:16.017735,3.0,0.0,275.0
2022-01-20-16:27:16.018768,3.0,0.0,275.0
2022-01-20-16:27:16.019764,3.0,0.0,275.0
2022-01-20-16:27:16.020761,3.0,0.0,275.0
2022-01-20-16:27:16.021758,9.0,7.0,275.0
2022-01-20-16:27:16.022755,9.0,16.0,275.0
2022-01-20-16:27:16.023751,9.0,16.0,275.0
2022-01-20-16:27:16.024753,9.0,16.0,275.0
2022-01-20-16:27:16.025748,4.0,10.0,276.0
2022-01-20-16:27:16.026743,4.0,10.0,276.0
2022-01-20-16:27:16.027742,4.0,10.0,276.0
2022-01-20-16:27:16.028738,2.0,14.0,276.0
2022-01-20-16:27:16.029735,6.0,6.0,275.0
2022-01-20-16:27:16.030734,6.0,6.0,275.0
2022-01-20-16:27:16.031730,6.0,6.0,275.0
2022-01-20-16:27:16.032749,6.0,6.0,275.0
2022-01-20-16:27:16.033692,6.0,0.0,275.0
2022-01-20-16:27:16.034689,5.0,3.0,276.0
2022-01-20-16:27:16.035720,5.0,3.0,276.0
2022-01-20-16:27:16.036684,5.0,3.0,276.0
2022-01-20-16:27:16.037715,6.0,2.0,275.0
2022-01-20-16:27:16.038713,11.0,16.0,276.0
2022-01-20-16:27:16.039708,11.0,16.0,276.0
2022-01-20-16:27:16.040674,11.0,16.0,276.0
2022-01-20-16:27:16.041703,6.0,16.0,275.0
2022-01-20-16:27:16.042701,4.0,16.0,276.0
2022-01-20-16:27:16.043665,4.0,16.0,276.0
2022-01-20-16:27:16.045697,4.0,16.0,276.0
2022-01-20-16:27:16.045697,6.0,13.0,275.0
2022-01-20-16:27:16.046691,11.0,6.0,275.0
2022-01-20-16:27:16.047687,11.0,6.0,275.0
2022-01-20-16:27:16.048686,11.0,6.0,275.0
2022-01-20-16:27:16.049682,2.0,8.0,275.0
2022-01-20-16:27:16.050647,3.0,9.0,276.0
2022-01-20-16:27:16.051679,3.0,9.0,276.0
2022-01-20-16:27:16.052674,3.0,9.0,276.0
2022-01-20-16:27:16.053671,2.0,2.0,276.0
2022-01-20-16:27:16.054671,5.0,9.0,276.0
2022-01-20-16:27:16.055672,5.0,9.0,276.0
2022-01-20-16:27:16.056631,5.0,9.0,276.0
2022-01-20-16:27:16.057628,5.0,9.0,276.0
2022-01-20-16:27:16.058626,1.0,17.0,275.0
2022-01-20-16:27:16.059656,2.0,13.0,275.0
2022-01-20-16:27:16.060655,2.0,13.0,275.0
2022-01-20-16:27:16.061650,2.0,13.0,275.0
2022-01-20-16:27:16.062649,0.0,15.0,276.0
2022-01-20-16:27:16.063645,2.0,10.0,276.0
2022-01-20-16:27:16.064644,2.0,10.0,276.0
2022-01-20-16:27:16.065639,2.0,10.0,276.0
2022-01-20-16:27:16.066636,4.0,0.0,276.0
2022-01-20-16:27:16.067602,7.0,3.0,276.0
2022-01-20-16:27:16.068631,7.0,3.0,276.0
2022-01-20-16:27:16.069631,7.0,3.0,276.0
2022-01-20-16:27:16.070627,8.0,1.0,276.0
2022-01-20-16:27:16.071623,11.0,9.0,275.0
2022-01-20-16:27:16.072622,11.0,9.0,275.0
2022-01-20-16:27:16.073619,11.0,9.0,275.0
2022-01-20-16:27:16.074583,4.0,20.0,275.0
2022-01-20-16:27:16.075615,6.0,11.0,275.0
2022-01-20-16:27:16.076611,6.0,11.0,275.0
2022-01-20-16:27:16.078607,6.0,11.0,275.0
2022-01-20-16:27:16.079604,4.0,11.0,276.0
2022-01-20-16:27:16.079604,4.0,11.0,276.0
2022-01-20-16:27:16.080601,4.0,11.0,276.0
2022-01-20-16:27:16.081564,4.0,11.0,276.0
2022-01-20-16:27:16.082595,6.0,2.0,276.0
2022-01-20-16:27:16.083558,6.0,1.0,275.0
2022-01-20-16:27:16.084589,6.0,1.0,275.0
2022-01-20-16:27:16.085573,6.0,1.0,275.0
2022-01-20-16:27:16.086586,6.0,3.0,275.0
2022-01-20-16:27:16.087581,6.0,3.0,275.0
2022-01-20-16:27:16.088579,6.0,3.0,275.0
2022-01-20-16:27:16.089576,6.0,3.0,275.0
2022-01-20-16:27:16.090573,6.0,3.0,275.0
2022-01-20-16:27:16.091571,4.0,15.0,276.0
2022-01-20-16:27:16.092593,4.0,15.0,276.0
2022-01-20-16:27:16.093585,4.0,15.0,276.0
2022-01-20-16:27:16.094584,4.0,15.0,276.0
2022-01-20-16:27:16.095580,6.0,13.0,275.0
2022-01-20-16:27:16.096577,6.0,13.0,275.0
2022-01-20-16:27:16.097575,6.0,13.0,275.0
2022-01-20-16:27:16.098572,6.0,13.0,275.0
2022-01-20-16:27:16.099570,6.0,2.0,276.0
2022-01-20-16:27:16.100514,12.0,4.0,275.0
2022-01-20-16:27:16.101510,12.0,4.0,275.0
2022-01-20-16:27:16.102526,12.0,4.0,275.0
2022-01-20-16:27:16.103539,21.0,2.0,276.0
2022-01-20-16:27:16.104557,25.0,3.0,275.0
2022-01-20-16:27:16.105533,25.0,3.0,275.0
2022-01-20-16:27:16.106531,25.0,3.0,275.0
2022-01-20-16:27:16.107556,13.0,18.0,275.0
2022-01-20-16:27:16.108550,9.0,14.0,276.0
2022-01-20-16:27:16.109548,9.0,14.0,276.0
2022-01-20-16:27:16.110542,9.0,14.0,276.0
2022-01-20-16:27:16.111538,16.0,4.0,276.0
2022-01-20-16:27:16.113512,13.0,13.0,275.0
2022-01-20-16:27:16.113512,13.0,13.0,275.0
2022-01-20-16:27:16.114476,13.0,13.0,275.0
2022-01-20-16:27:16.115527,3.0,6.0,275.0
2022-01-20-16:27:16.116528,2.0,1.0,276.0
2022-01-20-16:27:16.117523,2.0,1.0,276.0
2022-01-20-16:27:16.118465,2.0,1.0,276.0
2022-01-20-16:27:16.119517,6.0,3.0,275.0
2022-01-20-16:27:16.120514,6.0,1.0,275.0
2022-01-20-16:27:16.121457,6.0,1.0,275.0
2022-01-20-16:27:16.122454,6.0,1.0,275.0
2022-01-20-16:27:16.123506,1.0,17.0,276.0
2022-01-20-16:27:16.124507,4.0,18.0,276.0
2022-01-20-16:27:16.125501,4.0,18.0,276.0
2022-01-20-16:27:16.126500,4.0,18.0,276.0
2022-01-20-16:27:16.127496,1.0,3.0,276.0
2022-01-20-16:27:16.128474,0.0,17.0,275.0
2022-01-20-16:27:16.129491,0.0,17.0,275.0
2022-01-20-16:27:16.130467,0.0,17.0,275.0
2022-01-20-16:27:16.131464,0.0,17.0,275.0
2022-01-20-16:27:16.132486,5.0,1.0,276.0
2022-01-20-16:27:16.133437,5.0,1.0,276.0
2022-01-20-16:27:16.134477,5.0,1.0,276.0
2022-01-20-16:27:16.135420,5.0,1.0,276.0
2022-01-20-16:27:16.136472,6.0,2.0,276.0
2022-01-20-16:27:16.137468,9.0,5.0,275.0
2022-01-20-16:27:16.138446,9.0,5.0,275.0
2022-01-20-16:27:16.139443,9.0,5.0,275.0
2022-01-20-16:27:16.140464,8.0,21.0,276.0
2022-01-20-16:27:16.141437,4.0,19.0,276.0
2022-01-20-16:27:16.142437,4.0,19.0,276.0
2022-01-20-16:27:16.143432,4.0,19.0,276.0
2022-01-20-16:27:16.144450,5.0,15.0,275.0
2022-01-20-16:27:16.145447,5.0,9.0,275.0
2022-01-20-16:27:16.147421,5.0,9.0,275.0
2022-01-20-16:27:16.147421,7.0,6.0,276.0
2022-01-20-16:27:16.148419,6.0,4.0,275.0
2022-01-20-16:27:16.149436,6.0,4.0,275.0
2022-01-20-16:27:16.150386,6.0,4.0,275.0
2022-01-20-16:27:16.151377,6.0,4.0,275.0
2022-01-20-16:27:16.152429,8.0,4.0,275.0
2022-01-20-16:27:16.153372,2.0,6.0,275.0
2022-01-20-16:27:16.154403,2.0,6.0,275.0
2022-01-20-16:27:16.155367,2.0,6.0,275.0
2022-01-20-16:27:16.156422,7.0,12.0,275.0
2022-01-20-16:27:16.157415,3.0,17.0,276.0
2022-01-20-16:27:16.158414,3.0,17.0,276.0
2022-01-20-16:27:16.159355,3.0,17.0,276.0
2022-01-20-16:27:16.160407,2.0,11.0,276.0
2022-01-20-16:27:16.161405,4.0,17.0,276.0
2022-01-20-16:27:16.162402,4.0,17.0,276.0
2022-01-20-16:27:16.163399,4.0,17.0,276.0
2022-01-20-16:27:16.164400,3.0,6.0,276.0
2022-01-20-16:27:16.165377,6.0,2.0,275.0
2022-01-20-16:27:16.166372,6.0,2.0,275.0
2022-01-20-16:27:16.167368,6.0,2.0,275.0
2022-01-20-16:27:16.168332,6.0,2.0,275.0
2022-01-20-16:27:16.169363,3.0,4.0,276.0
2022-01-20-16:27:16.170361,8.0,3.0,275.0
2022-01-20-16:27:16.171357,8.0,3.0,275.0
2022-01-20-16:27:16.172356,8.0,3.0,275.0
2022-01-20-16:27:16.173352,9.0,24.0,275.0
2022-01-20-16:27:16.174351,9.0,19.0,275.0
2022-01-20-16:27:16.175347,9.0,19.0,275.0
2022-01-20-16:27:16.176344,9.0,19.0,275.0
2022-01-20-16:27:16.177341,2.0,1.0,276.0
2022-01-20-16:27:16.178339,4.0,10.0,276.0
2022-01-20-16:27:16.179338,4.0,10.0,276.0
2022-01-20-16:27:16.181330,4.0,10.0,276.0
2022-01-20-16:27:16.181330,9.0,5.0,275.0
2022-01-20-16:27:16.182329,6.0,1.0,275.0
2022-01-20-16:27:16.183326,6.0,1.0,275.0
2022-01-20-16:27:16.184325,6.0,1.0,275.0
2022-01-20-16:27:16.185320,9.0,5.0,276.0
2022-01-20-16:27:16.186317,2.0,5.0,275.0
2022-01-20-16:27:16.187315,2.0,5.0,275.0
2022-01-20-16:27:16.188312,2.0,5.0,275.0
2022-01-20-16:27:16.189309,1.0,13.0,276.0
2022-01-20-16:27:16.190308,4.0,21.0,275.0
2022-01-20-16:27:16.191304,4.0,21.0,275.0
2022-01-20-16:27:16.192268,4.0,21.0,275.0
2022-01-20-16:27:16.193305,1.0,13.0,275.0
2022-01-20-16:27:16.194296,3.0,4.0,276.0
2022-01-20-16:27:16.195295,3.0,4.0,276.0
2022-01-20-16:27:16.196257,3.0,4.0,276.0
2022-01-20-16:27:16.197293,5.0,2.0,275.0
2022-01-20-16:27:16.198287,7.0,0.0,276.0
2022-01-20-16:27:16.199283,7.0,0.0,276.0
2022-01-20-16:27:16.200246,7.0,0.0,276.0
2022-01-20-16:27:16.201300,2.0,5.0,276.0
2022-01-20-16:27:16.202295,6.0,4.0,275.0
2022-01-20-16:27:16.203295,6.0,4.0,275.0
2022-01-20-16:27:16.204294,6.0,4.0,275.0
2022-01-20-16:27:16.205287,6.0,4.0,275.0
2022-01-20-16:27:16.206286,6.0,20.0,275.0
2022-01-20-16:27:16.207283,6.0,20.0,275.0
2022-01-20-16:27:16.208280,6.0,20.0,275.0
2022-01-20-16:27:16.209281,6.0,20.0,275.0
2022-01-20-16:27:16.210274,6.0,3.0,276.0
2022-01-20-16:27:16.211271,6.0,3.0,276.0
2022-01-20-16:27:16.212272,6.0,3.0,276.0
2022-01-20-16:27:16.214245,6.0,3.0,276.0
2022-01-20-16:27:16.215205,4.0,1.0,276.0
2022-01-20-16:27:16.215205,4.0,1.0,276.0
2022-01-20-16:27:16.216203,4.0,1.0,276.0
2022-01-20-16:27:16.217200,4.0,1.0,276.0
2022-01-20-16:27:16.218197,7.0,2.0,276.0
2022-01-20-16:27:16.219197,3.0,6.0,276.0
2022-01-20-16:27:16.220193,3.0,6.0,276.0
2022-01-20-16:27:16.221191,3.0,6.0,276.0
2022-01-20-16:27:16.222187,9.0,4.0,276.0
2022-01-20-16:27:16.223186,7.0,20.0,275.0
2022-01-20-16:27:16.224181,7.0,20.0,275.0
2022-01-20-16:27:16.225180,7.0,20.0,275.0
2022-01-20-16:27:16.226178,4.0,12.0,275.0
2022-01-20-16:27:16.227174,5.0,1.0,276.0
2022-01-20-16:27:16.228171,5.0,1.0,276.0
2022-01-20-16:27:16.229168,5.0,1.0,276.0
2022-01-20-16:27:16.230167,1.0,9.0,276.0
2022-01-20-16:27:16.231165,6.0,3.0,276.0
2022-01-20-16:27:16.232163,6.0,3.0,276.0
2022-01-20-16:27:16.233159,6.0,3.0,276.0
2022-01-20-16:27:16.234155,3.0,4.0,276.0
2022-01-20-16:27:16.235154,6.0,5.0,275.0
2022-01-20-16:27:16.236152,6.0,5.0,275.0
2022-01-20-16:27:16.237147,6.0,5.0,275.0
2022-01-20-16:27:16.238146,7.0,14.0,275.0
2022-01-20-16:27:16.239143,5.0,22.0,275.0
2022-01-20-16:27:16.240141,5.0,22.0,275.0
2022-01-20-16:27:16.241138,5.0,22.0,275.0
2022-01-20-16:27:16.242136,5.0,22.0,275.0
2022-01-20-16:27:16.243132,2.0,1.0,276.0
2022-01-20-16:27:16.244129,2.0,1.0,276.0
2022-01-20-16:27:16.245126,2.0,1.0,276.0
2022-01-20-16:27:16.246123,2.0,1.0,276.0
2022-01-20-16:27:16.247123,2.0,5.0,276.0
2022-01-20-16:27:16.249117,2.0,5.0,276.0
2022-01-20-16:27:16.249117,9.0,1.0,276.0
2022-01-20-16:27:16.250114,6.0,4.0,276.0
2022-01-20-16:27:16.251111,6.0,4.0,276.0
2022-01-20-16:27:16.252107,6.0,4.0,276.0
2022-01-20-16:27:16.253106,6.0,4.0,276.0
2022-01-20-16:27:16.254102,6.0,4.0,276.0
2022-01-20-16:27:16.255099,5.0,9.0,275.0
2022-01-20-16:27:16.256096,4.0,18.0,275.0
2022-01-20-16:27:16.257093,4.0,18.0,275.0
2022-01-20-16:27:16.258092,4.0,18.0,275.0
2022-01-20-16:27:16.259088,6.0,13.0,276.0
2022-01-20-16:27:16.260088,7.0,9.0,276.0
2022-01-20-16:27:16.261085,7.0,9.0,276.0
2022-01-20-16:27:16.262081,7.0,9.0,276.0
2022-01-20-16:27:16.263078,10.0,8.0,275.0
2022-01-20-16:27:16.264076,11.0,3.0,276.0
2022-01-20-16:27:16.265075,11.0,3.0,276.0
2022-01-20-16:27:16.266072,11.0,3.0,276.0
2022-01-20-16:27:16.267067,2.0,2.0,276.0
2022-01-20-16:27:16.268067,1.0,3.0,276.0
2022-01-20-16:27:16.269064,1.0,3.0,276.0
2022-01-20-16:27:16.270059,1.0,3.0,276.0
2022-01-20-16:27:16.271058,10.0,8.0,275.0
2022-01-20-16:27:16.272056,5.0,17.0,276.0
2022-01-20-16:27:16.273053,5.0,17.0,276.0
2022-01-20-16:27:16.274048,5.0,17.0,276.0
2022-01-20-16:27:16.275045,4.0,10.0,275.0
2022-01-20-16:27:16.276043,3.0,13.0,275.0
2022-01-20-16:27:16.277040,3.0,13.0,275.0
2022-01-20-16:27:16.278040,3.0,13.0,275.0
2022-01-20-16:27:16.279036,2.0,13.0,275.0
2022-01-20-16:27:16.280032,3.0,8.0,276.0
2022-01-20-16:27:16.281029,3.0,8.0,276.0
2022-01-20-16:27:16.283024,3.0,8.0,276.0
2022-01-20-16:27:16.283024,3.0,4.0,276.0
2022-01-20-16:27:16.284021,8.0,4.0,275.0
2022-01-20-16:27:16.285019,8.0,4.0,275.0
2022-01-20-16:27:16.286016,8.0,4.0,275.0
2022-01-20-16:27:16.287014,8.0,4.0,275.0
2022-01-20-16:27:16.288012,11.0,1.0,275.0
2022-01-20-16:27:16.289008,9.0,12.0,276.0
2022-01-20-16:27:16.290008,9.0,12.0,276.0
2022-01-20-16:27:16.291004,9.0,12.0,276.0
2022-01-20-16:27:16.292002,8.0,13.0,276.0
2022-01-20-16:27:16.293000,2.0,9.0,275.0
2022-01-20-16:27:16.293997,2.0,9.0,275.0
2022-01-20-16:27:16.294992,2.0,9.0,275.0
2022-01-20-16:27:16.295991,6.0,13.0,275.0
2022-01-20-16:27:16.296988,3.0,6.0,276.0
2022-01-20-16:27:16.297985,3.0,6.0,276.0
2022-01-20-16:27:16.298983,3.0,6.0,276.0
2022-01-20-16:27:16.299981,6.0,4.0,275.0
2022-01-20-16:27:16.300979,4.0,1.0,276.0
2022-01-20-16:27:16.301974,4.0,1.0,276.0
2022-01-20-16:27:16.302971,4.0,1.0,276.0
2022-01-20-16:27:16.303968,7.0,2.0,275.0
2022-01-20-16:27:16.304965,11.0,12.0,276.0
2022-01-20-16:27:16.305965,11.0,12.0,276.0
2022-01-20-16:27:16.306960,11.0,12.0,276.0
2022-01-20-16:27:16.307959,6.0,17.0,275.0
2022-01-20-16:27:16.308988,3.0,10.0,275.0
2022-01-20-16:27:16.309986,3.0,10.0,275.0
2022-01-20-16:27:16.310951,3.0,10.0,275.0
2022-01-20-16:27:16.311982,5.0,14.0,275.0
2022-01-20-16:27:16.312977,5.0,8.0,275.0
2022-01-20-16:27:16.313974,5.0,8.0,275.0
2022-01-20-16:27:16.314944,5.0,8.0,275.0
2022-01-20-16:27:16.315969,5.0,0.0,276.0
2022-01-20-16:27:16.317932,4.0,3.0,276.0
2022-01-20-16:27:16.317932,4.0,3.0,276.0
2022-01-20-16:27:16.318961,4.0,3.0,276.0
2022-01-20-16:27:16.319965,4.0,3.0,276.0
2022-01-20-16:27:16.320955,8.0,7.0,275.0
2022-01-20-16:27:16.321959,8.0,7.0,275.0
2022-01-20-16:27:16.322952,8.0,7.0,275.0
2022-01-20-16:27:16.323952,8.0,7.0,275.0
2022-01-20-16:27:16.324944,4.0,11.0,276.0
2022-01-20-16:27:16.325944,4.0,11.0,276.0
2022-01-20-16:27:16.326939,4.0,11.0,276.0
2022-01-20-16:27:16.327940,4.0,11.0,276.0
2022-01-20-16:27:16.328935,2.0,1.0,276.0
2022-01-20-16:27:16.329931,5.0,11.0,276.0
2022-01-20-16:27:16.330930,5.0,11.0,276.0
2022-01-20-16:27:16.331926,5.0,11.0,276.0
2022-01-20-16:27:16.332924,3.0,1.0,276.0
2022-01-20-16:27:16.333911,3.0,1.0,276.0
2022-01-20-16:27:16.334922,3.0,1.0,276.0
2022-01-20-16:27:16.335917,3.0,1.0,276.0
2022-01-20-16:27:16.336913,2.0,3.0,276.0
2022-01-20-16:27:16.337915,9.0,3.0,276.0
2022-01-20-16:27:16.338909,9.0,3.0,276.0
2022-01-20-16:27:16.339905,9.0,3.0,276.0
2022-01-20-16:27:16.340902,8.0,23.0,275.0
2022-01-20-16:27:16.341901,3.0,15.0,275.0
2022-01-20-16:27:16.342896,3.0,15.0,275.0
2022-01-20-16:27:16.343862,3.0,15.0,275.0
2022-01-20-16:27:16.344892,1.0,5.0,276.0
2022-01-20-16:27:16.345892,0.0,12.0,275.0
2022-01-20-16:27:16.346888,0.0,12.0,275.0
2022-01-20-16:27:16.347852,0.0,12.0,275.0
2022-01-20-16:27:16.348881,5.0,1.0,275.0
2022-01-20-16:27:16.350875,7.0,0.0,276.0
2022-01-20-16:27:16.350875,7.0,0.0,276.0
2022-01-20-16:27:16.351841,7.0,0.0,276.0
2022-01-20-16:27:16.352873,4.0,1.0,276.0
2022-01-20-16:27:16.353868,8.0,3.0,275.0
2022-01-20-16:27:16.354832,8.0,3.0,275.0
2022-01-20-16:27:16.355831,8.0,3.0,275.0
2022-01-20-16:27:16.356827,8.0,13.0,276.0
2022-01-20-16:27:16.357825,3.0,15.0,276.0
2022-01-20-16:27:16.358823,3.0,15.0,276.0
2022-01-20-16:27:16.359821,3.0,15.0,276.0
2022-01-20-16:27:16.360816,3.0,15.0,276.0
2022-01-20-16:27:16.361815,6.0,15.0,275.0
2022-01-20-16:27:16.362811,6.0,15.0,275.0
2022-01-20-16:27:16.363809,6.0,15.0,275.0
2022-01-20-16:27:16.364808,6.0,15.0,275.0
2022-01-20-16:27:16.365805,3.0,3.0,276.0
2022-01-20-16:27:16.366800,10.0,2.0,276.0
2022-01-20-16:27:16.367799,10.0,2.0,276.0
2022-01-20-16:27:16.368795,10.0,2.0,276.0
2022-01-20-16:27:16.369793,4.0,4.0,275.0
2022-01-20-16:27:16.370792,7.0,1.0,275.0
2022-01-20-16:27:16.371788,7.0,1.0,275.0
2022-01-20-16:27:16.372785,7.0,1.0,275.0
2022-01-20-16:27:16.373783,6.0,15.0,276.0
2022-01-20-16:27:16.374779,3.0,20.0,276.0
2022-01-20-16:27:16.375778,3.0,20.0,276.0
2022-01-20-16:27:16.376775,3.0,20.0,276.0
2022-01-20-16:27:16.377773,2.0,11.0,275.0
2022-01-20-16:27:16.378768,1.0,7.0,275.0
2022-01-20-16:27:16.379767,1.0,7.0,275.0
2022-01-20-16:27:16.380763,1.0,7.0,275.0
2022-01-20-16:27:16.381763,7.0,5.0,276.0
2022-01-20-16:27:16.382759,7.0,2.0,275.0
2022-01-20-16:27:16.383755,7.0,2.0,275.0
2022-01-20-16:27:16.385749,7.0,2.0,275.0
2022-01-20-16:27:16.385749,7.0,3.0,275.0
2022-01-20-16:27:16.386751,7.0,0.0,276.0
2022-01-20-16:27:16.387748,7.0,0.0,276.0
2022-01-20-16:27:16.388744,7.0,0.0,276.0
2022-01-20-16:27:16.389742,1.0,19.0,275.0
2022-01-20-16:27:16.390739,7.0,13.0,276.0
2022-01-20-16:27:16.391736,7.0,13.0,276.0
2022-01-20-16:27:16.392735,7.0,13.0,276.0
2022-01-20-16:27:16.393731,2.0,2.0,275.0
2022-01-20-16:27:16.394728,3.0,11.0,276.0
2022-01-20-16:27:16.395727,3.0,11.0,276.0
2022-01-20-16:27:16.396724,3.0,11.0,276.0
2022-01-20-16:27:16.397721,3.0,11.0,276.0
2022-01-20-16:27:16.398720,7.0,2.0,275.0
2022-01-20-16:27:16.399716,7.0,2.0,275.0
2022-01-20-16:27:16.400712,7.0,2.0,275.0
2022-01-20-16:27:16.401709,7.0,2.0,275.0
2022-01-20-16:27:16.402704,5.0,0.0,276.0
2022-01-20-16:27:16.403704,5.0,0.0,276.0
2022-01-20-16:27:16.404701,5.0,0.0,276.0
2022-01-20-16:27:16.405699,5.0,0.0,276.0
2022-01-20-16:27:16.406695,10.0,15.0,276.0
2022-01-20-16:27:16.407693,5.0,17.0,275.0
2022-01-20-16:27:16.408692,5.0,17.0,275.0
2022-01-20-16:27:16.409690,5.0,17.0,275.0
2022-01-20-16:27:16.410688,5.0,1.0,275.0
2022-01-20-16:27:16.411686,2.0,15.0,276.0
2022-01-20-16:27:16.412681,2.0,15.0,276.0
2022-01-20-16:27:16.413679,2.0,15.0,276.0
2022-01-20-16:27:16.414677,2.0,4.0,276.0
2022-01-20-16:27:16.415673,6.0,0.0,275.0
2022-01-20-16:27:16.416668,6.0,0.0,275.0
2022-01-20-16:27:16.417669,6.0,0.0,275.0
2022-01-20-16:27:16.419694,6.0,6.0,276.0
2022-01-20-16:27:16.420657,5.0,0.0,275.0
2022-01-20-16:27:16.420657,5.0,0.0,275.0
2022-01-20-16:27:16.421655,5.0,0.0,275.0
2022-01-20-16:27:16.422685,6.0,2.0,276.0
2022-01-20-16:27:16.423685,3.0,21.0,275.0
2022-01-20-16:27:16.424683,3.0,21.0,275.0
2022-01-20-16:27:16.425644,3.0,21.0,275.0
2022-01-20-16:27:16.426675,4.0,14.0,276.0
2022-01-20-16:27:16.427670,1.0,3.0,275.0
2022-01-20-16:27:16.428669,1.0,3.0,275.0
2022-01-20-16:27:16.429646,1.0,3.0,275.0
2022-01-20-16:27:16.430663,4.0,2.0,275.0
2022-01-20-16:27:16.431662,6.0,1.0,275.0
2022-01-20-16:27:16.432659,6.0,1.0,275.0
2022-01-20-16:27:16.433622,6.0,1.0,275.0
2022-01-20-16:27:16.434620,3.0,3.0,275.0
2022-01-20-16:27:16.435651,5.0,5.0,275.0
2022-01-20-16:27:16.436614,7.0,6.0,275.0
2022-01-20-16:27:16.437647,7.0,6.0,275.0
2022-01-20-16:27:16.438643,7.0,6.0,275.0
2022-01-20-16:27:16.439607,7.0,14.0,275.0
2022-01-20-16:27:16.440637,6.0,19.0,276.0
2022-01-20-16:27:16.441600,6.0,19.0,276.0
2022-01-20-16:27:16.442598,6.0,19.0,276.0
2022-01-20-16:27:16.443630,5.0,11.0,275.0
2022-01-20-16:27:16.444632,2.0,3.0,275.0
2022-01-20-16:27:16.445626,2.0,3.0,275.0
2022-01-20-16:27:16.446622,2.0,3.0,275.0
2022-01-20-16:27:16.447623,0.0,15.0,275.0
2022-01-20-16:27:16.448617,4.0,2.0,276.0
2022-01-20-16:27:16.449614,4.0,2.0,276.0
2022-01-20-16:27:16.450576,4.0,2.0,276.0
2022-01-20-16:27:16.451574,4.0,1.0,275.0
2022-01-20-16:27:16.453604,6.0,5.0,276.0
2022-01-20-16:27:16.453604,6.0,5.0,276.0
2022-01-20-16:27:16.454591,8.0,6.0,276.0
2022-01-20-16:27:16.455598,2.0,19.0,276.0
2022-01-20-16:27:16.456594,2.0,19.0,276.0
2022-01-20-16:27:16.457591,2.0,19.0,276.0
2022-01-20-16:27:16.458555,2.0,19.0,276.0
2022-01-20-16:27:16.459587,5.0,11.0,275.0
2022-01-20-16:27:16.460587,0.0,1.0,275.0
2022-01-20-16:27:16.461582,0.0,1.0,275.0
2022-01-20-16:27:16.462545,0.0,1.0,275.0
2022-01-20-16:27:16.463577,5.0,12.0,276.0
2022-01-20-16:27:16.464574,9.0,1.0,276.0
2022-01-20-16:27:16.465571,9.0,1.0,276.0
2022-01-20-16:27:16.466534,9.0,1.0,276.0
2022-01-20-16:27:16.467532,6.0,4.0,275.0
2022-01-20-16:27:16.468567,6.0,4.0,275.0
2022-01-20-16:27:16.469567,6.0,4.0,275.0
2022-01-20-16:27:16.470523,6.0,4.0,275.0
2022-01-20-16:27:16.471555,5.0,14.0,275.0
2022-01-20-16:27:16.472550,10.0,19.0,276.0
2022-01-20-16:27:16.473550,10.0,19.0,276.0
2022-01-20-16:27:16.474547,10.0,19.0,276.0
2022-01-20-16:27:16.475542,10.0,19.0,276.0
2022-01-20-16:27:16.476540,3.0,1.0,276.0
2022-01-20-16:27:16.477539,3.0,1.0,276.0
2022-01-20-16:27:16.478534,3.0,1.0,276.0
2022-01-20-16:27:16.479534,3.0,1.0,276.0
2022-01-20-16:27:16.480529,8.0,11.0,275.0
2022-01-20-16:27:16.481527,5.0,6.0,275.0
2022-01-20-16:27:16.482526,5.0,6.0,275.0
2022-01-20-16:27:16.483489,5.0,6.0,275.0
2022-01-20-16:27:16.484486,5.0,3.0,276.0
2022-01-20-16:27:16.485484,8.0,5.0,275.0
2022-01-20-16:27:16.487512,8.0,5.0,275.0
2022-01-20-16:27:16.487512,8.0,5.0,275.0
2022-01-20-16:27:16.488513,11.0,9.0,275.0
2022-01-20-16:27:16.489506,8.0,15.0,276.0
2022-01-20-16:27:16.490504,8.0,15.0,276.0
2022-01-20-16:27:16.491500,8.0,15.0,276.0
2022-01-20-16:27:16.492497,6.0,11.0,276.0
2022-01-20-16:27:16.493496,4.0,9.0,275.0
2022-01-20-16:27:16.494492,4.0,9.0,275.0
2022-01-20-16:27:16.495457,4.0,9.0,275.0
2022-01-20-16:27:16.496459,2.0,2.0,275.0
2022-01-20-16:27:16.497451,4.0,5.0,275.0
2022-01-20-16:27:16.498456,4.0,5.0,275.0
2022-01-20-16:27:16.499446,4.0,5.0,275.0
2022-01-20-16:27:16.500444,4.0,5.0,275.0
2022-01-20-16:27:16.501449,6.0,2.0,276.0
2022-01-20-16:27:16.502438,5.0,2.0,275.0
2022-01-20-16:27:16.503435,5.0,2.0,275.0
2022-01-20-16:27:16.504433,9.0,3.0,275.0
2022-01-20-16:27:16.505429,8.0,14.0,276.0
2022-01-20-16:27:16.506428,8.0,14.0,276.0
2022-01-20-16:27:16.507424,8.0,14.0,276.0
2022-01-20-16:27:16.508425,8.0,14.0,276.0
2022-01-20-16:27:16.509419,6.0,13.0,275.0
2022-01-20-16:27:16.510416,4.0,11.0,276.0
2022-01-20-16:27:16.511414,4.0,11.0,276.0
2022-01-20-16:27:16.512411,4.0,11.0,276.0
2022-01-20-16:27:16.513411,4.0,3.0,275.0
2022-01-20-16:27:16.514409,4.0,3.0,275.0
2022-01-20-16:27:16.515408,4.0,3.0,275.0
2022-01-20-16:27:16.516404,4.0,3.0,275.0
2022-01-20-16:27:16.517401,5.0,3.0,275.0
2022-01-20-16:27:16.518398,5.0,0.0,276.0
2022-01-20-16:27:16.519397,5.0,0.0,276.0
2022-01-20-16:27:16.520391,5.0,0.0,276.0
2022-01-20-16:27:16.521393,7.0,6.0,275.0
2022-01-20-16:27:16.523383,5.0,15.0,276.0
2022-01-20-16:27:16.523383,5.0,15.0,276.0
2022-01-20-16:27:16.524383,6.0,19.0,276.0
2022-01-20-16:27:16.525380,1.0,10.0,276.0
2022-01-20-16:27:16.526376,1.0,10.0,276.0
2022-01-20-16:27:16.527373,1.0,10.0,276.0
2022-01-20-16:27:16.528368,1.0,10.0,276.0
2022-01-20-16:27:16.529368,3.0,3.0,276.0
2022-01-20-16:27:16.530364,3.0,13.0,276.0
2022-01-20-16:27:16.531361,4.0,6.0,276.0
2022-01-20-16:27:16.532359,4.0,6.0,276.0
2022-01-20-16:27:16.533354,6.0,0.0,275.0
2022-01-20-16:27:16.534353,6.0,0.0,275.0
2022-01-20-16:27:16.535350,6.0,0.0,275.0
2022-01-20-16:27:16.536348,6.0,0.0,275.0
2022-01-20-16:27:16.537345,5.0,6.0,275.0
2022-01-20-16:27:16.538344,9.0,11.0,275.0
2022-01-20-16:27:16.539342,9.0,11.0,275.0
2022-01-20-16:27:16.540337,9.0,11.0,275.0
2022-01-20-16:27:16.541335,8.0,19.0,276.0
2022-01-20-16:27:16.542331,2.0,19.0,275.0
2022-01-20-16:27:16.543328,3.0,10.0,275.0
2022-01-20-16:27:16.544344,3.0,10.0,275.0
2022-01-20-16:27:16.545358,5.0,12.0,275.0
2022-01-20-16:27:16.546354,7.0,10.0,275.0
2022-01-20-16:27:16.547351,7.0,10.0,275.0
2022-01-20-16:27:16.548349,7.0,10.0,275.0
2022-01-20-16:27:16.549348,7.0,10.0,275.0
2022-01-20-16:27:16.550343,4.0,3.0,275.0
2022-01-20-16:27:16.551308,4.0,3.0,275.0
2022-01-20-16:27:16.552339,4.0,3.0,275.0
2022-01-20-16:27:16.553336,4.0,3.0,275.0
2022-01-20-16:27:16.554300,8.0,5.0,276.0
2022-01-20-16:27:16.555298,4.0,8.0,275.0
2022-01-20-16:27:16.556295,4.0,8.0,275.0
2022-01-20-16:27:16.558288,4.0,15.0,276.0
2022-01-20-16:27:16.558288,8.0,16.0,275.0
2022-01-20-16:27:16.559287,2.0,13.0,276.0
2022-01-20-16:27:16.560283,2.0,13.0,276.0
2022-01-20-16:27:16.561280,2.0,13.0,276.0
2022-01-20-16:27:16.562278,7.0,12.0,276.0
2022-01-20-16:27:16.563276,0.0,10.0,275.0
2022-01-20-16:27:16.564307,3.0,10.0,276.0
2022-01-20-16:27:16.565305,3.0,10.0,276.0
2022-01-20-16:27:16.566267,6.0,2.0,275.0
2022-01-20-16:27:16.567264,5.0,5.0,275.0
2022-01-20-16:27:16.568267,5.0,5.0,275.0
2022-01-20-16:27:16.569291,5.0,5.0,275.0
2022-01-20-16:27:16.570256,4.0,2.0,276.0
2022-01-20-16:27:16.571288,5.0,6.0,276.0
2022-01-20-16:27:16.572288,7.0,1.0,276.0
2022-01-20-16:27:16.573249,7.0,1.0,276.0
2022-01-20-16:27:16.574248,9.0,22.0,275.0
2022-01-20-16:27:16.575245,3.0,13.0,275.0
2022-01-20-16:27:16.576240,3.0,13.0,275.0
2022-01-20-16:27:16.577237,3.0,13.0,275.0
2022-01-20-16:27:16.578234,3.0,12.0,275.0
2022-01-20-16:27:16.579232,5.0,14.0,276.0
2022-01-20-16:27:16.580229,5.0,14.0,276.0
2022-01-20-16:27:16.581227,5.0,14.0,276.0
2022-01-20-16:27:16.582224,6.0,0.0,276.0
2022-01-20-16:27:16.583221,4.0,1.0,276.0
2022-01-20-16:27:16.584219,4.0,1.0,276.0
2022-01-20-16:27:16.585216,4.0,1.0,276.0
2022-01-20-16:27:16.586215,11.0,3.0,275.0
2022-01-20-16:27:16.587213,11.0,3.0,275.0
2022-01-20-16:27:16.588209,11.0,3.0,275.0
2022-01-20-16:27:16.589208,11.0,3.0,275.0
2022-01-20-16:27:16.590204,11.0,3.0,275.0
2022-01-20-16:27:16.592198,9.0,14.0,275.0
2022-01-20-16:27:16.592198,2.0,17.0,275.0
2022-01-20-16:27:16.593195,2.0,17.0,275.0
2022-01-20-16:27:16.594192,2.0,17.0,275.0
2022-01-20-16:27:16.595189,4.0,9.0,275.0
2022-01-20-16:27:16.596187,1.0,12.0,276.0
2022-01-20-16:27:16.597184,1.0,12.0,276.0
2022-01-20-16:27:16.598215,1.0,12.0,276.0
2022-01-20-16:27:16.599178,5.0,9.0,275.0
2022-01-20-16:27:16.600176,6.0,2.0,276.0
2022-01-20-16:27:16.601175,6.0,2.0,276.0
2022-01-20-16:27:16.602172,6.0,2.0,276.0
2022-01-20-16:27:16.603168,6.0,3.0,275.0
2022-01-20-16:27:16.604165,4.0,4.0,276.0
2022-01-20-16:27:16.605164,4.0,4.0,276.0
2022-01-20-16:27:16.606163,4.0,4.0,276.0
2022-01-20-16:27:16.607157,6.0,9.0,275.0
2022-01-20-16:27:16.608155,6.0,22.0,275.0
2022-01-20-16:27:16.609185,4.0,15.0,275.0
2022-01-20-16:27:16.610150,4.0,15.0,275.0
2022-01-20-16:27:16.611147,1.0,2.0,276.0
2022-01-20-16:27:16.612152,2.0,7.0,276.0
2022-01-20-16:27:16.613142,2.0,7.0,276.0
2022-01-20-16:27:16.614139,2.0,7.0,276.0
2022-01-20-16:27:16.615171,8.0,3.0,275.0
2022-01-20-16:27:16.616166,8.0,2.0,275.0
2022-01-20-16:27:16.617178,8.0,2.0,275.0
2022-01-20-16:27:16.618130,8.0,2.0,275.0
2022-01-20-16:27:16.619158,2.0,4.0,276.0
2022-01-20-16:27:16.620156,8.0,2.0,275.0
2022-01-20-16:27:16.621154,8.0,2.0,275.0
2022-01-20-16:27:16.622118,8.0,2.0,275.0
2022-01-20-16:27:16.623115,6.0,20.0,276.0
2022-01-20-16:27:16.624147,4.0,16.0,275.0
2022-01-20-16:27:16.626108,4.0,16.0,275.0
2022-01-20-16:27:16.626108,1.0,2.0,275.0
2022-01-20-16:27:16.627104,4.0,10.0,276.0
2022-01-20-16:27:16.628135,4.0,10.0,276.0
2022-01-20-16:27:16.629100,4.0,10.0,276.0
2022-01-20-16:27:16.630097,4.0,10.0,276.0
2022-01-20-16:27:16.631142,4.0,10.0,276.0
2022-01-20-16:27:16.632092,5.0,0.0,275.0
2022-01-20-16:27:16.633088,5.0,0.0,275.0
2022-01-20-16:27:16.634086,5.0,0.0,275.0
2022-01-20-16:27:16.635084,5.0,0.0,275.0
2022-01-20-16:27:16.636081,6.0,2.0,275.0
2022-01-20-16:27:16.637105,7.0,1.0,275.0
2022-01-20-16:27:16.638075,7.0,1.0,275.0
2022-01-20-16:27:16.639072,7.0,1.0,275.0
2022-01-20-16:27:16.640096,5.0,17.0,276.0
2022-01-20-16:27:16.641067,2.0,14.0,276.0
2022-01-20-16:27:16.642090,2.0,14.0,276.0
2022-01-20-16:27:16.643086,2.0,14.0,276.0
2022-01-20-16:27:16.644096,2.0,6.0,275.0
2022-01-20-16:27:16.645060,4.0,15.0,275.0
2022-01-20-16:27:16.646054,4.0,15.0,275.0
2022-01-20-16:27:16.647051,4.0,15.0,275.0
2022-01-20-16:27:16.648081,5.0,4.0,275.0
2022-01-20-16:27:16.649047,4.0,0.0,275.0
2022-01-20-16:27:16.650043,4.0,0.0,275.0
2022-01-20-16:27:16.651041,4.0,0.0,275.0
2022-01-20-16:27:16.652040,3.0,3.0,276.0
2022-01-20-16:27:16.653036,3.0,3.0,276.0
2022-01-20-16:27:16.654034,7.0,3.0,276.0
2022-01-20-16:27:16.655030,9.0,1.0,276.0
2022-01-20-16:27:16.656028,5.0,6.0,276.0
2022-01-20-16:27:16.657026,4.0,14.0,275.0
2022-01-20-16:27:16.658022,4.0,14.0,275.0
2022-01-20-16:27:16.659019,4.0,14.0,275.0
2022-01-20-16:27:16.660017,4.0,14.0,275.0
2022-01-20-16:27:16.662011,0.0,13.0,275.0
2022-01-20-16:27:16.662011,3.0,10.0,276.0
2022-01-20-16:27:16.663011,3.0,10.0,276.0
2022-01-20-16:27:16.664006,3.0,10.0,276.0
2022-01-20-16:27:16.665003,2.0,1.0,276.0
2022-01-20-16:27:16.666000,2.0,1.0,276.0
2022-01-20-16:27:16.666997,2.0,1.0,276.0
2022-01-20-16:27:16.667996,2.0,1.0,276.0
2022-01-20-16:27:16.669028,5.0,0.0,275.0
2022-01-20-16:27:16.670023,2.0,6.0,276.0
2022-01-20-16:27:16.670987,2.0,6.0,276.0
2022-01-20-16:27:16.672018,2.0,6.0,276.0
2022-01-20-16:27:16.672981,6.0,13.0,276.0
2022-01-20-16:27:16.673979,8.0,22.0,275.0
2022-01-20-16:27:16.675011,7.0,18.0,275.0
2022-01-20-16:27:16.676003,7.0,18.0,275.0
2022-01-20-16:27:16.676971,2.0,5.0,276.0
2022-01-20-16:27:16.677969,2.0,8.0,276.0
2022-01-20-16:27:16.678966,2.0,8.0,276.0
2022-01-20-16:27:16.679963,2.0,8.0,276.0
2022-01-20-16:27:16.680960,7.0,6.0,276.0
2022-01-20-16:27:16.681958,4.0,1.0,275.0
2022-01-20-16:27:16.682956,4.0,1.0,275.0
2022-01-20-16:27:16.683952,4.0,1.0,275.0
2022-01-20-16:27:16.684952,7.0,2.0,275.0
2022-01-20-16:27:16.685949,7.0,7.0,275.0
2022-01-20-16:27:16.686945,7.0,3.0,276.0
2022-01-20-16:27:16.687942,7.0,3.0,276.0
2022-01-20-16:27:16.688939,10.0,1.0,275.0
2022-01-20-16:27:16.689968,5.0,21.0,275.0
2022-01-20-16:27:16.690958,5.0,21.0,275.0
2022-01-20-16:27:16.691931,5.0,21.0,275.0
2022-01-20-16:27:16.693926,5.0,17.0,275.0
2022-01-20-16:27:16.693926,1.0,4.0,275.0
2022-01-20-16:27:16.694923,1.0,4.0,275.0
2022-01-20-16:27:16.695920,1.0,4.0,275.0
2022-01-20-16:27:16.696919,5.0,6.0,275.0
2022-01-20-16:27:16.697915,3.0,1.0,275.0
2022-01-20-16:27:16.698912,3.0,1.0,275.0
2022-01-20-16:27:16.699934,3.0,1.0,275.0
2022-01-20-16:27:16.700907,6.0,0.0,275.0
2022-01-20-16:27:16.701929,4.0,5.0,276.0
2022-01-20-16:27:16.702907,4.0,5.0,276.0
2022-01-20-16:27:16.703925,4.0,5.0,276.0
2022-01-20-16:27:16.704897,4.0,5.0,276.0
2022-01-20-16:27:16.705894,9.0,18.0,276.0
2022-01-20-16:27:16.706892,9.0,18.0,276.0
2022-01-20-16:27:16.707888,9.0,18.0,276.0
2022-01-20-16:27:16.708922,9.0,18.0,276.0
2022-01-20-16:27:16.709883,1.0,1.0,275.0
2022-01-20-16:27:16.710880,1.0,1.0,275.0
2022-01-20-16:27:16.711877,1.0,1.0,275.0
2022-01-20-16:27:16.712875,1.0,1.0,275.0
2022-01-20-16:27:16.713873,6.0,4.0,275.0
2022-01-20-16:27:16.714904,6.0,4.0,275.0
2022-01-20-16:27:16.715867,6.0,4.0,275.0
2022-01-20-16:27:16.716865,6.0,4.0,275.0
2022-01-20-16:27:16.717862,5.0,5.0,275.0
2022-01-20-16:27:16.718860,5.0,4.0,276.0
2022-01-20-16:27:16.719856,5.0,4.0,276.0
2022-01-20-16:27:16.720854,5.0,4.0,276.0
2022-01-20-16:27:16.721886,9.0,13.0,275.0
2022-01-20-16:27:16.722883,9.0,17.0,275.0
2022-01-20-16:27:16.723879,9.0,17.0,275.0
2022-01-20-16:27:16.724843,9.0,17.0,275.0
2022-01-20-16:27:16.726872,3.0,2.0,276.0
2022-01-20-16:27:16.726872,3.0,2.0,276.0
2022-01-20-16:27:16.727867,3.0,2.0,276.0
2022-01-20-16:27:16.728832,3.0,2.0,276.0
2022-01-20-16:27:16.729831,2.0,3.0,276.0
2022-01-20-16:27:16.730830,4.0,5.0,275.0
2022-01-20-16:27:16.731826,4.0,5.0,275.0
2022-01-20-16:27:16.732826,4.0,5.0,275.0
2022-01-20-16:27:16.733822,4.0,5.0,276.0
2022-01-20-16:27:16.734820,2.0,3.0,276.0
2022-01-20-16:27:16.735820,2.0,3.0,276.0
2022-01-20-16:27:16.736816,2.0,3.0,276.0
2022-01-20-16:27:16.737811,2.0,3.0,276.0
2022-01-20-16:27:16.738810,8.0,17.0,276.0
2022-01-20-16:27:16.739803,8.0,17.0,276.0
2022-01-20-16:27:16.740803,8.0,17.0,276.0
2022-01-20-16:27:16.741801,6.0,15.0,276.0
2022-01-20-16:27:16.742800,1.0,11.0,275.0
2022-01-20-16:27:16.743796,1.0,11.0,275.0
2022-01-20-16:27:16.744792,1.0,11.0,275.0
2022-01-20-16:27:16.745792,1.0,11.0,275.0
2022-01-20-16:27:16.746786,3.0,13.0,276.0
2022-01-20-16:27:16.747786,4.0,6.0,276.0
2022-01-20-16:27:16.748781,4.0,6.0,276.0
2022-01-20-16:27:16.749781,4.0,6.0,276.0
2022-01-20-16:27:16.750776,4.0,1.0,275.0
2022-01-20-16:27:16.751775,3.0,5.0,276.0
2022-01-20-16:27:16.752770,3.0,5.0,276.0
2022-01-20-16:27:16.753768,3.0,5.0,276.0
2022-01-20-16:27:16.754768,5.0,6.0,275.0
2022-01-20-16:27:16.755763,3.0,15.0,276.0
2022-01-20-16:27:16.756760,3.0,15.0,276.0
2022-01-20-16:27:16.757757,3.0,15.0,276.0
2022-01-20-16:27:16.758757,8.0,17.0,275.0
2022-01-20-16:27:16.760751,4.0,12.0,275.0
2022-01-20-16:27:16.760751,4.0,12.0,275.0
2022-01-20-16:27:16.761749,2.0,8.0,275.0
2022-01-20-16:27:16.762745,3.0,4.0,276.0
2022-01-20-16:27:16.763745,3.0,4.0,276.0
2022-01-20-16:27:16.764740,3.0,4.0,276.0
2022-01-20-16:27:16.765737,3.0,4.0,276.0
2022-01-20-16:27:16.766731,6.0,1.0,276.0
2022-01-20-16:27:16.767731,6.0,1.0,276.0
2022-01-20-16:27:16.768729,6.0,1.0,276.0
2022-01-20-16:27:16.769725,6.0,1.0,276.0
2022-01-20-16:27:16.770724,6.0,1.0,275.0
2022-01-20-16:27:16.771722,7.0,10.0,276.0
2022-01-20-16:27:16.772717,7.0,10.0,276.0
2022-01-20-16:27:16.773715,7.0,10.0,276.0
2022-01-20-16:27:16.774712,1.0,13.0,276.0
2022-01-20-16:27:16.775709,1.0,13.0,276.0
2022-01-20-16:27:16.776704,1.0,13.0,276.0
2022-01-20-16:27:16.777738,1.0,13.0,276.0
2022-01-20-16:27:16.778733,6.0,12.0,275.0
2022-01-20-16:27:16.779733,6.0,12.0,275.0
2022-01-20-16:27:16.780729,6.0,12.0,275.0
2022-01-20-16:27:16.781727,6.0,12.0,275.0
2022-01-20-16:27:16.782723,6.0,12.0,275.0
2022-01-20-16:27:16.783719,4.0,0.0,275.0
2022-01-20-16:27:16.784682,7.0,4.0,276.0
2022-01-20-16:27:16.785716,7.0,4.0,276.0
2022-01-20-16:27:16.786712,7.0,4.0,276.0
2022-01-20-16:27:16.787711,6.0,6.0,276.0
2022-01-20-16:27:16.788707,7.0,11.0,275.0
2022-01-20-16:27:16.789703,7.0,11.0,275.0
2022-01-20-16:27:16.790701,7.0,11.0,275.0
2022-01-20-16:27:16.791698,3.0,19.0,276.0
2022-01-20-16:27:16.792664,4.0,15.0,275.0
2022-01-20-16:27:16.794657,4.0,15.0,275.0
2022-01-20-16:27:16.794657,4.0,15.0,275.0
2022-01-20-16:27:16.795654,5.0,7.0,276.0
2022-01-20-16:27:16.796652,5.0,7.0,276.0
2022-01-20-16:27:16.797647,5.0,7.0,276.0
2022-01-20-16:27:16.798648,5.0,7.0,276.0
2022-01-20-16:27:16.799645,5.0,2.0,275.0
2022-01-20-16:27:16.800640,5.0,2.0,275.0
2022-01-20-16:27:16.801637,5.0,2.0,275.0
2022-01-20-16:27:16.802634,5.0,2.0,275.0
2022-01-20-16:27:16.803632,6.0,7.0,276.0
2022-01-20-16:27:16.804631,7.0,1.0,276.0
2022-01-20-16:27:16.805629,7.0,1.0,276.0
2022-01-20-16:27:16.806624,7.0,1.0,276.0
2022-01-20-16:27:16.807621,9.0,18.0,275.0
2022-01-20-16:27:16.808620,4.0,15.0,276.0
2022-01-20-16:27:16.809617,4.0,15.0,276.0
2022-01-20-16:27:16.810613,4.0,15.0,276.0
2022-01-20-16:27:16.811611,1.0,16.0,275.0
2022-01-20-16:27:16.812609,2.0,2.0,276.0
2022-01-20-16:27:16.813605,2.0,2.0,276.0
2022-01-20-16:27:16.814603,4.0,13.0,275.0
2022-01-20-16:27:16.815600,3.0,1.0,275.0
2022-01-20-16:27:16.816632,2.0,1.0,275.0
2022-01-20-16:27:16.817598,2.0,1.0,275.0
2022-01-20-16:27:16.818593,2.0,1.0,275.0
2022-01-20-16:27:16.819602,2.0,1.0,275.0
2022-01-20-16:27:16.820587,11.0,5.0,275.0
2022-01-20-16:27:16.821618,11.0,5.0,275.0
2022-01-20-16:27:16.822616,11.0,5.0,275.0
2022-01-20-16:27:16.823613,11.0,5.0,275.0
2022-01-20-16:27:16.824579,9.0,18.0,275.0
2022-01-20-16:27:16.825575,6.0,13.0,275.0
2022-01-20-16:27:16.826573,6.0,13.0,275.0
2022-01-20-16:27:16.827571,6.0,13.0,275.0
2022-01-20-16:27:16.829563,5.0,13.0,275.0
2022-01-20-16:27:16.829563,5.0,13.0,275.0
2022-01-20-16:27:16.830560,5.0,13.0,275.0
2022-01-20-16:27:16.831558,5.0,13.0,275.0
2022-01-20-16:27:16.832557,6.0,1.0,276.0
2022-01-20-16:27:16.833557,3.0,2.0,276.0
2022-01-20-16:27:16.834553,3.0,2.0,276.0
2022-01-20-16:27:16.835580,3.0,2.0,276.0
2022-01-20-16:27:16.836544,5.0,2.0,276.0
2022-01-20-16:27:16.837541,5.0,7.0,276.0
2022-01-20-16:27:16.838574,5.0,7.0,276.0
2022-01-20-16:27:16.839541,5.0,7.0,276.0
2022-01-20-16:27:16.840534,4.0,12.0,276.0
2022-01-20-16:27:16.841565,4.0,12.0,276.0
2022-01-20-16:27:16.842560,4.0,12.0,276.0
2022-01-20-16:27:16.843526,4.0,12.0,276.0
2022-01-20-16:27:16.844556,3.0,12.0,275.0
2022-01-20-16:27:16.845552,3.0,12.0,275.0
2022-01-20-16:27:16.846552,3.0,12.0,275.0
2022-01-20-16:27:16.847515,3.0,12.0,275.0
2022-01-20-16:27:16.848544,5.0,3.0,275.0
2022-01-20-16:27:16.849509,8.0,2.0,275.0
2022-01-20-16:27:16.850506,8.0,2.0,275.0
2022-01-20-16:27:16.851504,8.0,2.0,275.0
2022-01-20-16:27:16.852524,8.0,2.0,275.0
2022-01-20-16:27:16.853531,4.0,5.0,275.0
2022-01-20-16:27:16.854531,4.0,5.0,275.0
2022-01-20-16:27:16.855493,4.0,5.0,275.0
2022-01-20-16:27:16.856490,4.0,5.0,275.0
2022-01-20-16:27:16.857488,5.0,20.0,275.0
2022-01-20-16:27:16.858485,3.0,15.0,275.0
2022-01-20-16:27:16.859482,3.0,15.0,275.0
2022-01-20-16:27:16.860480,3.0,15.0,275.0
2022-01-20-16:27:16.862474,5.0,11.0,276.0
2022-01-20-16:27:16.862474,5.0,11.0,276.0
2022-01-20-16:27:16.863472,5.0,11.0,276.0
2022-01-20-16:27:16.864469,5.0,11.0,276.0
2022-01-20-16:27:16.865466,3.0,3.0,276.0
2022-01-20-16:27:16.866464,8.0,1.0,275.0
2022-01-20-16:27:16.867462,8.0,1.0,275.0
2022-01-20-16:27:16.868459,8.0,1.0,275.0
2022-01-20-16:27:16.869456,6.0,4.0,275.0
2022-01-20-16:27:16.870453,8.0,5.0,275.0
2022-01-20-16:27:16.871450,8.0,5.0,275.0
2022-01-20-16:27:16.872448,8.0,5.0,275.0
2022-01-20-16:27:16.873445,6.0,17.0,276.0
2022-01-20-16:27:16.874442,6.0,15.0,275.0
2022-01-20-16:27:16.875440,6.0,15.0,275.0
2022-01-20-16:27:16.876437,6.0,15.0,275.0
2022-01-20-16:27:16.877434,3.0,2.0,275.0
2022-01-20-16:27:16.878432,3.0,13.0,276.0
2022-01-20-16:27:16.879429,3.0,13.0,276.0
2022-01-20-16:27:16.880426,3.0,13.0,276.0
2022-01-20-16:27:16.881424,4.0,6.0,275.0
2022-01-20-16:27:16.882421,7.0,4.0,275.0
2022-01-20-16:27:16.883418,7.0,4.0,275.0
2022-01-20-16:27:16.884416,7.0,4.0,275.0
2022-01-20-16:27:16.885413,6.0,3.0,275.0
2022-01-20-16:27:16.886411,7.0,1.0,276.0
2022-01-20-16:27:16.887408,7.0,1.0,276.0
2022-01-20-16:27:16.888405,7.0,1.0,276.0
2022-01-20-16:27:16.889403,10.0,17.0,276.0
2022-01-20-16:27:16.890433,4.0,16.0,275.0
2022-01-20-16:27:16.891430,4.0,16.0,275.0
2022-01-20-16:27:16.892431,4.0,16.0,275.0
2022-01-20-16:27:16.893426,4.0,16.0,275.0
2022-01-20-16:27:16.894425,4.0,11.0,275.0
2022-01-20-16:27:16.896417,4.0,11.0,275.0
2022-01-20-16:27:16.896417,4.0,11.0,275.0
2022-01-20-16:27:16.897417,5.0,0.0,275.0
2022-01-20-16:27:16.898413,5.0,0.0,275.0
2022-01-20-16:27:16.899410,5.0,0.0,275.0
2022-01-20-16:27:16.900374,5.0,0.0,275.0
2022-01-20-16:27:16.901405,5.0,0.0,275.0
2022-01-20-16:27:16.902404,4.0,1.0,276.0
2022-01-20-16:27:16.903398,6.0,5.0,276.0
2022-01-20-16:27:16.904396,6.0,5.0,276.0
2022-01-20-16:27:16.905360,6.0,5.0,276.0
2022-01-20-16:27:16.906392,7.0,9.0,276.0
2022-01-20-16:27:16.907388,7.0,19.0,275.0
2022-01-20-16:27:16.908387,7.0,19.0,275.0
2022-01-20-16:27:16.909385,7.0,19.0,275.0
2022-01-20-16:27:16.910347,3.0,14.0,275.0
2022-01-20-16:27:16.911378,2.0,1.0,276.0
2022-01-20-16:27:16.912375,2.0,1.0,276.0
2022-01-20-16:27:16.913372,2.0,1.0,276.0
2022-01-20-16:27:16.914372,6.0,7.0,276.0
2022-01-20-16:27:16.915370,6.0,1.0,276.0
2022-01-20-16:27:16.916366,6.0,1.0,276.0
2022-01-20-16:27:16.917328,6.0,1.0,276.0
2022-01-20-16:27:16.918326,9.0,0.0,275.0
2022-01-20-16:27:16.919357,6.0,6.0,275.0
2022-01-20-16:27:16.920354,6.0,6.0,275.0
2022-01-20-16:27:16.921318,6.0,6.0,275.0
2022-01-20-16:27:16.922349,10.0,4.0,276.0
2022-01-20-16:27:16.923346,9.0,17.0,275.0
2022-01-20-16:27:16.924345,9.0,17.0,275.0
2022-01-20-16:27:16.925306,9.0,17.0,275.0
2022-01-20-16:27:16.926339,4.0,8.0,276.0
2022-01-20-16:27:16.927335,2.0,1.0,276.0
2022-01-20-16:27:16.928331,2.0,1.0,276.0
2022-01-20-16:27:16.930328,2.0,1.0,276.0
2022-01-20-16:27:16.930328,4.0,6.0,276.0
2022-01-20-16:27:16.931323,6.0,0.0,276.0
2022-01-20-16:27:16.932326,6.0,0.0,276.0
2022-01-20-16:27:16.933287,6.0,0.0,276.0
2022-01-20-16:27:16.934282,6.0,0.0,276.0
2022-01-20-16:27:16.935280,9.0,3.0,276.0
2022-01-20-16:27:16.936309,4.0,1.0,275.0
2022-01-20-16:27:16.937309,4.0,1.0,275.0
2022-01-20-16:27:16.938305,4.0,1.0,275.0
2022-01-20-16:27:16.939302,5.0,9.0,276.0
2022-01-20-16:27:16.940300,5.0,19.0,276.0
2022-01-20-16:27:16.941297,5.0,19.0,276.0
2022-01-20-16:27:16.942295,5.0,19.0,276.0
2022-01-20-16:27:16.943291,2.0,14.0,276.0
2022-01-20-16:27:16.944290,1.0,1.0,276.0
2022-01-20-16:27:16.945287,1.0,1.0,276.0
2022-01-20-16:27:16.946283,1.0,1.0,276.0
2022-01-20-16:27:16.947280,3.0,3.0,275.0
2022-01-20-16:27:16.948279,5.0,5.0,276.0
2022-01-20-16:27:16.949274,5.0,5.0,276.0
2022-01-20-16:27:16.950240,5.0,5.0,276.0
2022-01-20-16:27:16.951237,4.0,2.0,276.0
2022-01-20-16:27:16.952267,4.0,0.0,276.0
2022-01-20-16:27:16.953266,4.0,0.0,276.0
2022-01-20-16:27:16.954230,4.0,0.0,276.0
2022-01-20-16:27:16.955259,9.0,13.0,276.0
2022-01-20-16:27:16.956257,10.0,18.0,275.0
2022-01-20-16:27:16.957254,10.0,18.0,275.0
2022-01-20-16:27:16.958219,10.0,18.0,275.0
2022-01-20-16:27:16.959248,4.0,17.0,276.0
2022-01-20-16:27:16.960245,1.0,6.0,275.0
2022-01-20-16:27:16.961245,1.0,6.0,275.0
2022-01-20-16:27:16.962208,1.0,6.0,275.0
2022-01-20-16:27:16.964236,6.0,7.0,276.0
2022-01-20-16:27:16.964236,6.0,7.0,276.0
2022-01-20-16:27:16.965232,6.0,7.0,276.0
2022-01-20-16:27:16.966231,6.0,7.0,276.0
2022-01-20-16:27:16.967227,9.0,1.0,275.0
2022-01-20-16:27:16.968208,7.0,4.0,276.0
2022-01-20-16:27:16.969223,7.0,4.0,276.0
2022-01-20-16:27:16.970218,7.0,4.0,276.0
2022-01-20-16:27:16.971216,8.0,4.0,276.0
2022-01-20-16:27:16.972215,8.0,16.0,276.0
2022-01-20-16:27:16.973211,8.0,16.0,276.0
2022-01-20-16:27:16.974210,8.0,16.0,276.0
2022-01-20-16:27:16.975206,8.0,16.0,276.0
2022-01-20-16:27:16.976203,6.0,15.0,276.0
2022-01-20-16:27:16.977202,1.0,9.0,275.0
2022-01-20-16:27:16.978199,1.0,9.0,275.0
2022-01-20-16:27:16.979194,1.0,9.0,275.0
2022-01-20-16:27:16.980194,1.0,3.0,275.0
2022-01-20-16:27:16.981158,1.0,3.0,275.0
2022-01-20-16:27:16.982156,1.0,3.0,275.0
2022-01-20-16:27:16.983151,1.0,3.0,275.0
2022-01-20-16:27:16.984149,4.0,1.0,275.0
2022-01-20-16:27:16.985146,7.0,4.0,276.0
2022-01-20-16:27:16.986143,7.0,4.0,276.0
2022-01-20-16:27:16.987141,7.0,4.0,276.0
2022-01-20-16:27:16.988138,10.0,3.0,275.0
2022-01-20-16:27:16.989137,7.0,13.0,276.0
2022-01-20-16:27:16.990133,7.0,13.0,276.0
2022-01-20-16:27:16.991132,7.0,13.0,276.0
2022-01-20-16:27:16.992128,6.0,16.0,276.0
2022-01-20-16:27:16.993124,4.0,13.0,275.0
2022-01-20-16:27:16.994124,4.0,13.0,275.0
2022-01-20-16:27:16.995119,4.0,13.0,275.0
2022-01-20-16:27:16.996118,3.0,12.0,276.0
2022-01-20-16:27:16.997114,4.0,4.0,276.0
2022-01-20-16:27:16.999111,4.0,4.0,276.0
2022-01-20-16:27:16.999111,5.0,2.0,275.0
2022-01-20-16:27:17.000107,7.0,4.0,276.0
2022-01-20-16:27:17.001106,7.0,4.0,276.0
2022-01-20-16:27:17.002102,7.0,4.0,276.0
2022-01-20-16:27:17.003098,7.0,4.0,276.0
2022-01-20-16:27:17.004096,7.0,1.0,276.0
2022-01-20-16:27:17.005093,5.0,8.0,276.0
2022-01-20-16:27:17.006093,5.0,8.0,276.0
2022-01-20-16:27:17.007089,5.0,8.0,276.0
2022-01-20-16:27:17.008085,5.0,8.0,276.0
2022-01-20-16:27:17.009084,5.0,13.0,276.0
2022-01-20-16:27:17.010081,5.0,13.0,276.0
2022-01-20-16:27:17.011077,5.0,13.0,276.0
2022-01-20-16:27:17.012076,5.0,13.0,276.0
2022-01-20-16:27:17.013071,5.0,14.0,276.0
2022-01-20-16:27:17.014068,3.0,7.0,275.0
2022-01-20-16:27:17.015068,3.0,7.0,275.0
2022-01-20-16:27:17.016065,3.0,7.0,275.0
2022-01-20-16:27:17.017062,6.0,1.0,276.0
2022-01-20-16:27:17.018060,2.0,5.0,275.0
2022-01-20-16:27:17.019057,2.0,5.0,275.0
2022-01-20-16:27:17.020054,2.0,5.0,275.0
2022-01-20-16:27:17.021050,5.0,7.0,276.0
2022-01-20-16:27:17.022048,8.0,11.0,275.0
2022-01-20-16:27:17.023046,8.0,11.0,275.0
2022-01-20-16:27:17.024042,8.0,11.0,275.0
2022-01-20-16:27:17.025039,6.0,18.0,275.0
2022-01-20-16:27:17.026036,4.0,10.0,275.0
2022-01-20-16:27:17.027034,4.0,10.0,275.0
2022-01-20-16:27:17.028032,4.0,10.0,275.0
2022-01-20-16:27:17.029033,4.0,12.0,276.0
2022-01-20-16:27:17.030031,1.0,10.0,276.0
2022-01-20-16:27:17.032022,1.0,10.0,276.0
2022-01-20-16:27:17.032022,1.0,10.0,276.0
2022-01-20-16:27:17.033022,3.0,6.0,276.0
2022-01-20-16:27:17.034018,3.0,6.0,276.0
2022-01-20-16:27:17.035015,3.0,6.0,276.0
2022-01-20-16:27:17.036014,3.0,6.0,276.0
2022-01-20-16:27:17.037010,5.0,5.0,275.0
2022-01-20-16:27:17.038006,8.0,5.0,275.0
2022-01-20-16:27:17.039004,8.0,5.0,275.0
2022-01-20-16:27:17.040000,8.0,5.0,275.0
2022-01-20-16:27:17.041001,5.0,21.0,276.0
2022-01-20-16:27:17.041996,3.0,11.0,276.0
2022-01-20-16:27:17.042994,3.0,11.0,276.0
2022-01-20-16:27:17.043989,3.0,11.0,276.0
2022-01-20-16:27:17.044986,3.0,11.0,276.0
2022-01-20-16:27:17.045984,5.0,13.0,276.0
2022-01-20-16:27:17.046980,5.0,13.0,276.0
2022-01-20-16:27:17.047979,5.0,13.0,276.0
2022-01-20-16:27:17.048975,5.0,13.0,276.0
2022-01-20-16:27:17.049973,4.0,3.0,276.0
2022-01-20-16:27:17.050972,4.0,3.0,276.0
2022-01-20-16:27:17.051968,4.0,3.0,276.0
2022-01-20-16:27:17.052965,4.0,3.0,276.0
2022-01-20-16:27:17.053963,6.0,5.0,275.0
2022-01-20-16:27:17.054960,5.0,2.0,275.0
2022-01-20-16:27:17.055958,5.0,2.0,275.0
2022-01-20-16:27:17.056954,5.0,2.0,275.0
2022-01-20-16:27:17.057953,5.0,20.0,276.0
2022-01-20-16:27:17.058949,3.0,15.0,276.0
2022-01-20-16:27:17.059950,3.0,15.0,276.0
2022-01-20-16:27:17.060947,3.0,15.0,276.0
2022-01-20-16:27:17.061944,2.0,2.0,276.0
2022-01-20-16:27:17.062943,1.0,8.0,275.0
2022-01-20-16:27:17.063939,1.0,8.0,275.0
2022-01-20-16:27:17.065934,1.0,8.0,275.0
2022-01-20-16:27:17.065934,3.0,2.0,275.0
2022-01-20-16:27:17.066929,4.0,0.0,275.0
2022-01-20-16:27:17.067928,4.0,0.0,275.0
2022-01-20-16:27:17.068926,4.0,0.0,275.0
2022-01-20-16:27:17.069922,8.0,0.0,275.0
2022-01-20-16:27:17.070919,7.0,9.0,276.0
2022-01-20-16:27:17.071917,7.0,9.0,276.0
2022-01-20-16:27:17.072915,7.0,9.0,276.0
2022-01-20-16:27:17.073911,5.0,14.0,276.0
2022-01-20-16:27:17.074909,3.0,12.0,275.0
2022-01-20-16:27:17.075905,3.0,12.0,275.0
2022-01-20-16:27:17.076901,3.0,12.0,275.0
2022-01-20-16:27:17.077900,4.0,9.0,275.0
2022-01-20-16:27:17.078897,4.0,11.0,275.0
2022-01-20-16:27:17.079896,4.0,11.0,275.0
2022-01-20-16:27:17.080893,4.0,11.0,275.0
2022-01-20-16:27:17.081890,2.0,4.0,275.0
2022-01-20-16:27:17.082886,6.0,1.0,275.0
2022-01-20-16:27:17.083883,6.0,1.0,275.0
2022-01-20-16:27:17.084880,6.0,1.0,275.0
2022-01-20-16:27:17.085877,6.0,1.0,275.0
2022-01-20-16:27:17.086874,7.0,2.0,276.0
2022-01-20-16:27:17.087873,7.0,2.0,276.0
2022-01-20-16:27:17.088869,7.0,2.0,276.0
2022-01-20-16:27:17.089867,7.0,2.0,276.0
2022-01-20-16:27:17.090865,9.0,11.0,275.0
2022-01-20-16:27:17.091862,2.0,12.0,275.0
2022-01-20-16:27:17.092859,2.0,12.0,275.0
2022-01-20-16:27:17.093857,2.0,12.0,275.0
2022-01-20-16:27:17.094853,4.0,1.0,275.0
2022-01-20-16:27:17.095850,4.0,13.0,276.0
2022-01-20-16:27:17.096847,4.0,13.0,276.0
2022-01-20-16:27:17.097845,4.0,13.0,276.0
2022-01-20-16:27:17.099839,4.0,1.0,275.0
2022-01-20-16:27:17.099839,4.0,1.0,275.0
2022-01-20-16:27:17.100837,4.0,1.0,275.0
2022-01-20-16:27:17.101834,4.0,1.0,275.0
2022-01-20-16:27:17.102832,5.0,1.0,275.0
2022-01-20-16:27:17.103829,6.0,2.0,276.0
2022-01-20-16:27:17.104827,6.0,2.0,276.0
2022-01-20-16:27:17.105824,6.0,2.0,276.0
2022-01-20-16:27:17.106821,6.0,13.0,275.0
2022-01-20-16:27:17.107818,6.0,15.0,275.0
2022-01-20-16:27:17.108815,6.0,15.0,275.0
2022-01-20-16:27:17.109813,6.0,15.0,275.0
2022-01-20-16:27:17.110810,3.0,2.0,275.0
2022-01-20-16:27:17.111808,3.0,13.0,276.0
2022-01-20-16:27:17.112805,3.0,13.0,276.0
2022-01-20-16:27:17.113802,3.0,13.0,276.0
2022-01-20-16:27:17.114799,5.0,1.0,275.0
2022-01-20-16:27:17.115797,5.0,2.0,275.0
2022-01-20-16:27:17.116794,5.0,2.0,275.0
2022-01-20-16:27:17.117791,5.0,2.0,275.0
2022-01-20-16:27:17.118789,9.0,6.0,275.0
2022-01-20-16:27:17.119786,6.0,3.0,276.0
2022-01-20-16:27:17.120783,6.0,3.0,276.0
2022-01-20-16:27:17.121781,6.0,3.0,276.0
2022-01-20-16:27:17.122778,6.0,3.0,276.0
2022-01-20-16:27:17.123775,5.0,15.0,276.0
2022-01-20-16:27:17.124773,9.0,16.0,276.0
2022-01-20-16:27:17.125770,9.0,16.0,276.0
2022-01-20-16:27:17.126768,9.0,16.0,276.0
2022-01-20-16:27:17.127765,3.0,12.0,275.0
2022-01-20-16:27:17.128762,2.0,17.0,275.0
2022-01-20-16:27:17.129759,2.0,17.0,275.0
2022-01-20-16:27:17.130757,2.0,17.0,275.0
2022-01-20-16:27:17.131754,3.0,1.0,276.0
2022-01-20-16:27:17.133749,6.0,3.0,275.0
2022-01-20-16:27:17.134746,6.0,3.0,275.0
2022-01-20-16:27:17.134746,6.0,1.0,276.0
2022-01-20-16:27:17.135743,4.0,3.0,276.0
2022-01-20-16:27:17.136741,4.0,3.0,276.0
2022-01-20-16:27:17.137738,4.0,3.0,276.0
2022-01-20-16:27:17.138735,4.0,3.0,276.0
2022-01-20-16:27:17.139733,8.0,9.0,275.0
2022-01-20-16:27:17.140730,4.0,19.0,275.0
2022-01-20-16:27:17.141727,4.0,19.0,275.0
2022-01-20-16:27:17.142725,4.0,19.0,275.0
2022-01-20-16:27:17.143722,1.0,14.0,276.0
2022-01-20-16:27:17.144719,2.0,4.0,276.0
2022-01-20-16:27:17.145717,2.0,4.0,276.0
2022-01-20-16:27:17.146714,2.0,4.0,276.0
2022-01-20-16:27:17.147711,2.0,6.0,275.0
2022-01-20-16:27:17.148709,5.0,1.0,276.0
2022-01-20-16:27:17.149706,5.0,1.0,276.0
2022-01-20-16:27:17.150703,5.0,1.0,276.0
2022-01-20-16:27:17.151717,6.0,0.0,275.0
2022-01-20-16:27:17.152698,3.0,6.0,276.0
2022-01-20-16:27:17.153695,3.0,6.0,276.0
2022-01-20-16:27:17.154692,3.0,6.0,276.0
2022-01-20-16:27:17.155690,6.0,18.0,276.0
2022-01-20-16:27:17.156687,5.0,21.0,276.0
2022-01-20-16:27:17.157685,5.0,21.0,276.0
2022-01-20-16:27:17.158682,5.0,21.0,276.0
2022-01-20-16:27:17.159679,5.0,21.0,276.0
2022-01-20-16:27:17.160677,1.0,2.0,276.0
2022-01-20-16:27:17.161674,1.0,2.0,276.0
2022-01-20-16:27:17.162671,1.0,2.0,276.0
2022-01-20-16:27:17.163669,1.0,2.0,276.0
2022-01-20-16:27:17.164666,4.0,10.0,276.0
2022-01-20-16:27:17.165663,5.0,1.0,276.0
2022-01-20-16:27:17.166661,5.0,1.0,276.0
2022-01-20-16:27:17.168655,5.0,1.0,276.0
2022-01-20-16:27:17.169653,5.0,3.0,277.0
2022-01-20-16:27:17.169653,5.0,3.0,277.0
2022-01-20-16:27:17.170650,5.0,3.0,277.0
2022-01-20-16:27:17.171647,5.0,3.0,277.0
2022-01-20-16:27:17.172645,8.0,17.0,278.0
2022-01-20-16:27:17.173642,3.0,19.0,278.0
2022-01-20-16:27:17.174639,3.0,19.0,278.0
2022-01-20-16:27:17.175637,3.0,19.0,278.0
2022-01-20-16:27:17.176634,0.0,13.0,279.0
2022-01-20-16:27:17.177631,1.0,0.0,278.0
2022-01-20-16:27:17.178629,1.0,0.0,278.0
2022-01-20-16:27:17.179626,1.0,0.0,278.0
2022-01-20-16:27:17.180624,5.0,10.0,279.0
2022-01-20-16:27:17.181621,4.0,3.0,279.0
2022-01-20-16:27:17.182618,4.0,3.0,279.0
2022-01-20-16:27:17.183615,4.0,3.0,279.0
2022-01-20-16:27:17.184624,4.0,1.0,280.0
2022-01-20-16:27:17.185644,1.0,5.0,281.0
2022-01-20-16:27:17.186641,1.0,5.0,281.0
2022-01-20-16:27:17.187605,1.0,5.0,281.0
2022-01-20-16:27:17.188635,6.0,3.0,281.0
2022-01-20-16:27:17.189634,6.0,20.0,282.0
2022-01-20-16:27:17.190631,6.0,20.0,282.0
2022-01-20-16:27:17.191595,6.0,20.0,282.0
2022-01-20-16:27:17.192627,3.0,15.0,282.0
2022-01-20-16:27:17.193629,3.0,4.0,283.0
2022-01-20-16:27:17.194620,3.0,4.0,283.0
2022-01-20-16:27:17.195619,3.0,4.0,283.0
2022-01-20-16:27:17.196581,2.0,10.0,283.0
2022-01-20-16:27:17.197615,4.0,2.0,284.0
2022-01-20-16:27:17.198609,4.0,2.0,284.0
2022-01-20-16:27:17.199607,4.0,2.0,284.0
2022-01-20-16:27:17.200606,7.0,1.0,284.0
2022-01-20-16:27:17.202604,5.0,2.0,285.0
2022-01-20-16:27:17.202604,5.0,2.0,285.0
2022-01-20-16:27:17.203598,5.0,2.0,285.0
2022-01-20-16:27:17.204593,5.0,2.0,285.0
2022-01-20-16:27:17.205596,7.0,5.0,285.0
2022-01-20-16:27:17.206588,5.0,14.0,286.0
2022-01-20-16:27:17.207586,5.0,14.0,286.0
2022-01-20-16:27:17.208585,5.0,14.0,286.0
2022-01-20-16:27:17.209582,5.0,10.0,286.0
2022-01-20-16:27:17.210580,4.0,7.0,286.0
2022-01-20-16:27:17.211576,4.0,7.0,286.0
2022-01-20-16:27:17.212572,4.0,7.0,286.0
2022-01-20-16:27:17.213570,1.0,9.0,287.0
2022-01-20-16:27:17.214567,3.0,4.0,287.0
2022-01-20-16:27:17.215564,3.0,4.0,287.0
2022-01-20-16:27:17.216527,3.0,4.0,287.0
2022-01-20-16:27:17.217583,7.0,5.0,287.0
2022-01-20-16:27:17.218522,4.0,3.0,288.0
2022-01-20-16:27:17.219576,4.0,3.0,288.0
2022-01-20-16:27:17.220549,4.0,3.0,288.0
2022-01-20-16:27:17.221569,6.0,2.0,288.0
2022-01-20-16:27:17.222566,5.0,16.0,288.0
2022-01-20-16:27:17.223543,5.0,16.0,288.0
2022-01-20-16:27:17.224507,5.0,16.0,288.0
2022-01-20-16:27:17.225557,6.0,17.0,289.0
2022-01-20-16:27:17.226555,1.0,15.0,288.0
2022-01-20-16:27:17.227554,1.0,15.0,288.0
2022-01-20-16:27:17.228496,1.0,15.0,288.0
2022-01-20-16:27:17.229548,4.0,11.0,289.0
2022-01-20-16:27:17.230545,3.0,6.0,289.0
2022-01-20-16:27:17.231521,3.0,6.0,289.0
2022-01-20-16:27:17.232519,3.0,6.0,289.0
2022-01-20-16:27:17.233483,7.0,5.0,289.0
2022-01-20-16:27:17.234513,4.0,1.0,289.0
2022-01-20-16:27:17.236522,4.0,1.0,289.0
2022-01-20-16:27:17.236522,3.0,2.0,290.0
2022-01-20-16:27:17.237505,7.0,10.0,290.0
2022-01-20-16:27:17.238503,7.0,10.0,290.0
2022-01-20-16:27:17.239500,7.0,10.0,290.0
2022-01-20-16:27:17.240498,7.0,10.0,290.0
2022-01-20-16:27:17.241494,7.0,10.0,290.0
2022-01-20-16:27:17.242459,7.0,18.0,290.0
2022-01-20-16:27:17.243512,1.0,16.0,290.0
2022-01-20-16:27:17.244487,1.0,16.0,290.0
2022-01-20-16:27:17.245485,1.0,16.0,290.0
2022-01-20-16:27:17.246501,1.0,5.0,290.0
2022-01-20-16:27:17.247444,5.0,4.0,290.0
2022-01-20-16:27:17.248476,5.0,4.0,290.0
2022-01-20-16:27:17.249473,5.0,4.0,290.0
2022-01-20-16:27:17.250491,3.0,2.0,291.0
2022-01-20-16:27:17.251435,5.0,1.0,291.0
2022-01-20-16:27:17.252432,5.0,1.0,291.0
2022-01-20-16:27:17.253463,5.0,1.0,291.0
2022-01-20-16:27:17.254485,6.0,12.0,292.0
2022-01-20-16:27:17.255462,6.0,12.0,292.0
2022-01-20-16:27:17.256455,6.0,12.0,292.0
2022-01-20-16:27:17.257452,6.0,12.0,292.0
2022-01-20-16:27:17.258470,2.0,19.0,292.0
2022-01-20-16:27:17.259469,2.0,12.0,292.0
2022-01-20-16:27:17.260444,2.0,12.0,292.0
2022-01-20-16:27:17.261408,2.0,12.0,292.0
2022-01-20-16:27:17.262439,3.0,17.0,292.0
2022-01-20-16:27:17.263434,3.0,9.0,293.0
2022-01-20-16:27:17.264433,3.0,9.0,293.0
2022-01-20-16:27:17.265397,3.0,9.0,293.0
2022-01-20-16:27:17.266431,4.0,1.0,293.0
2022-01-20-16:27:17.267427,7.0,5.0,293.0
2022-01-20-16:27:17.268423,7.0,5.0,293.0
2022-01-20-16:27:17.270417,7.0,5.0,293.0
2022-01-20-16:27:17.270417,6.0,7.0,295.0
2022-01-20-16:27:17.271414,6.0,7.0,295.0
2022-01-20-16:27:17.272414,6.0,7.0,295.0
2022-01-20-16:27:17.273401,6.0,7.0,295.0
2022-01-20-16:27:17.274410,6.0,7.0,295.0
2022-01-20-16:27:17.275406,2.0,10.0,295.0
2022-01-20-16:27:17.276403,2.0,10.0,295.0
2022-01-20-16:27:17.277401,2.0,10.0,295.0
2022-01-20-16:27:17.278397,2.0,10.0,295.0
2022-01-20-16:27:17.279394,7.0,9.0,296.0
2022-01-20-16:27:17.280391,7.0,9.0,296.0
2022-01-20-16:27:17.281388,7.0,9.0,296.0
2022-01-20-16:27:17.282385,7.0,9.0,296.0
2022-01-20-16:27:17.283373,7.0,4.0,297.0
2022-01-20-16:27:17.284347,5.0,4.0,298.0
2022-01-20-16:27:17.285379,5.0,4.0,298.0
2022-01-20-16:27:17.286375,5.0,4.0,298.0
2022-01-20-16:27:17.287372,5.0,2.0,299.0
2022-01-20-16:27:17.288371,7.0,9.0,298.0
2022-01-20-16:27:17.289367,7.0,9.0,298.0
2022-01-20-16:27:17.290364,7.0,9.0,298.0
2022-01-20-16:27:17.291363,9.0,17.0,299.0
2022-01-20-16:27:17.292360,5.0,10.0,300.0
2022-01-20-16:27:17.293357,5.0,10.0,300.0
2022-01-20-16:27:17.294323,5.0,10.0,300.0
2022-01-20-16:27:17.295320,2.0,1.0,301.0
2022-01-20-16:27:17.296318,3.0,7.0,301.0
2022-01-20-16:27:17.297315,3.0,7.0,301.0
2022-01-20-16:27:17.298310,3.0,7.0,301.0
2022-01-20-16:27:17.299309,8.0,1.0,302.0
2022-01-20-16:27:17.300306,7.0,1.0,302.0
2022-01-20-16:27:17.301306,7.0,1.0,302.0
2022-01-20-16:27:17.302301,7.0,1.0,302.0
2022-01-20-16:27:17.304295,5.0,6.0,303.0
2022-01-20-16:27:17.304295,5.0,5.0,303.0
2022-01-20-16:27:17.305292,6.0,10.0,303.0
2022-01-20-16:27:17.306291,6.0,10.0,303.0
2022-01-20-16:27:17.307287,8.0,21.0,304.0
2022-01-20-16:27:17.308285,4.0,9.0,305.0
2022-01-20-16:27:17.309283,4.0,9.0,305.0
2022-01-20-16:27:17.310278,4.0,9.0,305.0
2022-01-20-16:27:17.311276,2.0,11.0,306.0
2022-01-20-16:27:17.312275,2.0,13.0,306.0
2022-01-20-16:27:17.313273,2.0,13.0,306.0
2022-01-20-16:27:17.314269,2.0,13.0,306.0
2022-01-20-16:27:17.315266,2.0,13.0,306.0
2022-01-20-16:27:17.316263,2.0,1.0,308.0
2022-01-20-16:27:17.317262,2.0,1.0,308.0
2022-01-20-16:27:17.318257,2.0,1.0,308.0
2022-01-20-16:27:17.319257,2.0,1.0,308.0
2022-01-20-16:27:17.320251,11.0,2.0,308.0
2022-01-20-16:27:17.321250,11.0,2.0,308.0
2022-01-20-16:27:17.322247,11.0,2.0,308.0
2022-01-20-16:27:17.323246,11.0,2.0,308.0
2022-01-20-16:27:17.324243,2.0,18.0,309.0
2022-01-20-16:27:17.325238,6.0,14.0,309.0
2022-01-20-16:27:17.326236,6.0,14.0,309.0
2022-01-20-16:27:17.327232,6.0,14.0,309.0
2022-01-20-16:27:17.328231,2.0,10.0,310.0
2022-01-20-16:27:17.329225,3.0,12.0,311.0
2022-01-20-16:27:17.330224,3.0,12.0,311.0
2022-01-20-16:27:17.331221,3.0,12.0,311.0
2022-01-20-16:27:17.332219,3.0,2.0,310.0
2022-01-20-16:27:17.333217,7.0,1.0,311.0
2022-01-20-16:27:17.334214,7.0,1.0,311.0
2022-01-20-16:27:17.335210,7.0,1.0,311.0
2022-01-20-16:27:17.336207,6.0,4.0,311.0
2022-01-20-16:27:17.337204,5.0,3.0,312.0
2022-01-20-16:27:17.339199,5.0,3.0,312.0
2022-01-20-16:27:17.339199,5.0,3.0,312.0
2022-01-20-16:27:17.340196,3.0,15.0,312.0
2022-01-20-16:27:17.341195,3.0,15.0,312.0
2022-01-20-16:27:17.342193,3.0,15.0,312.0
2022-01-20-16:27:17.343189,3.0,15.0,312.0
2022-01-20-16:27:17.344187,0.0,4.0,313.0
2022-01-20-16:27:17.345185,2.0,14.0,312.0
2022-01-20-16:27:17.346181,2.0,14.0,312.0
2022-01-20-16:27:17.347178,2.0,14.0,312.0
2022-01-20-16:27:17.348175,6.0,2.0,313.0
2022-01-20-16:27:17.349175,7.0,1.0,313.0
2022-01-20-16:27:17.350169,7.0,1.0,313.0
2022-01-20-16:27:17.351169,7.0,1.0,313.0
2022-01-20-16:27:17.352165,7.0,1.0,313.0
2022-01-20-16:27:17.353161,7.0,1.0,314.0
2022-01-20-16:27:17.354159,7.0,1.0,314.0
2022-01-20-16:27:17.355158,7.0,1.0,314.0
2022-01-20-16:27:17.356153,7.0,1.0,314.0
2022-01-20-16:27:17.357151,7.0,8.0,314.0
2022-01-20-16:27:17.358150,4.0,16.0,314.0
2022-01-20-16:27:17.359145,4.0,16.0,314.0
2022-01-20-16:27:17.360144,4.0,16.0,314.0
2022-01-20-16:27:17.361140,1.0,2.0,314.0
2022-01-20-16:27:17.362138,0.0,14.0,314.0
2022-01-20-16:27:17.363135,0.0,14.0,314.0
2022-01-20-16:27:17.364133,0.0,14.0,314.0
2022-01-20-16:27:17.365132,5.0,8.0,315.0
2022-01-20-16:27:17.366129,2.0,2.0,315.0
2022-01-20-16:27:17.367124,2.0,2.0,315.0
2022-01-20-16:27:17.368121,2.0,2.0,315.0
2022-01-20-16:27:17.369121,5.0,4.0,315.0
2022-01-20-16:27:17.370118,8.0,2.0,315.0
2022-01-20-16:27:17.371113,8.0,2.0,315.0
2022-01-20-16:27:17.373144,8.0,2.0,315.0
2022-01-20-16:27:17.373144,5.0,17.0,316.0
2022-01-20-16:27:17.374140,5.0,17.0,316.0
2022-01-20-16:27:17.375142,5.0,17.0,316.0
2022-01-20-16:27:17.376101,5.0,17.0,316.0
2022-01-20-16:27:17.377130,2.0,17.0,316.0
2022-01-20-16:27:17.378128,2.0,6.0,316.0
2022-01-20-16:27:17.379126,2.0,6.0,316.0
2022-01-20-16:27:17.380090,2.0,6.0,316.0
2022-01-20-16:27:17.381122,6.0,11.0,317.0
2022-01-20-16:27:17.382116,4.0,1.0,317.0
2022-01-20-16:27:17.383114,4.0,1.0,317.0
2022-01-20-16:27:17.384079,4.0,1.0,317.0
2022-01-20-16:27:17.385109,7.0,2.0,317.0
2022-01-20-16:27:17.386074,5.0,5.0,317.0
2022-01-20-16:27:17.387105,5.0,5.0,317.0
2022-01-20-16:27:17.388100,5.0,5.0,317.0
2022-01-20-16:27:17.389101,8.0,9.0,317.0
2022-01-20-16:27:17.390095,6.0,16.0,318.0
2022-01-20-16:27:17.391093,6.0,16.0,318.0
2022-01-20-16:27:17.392092,6.0,16.0,318.0
2022-01-20-16:27:17.393087,6.0,16.0,318.0
2022-01-20-16:27:17.394085,5.0,3.0,319.0
2022-01-20-16:27:17.395083,5.0,3.0,319.0
2022-01-20-16:27:17.396084,5.0,3.0,319.0
2022-01-20-16:27:17.397079,5.0,3.0,319.0
2022-01-20-16:27:17.398074,4.0,9.0,320.0
2022-01-20-16:27:17.399071,4.0,0.0,320.0
2022-01-20-16:27:17.400036,4.0,0.0,320.0
2022-01-20-16:27:17.401066,4.0,0.0,320.0
2022-01-20-16:27:17.402063,3.0,4.0,320.0
2022-01-20-16:27:17.403062,7.0,3.0,320.0
2022-01-20-16:27:17.404058,7.0,3.0,320.0
2022-01-20-16:27:17.405058,7.0,3.0,320.0
2022-01-20-16:27:17.407050,6.0,20.0,321.0
2022-01-20-16:27:17.407050,6.0,20.0,321.0
2022-01-20-16:27:17.408049,6.0,20.0,321.0
2022-01-20-16:27:17.409044,6.0,20.0,321.0
2022-01-20-16:27:17.410042,3.0,15.0,321.0
2022-01-20-16:27:17.411041,1.0,2.0,322.0
2022-01-20-16:27:17.412036,1.0,2.0,322.0
2022-01-20-16:27:17.413002,1.0,2.0,322.0
2022-01-20-16:27:17.414032,5.0,7.0,323.0
2022-01-20-16:27:17.415029,5.0,1.0,323.0
2022-01-20-16:27:17.416028,5.0,1.0,323.0
2022-01-20-16:27:17.416992,5.0,1.0,323.0
2022-01-20-16:27:17.418030,6.0,2.0,323.0
2022-01-20-16:27:17.418985,3.0,2.0,324.0
2022-01-20-16:27:17.419984,3.0,2.0,324.0
2022-01-20-16:27:17.420981,3.0,2.0,324.0
2022-01-20-16:27:17.422010,8.0,20.0,324.0
2022-01-20-16:27:17.423007,8.0,20.0,324.0
2022-01-20-16:27:17.424006,8.0,20.0,324.0
2022-01-20-16:27:17.425002,8.0,20.0,324.0
2022-01-20-16:27:17.425999,8.0,20.0,324.0
2022-01-20-16:27:17.427003,2.0,3.0,325.0
2022-01-20-16:27:17.427994,2.0,3.0,325.0
2022-01-20-16:27:17.428994,2.0,3.0,325.0
2022-01-20-16:27:17.429974,2.0,3.0,325.0
2022-01-20-16:27:17.430986,6.0,6.0,325.0
2022-01-20-16:27:17.431985,6.0,6.0,325.0
2022-01-20-16:27:17.432981,6.0,6.0,325.0
2022-01-20-16:27:17.433979,6.0,6.0,325.0
2022-01-20-16:27:17.434944,4.0,1.0,325.0
2022-01-20-16:27:17.435973,5.0,6.0,325.0
2022-01-20-16:27:17.436972,5.0,6.0,325.0
2022-01-20-16:27:17.437967,5.0,6.0,325.0
2022-01-20-16:27:17.438947,4.0,18.0,327.0
2022-01-20-16:27:17.439965,4.0,18.0,327.0
2022-01-20-16:27:17.441958,4.0,18.0,327.0
2022-01-20-16:27:17.441958,5.0,15.0,327.0
2022-01-20-16:27:17.442922,1.0,5.0,328.0
2022-01-20-16:27:17.443921,1.0,5.0,328.0
2022-01-20-16:27:17.444951,1.0,5.0,328.0
2022-01-20-16:27:17.445947,1.0,5.0,328.0
2022-01-20-16:27:17.446946,2.0,4.0,328.0
2022-01-20-16:27:17.447948,4.0,13.0,327.0
2022-01-20-16:27:17.448939,10.0,3.0,328.0
2022-01-20-16:27:17.449937,10.0,3.0,328.0
2022-01-20-16:27:17.450902,6.0,1.0,328.0
2022-01-20-16:27:17.451898,1.0,3.0,329.0
2022-01-20-16:27:17.452931,1.0,3.0,329.0
2022-01-20-16:27:17.453893,1.0,3.0,329.0
2022-01-20-16:27:17.454942,5.0,0.0,329.0
2022-01-20-16:27:17.455898,8.0,16.0,329.0
2022-01-20-16:27:17.456885,8.0,16.0,329.0
2022-01-20-16:27:17.457882,8.0,16.0,329.0
2022-01-20-16:27:17.458879,5.0,13.0,329.0
2022-01-20-16:27:17.459913,1.0,10.0,330.0
2022-01-20-16:27:17.460909,1.0,10.0,330.0
2022-01-20-16:27:17.461905,1.0,10.0,330.0
2022-01-20-16:27:17.462909,2.0,1.0,330.0
2022-01-20-16:27:17.463907,4.0,7.0,331.0
2022-01-20-16:27:17.464898,4.0,7.0,331.0
2022-01-20-16:27:17.465898,4.0,7.0,331.0
2022-01-20-16:27:17.466858,4.0,7.0,331.0
2022-01-20-16:27:17.467889,7.0,2.0,331.0
2022-01-20-16:27:17.468887,7.0,2.0,331.0
2022-01-20-16:27:17.469884,7.0,2.0,331.0
2022-01-20-16:27:17.470882,7.0,2.0,331.0
2022-01-20-16:27:17.471879,3.0,3.0,331.0
2022-01-20-16:27:17.473877,8.0,10.0,332.0
2022-01-20-16:27:17.473877,4.0,17.0,332.0
2022-01-20-16:27:17.474887,3.0,17.0,333.0
2022-01-20-16:27:17.475868,3.0,17.0,333.0
2022-01-20-16:27:17.476868,3.0,17.0,333.0
2022-01-20-16:27:17.477863,3.0,17.0,333.0
2022-01-20-16:27:17.478860,3.0,17.0,333.0
2022-01-20-16:27:17.479858,0.0,12.0,334.0
2022-01-20-16:27:17.480855,5.0,6.0,334.0
2022-01-20-16:27:17.481851,5.0,6.0,334.0
2022-01-20-16:27:17.482831,5.0,6.0,334.0
2022-01-20-16:27:17.483845,4.0,0.0,335.0
2022-01-20-16:27:17.484840,5.0,2.0,334.0
2022-01-20-16:27:17.485808,5.0,2.0,334.0
2022-01-20-16:27:17.486838,5.0,2.0,334.0
2022-01-20-16:27:17.487838,4.0,2.0,335.0
2022-01-20-16:27:17.488832,5.0,8.0,335.0
2022-01-20-16:27:17.489829,5.0,8.0,335.0
2022-01-20-16:27:17.490794,5.0,8.0,335.0
2022-01-20-16:27:17.491825,7.0,19.0,336.0
2022-01-20-16:27:17.492823,2.0,12.0,336.0
2022-01-20-16:27:17.493818,2.0,12.0,336.0
2022-01-20-16:27:17.494784,2.0,12.0,336.0
2022-01-20-16:27:17.495814,3.0,2.0,336.0
2022-01-20-16:27:17.496814,2.0,10.0,337.0
2022-01-20-16:27:17.497776,2.0,10.0,337.0
2022-01-20-16:27:17.498774,2.0,10.0,337.0
2022-01-20-16:27:17.499772,3.0,1.0,337.0
2022-01-20-16:27:17.500767,6.0,4.0,338.0
2022-01-20-16:27:17.501765,6.0,4.0,338.0
2022-01-20-16:27:17.502762,6.0,4.0,338.0
2022-01-20-16:27:17.503759,5.0,1.0,338.0
2022-01-20-16:27:17.504756,8.0,7.0,338.0
2022-01-20-16:27:17.505756,8.0,7.0,338.0
2022-01-20-16:27:17.506752,8.0,7.0,338.0
2022-01-20-16:27:17.508746,8.0,7.0,338.0
2022-01-20-16:27:17.508746,4.0,13.0,338.0
2022-01-20-16:27:17.509742,4.0,13.0,338.0
2022-01-20-16:27:17.510742,4.0,13.0,338.0
2022-01-20-16:27:17.511738,4.0,13.0,338.0
2022-01-20-16:27:17.512738,5.0,10.0,338.0
2022-01-20-16:27:17.513735,6.0,8.0,339.0
2022-01-20-16:27:17.514732,6.0,8.0,339.0
2022-01-20-16:27:17.515729,6.0,8.0,339.0
2022-01-20-16:27:17.516727,3.0,1.0,339.0
2022-01-20-16:27:17.517725,6.0,0.0,340.0
2022-01-20-16:27:17.518721,6.0,0.0,340.0
2022-01-20-16:27:17.519719,6.0,0.0,340.0
2022-01-20-16:27:17.520717,4.0,1.0,340.0
2022-01-20-16:27:17.521714,5.0,13.0,339.0
2022-01-20-16:27:17.522710,5.0,13.0,339.0
2022-01-20-16:27:17.523708,5.0,13.0,339.0
2022-01-20-16:27:17.524706,5.0,15.0,339.0
2022-01-20-16:27:17.525704,5.0,15.0,339.0
2022-01-20-16:27:17.526699,5.0,15.0,339.0
2022-01-20-16:27:17.527699,5.0,15.0,339.0
2022-01-20-16:27:17.528692,3.0,4.0,340.0
2022-01-20-16:27:17.529689,2.0,15.0,340.0
2022-01-20-16:27:17.530689,6.0,10.0,340.0
2022-01-20-16:27:17.531688,6.0,10.0,340.0
2022-01-20-16:27:17.532684,7.0,0.0,340.0
2022-01-20-16:27:17.533678,6.0,1.0,340.0
2022-01-20-16:27:17.534676,6.0,1.0,340.0
2022-01-20-16:27:17.535676,6.0,1.0,340.0
2022-01-20-16:27:17.536674,6.0,1.0,340.0
2022-01-20-16:27:17.537670,6.0,7.0,340.0
2022-01-20-16:27:17.538668,4.0,13.0,340.0
2022-01-20-16:27:17.539664,4.0,13.0,340.0
2022-01-20-16:27:17.541657,4.0,10.0,341.0
2022-01-20-16:27:17.541657,4.0,10.0,341.0
2022-01-20-16:27:17.542656,4.0,10.0,341.0
2022-01-20-16:27:17.543654,4.0,10.0,341.0
2022-01-20-16:27:17.544649,1.0,9.0,341.0
2022-01-20-16:27:17.545680,4.0,9.0,341.0
2022-01-20-16:27:17.546678,4.0,9.0,341.0
2022-01-20-16:27:17.547674,4.0,9.0,341.0
2022-01-20-16:27:17.548673,4.0,9.0,341.0
2022-01-20-16:27:17.549676,5.0,2.0,341.0
2022-01-20-16:27:17.550668,5.0,1.0,341.0
2022-01-20-16:27:17.551632,5.0,1.0,341.0
2022-01-20-16:27:17.552629,5.0,1.0,341.0
2022-01-20-16:27:17.553658,3.0,3.0,342.0
2022-01-20-16:27:17.554657,9.0,9.0,341.0
2022-01-20-16:27:17.555653,9.0,9.0,341.0
2022-01-20-16:27:17.556652,9.0,9.0,341.0
2022-01-20-16:27:17.557647,5.0,15.0,341.0
2022-01-20-16:27:17.558613,5.0,15.0,341.0
2022-01-20-16:27:17.559645,5.0,15.0,341.0
2022-01-20-16:27:17.560640,5.0,15.0,341.0
2022-01-20-16:27:17.561637,3.0,11.0,342.0
2022-01-20-16:27:17.562636,3.0,11.0,342.0
2022-01-20-16:27:17.563632,3.0,11.0,342.0
2022-01-20-16:27:17.564630,3.0,11.0,342.0
2022-01-20-16:27:17.565626,7.0,1.0,342.0
2022-01-20-16:27:17.566624,4.0,3.0,342.0
2022-01-20-16:27:17.567623,4.0,3.0,342.0
2022-01-20-16:27:17.568586,4.0,3.0,342.0
2022-01-20-16:27:17.569616,3.0,5.0,343.0
2022-01-20-16:27:17.570596,8.0,4.0,342.0
2022-01-20-16:27:17.571610,8.0,4.0,342.0
2022-01-20-16:27:17.572576,8.0,4.0,342.0
2022-01-20-16:27:17.573605,7.0,18.0,343.0
2022-01-20-16:27:17.574602,7.0,13.0,343.0
2022-01-20-16:27:17.576593,7.0,13.0,343.0
2022-01-20-16:27:17.576593,1.0,6.0,343.0
2022-01-20-16:27:17.577594,4.0,14.0,343.0
2022-01-20-16:27:17.578592,4.0,14.0,343.0
2022-01-20-16:27:17.579589,4.0,14.0,343.0
2022-01-20-16:27:17.580588,4.0,14.0,343.0
2022-01-20-16:27:17.581583,2.0,6.0,343.0
2022-01-20-16:27:17.582580,4.0,2.0,344.0
2022-01-20-16:27:17.583548,4.0,2.0,344.0
2022-01-20-16:27:17.584576,4.0,2.0,344.0
2022-01-20-16:27:17.585573,4.0,2.0,344.0
2022-01-20-16:27:17.586571,5.0,3.0,344.0
2022-01-20-16:27:17.587567,7.0,2.0,344.0
2022-01-20-16:27:17.588567,7.0,2.0,344.0
2022-01-20-16:27:17.589561,7.0,2.0,344.0
2022-01-20-16:27:17.590560,5.0,18.0,345.0
2022-01-20-16:27:17.591526,2.0,13.0,344.0
2022-01-20-16:27:17.592554,2.0,13.0,344.0
2022-01-20-16:27:17.593551,2.0,13.0,344.0
2022-01-20-16:27:17.594551,1.0,0.0,344.0
2022-01-20-16:27:17.595546,4.0,12.0,344.0
2022-01-20-16:27:17.596545,4.0,12.0,344.0
2022-01-20-16:27:17.597541,4.0,12.0,344.0
2022-01-20-16:27:17.598538,3.0,3.0,345.0
2022-01-20-16:27:17.599537,6.0,2.0,345.0
2022-01-20-16:27:17.600534,6.0,2.0,345.0
2022-01-20-16:27:17.601543,6.0,2.0,345.0
2022-01-20-16:27:17.602529,3.0,3.0,345.0
2022-01-20-16:27:17.603525,5.0,2.0,346.0
2022-01-20-16:27:17.604525,5.0,2.0,346.0
2022-01-20-16:27:17.605487,5.0,2.0,346.0
2022-01-20-16:27:17.606484,8.0,6.0,346.0
2022-01-20-16:27:17.607483,4.0,16.0,345.0
2022-01-20-16:27:17.608478,4.0,16.0,345.0
2022-01-20-16:27:17.610473,4.0,16.0,345.0
2022-01-20-16:27:17.610473,6.0,15.0,345.0
2022-01-20-16:27:17.611472,3.0,13.0,346.0
2022-01-20-16:27:17.612469,3.0,13.0,346.0
2022-01-20-16:27:17.613468,3.0,13.0,346.0
2022-01-20-16:27:17.614463,5.0,1.0,346.0
2022-01-20-16:27:17.615460,5.0,1.0,346.0
2022-01-20-16:27:17.616459,5.0,1.0,346.0
2022-01-20-16:27:17.617456,5.0,1.0,346.0
2022-01-20-16:27:17.618452,3.0,1.0,347.0
2022-01-20-16:27:17.619450,6.0,4.0,347.0
2022-01-20-16:27:17.620449,6.0,4.0,347.0
2022-01-20-16:27:17.621444,6.0,4.0,347.0
2022-01-20-16:27:17.622474,6.0,4.0,347.0
2022-01-20-16:27:17.623478,6.0,22.0,346.0
2022-01-20-16:27:17.624469,6.0,22.0,346.0
2022-01-20-16:27:17.625466,6.0,22.0,346.0
2022-01-20-16:27:17.626468,2.0,8.0,347.0
2022-01-20-16:27:17.627461,0.0,2.0,347.0
2022-01-20-16:27:17.628460,0.0,2.0,347.0
2022-01-20-16:27:17.629455,0.0,2.0,347.0
2022-01-20-16:27:17.630456,0.0,2.0,347.0
2022-01-20-16:27:17.631452,5.0,2.0,347.0
2022-01-20-16:27:17.632448,5.0,2.0,347.0
2022-01-20-16:27:17.633437,5.0,2.0,347.0
2022-01-20-16:27:17.634445,5.0,2.0,347.0
2022-01-20-16:27:17.635441,8.0,3.0,347.0
2022-01-20-16:27:17.636438,7.0,6.0,346.0
2022-01-20-16:27:17.637402,7.0,6.0,346.0
2022-01-20-16:27:17.638431,7.0,6.0,346.0
2022-01-20-16:27:17.639430,6.0,7.0,347.0
2022-01-20-16:27:17.640426,6.0,19.0,347.0
2022-01-20-16:27:17.641424,6.0,19.0,347.0
2022-01-20-16:27:17.642389,6.0,19.0,347.0
2022-01-20-16:27:17.644422,1.0,1.0,347.0
2022-01-20-16:27:17.644422,1.0,1.0,347.0
2022-01-20-16:27:17.645413,1.0,1.0,347.0
2022-01-20-16:27:17.646378,1.0,1.0,347.0
2022-01-20-16:27:17.647409,5.0,9.0,346.0
2022-01-20-16:27:17.648411,8.0,4.0,347.0
2022-01-20-16:27:17.649401,8.0,4.0,347.0
2022-01-20-16:27:17.650368,8.0,4.0,347.0
2022-01-20-16:27:17.651403,7.0,7.0,347.0
2022-01-20-16:27:17.652396,1.0,6.0,347.0
2022-01-20-16:27:17.653360,1.0,6.0,347.0
2022-01-20-16:27:17.654390,1.0,6.0,347.0
2022-01-20-16:27:17.655387,1.0,6.0,347.0
2022-01-20-16:27:17.656409,5.0,20.0,347.0
2022-01-20-16:27:17.657385,5.0,20.0,347.0
2022-01-20-16:27:17.658381,5.0,20.0,347.0
2022-01-20-16:27:17.659377,2.0,2.0,347.0
2022-01-20-16:27:17.660374,2.0,2.0,347.0
2022-01-20-16:27:17.661372,2.0,2.0,347.0
2022-01-20-16:27:17.662369,2.0,2.0,347.0
2022-01-20-16:27:17.663368,2.0,2.0,347.0
2022-01-20-16:27:17.664388,5.0,4.0,346.0
2022-01-20-16:27:17.665361,6.0,4.0,346.0
2022-01-20-16:27:17.666360,6.0,4.0,346.0
2022-01-20-16:27:17.667356,6.0,4.0,346.0
2022-01-20-16:27:17.668322,3.0,2.0,347.0
2022-01-20-16:27:17.669318,7.0,1.0,346.0
2022-01-20-16:27:17.670318,7.0,1.0,346.0
2022-01-20-16:27:17.671315,7.0,1.0,346.0
2022-01-20-16:27:17.672313,8.0,10.0,347.0
2022-01-20-16:27:17.673308,6.0,18.0,347.0
2022-01-20-16:27:17.674305,6.0,18.0,347.0
2022-01-20-16:27:17.675303,6.0,18.0,347.0
2022-01-20-16:27:17.677297,1.0,15.0,346.0
2022-01-20-16:27:17.677297,2.0,4.0,347.0
2022-01-20-16:27:17.678294,2.0,4.0,347.0
2022-01-20-16:27:17.679293,2.0,4.0,347.0
2022-01-20-16:27:17.680289,5.0,10.0,347.0
2022-01-20-16:27:17.681289,6.0,5.0,347.0
2022-01-20-16:27:17.682284,6.0,5.0,347.0
2022-01-20-16:27:17.683283,6.0,5.0,347.0
2022-01-20-16:27:17.684280,6.0,0.0,347.0
2022-01-20-16:27:17.685276,4.0,2.0,347.0
2022-01-20-16:27:17.686274,4.0,2.0,347.0
2022-01-20-16:27:17.687273,4.0,2.0,347.0
2022-01-20-16:27:17.688268,5.0,1.0,347.0
2022-01-20-16:27:17.689265,6.0,15.0,347.0
2022-01-20-16:27:17.690265,6.0,15.0,347.0
2022-01-20-16:27:17.691262,6.0,15.0,347.0
2022-01-20-16:27:17.692260,4.0,13.0,347.0
2022-01-20-16:27:17.693256,2.0,8.0,348.0
2022-01-20-16:27:17.694253,2.0,8.0,348.0
2022-01-20-16:27:17.695249,2.0,8.0,348.0
2022-01-20-16:27:17.696249,1.0,1.0,347.0
2022-01-20-16:27:17.697247,6.0,5.0,347.0
2022-01-20-16:27:17.698241,6.0,5.0,347.0
2022-01-20-16:27:17.699270,6.0,5.0,347.0
2022-01-20-16:27:17.700268,6.0,5.0,347.0
2022-01-20-16:27:17.701267,6.0,1.0,347.0
2022-01-20-16:27:17.702262,1.0,3.0,348.0
2022-01-20-16:27:17.703260,1.0,3.0,348.0
2022-01-20-16:27:17.704257,1.0,3.0,348.0
2022-01-20-16:27:17.705254,5.0,7.0,347.0
2022-01-20-16:27:17.706253,9.0,14.0,347.0
2022-01-20-16:27:17.707248,9.0,14.0,347.0
2022-01-20-16:27:17.708247,9.0,14.0,347.0
2022-01-20-16:27:17.709243,3.0,16.0,347.0
2022-01-20-16:27:17.710240,1.0,14.0,347.0
2022-01-20-16:27:17.712237,1.0,14.0,347.0
2022-01-20-16:27:17.712237,3.0,7.0,348.0
2022-01-20-16:27:17.713231,6.0,6.0,347.0
2022-01-20-16:27:17.714230,6.0,6.0,347.0
2022-01-20-16:27:17.715194,6.0,6.0,347.0
2022-01-20-16:27:17.716225,6.0,6.0,347.0
2022-01-20-16:27:17.717223,6.0,0.0,348.0
2022-01-20-16:27:17.718218,4.0,1.0,348.0
2022-01-20-16:27:17.719183,4.0,1.0,348.0
2022-01-20-16:27:17.720181,4.0,1.0,348.0
2022-01-20-16:27:17.721210,5.0,0.0,347.0
2022-01-20-16:27:17.722209,8.0,10.0,347.0
2022-01-20-16:27:17.723209,8.0,10.0,347.0
2022-01-20-16:27:17.724170,8.0,10.0,347.0
2022-01-20-16:27:17.725200,6.0,15.0,347.0
2022-01-20-16:27:17.726199,6.0,12.0,347.0
2022-01-20-16:27:17.727195,6.0,12.0,347.0
2022-01-20-16:27:17.728170,6.0,12.0,347.0
2022-01-20-16:27:17.729190,2.0,5.0,347.0
2022-01-20-16:27:17.730157,5.0,9.0,347.0
2022-01-20-16:27:17.731156,5.0,9.0,347.0
2022-01-20-16:27:17.732149,5.0,9.0,347.0
2022-01-20-16:27:17.733149,5.0,9.0,347.0
2022-01-20-16:27:17.734145,3.0,3.0,348.0
2022-01-20-16:27:17.735142,3.0,3.0,348.0
2022-01-20-16:27:17.736142,3.0,3.0,348.0
2022-01-20-16:27:17.737140,3.0,3.0,348.0
2022-01-20-16:27:17.738134,9.0,19.0,348.0
2022-01-20-16:27:17.739133,9.0,19.0,348.0
2022-01-20-16:27:17.740129,9.0,19.0,348.0
2022-01-20-16:27:17.741130,9.0,19.0,348.0
2022-01-20-16:27:17.742125,2.0,17.0,348.0
2022-01-20-16:27:17.743121,2.0,9.0,348.0
2022-01-20-16:27:17.744120,2.0,9.0,348.0
2022-01-20-16:27:17.746113,2.0,9.0,348.0
2022-01-20-16:27:17.746113,6.0,9.0,347.0
2022-01-20-16:27:17.747111,4.0,3.0,348.0
2022-01-20-16:27:17.748108,4.0,3.0,348.0
2022-01-20-16:27:17.749107,4.0,3.0,348.0
2022-01-20-16:27:17.750101,1.0,0.0,348.0
2022-01-20-16:27:17.751099,7.0,0.0,348.0
2022-01-20-16:27:17.752098,7.0,0.0,348.0
2022-01-20-16:27:17.753096,7.0,0.0,348.0
2022-01-20-16:27:17.754092,2.0,1.0,348.0
2022-01-20-16:27:17.755089,9.0,10.0,348.0
2022-01-20-16:27:17.756087,9.0,10.0,348.0
2022-01-20-16:27:17.757086,9.0,10.0,348.0
2022-01-20-16:27:17.758081,4.0,12.0,347.0
2022-01-20-16:27:17.759080,3.0,16.0,348.0
2022-01-20-16:27:17.760076,3.0,16.0,348.0
2022-01-20-16:27:17.761075,3.0,16.0,348.0
2022-01-20-16:27:17.762103,5.0,14.0,347.0
2022-01-20-16:27:17.763099,3.0,10.0,347.0
2022-01-20-16:27:17.764097,3.0,10.0,347.0
2022-01-20-16:27:17.765061,3.0,10.0,347.0
2022-01-20-16:27:17.766090,2.0,1.0,348.0
2022-01-20-16:27:17.767089,6.0,0.0,347.0
2022-01-20-16:27:17.768085,6.0,0.0,347.0
2022-01-20-16:27:17.769083,6.0,0.0,347.0
2022-01-20-16:27:17.770085,6.0,3.0,347.0
2022-01-20-16:27:17.771077,7.0,10.0,348.0
2022-01-20-16:27:17.772076,7.0,10.0,348.0
2022-01-20-16:27:17.773072,7.0,10.0,348.0
2022-01-20-16:27:17.774068,7.0,10.0,348.0
2022-01-20-16:27:17.775067,4.0,17.0,347.0
2022-01-20-16:27:17.776068,4.0,17.0,347.0
2022-01-20-16:27:17.777028,4.0,17.0,347.0
2022-01-20-16:27:17.778059,4.0,17.0,347.0
2022-01-20-16:27:17.779055,1.0,9.0,348.0
2022-01-20-16:27:17.781051,1.0,9.0,348.0
2022-01-20-16:27:17.781051,1.0,9.0,348.0
2022-01-20-16:27:17.782047,1.0,9.0,348.0
2022-01-20-16:27:17.783052,8.0,0.0,348.0
2022-01-20-16:27:17.784043,8.0,0.0,348.0
2022-01-20-16:27:17.785014,8.0,0.0,348.0
2022-01-20-16:27:17.786038,8.0,0.0,348.0
2022-01-20-16:27:17.787034,4.0,3.0,348.0
2022-01-20-16:27:17.788033,5.0,10.0,347.0
2022-01-20-16:27:17.789029,5.0,10.0,347.0
2022-01-20-16:27:17.790028,5.0,10.0,347.0
2022-01-20-16:27:17.791025,6.0,17.0,348.0
2022-01-20-16:27:17.792021,5.0,15.0,348.0
2022-01-20-16:27:17.792985,5.0,15.0,348.0
2022-01-20-16:27:17.793983,5.0,15.0,348.0
2022-01-20-16:27:17.794979,6.0,13.0,347.0
2022-01-20-16:27:17.795977,6.0,13.0,347.0
2022-01-20-16:27:17.796974,6.0,13.0,347.0
2022-01-20-16:27:17.797972,6.0,13.0,347.0
2022-01-20-16:27:17.798971,4.0,0.0,348.0
2022-01-20-16:27:17.799966,2.0,2.0,347.0
2022-01-20-16:27:17.800964,2.0,2.0,347.0
2022-01-20-16:27:17.801964,2.0,2.0,347.0
2022-01-20-16:27:17.802959,8.0,2.0,348.0
2022-01-20-16:27:17.803958,7.0,1.0,348.0
2022-01-20-16:27:17.804955,7.0,1.0,348.0
2022-01-20-16:27:17.805950,7.0,1.0,348.0
2022-01-20-16:27:17.806950,6.0,17.0,348.0
2022-01-20-16:27:17.807945,6.0,13.0,347.0
2022-01-20-16:27:17.808945,6.0,13.0,347.0
2022-01-20-16:27:17.809943,6.0,13.0,347.0
2022-01-20-16:27:17.810942,4.0,15.0,348.0
2022-01-20-16:27:17.812934,2.0,6.0,348.0
2022-01-20-16:27:17.812934,1.0,8.0,348.0
2022-01-20-16:27:17.813931,1.0,8.0,348.0
2022-01-20-16:27:17.814929,1.0,8.0,348.0
2022-01-20-16:27:17.815926,6.0,1.0,347.0
2022-01-20-16:27:17.816926,6.0,1.0,347.0
2022-01-20-16:27:17.817923,6.0,1.0,347.0
2022-01-20-16:27:17.818921,6.0,1.0,347.0
2022-01-20-16:27:17.819918,3.0,2.0,348.0
2022-01-20-16:27:17.820915,7.0,1.0,347.0
2022-01-20-16:27:17.821909,7.0,1.0,347.0
2022-01-20-16:27:17.822908,7.0,1.0,347.0
2022-01-20-16:27:17.823905,5.0,18.0,347.0
2022-01-20-16:27:17.824923,4.0,19.0,347.0
2022-01-20-16:27:17.825900,4.0,19.0,347.0
2022-01-20-16:27:17.826899,4.0,19.0,347.0
2022-01-20-16:27:17.827897,2.0,6.0,347.0
2022-01-20-16:27:17.828894,1.0,2.0,347.0
2022-01-20-16:27:17.829891,2.0,12.0,348.0
2022-01-20-16:27:17.830887,2.0,12.0,348.0
2022-01-20-16:27:17.831884,2.0,12.0,348.0
2022-01-20-16:27:17.832881,5.0,1.0,348.0
2022-01-20-16:27:17.833889,5.0,1.0,348.0
2022-01-20-16:27:17.834877,5.0,1.0,348.0
2022-01-20-16:27:17.835873,4.0,2.0,347.0
2022-01-20-16:27:17.836868,7.0,6.0,347.0
2022-01-20-16:27:17.837867,7.0,6.0,347.0
2022-01-20-16:27:17.838862,7.0,6.0,347.0
2022-01-20-16:27:17.839862,6.0,13.0,348.0
2022-01-20-16:27:17.840860,3.0,14.0,348.0
2022-01-20-16:27:17.841855,3.0,14.0,348.0
2022-01-20-16:27:17.842851,3.0,14.0,348.0
2022-01-20-16:27:17.843851,2.0,9.0,347.0
2022-01-20-16:27:17.844846,1.0,10.0,347.0
2022-01-20-16:27:17.845843,1.0,10.0,347.0
2022-01-20-16:27:17.847841,1.0,10.0,347.0
2022-01-20-16:27:17.847841,5.0,9.0,347.0
2022-01-20-16:27:17.848836,4.0,2.0,347.0
2022-01-20-16:27:17.849833,4.0,2.0,347.0
2022-01-20-16:27:17.850831,4.0,2.0,347.0
2022-01-20-16:27:17.851829,4.0,2.0,347.0
2022-01-20-16:27:17.852827,4.0,3.0,348.0
2022-01-20-16:27:17.853825,8.0,3.0,347.0
2022-01-20-16:27:17.854821,8.0,3.0,347.0
2022-01-20-16:27:17.855818,8.0,3.0,347.0
2022-01-20-16:27:17.856816,3.0,19.0,348.0
2022-01-20-16:27:17.857815,3.0,19.0,348.0
2022-01-20-16:27:17.858811,3.0,19.0,348.0
2022-01-20-16:27:17.859806,3.0,19.0,348.0
2022-01-20-16:27:17.860803,6.0,4.0,347.0
2022-01-20-16:27:17.861801,2.0,6.0,348.0
2022-01-20-16:27:17.862798,2.0,6.0,348.0
2022-01-20-16:27:17.863797,2.0,6.0,348.0
2022-01-20-16:27:17.864794,6.0,9.0,347.0
2022-01-20-16:27:17.865791,2.0,0.0,347.0
2022-01-20-16:27:17.866790,2.0,0.0,347.0
2022-01-20-16:27:17.867786,2.0,0.0,347.0
2022-01-20-16:27:17.868783,4.0,7.0,348.0
2022-01-20-16:27:17.869779,7.0,2.0,347.0
2022-01-20-16:27:17.870779,7.0,2.0,347.0
2022-01-20-16:27:17.871775,7.0,2.0,347.0
2022-01-20-16:27:17.872804,8.0,17.0,348.0
2022-01-20-16:27:17.873803,5.0,20.0,348.0
2022-01-20-16:27:17.874801,5.0,20.0,348.0
2022-01-20-16:27:17.875764,5.0,20.0,348.0
2022-01-20-16:27:17.876794,1.0,7.0,347.0
2022-01-20-16:27:17.877791,0.0,2.0,348.0
2022-01-20-16:27:17.878790,0.0,2.0,348.0
2022-01-20-16:27:17.880784,0.0,2.0,348.0
2022-01-20-16:27:17.880784,5.0,2.0,348.0
2022-01-20-16:27:17.881782,1.0,0.0,348.0
2022-01-20-16:27:17.882779,1.0,0.0,348.0
2022-01-20-16:27:17.883796,1.0,0.0,348.0
2022-01-20-16:27:17.884772,3.0,5.0,347.0
2022-01-20-16:27:17.885738,3.0,5.0,347.0
2022-01-20-16:27:17.886734,3.0,5.0,347.0
2022-01-20-16:27:17.887765,3.0,5.0,347.0
2022-01-20-16:27:17.888762,3.0,5.0,347.0
2022-01-20-16:27:17.889761,8.0,19.0,347.0
2022-01-20-16:27:17.890757,8.0,19.0,347.0
2022-01-20-16:27:17.891758,8.0,19.0,347.0
2022-01-20-16:27:17.892751,8.0,19.0,347.0
2022-01-20-16:27:17.893750,1.0,15.0,348.0
2022-01-20-16:27:17.894747,4.0,1.0,348.0
2022-01-20-16:27:17.895747,4.0,1.0,348.0
2022-01-20-16:27:17.896745,4.0,1.0,348.0
2022-01-20-16:27:17.897739,3.0,5.0,347.0
2022-01-20-16:27:17.898735,5.0,3.0,348.0
2022-01-20-16:27:17.899738,5.0,3.0,348.0
2022-01-20-16:27:17.900730,5.0,3.0,348.0
2022-01-20-16:27:17.901695,5.0,3.0,348.0
2022-01-20-16:27:17.902692,4.0,6.0,348.0
2022-01-20-16:27:17.903689,4.0,6.0,348.0
2022-01-20-16:27:17.904686,4.0,6.0,348.0
2022-01-20-16:27:17.905684,9.0,1.0,347.0
2022-01-20-16:27:17.906682,7.0,16.0,347.0
2022-01-20-16:27:17.907679,7.0,16.0,347.0
2022-01-20-16:27:17.908677,7.0,16.0,347.0
2022-01-20-16:27:17.909675,1.0,13.0,347.0
2022-01-20-16:27:17.910670,4.0,5.0,347.0
2022-01-20-16:27:17.911669,4.0,5.0,347.0
2022-01-20-16:27:17.912667,4.0,5.0,347.0
2022-01-20-16:27:17.914659,3.0,10.0,348.0
2022-01-20-16:27:17.914659,4.0,6.0,347.0
2022-01-20-16:27:17.915657,4.0,6.0,347.0
2022-01-20-16:27:17.916654,4.0,6.0,347.0
2022-01-20-16:27:17.917655,1.0,0.0,347.0
2022-01-20-16:27:17.918651,6.0,2.0,347.0
2022-01-20-16:27:17.919649,6.0,2.0,347.0
2022-01-20-16:27:17.920643,6.0,2.0,347.0
2022-01-20-16:27:17.921645,6.0,7.0,348.0
2022-01-20-16:27:17.922641,6.0,17.0,347.0
2022-01-20-16:27:17.923636,6.0,17.0,347.0
2022-01-20-16:27:17.924634,6.0,17.0,347.0
2022-01-20-16:27:17.925631,4.0,18.0,347.0
2022-01-20-16:27:17.926628,1.0,5.0,348.0
2022-01-20-16:27:17.927630,1.0,5.0,348.0
2022-01-20-16:27:17.928625,1.0,5.0,348.0
2022-01-20-16:27:17.929624,1.0,5.0,348.0
2022-01-20-16:27:17.930618,8.0,4.0,347.0
2022-01-20-16:27:17.931617,8.0,4.0,347.0
2022-01-20-16:27:17.932617,8.0,4.0,347.0
2022-01-20-16:27:17.933612,8.0,4.0,347.0
2022-01-20-16:27:17.934609,6.0,1.0,348.0
2022-01-20-16:27:17.935608,2.0,3.0,347.0
2022-01-20-16:27:17.936603,2.0,3.0,347.0
2022-01-20-16:27:17.937604,2.0,3.0,347.0
2022-01-20-16:27:17.938597,5.0,6.0,348.0
2022-01-20-16:27:17.939597,7.0,14.0,348.0
2022-01-20-16:27:17.940595,7.0,14.0,348.0
2022-01-20-16:27:17.941592,7.0,14.0,348.0
2022-01-20-16:27:17.942589,8.0,18.0,347.0
2022-01-20-16:27:17.943583,0.0,13.0,348.0
2022-01-20-16:27:17.944582,0.0,13.0,348.0
2022-01-20-16:27:17.945582,0.0,13.0,348.0
2022-01-20-16:27:17.946575,1.0,9.0,347.0
2022-01-20-16:27:17.948575,5.0,6.0,347.0
2022-01-20-16:27:17.948575,5.0,6.0,347.0
2022-01-20-16:27:17.949570,5.0,6.0,347.0
2022-01-20-16:27:17.950569,2.0,0.0,347.0
2022-01-20-16:27:17.951564,7.0,1.0,348.0
2022-01-20-16:27:17.952563,7.0,1.0,348.0
2022-01-20-16:27:17.953558,7.0,1.0,348.0
2022-01-20-16:27:17.954555,7.0,2.0,347.0
2022-01-20-16:27:17.955555,5.0,10.0,347.0
2022-01-20-16:27:17.956551,5.0,10.0,347.0
2022-01-20-16:27:17.957547,5.0,10.0,347.0
2022-01-20-16:27:17.958547,1.0,2.0,347.0
2022-01-20-16:27:17.959540,1.0,2.0,347.0
2022-01-20-16:27:17.960540,1.0,2.0,347.0
2022-01-20-16:27:17.961537,1.0,2.0,347.0
2022-01-20-16:27:17.962537,1.0,2.0,347.0
2022-01-20-16:27:17.963532,2.0,3.0,348.0
2022-01-20-16:27:17.964527,2.0,3.0,348.0
2022-01-20-16:27:17.965525,2.0,3.0,348.0
2022-01-20-16:27:17.966522,7.0,4.0,348.0
2022-01-20-16:27:17.967519,4.0,4.0,348.0
2022-01-20-16:27:17.968518,4.0,4.0,348.0
2022-01-20-16:27:17.969515,4.0,4.0,348.0
2022-01-20-16:27:17.970514,4.0,4.0,348.0
2022-01-20-16:27:17.971510,7.0,3.0,347.0
2022-01-20-16:27:17.972508,5.0,14.0,347.0
2022-01-20-16:27:17.973505,5.0,14.0,347.0
2022-01-20-16:27:17.974502,5.0,14.0,347.0
2022-01-20-16:27:17.975499,4.0,16.0,347.0
2022-01-20-16:27:17.976498,3.0,8.0,348.0
2022-01-20-16:27:17.977496,3.0,8.0,348.0
2022-01-20-16:27:17.978492,3.0,8.0,348.0
2022-01-20-16:27:17.979489,2.0,13.0,348.0
2022-01-20-16:27:17.980518,5.0,2.0,348.0
2022-01-20-16:27:17.982513,5.0,2.0,348.0
2022-01-20-16:27:17.982513,5.0,2.0,348.0
2022-01-20-16:27:17.983476,8.0,4.0,347.0
2022-01-20-16:27:17.984505,8.0,4.0,347.0
2022-01-20-16:27:17.985504,8.0,4.0,347.0
2022-01-20-16:27:17.986469,8.0,4.0,347.0
2022-01-20-16:27:17.987500,7.0,2.0,348.0
2022-01-20-16:27:17.988494,8.0,15.0,348.0
2022-01-20-16:27:17.989492,8.0,15.0,348.0
2022-01-20-16:27:17.990458,8.0,15.0,348.0
2022-01-20-16:27:17.991487,7.0,16.0,347.0
2022-01-20-16:27:17.992484,1.0,15.0,347.0
2022-01-20-16:27:17.993483,1.0,15.0,347.0
2022-01-20-16:27:17.994447,1.0,15.0,347.0
2022-01-20-16:27:17.995478,4.0,11.0,347.0
2022-01-20-16:27:17.996474,4.0,5.0,348.0
2022-01-20-16:27:17.997470,4.0,5.0,348.0
2022-01-20-16:27:17.998470,4.0,5.0,348.0
2022-01-20-16:27:17.999434,7.0,3.0,347.0
2022-01-20-16:27:18.000454,7.0,3.0,347.0
2022-01-20-16:27:18.001463,7.0,3.0,347.0
2022-01-20-16:27:18.002459,7.0,3.0,347.0
2022-01-20-16:27:18.003457,7.0,3.0,347.0
2022-01-20-16:27:18.004456,9.0,12.0,347.0
2022-01-20-16:27:18.005455,9.0,12.0,347.0
2022-01-20-16:27:18.006448,9.0,12.0,347.0
2022-01-20-16:27:18.007445,9.0,12.0,347.0
2022-01-20-16:27:18.008442,5.0,17.0,348.0
2022-01-20-16:27:18.009445,1.0,11.0,347.0
2022-01-20-16:27:18.010438,1.0,11.0,347.0
2022-01-20-16:27:18.011435,1.0,11.0,347.0
2022-01-20-16:27:18.012439,1.0,4.0,348.0
2022-01-20-16:27:18.013430,5.0,7.0,347.0
2022-01-20-16:27:18.014429,5.0,7.0,347.0
2022-01-20-16:27:18.015425,5.0,7.0,347.0
2022-01-20-16:27:18.017420,4.0,2.0,347.0
2022-01-20-16:27:18.017420,3.0,2.0,347.0
2022-01-20-16:27:18.018417,3.0,2.0,347.0
2022-01-20-16:27:18.019414,3.0,2.0,347.0
2022-01-20-16:27:18.020411,9.0,3.0,347.0
2022-01-20-16:27:18.021408,8.0,11.0,348.0
2022-01-20-16:27:18.022408,8.0,11.0,348.0
2022-01-20-16:27:18.023403,8.0,11.0,348.0
2022-01-20-16:27:18.024400,4.0,18.0,348.0
2022-01-20-16:27:18.025399,2.0,16.0,348.0
2022-01-20-16:27:18.026395,2.0,16.0,348.0
2022-01-20-16:27:18.027362,2.0,16.0,348.0
2022-01-20-16:27:18.028360,2.0,10.0,347.0
2022-01-20-16:27:18.029358,3.0,14.0,348.0
2022-01-20-16:27:18.030354,6.0,14.0,347.0
2022-01-20-16:27:18.031350,6.0,14.0,347.0
2022-01-20-16:27:18.032350,7.0,1.0,347.0
2022-01-20-16:27:18.033343,7.0,1.0,347.0
2022-01-20-16:27:18.034342,7.0,1.0,347.0
2022-01-20-16:27:18.035337,7.0,1.0,347.0
2022-01-20-16:27:18.036334,5.0,1.0,347.0
2022-01-20-16:27:18.037332,8.0,1.0,347.0
2022-01-20-16:27:18.038331,5.0,2.0,347.0
2022-01-20-16:27:18.039326,5.0,2.0,347.0
2022-01-20-16:27:18.040326,5.0,2.0,347.0
2022-01-20-16:27:18.041320,7.0,20.0,347.0
2022-01-20-16:27:18.042319,9.0,12.0,348.0
2022-01-20-16:27:18.043316,9.0,12.0,348.0
2022-01-20-16:27:18.044314,9.0,12.0,348.0
2022-01-20-16:27:18.045311,1.0,15.0,348.0
2022-01-20-16:27:18.046310,3.0,8.0,347.0
2022-01-20-16:27:18.047306,4.0,8.0,347.0
2022-01-20-16:27:18.048302,4.0,8.0,347.0
2022-01-20-16:27:18.050297,5.0,2.0,347.0
2022-01-20-16:27:18.050297,5.0,3.0,348.0
2022-01-20-16:27:18.051297,5.0,3.0,348.0
2022-01-20-16:27:18.052291,5.0,3.0,348.0
2022-01-20-16:27:18.053289,8.0,1.0,347.0
2022-01-20-16:27:18.054288,6.0,3.0,347.0
2022-01-20-16:27:18.055283,8.0,3.0,347.0
2022-01-20-16:27:18.056281,8.0,3.0,347.0
2022-01-20-16:27:18.057278,6.0,14.0,348.0
2022-01-20-16:27:18.058275,7.0,18.0,348.0
2022-01-20-16:27:18.059273,5.0,15.0,347.0
2022-01-20-16:27:18.060325,5.0,15.0,347.0
2022-01-20-16:27:18.061322,6.0,18.0,347.0
2022-01-20-16:27:18.062322,2.0,3.0,348.0
2022-01-20-16:27:18.063262,2.0,14.0,347.0
2022-01-20-16:27:18.064260,2.0,14.0,347.0
2022-01-20-16:27:18.065313,7.0,11.0,348.0
2022-01-20-16:27:18.066309,7.0,11.0,348.0
2022-01-20-16:27:18.067309,4.0,0.0,347.0
2022-01-20-16:27:18.068249,4.0,0.0,347.0
2022-01-20-16:27:18.069248,6.0,1.0,347.0
2022-01-20-16:27:18.070305,5.0,6.0,347.0
2022-01-20-16:27:18.071299,10.0,3.0,347.0
2022-01-20-16:27:18.072269,10.0,3.0,347.0
2022-01-20-16:27:18.073292,7.0,10.0,347.0
2022-01-20-16:27:18.074287,7.0,20.0,348.0
2022-01-20-16:27:18.075286,6.0,12.0,348.0
2022-01-20-16:27:18.076286,6.0,12.0,348.0
2022-01-20-16:27:18.077226,6.0,12.0,348.0
2022-01-20-16:27:18.078276,0.0,1.0,348.0
2022-01-20-16:27:18.079278,2.0,11.0,347.0
2022-01-20-16:27:18.080272,2.0,11.0,347.0
2022-01-20-16:27:18.081271,2.0,11.0,347.0
2022-01-20-16:27:18.082267,5.0,8.0,347.0
2022-01-20-16:27:18.083264,5.0,8.0,347.0
2022-01-20-16:27:18.085238,6.0,1.0,348.0
2022-01-20-16:27:18.085238,6.0,1.0,348.0
2022-01-20-16:27:18.086237,4.0,2.0,348.0
2022-01-20-16:27:18.087257,4.0,2.0,348.0
2022-01-20-16:27:18.088250,4.0,2.0,348.0
2022-01-20-16:27:18.089249,4.0,2.0,348.0
2022-01-20-16:27:18.090245,9.0,4.0,347.0
2022-01-20-16:27:18.091242,8.0,18.0,347.0
2022-01-20-16:27:18.092240,8.0,18.0,347.0
2022-01-20-16:27:18.093237,8.0,18.0,347.0
2022-01-20-16:27:18.094235,2.0,12.0,348.0
2022-01-20-16:27:18.095235,1.0,2.0,347.0
2022-01-20-16:27:18.096229,3.0,7.0,348.0
2022-01-20-16:27:18.097229,3.0,7.0,348.0
2022-01-20-16:27:18.098224,6.0,13.0,347.0
2022-01-20-16:27:18.099221,3.0,2.0,347.0
2022-01-20-16:27:18.100163,2.0,2.0,348.0
2022-01-20-16:27:18.101161,2.0,2.0,348.0
2022-01-20-16:27:18.102159,4.0,5.0,347.0
2022-01-20-16:27:18.103156,4.0,5.0,347.0
2022-01-20-16:27:18.104207,4.0,5.0,347.0
2022-01-20-16:27:18.105151,4.0,5.0,347.0
2022-01-20-16:27:18.106203,8.0,2.0,348.0
2022-01-20-16:27:18.107201,6.0,21.0,348.0
2022-01-20-16:27:18.108197,4.0,20.0,348.0
2022-01-20-16:27:18.109140,4.0,20.0,348.0
2022-01-20-16:27:18.110193,7.0,16.0,347.0
2022-01-20-16:27:18.111135,2.0,5.0,347.0
2022-01-20-16:27:18.112187,1.0,0.0,347.0
2022-01-20-16:27:18.113186,1.0,0.0,347.0
2022-01-20-16:27:18.114181,5.0,14.0,347.0
2022-01-20-16:27:18.115181,6.0,2.0,347.0
2022-01-20-16:27:18.116176,4.0,2.0,347.0
2022-01-20-16:27:18.117173,4.0,2.0,347.0
2022-01-20-16:27:18.119113,4.0,2.0,347.0
2022-01-20-16:27:18.119113,5.0,3.0,348.0
2022-01-20-16:27:18.120165,5.0,3.0,348.0
2022-01-20-16:27:18.121164,5.0,3.0,348.0
2022-01-20-16:27:18.122105,5.0,3.0,348.0
2022-01-20-16:27:18.123173,8.0,4.0,348.0
2022-01-20-16:27:18.124158,8.0,9.0,347.0
2022-01-20-16:27:18.125152,8.0,20.0,347.0
2022-01-20-16:27:18.126149,8.0,20.0,347.0
2022-01-20-16:27:18.127150,2.0,11.0,348.0
2022-01-20-16:27:18.128144,2.0,10.0,347.0
2022-01-20-16:27:18.129143,0.0,0.0,348.0
2022-01-20-16:27:18.130139,0.0,0.0,348.0
2022-01-20-16:27:18.131136,3.0,14.0,348.0
2022-01-20-16:27:18.132137,4.0,5.0,347.0
2022-01-20-16:27:18.133131,6.0,0.0,347.0
2022-01-20-16:27:18.134130,6.0,0.0,347.0
2022-01-20-16:27:18.135128,6.0,0.0,347.0
2022-01-20-16:27:18.136068,4.0,1.0,348.0
2022-01-20-16:27:18.137121,2.0,5.0,348.0
2022-01-20-16:27:18.138063,2.0,5.0,348.0
2022-01-20-16:27:18.139114,5.0,3.0,347.0
2022-01-20-16:27:18.140115,8.0,11.0,348.0
2022-01-20-16:27:18.141111,6.0,20.0,347.0
2022-01-20-16:27:18.142052,6.0,20.0,347.0
2022-01-20-16:27:18.143107,2.0,14.0,347.0
2022-01-20-16:27:18.144102,1.0,13.0,347.0
2022-01-20-16:27:18.145044,4.0,0.0,348.0
2022-01-20-16:27:18.146041,4.0,0.0,348.0
2022-01-20-16:27:18.147094,2.0,3.0,348.0
2022-01-20-16:27:18.148094,3.0,7.0,348.0
2022-01-20-16:27:18.149088,3.0,3.0,348.0
2022-01-20-16:27:18.150032,3.0,3.0,348.0
2022-01-20-16:27:18.151062,7.0,3.0,347.0
2022-01-20-16:27:18.152026,6.0,3.0,347.0
2022-01-20-16:27:18.154075,3.0,5.0,348.0
2022-01-20-16:27:18.154075,7.0,3.0,347.0
2022-01-20-16:27:18.155072,9.0,17.0,347.0
2022-01-20-16:27:18.156069,9.0,17.0,347.0
2022-01-20-16:27:18.157066,9.0,17.0,347.0
2022-01-20-16:27:18.158063,9.0,17.0,347.0
2022-01-20-16:27:18.159064,9.0,17.0,347.0
2022-01-20-16:27:18.160058,4.0,21.0,347.0
2022-01-20-16:27:18.161057,4.0,15.0,347.0
2022-01-20-16:27:18.162053,1.0,6.0,347.0
2022-01-20-16:27:18.163051,1.0,6.0,347.0
2022-01-20-16:27:18.164051,6.0,6.0,347.0
2022-01-20-16:27:18.165045,2.0,3.0,348.0
2022-01-20-16:27:18.166042,2.0,3.0,348.0
2022-01-20-16:27:18.166985,2.0,3.0,348.0
2022-01-20-16:27:18.167984,6.0,4.0,348.0
2022-01-20-16:27:18.168982,3.0,2.0,348.0
2022-01-20-16:27:18.169977,3.0,2.0,348.0
2022-01-20-16:27:18.170974,3.0,2.0,348.0
2022-01-20-16:27:18.171971,7.0,3.0,348.0
2022-01-20-16:27:18.172970,7.0,8.0,348.0
2022-01-20-16:27:18.173967,6.0,12.0,347.0
2022-01-20-16:27:18.174964,6.0,12.0,347.0
2022-01-20-16:27:18.175962,7.0,18.0,347.0
2022-01-20-16:27:18.176959,7.0,12.0,347.0
2022-01-20-16:27:18.177956,1.0,12.0,348.0
2022-01-20-16:27:18.178952,1.0,12.0,348.0
2022-01-20-16:27:18.179952,0.0,2.0,348.0
2022-01-20-16:27:18.180949,2.0,11.0,348.0
2022-01-20-16:27:18.181946,6.0,4.0,347.0
2022-01-20-16:27:18.182942,6.0,4.0,347.0
2022-01-20-16:27:18.183973,7.0,1.0,347.0
2022-01-20-16:27:18.184977,7.0,1.0,347.0
2022-01-20-16:27:18.186944,8.0,1.0,347.0
2022-01-20-16:27:18.186944,4.0,2.0,348.0
2022-01-20-16:27:18.187967,8.0,19.0,348.0
2022-01-20-16:27:18.188960,8.0,19.0,348.0
2022-01-20-16:27:18.189957,8.0,19.0,348.0
2022-01-20-16:27:18.190954,8.0,19.0,348.0
2022-01-20-16:27:18.191957,8.0,19.0,348.0
2022-01-20-16:27:18.192951,4.0,14.0,347.0
2022-01-20-16:27:18.193926,1.0,4.0,347.0
2022-01-20-16:27:18.194949,1.0,4.0,347.0
2022-01-20-16:27:18.195942,1.0,4.0,347.0
2022-01-20-16:27:18.196939,2.0,4.0,347.0
2022-01-20-16:27:18.197936,5.0,10.0,348.0
2022-01-20-16:27:18.198933,3.0,3.0,347.0
2022-01-20-16:27:18.199934,3.0,3.0,347.0
2022-01-20-16:27:18.200895,7.0,2.0,347.0
2022-01-20-16:27:18.201925,3.0,3.0,347.0
2022-01-20-16:27:18.202889,3.0,3.0,347.0
2022-01-20-16:27:18.203919,3.0,3.0,347.0
2022-01-20-16:27:18.204916,4.0,5.0,347.0
2022-01-20-16:27:18.205915,12.0,15.0,348.0
2022-01-20-16:27:18.206912,7.0,19.0,348.0
2022-01-20-16:27:18.207909,7.0,19.0,348.0
2022-01-20-16:27:18.208908,2.0,17.0,347.0
2022-01-20-16:27:18.209904,6.0,15.0,347.0
2022-01-20-16:27:18.210902,1.0,8.0,347.0
2022-01-20-16:27:18.211899,1.0,8.0,347.0
2022-01-20-16:27:18.212896,2.0,1.0,347.0
2022-01-20-16:27:18.213860,4.0,10.0,347.0
2022-01-20-16:27:18.214890,4.0,4.0,348.0
2022-01-20-16:27:18.215855,4.0,4.0,348.0
2022-01-20-16:27:18.216887,8.0,2.0,348.0
2022-01-20-16:27:18.217882,4.0,2.0,348.0
2022-01-20-16:27:18.219844,6.0,6.0,347.0
2022-01-20-16:27:18.219844,7.0,8.0,347.0
2022-01-20-16:27:18.220874,6.0,16.0,348.0
2022-01-20-16:27:18.221872,6.0,16.0,348.0
2022-01-20-16:27:18.222869,6.0,16.0,348.0
2022-01-20-16:27:18.223833,6.0,16.0,348.0
2022-01-20-16:27:18.224866,7.0,21.0,347.0
2022-01-20-16:27:18.225862,1.0,13.0,347.0
2022-01-20-16:27:18.226859,1.0,13.0,347.0
2022-01-20-16:27:18.227856,1.0,13.0,347.0
2022-01-20-16:27:18.228858,1.0,13.0,347.0
2022-01-20-16:27:18.229852,5.0,13.0,348.0
2022-01-20-16:27:18.230822,6.0,5.0,347.0
2022-01-20-16:27:18.231812,6.0,5.0,347.0
2022-01-20-16:27:18.232811,6.0,5.0,347.0
2022-01-20-16:27:18.233806,7.0,1.0,347.0
2022-01-20-16:27:18.234805,7.0,3.0,348.0
2022-01-20-16:27:18.235800,7.0,3.0,348.0
2022-01-20-16:27:18.236799,4.0,5.0,348.0
2022-01-20-16:27:18.237796,8.0,6.0,348.0
2022-01-20-16:27:18.238792,10.0,9.0,347.0
2022-01-20-16:27:18.239792,10.0,9.0,347.0
2022-01-20-16:27:18.240789,10.0,9.0,347.0
2022-01-20-16:27:18.241785,5.0,19.0,348.0
2022-01-20-16:27:18.242784,3.0,13.0,348.0
2022-01-20-16:27:18.243780,1.0,15.0,347.0
2022-01-20-16:27:18.244777,1.0,15.0,347.0
2022-01-20-16:27:18.245776,1.0,0.0,347.0
2022-01-20-16:27:18.246776,2.0,3.0,347.0
2022-01-20-16:27:18.247773,5.0,5.0,348.0
2022-01-20-16:27:18.248769,5.0,5.0,348.0
2022-01-20-16:27:18.249765,5.0,5.0,347.0
2022-01-20-16:27:18.250764,7.0,0.0,348.0
2022-01-20-16:27:18.251763,1.0,2.0,348.0
2022-01-20-16:27:18.252759,1.0,2.0,348.0
2022-01-20-16:27:18.253755,4.0,4.0,347.0
2022-01-20-16:27:18.255750,6.0,9.0,348.0
2022-01-20-16:27:18.255750,6.0,9.0,348.0
2022-01-20-16:27:18.256747,6.0,9.0,348.0
2022-01-20-16:27:18.257747,6.0,16.0,347.0
2022-01-20-16:27:18.258743,6.0,12.0,347.0
2022-01-20-16:27:18.259740,6.0,12.0,347.0
2022-01-20-16:27:18.260738,6.0,12.0,347.0
2022-01-20-16:27:18.261733,1.0,7.0,347.0
2022-01-20-16:27:18.262731,3.0,16.0,347.0
2022-01-20-16:27:18.263729,4.0,10.0,348.0
2022-01-20-16:27:18.264726,4.0,10.0,348.0
2022-01-20-16:27:18.265723,3.0,4.0,347.0
2022-01-20-16:27:18.266721,3.0,1.0,348.0
2022-01-20-16:27:18.267718,8.0,6.0,347.0
2022-01-20-16:27:18.268717,8.0,6.0,347.0
2022-01-20-16:27:18.269714,6.0,6.0,348.0
2022-01-20-16:27:18.270710,11.0,7.0,347.0
2022-01-20-16:27:18.271708,11.0,7.0,347.0
2022-01-20-16:27:18.272704,11.0,7.0,347.0
2022-01-20-16:27:18.273702,11.0,7.0,347.0
2022-01-20-16:27:18.274701,7.0,11.0,347.0
2022-01-20-16:27:18.275698,4.0,15.0,348.0
2022-01-20-16:27:18.276695,7.0,14.0,347.0
2022-01-20-16:27:18.277691,7.0,14.0,347.0
2022-01-20-16:27:18.278689,1.0,12.0,348.0
2022-01-20-16:27:18.279686,4.0,14.0,347.0
2022-01-20-16:27:18.280684,4.0,11.0,347.0
2022-01-20-16:27:18.281680,4.0,11.0,347.0
2022-01-20-16:27:18.282679,5.0,5.0,347.0
2022-01-20-16:27:18.283676,5.0,2.0,348.0
2022-01-20-16:27:18.284674,5.0,1.0,347.0
2022-01-20-16:27:18.285672,5.0,1.0,347.0
2022-01-20-16:27:18.286669,4.0,3.0,347.0
2022-01-20-16:27:18.287665,6.0,3.0,348.0
2022-01-20-16:27:18.288664,6.0,3.0,348.0
2022-01-20-16:27:18.290657,6.0,3.0,348.0
2022-01-20-16:27:18.290657,3.0,14.0,347.0
2022-01-20-16:27:18.291654,3.0,14.0,347.0
2022-01-20-16:27:18.292653,3.0,14.0,347.0
2022-01-20-16:27:18.293651,3.0,14.0,347.0
2022-01-20-16:27:18.294645,3.0,13.0,348.0
2022-01-20-16:27:18.295643,1.0,4.0,347.0
2022-01-20-16:27:18.296642,4.0,14.0,348.0
2022-01-20-16:27:18.297639,4.0,14.0,348.0
2022-01-20-16:27:18.298635,2.0,10.0,348.0
2022-01-20-16:27:18.299632,6.0,3.0,347.0
2022-01-20-16:27:18.300630,6.0,1.0,348.0
2022-01-20-16:27:18.301625,6.0,1.0,348.0
2022-01-20-16:27:18.302625,5.0,2.0,348.0
2022-01-20-16:27:18.303622,6.0,0.0,348.0
2022-01-20-16:27:18.304619,6.0,0.0,348.0
2022-01-20-16:27:18.305617,6.0,0.0,348.0
2022-01-20-16:27:18.306613,6.0,12.0,348.0
2022-01-20-16:27:18.307613,3.0,15.0,348.0
2022-01-20-16:27:18.308610,3.0,15.0,348.0
2022-01-20-16:27:18.309607,3.0,15.0,348.0
2022-01-20-16:27:18.310605,3.0,15.0,348.0
2022-01-20-16:27:18.311599,7.0,14.0,347.0
2022-01-20-16:27:18.312597,3.0,3.0,347.0
2022-01-20-16:27:18.313596,5.0,15.0,347.0
2022-01-20-16:27:18.314595,5.0,15.0,347.0
2022-01-20-16:27:18.315588,4.0,6.0,348.0
