# 
# 
# 
# 
# 
# 
# 
# 
# 
# 
# time,realtime,ref,inp,inp0,inp1,dis,state...
0.000000000000000000e+00,1.644628882257972002e+09,-0.000000000000000000e+00,2.491866228766675684e-01,0.000000000000000000e+00,9.967464915066702735e-01,-0.000000000000000000e+00,0.000000000000000000e+00,0.000000000000000000e+00
1.666666666666666644e-02,1.644628882260963917e+09,-1.561711184076722689e-06,-1.877052035986025713e-01,-5.932056774386958997e-01,1.028796217921677636e+00,0.000000000000000000e+00,-2.592593638052843725e-05,-3.102494123596180944e-03
3.333333333333333287e-02,1.644628882261961460e+09,-6.691268729974459906e-06,2.491866228766675684e-01,0.000000000000000000e+00,9.967464915066702735e-01,-1.680658071946835352e-05,-4.279019438203487068e-05,1.067200406004459139e-03
5.000000000000000278e-02,1.644628882278993607e+09,-1.605986743094503548e-05,2.411741912729163662e-01,0.000000000000000000e+00,9.646967650916654646e-01,-7.078232738679268471e-05,8.150399946005419682e-06,5.034649960768577959e-03
6.666666666666666574e-02,1.644628882296514034e+09,-3.033985182165445775e-05,2.411741912729163662e-01,0.000000000000000000e+00,9.646967650916654646e-01,-1.654319140070676319e-04,1.246540943598358929e-04,8.934958922336568021e-03
8.333333333333332871e-02,1.644628882313951254e+09,-5.019876933532462941e-05,2.411741912729163662e-01,0.000000000000000000e+00,9.646967650916654646e-01,-3.017301304036715303e-04,3.056053999355616904e-04,1.276854863580272059e-02
1.000000000000000056e-01,1.644628882331644535e+09,-7.629376416783103306e-05,-2.164372931146006651e-01,-6.101486458500227084e-01,9.646967650916654646e-01,-4.780548701139220491e-04,4.866904894587331643e-04,8.972207746534306000e-03
1.166666666666666685e-01,1.644628882347899437e+09,-1.092664035943124643e-04,-2.081118623217153296e-01,-5.883648293211739544e-01,9.326470386766605447e-01,-6.901772001279686021e-04,6.061481975385205187e-04,5.372716046423796701e-03
1.333333333333333315e-01,1.644628882366167068e+09,-1.497380202888065864e-04,-2.318674964892015189e-01,-6.307222503494905874e-01,9.646967650916654646e-01,-9.313092131723620971e-04,6.627970955542447640e-04,1.436087053368507484e-03
1.499999999999999944e-01,1.644628882383188963e+09,-1.983056448149453550e-04,-1.854203867708314191e-01,-5.581095285866620737e-01,9.326470386766605447e-01,-1.192209370379908231e-03,6.607585018233420003e-04,-1.672084288587445504e-03
1.666666666666666574e-01,1.644628882398786545e+09,-2.555385920136617585e-04,2.411741912729163662e-01,0.000000000000000000e+00,9.646967650916654646e-01,-1.461344048565785345e-03,6.662306375315789298e-04,2.317657696110160710e-03
1.833333333333333204e-01,1.644628882416560888e+09,-3.219757536532888171e-04,-2.398799280929527489e-01,-6.307222503494905874e-01,9.326470386766605447e-01,-1.725103027194043208e-03,6.711675423103850412e-04,-1.714029727337757457e-03
2.000000000000000111e-01,1.644628882431898117e+09,-3.981236375810679753e-04,2.411741912729163662e-01,0.000000000000000000e+00,9.646967650916654646e-01,-1.968065700558502013e-03,6.758763922503004421e-04,2.268030182261624936e-03
2.166666666666666741e-01,1.644628882448853493e+09,-4.844551808854311004e-04,-1.937458175637167546e-01,-5.798933451155108276e-01,9.646967650916654646e-01,-2.173313895434508727e-03,6.863031856323976694e-04,-1.007715468772992819e-03
2.333333333333333370e-01,1.644628882464528084e+09,-5.814093514159001394e-04,2.331617596691651362e-01,0.000000000000000000e+00,9.326470386766605447e-01,-2.322786327615449387e-03,7.015307081628151861e-04,2.824373231055750735e-03
2.500000000000000000e-01,1.644628882481571198e+09,-6.893915385882696048e-04,-2.164372931146006651e-01,-6.101486458500227084e-01,9.646967650916654646e-01,-2.397668955675126209e-03,7.179878973536347672e-04,-8.393333259729979928e-04
2.666666666666666630e-01,1.644628882498112202e+09,-8.087747209069881364e-04,2.411741912729163662e-01,0.000000000000000000e+00,9.646967650916654646e-01,-2.378814799357537122e-03,7.370974742757466398e-04,3.121480038330870857e-03
2.833333333333333259e-01,1.644628882517801046e+09,-9.399013842461006888e-04,2.331617596691651362e-01,0.000000000000000000e+00,9.326470386766605447e-01,-2.247186194391069189e-03,8.205850373088943413e-04,6.886568699877290700e-03
2.999999999999999889e-01,1.644628882533590794e+09,-1.083086151825846631e-03,2.411741912729163662e-01,0.000000000000000000e+00,9.646967650916654646e-01,-1.984311965129802787e-03,9.674470314806737220e-04,1.072620469416861975e-02
3.166666666666666519e-01,1.644628882551410198e+09,-1.238619074182809900e-03,2.411741912729163662e-01,0.000000000000000000e+00,9.646967650916654646e-01,-1.572751619641386215e-03,1.177829471371518236e-03,1.450917958183235712e-02
3.333333333333333148e-01,1.644628882567343712e+09,-1.406769515430997784e-03,2.411741912729163662e-01,0.000000000000000000e+00,9.646967650916654646e-01,-9.965584154876117994e-04,1.450818570437207005e-03,1.823915103039048038e-02
3.499999999999999778e-01,1.644628882584150314e+09,-1.587790560916432607e-03,2.411741912729163662e-01,0.000000000000000000e+00,9.646967650916654646e-01,-2.417330135709753688e-04,1.785562931655723575e-03,2.191994764016105476e-02
3.666666666666666408e-01,1.644628882601261377e+09,-1.781923861136859013e-03,2.411741912729163662e-01,0.000000000000000000e+00,9.646967650916654646e-01,7.033405646528044378e-04,2.181276043606918645e-03,2.555552672550267732e-02
3.833333333333333037e-01,1.644628882619987726e+09,-1.989404817678018782e-03,2.411741912729163662e-01,0.000000000000000000e+00,9.646967650916654646e-01,1.847484833121455653e-03,2.637238022093747053e-03,2.914992601544981118e-02
4.000000000000000222e-01,1.644628882637739658e+09,-2.210468009043578107e-03,2.411741912729163662e-01,0.000000000000000000e+00,9.646967650916654646e-01,3.196352488810144232e-03,3.152796501463247907e-03,3.270720993210908534e-02
4.166666666666666852e-01,1.644628882652670860e+09,-2.445352747747114690e-03,2.411741912729163662e-01,0.000000000000000000e+00,9.646967650916654646e-01,4.752091324140083652e-03,3.727366591705056666e-03,3.623141121848488105e-02
4.333333333333333481e-01,1.644628882668931007e+09,-2.694308654996387282e-03,2.411741912729163662e-01,0.000000000000000000e+00,9.646967650916654646e-01,6.513057408467064907e-03,4.360429831127218131e-03,3.972646879041910606e-02
4.500000000000000111e-01,1.644628882687388897e+09,-2.957601135819362941e-03,2.331617596691651362e-01,0.000000000000000000e+00,9.326470386766605447e-01,8.473582916965689479e-03,5.050425398696245169e-03,4.306372893261892210e-02
4.666666666666666741e-01,1.644628882705143690e+09,-3.235516635627404790e-03,2.411741912729163662e-01,0.000000000000000000e+00,9.646967650916654646e-01,1.062380424977370924e-02,5.796984695293700904e-03,4.651380289473296820e-02
4.833333333333333370e-01,1.644628882720398664e+09,-3.528367559032748613e-03,2.331617596691651362e-01,0.000000000000000000e+00,9.326470386766605447e-01,1.294955524881890967e-02,6.599783251493310243e-03,4.981285958716642759e-02
5.000000000000000000e-01,1.644628882737900257e+09,-3.836496733264809552e-03,2.331617596691651362e-01,0.000000000000000000e+00,9.326470386766605447e-01,1.543232939533326943e-02,7.457453340547600708e-03,5.309842431585377887e-02
5.166666666666666075e-01,1.644628882754356384e+09,-4.160281301771378767e-03,2.411741912729163662e-01,0.000000000000000000e+00,9.646967650916654646e-01,1.804931387008566410e-02,8.370897178159487570e-03,5.650537223062526010e-02
5.333333333333333259e-01,1.644628882772503138e+09,-4.500135938534599589e-03,2.331617596691651362e-01,0.000000000000000000e+00,9.326470386766605447e-01,2.077349729451079610e-02,9.339922496194396836e-03,5.976860119531827997e-02
5.500000000000000444e-01,1.644628882789580107e+09,-4.856515280244075826e-03,2.411741912729163662e-01,0.000000000000000000e+00,9.646967650916654646e-01,2.357385185892216933e-02,1.036437771224880955e-02,6.315661336479451438e-02
5.666666666666666519e-01,1.644628882806936026e+09,-5.229915481697272259e-03,2.411741912729163662e-01,0.000000000000000000e+00,9.646967650916654646e-01,2.641558939948970494e-02,1.144522434607017289e-02,6.653559640884658399e-02
5.833333333333333703e-01,1.644628882824137211e+09,-5.620874809565157629e-03,2.411741912729163662e-01,0.000000000000000000e+00,9.646967650916654646e-01,2.926048982493343123e-02,1.258231359620129788e-02,6.990575184367962824e-02
5.999999999999999778e-01,1.644628882842856646e+09,-6.029973200874869793e-03,2.331617596691651362e-01,0.000000000000000000e+00,9.326470386766605447e-01,3.206729913366352519e-02,1.377438761288052663e-02,7.313416214038087615e-02
6.166666666666666963e-01,1.644628882858871937e+09,-6.457830725108023445e-03,2.411741912729163662e-01,0.000000000000000000e+00,9.646967650916654646e-01,3.479219311935190934e-02,1.502130560296507412e-02,7.648668389016746727e-02
6.333333333333333037e-01,1.644628882876295090e+09,-6.905104902560853762e-03,2.411741912729163662e-01,0.000000000000000000e+00,9.646967650916654646e-01,3.738930175459246469e-02,1.632399461750975306e-02,7.982671975941460496e-02
6.500000000000000222e-01,1.644628882893378019e+09,-7.372486846413966836e-03,2.411741912729163662e-01,0.000000000000000000e+00,9.646967650916654646e-01,3.981128818509797884e-02,1.768222409509532730e-02,8.315158160612927396e-02
6.666666666666666297e-01,1.644628882910713911e+09,-7.860696211651113652e-03,2.331617596691651362e-01,0.000000000000000000e+00,9.326470386766605447e-01,4.200997527701383349e-02,1.909460570792266901e-02,8.632539557573824796e-02
6.833333333333333481e-01,1.644628882927693367e+09,-8.370474950372071982e-03,2.411741912729163662e-01,0.000000000000000000e+00,9.646967650916654646e-01,4.393701175290251615e-02,2.056081869576503740e-02,8.961103597165952228e-02
6.999999999999999556e-01,1.644628882944329977e+09,-8.902579889976110911e-03,2.411741912729163662e-01,0.000000000000000000e+00,9.646967650916654646e-01,4.554456914234944476e-02,2.208156057921058929e-02,9.286894009513506354e-02
7.166666666666666741e-01,1.644628882963349819e+09,-9.457774167951979102e-03,2.411741912729163662e-01,0.000000000000000000e+00,9.646967650916654646e-01,4.678606007437953462e-02,2.365632235671793343e-02,9.609351584008264668e-02
7.333333333333332815e-01,1.644628882980298996e+09,-1.003681757439229931e-02,2.331617596691651362e-01,0.000000000000000000e+00,9.326470386766605447e-01,4.761686786303667707e-02,2.528338975383211118e-02,9.914609223517183156e-02
7.500000000000000000e-01,1.644628882997253656e+09,-1.064045587064475079e-02,2.331617596691651362e-01,0.000000000000000000e+00,9.326470386766605447e-01,4.799507689511306463e-02,2.696096403924316126e-02,1.021544652258320890e-01
7.666666666666666075e-01,1.644628883014206409e+09,-1.126940916950487301e-02,2.411741912729163662e-01,0.000000000000000000e+00,9.646967650916654646e-01,4.788219302897286228e-02,2.868935344599515477e-02,1.052436822241115816e-01
7.833333333333333259e-01,1.644628883031162500e+09,-1.192435947883285947e-02,2.331617596691651362e-01,0.000000000000000000e+00,9.326470386766605447e-01,4.724384306270454359e-02,3.046760826825829771e-02,1.081388541140462650e-01
8.000000000000000444e-01,1.644628883050110340e+09,-1.260593752622568391e-02,2.411741912729163662e-01,0.000000000000000000e+00,9.646967650916654646e-01,4.605044233351115318e-02,3.229465792071453678e-02,1.110988816883638208e-01
8.166666666666666519e-01,1.644628883066074610e+09,-1.331470899718933953e-02,2.411741912729163662e-01,0.000000000000000000e+00,9.646967650916654646e-01,4.427781967128981144e-02,3.417038769006394000e-02,1.139806854347511916e-01
8.333333333333333703e-01,1.644628883082033873e+09,-1.405116033293126072e-02,2.411741912729163662e-01,0.000000000000000000e+00,9.646967650916654646e-01,4.190778924862595400e-02,3.609342213589718934e-02,1.167756839976103189e-01
8.499999999999999778e-01,1.644628883098985910e+09,-1.481568424623858245e-02,2.411741912729163662e-01,0.000000000000000000e+00,9.646967650916654646e-01,3.892865934561488134e-02,3.806224236560659668e-02,1.194752446115431022e-01
8.666666666666666963e-01,1.644628883116269350e+09,-1.560856512474221268e-02,2.331617596691651362e-01,0.000000000000000000e+00,9.326470386766605447e-01,3.533566867752673674e-02,4.007407946084092648e-02,1.219383646554203088e-01
8.833333333333333037e-01,1.644628883131023169e+09,-1.642996450002123104e-02,2.411741912729163662e-01,0.000000000000000000e+00,9.646967650916654646e-01,3.113134171066742062e-02,4.212715432674963428e-02,1.244237153392379891e-01
9.000000000000000222e-01,1.644628883149818182e+09,-1.727990676832666384e-02,2.411741912729163662e-01,0.000000000000000000e+00,9.646967650916654646e-01,2.632575530906442959e-02,4.422064467618709582e-02,1.267885574328335430e-01
9.166666666666666297e-01,1.644628883167298079e+09,-1.815826535406120032e-02,2.331617596691651362e-01,0.000000000000000000e+00,9.326470386766605447e-01,2.093671010194630977e-02,4.635137140868379746e-02,1.288928051965220201e-01
9.333333333333333481e-01,1.644628883184337854e+09,-1.906474951042868085e-02,2.331617596691651362e-01,0.000000000000000000e+00,9.326470386766605447e-01,1.498980112757977191e-02,4.851605690745601496e-02,1.308639790443622275e-01
9.499999999999999556e-01,1.644628883201714039e+09,-1.999889195276861181e-02,7.542015993382922279e-01,6.947197862255027889e-01,9.326470386766605447e-01,8.518383579226497526e-03,5.078439549139495551e-02,1.413076401757152600e-01
9.666666666666666741e-01,1.644628883220226049e+09,-2.096003751894517930e-02,7.958214777031439313e-01,7.395297152403034202e-01,9.646967650916654646e-01,1.563430838448692838e-03,5.323014054732722738e-02,1.521516435954761992e-01
9.833333333333332815e-01,1.644628883236408234e+09,-2.194733304771823157e-02,8.923228605457319551e-01,8.681982256970874889e-01,9.646967650916654646e-01,-5.826716587075316325e-03,5.586742930272541041e-02,1.642892905727222908e-01
1.000000000000000000e+00,1.644628883254381895e+09,-2.295971866026199487e-02,1.165652768970621533e+00,1.243321345735274974e+00,9.326470386766605447e-01,-1.359671111780026351e-02,5.874201498436800589e-02,1.806156391886267198e-01
1.016666666666666607e+00,1.644628883272464752e+09,-2.399592062191661240e-02,1.216394668599200424e+00,1.300293969768378632e+00,9.646967650916654646e-01,-2.168466552381134727e-02,6.189234285705570021e-02,1.973771447005288338e-01
1.033333333333333215e+00,1.644628883287053823e+09,-2.505444595088488630e-02,1.309204577278749948e+00,1.434723756812779749e+00,9.326470386766605447e-01,-3.002272455223647246e-02,6.533138134145978493e-02,2.152578037615666406e-01
1.050000000000000044e+00,1.644628883304636955e+09,-2.613357892797421936e-02,1.205352221806267110e+00,1.285570707377801103e+00,9.646967650916654646e-01,-3.853773606827334136e-02,6.905044088786652101e-02,2.309856523107931270e-01
1.066666666666666652e+00,1.644628883322599888e+09,-2.723137964671037275e-02,1.140687237090946660e+00,1.210033969895708772e+00,9.326470386766605447e-01,-4.715201551301228394e-02,7.301933753660763693e-02,2.452423426883509061e-01
1.083333333333333259e+00,1.644628883341539145e+09,-2.834568472631876154e-02,1.108520109476750726e+00,1.167144466410114045e+00,9.326470386766605447e-01,-5.578419602420126022e-02,7.721824132965679488e-02,2.585890374528442281e-01
1.100000000000000089e+00,1.644628883355479956e+09,-2.947411029130758003e-02,1.107559896712147829e+00,1.165864182723977072e+00,9.326470386766605447e-01,-6.435015517731026979e-02,8.163643082368846060e-02,2.715576769843932037e-01
1.116666666666666696e+00,1.644628883372465849e+09,-3.061405730085025451e-02,1.024981598956301143e+00,1.055759785716181343e+00,9.326470386766605447e-01,-7.276400800397850310e-02,8.625640519370861292e-02,2.828079957969117375e-01
1.133333333333333304e+00,1.644628883389388084e+09,-3.176271928902384134e-02,9.638587115086458823e-01,9.635793603143060215e-01,9.646967650916654646e-01,-8.093915475268312343e-02,9.105275949856185547e-02,2.927269674379912034e-01
1.149999999999999911e+00,1.644628883407383919e+09,-3.291709255341278978e-02,8.439814928286603068e-01,8.144263108793269312e-01,9.326470386766605447e-01,-8.878937079069060267e-02,9.599541820710517925e-02,3.003708440967473581e-01
1.166666666666666741e+00,1.644628883424329281e+09,-3.407398880484953374e-02,7.545323288252204774e-01,6.844775167364055557e-01,9.646967650916654646e-01,-9.622992512417873068e-02,1.010510366276610450e-01,3.062869324045421893e-01
1.183333333333333348e+00,1.644628883440288544e+09,-3.523005026536690787e-02,2.331617596691651362e-01,0.000000000000000000e+00,9.326470386766605447e-01,-1.031787132504563415e-01,1.061314676537004897e-01,3.033728854854812473e-01
1.199999999999999956e+00,1.644628883458236694e+09,-3.638176717503101287e-02,2.331617596691651362e-01,0.000000000000000000e+00,9.326470386766605447e-01,-1.095573894662329045e-01,1.111628526947617129e-01,3.004015732811355921e-01
1.216666666666666563e+00,1.644628883474160671e+09,-3.752549764146936168e-02,2.331617596691651362e-01,0.000000000000000000e+00,9.326470386766605447e-01,-1.152924833507268931e-01,1.161443341308457944e-01,2.973845797836921490e-01
1.233333333333333393e+00,1.644628883493110657e+09,-3.865748973887953022e-02,2.331617596691651362e-01,0.000000000000000000e+00,9.326470386766605447e-01,-1.203164849316392948e-01,1.210752551330145504e-01,2.943344133604821611e-01
1.250000000000000000e+00,1.644628883509069204e+09,-3.977390573637903243e-02,2.411741912729163662e-01,0.000000000000000000e+00,9.646967650916654646e-01,-1.245688830329359370e-01,1.259562806563416515e-01,2.913968096411547193e-01
1.266666666666666607e+00,1.644628883527019739e+09,-4.087084830902356497e-02,2.331617596691651362e-01,0.000000000000000000e+00,9.326470386766605447e-01,-1.279971415007323532e-01,1.307871716671501761e-01,2.883186622664867249e-01
1.283333333333333215e+00,1.644628883542017221e+09,-4.194438855896558127e-02,2.411741912729163662e-01,0.000000000000000000e+00,9.646967650916654646e-01,-1.305575984095240782e-01,1.355679384064307769e-01,2.853815054082626812e-01
1.300000000000000044e+00,1.644628883560279369e+09,-4.299059564933778443e-02,2.411741912729163662e-01,0.000000000000000000e+00,9.646967650916654646e-01,-1.322162739650597496e-01,1.402999291158830986e-01,2.824654799872746147e-01
1.316666666666666652e+00,1.644628883576238871e+09,-4.400556782980850207e-02,2.411741912729163662e-01,0.000000000000000000e+00,9.646967650916654646e-01,-1.329495736390697846e-01,1.449836208808215898e-01,2.795855318495669151e-01
1.333333333333333259e+00,1.644628883593268633e+09,-4.498546461064806962e-02,2.411741912729163662e-01,0.000000000000000000e+00,9.646967650916654646e-01,-1.327448740888914069e-01,1.496197395632094251e-01,2.767565684535794879e-01
1.350000000000000089e+00,1.644628883611446381e+09,-4.592653982183317329e-02,2.411741912729163662e-01,0.000000000000000000e+00,9.646967650916654646e-01,-1.316009806231225321e-01,1.542092575886362116e-01,2.739932706056492639e-01
1.366666666666666696e+00,1.644628883628764629e+09,-4.682517527545871500e-02,2.331617596691651362e-01,0.000000000000000000e+00,9.326470386766605447e-01,-1.295284463614545800e-01,1.587522818964236526e-01,2.711774681863236558e-01
1.383333333333333304e+00,1.644628883646928310e+09,-4.767791473376079697e-02,2.411741912729163662e-01,0.000000000000000000e+00,9.646967650916654646e-01,-1.265497447889806781e-01,1.632502831847227331e-01,2.685898743394234955e-01
1.399999999999999911e+00,1.644628883661888361e+09,-4.848149787160620922e-02,2.331617596691651362e-01,0.000000000000000000e+00,9.326470386766605447e-01,-1.226992891062072266e-01,1.677049404544691535e-01,2.659762582457263491e-01
1.416666666666666741e+00,1.644628883678842783e+09,-4.923289391157338601e-02,2.411741912729163662e-01,0.000000000000000000e+00,9.646967650916654646e-01,-1.180232936072402594e-01,1.721181509818288657e-01,2.636155626794612350e-01
1.433333333333333348e+00,1.644628883696794987e+09,-4.992933460191618239e-02,2.331617596691651362e-01,0.000000000000000000e+00,9.326470386766605447e-01,-1.125794742595311593e-01,1.764919878655272223e-01,2.612514305525900915e-01
1.449999999999999956e+00,1.644628883712752342e+09,-5.056834620292039589e-02,2.331617596691651362e-01,0.000000000000000000e+00,9.326470386766605447e-01,-1.064365876866997934e-01,1.808275975407786229e-01,2.590279070770464265e-01
1.466666666666666563e+00,1.644628883730704069e+09,-5.114778014555736857e-02,2.251493280654139062e-01,0.000000000000000000e+00,9.005973122616556248e-01,-9.967380984728566040e-02,1.851262830028080619e-01,2.568204802519857832e-01
1.483333333333333393e+00,1.644628883746137619e+09,-5.166584202800922343e-02,2.251493280654139062e-01,0.000000000000000000e+00,9.005973122616556248e-01,-9.237995783138767958e-02,1.893894903391275530e-01,2.547700957529000498e-01
1.500000000000000000e+00,1.644628883764061689e+09,-5.212111862065110790e-02,2.171368964616620933e-01,0.000000000000000000e+00,8.685475858466483734e-01,-8.465256033769320843e-02,1.936187684315388569e-01,2.527488899292215652e-01
1.516666666666666607e+00,1.644628883780026913e+09,-5.251260255846233738e-02,2.171368964616620933e-01,0.000000000000000000e+00,8.685475858466483734e-01,-7.659678451817115985e-02,1.978157515979548919e-01,2.508942419618637176e-01
1.533333333333333215e+00,1.644628883798268318e+09,-5.283971441160171395e-02,2.091244648579108634e-01,0.000000000000000000e+00,8.364978594316434535e-01,-6.832422895928531859e-02,2.019821160582681019e-01,2.490745480998609318e-01
1.550000000000000044e+00,1.644628883814471960e+09,-5.310232183999264582e-02,2.011120332541596334e-01,0.000000000000000000e+00,8.044481330166385336e-01,-5.995159457931247687e-02,2.061184533759592985e-01,2.472908847600838456e-01
1.566666666666666652e+00,1.644628883831466198e+09,-5.330075555615152588e-02,2.011120332541596334e-01,0.000000000000000000e+00,8.044481330166385336e-01,-5.159924713401697199e-02,2.102264629621880820e-01,2.456747549425241095e-01
1.583333333333333259e+00,1.644628883849225044e+09,-5.343582184206288610e-02,2.011120332541596334e-01,0.000000000000000000e+00,8.044481330166385336e-01,-4.338968681089167001e-02,2.143088941806825243e-01,2.442210294980841356e-01
1.600000000000000089e+00,1.644628883864867210e+09,-5.350881139052025143e-02,1.930996016504084034e-01,0.000000000000000000e+00,7.723984066016336136e-01,-3.544594202970965946e-02,2.183672879439951808e-01,2.427901967284498141e-01
1.616666666666666696e+00,1.644628883882279158e+09,-5.352150426884847573e-02,1.930996016504084034e-01,0.000000000000000000e+00,7.723984066016336136e-01,-2.788990603001834795e-02,2.224030757652792067e-01,2.415079038341723106e-01
1.633333333333333304e+00,1.644628883898001194e+09,-5.347617083310327729e-02,1.930996016504084034e-01,0.000000000000000000e+00,7.723984066016336136e-01,-2.084063609166358216e-02,2.264186427979409111e-01,2.403633195608230189e-01
1.649999999999999911e+00,1.644628883915858269e+09,-5.337556845347794787e-02,1.930996016504084034e-01,0.000000000000000000e+00,7.723984066016336136e-01,-1.441263628180525572e-02,2.304161793551388615e-01,2.393438990931017751e-01
1.666666666666666741e+00,1.644628883931021929e+09,-5.322293394647811121e-02,1.850871700466565906e-01,0.000000000000000000e+00,7.403486801866263622e-01,-8.714145432732805716e-03,2.343965467714201611e-01,2.383030820870525313e-01
1.683333333333333348e+00,1.644628883949538708e+09,-5.302197164617118014e-02,1.930996016504084034e-01,0.000000000000000000e+00,7.723984066016336136e-01,-3.845452613153648152e-03,2.383614901430975153e-01,2.374923745326627533e-01
1.699999999999999956e+00,1.644628883968215466e+09,-5.277683708516499317e-02,1.850871700466565906e-01,0.000000000000000000e+00,7.403486801866263622e-01,1.027373515635480241e-04,2.423124723424505134e-01,2.366278907899467543e-01
1.716666666666666563e+00,1.644628883986524582e+09,-5.249211629559386028e-02,1.850871700466565906e-01,0.000000000000000000e+00,7.403486801866263622e-01,3.050865737610969092e-03,2.462495730793145265e-01,2.358264239828205266e-01
1.733333333333333393e+00,1.644628884002006292e+09,-5.217280078093556456e-02,1.770747384429053606e-01,0.000000000000000000e+00,7.082989537716214423e-01,4.931986852377666895e-03,2.501725798753909880e-01,2.349368626083321032e-01
1.750000000000000000e+00,1.644628884018340111e+09,-5.182425825058752100e-02,1.850871700466565906e-01,0.000000000000000000e+00,7.403486801866263622e-01,5.693118280213440609e-03,2.540820953241239022e-01,2.342070186317136704e-01
1.766666666666666607e+00,1.644628884035394192e+09,-5.145219925041093906e-02,1.770747384429053606e-01,0.000000000000000000e+00,7.082989537716214423e-01,5.296453527165416800e-03,2.579783860444093690e-01,2.333502477775960537e-01
1.783333333333333215e+00,1.644628884052484274e+09,-5.106263986352415490e-02,1.770747384429053606e-01,0.000000000000000000e+00,7.082989537716214423e-01,3.720417268660231817e-03,2.618602979051630197e-01,2.324815885120351810e-01
1.800000000000000044e+00,1.644628884069371700e+09,-5.066186069609199261e-02,1.770747384429053606e-01,0.000000000000000000e+00,7.082989537716214423e-01,9.605448013179374847e-04,2.657274708961795406e-01,2.315816702417557160e-01
1.816666666666666652e+00,1.644628884087010622e+09,-5.025636240232156382e-02,1.770747384429053606e-01,0.000000000000000000e+00,7.082989537716214423e-01,-2.969831037126800799e-03,2.695792266810466686e-01,2.306316629136515861e-01
1.833333333333333259e+00,1.644628884103038311e+09,-4.985281804094221503e-02,1.770747384429053606e-01,0.000000000000000000e+00,7.082989537716214423e-01,-8.039100301359309447e-03,2.734145800559313888e-01,2.296135701744593249e-01
1.849999999999999867e+00,1.644628884120728731e+09,-4.945802259172621396e-02,1.770747384429053606e-01,0.000000000000000000e+00,7.082989537716214423e-01,-1.419711639826661161e-02,2.772322552897173442e-01,2.285105219747506633e-01
1.866666666666666696e+00,1.644628884137591839e+09,-4.907883999471724518e-02,1.850871700466565906e-01,0.000000000000000000e+00,7.403486801866263622e-01,-2.137516688326490666e-02,2.810318139855457198e-01,2.274394966649788408e-01
1.883333333333333304e+00,1.644628884153388500e+09,-4.872214810640888155e-02,1.770747384429053606e-01,0.000000000000000000e+00,7.082989537716214423e-01,-2.948618235087741707e-02,2.848114432115401162e-01,2.261196767071849134e-01
1.899999999999999911e+00,1.644628884173521280e+09,-4.839478199580322243e-02,1.850871700466565906e-01,0.000000000000000000e+00,7.403486801866263622e-01,-3.842518846105644204e-02,2.885691297534959121e-01,2.248063565249891205e-01
1.916666666666666741e+00,1.644628884187043667e+09,-4.810347602874908562e-02,1.770747384429053606e-01,0.000000000000000000e+00,7.082989537716214423e-01,-4.807000329197816391e-02,2.923026701944992922e-01,2.232228950031678594e-01
1.933333333333333348e+00,1.644628884204338551e+09,-4.785480521090590411e-02,1.770747384429053606e-01,0.000000000000000000e+00,7.082989537716214423e-01,-5.828217925606939825e-02,2.960086278077947441e-01,2.214968133763196845e-01
1.949999999999999956e+00,1.644628884222633600e+09,-4.765512627782066829e-02,1.770747384429053606e-01,0.000000000000000000e+00,7.082989537716214423e-01,-6.890818579204836813e-02,2.996845881319067928e-01,2.196236289297218980e-01
1.966666666666666563e+00,1.644628884239715576e+09,-4.751051903469484528e-02,1.770747384429053606e-01,0.000000000000000000e+00,7.082989537716214423e-01,-7.978082598680379112e-02,3.033280857059238445e-01,2.176016965633065792e-01
1.983333333333333393e+00,1.644628884255965233e+09,-4.742672845823969752e-02,1.690623068391541306e-01,0.000000000000000000e+00,6.762492273566165224e-01,-9.072087722283270206e-02,3.069355459510880180e-01,2.152999268117477272e-01
2.000000000000000000e+00,1.644628884275575399e+09,-4.740910807839083391e-02,1.770747384429053606e-01,0.000000000000000000e+00,7.082989537716214423e-01,-1.015389429268583471e-01,3.105045737730642852e-01,2.129898289150388979e-01
2.016666666666666607e+00,1.644628884290621281e+09,-4.746256515843719909e-02,1.770747384429053606e-01,0.000000000000000000e+00,7.082989537716214423e-01,-1.120374995501003945e-01,3.140339689694236491e-01,2.105443877002262931e-01
2.033333333333333215e+00,1.644628884307835817e+09,-4.759150818821338003e-02,1.690623068391541306e-01,0.000000000000000000e+00,6.762492273566165224e-01,-1.220131200778686031e-01,3.175204600590276760e-01,2.078420497233103570e-01
2.049999999999999822e+00,1.644628884327235937e+09,-4.779979719634737390e-02,1.770747384429053606e-01,0.000000000000000000e+00,7.082989537716214423e-01,-1.312588526822043300e-01,3.209621150864699346e-01,2.051639927918797734e-01
2.066666666666666430e+00,1.644628884342229843e+09,-4.809069737413613349e-02,1.770747384429053606e-01,0.000000000000000000e+00,7.082989537716214423e-01,-1.395667306319821332e-01,3.243583582380334951e-01,2.023928831038315779e-01
2.083333333333333481e+00,1.644628884360677958e+09,-4.846683648546221829e-02,1.690623068391541306e-01,0.000000000000000000e+00,6.762492273566165224e-01,-1.467303872944852594e-01,3.277067028462986586e-01,1.994167371546442247e-01
2.100000000000000089e+00,1.644628884376672029e+09,-4.893016651434307224e-02,1.690623068391541306e-01,0.000000000000000000e+00,6.762492273566165224e-01,-1.525477480334177793e-01,3.310050525920729125e-01,1.963936300556322345e-01
2.116666666666666696e+00,1.644628884393994570e+09,-4.948192997433712575e-02,1.690623068391541306e-01,0.000000000000000000e+00,6.762492273566165224e-01,-1.568237690608921264e-01,3.342528441664333605e-01,1.933498141109095125e-01
2.133333333333333304e+00,1.644628884411739111e+09,-5.012263127227701426e-02,1.850871700466565906e-01,0.000000000000000000e+00,7.403486801866263622e-01,-1.593731918626072608e-01,3.374521871229781977e-01,1.905790374574321822e-01
2.149999999999999911e+00,1.644628884428757906e+09,-5.085201348287254897e-02,1.690623068391541306e-01,0.000000000000000000e+00,6.762492273566165224e-01,-1.600232807107482558e-01,3.406034300169873963e-01,1.875784449988964209e-01
2.166666666666666519e+00,1.644628884445310116e+09,-5.166904085086085341e-02,1.690623068391541306e-01,0.000000000000000000e+00,6.762492273566165224e-01,-1.586165100292782904e-01,3.437052717838837146e-01,1.846506998454980342e-01
2.183333333333333126e+00,1.644628884463066101e+09,-5.257188729388621862e-02,1.610498752354029006e-01,0.000000000000000000e+00,6.441995009416116025e-01,-1.550131679985349009e-01,3.467581131941930295e-01,1.816984702224698767e-01
2.200000000000000178e+00,1.644628884480269670e+09,-5.355793113246912901e-02,1.610498752354029006e-01,0.000000000000000000e+00,6.441995009416116025e-01,-1.490938427939701438e-01,3.497629761210312993e-01,1.788928745029888245e-01
2.216666666666666785e+00,1.644628884497101784e+09,-5.462375622366993921e-02,1.610498752354029006e-01,0.000000000000000000e+00,6.441995009416116025e-01,-1.407617582565873771e-01,3.527226174611660103e-01,1.762713684458343810e-01
2.233333333333333393e+00,1.644628884514733315e+09,-5.576515962273088239e-02,1.530374436316510878e-01,0.000000000000000000e+00,6.121497745266043511e-01,-1.299449265949673693e-01,3.556393164625414327e-01,1.737395447284036665e-01
2.250000000000000000e+00,1.644628884532526016e+09,-5.697716584255026889e-02,-2.546527945439212570e-01,-5.435869842340964597e-01,6.121497745266043511e-01,-1.165980869209515547e-01,3.584597011917478038e-01,1.647316453081160703e-01
2.266666666666666607e+00,1.644628884548555374e+09,-5.825404772473791876e-02,-3.323984712498279648e-01,-6.258814022319687531e-01,5.480503216965945112e-01,-1.007044000186524541e-01,3.611226554118179832e-01,1.548503099002379035e-01
2.283333333333333215e+00,1.644628884564054489e+09,-5.958935387871496653e-02,-3.423827204922167966e-01,-6.391937345551539362e-01,5.480503216965945112e-01,-8.227687173033038093e-02,3.636234517133153377e-01,1.452718537283647637e-01
2.299999999999999822e+00,1.644628884581779718e+09,-6.097594258733968209e-02,-4.121159655943722466e-01,-7.214881525530262296e-01,5.160005952815897023e-01,-6.135947969902899590e-02,3.659591875897768021e-01,1.350448604303466360e-01
2.316666666666666430e+00,1.644628884598735332e+09,-6.240602201939385307e-02,-4.792827332249887107e-01,-8.110438427271815520e-01,5.160005952815897023e-01,-3.802798091823748894e-02,3.681198315861491932e-01,1.242623711982538265e-01
2.333333333333333481e+00,1.644628884616506815e+09,-6.387119653145162390e-02,-5.718639534725949991e-01,-9.344854697239899366e-01,5.160005952815897023e-01,-1.239038058031401504e-02,3.700930104252613817e-01,1.125516201249264908e-01
2.350000000000000089e+00,1.644628884633603334e+09,-6.536251878473384180e-02,-8.902957706124384751e-01,-1.348377983772112154e+00,4.839508688665823399e-01,1.541295393931262428e-02,3.718324858235649288e-01,9.623076444873751578e-02
2.366666666666666696e+00,1.644628884649884462e+09,-6.687054734702316261e-02,-9.983071942346458671e-01,-1.492393215268388751e+00,4.839508688665823399e-01,4.520954650738522040e-02,3.732913981338361609e-01,7.888689134301193895e-02
2.383333333333333304e+00,1.644628884665366650e+09,-6.838540939613543812e-02,-1.227944926809591220e+00,-1.798576858701649073e+00,4.839508688665823399e-01,7.679544175773815595e-02,3.744362864181592920e-01,5.855617830782457178e-02
2.399999999999999911e+00,1.644628884682976246e+09,-6.989686809030704051e-02,-1.509162724045984172e+00,-2.162850679545171406e+00,4.519011424515774755e-01,1.099362153524694463e-01,3.752108730511695134e-01,3.446114986325577584e-02
2.416666666666666519e+00,1.644628884701825857e+09,-7.139439412268176743e-02,-1.333233373365692698e+00,-1.938961454109784599e+00,4.839508688665823399e-01,1.443683654055498422e-01,3.756162591295673647e-01,1.424134698552221093e-02
2.433333333333333126e+00,1.644628884718771696e+09,-7.286724093234457633e-02,-1.581775445808813130e+00,-2.259667641895609869e+00,4.519011424515774755e-01,1.798010811722606517e-01,3.756580064919193274e-01,-9.166639787438951581e-03
2.450000000000000178e+00,1.644628884733985662e+09,-7.430452300351758632e-02,-1.707188890444259366e+00,-2.437568810214540083e+00,4.839508688665823399e-01,2.159183807195215465e-01,3.753005202360857884e-01,-3.366366202701771837e-02
2.466666666666666785e+00,1.644628884752085924e+09,-7.569529664804039437e-02,-2.048468682729552626e+00,-2.892608533261598058e+00,4.839508688665823399e-01,2.523816048866348027e-01,3.744960324007111652e-01,-6.279395882235838666e-02
2.483333333333333393e+00,1.644628884770413160e+09,-7.702864263449964166e-02,-2.464927674249214107e+00,-3.437203946482811467e+00,4.519011424515774755e-01,2.888322504730894691e-01,3.731575761675225422e-01,-9.772375965210518267e-02
2.500000000000000000e+00,1.644628884786632776e+09,-7.829375000072640034e-02,-3.191054891877499244e+00,-4.405373569987191651e+00,4.519011424515774755e-01,3.248951213000803029e-01,3.711464690767886099e-01,-1.434819820709949123e-01
2.516666666666666607e+00,1.644628884803926229e+09,-7.948000036515458222e-02,-3.426295078179223630e+00,-4.729710393861159545e+00,4.839508688665823399e-01,3.601817716359547727e-01,3.683514274120937571e-01,-1.917888288486878645e-01
2.533333333333333215e+00,1.644628884820853233e+09,-8.057705203702782149e-02,-4.356645575765464073e+00,-5.970177723976146211e+00,4.839508688665823399e-01,3.942942125028328637e-01,3.646341549526269654e-01,-2.541107457769316014e-01
2.549999999999999822e+00,1.644628884836090803e+09,-8.157492321587228590e-02,-5.120737972724666243e+00,-6.978284344450081278e+00,4.519011424515774755e-01,4.268288476413597543e-01,3.597857486888634826e-01,-3.274941582645565230e-01
2.566666666666666430e+00,1.644628884854501486e+09,-8.246407356721274784e-02,-4.923932464537561060e+00,-6.726560242338942786e+00,4.839508688665823399e-01,4.573806024502817258e-01,3.537558240024649692e-01,-3.959067646129460494e-01
2.583333333333333481e+00,1.644628884874469042e+09,-8.323548346432703415e-02,-5.016357185190601697e+00,-6.839109961071327959e+00,4.519011424515774755e-01,4.855472060825596903e-01,3.465862630303988556e-01,-4.642507032926806443e-01
2.600000000000000089e+00,1.644628884889210463e+09,-8.388073019497992167e-02,-5.677132953232339574e+00,-7.720144318460311794e+00,4.519011424515774755e-01,5.109335841126964040e-01,3.381993158129932286e-01,-5.419670788939356942e-01
2.616666666666666696e+00,1.644628884906050444e+09,-8.439206044758292002e-02,-5.981355225208752735e+00,-8.136457256567197760e+00,4.839508688665823399e-01,5.331563168301162170e-01,3.284888799764041911e-01,-6.230599581969905598e-01
2.633333333333333304e+00,1.644628884924602509e+09,-8.476245841303625683e-02,-5.520264442014790163e+00,-7.521669545641913146e+00,4.839508688665823399e-01,5.518481162962214359e-01,3.175043645500979506e-01,-6.948823815326604647e-01
2.649999999999999911e+00,1.644628884941542625e+09,-8.498570886654918666e-02,-5.157044333606081388e+00,-7.026692825625300287e+00,4.519011424515774755e-01,5.666622738596814868e-01,3.053849431652566060e-01,-7.592693278102591314e-01
2.666666666666666519e+00,1.644628884958498001e+09,-8.505645462782962518e-02,-4.624248487671326124e+00,-6.316298364378961416e+00,4.519011424515774755e-01,5.772770288820258111e-01,2.922763553096194844e-01,-8.136102642677769392e-01
2.683333333333333126e+00,1.644628884975451231e+09,-8.497024783799307646e-02,-4.860396332995086333e+00,-6.641845400282308631e+00,4.839508688665823399e-01,5.833998090053801322e-01,2.782378196001670800e-01,-8.708550039581529623e-01
2.700000000000000178e+00,1.644628884993527412e+09,-8.472359453707889454e-02,-4.543466834710179647e+00,-6.208589493764098854e+00,4.519011424515774755e-01,5.847712924123893430e-01,2.632970754582988904e-01,-9.218925188545813443e-01
2.716666666666666785e+00,1.644628885008854628e+09,-8.431399207687544084e-02,-4.618051374111646901e+00,-6.318718788437722722e+00,4.839508688665823399e-01,5.811692431954298410e-01,2.475019562245478200e-01,-9.733787684694339415e-01
2.733333333333333393e+00,1.644628885024362803e+09,-8.373995895945338108e-02,-4.776891702967833275e+00,-6.530505893579305443e+00,4.839508688665823399e-01,5.724120721728886974e-01,2.308326954867266079e-01,-1.026784168244861739e+00
2.750000000000000000e+00,1.644628885042526484e+09,-8.300105675197957944e-02,-4.442873182858822823e+00,-6.085147866767291802e+00,4.839508688665823399e-01,5.583620772628873352e-01,2.133249153454685465e-01,-1.074018239863535840e+00
2.766666666666666607e+00,1.644628885060960293e+09,-8.209790379254708337e-02,-3.534150002206864372e+00,-4.862833717093010932e+00,4.519011424515774755e-01,5.389283198419203558e-01,1.951592537696394958e-01,-1.105772939660455867e+00
2.783333333333333215e+00,1.644628885076727390e+09,-8.103218046941249031e-02,-2.809838102622649991e+00,-3.897084517647392055e+00,4.519011424515774755e-01,5.140690963635071720e-01,1.765653419248061906e-01,-1.125441844586608342e+00
2.799999999999999822e+00,1.644628885094836712e+09,-7.980662592660554833e-02,-2.585646324179916800e+00,-3.598162146390414762e+00,4.519011424515774755e-01,4.837939678702069535e-01,1.576731155412827989e-01,-1.141580490808246751e+00
2.816666666666666430e+00,1.644628885109601021e+09,-7.842502612180154986e-02,-2.110189496227957040e+00,-2.974902951259470019e+00,4.839508688665823399e-01,4.481653138751123255e-01,1.385748900854494869e-01,-1.150182668391627416e+00
2.833333333333333481e+00,1.644628885126563549e+09,-7.689219323698895381e-02,-1.708847708893762807e+00,-2.429097326008876401e+00,4.519011424515774755e-01,4.072993813843998612e-01,1.193842722452245902e-01,-1.152684522676558521e+00
2.850000000000000089e+00,1.644628885145344734e+09,-7.521393651818708559e-02,-5.742739313495676123e-01,-9.163322892832825861e-01,4.519011424515774755e-01,3.613668045430629139e-01,1.003026660567880313e-01,-1.137151368601563739e+00
2.866666666666666696e+00,1.644628885163423300e+09,-7.339702469661002482e-02,-4.009110581408144580e-01,-6.851817916716117507e-01,4.519011424515774755e-01,3.105925754688214635e-01,8.149473232730601591e-02,-1.119848742916614848e+00
2.883333333333333304e+00,1.644628885181497335e+09,-7.144914021955156569e-02,1.129752856128943689e-01,0.000000000000000000e+00,4.519011424515774755e-01,2.552554522465046993e-01,6.303612089242267846e-02,-1.095252952517408174e+00
2.899999999999999911e+00,1.644628885199470520e+09,-6.937882559420130435e-02,1.209877172166455850e-01,0.000000000000000000e+00,4.839508688665823399e-01,1.956867957347858122e-01,4.497692114317423245e-02,-1.071915844218969127e+00
2.916666666666666519e+00,1.644628885214210510e+09,-6.719542222090822692e-02,1.209877172166455850e-01,0.000000000000000000e+00,4.839508688665823399e-01,1.322688327326714541e-01,2.729469054516345597e-02,-1.050012671121802965e+00
2.933333333333333126e+00,1.644628885233117342e+09,-6.490900216339944018e-02,6.996403227619447662e-01,7.715368073937323157e-01,4.839508688665823399e-01,6.543234910479456268e-02,1.004517985304895569e-02,-1.020011949231909520e+00
2.950000000000000178e+00,1.644628885251129150e+09,-6.253029337147350541e-02,9.720419941184136325e-01,1.113372551592353377e+00,5.480503216965945112e-01,-4.346177390024828086e-03,-6.680476112372848302e-03,-9.871580296543478461e-01
2.966666666666666785e+00,1.644628885267704487e+09,-6.007059893605980194e-02,1.038478027467566900e+00,1.180587445114554379e+00,6.121497745266043511e-01,-7.654798864842642103e-02,-2.286390092338895161e-02,-9.549424375296794443e-01
2.983333333333333393e+00,1.644628885284918308e+09,-5.754171101663869969e-02,1.138340154986265063e+00,1.313736948472818744e+00,6.121497745266043511e-01,-1.506159800951501482e-01,-3.851128613370803644e-02,-9.228329827378417560e-01
3.000000000000000000e+00,1.644628885302613735e+09,-5.495582013625240070e-02,1.280302267252117154e+00,1.492336522688952227e+00,6.441995009416116025e-01,-2.259591287917142033e-01,-5.361874729359156905e-02,-8.901531359369515561e-01
3.016666666666666607e+00,1.644628885317593336e+09,-5.232542058913178251e-02,1.271660352370691305e+00,1.480813969513717909e+00,6.441995009416116025e-01,-3.019573818342794480e-01,-6.819774863910003926e-02,-8.594124184158362656e-01
3.033333333333333215e+00,1.644628885334430456e+09,-4.966321274979358658e-02,1.319521613705461505e+00,1.533945742488409980e+00,6.762492273566165224e-01,-3.779669654728919359e-01,-8.227253847615448312e-02,-8.296450511082389401e-01
3.049999999999999822e+00,1.644628885351355314e+09,-4.698200310985258671e-02,1.357300641011901732e+00,1.573634536758661717e+00,7.082989537716214423e-01,-4.533260700674388022e-01,-9.586050758740095878e-02,-8.009908391479181322e-01
3.066666666666666430e+00,1.644628885368499279e+09,-4.429460289929615380e-02,1.337947008824470929e+00,1.537146451703752748e+00,7.403486801866263622e-01,-5.273608610461630875e-01,-1.089877630889681814e-01,-7.743538145167124798e-01
3.083333333333333481e+00,1.644628885386598110e+09,-4.161372617223680487e-02,1.405311279242045019e+00,1.637648721065519508e+00,7.082989537716214423e-01,-5.993917615108939057e-01,-1.216753918564191100e-01,-7.482341937870756743e-01
3.100000000000000089e+00,1.644628885403712511e+09,-3.895188825284293110e-02,1.472376795868872712e+00,1.716386167762954829e+00,7.403486801866263622e-01,-6.687399480963523990e-01,-1.339316165502712208e-01,-7.225840216303481833e-01
3.116666666666666696e+00,1.644628885420134068e+09,-3.632130544503389680e-02,1.263199790080820284e+00,1.448166735517219861e+00,7.082989537716214423e-01,-7.347339981913567630e-01,-1.458018879529625056e-01,-7.019059870294991343e-01
3.133333333333333304e+00,1.644628885436332226e+09,-3.373379690939376507e-02,1.270401385815342232e+00,1.457768863163249051e+00,7.082989537716214423e-01,-7.967166237156981801e-01,-1.573379478892651950e-01,-6.824751810582023737e-01
3.149999999999999911e+00,1.644628885454389095e+09,-3.120068960251837220e-02,1.373624258010150534e+00,1.595399359422993601e+00,7.082989537716214423e-01,-8.540514243598668065e-01,-1.685465067686563734e-01,-6.626070749513064406e-01
3.166666666666666519e+00,1.644628885471617222e+09,-2.873272715760253129e-02,1.528549242598140623e+00,1.791282763401978340e+00,7.403486801866263622e-01,-9.061295915724386640e-01,-1.794124694852615443e-01,-6.413674513842728686e-01
3.183333333333333126e+00,1.644628885487476826e+09,-2.633998356053205911e-02,1.318262647150112432e+00,1.510900636137941122e+00,7.403486801866263622e-01,-9.523764936513374746e-01,-1.899628046378357693e-01,-6.247190136733856702e-01
3.200000000000000178e+00,1.644628885506012678e+09,-2.403178244316866996e-02,1.302749866021093883e+00,1.479533685827580491e+00,7.723984066016336136e-01,-9.922580720833460433e-01,-2.002456164156683482e-01,-6.092613386632572681e-01
3.216666666666666785e+00,1.644628885523293018e+09,-2.181662277508040690e-02,1.273463376700706196e+00,1.440485033400397130e+00,7.723984066016336136e-01,-1.025286979796856901e+00,-2.102815423321827137e-01,-5.950891394650120736e-01
3.233333333333333393e+00,1.644628885540547848e+09,-1.970211168692358530e-02,1.167839972594390652e+00,1.299653827925309812e+00,7.723984066016336136e-01,-1.051028393253703230e+00,-2.201013665741001768e-01,-5.833224555674164646e-01
3.250000000000000000e+00,1.644628885558500051e+09,-1.769490510334010072e-02,9.876507023359797355e-01,1.048718225442426766e+00,8.044481330166385336e-01,-1.069105432307374315e+00,-2.297540892795469358e-01,-5.750273116948263485e-01
3.266666666666666607e+00,1.644628885574460030e+09,-1.580065680099483616e-02,9.750185595007694328e-01,1.021192126190477945e+00,8.364978594316434535e-01,-1.079204124488950756e+00,-2.392728449108024458e-01,-5.672449821467071551e-01
3.283333333333333215e+00,1.644628885592408180e+09,-1.402397643869090701e-02,1.019999182541730942e+00,1.070483048106758650e+00,8.685475858466483734e-01,-1.081077853833261937e+00,-2.486570160031631727e-01,-5.588787889092052819e-01
3.299999999999999822e+00,1.644628885608350515e+09,-1.236839703189004241e-02,9.100548209947026956e-01,9.238905660440540624e-01,8.685475858466483734e-01,-1.074551238501876060e+00,-2.579171901950597645e-01,-5.523602216757615979e-01
3.316666666666666430e+00,1.644628885625491142e+09,-1.083635226401745248e-02,8.889301401734395203e-01,8.957243249490364212e-01,8.685475858466483734e-01,-1.059523386265503353e+00,-2.670704640444974687e-01,-5.460501685945249317e-01
3.333333333333333481e+00,1.644628885641286612e+09,-9.429163942280693531e-03,7.673138485558039790e-01,7.228860273205200970e-01,9.005973122616556248e-01,-1.035970482336572296e+00,-2.761329864542996781e-01,-5.414652567477354905e-01
3.350000000000000089e+00,1.644628885660172939e+09,-8.147039817071613510e-03,8.071626782868231986e-01,7.760178002952123899e-01,9.005973122616556248e-01,-1.003947670046971830e+00,-2.851097999899096513e-01,-5.357681930747946186e-01
3.366666666666666696e+00,1.644628885676665068e+09,-6.989081892085238432e-03,8.551733165169665973e-01,8.400319846020702919e-01,9.005973122616556248e-01,-9.635901913925754014e-01,-2.939802438971839127e-01,-5.287046970821138725e-01
3.383333333333333304e+00,1.644628885694370270e+09,-5.953305257864175207e-03,8.369292739895118904e-01,8.157065945654641270e-01,9.005973122616556248e-01,-9.151137614552911081e-01,-3.027297627724036544e-01,-5.212582529979904455e-01
3.399999999999999911e+00,1.644628885713767767e+09,-5.036667385354091399e-03,9.617569333878849269e-01,9.821434737632946943e-01,9.005973122616556248e-01,-8.588141580993219337e-01,-3.113311853648849103e-01,-5.109411174840331471e-01
3.416666666666666519e+00,1.644628885729114294e+09,-4.235107719103096621e-03,8.983828909240956229e-01,8.976447504782423259e-01,9.005973122616556248e-01,-7.950660160495741646e-01,-3.197620290358838546e-01,-5.007883258984588970e-01
3.433333333333333126e+00,1.644628885748221397e+09,-3.543597312775606523e-03,9.236791522906984131e-01,9.206898568287109619e-01,9.326470386766605447e-01,-7.243208224212599466e-01,-3.280117965287438486e-01,-4.892159195744416045e-01
3.449999999999999734e+00,1.644628885763701200e+09,-2.956198153589228734e-03,9.899338330482966297e-01,1.009029431172175251e+00,9.326470386766605447e-01,-6.471041189008066574e-01,-3.360504726302214196e-01,-4.754634149038391988e-01
3.466666666666666785e+00,1.644628885780803442e+09,-2.466131727962954552e-03,9.515253224641817553e-01,9.578180837266887515e-01,9.326470386766605447e-01,-5.640119239962609887e-01,-3.438556680905552332e-01,-4.611996628023733447e-01
3.483333333333333393e+00,1.644628885795390368e+09,-2.065856288984905479e-03,9.011141523225310035e-01,8.906031902044878601e-01,9.326470386766605447e-01,-4.757063969958651439e-01,-3.514198704782778848e-01,-4.465453311592062491e-01
3.500000000000000000e+00,1.644628885813376665e+09,-1.747152198118031609e-03,9.505651096995788585e-01,9.565378000405516667e-01,9.326470386766605447e-01,-3.829107734092801474e-01,-3.587222109001401149e-01,-4.297820851325057090e-01
3.516666666666666607e+00,1.644628885829889774e+09,-1.501214629709516149e-03,9.776004440038322807e-01,1.003268154584557870e+00,9.005973122616556248e-01,-2.864036096305170864e-01,-3.657304154846501842e-01,-4.112539333084403448e-01
3.533333333333333215e+00,1.644628885846485376e+09,-1.318752848170660951e-03,9.039947906163395830e-01,8.944440412628992254e-01,9.326470386766605447e-01,-1.870123822685575421e-01,-3.724288151399905433e-01,-3.926058268473036073e-01
3.549999999999999822e+00,1.644628885865900755e+09,-1.190095194944663448e-03,1.155090428559989668e+00,1.229238225187766043e+00,9.326470386766605447e-01,-8.560649495530552044e-02,-3.787703010201913245e-01,-3.684396087403581377e-01
3.566666666666666430e+00,1.644628885882231712e+09,-1.105298856307532695e-03,1.409397434284376693e+00,1.557630990681947214e+00,9.646967650916654646e-01,1.691024762147149904e-02,-3.846630697745527239e-01,-3.387750452875659679e-01
3.583333333333333481e+00,1.644628885899585247e+09,-1.054263424353500851e-03,1.481264014734218648e+00,1.642769855810068069e+00,9.967464915066702735e-01,1.196076322799811825e-01,-3.900414155603769695e-01,-3.067155053848384383e-01
3.600000000000000089e+00,1.644628885917113781e+09,-1.026847212857377777e-03,1.428302935785688454e+00,1.561471841740358801e+00,1.028796217921677636e+00,2.215374244692056294e-01,-3.948831001776971217e-01,-2.743764814299367583e-01
3.616666666666666696e+00,1.644628885934920073e+09,-1.012985247628303163e-03,1.498878573983999374e+00,1.655572692671439805e+00,1.028796217921677636e+00,3.217420727246375067e-01,-3.991666794861810086e-01,-2.397492246763089085e-01
3.633333333333333304e+00,1.644628885952034235e+09,-1.002807818015963217e-03,1.745023771209261998e+00,1.973083046833455034e+00,1.060845944336682445e+00,4.192636487391203093e-01,-4.028304531565522484e-01,-2.000139940067979794e-01
3.649999999999999911e+00,1.644628885969448805e+09,-9.867584528186058683e-04,1.658455245499630637e+00,1.846975103748945024e+00,1.092895670751687476e+00,5.131529376228358696e-01,-4.058364500848559708e-01,-1.608145273597864633e-01
3.666666666666666519e+00,1.644628885986063242e+09,-9.557101703389234365e-04,1.691582585878429468e+00,1.891144890920676724e+00,1.092895670751687476e+00,6.024785900422405804e-01,-4.081776235504697148e-01,-1.202390009621615435e-01
3.683333333333333126e+00,1.644628886001661777e+09,-9.010788490155573292e-04,1.515863649956104675e+00,1.656852976357577001e+00,1.092895670751687476e+00,6.863362459106978619e-01,-4.098608304805789748e-01,-8.185246243427227175e-02
3.699999999999999734e+00,1.644628886019232988e+09,-8.149325721238268126e-04,1.304947571230401726e+00,1.364948295918304799e+00,1.124945397166692285e+00,7.638575381892502847e-01,-4.109279882908762338e-01,-4.630521946698083757e-02
3.716666666666666785e+00,1.644628886034178257e+09,-6.900958175627969204e-04,1.199804273506387631e+00,1.224757232286286079e+00,1.124945397166692285e+00,8.342188851689233964e-01,-4.114124059550463008e-01,-1.192041582488893164e-02
3.733333333333333393e+00,1.644628886052588224e+09,-5.202473917921083537e-04,1.345276507343721839e+00,1.418720210736065246e+00,1.124945397166692285e+00,8.966499803626269971e-01,-4.112997770932073638e-01,2.533239677504461884e-02
3.750000000000000000e+00,1.644628886069953203e+09,-3.000110453952099278e-04,1.376814151680244125e+00,1.450087161046425877e+00,1.156995123581699536e+00,9.504418908407664679e-01,-4.105596276377459497e-01,6.337984802826669706e-02
3.766666666666666607e+00,1.644628886086545467e+09,-2.503775643146613435e-05,1.346418072699881119e+00,1.398875813600939821e+00,1.189044849996704567e+00,9.949546774969221241e-01,-4.091886593209744793e-01,1.010317588814419465e-01
3.783333333333333215e+00,1.644628886102200270e+09,3.079212736415741438e-04,1.355870823450536333e+00,1.400796239130145393e+00,1.221094576411709376e+00,1.029624454313966542e+00,-4.071892654318408078e-01,1.387906196217166821e-01
3.799999999999999822e+00,1.644628886118955374e+09,7.009517984497816651e-04,1.276503893475426699e+00,1.284290423691663907e+00,1.253144302826714185e+00,1.053969808193707891e+00,-4.045733720772664022e-01,1.750159546282945289e-01
3.816666666666666430e+00,1.644628886137137890e+09,1.154924689178900461e-03,1.393980580243905365e+00,1.430242763911300008e+00,1.285194029241721658e+00,1.067597506280124398e+00,-4.013406183975420927e-01,2.128095023906373673e-01
3.833333333333333481e+00,1.644628886155444622e+09,1.669455804620524316e-03,1.404244166863790610e+00,1.422561061794477055e+00,1.349293482071731276e+00,1.070207423904690147e+00,-3.974814142239571635e-01,2.501911580631937526e-01
3.850000000000000089e+00,1.644628886171378613e+09,2.242878198374110774e-03,1.530842874895995909e+00,1.580676097032416072e+00,1.381343208486736307e+00,1.061596633259031863e+00,-3.929880490787414637e-01,2.889051180538951824e-01
3.866666666666666696e+00,1.644628886188317299e+09,2.872227191491436623e-03,1.604000397597370009e+00,1.656852976357577001e+00,1.445442661316748589e+00,1.041662600593625587e+00,-3.878474472034844078e-01,3.278588994818213420e-01
3.883333333333333304e+00,1.644628886204468966e+09,3.553238731043022354e-03,1.685469105693240488e+00,1.754794678347069370e+00,1.477492387731753398e+00,1.010405448081309387e+00,-3.820560607083782201e-01,3.669987555496243004e-01
3.899999999999999911e+00,1.644628886220984697e+09,4.280361341620909400e-03,1.533275382503685780e+00,1.551869714094330055e+00,1.477492387731753398e+00,9.679292453931470641e-01,-3.756446372025553093e-01,4.022740758420819129e-01
3.916666666666666519e+00,1.644628886238889217e+09,5.046781858545440654e-03,1.438064941912629013e+00,1.414239217834585949e+00,1.509542114146758207e+00,9.144423054264962936e-01,-3.686707020930966028e-01,4.345085948549419763e-01
3.933333333333333126e+00,1.644628886255267143e+09,5.844465009528767609e-03,1.388283255048652576e+00,1.358546877487619042e+00,1.477492387731753398e+00,8.502564684101110437e-01,-3.611797184992052712e-01,4.643266066520300162e-01
3.949999999999999734e+00,1.644628886272444725e+09,6.664206786725817948e-03,1.089657085257160762e+00,9.603786510989630321e-01,1.477492387731753398e+00,7.757853686916690306e-01,-3.532474189017263400e-01,4.874850146203649204e-01
3.966666666666666785e+00,1.644628886288317919e+09,7.495701424583864174e-03,1.130466127752782546e+00,1.014790707759792410e+00,1.477492387731753398e+00,6.915416887884670016e-01,-3.449383437027638277e-01,5.095427363637565765e-01
3.983333333333333393e+00,1.644628886307399511e+09,8.327621671701944395e-03,1.019561553441151291e+00,8.669179420109505152e-01,1.477492387731753398e+00,5.981334156478552710e-01,-3.362929062240478384e-01,5.278588817031907299e-01
4.000000000000000000e+00,1.644628886324575663e+09,9.147711918211886076e-03,8.364916448889315737e-01,6.121414884696559922e-01,1.509542114146758207e+00,4.962591244128081169e-01,-3.273840861265283619e-01,5.411625744273669270e-01
4.016666666666666607e+00,1.644628886340533733e+09,9.942893615051306283e-03,3.773855285366895518e-01,0.000000000000000000e+00,1.509542114146758207e+00,3.867023252124823229e-01,-3.183339193352590080e-01,5.448472051985837616e-01
4.033333333333333215e+00,1.644628886357494831e+09,1.069938229907198279e-02,3.773855285366895518e-01,0.000000000000000000e+00,1.509542114146758207e+00,2.703249184889129353e-01,-3.092389250596623285e-01,5.465473850400804912e-01
4.049999999999999822e+00,1.644628886374437809e+09,1.140281541933065544e-02,3.773855285366895518e-01,0.000000000000000000e+00,1.509542114146758207e+00,1.480598140220006909e-01,-3.001327166002978331e-01,5.461985989566942035e-01
4.066666666666666430e+00,1.644628886392358065e+09,1.203839004622922655e-02,3.773855285366895518e-01,0.000000000000000000e+00,1.509542114146758207e+00,2.090277802075484956e-02,-2.910498360610754287e-01,5.437538568600959188e-01
4.083333333333333037e+00,1.644628886408872843e+09,1.259100943749882559e-02,7.856003683649794844e-01,5.442864531043866139e-01,1.509542114146758207e+00,-1.100964186929430516e-01,-2.819690743915151399e-01,5.459314943517362684e-01
4.099999999999999645e+00,1.644628886425248861e+09,1.304543733438338210e-02,8.755296387507209843e-01,6.748753890903766983e-01,1.477492387731753398e+00,-2.438434703676571891e-01,-2.728583716739532150e-01,5.473488944405587864e-01
4.116666666666666252e+00,1.644628886443443775e+09,1.338645876879003375e-02,1.004678255589806835e+00,8.470735448758245356e-01,1.477492387731753398e+00,-3.792095355553535274e-01,-2.637251001506533132e-01,5.486401015844998286e-01
4.133333333333332860e+00,1.644628886459804535e+09,1.359904607853718549e-02,9.581079365065676701e-01,7.849797860981724273e-01,1.477492387731753398e+00,-5.150416711211056597e-01,-2.545956803685124337e-01,5.468951195587833380e-01
4.150000000000000355e+00,1.644628886478396416e+09,1.366852875407854537e-02,9.432246386552232131e-01,7.651353889630464478e-01,1.477492387731753398e+00,-6.501736007010546770e-01,-2.455158227804114801e-01,5.426994459365852563e-01
4.166666666666666963e+00,1.644628886495364904e+09,1.358076567696224653e-02,9.355429365384002605e-01,7.548931194739492145e-01,1.477492387731753398e+00,-7.834367126940595671e-01,-2.365247809455318651e-01,5.362435078324446769e-01
4.183333333333333570e+00,1.644628886512896299e+09,1.332231825856109581e-02,8.736092132215151906e-01,6.723148217181024178e-01,1.477492387731753398e+00,-9.136711793154944639e-01,-2.276669887479429999e-01,5.267180161999561738e-01
4.200000000000000178e+00,1.644628886529401064e+09,1.288062294791440972e-02,8.556639244848063264e-01,6.697542543458282482e-01,1.413392934901741116e+00,-1.039737085764493196e+00,-2.189865299767081996e-01,5.149696714073932480e-01
4.216666666666666785e+00,1.644628886546167612e+09,1.224416155038488517e-02,-2.286125366809252657e-01,-7.759476938751473929e-01,1.413392934901741116e+00,-1.160525457197450150e+00,-2.106666984207424542e-01,4.834975399534545693e-01
4.233333333333333393e+00,1.644628886563605309e+09,1.140262778470963953e-02,-2.720236701440554294e-01,-8.231459630209859712e-01,1.381343208486736307e+00,-1.274969070989540931e+00,-2.028888584189647848e-01,4.499364875994502633e-01
4.250000000000000000e+00,1.644628886580384016e+09,1.034708850527162570e-02,-3.119606671136112008e-01,-8.763952923137270368e-01,1.381343208486736307e+00,-1.382052942718437150e+00,-1.956860404162005240e-01,4.145001094328185642e-01
4.266666666666666607e+00,1.644628886597337723e+09,9.070138029208439645e-03,-5.488596718648391937e-01,-1.192260631982031027e+00,1.381343208486736307e+00,-1.480824376424729305e+00,-1.891152971944289884e-01,3.741012987395542222e-01
4.283333333333333215e+00,1.644628886614292145e+09,7.566044034506376990e-03,-6.414408921124454821e-01,-1.315702258978839190e+00,1.381343208486736307e+00,-1.570402472984760323e+00,-1.832374475160507832e-01,3.313593929762225776e-01
4.299999999999999822e+00,1.644628886630680084e+09,5.830883535425555701e-03,-7.638183604926517267e-01,-1.468188974680779468e+00,1.349293482071731276e+00,-1.649986994852602917e+00,-1.780939544912433781e-01,2.859858106956609247e-01
4.316666666666666430e+00,1.644628886646561861e+09,3.862667495394195901e-03,-8.683556476212845876e-01,-1.618255266323958219e+00,1.381343208486736307e+00,-1.718866490957433601e+00,-1.737243732285841391e-01,2.384958604566897178e-01
4.333333333333333037e+00,1.644628886664771080e+09,1.661452704650478920e-03,-1.034300749059188007e+00,-1.828832159436160953e+00,1.349293482071731276e+00,-1.776425592135713272e+00,-1.701706023129387901e-01,1.880966505211293660e-01
4.349999999999999645e+00,1.644628886682259798e+09,-7.705603699615244098e-04,-8.990595547759197004e-01,-1.648510567058470100e+00,1.349293482071731276e+00,-1.822151395078826397e+00,-1.674374931550112466e-01,1.400100255322893616e-01
4.366666666666666252e+00,1.644628886699171543e+09,-3.428944962987727930e-03,-9.215945307322367386e-01,-1.667873959528557659e+00,1.317243755656726467e+00,-1.855638861318393840e+00,-1.655069238459300762e-01,9.179223302236436122e-02
4.383333333333332860e+00,1.644628886715455770e+09,-6.306981711490104378e-03,-8.326439465727716316e-01,-1.549273180649270998e+00,1.317243755656726467e+00,-1.876595167175993506e+00,-1.643639331428073114e-01,4.549525709009552554e-02
4.400000000000000355e+00,1.644628886734230280e+09,-9.395609658824778665e-03,-9.860383212967468447e-01,-1.753799013614571356e+00,1.317243755656726467e+00,-1.884842950782761317e+00,-1.640084902393691701e-01,-2.708207014667743384e-03
4.416666666666666963e+00,1.644628886751707792e+09,-1.268339541428049368e-02,-1.055928065993469334e+00,-1.846985339876868082e+00,1.317243755656726467e+00,-1.880322413131025217e+00,-1.644588093453238642e-01,-5.119539589412129554e-02
4.433333333333333570e+00,1.644628886766591311e+09,-1.615652118599485501e-02,-1.036867226530726827e+00,-1.821570887259877702e+00,1.317243755656726467e+00,-1.863092241548089500e+00,-1.657055386586605839e-01,-9.828132438209818966e-02
4.450000000000000178e+00,1.644628886785767317e+09,-1.979879226015691593e-02,-1.005099160759489463e+00,-1.779213466231561291e+00,1.317243755656726467e+00,-1.833329335869868570e+00,-1.677220312263808522e-01,-1.435719734248672164e-01
4.466666666666666785e+00,1.644628886802410126e+09,-2.359166434769892698e-02,-8.235673563524182894e-01,-1.537171060355466468e+00,1.317243755656726467e+00,-1.791327329819508707e+00,-1.704562377763321201e-01,-1.844193449777813965e-01
4.483333333333333393e+00,1.644628886818635941e+09,-2.751429106152613463e-02,-6.792495718487966405e-01,-1.344747347683971084e+00,1.317243755656726467e+00,-1.737493912539506358e+00,-1.738382232499626201e-01,-2.213164175772892595e-01
4.500000000000000000e+00,1.644628886834517002e+09,-3.154359162414832607e-02,-4.505194982958868888e-01,-1.039773916280091415e+00,1.317243755656726467e+00,-1.672346967757780911e+00,-1.777894732510983677e-01,-2.527462753437146326e-01
4.516666666666666607e+00,1.644628886853149414e+09,-3.565433873860364422e-02,-3.334314844533257105e-01,-8.836565644900097327e-01,1.317243755656726467e+00,-1.596509560557681118e+00,-1.822335661519519368e-01,-2.804678665263778403e-01
4.533333333333333215e+00,1.644628886869577169e+09,-3.981926638617551417e-02,3.293109389141816168e-01,0.000000000000000000e+00,1.317243755656726467e+00,-1.510703814038533155e+00,-1.870324668057814221e-01,-2.953588471246209046e-01
4.549999999999999822e+00,1.644628886886620045e+09,-4.400919714399177674e-02,3.212985073104304146e-01,0.000000000000000000e+00,1.285194029241721658e+00,-1.415743730164713998e+00,-1.920654844667953054e-01,-3.085665831778450774e-01
4.566666666666666430e+00,1.644628886904340744e+09,-4.819318844554128234e-02,3.293109389141816168e-01,0.000000000000000000e+00,1.317243755656726467e+00,-1.312527020679163492e+00,-1.973014437784682551e-01,-3.197175585622551441e-01
4.583333333333333037e+00,1.644628886922050238e+09,-5.233869703892633785e-02,3.293109389141816168e-01,0.000000000000000000e+00,1.317243755656726467e+00,-1.202026024973940066e+00,-2.027064500489336452e-01,-3.288578037261190579e-01
4.599999999999999645e+00,1.644628886940969229e+09,-5.641176073270585956e-02,3.293109389141816168e-01,0.000000000000000000e+00,1.317243755656726467e+00,-1.085277802144682280e+00,-2.082464059607828377e-01,-3.359172955347782263e-01
4.616666666666666252e+00,1.644628886957385063e+09,-6.037719635888845471e-02,3.293109389141816168e-01,0.000000000000000000e+00,1.317243755656726467e+00,-9.633734939905018724e-01,-2.138862075250429207e-01,-3.408452032217901273e-01
4.633333333333332860e+00,1.644628886975260258e+09,-6.419881272847309528e-02,3.293109389141816168e-01,0.000000000000000000e+00,1.317243755656726467e+00,-8.374470643471372266e-01,-2.195900672177219237e-01,-3.436102789529937307e-01
4.650000000000000355e+00,1.644628886991594791e+09,-6.783963720824047472e-02,3.212985073104304146e-01,0.000000000000000000e+00,1.285194029241721658e+00,-7.086635277571111668e-01,-2.253229486269992810e-01,-3.443334812178276971e-01
4.666666666666666963e+00,1.644628887008852482e+09,-7.126215440962782588e-02,7.687326935920647530e-01,5.858956729038442557e-01,1.317243755656726467e+00,-5.782067869953270156e-01,-2.309879649351053721e-01,-3.354930331331092974e-01
4.683333333333333570e+00,1.644628887026917458e+09,-7.442855535278901369e-02,8.777168423744906578e-01,7.312078712804118696e-01,1.317243755656726467e+00,-4.472672042998031006e-01,-2.364737231033933185e-01,-3.228331143302432538e-01
4.700000000000000178e+00,1.644628887043294907e+09,-7.730099535250337106e-02,8.882791827851220789e-01,7.452909918279204682e-01,1.317243755656726467e+00,-3.170290352358403618e-01,-2.417307837826447869e-01,-3.080552178585037604e-01
4.716666666666666785e+00,1.644628887060252905e+09,-7.984185876867601339e-02,8.950006721373421348e-01,7.542529776308807277e-01,1.317243755656726467e+00,-1.886578568904137554e-01,-2.467249282511319308e-01,-2.912886931359011666e-01
4.733333333333333393e+00,1.644628887078202724e+09,-8.201402867374874006e-02,1.028171492626394512e+00,9.104475873396137287e-01,1.381343208486736307e+00,-6.328812350659179797e-02,-2.514062366913645263e-01,-2.705259952103385435e-01
4.750000000000000000e+00,1.644628887095122576e+09,-8.378115941341252038e-02,1.249500534867355572e+00,1.205552976994228809e+00,1.381343208486736307e+00,5.798901730358136525e-02,-2.556970469834148885e-01,-2.444436923821058927e-01
4.766666666666666607e+00,1.644628887112087727e+09,-8.510794997642164017e-02,1.300242434495934463e+00,1.262525601027332245e+00,1.413392934901741116e+00,1.741375160037325343e-01,-2.595337037439183203e-01,-2.160340364466079854e-01
4.783333333333333215e+00,1.644628887128069162e+09,-8.596041604477128173e-02,1.316416674598810621e+00,1.273408012359498187e+00,1.445442661316748589e+00,2.841876912486554496e-01,-2.628833560154533733e-01,-1.860076447442818304e-01
4.799999999999999822e+00,1.644628887145022631e+09,-8.630615856764507765e-02,1.331481325041710351e+00,1.272127728673360991e+00,1.509542114146758207e+00,3.872468538529568738e-01,-2.657204003654887736e-01,-1.545251307460019929e-01
4.816666666666666430e+00,1.644628887161984444e+09,-8.611462669181808860e-02,1.349725367569164947e+00,1.296453118709967045e+00,1.509542114146758207e+00,4.825091653276035175e-01,-2.680214069751772898e-01,-1.216868819213673403e-01
4.833333333333333037e+00,1.644628887178898335e+09,-8.535737288798855849e-02,1.329080793130203109e+00,1.268927019458018002e+00,1.509542114146758207e+00,5.692646185523617675e-01,-2.697705138055362384e-01,-8.829868489629896788e-02
4.849999999999999645e+00,1.644628887196316957e+09,-8.400829813697978377e-02,1.412469926755279603e+00,1.369429288819785206e+00,1.541591840561763238e+00,6.469070362707945998e-01,-2.709455205216885765e-01,-5.280072879637873196e-02
4.866666666666666252e+00,1.644628887213519573e+09,-8.204388508196466812e-02,1.688531096578604229e+00,1.737510848584218115e+00,1.541591840561763238e+00,7.149409924063736543e-01,-2.714862710410935742e-01,-1.220211012722413613e-02
4.883333333333332860e+00,1.644628887230558634e+09,-7.944341711275379470e-02,1.665005883845833923e+00,1.706143898273857484e+00,1.541591840561763238e+00,7.729875716208912673e-01,-2.713512173091171542e-01,2.829606039857816835e-02
4.900000000000000355e+00,1.644628887247292519e+09,-7.618918142546497740e-02,1.623567358072537825e+00,1.640209288437793900e+00,1.573641566976770489e+00,8.207888939719601984e-01,-2.705459088632596321e-01,6.823002282012893827e-02
4.916666666666666963e+00,1.644628887264394760e+09,-7.226665419523706224e-02,1.566103969091738657e+00,1.574274678601730315e+00,1.541591840561763238e+00,8.582113438672168693e-01,-2.690833181403648466e-01,1.071726873132167190e-01
4.933333333333333570e+00,1.644628887282028198e+09,-6.766466611046738355e-02,1.911151081071097213e+00,2.023654252435872714e+00,1.573641566976770489e+00,8.852474556390562688e-01,-2.669256694689796094e-01,1.516216809203340676e-01
4.950000000000000178e+00,1.644628887300109625e+09,-6.237554664371892932e-02,1.977555138724067518e+00,2.122876238111502278e+00,1.541591840561763238e+00,9.020164218472727091e-01,-2.640218556550948947e-01,1.967107264493050400e-01
4.966666666666666785e+00,1.644628887315990686e+09,-5.639524557610140626e-02,2.114716187166905570e+00,2.295074393896950671e+00,1.573641566976770489e+00,9.087632047190551399e-01,-2.603529088490602050e-01,2.434331028413697084e-01
4.983333333333333393e+00,1.644628887333294630e+09,-4.972343044766357884e-02,2.289474910324627466e+00,2.528086024773913199e+00,1.573641566976770489e+00,9.058562458137512374e-01,-2.558879728363372408e-01,2.922236860976197281e-01
5.000000000000000000e+00,1.644628887352474451e+09,-4.236355877504788953e-02,1.875953938267719279e+00,1.966041486559700679e+00,1.605691293391775298e+00,8.937837839018770714e-01,-2.506753825931731794e-01,3.331733912239489559e-01
5.016666666666666607e+00,1.644628887368468046e+09,-3.409524359811066940e-02,1.900289986869719394e+00,1.987806309224032342e+00,1.637741019806780329e+00,8.731488060207186486e-01,-2.447854420645403928e-01,3.735074305768234515e-01
5.033333333333333215e+00,1.644628887385138512e+09,-2.527455737639613606e-02,1.965253725375786020e+00,2.085107869370456335e+00,1.605691293391775298e+00,8.390596178850251441e-01,-2.382245740960312885e-01,4.136851183293278611e-01
5.049999999999999822e+00,1.644628887402484655e+09,-1.592765990755260277e-02,2.152825943960273936e+00,2.324520918678104842e+00,1.637741019806780329e+00,7.984558982654793580e-01,-2.309793279981835756e-01,4.556279029352426901e-01
5.066666666666666430e+00,1.644628887418816328e+09,-6.083805701484937267e-03,2.171069986487728087e+00,2.348846308714710673e+00,1.637741019806780329e+00,7.523548063841372091e-01,-2.230446762781319314e-01,4.964169977630554786e-01
5.083333333333333037e+00,1.644628887436768293e+09,4.224825514485427980e-03,2.269491794859522127e+00,2.480075386543769689e+00,1.637741019806780329e+00,7.018273813053790278e-01,-2.144292249249619142e-01,5.373235326793004418e-01
5.099999999999999645e+00,1.644628887453725100e+09,1.496331963548466065e-02,2.001112327153020676e+00,2.122236096268434125e+00,1.637741019806780329e+00,6.479859178522560104e-01,-2.051821533366590400e-01,5.722280985077521365e-01
5.116666666666666252e+00,1.644628887469898939e+09,2.609423905687479478e-02,1.786355397368906139e+00,1.825210281084613140e+00,1.669790746221785138e+00,5.919709367612207007e-01,-1.953955591720346885e-01,6.020802765786299471e-01
5.133333333333332860e+00,1.644628887486889839e+09,3.757785212817914278e-02,1.565986567892547976e+00,1.531385175116135589e+00,1.669790746221785138e+00,5.349378864825783397e-01,-1.851538667900068658e-01,6.268539917695209462e-01
5.150000000000000355e+00,1.644628887503066540e+09,4.937237957754395112e-02,1.398909546851648589e+00,1.308615813728269739e+00,1.669790746221785138e+00,4.780437166508528235e-01,-1.745336359253395753e-01,6.475163152965619506e-01
5.166666666666666963e+00,1.644628887519144297e+09,6.143425616932794708e-02,1.436357844671160677e+00,1.358546877487619042e+00,1.669790746221785138e+00,4.224334644416509743e-01,-1.635743954305263204e-01,6.675369299536288992e-01
5.183333333333333570e+00,1.644628887536004066e+09,7.371840573870581947e-02,1.373944014971974381e+00,1.275328437888703981e+00,1.669790746221785138e+00,3.692269947905996164e-01,-1.523002128154855306e-01,6.853155975012976686e-01
5.200000000000000178e+00,1.644628887554419994e+09,8.617852764234197604e-02,1.298236583463720839e+00,1.185068438016034342e+00,1.637741019806780329e+00,3.195060337766550962e-01,-1.407494989052433254e-01,7.007272605450617364e-01
5.216666666666666785e+00,1.644628887572326899e+09,9.876739257431946251e-02,1.271201249159467306e+00,1.138338083472028028e+00,1.669790746221785138e+00,2.743016313846651233e-01,-1.289540303993393366e-01,7.146901733815599345e-01
5.233333333333333393e+00,1.644628887589496613e+09,1.114371456220239059e-01,1.199035914918879620e+00,1.031434395679575289e+00,1.701840472636792390e+00,2.345821853911915778e-01,-1.169432288256549712e-01,7.265730068130433761e-01
5.250000000000000000e+00,1.644628887606752872e+09,1.241396143784094935e-01,1.055153377123821956e+00,8.502742540911675251e-01,1.669790746221785138e+00,2.012421523098859577e-01,-1.047604993609137086e-01,7.353302028388638556e-01
5.266666666666666607e+00,1.644628887623100758e+09,1.368266198853297921e-01,9.202434836971187249e-01,6.703943961888966241e-01,1.669790746221785138e+00,1.750915642443771070e-01,-9.245527193142835665e-02,7.412805595417367721e-01
5.283333333333333215e+00,1.644628887639374256e+09,1.494502881577971787e-01,9.116015688156930974e-01,6.588718430136623061e-01,1.669790746221785138e+00,1.568464622021357169e-01,-8.005540740465866278e-02,7.466881621985975714e-01
5.299999999999999822e+00,1.644628887655281067e+09,1.619633600313841182e-01,9.464999578283251891e-01,6.947197862255027889e-01,1.701840472636792390e+00,1.471203470024489146e-01,-6.756268626069919514e-02,7.524224461351509685e-01
5.316666666666666430e+00,1.644628887674115419e+09,1.743194970844284819e-01,9.930702769115642425e-01,7.568135450031548972e-01,1.701840472636792390e+00,1.464167384632779623e-01,-5.496885060700922726e-02,7.588200607377083573e-01
5.333333333333333037e+00,1.644628887690206051e+09,1.864735814133992309e-01,1.064755504769850702e+00,8.630770909525391499e-01,1.669790746221785138e+00,1.551229221779009126e-01,-4.225816798311831518e-02,7.664406852296132833e-01
5.349999999999999645e+00,1.644628887706529379e+09,1.983820070833351712e-01,1.013714851350526081e+00,7.843396442551038295e-01,1.701840472636792390e+00,1.735049510088566560e-01,-2.942603834101014185e-02,7.733955522934947702e-01
5.366666666666666252e+00,1.644628887722869635e+09,2.100029611354499448e-01,9.149623134918030143e-01,6.633528359151423803e-01,1.669790746221785138e+00,2.017039555558930441e-01,-1.648869974677160538e-02,7.790693181833845404e-01
5.383333333333332860e+00,1.644628887738741875e+09,2.212966921103674545e-01,8.956086813043730999e-01,6.268647508602332996e-01,1.701840472636792390e+00,2.397338044251831057e-01,-3.455002482710339134e-03,7.849579956814825010e-01
5.400000000000000355e+00,1.644628887758108616e+09,2.322257641373374204e-01,8.399163409574066375e-01,5.526082970642781644e-01,1.701840472636792390e+00,2.874801412749077301e-01,9.674928553277041543e-03,7.906180060160337142e-01
5.416666666666666963e+00,1.644628887774123669e+09,2.427552947465893840e-01,4.174476865554462846e-01,0.000000000000000000e+00,1.669790746221785138e+00,3.447008114761183073e-01,2.284796309756265825e-02,7.901474464389408592e-01
5.433333333333333570e+00,1.644628887792076349e+09,2.528531746828085458e-01,9.138527238318278068e-01,6.511901408968394644e-01,1.701840472636792390e+00,4.110276769498459881e-01,3.609094478734849870e-02,7.989858047621829495e-01
5.450000000000000178e+00,1.644628887809030056e+09,2.624902681316475528e-01,9.681047450318897019e-01,7.235261691635889170e-01,1.701840472636792390e+00,4.859698034656008137e-01,4.949785605087334700e-02,8.098134693069496404e-01
5.466666666666666785e+00,1.644628887825985193e+09,2.716405919172709127e-01,1.025386781421133042e+00,8.105854598209155659e-01,1.669790746221785138e+00,5.689179905560770578e-01,6.310310153615254769e-02,8.227799700212905520e-01
5.483333333333333393e+00,1.644628887842925310e+09,2.802814723858715884e-01,9.513010216513395623e-01,7.011212046561884348e-01,1.701840472636792390e+00,6.591506003604259423e-01,7.692489463810578409e-02,8.357990372862000861e-01
5.500000000000000000e+00,1.644628887860869884e+09,2.883936788569155252e-01,8.703124199377697545e-01,6.038196445097645526e-01,1.669790746221785138e+00,7.558406282936007692e-01,9.096404268323141085e-02,8.488624400449306107e-01
5.516666666666666607e+00,1.644628887877825022e+09,2.959615326990239215e-01,4.254601181591980974e-01,0.000000000000000000e+00,1.701840472636792390e+00,8.580639455867937748e-01,1.051717856976628063e-01,8.560467647595990659e-01
5.533333333333333215e+00,1.644628887893788815e+09,3.029729912697839422e-01,4.174476865554462846e-01,0.000000000000000000e+00,1.669790746221785138e+00,9.648086315838746430e-01,1.195119121030656650e-01,8.647442436565182522e-01
5.549999999999999822e+00,1.644628887910885334e+09,3.094197061467820475e-01,4.254601181591980974e-01,0.000000000000000000e+00,1.701840472636792390e+00,1.074985302334183102e+00,1.340121195277489130e-01,8.752514599067247048e-01
5.566666666666666430e+00,1.644628887928361893e+09,3.152970552694517314e-01,4.254601181591980974e-01,0.000000000000000000e+00,1.701840472636792390e+00,1.187438331606734288e+00,1.487015280298316089e-01,8.874436922340742662e-01
5.583333333333333037e+00,1.644628887946177721e+09,3.206041488063925970e-01,4.174476865554462846e-01,0.000000000000000000e+00,1.669790746221785138e+00,1.300957851072056526e+00,1.636070290984446007e-01,9.011782834592529934e-01
5.599999999999999645e+00,1.644628887964311123e+09,3.253438087591208339e-01,4.174476865554462846e-01,0.000000000000000000e+00,1.669790746221785138e+00,1.414292408148850821e+00,1.787551968177915063e-01,9.165591173183110785e-01
5.616666666666666252e+00,1.644628887978960514e+09,3.295225225092985877e-01,4.174476865554462846e-01,0.000000000000000000e+00,1.669790746221785138e+00,1.526162152979437803e+00,1.941730388646513150e-01,9.335347725970326582e-01
5.633333333333332860e+00,1.644628887996802568e+09,3.331503707107896783e-01,4.174476865554462846e-01,0.000000000000000000e+00,1.669790746221785138e+00,1.635272420250835523e+00,2.098865341780707383e-01,9.520332790637179299e-01
5.650000000000000355e+00,1.644628888014250755e+09,3.362409301189193123e-01,4.174476865554462846e-01,0.000000000000000000e+00,1.669790746221785138e+00,1.740327567177440971e+00,2.259202931789711932e-01,9.719624409583655922e-01
5.666666666666666963e+00,1.644628888030972958e+09,3.388111521356644840e-01,4.174476865554462846e-01,0.000000000000000000e+00,1.669790746221785138e+00,1.840044925952490917e+00,2.422972252636809154e-01,9.932103857487881715e-01
5.683333333333333570e+00,1.644628888048176289e+09,3.408812180295891503e-01,4.094352549516950823e-01,0.000000000000000000e+00,1.637741019806780329e+00,1.933168727389637631e+00,2.590371106096972520e-01,1.015513900108460765e+00
5.700000000000000178e+00,1.644628888065931559e+09,3.424743719619947058e-01,-9.174386249351910994e-02,-6.682388232602854972e-01,1.637741019806780329e+00,2.018483852332389361e+00,2.760882012803607122e-01,1.030575142601778404e+00
5.716666666666666785e+00,1.644628888081901789e+09,3.436167331144003856e-01,-2.641990766802365664e-01,-8.981791088425755687e-01,1.637741019806780329e+00,2.094829268709774706e+00,2.933749576596884068e-01,1.043798889422943077e+00
5.733333333333333393e+00,1.644628888099181414e+09,3.443370883661055482e-01,-4.584381073958029851e-01,-1.157164483129997423e+00,1.637741019806780329e+00,2.161111014851088363e+00,3.108626098248672420e-01,1.054689119048685564e+00
5.750000000000000000e+00,1.644628888115306139e+09,3.446666671128089110e-01,-6.705173193629422324e-01,-1.418570281476179806e+00,1.573641566976770489e+00,2.216314593815743805e+00,3.285085939124852139e-01,1.062806422868614264e+00
5.766666666666666607e+00,1.644628888134122610e+09,3.446388999471453052e-01,-1.006351157516024220e+00,-1.866348732346955641e+00,1.573641566976770489e+00,2.259516649006064526e+00,3.462483267831704681e-01,1.065952781522762960e+00
5.783333333333333215e+00,1.644628888150070906e+09,3.442891630384909418e-01,-1.099840036785665998e+00,-1.991000571373144679e+00,1.573641566976770489e+00,2.289895798158507745e+00,3.640313476407172066e-01,1.068004023354763632e+00
5.799999999999999822e+00,1.644628888166628599e+09,3.436545101515730005e-01,-1.503748301591398828e+00,-2.529544924447455490e+00,1.573641566976770489e+00,2.306742510886630626e+00,3.817948114088797751e-01,1.063623796408188271e+00
5.816666666666666430e+00,1.644628888184465885e+09,3.427733943306112696e-01,-1.535516367362636858e+00,-2.571902345475772567e+00,1.573641566976770489e+00,2.309467924196929367e+00,3.994818650080815270e-01,1.058835935422891339e+00
5.833333333333333037e+00,1.644628888202603579e+09,3.416853813471747436e-01,-1.635202360191959192e+00,-2.694133760443199854e+00,1.541591840561763238e+00,2.297611500727576583e+00,4.170743759317476762e-01,1.052283576841485546e+00
5.849999999999999645e+00,1.644628888217807293e+09,3.404308570651735089e-01,-1.400275173079368329e+00,-2.391580753098081491e+00,1.573641566976770489e+00,2.270847445767366857e+00,4.345873374897740726e-01,1.049280153161592510e+00
5.866666666666666252e+00,1.644628888235328913e+09,3.390507309150284088e-01,-1.403749309572943638e+00,-2.385529692951179559e+00,1.541591840561763238e+00,2.228989811287504175e+00,4.520443955740200970e-01,1.045577103439255806e+00
5.883333333333332860e+00,1.644628888251420736e+09,3.375861376907347555e-01,-1.486346280578160872e+00,-2.495658987624802094e+00,1.541591840561763238e+00,2.171996228141807705e+00,4.694209673129782212e-01,1.039628030826358573e+00
5.900000000000000355e+00,1.644628888269158363e+09,3.360781398882236592e-01,-1.373796561845777031e+00,-2.345592695981623788e+00,1.541591840561763238e+00,2.099970221133881765e+00,4.867048066858826183e-01,1.034447085774922614e+00
5.916666666666666963e+00,1.644628888286628485e+09,3.345674327909923806e-01,-1.812195869488853806e+00,-2.930125106172392968e+00,1.541591840561763238e+00,2.013162075679493235e+00,5.038304706538269118e-01,1.020670858576822271e+00
5.933333333333333570e+00,1.644628888302742004e+09,3.330940544796520131e-01,-1.902054112670353847e+00,-3.049936097081059394e+00,1.541591840561763238e+00,1.911968239169090200e+00,5.207020454059341219e-01,1.003964519266360655e+00
5.950000000000000178e+00,1.644628888318699360e+09,3.316971028960498669e-01,-1.844715094687559676e+00,-2.962800830965665710e+00,1.509542114146758207e+00,1.796929254717432922e+00,5.372895191092958989e-01,9.865806148968301326e-01
5.966666666666666785e+00,1.644628888337568998e+09,3.304144620303118840e-01,-1.842899776643489362e+00,-2.960380406906904849e+00,1.509542114146758207e+00,1.668726239629675145e+00,5.535722054149315730e-01,9.673950363076307957e-01
5.983333333333333393e+00,1.644628888355828285e+09,3.292825392211091162e-01,-1.859237639040125512e+00,-2.982164223435753492e+00,1.509542114146758207e+00,1.528175935470391433e+00,5.695161125272544256e-01,9.459334341358124343e-01
6.000000000000000000e+00,1.644628888374380112e+09,3.283360154662466335e-01,-1.978140970926756781e+00,-3.140701999284595036e+00,1.509542114146758207e+00,1.376224370949428844e+00,5.850678799438070454e-01,9.203497233863043858e-01
6.016666666666666607e+00,1.644628888390395164e+09,3.276076105331287569e-01,-2.154226821201616016e+00,-3.375483132984407497e+00,1.509542114146758207e+00,1.213939192793624500e+00,6.001500498408112172e-01,8.895960930158337554e-01
6.033333333333333215e+00,1.644628888408015490e+09,3.271278645375432781e-01,-2.099767279879495074e+00,-3.302870411221579428e+00,1.509542114146758207e+00,1.042500733216423559e+00,6.147077497518542710e-01,8.574172839937395096e-01
6.049999999999999822e+00,1.644628888424292326e+09,3.269249375256232382e-01,-2.134258322716838574e+00,-3.348858468338037131e+00,1.509542114146758207e+00,8.631918953952557594e-01,6.287040505861576367e-01,8.222365427040764230e-01
6.066666666666666430e+00,1.644628888440888405e+09,3.270244284487457964e-01,-1.978140970926756781e+00,-3.140701999284595036e+00,1.509542114146758207e+00,6.773869503901800426e-01,6.421147644486530082e-01,7.871465951659715188e-01
6.083333333333333037e+00,1.644628888459040403e+09,3.274492147657288021e-01,-1.832007868379064597e+00,-2.945857862554338347e+00,1.509542114146758207e+00,4.865393500663259818e-01,6.549393165044986587e-01,7.518975678049135691e-01
6.099999999999999645e+00,1.644628888476201057e+09,3.282193137422194651e-01,-1.469851918586957851e+00,-2.462983262831529796e+00,1.509542114146758207e+00,2.921686707066687427e-01,6.672044279695128477e-01,7.200044022085612117e-01
6.116666666666666252e+00,1.644628888494153500e+09,3.293517663449317401e-01,-1.314642225818911880e+00,-2.256037005807468354e+00,1.509542114146758207e+00,9.584681101622294364e-02,6.789367133415247224e-01,6.879588599231711843e-01
6.133333333333332860e+00,1.644628888511197090e+09,3.308605444497272896e-01,-1.251106094276436709e+00,-2.171322163750835088e+00,1.509542114146758207e+00,-1.008164239644794846e-01,6.901209449064501511e-01,6.542425863875638292e-01
6.150000000000000355e+00,1.644628888528096437e+09,3.327564818989302009e-01,-1.319180520929088329e+00,-2.262088065954370730e+00,1.509542114146758207e+00,-2.961882149816634779e-01,7.007115081646030363e-01,6.167292108642317139e-01
6.166666666666666963e+00,1.644628888544745684e+09,3.350472297560532775e-01,-1.260182684496790495e+00,-2.183424284044639840e+00,1.509542114146758207e+00,-4.886279534786088230e-01,7.106635988014156080e-01,5.776302762611624786e-01
6.183333333333333570e+00,1.644628888562131882e+09,3.377372359169048543e-01,-1.473482554675099143e+00,-2.467824110949051963e+00,1.509542114146758207e+00,-6.765026522530697140e-01,7.199140304608953045e-01,5.325467578195466345e-01
6.200000000000000178e+00,1.644628888578726053e+09,3.408277490462279236e-01,-1.422653649441119050e+00,-2.400052237303744729e+00,1.509542114146758207e+00,-8.582023924666756232e-01,7.284012211593824393e-01,4.860452997559295829e-01
6.216666666666666785e+00,1.644628888597193241e+09,3.443168466201252942e-01,-1.715827513558538575e+00,-2.790950722793637429e+00,1.509542114146758207e+00,-1.032155656720474601e+00,7.360552905293463732e-01,4.325915108813154775e-01
6.233333333333333393e+00,1.644628888613879204e+09,3.481994866680437339e-01,-2.904704332830288838e+00,-4.365436573017636768e+00,1.477492387731753398e+00,-1.196844398497000750e+00,7.426388913313757278e-01,3.576487645571646001e-01
6.250000000000000000e+00,1.644628888631165504e+09,3.524675826254696220e-01,-3.176250880013427036e+00,-4.738181878066821895e+00,1.509542114146758207e+00,-1.350818700327528710e+00,7.479250243388640973e-01,2.769114718773270090e-01
6.266666666666666607e+00,1.644628888647269964e+09,3.571101005311642651e-01,-3.678186319198979426e+00,-5.407429130314225674e+00,1.509542114146758207e+00,-1.492710876555666921e+00,7.517877614853466506e-01,1.868671148016003980e-01
6.283333333333333215e+00,1.644628888664030790e+09,3.621131776321093176e-01,-4.175583463274354479e+00,-6.070625322414725744e+00,1.509542114146758207e+00,-1.621248881504619099e+00,7.540757418436557780e-01,8.796526203030843871e-02
6.299999999999999822e+00,1.644628888681982517e+09,3.674602612967060589e-01,-4.094801810313207113e+00,-5.962916451799862294e+00,1.509542114146758207e+00,-1.735268890166546507e+00,7.547244274640895201e-01,-9.851268598121229458e-03
6.316666666666666430e+00,1.644628888698939800e+09,3.731322669833988526e-01,-4.111890832137312657e+00,-5.975018572093667046e+00,1.477492387731753398e+00,-1.833726926161537651e+00,7.537403886247868723e-01,-1.079608590637994164e-01
6.333333333333333037e+00,1.644628888715895176e+09,3.791077538690061366e-01,-4.327913679381727441e+00,-6.263049035086220684e+00,1.477492387731753398e+00,-1.915709420585128830e+00,7.510935802434912656e-01,-2.093744356819514651e-01
6.349999999999999645e+00,1.644628888733366966e+09,3.853631166096968541e-01,-4.327006020359691618e+00,-6.261838823056840475e+00,1.477492387731753398e+00,-1.980442595394026117e+00,7.467617372669438369e-01,-3.101667363012993173e-01
6.366666666666666252e+00,1.644628888749305248e+09,3.918727915888056135e-01,-4.216271619671378090e+00,-6.114192955472422142e+00,1.477492387731753398e+00,-2.027300576071981553e+00,7.407727667392656201e-01,-4.082373023693437464e-01
6.383333333333332860e+00,1.644628888765262842e+09,3.986094759004177313e-01,-4.111890832137312657e+00,-5.975018572093667046e+00,1.477492387731753398e+00,-2.055812150364354274e+00,7.331733114262292128e-01,-5.034328967646684028e-01
6.400000000000000355e+00,1.644628888784618139e+09,4.055443572266846930e-01,-2.981698850108726706e+00,-4.457412687250552175e+00,1.445442661316748589e+00,-2.065666102754823097e+00,7.241551529839385104e-01,-5.785374875367701453e-01
6.416666666666666963e+00,1.644628888800422192e+09,4.126473526908407963e-01,-3.338408845768622069e+00,-4.933026014797079029e+00,1.445442661316748589e+00,-2.056715067954861809e+00,7.138475922044695832e-01,-6.581486586526925642e-01
6.433333333333333570e+00,1.644628888818375111e+09,4.198873547074375434e-01,-3.138723860920843212e+00,-4.666779368333374478e+00,1.445442661316748589e+00,-2.028977860854724202e+00,7.022555861743757788e-01,-7.326850146521914908e-01
6.450000000000000178e+00,1.644628888835332394e+09,4.272324818068717889e-01,-2.544207201487685754e+00,-3.874090489089163203e+00,1.445442661316748589e+00,-1.982640255005167829e+00,6.895201176538611199e-01,-7.953970037398910842e-01
6.466666666666666785e+00,1.644628888852319956e+09,4.346503323831135135e-01,-2.203678568629860557e+00,-3.409369069807060892e+00,1.413392934901741116e+00,-1.918054196619430218e+00,6.758040657697375053e-01,-8.503764979432556492e-01
6.483333333333333393e+00,1.644628888868730307e+09,4.421082393018926360e-01,-2.241800247555344683e+00,-3.460197975041040319e+00,1.413392934901741116e+00,-1.835735456160075607e+00,6.611853872975891333e-01,-9.037167478663643561e-01
6.500000000000000000e+00,1.644628888885575056e+09,4.495735233114647178e-01,-2.307308196736457262e+00,-3.558225149420858990e+00,1.445442661316748589e+00,-1.736359734657082932e+00,6.456897498756024589e-01,-9.556155759676032702e-01
6.516666666666666607e+00,1.644628888903862715e+09,4.570137432194508187e-01,-1.966779563878631842e+00,-3.093503730138756236e+00,1.413392934901741116e+00,-1.620757256845557936e+00,6.293993013338970988e-01,-9.991174077713010915e-01
6.533333333333333215e+00,1.644628888919763327e+09,4.643969408368077700e-01,-1.602808296042454561e+00,-2.608208706357186379e+00,1.413392934901741116e+00,-1.489905897866151907e+00,6.124581759049629870e-01,-1.033721518907510406e+00
6.549999999999999822e+00,1.644628888937377214e+09,4.716918787435451788e-01,-1.619146158439090710e+00,-2.629992522886034578e+00,1.413392934901741116e+00,-1.344922904497142913e+00,5.949628633572020542e-01,-1.065627357408686748e+00
6.566666666666666430e+00,1.644628888955371380e+09,4.788682689997414421e-01,-1.330510589431847635e+00,-2.245145097543043811e+00,1.413392934901741116e+00,-1.187055285542229388e+00,5.770018649278689793e-01,-1.089625790228921698e+00
6.583333333333333037e+00,1.644628888971168756e+09,4.858969910092918454e-01,-1.162593670355307029e+00,-2.021255872107656781e+00,1.413392934901741116e+00,-1.017668958951116531e+00,5.586907957863105345e-01,-1.107652431575803620e+00
6.599999999999999645e+00,1.644628888989153147e+09,4.927502968417749596e-01,-1.148071126002741194e+00,-2.001892479637568556e+00,1.413392934901741116e+00,-8.382367553715451836e-01,5.401085615975639298e-01,-1.122175328743295175e+00
6.616666666666666252e+00,1.644628889006114006e+09,4.994020024292178950e-01,-8.176832419818715891e-01,-1.561375300943075972e+00,1.413392934901741116e+00,-6.503253890039718543e-01,5.213578727835757043e-01,-1.127891450445737798e+00
6.633333333333332860e+00,1.644628889024369478e+09,5.058276631782752109e-01,-6.361514375748004158e-01,-1.319332895066980926e+00,1.413392934901741116e+00,-4.555815167432228918e-01,5.025646761723405742e-01,-1.127293803073136536e+00
6.649999999999999467e+00,1.644628889039060354e+09,5.120047326735265303e-01,-3.293626881268501005e-01,-9.102812291363804320e-01,1.413392934901741116e+00,-2.557170155449472460e-01,4.838513370030801397e-01,-1.118331792298406180e+00
6.666666666666666963e+00,1.644628889055145025e+09,5.179127032930633812e-01,-1.859525626452636360e-01,-7.190677284942652570e-01,1.413392934901741116e+00,-5.249361566203200602e-02,4.653340040381487297e-01,-1.103788562305263010e+00
6.683333333333333570e+00,1.644628889073307753e+09,5.235332277120844369e-01,-1.759683134028748042e-01,-7.057553961710800738e-01,1.413392934901741116e+00,1.522929662212782476e-01,4.470867137759459431e-01,-1.085935861162753424e+00
6.700000000000000178e+00,1.644628889092083216e+09,5.288502204326509526e-01,-1.505538607858847022e-01,-6.718694593484266786e-01,1.413392934901741116e+00,3.568292449325730087e-01,4.291662636185450408e-01,-1.064577487936241074e+00
6.716666666666666785e+00,1.644628889106515169e+09,5.338499386466522001e-01,7.961307330794286097e-01,5.903766658053243299e-01,1.413392934901741116e+00,5.593003832469427561e-01,4.117575582822096680e-01,-1.024578263994466276e+00
6.733333333333333393e+00,1.644628889125250816e+09,5.385210419131080117e-01,1.165663270556160480e+00,1.072403473635964444e+00,1.445442661316748589e+00,7.579066521414938862e-01,3.950884535808888431e-01,-9.758496605815178970e-01
6.750000000000000000e+00,1.644628889141488552e+09,5.428546303087207203e-01,1.280590048517758150e+00,1.204272693308091613e+00,1.509542114146758207e+00,9.508797795998875646e-01,3.792672891393360501e-01,-9.228373323380043569e-01
6.766666666666666607e+00,1.644628889158389807e+09,5.468442608906770586e-01,1.391825352316317765e+00,1.341903189567836163e+00,1.541591840561763238e+00,1.136499033603053377e+00,3.643633431122586530e-01,-8.657946465456041185e-01
6.783333333333333215e+00,1.644628889175416708e+09,5.504859424915882204e-01,1.605803421927384900e+00,1.616524040244256444e+00,1.573641566976770489e+00,1.313106887338307160e+00,3.504561776734539946e-01,-8.032389759523712591e-01
6.799999999999999822e+00,1.644628889193018913e+09,5.537781090467529532e-01,1.761059136002303349e+00,1.802165174734144282e+00,1.637741019806780329e+00,1.479124118525007692e+00,3.376273409036061879e-01,-7.364070849404016350e-01
6.816666666666666430e+00,1.644628889209825039e+09,5.567215718320794871e-01,1.833075093347518170e+00,1.898186451194431079e+00,1.637741019806780329e+00,1.633064200053217618e+00,3.259343472906588990e-01,-6.669451031041087052e-01
6.833333333333333037e+00,1.644628889227744341e+09,5.593194511656662815e-01,1.609345519195050311e+00,1.599880352324473565e+00,1.637741019806780329e+00,1.773546845810640038e+00,3.153779611441046571e-01,-6.000071775407929131e-01
6.849999999999999645e+00,1.644628889244552851e+09,5.615770882957429322e-01,1.629840716738638617e+00,1.616524040244256444e+00,1.669790746221785138e+00,1.899310583570032129e+00,3.059481629477164844e-01,-5.317581910059269168e-01
6.866666666666666252e+00,1.644628889260395050e+09,5.635019383610582189e-01,1.408991780879978784e+00,1.322058792432710073e+00,1.669790746221785138e+00,2.009224236044374834e+00,2.976310988394736956e-01,-4.664708599489448826e-01
6.883333333333332860e+00,1.644628889279373884e+09,5.651034454655851080e-01,1.415862647127571927e+00,1.341903189567836163e+00,1.637741019806780329e+00,2.102297201602970400e+00,2.904069436886900224e-01,-4.006107073193188595e-01
6.899999999999999467e+00,1.644628889297199726e+09,5.663929010563018007e-01,1.370252540808935882e+00,1.281089714476321140e+00,1.637741019806780329e+00,2.177688437576422054e+00,2.842754744957444735e-01,-3.353468884866173116e-01
6.916666666666666963e+00,1.644628889314225912e+09,5.673832869296258075e-01,1.255987221821194488e+00,1.128735955825999282e+00,1.637741019806780329e+00,2.234714061451254619e+00,2.792148153702053714e-01,-2.721078746398707393e-01
6.933333333333333570e+00,1.644628889332178831e+09,5.680891043177666022e-01,1.324012951212625078e+00,1.208753686209571576e+00,1.669790746221785138e+00,2.272853498446000486e+00,2.752140687903863459e-01,-2.081593538990746672e-01
6.950000000000000178e+00,1.644628889346993446e+09,5.685261906197508486e-01,1.325122540872601062e+00,1.220916381227874714e+00,1.637741019806780329e+00,2.291754117841051652e+00,2.722730621080466373e-01,-1.449370695715073987e-01
6.966666666666666785e+00,1.644628889365094900e+09,5.687115254422935307e-01,1.239663604822945686e+00,1.106971133161667620e+00,1.637741019806780329e+00,2.291234314870217670e+00,2.703651524447078791e-01,-8.418086124661590397e-02
6.983333333333333393e+00,1.644628889380103350e+09,5.686630277022372004e-01,1.275191477113251981e+00,1.154341629548742532e+00,1.637741019806780329e+00,2.271285009831746748e+00,2.694636062951232813e-01,-2.417137364794798293e-02
7.000000000000000000e+00,1.644628889401180983e+09,5.683993456142154566e-01,1.274231264348649084e+00,1.153061345862605336e+00,1.637741019806780329e+00,2.232069551196654178e+00,2.695483806480327704e-01,3.418219892489758605e-02
7.016666666666666607e+00,1.644628889417105675e+09,5.679396414440419649e-01,1.264959866189548698e+00,1.130016239512136478e+00,1.669790746221785138e+00,2.173922024735240655e+00,2.705883427837538213e-01,9.045693497125634197e-02
7.033333333333333215e+00,1.644628889432956219e+09,5.673033729494737498e-01,1.327523072784108304e+00,1.224117090443217704e+00,1.637741019806780329e+00,2.097343985900653518e+00,2.725565087566699796e-01,1.455698866430861771e-01
7.049999999999999822e+00,1.644628889449911118e+09,5.665100734553326634e-01,1.291515094111500783e+00,1.176106452213074194e+00,1.637741019806780329e+00,2.002999647753211931e+00,2.754176073686907533e-01,1.976173670621439726e-01
7.066666666666666430e+00,1.644628889467251062e+09,5.655791325190611119e-01,1.313599987697366522e+00,1.205552976994228809e+00,1.637741019806780329e+00,1.891709571434750714e+00,2.791266540993803114e-01,2.473301463169897407e-01
7.083333333333333037e+00,1.644628889483609438e+09,5.645295791357516357e-01,1.261268392026510199e+00,1.135777516099753637e+00,1.637741019806780329e+00,1.764442920465780773e+00,2.836325745976677748e-01,2.932527476935737898e-01
7.099999999999999645e+00,1.644628889499756336e+09,5.633798694085259129e-01,1.128759030511314432e+00,9.590983674128259473e-01,1.637741019806780329e+00,1.622308353800359537e+00,2.888595949765490611e-01,3.338768503865537363e-01
7.116666666666666252e+00,1.644628889517887592e+09,5.621476805709616498e-01,1.097072009279419724e+00,9.168490057702995966e-01,1.637741019806780329e+00,1.466543645503272320e+00,2.947321817858969406e-01,3.707311911569174390e-01
7.133333333333332860e+00,1.644628889535784960e+09,5.608497131935745728e-01,1.097402738766348085e+00,9.066067362812023633e-01,1.669790746221785138e+00,1.298504130984155402e+00,3.011907532470772253e-01,4.042044008582455494e-01
7.149999999999999467e+00,1.644628889551796436e+09,5.595015033363939239e-01,1.002341675070664184e+00,7.798586513536237552e-01,1.669790746221785138e+00,1.119650090818125054e+00,3.081647549093657346e-01,4.325969286274368719e-01
7.166666666666666963e+00,1.644628889568753958e+09,5.581172463251875548e-01,9.722443498810469098e-01,7.504121265724690293e-01,1.637741019806780329e+00,9.315331931947439248e-01,3.155779039203673864e-01,4.569134053343650859e-01
7.183333333333333570e+00,1.644628889584601641e+09,5.567096337304184850e-01,9.000790156404586684e-01,6.435084387800164007e-01,1.669790746221785138e+00,7.357821248688524163e-01,3.233559641920501493e-01,4.763996974045042188e-01
7.200000000000000178e+00,1.644628889601177454e+09,5.552897050164958825e-01,8.363742436897410037e-01,5.692519849840612656e-01,1.637741019806780329e+00,5.340875480552533805e-01,3.314194474513734168e-01,4.911772440075974910e-01
7.216666666666666785e+00,1.644628889619253397e+09,5.538667152050924525e-01,8.306129671021237337e-01,5.615702828672383129e-01,1.637741019806780329e+00,3.281865269385134121e-01,3.396979471697988973e-01,5.022120691898492861e-01
7.233333333333333393e+00,1.644628889637113094e+09,5.524480197613457211e-01,4.094352549516950823e-01,0.000000000000000000e+00,1.637741019806780329e+00,1.198465723035354036e-01,3.480718872114540452e-01,5.026594929357812713e-01
7.250000000000000000e+00,1.644628889654550314e+09,5.510389777666721001e-01,4.174476865554462846e-01,0.000000000000000000e+00,1.669790746221785138e+00,-8.915054381762010927e-02,3.564254624122392690e-01,4.997775367806264746e-01
7.266666666666666607e+00,1.644628889670664787e+09,5.496428742879171381e-01,4.174476865554462846e-01,0.000000000000000000e+00,1.669790746221785138e+00,-2.970250496709125887e-01,3.647026913371889112e-01,4.935073518037524365e-01
7.283333333333333215e+00,1.644628889686860323e+09,5.482608626908458405e-01,4.094352549516950823e-01,0.000000000000000000e+00,1.637741019806780329e+00,-5.020153572410643861e-01,3.728468631756513552e-01,4.838201782604671930e-01
7.299999999999999822e+00,1.644628889704773903e+09,5.468919274779242556e-01,4.094352549516950823e-01,0.000000000000000000e+00,1.637741019806780329e+00,-7.023940144818936471e-01,3.808032437188478281e-01,4.709811517251007440e-01
7.316666666666666430e+00,1.644628889721514702e+09,5.455328680572398836e-01,4.094352549516950823e-01,0.000000000000000000e+00,1.637741019806780329e+00,-8.964832757021601317e-01,3.885206061136015632e-01,4.551463223178392470e-01
7.333333333333333037e+00,1.644628889736907959e+09,5.441783036727281253e-01,4.094352549516950823e-01,0.000000000000000000e+00,1.637741019806780329e+00,-1.082670143501412330e+00,3.959505255763574594e-01,4.364958213792547448e-01
7.349999999999999645e+00,1.644628889755116940e+09,5.428206995469986307e-01,4.094352549516950823e-01,0.000000000000000000e+00,1.637741019806780329e+00,-1.259420741073424388e+00,4.030477664925692372e-01,4.152321556943475156e-01
7.366666666666666252e+00,1.644628889771712780e+09,5.414504141084847122e-01,-7.071120539213886225e-02,-6.295120383201102676e-01,1.605691293391775298e+00,-1.425293880478448738e+00,4.097043213793510885e-01,3.836421827097225568e-01
7.383333333333332860e+00,1.644628889787669897e+09,5.400557669957956053e-01,-1.967193098604865242e-01,-7.868396021395721585e-01,1.573641566976770489e+00,-1.578953700562559570e+00,4.158001120659348682e-01,3.479518418494213505e-01
7.399999999999999467e+00,1.644628889805619717e+09,5.386231273554892285e-01,-5.053233773525074302e-01,-1.198311692128933403e+00,1.573641566976770489e+00,-1.719181257490265180e+00,4.212440004579494635e-01,3.054328762100271821e-01
7.416666666666666963e+00,1.644628889823457241e+09,5.371370217765012445e-01,-4.915519924274104890e-01,-1.169266603423801731e+00,1.541591840561763238e+00,-1.844884961265666146e+00,4.259696520156601163e-01,2.617666087574319622e-01
7.433333333333333570e+00,1.644628889839201689e+09,5.355802610364676086e-01,-5.240712176261167476e-01,-1.201942328217074918e+00,1.509542114146758207e+00,-1.955109763042322868e+00,4.299538477795785685e-01,2.164627299823728146e-01
7.450000000000000178e+00,1.644628889856308699e+09,5.339340846736392310e-01,-8.998420527487538401e-01,-1.702970108380591263e+00,1.509542114146758207e+00,-2.049045010350661666e+00,4.331243602531126280e-01,1.641440997905151689e-01
7.466666666666666785e+00,1.644628889875490904e+09,5.321783222442599826e-01,-1.190136440205501023e+00,-2.079346049517919237e+00,1.477492387731753398e+00,-2.126030900482776431e+00,4.353793928968871518e-01,1.066196114686027152e-01
7.483333333333333393e+00,1.644628889890253067e+09,5.302915699804476857e-01,-1.332482407070484820e+00,-2.258457429866229216e+00,1.445442661316748589e+00,-2.185563476036801678e+00,4.366557458146493875e-01,4.670916049905238232e-02
7.500000000000000000e+00,1.644628889907382488e+09,5.282513814289832021e-01,-1.416738196525206828e+00,-2.360115240334189401e+00,1.413392934901741116e+00,-2.227298120902953649e+00,4.369244642159799685e-01,-1.429349652608084137e-02
7.516666666666666607e+00,1.644628889925331593e+09,5.260344705280223243e-01,-1.538364505477944677e+00,-2.522283652271173349e+00,1.413392934901741116e+00,-2.251051529629136017e+00,4.361648174651724386e-01,-7.669078369372463178e-02
7.533333333333333215e+00,1.644628889943292379e+09,5.236169254677346396e-01,-1.377708858577686213e+00,-2.308076123070828878e+00,1.413392934901741116e+00,-2.256802137991463564e+00,4.343952298338915607e-01,-1.354963793385962345e-01
7.549999999999999822e+00,1.644628889960245132e+09,5.209744315829990535e-01,-1.188915781994332566e+00,-2.056352020959690385e+00,1.413392934901741116e+00,-2.244689017568424649e+00,4.316814204642525077e-01,-1.900093166283364776e-01
7.566666666666666430e+00,1.644628889976562262e+09,5.180825014425507469e-01,-1.293296569528398443e+00,-2.195526404338444593e+00,1.413392934901741116e+00,-2.215009252029667586e+00,4.280562737514516103e-01,-2.448559336081700399e-01
7.583333333333333037e+00,1.644628889992182970e+09,5.149167102298742860e-01,-1.458334011944265818e+00,-2.404893085421266452e+00,1.381343208486736307e+00,-2.168213827554597906e+00,4.235082605512403009e-01,-3.007503843996064408e-01
7.599999999999999645e+00,1.644628890010134220e+09,5.114529344574834102e-01,-1.288758274418221772e+00,-2.189475344191542661e+00,1.413392934901741116e+00,-2.104902084149298247e+00,4.180685598756751498e-01,-3.518716897001666344e-01
7.616666666666666252e+00,1.644628890026451588e+09,5.076675920182748269e-01,-1.072735427173806544e+00,-1.901444881198989245e+00,1.413392934901741116e+00,-2.025814788491365981e+00,4.118246591054859351e-01,-3.972702925243969951e-01
7.633333333333332860e+00,1.644628890042787075e+09,5.035378815558743115e-01,-9.981508877723404005e-01,-1.791315586525365822e+00,1.381343208486736307e+00,-1.931825902166091069e+00,4.048536688782422566e-01,-4.391322487961271670e-01
7.649999999999999467e+00,1.644628890060201406e+09,4.990420191304351660e-01,-1.050795111050391029e+00,-1.861507884229433696e+00,1.381343208486736307e+00,-1.823933131635191662e+00,3.971983923310052345e-01,-4.793891096269831675e-01
7.666666666666666963e+00,1.644628890077649832e+09,4.941594701673589496e-01,-1.104503492945044130e+00,-1.943802302227306100e+00,1.413392934901741116e+00,-1.703247357879113855e+00,3.888869793517426010e-01,-5.178735441614564783e-01
7.683333333333333570e+00,1.644628890095194817e+09,4.888711747036919575e-01,-8.846935100179208478e-01,-1.640039082852806418e+00,1.381343208486736307e+00,-1.570981054263312693e+00,3.799881035719124833e-01,-5.499025777863135733e-01
7.700000000000000178e+00,1.644628890112150192e+09,4.831597639905506614e-01,-8.075424931449157739e-01,-1.537171060355466468e+00,1.381343208486736307e+00,-1.428435810695625641e+00,3.705901789882214414e-01,-5.777709582666314958e-01
7.716666666666666785e+00,1.644628890128958464e+09,4.770097665692297206e-01,-6.759319349497892038e-01,-1.361690316095297781e+00,1.381343208486736307e+00,-1.276989090472523625e+00,3.607707266036750959e-01,-6.005001896391236604e-01
7.733333333333333393e+00,1.644628890146285772e+09,4.704078020135744609e-01,-5.025690617410361050e-01,-1.130539818483626835e+00,1.381343208486736307e+00,-1.118080353279279571e+00,3.506214865896549737e-01,-6.173617732087754995e-01
7.750000000000000000e+00,1.644628890163937092e+09,4.633427606207764504e-01,-2.520551716592777103e-01,-7.965212983746157160e-01,1.381343208486736307e+00,-9.531966835418239636e-01,3.402509240313770777e-01,-6.270787415705159074e-01
7.766666666666666607e+00,1.644628890182796001e+09,4.558059674366805591e-01,-2.938074866729041834e-01,-8.521910517261176432e-01,1.381343208486736307e+00,-7.838580676759161481e-01,3.297373763964577265e-01,-6.345262865080768533e-01
7.783333333333333215e+00,1.644628890198626041e+09,4.477913291189343226e-01,3.453358021216840767e-01,0.000000000000000000e+00,1.381343208486736307e+00,-6.116024666986014102e-01,3.192128024907218697e-01,-6.284394903452895642e-01
7.799999999999999822e+00,1.644628890215524197e+09,4.392954622709647761e-01,-1.440437480370702350e-01,-6.525060668783390083e-01,1.381343208486736307e+00,-4.379708321331148291e-01,3.087452232167251509e-01,-6.276721540741292404e-01
7.816666666666666430e+00,1.644628890234287739e+09,4.303178020210363663e-01,-3.990959332290055506e-01,-9.925756471342527254e-01,1.381343208486736307e+00,-2.644922131396373333e-01,2.982790599140462406e-01,-6.282657932109276810e-01
7.833333333333333037e+00,1.644628890251353979e+09,4.208606897721272611e-01,-4.116466599429335904e-01,-9.986267072811553236e-01,1.349293482071731276e+00,-9.266910134149486389e-02,2.878250834007879400e-01,-6.262170793857432249e-01
7.849999999999999645e+00,1.644628890267337799e+09,4.109294392091215609e-01,-4.370611125599234148e-01,-1.032512644103808386e+00,1.349293482071731276e+00,7.603684309079783432e-02,2.774247606409214750e-01,-6.218338277836955585e-01
7.866666666666666252e+00,1.644628890283625126e+09,4.005323798184698969e-01,-5.450725361821308068e-01,-1.176527875600084982e+00,1.349293482071731276e+00,2.402185448583471494e-01,2.671046449243688614e-01,-6.165946119225393929e-01
7.883333333333332860e+00,1.644628890301425934e+09,3.896808773507276502e-01,-5.550567854245196386e-01,-1.189840207923269944e+00,1.349293482071731276e+00,3.985366129074985331e-01,2.568916137701278135e-01,-6.089902503102486708e-01
7.899999999999999467e+00,1.644628890316916466e+09,3.783893308368363462e-01,-6.066368500859681268e-01,-1.247930385333533065e+00,1.317243755656726467e+00,5.497316592121010981e-01,2.468180305288408816e-01,-5.998650869168595801e-01
7.916666666666666963e+00,1.644628890335965395e+09,3.666751459533123536e-01,-6.365895978131346222e-01,-1.287867382303088393e+00,1.317243755656726467e+00,6.926357186593559145e-01,2.369108738635235800e-01,-5.890238282374385959e-01
7.933333333333333570e+00,1.644628890351043463e+09,3.545586847181156909e-01,-8.388410601324520766e-01,-1.546852756590509914e+00,1.285194029241721658e+00,8.261826611290865596e-01,2.271734179402418174e-01,-5.794973456308796234e-01
7.950000000000000178e+00,1.644628890368938684e+09,3.420631916864366184e-01,-6.200952358219312677e-01,-1.255191657509815650e+00,1.285194029241721658e+00,9.494174973114408722e-01,2.176406554640041013e-01,-5.644758787964834212e-01
7.966666666666666785e+00,1.644628890385484695e+09,3.292146970025295882e-01,-2.579392860298242440e-01,-7.723170577870062115e-01,1.285194029241721658e+00,1.061504491216636925e+00,2.084216786678622368e-01,-5.418641485805613112e-01
7.983333333333333393e+00,1.644628890403356791e+09,3.160418968484741131e-01,-2.234482431924809387e-01,-7.263290006705483970e-01,1.285194029241721658e+00,1.161734004577670731e+00,1.995950485689695075e-01,-5.173994224585820589e-01
8.000000000000000000e+00,1.644628890420913219e+09,3.025760120119520002e-01,-2.152793119941623368e-01,-7.154370924061236314e-01,1.285194029241721658e+00,1.249528011310266251e+00,1.911860392741337178e-01,-4.917529348418112067e-01
8.016666666666665719e+00,1.644628890436871052e+09,2.888506254712865373e-01,-1.671733838262886573e-01,-6.512958548489587995e-01,1.285194029241721658e+00,1.324444233742718469e+00,1.832179210147363846e-01,-4.644969690838067211e-01
8.033333333333333215e+00,1.644628890454089880e+09,2.749015000658036056e-01,-4.013494115114105698e-01,-9.635305584291211645e-01,1.285194029241721658e+00,1.386178866326456482e+00,1.756764865521806551e-01,-4.405417103743335394e-01
8.050000000000000711e+00,1.644628890469463825e+09,2.607663774815336399e-01,-5.384059238387494117e-01,-1.146272574865573102e+00,1.285194029241721658e+00,1.434567866845791073e+00,1.685187508881900720e-01,-4.184479423268922527e-01
8.066666666666666430e+00,1.644628890486544132e+09,2.464847599352389951e-01,-3.668583686740669592e-01,-9.175425013126632390e-01,1.285194029241721658e+00,1.469586809619194412e+00,1.617547241571559158e-01,-3.933051082467726722e-01
8.083333333333333925e+00,1.644628890504466057e+09,2.320976760823133811e-01,-2.143716529721272634e-01,-7.142268803767435337e-01,1.285194029241721658e+00,1.491349309680533031e+00,1.554303393086282903e-01,-3.656977624531049798e-01
8.099999999999999645e+00,1.644628890520426989e+09,2.176474328054147644e-01,-4.303945002165419642e-01,-1.002257343369296505e+00,1.285194029241721658e+00,1.500104041301253854e+00,1.495336357740680855e-01,-3.419725665671329295e-01
8.116666666666667140e+00,1.644628890536940813e+09,2.031773546592061941e-01,-4.558089528335318996e-01,-1.036143280191949678e+00,1.285194029241721658e+00,1.496230388321520222e+00,1.440250299472878304e-01,-3.191236034822195755e-01
8.133333333333332860e+00,1.644628890553397417e+09,1.887315128519664043e-01,-4.485476806572488706e-01,-1.026461583956905788e+00,1.285194029241721658e+00,1.480232777458653226e+00,1.388928775942819827e-01,-2.967966995158569654e-01
8.150000000000000355e+00,1.644628890572566748e+09,1.743544457355638011e-01,-4.331174772826479891e-01,-1.005887979457437797e+00,1.285194029241721658e+00,1.452733758918411722e+00,1.341280895534931739e-01,-2.750383067811387749e-01
8.166666666666666075e+00,1.644628890587925911e+09,1.600908728512440982e-01,-4.276715231504360504e-01,-9.986267072811553236e-01,1.285194029241721658e+00,1.414465911118157671e+00,1.297184027352243918e-01,-2.541820468300746150e-01
8.183333333333333570e+00,1.644628890603206158e+09,1.459854046386936943e-01,-2.488626958094707353e-01,-7.602149374932014592e-01,1.285194029241721658e+00,1.366262658017656229e+00,1.256714788795247617e-01,-2.315117902709052378e-01
8.199999999999999289e+00,1.644628890621717930e+09,1.320822499598130750e-01,3.212985073104304146e-01,0.000000000000000000e+00,1.285194029241721658e+00,1.309048098325141574e+00,1.220701098523326450e-01,-2.007379778164535833e-01
8.216666666666666785e+00,1.644628890637090206e+09,1.184249236159305024e-01,3.212985073104304146e-01,0.000000000000000000e+00,1.285194029241721658e+00,1.243825955599582755e+00,1.189683786901527124e-01,-1.715508389391067756e-01
8.233333333333332504e+00,1.644628890653962612e+09,1.050559560477103138e-01,3.212985073104304146e-01,0.000000000000000000e+00,1.285194029241721658e+00,1.171667766905602370e+00,1.163391019753826777e-01,-1.440387909874028538e-01
8.250000000000000000e+00,1.644628890670457125e+09,9.201660740048633880e-02,3.212985073104304146e-01,0.000000000000000000e+00,1.285194029241721658e+00,1.093700435112753278e+00,1.141537905285795462e-01,-1.182701638335466598e-01
8.266666666666665719e+00,1.644628890686724901e+09,7.934658811444317283e-02,3.293109389141816168e-01,0.000000000000000000e+00,1.317243755656726467e+00,1.011093276089420012e+00,1.123840939643952486e-01,-9.416039701930234429e-02
8.283333333333333215e+00,1.644628890703431606e+09,6.708378815876582524e-02,3.212985073104304146e-01,0.000000000000000000e+00,1.285194029241721658e+00,9.250446968678458504e-01,1.109999050403436271e-01,-7.200382135894611846e-02
8.300000000000000711e+00,1.644628890721069813e+09,5.526401697229951782e-02,3.212985073104304146e-01,0.000000000000000000e+00,1.285194029241721658e+00,8.367686442975801331e-01,1.099697393675840296e-01,-5.167253649271968952e-02
8.316666666666666430e+00,1.644628890738227606e+09,4.392075610037413785e-02,3.212985073104304146e-01,0.000000000000000000e+00,1.285194029241721658e+00,7.474809657339123170e-01,1.092632878166692328e-01,-3.315309372439918800e-02
8.333333333333333925e+00,1.644628890754288912e+09,3.308492642912170406e-02,3.212985073104304146e-01,0.000000000000000000e+00,1.285194029241721658e+00,6.583858238995938805e-01,1.088506298651045479e-01,-1.641236358600077147e-02
8.349999999999999645e+00,1.644628890771148443e+09,2.278467181540126674e-02,3.212985073104304146e-01,0.000000000000000000e+00,1.285194029241721658e+00,5.706623072140153408e-01,1.087025554286172035e-01,-1.398275574105992819e-03
8.366666666666667140e+00,1.644628890788960695e+09,1.304516079295813674e-02,8.817070703282751110e-01,7.472114173571262619e-01,1.285194029241721658e+00,4.854513746086240866e-01,1.088682765728228030e-01,2.122197736397006540e-02
8.383333333333332860e+00,1.644628890805531502e+09,3.888407904957126571e-03,8.836274958574807936e-01,7.497719847294006534e-01,1.285194029241721658e+00,4.038432701686353044e-01,1.093968711100673230e-01,4.215122892716081232e-02
8.400000000000000355e+00,1.644628890824256659e+09,-4.666883929972533152e-03,1.031500261606322466e+00,9.469356723945226983e-01,1.285194029241721658e+00,3.268655378945914958e-01,1.102811878054274775e-01,6.390634222348257065e-02
8.416666666666666075e+00,1.644628890839439631e+09,-1.260545876493342210e-02,1.014696538225772438e+00,9.245307078871226603e-01,1.285194029241721658e+00,2.554717605157212912e-01,1.115129030124764192e-01,8.384409866212519380e-02
8.433333333333333570e+00,1.644628890857554913e+09,-1.991561959602956150e-02,8.264948363636102080e-01,6.735951054042396136e-01,1.285194029241721658e+00,1.905311386757622127e-01,1.130391962032412656e-01,9.926823838868321925e-02
8.449999999999999289e+00,1.644628890875079393e+09,-2.658931604121818337e-02,8.456990916556674787e-01,6.992007791269828632e-01,1.285194029241721658e+00,1.328190180264463560e-01,1.148151092739960605e-01,1.138009604792969837e-01
8.466666666666666785e+00,1.644628890892078638e+09,-3.262220699033423210e-02,9.124338787955668106e-01,7.881804953135151948e-01,1.285194029241721658e+00,8.300846189589194957e-02,1.168335646959995644e-01,1.283732107354844665e-01
8.483333333333332504e+00,1.644628890909866095e+09,-3.801369767602827410e-02,8.730651554468492614e-01,7.356888641818917218e-01,1.285194029241721658e+00,4.166295634548888849e-02,1.190817299395600520e-01,1.413705140217962897e-01
8.500000000000000000e+00,1.644628890926555872e+09,-4.276695080597782417e-02,8.197733470113899301e-01,6.646331196012794651e-01,1.285194029241721658e+00,9.230322702092896847e-03,1.215328814078299319e-01,1.527360903820844662e-01
8.516666666666665719e+00,1.644628890943795919e+09,-4.688887159054826864e-02,3.212985073104304146e-01,0.000000000000000000e+00,1.285194029241721658e+00,-1.396209983168628099e-02,1.240998363871365084e-01,1.552914088607569576e-01
8.533333333333333215e+00,1.644628890960265398e+09,-5.039006669545059020e-02,3.212985073104304146e-01,0.000000000000000000e+00,1.285194029241721658e+00,-2.771095199924977770e-02,1.267071280675693135e-01,1.575772431021771613e-01
8.550000000000000711e+00,1.644628890979270458e+09,-5.328477734438186869e-02,3.212985073104304146e-01,0.000000000000000000e+00,1.285194029241721658e+00,-3.193899686648560277e-02,1.293516172851263968e-01,1.597554123920191527e-01
8.566666666666666430e+00,1.644628890997320890e+09,-5.559078699073579516e-02,3.212985073104304146e-01,0.000000000000000000e+00,1.285194029241721658e+00,-2.669588484726603816e-02,1.320328326555999521e-01,1.619842407292650110e-01
8.583333333333333925e+00,1.644628891016583920e+09,-5.732930416855615274e-02,3.212985073104304146e-01,0.000000000000000000e+00,1.285194029241721658e+00,-1.215753366523664170e-02,1.347528953624650139e-01,1.644165275831531714e-01
8.599999999999999645e+00,1.644628891031035185e+09,-5.852482131968347878e-02,3.212985073104304146e-01,0.000000000000000000e+00,1.285194029241721658e+00,1.137587019138752709e-02,1.375164106803708208e-01,1.671975852236110005e-01
8.616666666666667140e+00,1.644628891045629025e+09,-5.920495057487511203e-02,3.293109389141816168e-01,0.000000000000000000e+00,1.317243755656726467e+00,4.348322776248880750e-02,1.403314342031813933e-01,1.705957978120782592e-01
8.633333333333332860e+00,1.644628891063636303e+09,-5.940023764036674037e-02,3.212985073104304146e-01,0.000000000000000000e+00,1.285194029241721658e+00,8.362720690312208660e-02,1.432070632650266073e-01,1.744689306537922369e-01
8.650000000000000355e+00,1.644628891079362631e+09,-5.914395510635514497e-02,3.212985073104304146e-01,0.000000000000000000e+00,1.285194029241721658e+00,1.311601961696065022e-01,1.461532748620547884e-01,1.790636974480979970e-01
8.666666666666666075e+00,1.644628891097382784e+09,-5.847187664904789084e-02,3.212985073104304146e-01,0.000000000000000000e+00,1.285194029241721658e+00,1.853314717545424539e-01,1.491829134377861410e-01,1.844778918567828441e-01
8.683333333333333570e+00,1.644628891113450289e+09,-5.742203374201708399e-02,3.212985073104304146e-01,0.000000000000000000e+00,1.285194029241721658e+00,2.452955033869634871e-01,1.523103230377317319e-01,1.907937157684604923e-01
8.699999999999999289e+00,1.644628891129838228e+09,-5.603445662449166309e-02,3.212985073104304146e-01,0.000000000000000000e+00,1.285194029241721658e+00,3.101213133270736000e-01,1.555510777980036452e-01,1.980766246854803181e-01
8.716666666666666785e+00,1.644628891147410393e+09,-5.435090139287063193e-02,3.212985073104304146e-01,0.000000000000000000e+00,1.285194029241721658e+00,3.788027916643603721e-01,1.589216947746036612e-01,2.063743626917934615e-01
8.733333333333332504e+00,1.644628891164970398e+09,-5.241456518630459999e-02,3.212985073104304146e-01,0.000000000000000000e+00,1.285194029241721658e+00,4.502698611835904696e-01,1.624393323642304710e-01,2.157161979104003091e-01
8.750000000000000000e+00,1.644628891182924509e+09,-5.026979152672396423e-02,-1.199751146804500512e-01,-5.883648293211739544e-01,1.285194029241721658e+00,5.234003761956849132e-01,1.660605287989303236e-01,2.188187558342876982e-01
8.766666666666665719e+00,1.644628891198894978e+09,-4.796176794768421819e-02,-2.443244006992937312e-01,-7.541638773462988610e-01,1.285194029241721658e+00,5.970326320297818512e-01,1.697260009439976458e-01,2.210317542113951761e-01
