# 
# 
# 
# 
# 
# 
# 
# 
# 
# 
# time,realtime,ref,inp,inp0,inp1,dis,state...
0.000000000000000000e+00,1.644187229187574148e+09,0.000000000000000000e+00,0.000000000000000000e+00,0.000000000000000000e+00,-3.493420179235594003e-01,0.000000000000000000e+00,0.000000000000000000e+00,0.000000000000000000e+00
1.666666666666666644e-02,1.644187229189589262e+09,2.537716967436259765e-06,0.000000000000000000e+00,0.000000000000000000e+00,-3.172922915085532591e-01,0.000000000000000000e+00,0.000000000000000000e+00,0.000000000000000000e+00
3.333333333333333287e-02,1.644187229192580938e+09,1.002728298462691938e-05,0.000000000000000000e+00,0.000000000000000000e+00,-3.172922915085532591e-01,1.534360808770999588e-05,2.119266805092943252e-09,2.536075346567402795e-07
5.000000000000000278e-02,1.644187229207878590e+09,2.232416077884093970e-05,0.000000000000000000e+00,0.000000000000000000e+00,-3.172922915085532591e-01,6.051499343320659153e-05,1.466939173837529221e-08,1.249640633610234277e-06
6.666666666666666574e-02,1.644187229224827290e+09,3.934369752774784788e-05,0.000000000000000000e+00,0.000000000000000000e+00,-3.493420179235594003e-01,1.327691581124119458e-04,5.366227701050187842e-08,3.423467050211639687e-06
8.333333333333332871e-02,1.644187229242791653e+09,6.106724489134100092e-05,0.000000000000000000e+00,0.000000000000000000e+00,-3.172922915085532591e-01,2.274097886478464951e-04,1.416571636824833951e-07,7.125635307670432801e-06
1.000000000000000056e-01,1.644187229261704206e+09,8.754738564290822592e-05,0.000000000000000000e+00,0.000000000000000000e+00,-3.493420179235594003e-01,3.378177501246435203e-04,3.060931120480167850e-07,1.259149519471562488e-05
1.166666666666666685e-01,1.644187229274669647e+09,1.189121701541276881e-04,0.000000000000000000e+00,0.000000000000000000e+00,-3.172922915085532591e-01,4.555294262742111151e-04,5.771301733472452058e-07,1.991261523798658231e-05
1.333333333333333315e-01,1.644187229293626308e+09,1.553682777569048723e-04,0.000000000000000000e+00,0.000000000000000000e+00,-3.493420179235594003e-01,5.703645162415551086e-04,9.850357852066097534e-07,2.901078489681980209e-05
1.499999999999999944e-01,1.644187229311569452e+09,1.972030309646440320e-04,0.000000000000000000e+00,0.000000000000000000e+00,-3.172922915085532591e-01,6.706019737223388151e-04,1.557165761956374831e-06,3.961535448210901658e-05
1.666666666666666574e-01,1.644187229326535225e+09,2.447852045395989846e-04,0.000000000000000000e+00,0.000000000000000000e+00,-3.172922915085532591e-01,7.432018604293217333e-04,2.314601389262352887e-06,5.124461652862506754e-05
1.833333333333333204e-01,1.644187229343485594e+09,2.985645862790907283e-04,0.000000000000000000e+00,0.000000000000000000e+00,-3.172922915085532591e-01,7.740699980696812144e-04,3.268515333773597897e-06,6.319186921860850642e-05
2.000000000000000111e-01,1.644187229362435102e+09,3.590702619888348854e-04,0.000000000000000000e+00,0.000000000000000000e+00,-3.172922915085532591e-01,7.483614555323801678e-04,4.416349119225284033e-06,7.451672635869648661e-05
2.166666666666666741e-01,1.644187229380387306e+09,4.269076132342104518e-04,0.000000000000000000e+00,0.000000000000000000e+00,-3.172922915085532591e-01,6.508181146387358434e-04,5.737893593843922319e-06,8.404215046139011159e-05
2.333333333333333370e-01,1.644187229397340059e+09,5.027540329205627649e-04,0.000000000000000000e+00,0.000000000000000000e+00,-3.172922915085532591e-01,4.661348317298549034e-04,7.191370933323798457e-06,9.035758698407448102e-05
2.500000000000000000e-01,1.644187229413297415e+09,5.873533803569831995e-04,0.000000000000000000e+00,0.000000000000000000e+00,-3.493420179235594003e-01,1.793480657771368480e-04,8.709622125726290212e-06,9.182847022129094351e-05
2.666666666666666630e-01,1.644187229429254532e+09,6.815092140068418260e-04,0.000000000000000000e+00,0.000000000000000000e+00,-3.172922915085532591e-01,-2.237597122550572307e-04,1.019650743218142808e-05,8.661225637725151756e-05
2.833333333333333259e-01,1.644187229448204041e+09,7.860768564243343637e-04,0.000000000000000000e+00,0.000000000000000000e+00,-3.493420179235594003e-01,-7.562469695094666553e-04,1.152362890162700661e-05,7.268101874931483556e-05
2.999999999999999889e-01,1.644187229464194298e+09,9.019543617225884644e-04,0.000000000000000000e+00,0.000000000000000000e+00,-3.493420179235594003e-01,-1.429598907968711525e-03,1.252748356104288601e-05,4.785051562375376781e-05
3.166666666666666519e-01,1.644187229482114077e+09,1.030072471122305813e-03,0.000000000000000000e+00,0.000000000000000000e+00,-3.172922915085532591e-01,-2.253319825521561855e-03,1.300715335903541239e-05,9.815515400401881815e-06
3.333333333333333148e-01,1.644187229498071909e+09,1.171383656503239591e-03,0.000000000000000000e+00,0.000000000000000000e+00,-3.172922915085532591e-01,-3.234539868385928954e-03,1.272263329792699787e-05,-4.380896234492184793e-05
3.499999999999999778e-01,1.644187229517021894e+09,1.326850365244858958e-03,0.000000000000000000e+00,0.000000000000000000e+00,-3.172922915085532591e-01,-4.377643986485462400e-03,1.139389246951850865e-05,-1.154409546246043880e-04
3.666666666666666408e-01,1.644187229533022881e+09,1.497432591828334967e-03,0.000000000000000000e+00,0.000000000000000000e+00,-3.493420179235594003e-01,-5.683930761467300037e-03,8.700753968471318435e-06,-2.074799954813455190e-04
3.833333333333333037e-01,1.644187229549978256e+09,1.684074912522431130e-03,0.000000000000000000e+00,0.000000000000000000e+00,-3.172922915085532591e-01,-7.151308508774559258e-03,4.283668984755768002e-06,-3.222513856438725911e-04
4.000000000000000222e-01,1.644187229567884207e+09,1.887693128848101859e-03,0.000000000000000000e+00,0.000000000000000000e+00,-3.172922915085532591e-01,-8.774035662530368582e-03,-2.254552104162557783e-06,-4.619470922637937058e-04
4.166666666666666852e-01,1.644187229583841085e+09,2.109160673283224860e-03,0.000000000000000000e+00,0.000000000000000000e+00,-3.172922915085532591e-01,-1.054251193879190973e-02,-1.134600295507305501e-05,-6.285641737260817732e-04
4.333333333333333481e-01,1.644187229600796223e+09,2.349294936719678421e-03,0.000000000000000000e+00,0.000000000000000000e+00,-3.172922915085532591e-01,-1.244312614465283885e-02,-2.345390571172490868e-05,-8.238417067136438385e-04
4.500000000000000111e-01,1.644187229617750645e+09,2.608843681428460112e-03,0.000000000000000000e+00,0.000000000000000000e+00,-3.493420179235594003e-01,-1.445816576513400328e-02,-3.906778046570294027e-05,-1.049197261378565903e-03
4.666666666666666741e-01,1.644187229634705305e+09,2.888471705652703465e-03,0.000000000000000000e+00,0.000000000000000000e+00,-3.172922915085532591e-01,-1.656579262590074375e-02,-5.869756138276094657e-05,-1.305664024226520312e-03
4.833333333333333370e-01,1.644187229649665356e+09,3.188747926382302488e-03,0.000000000000000000e+00,0.000000000000000000e+00,-3.493420179235594003e-01,-1.874008800824337323e-02,-8.286667979315070120e-05,-1.593829705953520200e-03
5.000000000000000000e-01,1.644187229667617321e+09,3.510133045337464168e-03,0.000000000000000000e+00,0.000000000000000000e+00,-3.172922915085532591e-01,-2.095116959555070810e-02,-1.121041536700155241e-04,-1.913778392002500432e-03
5.166666666666666075e-01,1.644187229684572220e+09,3.852967959694223073e-03,0.000000000000000000e+00,0.000000000000000000e+00,-3.172922915085532591e-01,-2.316538157106997134e-02,-1.469357422384211177e-04,-2.265036496285260936e-03
5.333333333333333259e-01,1.644187229701526642e+09,4.217463073637281457e-03,0.000000000000000000e+00,0.000000000000000000e+00,-3.493420179235594003e-01,-2.534555807956367923e-02,-1.878742436674399417e-04,-2.646523962848970277e-03
5.500000000000000444e-01,1.644187229718481779e+09,4.603688659460825235e-03,0.000000000000000000e+00,0.000000000000000000e+00,-3.493420179235594003e-01,-2.745135912594803482e-02,-2.354090325912148920e-04,-3.056511826024329269e-03
5.666666666666666519e-01,1.644187229736554384e+09,5.011566407715730385e-03,0.000000000000000000e+00,0.000000000000000000e+00,-3.493420179235594003e-01,-2.943967682824349258e-02,-2.899949522728328694e-04,-3.492587186813436370e-03
5.833333333333333703e-01,1.644187229753473282e+09,5.440862294901322414e-03,0.000000000000000000e+00,0.000000000000000000e+00,-3.172922915085532591e-01,-3.126510878680632821e-02,-3.520406932608027384e-04,-3.951626592272238815e-03
5.999999999999999778e-01,1.644187229770375490e+09,5.891180884523656777e-03,0.000000000000000000e+00,0.000000000000000000e+00,-3.493420179235594003e-01,-3.288049419372893190e-02,-4.218968060931248135e-04,-4.429778716002065464e-03
6.166666666666666963e-01,1.644187229787618637e+09,6.361961163111223491e-03,0.000000000000000000e+00,0.000000000000000000e+00,-3.493420179235594003e-01,-3.423750720243225187e-02,-4.998435096915694728e-04,-4.922457132444157946e-03
6.333333333333333037e-01,1.644187229802439451e+09,6.852473997133331184e-03,0.000000000000000000e+00,0.000000000000000000e+00,-3.493420179235594003e-01,-3.528730102457278833e-02,-5.860784692885353002e-04,-5.424343856590072184e-03
6.500000000000000222e-01,1.644187229820388079e+09,7.361821279864001061e-03,0.000000000000000000e+00,0.000000000000000000e+00,-3.493420179235594003e-01,-3.598119523576344403e-02,-6.807047277911831883e-04,-5.929404185350148522e-03
6.666666666666666297e-01,1.644187229839008808e+09,7.888936819248812057e-03,0.000000000000000000e+00,0.000000000000000000e+00,-3.172922915085532591e-01,-3.627139786892919632e-02,-7.837189821877090738e-04,-6.430913228769109466e-03
6.833333333333333481e-01,1.644187229852687120e+09,8.432588998951875622e-03,0.000000000000000000e+00,0.000000000000000000e+00,-3.172922915085532591e-01,-3.611175306916204059e-02,-8.950004017425000147e-04,-6.921494360367019469e-03
6.999999999999999556e-01,1.644187229872662544e+09,8.991385225185034857e-03,0.000000000000000000e+00,0.000000000000000000e+00,-3.172922915085532591e-01,-3.545850439038798763e-02,-1.014300187146442754e-03,-7.393169648136209415e-03
7.166666666666666741e-01,1.644187229888106108e+09,9.563778151862437765e-03,0.000000000000000000e+00,0.000000000000000000e+00,-3.172922915085532591e-01,-3.427106324438921464e-02,-1.141232069356855382e-03,-7.837422153332284508e-03
7.333333333333332815e-01,1.644187229906270266e+09,1.014807365629941290e-02,0.000000000000000000e+00,0.000000000000000000e+00,-3.493420179235594003e-01,-3.251277157762374331e-02,-1.275263943487165135e-03,-8.245269805495704374e-03
7.500000000000000000e-01,1.644187229920406580e+09,1.074244051730912676e-02,0.000000000000000000e+00,0.000000000000000000e+00,-3.172922915085532591e-01,-3.015164756007677332e-02,-1.415710826738207770e-03,-8.607350381579274845e-03
7.666666666666666075e-01,1.644187229937421083e+09,1.134492172737245133e-02,0.000000000000000000e+00,0.000000000000000000e+00,-3.172922915085532591e-01,-2.716110293046297003e-02,-1.561729319991035604e-03,-8.914016937167496685e-03
7.833333333333333259e-01,1.644187229956359386e+09,1.195344735079392415e-02,0.000000000000000000e+00,0.000000000000000000e+00,-3.172922915085532591e-01,-2.352062065894651791e-02,-1.712313740338153875e-03,-9.155442861136153451e-03
8.000000000000000444e-01,1.644187229973292589e+09,1.256584882063691705e-02,0.000000000000000000e+00,0.000000000000000000e+00,-3.493420179235594003e-01,-1.921638176555604330e-02,-1.866294076592020165e-03,-9.321735554308221983e-03
8.166666666666666519e-01,1.644187229990248442e+09,1.317987454897840728e-02,0.000000000000000000e+00,0.000000000000000000e+00,-2.852425650935483947e-01,-1.424183047093397457e-02,-2.022335901795360713e-03,-9.403057570287113795e-03
8.333333333333333703e-01,1.644187230008199930e+09,1.379320670785291574e-02,0.000000000000000000e+00,0.000000000000000000e+00,-3.493420179235594003e-01,-8.598167355060240200e-03,-2.178942356128668340e-03,-9.389753905204809362e-03
8.499999999999999778e-01,1.644187230024140120e+09,1.440347902237621748e-02,0.000000000000000000e+00,0.000000000000000000e+00,-3.172922915085532591e-01,-2.294760856031356332e-03,-2.334458290568599322e-03,-9.272483985032067832e-03
8.666666666666666963e-01,1.644187230039809704e+09,1.500829540314745254e-02,0.000000000000000000e+00,0.000000000000000000e+00,-3.493420179235594003e-01,4.650531750463371417e-03,-2.487076636438563266e-03,-9.042356776654381090e-03
8.833333333333333037e-01,1.644187230058779716e+09,1.560524923230668416e-02,0.000000000000000000e+00,0.000000000000000000e+00,-3.172922915085532591e-01,1.221114179712339681e-02,-2.634847038888242510e-03,-8.691067344252645724e-03
9.000000000000000222e-01,1.644187230078037500e+09,1.619194310674173382e-02,0.000000000000000000e+00,0.000000000000000000e+00,-3.172922915085532591e-01,2.035167191436238268e-02,-2.775686763654563061e-03,-8.211033087580286299e-03
9.166666666666666297e-01,1.644187230094013214e+09,1.676600883304191908e-02,0.000000000000000000e+00,0.000000000000000000e+00,-3.493420179235594003e-01,2.902788956913754728e-02,-2.907393856535738907e-03,-7.595527835213484666e-03
9.333333333333333481e-01,1.644187230109874010e+09,1.732512746201838108e-02,0.000000000000000000e+00,0.000000000000000000e+00,-3.493420179235594003e-01,3.818683573773970497e-02,-3.027662504221853481e-03,-6.838811925231708284e-03
9.499999999999999556e-01,1.644187230128815413e+09,1.786704914605943134e-02,0.000000000000000000e+00,0.000000000000000000e+00,-3.172922915085532591e-01,4.776705158056335221e-02,-3.134100513861541766e-03,-5.936256389249296855e-03
9.666666666666666741e-01,1.644187230144421101e+09,1.838961260035113648e-02,0.000000000000000000e+00,0.000000000000000000e+00,-3.172922915085532591e-01,5.769892449251535355e-02,-3.224248797413518768e-03,-4.884459364155397526e-03
9.833333333333332815e-01,1.644187230161367416e+09,1.889076394913169130e-02,0.000000000000000000e+00,0.000000000000000000e+00,-3.172922915085532591e-01,6.790515334863869712e-02,-3.295602715854964188e-03,-3.681352889903307009e-03
1.000000000000000000e+00,1.644187230182323456e+09,1.936857474069922716e-02,0.000000000000000000e+00,0.000000000000000000e+00,-3.493420179235594003e-01,7.830133117007063992e-02,-3.345635108123991112e-03,-2.326298311466436057e-03
1.016666666666666607e+00,1.644187230193636894e+09,1.982125891987091687e-02,0.000000000000000000e+00,0.000000000000000000e+00,-3.172922915085532591e-01,8.879664182093958968e-02,-3.371820800689621575e-03,-8.201685885518125631e-04
1.033333333333333215e+00,1.644187230212549210e+09,2.024718855398086048e-02,0.000000000000000000e+00,0.000000000000000000e+00,-3.172922915085532591e-01,9.929466573318494749e-02,-3.371662366294548609e-03,8.345840726061966395e-04
1.050000000000000044e+00,1.644187230229818583e+09,2.064490811826615035e-02,0.000000000000000000e+00,0.000000000000000000e+00,-3.493420179235594003e-01,1.096942880649798002e-01,-3.342716875117828813e-03,2.633876715845806949e-03
1.066666666666666652e+00,1.644187230244774580e+09,2.101314715855960580e-02,0.000000000000000000e+00,0.000000000000000000e+00,-3.172922915085532591e-01,1.198907011509697529e-01,-3.282623358754975084e-03,4.571961551999115941e-03
1.083333333333333259e+00,1.644187230262081861e+09,2.135083116348973978e-02,0.000000000000000000e+00,0.000000000000000000e+00,-3.172922915085532591e-01,1.297764916203598684e-01,-3.189130687388493871e-03,6.641410407638632420e-03
1.100000000000000089e+00,1.644187230280035019e+09,2.165709049476821288e-02,0.000000000000000000e+00,0.000000000000000000e+00,-3.493420179235594003e-01,1.392428011629607831e-01,-3.060125543672450720e-03,8.833118616638602205e-03
1.116666666666666696e+00,1.644187230295216560e+09,2.193126724248080014e-02,0.000000000000000000e+00,0.000000000000000000e+00,-3.493420179235594003e-01,1.481805486339826672e-01,-2.893660163497458349e-03,1.113632904702998791e-02
1.133333333333333304e+00,1.644187230312170982e+09,2.217291989242424488e-02,0.000000000000000000e+00,0.000000000000000000e+00,-3.172922915085532591e-01,1.564817000249898449e-01,-2.687979504217662911e-03,1.353867672150002241e-02
1.149999999999999911e+00,1.644187230330075979e+09,2.238182571426211229e-02,0.000000000000000000e+00,0.000000000000000000e+00,-3.172922915085532591e-01,1.640405718091121068e-01,-2.441547495347051212e-03,1.602625424278127791e-02
1.166666666666666741e+00,1.644187230347206116e+09,2.255798080240295836e-02,0.000000000000000000e+00,0.000000000000000000e+00,-3.493420179235594003e-01,1.707551523099738733e-01,-2.153072025361059839e-03,1.858369797796151704e-02
1.183333333333333348e+00,1.644187230363186121e+09,2.270159772580666174e-02,0.000000000000000000e+00,0.000000000000000000e+00,-3.493420179235594003e-01,1.765284250607681016e-01,-1.821528321213821810e-03,2.119429469149374662e-02
1.199999999999999956e+00,1.644187230382496834e+09,2.281310076816079474e-02,0.000000000000000000e+00,0.000000000000000000e+00,-3.172922915085532591e-01,1.812696776253830966e-01,-1.446180384591759082e-03,2.384010804862806907e-02
1.216666666666666563e+00,1.644187230397478819e+09,2.289311876578346491e-02,0.000000000000000000e+00,0.000000000000000000e+00,-3.493420179235594003e-01,1.848957790582922700e-01,-1.026600160805962855e-03,2.650212414248047724e-02
1.233333333333333393e+00,1.644187230416428566e+09,2.294247557693516668e-02,0.000000000000000000e+00,0.000000000000000000e+00,-3.493420179235594003e-01,1.873324090924865515e-01,-5.626841325576475115e-04,2.916041493244026991e-02
1.250000000000000000e+00,1.644187230431748867e+09,2.296217824268689811e-02,0.000000000000000000e+00,0.000000000000000000e+00,-3.172922915085532591e-01,1.885152222710284320e-01,-5.466705151391216492e-05,3.179431822258034501e-02
1.266666666666666607e+00,1.644187230449404955e+09,2.295340292581284428e-02,0.000000000000000000e+00,0.000000000000000000e+00,-3.172922915085532591e-01,1.883909305812043744e-01,4.968674544319319833e-04,3.438263255965457593e-02
1.283333333333333215e+00,1.644187230468307018e+09,2.291747874007080479e-02,0.000000000000000000e+00,0.000000000000000000e+00,-3.493420179235594003e-01,1.869182887113978730e-01,1.090979631364752097e-03,3.690382519457838933e-02
1.300000000000000044e+00,1.644187230483527660e+09,2.285586960741700646e-02,0.000000000000000000e+00,0.000000000000000000e+00,-3.172922915085532591e-01,1.840689668276124791e-01,1.726369907401246323e-03,3.933625103233543557e-02
1.316666666666666652e+00,1.644187230500481844e+09,2.277015430489449238e-02,0.000000000000000000e+00,0.000000000000000000e+00,-3.172922915085532591e-01,1.798282967541477428e-01,2.401378922730083767e-03,4.165838029624239353e-02
1.333333333333333259e+00,1.644187230519453526e+09,2.266200488585765407e-02,0.000000000000000000e+00,0.000000000000000000e+00,-3.493420179235594003e-01,1.741958786336429699e-01,3.113991406403545780e-03,4.384903245646298159e-02
1.350000000000000089e+00,1.644187230533415556e+09,2.253316368158527275e-02,0.000000000000000000e+00,0.000000000000000000e+00,-3.172922915085532591e-01,1.671860365251356118e-01,3.861843982554839360e-03,4.588761382239728293e-02
1.366666666666666696e+00,1.644187230554360151e+09,2.238541910893506251e-02,0.000000000000000000e+00,0.000000000000000000e+00,-3.172922915085532591e-01,1.588281129619432130e-01,4.642236944356670225e-03,4.775435607662784077e-02
1.383333333333333304e+00,1.644187230568304300e+09,2.222058052725958688e-02,0.000000000000000000e+00,0.000000000000000000e+00,-3.172922915085532591e-01,1.491665942184737248e-01,5.452149987901071596e-03,4.943055293672466571e-02
1.399999999999999911e+00,1.644187230586254120e+09,2.204045240311882856e-02,0.000000000000000000e+00,0.000000000000000000e+00,-3.172922915085532591e-01,1.382610599085583036e-01,6.288261850793296776e-03,5.089879207230841446e-02
1.416666666666666741e+00,1.644187230602232695e+09,2.184680805417868465e-02,0.000000000000000000e+00,0.000000000000000000e+00,-3.493420179235594003e-01,1.261859525374258439e-01,7.146973752168003270e-03,5.214317937989080415e-02
1.433333333333333348e+00,1.644187230622428417e+09,2.164136325389805909e-02,0.000000000000000000e+00,0.000000000000000000e+00,-3.172922915085532591e-01,1.130301647328441211e-01,8.024436482630651832e-03,5.314955272830888811e-02
1.449999999999999956e+00,1.644187230638364077e+09,2.142574998602175124e-02,0.000000000000000000e+00,0.000000000000000000e+00,-3.493420179235594003e-01,9.889644406430328494e-02,8.916580944893509261e-03,5.390568233378442015e-02
1.466666666666666563e+00,1.644187230655336618e+09,2.120149064238135983e-02,0.000000000000000000e+00,0.000000000000000000e+00,-3.172922915085532591e-01,8.390061759704882383e-02,9.819151899215087728e-03,5.440145500608032508e-02
1.483333333333333393e+00,1.644187230671272755e+09,2.096997295895505764e-02,0.000000000000000000e+00,0.000000000000000000e+00,-3.493420179235594003e-01,6.817064059362078210e-02,1.072774462276687192e-02,5.462903962575555578e-02
1.500000000000000000e+00,1.644187230692190170e+09,2.073242598348248172e-02,0.000000000000000000e+00,0.000000000000000000e+00,-3.493420179235594003e-01,5.184547604186030140e-02,1.163784414933833819e-02,5.458303136654842763e-02
1.516666666666666607e+00,1.644187230707176924e+09,2.048989736312227528e-02,0.000000000000000000e+00,0.000000000000000000e+00,-3.172922915085532591e-01,3.507381392698727396e-02,1.254486671593352254e-02,5.426057236540303419e-02
1.533333333333333215e+00,1.644187230724131107e+09,2.024323223267286351e-02,0.000000000000000000e+00,0.000000000000000000e+00,-3.493420179235594003e-01,1.801264134803246333e-02,1.344420300637144683e-02,5.366144676409898701e-02
1.550000000000000044e+00,1.644187230739302158e+09,1.999305397277014243e-02,0.000000000000000000e+00,0.000000000000000000e+00,-3.172922915085532591e-01,8.256766774212553894e-04,1.433126274951186316e-02,5.278814829891559368e-02
1.566666666666666652e+00,1.644187230758243084e+09,1.973974709328236293e-02,0.000000000000000000e+00,0.000000000000000000e+00,-3.172922915085532591e-01,-1.631831705092201545e-02,1.520152020168420194e-02,5.164591889589455198e-02
1.583333333333333259e+00,1.644187230775178671e+09,1.948344247993324951e-02,0.000000000000000000e+00,0.000000000000000000e+00,-3.493420179235594003e-01,-3.324732249185450433e-02,1.605056001975602165e-02,5.024275703629182271e-02
1.600000000000000089e+00,1.644187230792155981e+09,1.922400522211553317e-02,0.000000000000000000e+00,0.000000000000000000e+00,-3.172922915085532591e-01,-4.978794336152818356e-02,1.687412301344283494e-02,4.858939498657954131e-02
1.616666666666666696e+00,1.644187230807317972e+09,1.896102521706091726e-02,0.000000000000000000e+00,0.000000000000000000e+00,-3.493420179235594003e-01,-6.576734462183976559e-02,1.766815125328372732e-02,4.669924433637465122e-02
1.633333333333333304e+00,1.644187230825551271e+09,1.869381072019197718e-02,0.000000000000000000e+00,0.000000000000000000e+00,-3.172922915085532591e-01,-8.101523598379768709e-02,1.842883200447563430e-02,4.458830965211944830e-02
1.649999999999999911e+00,1.644187230841500998e+09,1.842138498380771483e-02,0.000000000000000000e+00,0.000000000000000000e+00,-3.493420179235594003e-01,-9.536587618580144587e-02,1.915263995669658562e-02,4.227507043013514071e-02
1.666666666666666741e+00,1.644187230860421419e+09,1.814248609648534682e-02,0.000000000000000000e+00,0.000000000000000000e+00,-3.493420179235594003e-01,-1.086600747014822843e-01,1.983637722630763461e-02,3.978033191549938674e-02
1.683333333333333348e+00,1.644187230876700401e+09,1.785557010398410027e-02,0.000000000000000000e+00,0.000000000000000000e+00,-3.172922915085532591e-01,-1.207471669953258525e-01,2.047721061998446224e-02,3.712704573856712847e-02
1.699999999999999956e+00,1.644187230894187689e+09,1.755881745929889839e-02,0.000000000000000000e+00,0.000000000000000000e+00,-3.172922915085532591e-01,-1.314869391850442548e-01,2.107270566789607585e-02,3.434010170423811015e-02
1.716666666666666563e+00,1.644187230910145521e+09,1.725014281514460762e-02,0.000000000000000000e+00,0.000000000000000000e+00,-3.172922915085532591e-01,-1.407514779968268848e-01,2.162085695994607829e-02,3.144609244557432237e-02
1.733333333333333393e+00,1.644187230928347588e+09,1.692720813688081138e-02,0.000000000000000000e+00,0.000000000000000000e+00,-3.493420179235594003e-01,-1.484269222190197635e-01,2.212011435016872363e-02,2.847305301836801361e-02
1.750000000000000000e+00,1.644187230947294950e+09,1.658743907806073392e-02,0.000000000000000000e+00,0.000000000000000000e+00,-3.172922915085532591e-01,-1.544150924739755570e-01,2.256940463189687288e-02,2.545017786207360438e-02
1.766666666666666607e+00,1.644187230963253498e+09,1.622804452475558670e-02,0.000000000000000000e+00,0.000000000000000000e+00,-3.172922915085532591e-01,-1.586349770356682287e-01,2.296814832948376739e-02,2.240751788055890537e-02
1.783333333333333215e+00,1.644187230980206251e+09,1.584603917893933483e-02,0.000000000000000000e+00,0.000000000000000000e+00,-3.172922915085532591e-01,-1.610240526175834019e-01,2.331627130078214177e-02,1.937566069896747359e-02
1.800000000000000044e+00,1.644187230997016191e+09,1.543826901588298862e-02,0.000000000000000000e+00,0.000000000000000000e+00,-3.172922915085532591e-01,-1.615394205331114608e-01,2.361421089780707874e-02,1.638539742639067917e-02
1.816666666666666652e+00,1.644187231014309168e+09,1.500143941607595503e-02,0.000000000000000000e+00,0.000000000000000000e+00,-3.172922915085532591e-01,-1.601587403774382412e-01,2.386291649050968633e-02,1.346737949406410194e-02
1.833333333333333259e+00,1.644187231031619787e+09,1.453214573903565884e-02,0.000000000000000000e+00,0.000000000000000000e+00,-3.172922915085532591e-01,-1.568809453804413667e-01,2.406384421978018107e-02,1.065176934178625051e-02
1.849999999999999867e+00,1.644187231047912598e+09,1.402690607484939796e-02,0.000000000000000000e+00,0.000000000000000000e+00,-3.172922915085532591e-01,-1.517267258157521670e-01,2.421894591003660030e-02,7.967888887933961828e-03
1.866666666666666696e+00,1.644187231064863205e+09,1.348219587976587884e-02,0.000000000000000000e+00,0.000000000000000000e+00,-3.493420179235594003e-01,-1.447387693001083164e-01,2.433065213834367801e-02,5.443869837958413213e-03
1.883333333333333304e+00,1.644187231081150055e+09,1.289448417496777757e-02,0.000000000000000000e+00,0.000000000000000000e+00,-3.172922915085532591e-01,-1.359817494545136896e-01,2.440184952520566691e-02,3.106309960187864355e-03
1.899999999999999911e+00,1.644187231099715233e+09,1.226027096312626297e-02,0.000000000000000000e+00,0.000000000000000000e+00,-3.172922915085532591e-01,-1.255420571970080890e-01,2.443585238121188247e-02,9.799394842315129438e-04
1.916666666666666741e+00,1.644187231115722895e+09,1.157612549577778649e-02,0.000000000000000000e+00,0.000000000000000000e+00,-3.172922915085532591e-01,-1.135272718659199181e-01,2.443636891278158987e-02,-9.126982451035281670e-04
1.933333333333333348e+00,1.644187231133780479e+09,1.083872500624846053e-02,0.000000000000000000e+00,0.000000000000000000e+00,-3.172922915085532591e-01,-1.000653724000428735e-01,2.440746225853459087e-02,-2.551547797523908822e-03
1.949999999999999956e+00,1.644187231151734591e+09,1.004489350803867628e-02,0.000000000000000000e+00,0.000000000000000000e+00,-3.172922915085532591e-01,-8.530369189428013699e-02,2.435350669447561289e-02,-3.919320431702932525e-03
1.966666666666666563e+00,1.644187231168377638e+09,9.191640247494869270e-03,0.000000000000000000e+00,0.000000000000000000e+00,-3.172922915085532591e-01,-6.940762197028030323e-02,2.427913941039527845e-02,-5.001746847127270731e-03
1.983333333333333393e+00,1.644187231184314489e+09,8.276197392431633090e-03,0.000000000000000000e+00,0.000000000000000000e+00,-3.172922915085532591e-01,-5.255907651497420535e-02,2.418920832083969533e-02,-5.787800366154591952e-03
2.000000000000000000e+00,1.644187231206229448e+09,7.296056535276244752e-03,0.000000000000000000e+00,0.000000000000000000e+00,-3.172922915085532591e-01,-3.495472740844536574e-02,2.408871643088724909e-02,-6.269887266342900889e-03
2.016666666666666607e+00,1.644187231219242096e+09,6.249003590419181797e-03,0.000000000000000000e+00,0.000000000000000000e+00,-3.172922915085532591e-01,-1.680402784879254235e-02,2.398276332902805202e-02,-6.444001295296914074e-03
2.033333333333333215e+00,1.644187231236175776e+09,5.133151670841252200e-03,0.000000000000000000e+00,0.000000000000000000e+00,-3.172922915085532591e-01,1.672958251601815551e-03,2.387648442594251727e-02,-6.309839754684682181e-03
2.049999999999999822e+00,1.644187231254102230e+09,3.946971538796031735e-03,0.000000000000000000e+00,0.000000000000000000e+00,-3.493420179235594003e-01,2.024789961322820062e-02,2.377498859824414904e-02,-5.870878933432510487e-03
2.066666666666666430e+00,1.644187231272072792e+09,2.689319239351290001e-03,0.000000000000000000e+00,0.000000000000000000e+00,-3.172922915085532591e-01,3.868668997555274602e-02,2.368329492967092761e-02,-5.134407098600074840e-03
2.083333333333333481e+00,1.644187231290499449e+09,1.359460543899872458e-03,0.000000000000000000e+00,0.000000000000000000e+00,-3.493420179235594003e-01,5.675206352345826821e-02,2.360626926822947946e-02,-4.111513711767654164e-03
2.100000000000000089e+00,1.644187231303513527e+09,-4.290814676497515585e-05,0.000000000000000000e+00,0.000000000000000000e+00,-3.172922915085532591e-01,7.420630531848175504e-02,2.354856133594281087e-02,-2.817034024172957851e-03
2.116666666666666696e+00,1.644187231321493864e+09,-1.517642763655676708e-03,0.000000000000000000e+00,0.000000000000000000e+00,-3.172922915085532591e-01,9.081402694883208837e-02,2.351454313773405566e-02,-1.269448710150334215e-03
2.133333333333333304e+00,1.644187231339466095e+09,-3.064138688485043387e-03,0.000000000000000000e+00,0.000000000000000000e+00,-3.172922915085532591e-01,1.063449761749813149e-01,2.350824941729318107e-02,5.092612798735609604e-04
2.149999999999999911e+00,1.644187231355400324e+09,-4.681322289537570049e-03,0.000000000000000000e+00,0.000000000000000000e+00,-3.172922915085532591e-01,1.205768482470621211e-01,2.353332090031324750e-02,2.493803934304528441e-03
2.166666666666666519e+00,1.644187231371347427e+09,-6.367647096260017903e-03,0.000000000000000000e+00,0.000000000000000000e+00,-3.172922915085532591e-01,1.332980658265034146e-01,2.359295104913843380e-02,4.655808215921066612e-03
2.183333333333333126e+00,1.644187231388303995e+09,-8.121094793636400230e-03,0.000000000000000000e+00,0.000000000000000000e+00,-3.172922915085532591e-01,1.443104940733762609e-01,2.368983702763141630e-02,6.964097138651021909e-03
2.200000000000000178e+00,1.644187231407638550e+09,-9.939181173928912996e-03,0.000000000000000000e+00,0.000000000000000000e+00,-3.172922915085532591e-01,1.534320574750421273e-01,2.382613554104055439e-02,9.384999583159251563e-03
2.216666666666666785e+00,1.644187231423098564e+09,-1.181896713743531280e-02,0.000000000000000000e+00,0.000000000000000000e+00,-3.493420179235594003e-01,1.604992253986881334e-01,2.400342417303116122e-02,1.188269804114677926e-02
2.233333333333333393e+00,1.644187231439088821e+09,-1.375707478593051966e-02,0.000000000000000000e+00,0.000000000000000000e+00,-3.172922915085532591e-01,1.653693341536784656e-01,2.422266879114888180e-02,1.441960899225703391e-02
2.250000000000000000e+00,1.644187231457038879e+09,-1.574970860284357135e-02,0.000000000000000000e+00,0.000000000000000000e+00,-3.172922915085532591e-01,1.679227145481459738e-01,2.448419753321950595e-02,1.695679215932217529e-02
2.266666666666666607e+00,1.644187231471000195e+09,-1.779268166341399504e-02,0.000000000000000000e+00,0.000000000000000000e+00,-3.493420179235594003e-01,1.680645955121355117e-01,2.478768182107240689e-02,1.945438446333819932e-02
2.283333333333333215e+00,1.644187231489555597e+09,-1.988144676654170911e-02,0.000000000000000000e+00,0.000000000000000000e+00,-3.172922915085532591e-01,1.657267563264268329e-01,2.513212477511547402e-02,2.187205411473558056e-02
2.299999999999999822e+00,1.644187231506489277e+09,-2.201113232826795718e-02,0.000000000000000000e+00,0.000000000000000000e+00,-3.493420179235594003e-01,1.608689023268127793e-01,2.551585732439154083e-02,2.416946993757305984e-02
2.316666666666666430e+00,1.644187231524462223e+09,-2.417658282530523242e-02,0.000000000000000000e+00,0.000000000000000000e+00,-3.172922915085532591e-01,1.534797416285020311e-01,2.593654222259914391e-02,2.630678073317382556e-02
2.333333333333333481e+00,1.644187231541646719e+09,-2.637240352625164902e-02,0.000000000000000000e+00,0.000000000000000000e+00,-3.172922915085532591e-01,1.435777434103976680e-01,2.639118609203185140e-02,2.824509925391441301e-02
2.350000000000000089e+00,1.644187231555608988e+09,-2.859300919861700735e-02,0.000000000000000000e+00,0.000000000000000000e+00,-3.172922915085532591e-01,1.312115615861466356e-01,2.687615952541838604e-02,2.994698518029699150e-02
2.366666666666666696e+00,1.644187231572040796e+09,-3.083267643201699146e-02,0.000000000000000000e+00,0.000000000000000000e+00,-3.172922915085532591e-01,1.164601112358043394e-01,2.738722518122834598e-02,3.137692137841710527e-02
2.383333333333333304e+00,1.644187231589962959e+09,-3.308559917239034531e-02,0.000000000000000000e+00,0.000000000000000000e+00,-3.172922915085532591e-01,9.943228894298684895e-02,2.791957371219431702e-02,3.250177766316757894e-02
2.399999999999999911e+00,1.644187231607272863e+09,-3.534594701932373961e-02,0.000000000000000000e+00,0.000000000000000000e+00,-3.172922915085532591e-01,8.026633213839066971e-02,2.846786727067769640e-02,3.329125630699070887e-02
2.416666666666666519e+00,1.644187231626226187e+09,-3.760792579900610472e-02,0.000000000000000000e+00,0.000000000000000000e+00,-3.493420179235594003e-01,5.912881664947808313e-02,2.902629023918757920e-02,3.371831361597212723e-02
2.433333333333333126e+00,1.644187231642183781e+09,-3.986583988943099427e-02,0.000000000000000000e+00,0.000000000000000000e+00,-3.172922915085532591e-01,3.621329585352661001e-02,2.958860674097869153e-02,3.375955204507312402e-02
2.450000000000000178e+00,1.644187231659158707e+09,-4.211415574263756290e-02,0.000000000000000000e+00,0.000000000000000000e+00,-3.172922915085532591e-01,1.173858908057189530e-02,3.014822439533742723e-02,3.339557754205725593e-02
2.466666666666666785e+00,1.644187231677941322e+09,-4.434756602142651827e-02,0.000000000000000000e+00,0.000000000000000000e+00,-3.172922915085532591e-01,-1.405326883391224031e-02,3.069826369603465693e-02,3.261131709412815743e-02
2.483333333333333393e+00,1.644187231694234610e+09,-4.656105374546324477e-02,0.000000000000000000e+00,0.000000000000000000e+00,-3.493420179235594003e-01,-4.089940073854606700e-02,3.123163231057668118e-02,3.139629180061036945e-02
2.500000000000000000e+00,1.644187231708197594e+09,-4.874995582431258800e-02,0.000000000000000000e+00,0.000000000000000000e+00,-3.172922915085532591e-01,-6.851876287600330850e-02,3.174110352338018609e-02,2.974484120654014366e-02
2.516666666666666607e+00,1.644187231726790905e+09,-5.091002534300337334e-02,0.000000000000000000e+00,0.000000000000000000e+00,-3.172922915085532591e-01,-9.661509892173002212e-02,3.221939797884203205e-02,2.765629510238279409e-02
2.533333333333333215e+00,1.644187231742196083e+09,-5.303749195945840766e-02,0.000000000000000000e+00,0.000000000000000000e+00,-3.172922915085532591e-01,-1.248801443823178425e-01,3.265926782141549689e-02,2.513508952010403211e-02
2.549999999999999822e+00,1.644187231760693550e+09,-5.512911977269642494e-02,0.000000000000000000e+00,0.000000000000000000e+00,-3.172922915085532591e-01,-1.529970498468964935e-01,3.305358228011172350e-02,2.219082423062620005e-02
2.566666666666666430e+00,1.644187231777672291e+09,-5.718226202628992616e-02,0.000000000000000000e+00,0.000000000000000000e+00,-3.172922915085532591e-01,-1.806439883327723983e-01,3.339541370510217683e-02,1.883825966675620883e-02
2.583333333333333481e+00,1.644187231795600891e+09,-5.919491202319565604e-02,0.000000000000000000e+00,0.000000000000000000e+00,-3.172922915085532591e-01,-2.074979090430328077e-01,3.367812303499068821e-02,1.509725185281714926e-02
2.600000000000000089e+00,1.644187231813528776e+09,-6.116574964582402463e-02,0.000000000000000000e+00,0.000000000000000000e+00,-3.172922915085532591e-01,-2.332383972992355670e-01,3.389544365543108867e-02,1.099262461072282072e-02
2.616666666666666696e+00,1.644187231829483986e+09,-6.309418289901858046e-02,0.000000000000000000e+00,0.000000000000000000e+00,-3.172922915085532591e-01,-2.575515982634520862e-01,3.404156260355058888e-02,6.553979024879118438e-03
2.633333333333333304e+00,1.644187231845466614e+09,-6.498038392342349312e-02,0.000000000000000000e+00,0.000000000000000000e+00,-3.493420179235594003e-01,-2.801341603537512714e-01,3.411119807843847329e-02,1.815440877428711915e-03
2.649999999999999911e+00,1.644187231863599300e+09,-6.682531896236036661e-02,0.000000000000000000e+00,0.000000000000000000e+00,-3.172922915085532591e-01,-3.006971530143597859e-01,3.409967223598221742e-02,-3.184652497021025520e-03
2.666666666666666519e+00,1.644187231880553007e+09,-6.863077180663480770e-02,0.000000000000000000e+00,0.000000000000000000e+00,-3.172922915085532591e-01,-3.189699127499353026e-01,3.400297827665132305e-02,-8.404123750189049225e-03
2.683333333333333126e+00,1.644187231895870447e+09,-7.039936028838320037e-02,0.000000000000000000e+00,0.000000000000000000e+00,-3.172922915085532591e-01,-3.347037710914625985e-01,3.381784087737660371e-02,-1.379738253577204171e-02
2.700000000000000178e+00,1.644187231913821936e+09,-7.213454544684672065e-02,0.000000000000000000e+00,0.000000000000000000e+00,-3.493420179235594003e-01,-3.476756184423873686e-01,3.354176907324135648e-02,-1.931590437234325178e-02
2.716666666666666785e+00,1.644187231931726456e+09,-7.384063304546645279e-02,0.000000000000000000e+00,0.000000000000000000e+00,-3.172922915085532591e-01,-3.576912585654670740e-01,3.317310076094159149e-02,-2.490875703613460584e-02
2.733333333333333393e+00,1.644187231949703693e+09,-7.552276718050594806e-02,0.000000000000000000e+00,0.000000000000000000e+00,-3.172922915085532591e-01,-3.645885098151043779e-01,3.271103807339510727e-02,-3.052316951217319205e-02
2.750000000000000000e+00,1.644187231966657877e+09,-7.718691578608577464e-02,0.000000000000000000e+00,0.000000000000000000e+00,-3.172922915085532591e-01,-3.682400110923962910e-01,3.215567296285552074e-02,-3.610513791984020643e-02
2.766666666666666607e+00,1.644187231981619358e+09,-7.883984790853144908e-02,0.000000000000000000e+00,0.000000000000000000e+00,-3.172922915085532591e-01,-3.685556928905066032e-01,3.150800242765571663e-02,-4.160006226614884617e-02
2.783333333333333215e+00,1.644187232000589848e+09,-8.048910269377654303e-02,0.000000000000000000e+00,0.000000000000000000e+00,-3.493420179235594003e-01,-3.654848766898730061e-01,3.076993292437583960e-02,-4.695340737436685258e-02
2.799999999999999822e+00,1.644187232016547680e+09,-8.214295010461455937e-02,0.000000000000000000e+00,0.000000000000000000e+00,-3.172922915085532591e-01,-3.590179693338849676e-01,2.994427362179398477e-02,-5.211138089401641527e-02
2.816666666666666430e+00,1.644187232033251762e+09,-8.381034345927944329e-02,0.000000000000000000e+00,0.000000000000000000e+00,-3.493420179235594003e-01,-3.491877228378404974e-01,2.903471827431189367e-02,-5.702162092716499958e-02
2.833333333333333481e+00,1.644187232052197456e+09,-8.550086395848134624e-02,0.000000000000000000e+00,0.000000000000000000e+00,-3.493420179235594003e-01,-3.360700343234576670e-01,2.804581561943039411e-02,-6.163388551100779100e-02
2.850000000000000089e+00,1.644187232070165873e+09,-8.722465744400788312e-02,0.000000000000000000e+00,0.000000000000000000e+00,-3.172922915085532591e-01,-3.197842653888353648e-01,2.698292833496860124e-02,-6.590073598302659263e-02
2.866666666666666696e+00,1.644187232085129499e+09,-8.899236370761383352e-02,0.000000000000000000e+00,0.000000000000000000e+00,-3.172922915085532591e-01,-3.004930651754734172e-01,2.585218072568861575e-02,-6.977820612667116895e-02
2.883333333333333304e+00,1.644187232102060080e+09,-9.081503874350764505e-02,0.000000000000000000e+00,0.000000000000000000e+00,-3.172922915085532591e-01,-2.784016866309563798e-01,2.466039544435306985e-02,-7.322644895585156410e-02
2.899999999999999911e+00,1.644187232119993687e+09,-9.270407041058614794e-02,0.000000000000000000e+00,0.000000000000000000e+00,-3.172922915085532591e-01,-2.537567909354737639e-01,2.341501968750854534e-02,-7.621035304793159770e-02
2.916666666666666519e+00,1.644187232136987448e+09,-9.467108804100986263e-02,0.000000000000000000e+00,0.000000000000000000e+00,-3.172922915085532591e-01,-2.268447407059037413e-01,2.212404143992414626e-02,-7.870012047877893158e-02
2.933333333333333126e+00,1.644187232154921770e+09,-9.672786659904400453e-02,0.000000000000000000e+00,0.000000000000000000e+00,-3.172922915085532591e-01,-1.979893883533259680e-01,2.079589647207709044e-02,-8.067179865015397522e-02
2.950000000000000178e+00,1.644187232171871901e+09,-9.888622605767756479e-02,0.000000000000000000e+00,0.000000000000000000e+00,-3.172922915085532591e-01,-1.675493717865427779e-01,1.943936692082352119e-02,-8.210775862867611408e-02
2.966666666666666785e+00,1.644187232190844297e+09,-1.011579267197111054e-01,0.000000000000000000e+00,0.000000000000000000e+00,-3.493420179235594003e-01,-1.359149354617313898e-01,1.806347240289983905e-02,-8.299711303511461691e-02
2.983333333333333393e+00,1.644187232206003189e+09,-1.035545612641751850e-01,0.000000000000000000e+00,0.000000000000000000e+00,-3.172922915085532591e-01,-1.035043005119738180e-01,1.667735472268112862e-02,-8.333606703009546757e-02
3.000000000000000000e+00,1.644187232223933220e+09,-1.060874443475038065e-01,0.000000000000000000e+00,0.000000000000000000e+00,-3.493420179235594003e-01,-7.075961328470227463e-02,1.529015733824613983e-02,-8.312819653373884621e-02
3.016666666666666607e+00,1.644187232240908146e+09,-1.087675006313218867e-01,0.000000000000000000e+00,0.000000000000000000e+00,-3.172922915085532591e-01,-3.814250700515749853e-02,1.391090084190141005e-02,-8.238464848748007496e-02
3.033333333333333215e+00,1.644187232260855913e+09,-1.116051521444862138e-01,0.000000000000000000e+00,0.000000000000000000e+00,-3.172922915085532591e-01,-6.129316405996583679e-03,1.254835579162638312e-02,-8.112425871063833061e-02
3.049999999999999822e+00,1.644187232275207520e+09,-1.146102059157204089e-01,0.000000000000000000e+00,0.000000000000000000e+00,-3.172922915085532591e-01,2.479401004521003191e-02,1.121091429724646767e-02,-7.937358371550491676e-02
3.066666666666666430e+00,1.644187232294068336e+09,-1.177917428343898676e-01,0.000000000000000000e+00,0.000000000000000000e+00,-3.172922915085532591e-01,5.413725128723015367e-02,9.906461818470024480e-03,-7.716684371527464392e-02
3.083333333333333481e+00,1.644187232309272766e+09,-1.211580087103540232e-01,0.000000000000000000e+00,0.000000000000000000e+00,-3.172922915085532591e-01,8.141145518649021973e-02,8.642250670319095995e-03,-7.454577498068221120e-02
3.100000000000000089e+00,1.644187232326404333e+09,-1.247163085091217150e-01,0.000000000000000000e+00,0.000000000000000000e+00,-3.172922915085532591e-01,1.061346239938652236e-01,7.424776754168404928e-03,-7.155939066463376519e-02
3.116666666666666696e+00,1.644187232344384909e+09,-1.284729047355247511e-01,0.000000000000000000e+00,0.000000000000000000e+00,-3.172922915085532591e-01,1.278374843833486041e-01,6.259661038966099142e-03,-6.826365020970898145e-02
3.133333333333333304e+00,1.644187232361359358e+09,-1.324329209276671193e-01,0.000000000000000000e+00,0.000000000000000000e+00,-3.172922915085532591e-01,1.460692804004509737e-01,5.151537306792783322e-03,-6.472103847086148332e-02
3.149999999999999911e+00,1.644187232378314734e+09,-1.366002512029453886e-01,0.000000000000000000e+00,0.000000000000000000e+00,-3.493420179235594003e-01,1.604035259569107086e-01,4.103947649447861959e-03,-6.100005671423471693e-02
3.166666666666666519e+00,1.644187232396249294e+09,-1.409774767694706998e-01,0.000000000000000000e+00,0.000000000000000000e+00,-3.493420179235594003e-01,1.704436524757798888e-01,3.119247158141018848e-03,-5.717462868166487550e-02
3.183333333333333126e+00,1.644187232414223671e+09,-1.455657902793341951e-01,0.000000000000000000e+00,0.000000000000000000e+00,-3.172922915085532591e-01,1.758284869412974072e-01,2.198519186704957391e-03,-5.332342592787385482e-02
3.200000000000000178e+00,1.644187232428181410e+09,-1.503649288550087670e-01,0.000000000000000000e+00,0.000000000000000000e+00,-3.493420179235594003e-01,1.762374959587915679e-01,1.341502490315666599e-03,-4.952911763217136831e-02
3.216666666666666785e+00,1.644187232446112871e+09,-1.553731165669990921e-01,0.000000000000000000e+00,0.000000000000000000e+00,-3.172922915085532591e-01,1.713957324910776181e-01,5.465314469803031960e-04,-4.587755104731804090e-02
3.233333333333333393e+00,1.644187232464070082e+09,-1.605870170799371943e-01,0.000000000000000000e+00,0.000000000000000000e+00,-3.172922915085532591e-01,1.610784237119395335e-01,-1.895095413095123282e-04,-4.245686966382923588e-02
3.250000000000000000e+00,1.644187232478479147e+09,-1.660016971160668819e-01,0.000000000000000000e+00,0.000000000000000000e+00,-3.172922915085532591e-01,1.451151408990276059e-01,-8.712164960146944479e-04,-3.935657702747359654e-02
3.266666666666666607e+00,1.644187232500050783e+09,-1.716106013099021332e-01,0.000000000000000000e+00,0.000000000000000000e+00,-3.172922915085532591e-01,1.233934954646475901e-01,-1.504680325252377975e-03,-3.666655494049178565e-02
3.283333333333333215e+00,1.644187232513992310e+09,-1.774055389462966537e-01,0.000000000000000000e+00,0.000000000000000000e+00,-3.172922915085532591e-01,9.586230907266812817e-02,-2.097484621434991293e-03,-3.447604549309803840e-02
3.299999999999999822e+00,1.644187232530572176e+09,-1.833766829868305470e-01,0.000000000000000000e+00,0.000000000000000000e+00,-3.172922915085532591e-01,6.253421028432067097e-02,-2.658686274719991929e-03,-3.287260700174102906e-02
3.316666666666666430e+00,1.644187232548616886e+09,-1.895125816969026045e-01,0.000000000000000000e+00,0.000000000000000000e+00,-3.493420179235594003e-01,2.348761527891355880e-02,-3.198778556058811187e-03,-3.194105446575364743e-02
3.333333333333333481e+00,1.644187232569316864e+09,-1.958001830889574413e-01,0.000000000000000000e+00,0.000000000000000000e+00,-3.172922915085532591e-01,-2.113194413604843266e-02,-3.729636504109198544e-03,-3.176239558663740414e-02
3.350000000000000089e+00,1.644187232582877398e+09,-2.022248722965891421e-01,0.000000000000000000e+00,0.000000000000000000e+00,-3.172922915085532591e-01,-7.111117582771571410e-02,-4.264444637047294304e-03,-3.241277371749456959e-02
3.366666666666666696e+00,1.644187232599844456e+09,-2.087705218906510951e-01,0.000000000000000000e+00,0.000000000000000000e+00,-3.493420179235594003e-01,-1.261690899149058853e-01,-4.817607201513757730e-03,-3.396242931827653938e-02
3.383333333333333304e+00,1.644187232619023561e+09,-2.154195550428030792e-01,0.000000000000000000e+00,0.000000000000000000e+00,-3.172922915085532591e-01,-1.859577855444625727e-01,-5.404641364594965289e-03,-3.647469158093637198e-02
3.399999999999999911e+00,1.644187232635700464e+09,-2.221530213349850735e-01,0.000000000000000000e+00,0.000000000000000000e+00,-3.172922915085532591e-01,-2.500639714292403615e-01,-6.042053948851450890e-03,-4.000501185383389252e-02
3.416666666666666519e+00,1.644187232653967857e+09,-2.289506849060348181e-01,0.000000000000000000e+00,0.000000000000000000e+00,-3.172922915085532591e-01,-3.180112220936568979e-01,-6.747202502890763641e-03,-4.460005033468886215e-02
3.433333333333333126e+00,1.644187232669664145e+09,-2.357911245199433570e-01,0.000000000000000000e+00,0.000000000000000000e+00,-3.493420179235594003e-01,-3.892629639795951446e-01,-7.538141688745078270e-03,-5.029682721516113425e-02
3.449999999999999734e+00,1.644187232684124708e+09,-2.426518450349976486e-01,0.000000000000000000e+00,0.000000000000000000e+00,-3.172922915085532591e-01,-4.632261776762416350e-01,-8.433456150256632422e-03,-5.712194904825360769e-02
3.466666666666666785e+00,1.644187232701984882e+09,-2.495093996502181222e-01,0.000000000000000000e+00,0.000000000000000000e+00,-3.493420179235594003e-01,-5.392557946348512932e-01,-9.452081201717513551e-03,-6.509092057404024245e-02
3.483333333333333393e+00,1.644187232719958305e+09,-2.563395222059400846e-01,0.000000000000000000e+00,0.000000000000000000e+00,-3.172922915085532591e-01,-6.166597588977061895e-01,-1.061311284111774410e-02,-7.420755158293511344e-02
3.500000000000000000e+00,1.644187232735916138e+09,-2.631172687200563076e-01,0.000000000000000000e+00,0.000000000000000000e+00,-3.172922915085532591e-01,-6.947047166952220465e-01,-1.193560874555551696e-02,-8.446346762341770675e-02
3.516666666666666607e+00,1.644187232753846407e+09,-2.698171672511647801e-01,0.000000000000000000e+00,0.000000000000000000e+00,-3.493420179235594003e-01,-7.726222893308707373e-01,-1.343838204577147387e-02,-9.583773247871625600e-02
3.533333333333333215e+00,1.644187232770068884e+09,-2.764133750955219959e-01,0.000000000000000000e+00,0.000000000000000000e+00,-3.172922915085532591e-01,-8.496158776642663835e-01,-1.513978980061001997e-02,-1.082965893516154854e-01
3.549999999999999822e+00,1.644187232785754919e+09,-2.828798422471023866e-01,0.000000000000000000e+00,0.000000000000000000e+00,-3.493420179235594003e-01,-9.248679398003781804e-01,-1.705751819883984111e-02,-1.217933266167253031e-01
3.566666666666666430e+00,1.644187232804732561e+09,-2.891904799799437931e-01,0.000000000000000000e+00,0.000000000000000000e+00,-3.493420179235594003e-01,-9.975476773761021709e-01,-1.920836660368833992e-02,-1.362682728348118266e-01
3.583333333333333481e+00,1.644187232821661472e+09,-2.953193333500668261e-01,0.000000000000000000e+00,0.000000000000000000e+00,-3.493420179235594003e-01,-1.066819060179462042e+00,-2.160803262333461580e-02,-1.516489244848232554e-01
3.600000000000000089e+00,1.644187232839663267e+09,-3.012407563612113370e-01,0.000000000000000000e+00,0.000000000000000000e+00,-3.172922915085532591e-01,-1.131849113811824292e+00,-2.427090043732317223e-02,-1.678502085676984446e-01
3.616666666666666696e+00,1.644187232854574919e+09,-3.069295884950524744e-01,0.000000000000000000e+00,0.000000000000000000e+00,-3.493420179235594003e-01,-1.191816390774581791e+00,-2.720983463346752368e-02,-1.847748808844637824e-01
3.633333333333333304e+00,1.644187232872602940e+09,-3.123613312729316416e-01,0.000000000000000000e+00,0.000000000000000000e+00,-3.493420179235594003e-01,-1.245919541787202434e+00,-3.043598181158642391e-02,-2.023140594027982575e-01
3.649999999999999911e+00,1.644187232891530037e+09,-3.175123234929316252e-01,0.000000000000000000e+00,0.000000000000000000e+00,-3.172922915085532591e-01,-1.293385901374685787e+00,-3.395858218885963731e-02,-2.203478907151031341e-01
3.666666666666666519e+00,1.644187232908487320e+09,-3.223599137736644638e-01,0.000000000000000000e+00,0.000000000000000000e+00,-3.493420179235594003e-01,-1.333479999843314667e+00,-3.778479339644499890e-02,-2.387463461715730040e-01
3.683333333333333126e+00,1.644187232924467802e+09,-3.268826290347292551e-01,0.000000000000000000e+00,0.000000000000000000e+00,-3.172922915085532591e-01,-1.365511912729163058e+00,-4.191952858824771200e-02,-2.573701428585896678e-01
3.699999999999999734e+00,1.644187232943366289e+09,-3.310603375535920989e-01,0.000000000000000000e+00,0.000000000000000000e+00,-3.172922915085532591e-01,-1.388845358681094488e+00,-4.636531089060715038e-02,-2.760717832009151329e-01
3.716666666666666785e+00,1.644187232960454702e+09,-3.348744052597416587e-01,0.000000000000000000e+00,0.000000000000000000e+00,-3.172922915085532591e-01,-1.402905457545912338e+00,-5.112214610664714276e-02,-2.946967056106403193e-01
3.733333333333333393e+00,1.644187232976552725e+09,-3.383078439593729669e-01,0.000000000000000000e+00,0.000000000000000000e+00,-3.172922915085532591e-01,-1.407186062166106089e+00,-5.618741545185206021e-02,-3.130845373015371802e-01
3.750000000000000000e+00,1.644187232993855715e+09,-3.413454502274482216e-01,0.000000000000000000e+00,0.000000000000000000e+00,-3.172922915085532591e-01,-1.401256580077922864e+00,-6.155578993905912177e-02,-3.310704391489621701e-01
3.766666666666666607e+00,1.644187233009803057e+09,-3.439739337585792645e-01,0.000000000000000000e+00,0.000000000000000000e+00,-3.172922915085532591e-01,-1.384768204897338206e+00,-6.721916785271182804e-02,-3.484865313169317469e-01
3.783333333333333215e+00,1.644187233028752089e+09,-3.461820340334700319e-01,0.000000000000000000e+00,0.000000000000000000e+00,-3.172922915085532591e-01,-1.357459481682383506e+00,-7.316663655534694222e-02,-3.651633873090030513e-01
3.799999999999999822e+00,1.644187233045704842e+09,-3.479606242332800026e-01,0.000000000000000000e+00,0.000000000000000000e+00,-3.172922915085532591e-01,-1.319161135929708850e+00,-7.938445965555387951e-02,-3.809315831409579300e-01
3.816666666666666430e+00,1.644187233062041998e+09,-3.493028014197061548e-01,0.000000000000000000e+00,0.000000000000000000e+00,-3.172922915085532591e-01,-1.269800102060497204e+00,-8.585609033792279687e-02,-3.956232874929306309e-01
3.833333333333333481e+00,1.644187233078131199e+09,-3.502039620933046216e-01,0.000000000000000000e+00,0.000000000000000000e+00,-3.172922915085532591e-01,-1.209402694224218644e+00,-9.256221141384851636e-02,-4.090738779874085740e-01
3.850000000000000089e+00,1.644187233096383810e+09,-3.506618623458762629e-01,0.000000000000000000e+00,0.000000000000000000e+00,-3.172922915085532591e-01,-1.138096869939097422e+00,-9.948080239971517080e-02,-4.211235681671935405e-01
3.866666666666666696e+00,1.644187233112712383e+09,-3.506766619339297120e-01,0.000000000000000000e+00,0.000000000000000000e+00,-3.172922915085532591e-01,-1.056113545426265343e+00,-1.065872336683357929e-01,-4.316190293223440277e-01
3.883333333333333304e+00,1.644187233127931356e+09,-3.502509517184601573e-01,0.000000000000000000e+00,0.000000000000000000e+00,-3.172922915085532591e-01,-9.637869304049928587e-01,-1.138543874530755090e-01,-4.404149910443541649e-01
3.899999999999999911e+00,1.644187233147080421e+09,-3.493897640406745664e-01,0.000000000000000000e+00,0.000000000000000000e+00,-3.172922915085532591e-01,-8.615538595146339240e-01,-1.212528052144640212e-01,-4.473758042748762209e-01
3.916666666666666519e+00,1.644187233163152456e+09,-3.481005657328945513e-01,0.000000000000000000e+00,0.000000000000000000e+00,-3.493420179235594003e-01,-7.499521073257003900e-01,-1.287508606089995400e-01,-4.523769506691023845e-01
3.933333333333333126e+00,1.644187233180690289e+09,-3.463932335976835919e-01,0.000000000000000000e+00,0.000000000000000000e+00,-3.172922915085532591e-01,-6.296176840018261611e-01,-1.363149570320105197e-01,-4.553064823127885297e-01
3.949999999999999734e+00,1.644187233197673559e+09,-3.442800123251761324e-01,0.000000000000000000e+00,0.000000000000000000e+00,-3.493420179235594003e-01,-5.012811189761211539e-01,-1.439097484436462904e-01,-4.560663762174214653e-01
3.966666666666666785e+00,1.644187233214259386e+09,-3.417754549576196288e-01,0.000000000000000000e+00,0.000000000000000000e+00,-3.172922915085532591e-01,-3.657627504054355994e-01,-1.514983819320805947e-01,-4.545737885690777635e-01
3.983333333333333393e+00,1.644187233232234478e+09,-3.388963461500361651e-01,0.000000000000000000e+00,0.000000000000000000e+00,-3.172922915085532591e-01,-2.239670485583782900e-01,-1.590427602235688354e-01,-4.507621944202291897e-01
4.000000000000000000e+00,1.644187233251264095e+09,-3.356616086156165024e-01,0.000000000000000000e+00,0.000000000000000000e+00,-3.172922915085532591e-01,-7.687601156841862571e-02,-1.665038221177720656e-01,-4.445823993854995937e-01
4.016666666666666607e+00,1.644187233265193939e+09,-3.320921932827609613e-01,0.000000000000000000e+00,0.000000000000000000e+00,-3.172922915085532591e-01,7.445831796537136227e-02,-1.738418386113301795e-01,-4.360034109258519308e-01
4.033333333333333215e+00,1.644187233282351971e+09,-3.282109538264007531e-01,0.000000000000000000e+00,0.000000000000000000e+00,-3.172922915085532591e-01,2.289221573290372291e-01,-1.810167222754949790e-01,-4.250131579728698705e-01
4.049999999999999822e+00,1.644187233298514128e+09,-3.240425063682627616e-01,0.000000000000000000e+00,0.000000000000000000e+00,-3.172922915085532591e-01,3.853490415150945259e-01,-1.879883472770354780e-01,-4.116190489460778146e-01
4.066666666666666430e+00,1.644187233313484430e+09,-3.196130752678651987e-01,0.000000000000000000e+00,0.000000000000000000e+00,-3.493420179235594003e-01,5.425295582954651197e-01,-1.947168772777452261e-01,-3.958483596404436256e-01
4.083333333333333037e+00,1.644187233332432747e+09,-3.149503260471973598e-01,0.000000000000000000e+00,0.000000000000000000e+00,-3.172922915085532591e-01,6.992216762287898346e-01,-2.011630983186566135e-01,-3.777484439957190521e-01
4.099999999999999645e+00,1.644187233349392414e+09,-3.100831866061184439e-01,6.826130835967072485e-01,6.826130835967072485e-01,-3.493420179235594003e-01,8.541615739210290936e-01,-2.071944708325123563e-01,-3.461041605232343943e-01
4.116666666666666252e+00,1.644187233366321087e+09,-3.050416579914901893e-01,7.808013203839243577e-01,7.808013203839243577e-01,-3.172922915085532591e-01,1.006074872315295909e+00,-2.126682651972167659e-01,-3.108490962802096802e-01
4.133333333333332860e+00,1.644187233385651112e+09,-2.998566160799516211e-01,1.033285357836768004e+00,1.033285357836768004e+00,-3.172922915085532591e-01,1.153688166145559801e+00,-2.175040829619014071e-01,-2.695637197824862774e-01
4.150000000000000355e+00,1.644187233400608301e+09,-2.945596056211488012e-01,1.437727380793637932e+00,1.437727380793637932e+00,-3.172922915085532591e-01,1.295740746020199952e+00,-2.215820313678645848e-01,-2.199279692629591554e-01
4.166666666666666963e+00,1.644187233417704582e+09,-2.891826281642600471e-01,1.678522342438479864e+00,1.678522342438479864e+00,-3.172922915085532591e-01,1.430996398968885641e+00,-2.247876326812714431e-01,-1.648970555927628812e-01
4.183333333333333570e+00,1.644187233434693336e+09,-2.837579254551255148e-01,1.692549233408081832e+00,1.692549233408081832e+00,-3.172922915085532591e-01,1.558255172741830119e+00,-2.270641385509182819e-01,-1.084404762872841765e-01
4.200000000000000178e+00,1.644187233449908257e+09,-2.783177599434299432e-01,1.641117299852873357e+00,1.641117299852873357e+00,-3.172922915085532591e-01,1.676364987737391399e+00,-2.283982896607894830e-01,-5.181495371757523921e-02
4.216666666666666785e+00,1.644187233467810392e+09,-2.728941940787015241e-01,1.638779484691272659e+00,1.638779484691272659e+00,-3.172922915085532591e-01,1.784232980181766237e+00,-2.287819273258545616e-01,5.618891695373808004e-03
4.233333333333333393e+00,1.644187233485100985e+09,-2.675188700998519242e-01,1.704238309216084213e+00,1.704238309216084213e+00,-3.172922915085532591e-01,1.880836461114495650e+00,-2.281938828989291956e-01,6.478209344062477171e-02
4.250000000000000000e+00,1.644187233502055883e+09,-2.622227920352417918e-01,1.928668564729723034e+00,1.928668564729723034e+00,-3.172922915085532591e-01,1.965233377851138385e+00,-2.265853013974017116e-01,1.280718776487783095e-01
4.266666666666666607e+00,1.644187233518255711e+09,-2.570361116285534431e-01,1.912303858598520145e+00,1.912303858598520145e+00,-3.172922915085532591e-01,2.036572167896255170e+00,-2.239230387277456047e-01,1.912242154207017819e-01
4.283333333333333215e+00,1.644187233537226677e+09,-2.519879198899184769e-01,2.347137478656195153e+00,2.347137478656195153e+00,-3.172922915085532591e-01,2.094100899747857625e+00,-2.201489543939079974e-01,2.614707707269317005e-01
4.299999999999999822e+00,1.644187233554934502e+09,-2.471060459418210620e-01,2.087639995718550523e+00,2.087639995718550523e+00,-3.493420179235594003e-01,2.137175600639280137e+00,-2.152436890502147648e-01,3.269790986558689383e-01
4.316666666666666430e+00,1.644187233572274923e+09,-2.424168647852529279e-01,2.038545877324941635e+00,2.038545877324941635e+00,-3.172922915085532591e-01,2.165267677964411774e+00,-2.092585670963713618e-01,3.910575359568480569e-01
4.333333333333333037e+00,1.644187233588390112e+09,-2.379451155537843088e-01,1.704238309216084213e+00,1.704238309216084213e+00,-3.172922915085532591e-01,2.177970348873322415e+00,-2.022587419621177662e-01,4.487611884574179144e-01
4.349999999999999645e+00,1.644187233606367350e+09,-2.337137317518433732e-01,1.388633262400029045e+00,1.388633262400029045e+00,-3.493420179235594003e-01,2.175004001242544227e+00,-1.943491605834228031e-01,5.002455614727658872e-01
4.366666666666666252e+00,1.644187233622687578e+09,-2.297436848890966887e-01,1.241350907219203936e+00,1.241350907219203936e+00,-3.172922915085532591e-01,2.156220418841240161e+00,-1.856115544785897631e-01,5.481341441356069044e-01
4.383333333333332860e+00,1.644187233639970779e+09,-2.260538428258905830e-01,1.203945864633597651e+00,1.203945864633597651e+00,-3.172922915085532591e-01,2.121605813944621222e+00,-1.760923671139544289e-01,5.940408180806084903e-01
4.400000000000000355e+00,1.644187233658920050e+09,-2.226608440359996999e-01,1.166540822047990922e+00,1.166540822047990922e+00,-3.493420179235594003e-01,2.071282621793040235e+00,-1.658265262371695636e-01,6.377387012678408240e-01
4.416666666666666963e+00,1.644187233674134493e+09,-2.195789888731191630e-01,1.124460149139183684e+00,1.124460149139183684e+00,-3.172922915085532591e-01,2.005510023054434043e+00,-1.548533196283895796e-01,6.789316641956211207e-01
4.433333333333333570e+00,1.644187233691088915e+09,-2.168201487976126052e-01,1.026271912351966797e+00,1.026271912351966797e+00,-3.172922915085532591e-01,1.924683172706413758e+00,-1.432239788832321004e-01,7.164849082014366211e-01
4.450000000000000178e+00,1.644187233708043575e+09,-2.143936943808926188e-01,8.065172871615290395e-01,8.065172871615290395e-01,-3.493420179235594003e-01,1.829331126393198836e+00,-1.310174603014749861e-01,7.482091965122583677e-01
4.466666666666666785e+00,1.644187233723258257e+09,-2.123064427575694912e-01,6.335189652030990271e-01,6.335189652030990271e-01,-3.172922915085532591e-01,1.720113468207047802e+00,-1.183255651677303927e-01,7.747445086020162686e-01
4.483333333333333393e+00,1.644187233743178368e+09,-2.105626250412993838e-01,0.000000000000000000e+00,0.000000000000000000e+00,-3.493420179235594003e-01,1.597815656864751688e+00,-1.052994736933432762e-01,7.883486780753750089e-01
4.500000000000000000e+00,1.644187233761436462e+09,-2.091638740603013191e-01,0.000000000000000000e+00,0.000000000000000000e+00,-3.172922915085532591e-01,1.463343120265281572e+00,-9.206709848959564180e-02,7.995053548760486795e-01
4.516666666666666607e+00,1.644187233775886059e+09,-2.081092326041014406e-01,0.000000000000000000e+00,0.000000000000000000e+00,-3.172922915085532591e-01,1.317714141291203234e+00,-7.867043398551057387e-02,8.080705927268170274e-01
4.533333333333333215e+00,1.644187233795547962e+09,-2.073951822054884431e-01,0.000000000000000000e+00,0.000000000000000000e+00,-3.172922915085532591e-01,1.162051590320215988e+00,-6.515369874138303430e-02,8.139213839880263812e-01
4.549999999999999822e+00,1.644187233812770844e+09,-2.070156923123777082e-01,0.000000000000000000e+00,0.000000000000000000e+00,-3.493420179235594003e-01,9.975735721114160626e-01,-5.156297620972184054e-02,8.169568876582221639e-01
4.566666666666666430e+00,1.644187233828903198e+09,-2.069622895345796243e-01,0.000000000000000000e+00,0.000000000000000000e+00,-3.172922915085532591e-01,8.255830663933509950e-01,-3.794583662997369489e-02,8.170994658516965714e-01
4.583333333333333037e+00,1.644187233845149517e+09,-2.072241464819059020e-01,0.000000000000000000e+00,0.000000000000000000e+00,-3.493420179235594003e-01,6.474566524817466640e-01,-2.435094334914161829e-02,8.142955167788935578e-01
4.599999999999999645e+00,1.644187233864089012e+09,-2.077881895439059323e-01,0.000000000000000000e+00,0.000000000000000000e+00,-3.172922915085532591e-01,4.646324184724872075e-01,-1.082764704443662206e-02,8.085160941153967107e-01
4.616666666666666252e+00,1.644187233881043911e+09,-2.086392247993843763e-01,0.000000000000000000e+00,0.000000000000000000e+00,-3.172922915085532591e-01,2.785971648761155217e-01,2.574428523899179380e-03,7.997573046283295017e-01
4.633333333333332860e+00,1.644187233900318861e+09,-2.097600810869594823e-01,0.000000000000000000e+00,0.000000000000000000e+00,-3.172922915085532591e-01,9.087302087706314313e-02,1.580580548338677421e-02,7.880404780167930001e-01
4.650000000000000355e+00,1.644187233916720390e+09,-2.111317691178127287e-01,0.000000000000000000e+00,0.000000000000000000e+00,-3.172922915085532591e-01,-9.699640138329979067e-02,2.881757171494267467e-02,7.734121050955153898e-01
4.666666666666666963e+00,1.644187233932862520e+09,-2.127336553696292931e-01,0.000000000000000000e+00,0.000000000000000000e+00,-3.172922915085532591e-01,-2.834601830731698913e-01,4.156179773874391081e-02,7.559435426871613517e-01
4.683333333333333570e+00,1.644187233948196888e+09,-2.145436493679765688e-01,0.000000000000000000e+00,0.000000000000000000e+00,-3.493420179235594003e-01,-4.669744692962464749e-01,5.399194673751392393e-02,7.357304858667872427e-01
4.700000000000000178e+00,1.644187233967145920e+09,-2.165384028390838489e-01,6.194920742334965036e-01,6.194920742334965036e-01,-3.172922915085532591e-01,-6.460168944519051326e-01,6.614883841874044657e-02,7.231315138485872041e-01
4.716666666666666785e+00,1.644187233982496262e+09,-2.186935191074168838e-01,6.288433348798978528e-01,6.288433348798978528e-01,-3.172922915085532591e-01,-8.191009206475827753e-01,7.807487255802304793e-02,7.080345199465098993e-01
4.733333333333333393e+00,1.644187234000720501e+09,-2.209837710135985067e-01,6.522214864959022806e-01,6.522214864959022806e-01,-3.172922915085532591e-01,-9.847899468415911572e-01,8.973171928759601790e-02,6.908348655445087916e-01
4.750000000000000000e+00,1.644187234018644094e+09,-2.233833255440334231e-01,5.540332497086853936e-01,5.540332497086853936e-01,-3.493420179235594003e-01,-1.141711047192731421e+00,1.010690449063793434e-01,6.697029099676580222e-01
4.766666666666666607e+00,1.644187234033566475e+09,-2.258659732939984899e-01,5.493576193854842193e-01,5.493576193854842193e-01,-3.172922915085532591e-01,-1.288568199339879206e+00,1.120361602382717037e-01,6.464156183031923852e-01
4.783333333333333215e+00,1.644187234052083969e+09,-2.284053608315697315e-01,6.171542590718961385e-01,6.171542590718961385e-01,-3.172922915085532591e-01,-1.424154867021665494e+00,1.226090073022753496e-01,6.223927611066926158e-01
4.799999999999999822e+00,1.644187234066239119e+09,-2.309752239913110683e-01,5.914382922942917897e-01,5.914382922942917897e-01,-3.172922915085532591e-01,-1.547365806553486545e+00,1.327642216034169986e-01,5.963054215678976755e-01
4.816666666666666430e+00,1.644187234084401846e+09,-2.335496201045440534e-01,8.509357752319364199e-01,8.509357752319364199e-01,-3.172922915085532591e-01,-1.657207973169239734e+00,1.425089205755634136e-01,5.731228526301295201e-01
4.833333333333333037e+00,1.644187234103312731e+09,-2.361031571676563412e-01,9.888668697663604013e-01,9.888668697663604013e-01,-3.172922915085532591e-01,-1.752810411057573070e+00,1.518762918419128694e-01,5.510230890089264921e-01
4.849999999999999645e+00,1.644187234117681265e+09,-2.386112179614910400e-01,8.743139268479404036e-01,8.743139268479404036e-01,-3.493420179235594003e-01,-1.833433020011671744e+00,1.608514284003424999e-01,5.260626342311013337e-01
4.866666666666666252e+00,1.644187234135633230e+09,-2.410501771634515344e-01,7.480719081215189137e-01,7.480719081215189137e-01,-3.172922915085532591e-01,-1.898474101888442345e+00,1.693875848123101158e-01,4.983531079230183458e-01
4.883333333333332860e+00,1.644187234152796507e+09,-2.433976095395112837e-01,6.381945955262997572e-01,6.381945955262997572e-01,-3.493420179235594003e-01,-1.947476601444731337e+00,1.774437984804787816e-01,4.684755274895424648e-01
4.900000000000000355e+00,1.644187234170134544e+09,-2.456324873656037799e-01,0.000000000000000000e+00,0.000000000000000000e+00,-3.172922915085532591e-01,-1.980132968480678546e+00,1.849135209113893230e-01,4.280035889172872920e-01
4.916666666666666963e+00,1.644187234188445091e+09,-2.477353653065140493e-01,5.937761074558921548e-01,5.937761074558921548e-01,-3.172922915085532591e-01,-1.996288581456493016e+00,1.917940822680257729e-01,3.977478196606408223e-01
4.933333333333333570e+00,1.644187234205380917e+09,-2.496885510749521642e-01,6.405324106879001222e-01,6.405324106879001222e-01,-3.493420179235594003e-01,-1.995943686733043565e+00,1.981810653866283578e-01,3.687706486079525003e-01
4.950000000000000178e+00,1.644187234224351645e+09,-2.514762603032318911e-01,6.265055197182975988e-01,6.265055197182975988e-01,-3.493420179235594003e-01,-1.979253822182573730e+00,2.040894658069171141e-01,3.403164431465924844e-01
4.966666666666666785e+00,1.644187234238715887e+09,-2.530847541842219939e-01,6.171542590718961385e-01,6.171542590718961385e-01,-3.172922915085532591e-01,-1.946528708980048039e+00,2.095307879867506218e-01,3.127188801349564673e-01
4.983333333333333393e+00,1.644187234255767822e+09,-2.545024585759929070e-01,5.423441739006831241e-01,5.423441739006831241e-01,-3.172922915085532591e-01,-1.898229610768437325e+00,2.145123008614833182e-01,2.851392766457612193e-01
5.000000000000000000e+00,1.644187234278267145e+09,-2.557200634148626417e-01,0.000000000000000000e+00,0.000000000000000000e+00,-3.172922915085532591e-01,-1.834965174937485566e+00,2.189717922541889461e-01,2.500970323374308579e-01
5.016666666666666607e+00,1.644187234292217493e+09,-2.550275839106448394e-01,0.000000000000000000e+00,0.000000000000000000e+00,-3.172922915085532591e-01,-1.757485786306975717e+00,2.228627877858422868e-01,2.169146070339945664e-01
5.033333333333333215e+00,1.644187234308200598e+09,-2.541298132615583683e-01,0.000000000000000000e+00,0.000000000000000000e+00,-3.172922915085532591e-01,-1.655620612368506439e+00,2.262193957375638609e-01,1.859643222094645720e-01
5.049999999999999822e+00,1.644187234325154781e+09,-2.530287650654731713e-01,0.000000000000000000e+00,0.000000000000000000e+00,-3.493420179235594003e-01,-1.542907789057404999e+00,2.290800084290560423e-01,1.573885797003489739e-01
5.066666666666666430e+00,1.644187234341110945e+09,-2.517288102571302311e-01,0.000000000000000000e+00,0.000000000000000000e+00,-3.493420179235594003e-01,-1.420673824095017190e+00,2.314851886574419704e-01,1.313055024037127760e-01
5.083333333333333037e+00,1.644187234361066103e+09,-2.502365894575214189e-01,0.000000000000000000e+00,0.000000000000000000e+00,-3.493420179235594003e-01,-1.290314440468093293e+00,2.334772588416469952e-01,1.078081915450395389e-01
5.099999999999999645e+00,1.644187234377023697e+09,-2.485609059650221719e-01,0.000000000000000000e+00,0.000000000000000000e+00,-3.172922915085532591e-01,-1.153280313865176376e+00,2.350998798604502227e-01,8.696423196181671256e-02
5.116666666666666252e+00,1.644187234394975662e+09,-2.467126004402651063e-01,0.000000000000000000e+00,0.000000000000000000e+00,-3.493420179235594003e-01,-1.011062386109822686e+00,2.363976237421087923e-01,6.881544831166110099e-02
5.133333333333332860e+00,1.644187234409903288e+09,-2.447044084843552347e-01,0.000000000000000000e+00,0.000000000000000000e+00,-3.493420179235594003e-01,-8.651769006107401516e-01,2.374155443913680275e-01,5.337791265222285864e-02
5.150000000000000355e+00,1.644187234428420305e+09,-2.425508024474560542e-01,0.000000000000000000e+00,0.000000000000000000e+00,-3.172922915085532591e-01,-7.171503080387934270e-01,2.381987505265918403e-01,4.064220138301914698e-02
5.166666666666666963e+00,1.644187234445376873e+09,-2.402678189309134793e-01,0.000000000000000000e+00,0.000000000000000000e+00,-3.172922915085532591e-01,-5.685041911651355084e-01,2.387919849459569088e-01,3.057389711090182510e-02
5.183333333333333570e+00,1.644187234463327646e+09,-2.378728735599026367e-01,0.000000000000000000e+00,0.000000000000000000e+00,-3.172922915085532591e-01,-4.207403570488018607e-01,2.392392141478279222e-01,2.311432862488411316e-02
5.200000000000000178e+00,1.644187234479285479e+09,-2.353845647042361044e-01,0.000000000000000000e+00,0.000000000000000000e+00,-3.172922915085532591e-01,-2.753262425561006088e-01,2.395832321976378854e-01,1.818153986580579862e-02
5.216666666666666785e+00,1.644187234496241093e+09,-2.328224679116118745e-01,0.000000000000000000e+00,0.000000000000000000e+00,-3.172922915085532591e-01,-1.336807755525235564e-01,2.398652825632874852e-01,1.567147657428081056e-02
5.233333333333333393e+00,1.644187234513172865e+09,-2.302069228895494979e-01,0.000000000000000000e+00,0.000000000000000000e+00,-3.172922915085532591e-01,2.839170931592249758e-03,2.401247014350671727e-01,1.545937721802765306e-02
5.250000000000000000e+00,1.644187234531097889e+09,-2.275588149289949902e-01,0.000000000000000000e+00,0.000000000000000000e+00,-3.172922915085532591e-01,1.329516006440714104e-01,2.403985858065591508e-01,1.740135285727020809e-02
5.266666666666666607e+00,1.644187234547055483e+09,-2.248993527036242113e-01,0.000000000000000000e+00,0.000000000000000000e+00,-3.493420179235594003e-01,2.554613689089135775e-01,2.407214893223824648e-01,2.133613882326212269e-02
5.283333333333333215e+00,1.644187234564044952e+09,-2.222498444039487653e-01,0.000000000000000000e+00,0.000000000000000000e+00,-3.172922915085532591e-01,3.692711958900923852e-01,2.411251485997951416e-01,2.708699947735098562e-02
5.299999999999999822e+00,1.644187234581962109e+09,-2.196314741741781928e-01,0.000000000000000000e+00,0.000000000000000000e+00,-3.172922915085532591e-01,4.733916139086333796e-01,2.416382424071227275e-01,3.446376590183396205e-02
5.316666666666666430e+00,1.644187234598950148e+09,-2.170650808124763576e-01,0.000000000000000000e+00,0.000000000000000000e+00,-3.493420179235594003e-01,5.669497553870197493e-01,2.422861857360494864e-01,4.326498516269085964e-02
5.333333333333333037e+00,1.644187234614874125e+09,-2.145709406717037082e-01,0.000000000000000000e+00,0.000000000000000000e+00,-3.172922915085532591e-01,6.491968998818462566e-01,2.430909604404979107e-01,5.328015878960653401e-02
5.349999999999999645e+00,1.644187234632826567e+09,-2.121685566582920679e-01,0.000000000000000000e+00,0.000000000000000000e+00,-3.172922915085532591e-01,7.195147113330437882e-01,2.440709837358205070e-01,6.429204734983468006e-02
5.366666666666666252e+00,1.644187234649780750e+09,-2.098764551718123594e-01,0.000000000000000000e+00,0.000000000000000000e+00,-3.172922915085532591e-01,7.774201099781911095e-01,2.452410154621583460e-01,7.607901745646669656e-02
5.383333333333332860e+00,1.644187234664741755e+09,-2.077119927575401814e-01,0.000000000000000000e+00,0.000000000000000000e+00,-3.172922915085532591e-01,8.225687372213168480e-01,2.466121046190035693e-01,8.841740725331007078e-02
5.400000000000000355e+00,1.644187234685685158e+09,-2.056911741595261467e-01,0.000000000000000000e+00,0.000000000000000000e+00,-3.172922915085532591e-01,8.547569859671588777e-01,2.481915752782187234e-01,1.010838863602142174e-01
5.416666666666666963e+00,1.644187234700644732e+09,-2.038284833629569748e-01,0.000000000000000000e+00,0.000000000000000000e+00,-3.172922915085532591e-01,8.739225833936249410e-01,2.499830515840141265e-01,1.138577864443125615e-01
5.433333333333333570e+00,1.644187234719619513e+09,-2.021367291028445534e-01,0.000000000000000000e+00,0.000000000000000000e+00,-3.493420179235594003e-01,8.801437276915701213e-01,2.519865211546457040e-01,1.265233790018738258e-01
5.450000000000000178e+00,1.644187234735551596e+09,-2.006269061921458763e-01,0.000000000000000000e+00,0.000000000000000000e+00,-3.172922915085532591e-01,8.736367948079472034e-01,2.541984358157894919e-01,1.388720775875291746e-01
5.466666666666666785e+00,1.644187234750546217e+09,-1.993080738873732605e-01,0.000000000000000000e+00,0.000000000000000000e+00,-3.493420179235594003e-01,8.547526455408338553e-01,2.566118482234978071e-01,1.507045426055014237e-01
5.483333333333333393e+00,1.644187234769461870e+09,-1.981872523646465711e-01,0.000000000000000000e+00,0.000000000000000000e+00,-3.172922915085532591e-01,8.239715773107698649e-01,2.592165825790305189e-01,1.618326678718148837e-01
5.500000000000000000e+00,1.644187234789408922e+09,-1.972693382251965999e-01,0.000000000000000000e+00,0.000000000000000000e+00,-3.172922915085532591e-01,7.818969784336746720e-01,2.619994373021964917e-01,1.720814294558768442e-01
5.516666666666666607e+00,1.644187234805418968e+09,-1.965570397877838549e-01,0.000000000000000000e+00,0.000000000000000000e+00,-3.172922915085532591e-01,7.292477556115040116e-01,2.649444172174396650e-01,1.812905788008253860e-01
5.533333333333333215e+00,1.644187234822729349e+09,-1.960508327576678811e-01,0.000000000000000000e+00,0.000000000000000000e+00,-3.172922915085532591e-01,6.668496175117226699e-01,2.680329925208267960e-01,1.893161637893002736e-01
5.549999999999999822e+00,1.644187234839684486e+09,-1.957489366890165505e-01,0.000000000000000000e+00,0.000000000000000000e+00,-3.493420179235594003e-01,5.956253086031888522e-01,2.712443815391333835e-01,1.960318632477134893e-01
5.566666666666666430e+00,1.644187234858633757e+09,-1.956473124813978282e-01,0.000000000000000000e+00,0.000000000000000000e+00,-3.493420179235594003e-01,5.165838977442129831e-01,2.745558540668794900e-01,2.013301223490376046e-01
5.583333333333333037e+00,1.644187234873593807e+09,-1.957396809726685005e-01,0.000000000000000000e+00,0.000000000000000000e+00,-3.493420179235594003e-01,4.308092352763261967e-01,2.779430518756110802e-01,2.051230784615780955e-01
5.599999999999999645e+00,1.644187234890579462e+09,-1.960175625116295783e-01,0.000000000000000000e+00,0.000000000000000000e+00,-3.172922915085532591e-01,3.394477004720333757e-01,2.813803228337868889e-01,2.073432691779361625e-01
5.616666666666666252e+00,1.644187234907535553e+09,-1.964703372157012018e-01,0.000000000000000000e+00,0.000000000000000000e+00,-3.493420179235594003e-01,2.436953680399310540e-01,2.848410649567859609e-01,2.079441165222692678e-01
5.633333333333332860e+00,1.644187234924491644e+09,-1.970853254430591783e-01,-5.982753781178541397e-01,-5.982753781178541397e-01,-3.172922915085532591e-01,1.447847279353806638e-01,2.882154425321429847e-01,1.970115614438710527e-01
5.650000000000000355e+00,1.644187234942408323e+09,-1.978478878365492466e-01,-9.656537915776673975e-01,-9.656537915776673975e-01,-3.172922915085532591e-01,4.397109690983427854e-02,2.913444539473571404e-01,1.785211717841930223e-01
5.666666666666666963e+00,1.644187234958400011e+09,-1.987415441297342156e-01,-1.039129474269630427e+00,-1.039129474269630427e+00,-3.172922915085532591e-01,-5.748113698773671398e-02,2.941436849722993130e-01,1.574450972382947511e-01
5.683333333333333570e+00,1.644187234976351976e+09,-1.997481097449217424e-01,-9.306653712481621765e-01,-9.306653712481621765e-01,-3.172922915085532591e-01,-1.583122943907529501e-01,2.965956133923332572e-01,1.368435410576122335e-01
5.700000000000000178e+00,1.644187234992772102e+09,-2.008478490603191058e-01,-8.956769509186557343e-01,-8.956769509186557343e-01,-3.172922915085532591e-01,-2.572810665976910105e-01,2.986981910417827457e-01,1.155249964495569798e-01
5.716666666666666785e+00,1.644187235009728909e+09,-2.020196440798245896e-01,-8.466931624573471593e-01,-8.466931624573471593e-01,-3.493420179235594003e-01,-3.531779186052404484e-01,3.004419244867046479e-01,9.378341165359196929e-02
5.733333333333333393e+00,1.644187235026648760e+09,-2.032411771055141481e-01,-7.032406391063723561e-01,-7.032406391063723561e-01,-3.172922915085532591e-01,-4.448380951869396194e-01,3.018334547283462177e-01,7.325723584039520175e-02
5.750000000000000000e+00,1.644187235044691801e+09,-2.044891258907915454e-01,-7.207348492711255217e-01,-7.207348492711255217e-01,-3.172922915085532591e-01,-5.311540963504741697e-01,3.028713788072261437e-01,5.135449600115525592e-02
5.766666666666666607e+00,1.644187235062029123e+09,-2.057393696423723273e-01,-6.227672723485083717e-01,-6.227672723485083717e-01,-3.493420179235594003e-01,-6.110874941901147661e-01,3.035497733292876754e-01,3.011185537011667676e-02
5.783333333333333215e+00,1.644187235079130173e+09,-2.069672041427151887e-01,0.000000000000000000e+00,0.000000000000000000e+00,-3.172922915085532591e-01,-6.836799701214242297e-01,3.039530483023578089e-01,1.831391422835611238e-02
5.799999999999999822e+00,1.644187235095813751e+09,-2.081475641819965916e-01,0.000000000000000000e+00,0.000000000000000000e+00,-3.493420179235594003e-01,-7.480634596727089303e-01,3.041524277808803078e-01,5.646810421955144807e-03
5.816666666666666430e+00,1.644187235113202333e+09,-2.092552514209017611e-01,0.000000000000000000e+00,0.000000000000000000e+00,-3.172922915085532591e-01,-8.034693013270858275e-01,3.041347857668325050e-01,-7.726702586115128876e-03
5.833333333333333037e+00,1.644187235132466316e+09,-2.102651657530126006e-01,0.000000000000000000e+00,0.000000000000000000e+00,-3.493420179235594003e-01,-8.492362962680102267e-01,3.038897776654288507e-01,-2.163563275584499263e-02
5.849999999999999645e+00,1.644187235149544716e+09,-2.111525381987580940e-01,0.000000000000000000e+00,0.000000000000000000e+00,-3.493420179235594003e-01,-8.848175971727000322e-01,3.034099606625365597e-01,-3.590277570583105121e-02
5.866666666666666252e+00,1.644187235165671110e+09,-2.118931633422110050e-01,0.000000000000000000e+00,0.000000000000000000e+00,-3.172922915085532591e-01,-9.097863563099117812e-01,3.026908798312435978e-01,-5.034680081303662819e-02
5.883333333333332860e+00,1.644187235181647778e+09,-2.124636293175158064e-01,0.000000000000000000e+00,0.000000000000000000e+00,-3.172922915085532591e-01,-9.238400760070886175e-01,3.017311191573418538e-01,-6.478437473925303947e-02
5.900000000000000355e+00,1.644187235200576067e+09,-2.128415433636008935e-01,0.000000000000000000e+00,0.000000000000000000e+00,-3.493420179235594003e-01,-9.268036179289588228e-01,3.005323170503621522e-01,-7.903229959775599778e-02
5.916666666666666963e+00,1.644187235217554092e+09,-2.130057509939167204e-01,0.000000000000000000e+00,0.000000000000000000e+00,-3.493420179235594003e-01,-9.186308414197315031e-01,2.990991462875342566e-01,-9.290964285859032445e-02
5.933333333333333570e+00,1.644187235235056639e+09,-2.129365468720856580e-01,0.000000000000000000e+00,0.000000000000000000e+00,-3.493420179235594003e-01,-8.994048552651825457e-01,2.974392587187356107e-01,-1.062398362108780553e-01
5.950000000000000178e+00,1.644187235251013756e+09,-2.126158755442219273e-01,0.000000000000000000e+00,0.000000000000000000e+00,-3.493420179235594003e-01,-8.693368814871034189e-01,2.955631954372306414e-01,-1.188527209541581503e-01
5.966666666666666785e+00,1.644187235267026901e+09,-2.120275202538087211e-01,0.000000000000000000e+00,0.000000000000000000e+00,-3.172922915085532591e-01,-8.287637440471833372e-01,2.934842634899265668e-01,-1.305865180743071563e-01
5.983333333333333393e+00,1.644187235285658360e+09,-2.111572781548428090e-01,0.000000000000000000e+00,0.000000000000000000e+00,-3.172922915085532591e-01,-7.781440094669205276e-01,2.912183805581977647e-01,-1.412897019670270315e-01
6.000000000000000000e+00,1.644187235304654598e+09,-2.099931203427875259e-01,0.000000000000000000e+00,0.000000000000000000e+00,-3.172922915085532591e-01,-7.180528202222909995e-01,2.887838893823990727e-01,-1.508227577949331766e-01
6.016666666666666607e+00,1.644187235320612907e+09,-2.085253352398551974e-01,0.000000000000000000e+00,0.000000000000000000e+00,-3.493420179235594003e-01,-6.491754752071592360e-01,2.862013440264908892e-01,-1.590598036924776582e-01
6.033333333333333215e+00,1.644187235338563204e+09,-2.067466540004457565e-01,0.000000000000000000e+00,0.000000000000000000e+00,-3.172922915085532591e-01,-5.722998244428165737e-01,2.834932703804220466e-01,-1.658900604537890677e-01
6.049999999999999822e+00,1.644187235355522394e+09,-2.046523567430659774e-01,0.000000000000000000e+00,0.000000000000000000e+00,-3.493420179235594003e-01,-4.883075574124016160e-01,2.806839035739686072e-01,-1.712191529375423071e-01
6.066666666666666430e+00,1.644187235371475458e+09,-2.022403585657669700e-01,0.000000000000000000e+00,0.000000000000000000e+00,-3.493420179235594003e-01,-3.981644757958862080e-01,2.777989052237772039e-01,-1.749702291839489998e-01
6.083333333333333037e+00,1.644187235386785984e+09,-1.995112744617509315e-01,0.000000000000000000e+00,0.000000000000000000e+00,-3.172922915085532591e-01,-3.029098518585056632e-01,2.748650636528560676e-01,-1.770848851440029459e-01
6.099999999999999645e+00,1.644187235403743505e+09,-1.964684624191536111e-01,-9.656537915776673975e-01,-9.656537915776673975e-01,-3.172922915085532591e-01,-2.036449831975752356e-01,2.717766038229340042e-01,-1.934847382270015737e-01
6.116666666666666252e+00,1.644187235421645880e+09,-1.931180441627121935e-01,-1.417004413828294451e+00,-1.417004413828294451e+00,-3.493420179235594003e-01,-1.015210628844120389e-01,2.683688428978605045e-01,-2.153857352471398590e-01
6.133333333333332860e+00,1.644187235437813520e+09,-1.894689031737545881e-01,-1.252558838279616671e+00,-1.252558838279616671e+00,-3.172922915085532591e-01,2.273508835815729601e-03,2.646361397954059558e-01,-2.324911209687486879e-01
6.150000000000000355e+00,1.644187235456734657e+09,-1.855326598071903588e-01,-1.228066944048962439e+00,-1.228066944048962439e+00,-3.172922915085532591e-01,1.065262392729948299e-01,2.606384918071345536e-01,-2.471858180600767507e-01
6.166666666666666963e+00,1.644187235473031998e+09,-1.813236235086388426e-01,-1.060122526467333515e+00,-1.060122526467333515e+00,-3.493420179235594003e-01,2.100139479239465645e-01,2.564354521802809095e-01,-2.571512547422795669e-01
6.183333333333333570e+00,1.644187235489962101e+09,-1.768587223198412328e-01,-1.151092419324049709e+00,-1.151092419324049709e+00,-3.493420179235594003e-01,3.115163213495907302e-01,2.520691531246158079e-01,-2.667778906528554539e-01
6.200000000000000178e+00,1.644187235508439302e+09,-1.721574100447786915e-01,-1.291046100642073036e+00,-1.291046100642073036e+00,-3.172922915085532591e-01,4.098294769244279490e-01,2.475379883626700750e-01,-2.769336696195371372e-01
6.216666666666666785e+00,1.644187235525372505e+09,-1.672415516308275729e-01,-1.357524099268134998e+00,-1.357524099268134998e+00,-3.172922915085532591e-01,5.037793938008456873e-01,2.428427577742610644e-01,-2.864675174555829651e-01
6.233333333333333393e+00,1.644187235542348862e+09,-1.621352874974888447e-01,-1.063621368500284659e+00,-1.063621368500284659e+00,-3.172922915085532591e-01,5.922350705841219476e-01,2.380427580757749906e-01,-2.895239560556995828e-01
6.250000000000000000e+00,1.644187235558378935e+09,-1.568648777182181375e-01,-9.656537915776673975e-01,-9.656537915776673975e-01,-3.172922915085532591e-01,6.741212717925912923e-01,2.332170813843554846e-01,-2.895571546940313157e-01
6.266666666666666607e+00,1.644187235577540398e+09,-1.514585271273152234e-01,-7.592221116335819975e-01,-7.592221116335819975e-01,-3.172922915085532591e-01,7.484307291568098597e-01,2.284296320736763641e-01,-2.849495617579650419e-01
6.283333333333333215e+00,1.644187235591693163e+09,-1.459461925823461459e-01,-6.087719042167063499e-01,-6.087719042167063499e-01,-3.172922915085532591e-01,8.142356691532952606e-01,2.237482088444287809e-01,-2.768437424464409990e-01
6.299999999999999822e+00,1.644187235610860348e+09,-1.403593737618848980e-01,0.000000000000000000e+00,0.000000000000000000e+00,-3.172922915085532591e-01,8.706985448194526356e-01,2.192926455836291533e-01,-2.578765367719837998e-01
6.316666666666666430e+00,1.644187235626817942e+09,-1.347308890172801976e-01,0.000000000000000000e+00,0.000000000000000000e+00,-3.172922915085532591e-01,9.170818577908630420e-01,2.151569891438235016e-01,-2.384561827023304326e-01
6.333333333333333037e+00,1.644187235643147707e+09,-1.290946379245401787e-01,0.000000000000000000e+00,0.000000000000000000e+00,-3.493420179235594003e-01,9.527569655627294853e-01,2.113472503865373997e-01,-2.187671611856655263e-01
6.349999999999999645e+00,1.644187235661380291e+09,-1.234853522972379075e-01,0.000000000000000000e+00,0.000000000000000000e+00,-3.172922915085532591e-01,9.772117791129336650e-01,2.078663202414360589e-01,-1.989993680553486244e-01
6.366666666666666252e+00,1.644187235675367117e+09,-1.179383375226391306e-01,0.000000000000000000e+00,0.000000000000000000e+00,-3.493420179235594003e-01,9.900572671356939747e-01,2.047138972029378390e-01,-1.793459905645888308e-01
6.383333333333332860e+00,1.644187235693318605e+09,-1.124892061702330720e-01,0.000000000000000000e+00,0.000000000000000000e+00,-3.172922915085532591e-01,9.910326951100565385e-01,2.018864506482453136e-01,-1.600013324247286928e-01
6.400000000000000355e+00,1.644187235710273981e+09,-1.071736058936984259e-01,0.000000000000000000e+00,0.000000000000000000e+00,-3.172922915085532591e-01,9.800095401485739988e-01,1.993772206450522555e-01,-1.411586100857260551e-01
6.416666666666666963e+00,1.644187235727204084e+09,-1.020269437036060295e-01,-6.752499028427680905e-01,-6.752499028427680905e-01,-3.493420179235594003e-01,9.569940359110753469e-01,1.970829886815242127e-01,-1.341686425710595654e-01
6.433333333333333570e+00,1.644187235744182348e+09,-9.708410872816637671e-02,-8.991757929516067671e-01,-8.991757929516067671e-01,-3.172922915085532591e-01,9.221283156934136915e-01,1.948685462924251710e-01,-1.315716581362637305e-01
6.450000000000000178e+00,1.644187235761135817e+09,-9.237919560291953103e-02,-1.305041468773875390e+00,-1.305041468773875390e+00,-3.493420179235594003e-01,8.756901359737860879e-01,1.926345558462393970e-01,-1.364935232367461004e-01
6.466666666666666785e+00,1.644187235779991388e+09,-8.794523063706714827e-02,-1.245561154213715715e+00,-1.245561154213715715e+00,-3.172922915085532591e-01,8.180911770778760417e-01,1.903194739792922197e-01,-1.413029409887295862e-01
6.483333333333333393e+00,1.644187235794948816e+09,-8.381390289413739869e-02,-1.235064628114863616e+00,-1.235064628114863616e+00,-3.172922915085532591e-01,7.498739320648935003e-01,1.879169270144942505e-01,-1.469869056247644634e-01
6.500000000000000000e+00,1.644187235813899517e+09,-8.001530229786991966e-02,-1.430999781960097694e+00,-1.430999781960097694e+00,-3.172922915085532591e-01,6.717072092952289797e-01,1.853825732898270462e-01,-1.571074281111783932e-01
6.516666666666666607e+00,1.644187235830852270e+09,-7.657766683079315906e-02,-1.612939567673528973e+00,-1.612939567673528973e+00,-3.172922915085532591e-01,5.843802882730295689e-01,1.826437507901112756e-01,-1.715112602681376219e-01
6.533333333333333215e+00,1.644187235848804712e+09,-7.352714083324317362e-02,-1.591946515475824553e+00,-1.591946515475824553e+00,-3.172922915085532591e-01,4.887957821215542786e-01,1.796565512767583916e-01,-1.869099063106892389e-01
6.549999999999999822e+00,1.644187235865736961e+09,-7.088754633493118962e-02,-1.668921040200738615e+00,-1.668921040200738615e+00,-3.172922915085532591e-01,3.859612733080992619e-01,1.763899992179393528e-01,-2.050260170334141929e-01
6.566666666666666430e+00,1.644187235882692099e+09,-6.868016926028228109e-02,-1.651426830035985338e+00,-1.651426830035985338e+00,-3.172922915085532591e-01,2.769798018547777740e-01,1.728113779204819844e-01,-2.243548462056436099e-01
6.583333333333333037e+00,1.644187235901664734e+09,-6.692356224311286905e-02,-1.319036836905678634e+00,-1.319036836905678634e+00,-3.172922915085532591e-01,1.630392971243530553e-01,1.689434515300217154e-01,-2.397535454782054321e-01
6.599999999999999645e+00,1.644187235918595791e+09,-6.563336566685878948e-02,-8.746838987209525351e-01,-8.746838987209525351e-01,-3.172922915085532591e-01,4.540105523816162503e-02,1.648661330245864143e-01,-2.494976076974833312e-01
6.616666666666666252e+00,1.644187235934966326e+09,-6.482214841412052564e-02,-8.082059000948906835e-01,-8.082059000948906835e-01,-3.172922915085532591e-01,-7.461262584685834920e-02,1.606203649617249096e-01,-2.599654817336509716e-01
6.633333333333332860e+00,1.644187235951498985e+09,-6.449926966503219394e-02,-1.084614420697987747e+00,-1.084614420697987747e+00,-3.172922915085532591e-01,-1.956315327015457628e-01,1.561466852849936748e-01,-2.768292346135786119e-01
6.649999999999999467e+00,1.644187235968434095e+09,-6.467076292876902666e-02,-1.063621368500284659e+00,-1.063621368500284659e+00,-3.493420179235594003e-01,-3.162512156436088628e-01,1.513805118102767022e-01,-2.950609375412598934e-01
6.666666666666666963e+00,1.644187235987402916e+09,-6.533924332775455091e-02,-1.651426830035985338e+00,-1.651426830035985338e+00,-3.172922915085532591e-01,-4.350471258092300508e-01,1.462153986579707299e-01,-3.246703903197075136e-01
6.683333333333333570e+00,1.644187236002365351e+09,-6.650383898093506496e-02,-1.686415250365491669e+00,-1.686415250365491669e+00,-3.172922915085532591e-01,-5.505890699884321560e-01,1.405400929693597367e-01,-3.562784899703285713e-01
6.700000000000000178e+00,1.644187236021927118e+09,-6.816014715229207210e-02,-1.952327244869736855e+00,-1.952327244869736855e+00,-3.493420179235594003e-01,-6.614558394357169524e-01,1.342903104755215904e-01,-3.935917588815813217e-01
6.716666666666666785e+00,1.644187236038273811e+09,-7.030021564490453179e-02,-2.515640812174783303e+00,-2.515640812174783303e+00,-3.493420179235594003e-01,-7.662498665919164065e-01,1.273315145395027548e-01,-4.413311409250074702e-01
6.733333333333333393e+00,1.644187236053209066e+09,-7.291254973079103197e-02,-2.571622284701993166e+00,-2.571622284701993166e+00,-3.172922915085532591e-01,-8.636117628276536173e-01,1.195624761607544245e-01,-4.908160033384199039e-01
6.750000000000000000e+00,1.644187236071161270e+09,-7.598214471394945657e-02,-2.470155865746425761e+00,-2.470155865746425761e+00,-3.172922915085532591e-01,-9.522345909540372855e-01,1.109772989121778630e-01,-5.392706670348510478e-01
6.766666666666666607e+00,1.644187236087485313e+09,-7.949054402995685276e-02,-2.470155865746425761e+00,-2.470155865746425761e+00,-3.172922915085532591e-01,-1.030877728337635801e+00,1.015803742882785965e-01,-5.882243023123527870e-01
6.783333333333333215e+00,1.644187236106993437e+09,-8.341592259167965318e-02,-2.501645444042981392e+00,-2.501645444042981392e+00,-3.172922915085532591e-01,-1.098380179987167526e+00,9.136064441504829214e-02,-6.380049995062916368e-01
6.799999999999999822e+00,1.644187236123936892e+09,-8.773319489860714748e-02,-2.389682498988561665e+00,-2.389682498988561665e+00,-3.172922915085532591e-01,-1.153673205915567435e+00,8.032593926749423408e-02,-6.860262227738064267e-01
6.816666666666666430e+00,1.644187236140676498e+09,-9.241414723855503888e-02,-2.081784400088909415e+00,-2.081784400088909415e+00,-3.172922915085532591e-01,-1.195792133376930355e+00,6.853422266590905587e-02,-7.288607817299852520e-01
6.833333333333333037e+00,1.644187236156691551e+09,-9.742759312642382263e-02,-1.605941883607628018e+00,-1.605941883607628018e+00,-3.172922915085532591e-01,-1.223887232173375583e+00,5.609635617578749567e-02,-7.635867338362137824e-01
6.849999999999999645e+00,1.644187236172904730e+09,-1.027395509468235490e-01,-1.112605156961593122e+00,-1.112605156961593122e+00,-3.493420179235594003e-01,-1.237233540048609193e+00,4.315081669920297486e-02,-7.898051726431326580e-01
6.866666666666666252e+00,1.644187236192877054e+09,-1.083134425970305181e-01,-7.242336913040767765e-01,-7.242336913040767765e-01,-3.172922915085532591e-01,-1.235239535148964229e+00,2.982584201992787357e-02,-8.091380850714082751e-01
6.883333333333332860e+00,1.644187236207812071e+09,-1.141103117653120558e-01,-5.912776940519530733e-01,-5.912776940519530733e-01,-3.493420179235594003e-01,-1.217454563540610879e+00,1.620214282286041446e-02,-8.256599235008835747e-01
6.899999999999999467e+00,1.644187236225957632e+09,-1.200890603283131658e-01,5.703979558398878380e-01,5.703979558398878380e-01,-3.493420179235594003e-01,-1.183574941718373852e+00,2.470492347212957518e-03,-8.221478894565442674e-01
6.916666666666666963e+00,1.644187236242676735e+09,-1.262067012112499109e-01,6.568971168191028998e-01,6.568971168191028998e-01,-3.172922915085532591e-01,-1.133448666809147465e+00,-1.118423853821304964e-02,-8.164356844042857109e-01
6.933333333333333570e+00,1.644187236258601904e+09,-1.324186259270697663e-01,8.976920784639444983e-01,8.976920784639444983e-01,-3.493420179235594003e-01,-1.067078680637470356e+00,-2.470212920285457664e-02,-8.057409037758695991e-01
6.950000000000000178e+00,1.644187236277816057e+09,-1.386788848966104548e-01,1.000555945574362671e+00,1.000555945574362671e+00,-3.172922915085532591e-01,-9.846246478506843758e-01,-3.801765449132385455e-02,-7.921598568586722955e-01
6.966666666666666785e+00,1.644187236294050217e+09,-1.449404785519679550e-01,1.444740826278438917e+00,1.444740826278438917e+00,-3.172922915085532591e-01,-8.864032227579641265e-01,-5.103378738921482416e-02,-7.698380972354400553e-01
6.983333333333333393e+00,1.644187236310178041e+09,-1.511556571405615890e-01,1.643455115014473389e+00,1.643455115014473389e+00,-3.172922915085532591e-01,-7.728867942809514169e-01,-6.363784859017340700e-02,-7.427245640222560619e-01
7.000000000000000000e+00,1.644187236330318928e+09,-1.572762270784498762e-01,1.984776128608132462e+00,1.984776128608132462e+00,-3.172922915085532591e-01,-6.447007132974219568e-01,-7.572891395147501870e-02,-7.082989084057759177e-01
7.016666666666666607e+00,1.644187236342287779e+09,-1.632538616488026784e-01,2.167125711212964490e+00,2.167125711212964490e+00,-3.172922915085532591e-01,-5.026190215381118875e-01,-8.720616266506941994e-02,-6.690798815309340064e-01
7.033333333333333215e+00,1.644187236359746933e+09,-1.690404138055665306e-01,2.312070251232188678e+00,2.312070251232188678e+00,-3.172922915085532591e-01,-3.475587159232904622e-01,-9.799374106333814949e-02,-6.255504442108502650e-01
7.049999999999999822e+00,1.644187236377895117e+09,-1.745882288234526236e-01,2.795997989683472351e+00,2.795997989683472351e+00,-3.172922915085532591e-01,-1.805725966554312389e-01,-1.079719366003926428e-01,-5.719818254566617632e-01
7.066666666666666430e+00,1.644187236394967556e+09,-1.798504545337171745e-01,3.053157657459517171e+00,3.053157657459517171e+00,-3.172922915085532591e-01,-2.840761373894329367e-03,-1.170046533178281944e-01,-5.121104938044658272e-01
7.083333333333333037e+00,1.644187236413330793e+09,-1.847813469006950871e-01,3.130305557792330440e+00,3.130305557792330440e+00,-3.172922915085532591e-01,1.843391789097181821e-01,-1.250112748726911194e-01,-4.488597933045687660e-01
7.099999999999999645e+00,1.644187236428853989e+09,-1.893365687266379549e-01,2.817038326137875970e+00,2.817038326137875970e+00,-3.172922915085532591e-01,3.795630736756911983e-01,-1.319887585087936577e-01,-3.886056196715734212e-01
7.116666666666666252e+00,1.644187236446414709e+09,-1.934734793218717552e-01,2.824051771622677176e+00,2.824051771622677176e+00,-3.172922915085532591e-01,5.813322962741155342e-01,-1.379414910879147027e-01,-3.258964859608391995e-01
7.133333333333332860e+00,1.644187236463364601e+09,-1.971514130431732958e-01,2.704823198381057114e+00,2.704823198381057114e+00,-3.493420179235594003e-01,7.880667856195929799e-01,-1.428456464945664917e-01,-2.627774974875098923e-01
7.149999999999999467e+00,1.644187236482623339e+09,-2.003319446851562768e-01,2.840416477753880287e+00,2.840416477753880287e+00,-3.172922915085532591e-01,9.981189451573116989e-01,-1.466587960656891843e-01,-1.949887575345339852e-01
7.166666666666666963e+00,1.644187236497611761e+09,-2.029791398066623231e-01,2.471041682221017055e+00,2.471041682221017055e+00,-3.172922915085532591e-01,1.209788269366453672e+00,-1.493732786772389298e-01,-1.309271090631930479e-01
7.183333333333333570e+00,1.644187236517493010e+09,-2.050597881859535232e-01,2.417271933504207215e+00,2.417271933504207215e+00,-3.493420179235594003e-01,1.421336560627041834e+00,-1.510071229234283552e-01,-6.531645658148282907e-02
7.200000000000000178e+00,1.644187236530681610e+09,-2.065436187240241583e-01,2.167125711212964490e+00,2.167125711212964490e+00,-3.172922915085532591e-01,1.631003593157558385e+00,-1.515621094768689059e-01,-1.459314955200241570e-03
7.216666666666666785e+00,1.644187236548932791e+09,-2.074034942536328863e-01,1.879574446336114368e+00,1.879574446336114368e+00,-3.172922915085532591e-01,1.837023075997167298e+00,-1.510728915272193662e-01,5.999475913403824051e-02
7.233333333333333393e+00,1.644187236567883492e+09,-2.076155848616462185e-01,1.765021503417694149e+00,1.765021503417694149e+00,-3.172922915085532591e-01,2.037638763703819134e+00,-1.495560400475398899e-01,1.218555787730506434e-01
7.250000000000000000e+00,1.644187236584048510e+09,-2.071595184927683686e-01,1.374606371430427076e+00,1.374606371430427076e+00,-3.493420179235594003e-01,2.231120561604449382e+00,-1.470439196848536134e-01,1.794389072942789709e-01
7.266666666666666607e+00,1.644187236601197481e+09,-2.060185077725587566e-01,1.213297125279998889e+00,1.213297125279998889e+00,-3.172922915085532591e-01,2.415780472084241293e+00,-1.435768054128061799e-01,2.364564196449688571e-01
7.283333333333333215e+00,1.644187236618135929e+09,-2.041794521654033967e-01,1.276418134643210189e+00,1.276418134643210189e+00,-3.493420179235594003e-01,2.589988229544399445e+00,-1.391344945878093542e-01,2.964542148897655327e-01
7.299999999999999822e+00,1.644187236636102915e+09,-2.016330147675127193e-01,1.262391243673607555e+00,1.262391243673607555e+00,-3.172922915085532591e-01,2.752186474282302342e+00,-1.336800419328332545e-01,3.579093908673879332e-01
7.316666666666666430e+00,1.644187236652163506e+09,-1.983736732245762469e-01,1.166540822047990922e+00,1.166540822047990922e+00,-3.172922915085532591e-01,2.900905319631270629e+00,-1.272025223514026693e-01,4.192226403139450164e-01
7.333333333333333037e+00,1.644187236668298006e+09,-1.943997444570087496e-01,1.332525698521619839e+00,1.332525698521619839e+00,-3.172922915085532591e-01,3.034776172199996402e+00,-1.196701676728885444e-01,4.844786501474578344e-01
7.349999999999999645e+00,1.644187236685231447e+09,-1.897133830712295910e-01,1.047312248806370416e+00,1.047312248806370416e+00,-3.493420179235594003e-01,3.152544671922795416e+00,-1.110823536031647768e-01,5.458884514232201779e-01
7.366666666666666252e+00,1.644187236703179836e+09,-1.843205535316555510e-01,1.115108888492782002e+00,1.115108888492782002e+00,-3.493420179235594003e-01,3.253082626805523514e+00,-1.014562743397095651e-01,6.090655640814033323e-01
7.383333333333332860e+00,1.644187236719382286e+09,-1.782309763635093747e-01,1.325512253036818411e+00,1.325512253036818411e+00,-3.493420179235594003e-01,3.335398826648995119e+00,-9.074553868065003692e-02,6.760366797504406833e-01
7.399999999999999467e+00,1.644187236736403942e+09,-1.714580488496917354e-01,1.512537465964850947e+00,1.512537465964850947e+00,-3.493420179235594003e-01,3.398648630563045003e+00,-7.889329973414649366e-02,7.460375424127354549e-01
7.416666666666666963e+00,1.644187236752302885e+09,-1.640187408742626030e-01,1.500848390156848788e+00,1.500848390156848788e+00,-3.172922915085532591e-01,3.442142234646688337e+00,-6.587965544003572538e-02,8.154070751986836063e-01
7.433333333333333570e+00,1.644187236771299601e+09,-1.559334667491875659e-01,1.332525698521619839e+00,1.332525698521619839e+00,-3.493420179235594003e-01,3.465351538693207889e+00,-5.173947675414210939e-02,8.812315171330371566e-01
7.450000000000000178e+00,1.644187236787028551e+09,-1.472259340383882120e-01,1.374606371430427076e+00,1.374606371430427076e+00,-3.172922915085532591e-01,3.467915544060641508e+00,-3.650514939553381466e-02,9.467058883659467128e-01
7.466666666666666785e+00,1.644187236803980589e+09,-1.379229705625126812e-01,1.444740826278438917e+00,1.444740826278438917e+00,-3.172922915085532591e-01,3.449644228801167500e+00,-2.018146250648336290e-02,1.011955285728223020e+00
7.483333333333333393e+00,1.644187236819937706e+09,-1.280543309278980302e-01,1.388633262400029045e+00,1.388633262400029045e+00,-3.172922915085532591e-01,3.410520860630532169e+00,-2.792451284568325115e-03,1.074552176556817340e+00
7.500000000000000000e+00,1.644187236834388733e+09,-1.176524840726421162e-01,1.374606371430427076e+00,1.374606371430427076e+00,-3.493420179235594003e-01,3.350702723201014255e+00,1.562099602519230121e-02,1.134893880824247470e+00
7.516666666666666607e+00,1.644187236852293015e+09,-1.067523834605260957e-01,1.213297125279998889e+00,1.213297125279998889e+00,-3.172922915085532591e-01,3.270520246273616927e+00,3.499844902248565315e-02,1.190246717352847705e+00
7.533333333333333215e+00,1.644187236869295359e+09,-9.539122167851456224e-02,1.028609727513567274e+00,1.028609727513567274e+00,-3.493420179235594003e-01,3.170474545620247220e+00,5.525147645622751486e-02,1.239978427804669492e+00
7.549999999999999822e+00,1.644187236887490988e+09,-8.360817130490923177e-02,1.019258466867165813e+00,1.019258466867165813e+00,-3.493420179235594003e-01,3.051233393676257677e+00,7.630873551397987509e-02,1.286762699755974237e+00
7.566666666666666430e+00,1.644187236903417110e+09,-7.144411401200878586e-02,9.374349362111512596e-01,9.374349362111512596e-01,-3.493420179235594003e-01,2.913625656960371568e+00,9.810896261446211408e-02,1.329146815875017484e+00
7.583333333333333037e+00,1.644187236920399666e+09,-5.894135994862778616e-02,6.989777897279102481e-01,6.989777897279102481e-01,-3.172922915085532591e-01,2.758634250936537136e+00,1.205553942246031518e-01,1.364327251609283920e+00
7.599999999999999645e+00,1.644187236937568903e+09,-4.614335951347242615e-02,5.891004771326910916e-01,5.891004771326910916e-01,-3.172922915085532591e-01,2.587387677168055955e+00,1.435444783195203855e-01,1.394279636752712381e+00
7.616666666666666252e+00,1.644187236954776287e+09,-3.309440967961888719e-02,5.961139226174925199e-01,5.961139226174925199e-01,-3.493420179235594003e-01,2.401150221170731847e+00,1.670038772853537634e-01,1.420774640183349424e+00
7.633333333333332860e+00,1.644187236971063614e+09,-1.983935706291668766e-02,9.865290546047599252e-01,9.865290546047599252e-01,-3.493420179235594003e-01,2.201310902176238482e+00,1.909275225649860741e-01,1.449981660850067078e+00
7.649999999999999467e+00,1.644187236987395525e+09,-6.423299942715270799e-03,1.026271912351966797e+00,1.026271912351966797e+00,-3.172922915085532591e-01,1.989371277945561900e+00,2.153101335308211517e-01,1.475859769722524195e+00
7.666666666666666963e+00,1.644187237003416538e+09,7.108708558069717215e-03,1.051987879129571146e+00,1.051987879129571146e+00,-3.493420179235594003e-01,1.766932218708192615e+00,2.400933005221975725e-01,1.498058604361777180e+00
7.683333333333333570e+00,1.644187237022364378e+09,2.071195394497408679e-02,1.124460149139183684e+00,1.124460149139183684e+00,-3.172922915085532591e-01,1.535679774140562115e+00,2.652214511798412500e-01,1.517266119092129273e+00
7.700000000000000178e+00,1.644187237038322449e+09,3.434234832272375915e-02,1.042636618483169686e+00,1.042636618483169686e+00,-3.493420179235594003e-01,1.297370265940283041e+00,2.906228571964082352e-01,1.530864827815953122e+00
7.716666666666666785e+00,1.644187237055277586e+09,4.795671076305313418e-02,1.122122333977583430e+00,1.122122333977583430e+00,-3.493420179235594003e-01,1.053814745917282636e+00,3.162263686946704122e-01,1.541526934315938790e+00
7.733333333333333393e+00,1.644187237073207617e+09,6.151303803576529949e-02,1.143162670431987049e+00,1.143162670431987049e+00,-3.493420179235594003e-01,8.068629655382687504e-01,3.419749063111042764e-01,1.548278823965675732e+00
7.750000000000000000e+00,1.644187237089502573e+09,7.497076375251110480e-02,1.180567713017593556e+00,1.180567713017593556e+00,-3.172922915085532591e-01,5.583870074677288464e-01,3.678058896271679257e-01,1.551430419324367538e+00
7.766666666666666607e+00,1.644187237106466532e+09,8.829100407088996683e-02,1.171216452371191652e+00,1.171216452371191652e+00,-3.172922915085532591e-01,3.102647328027657303e-01,3.936534018594505246e-01,1.550274260178317487e+00
7.783333333333333215e+00,1.644187237124419212e+09,1.014367882186468645e-01,1.047312248806370416e+00,1.047312248806370416e+00,-3.172922915085532591e-01,6.436319937013346149e-02,4.194307267089939506e-01,1.543024859465049081e+00
7.799999999999999822e+00,1.644187237141131401e+09,1.143732722230127175e-01,1.000555945574362671e+00,1.000555945574362671e+00,-3.172922915085532591e-01,-1.774777933733612256e-01,4.450483683016381309e-01,1.531125187075754956e+00
7.816666666666666430e+00,1.644187237158734083e+09,1.270679343676744955e-01,-1.102108630862741023e+00,-1.102108630862741023e+00,-3.172922915085532591e-01,-4.134618786244740329e-01,4.701463102897447399e-01,1.480767736596194872e+00
7.833333333333333037e+00,1.644187237175705194e+09,1.394907510482217283e-01,-1.546461569047467011e+00,-1.546461569047467011e+00,-3.172922915085532591e-01,-6.418518643020098002e-01,4.943189972443892688e-01,1.420123159085725728e+00
7.849999999999999645e+00,1.644187237192638397e+09,1.516143518552260649e-01,-1.798378195419910064e+00,-1.798378195419910064e+00,-3.172922915085532591e-01,-8.609848957749595133e-01,5.174242558860497887e-01,1.352695182257483975e+00
7.866666666666666252e+00,1.644187237210895777e+09,1.634141528808492616e-01,-1.623436093772380184e+00,-1.623436093772380184e+00,-3.172922915085532591e-01,-1.069286897813528370e+00,5.394104204136228597e-01,1.285830301203479076e+00
7.883333333333332860e+00,1.644187237226852894e+09,1.748684674189711630e-01,-1.420503255861245817e+00,-1.420503255861245817e+00,-3.172922915085532591e-01,-1.265286161376803831e+00,5.602923633364458311e-01,1.220185201326688507e+00
7.899999999999999467e+00,1.644187237243806601e+09,1.859585934087011061e-01,-1.609440725640577829e+00,-1.609440725640577829e+00,-3.172922915085532591e-01,-1.447625949190849637e+00,5.800380071951968253e-01,1.149488446220747084e+00
7.916666666666666963e+00,1.644187237262734413e+09,1.966688771554598314e-01,-1.644429145970084383e+00,-1.644429145970084383e+00,-3.172922915085532591e-01,-1.615076003621161105e+00,5.985871755701283048e-01,1.076614192019294869e+00
7.933333333333333570e+00,1.644187237280908823e+09,2.069867530511169951e-01,-2.074786716023008459e+00,-2.074786716023008459e+00,-3.172922915085532591e-01,-1.766542851008434001e+00,6.158514765912042055e-01,9.953277315476949383e-01
7.950000000000000178e+00,1.644187237297356367e+09,2.169027592034428742e-01,-2.172754292945624055e+00,-2.172754292945624055e+00,-3.172922915085532591e-01,-1.901078808312216983e+00,6.317401170934068277e-01,9.115418726911950209e-01
7.966666666666666785e+00,1.644187237314464092e+09,2.264105290739109599e-01,-1.843863141848268494e+00,-1.843863141848268494e+00,-3.172922915085532591e-01,-2.017889610479653761e+00,6.462731918029158695e-01,8.326462521095538971e-01
7.983333333333333393e+00,1.644187237332429886e+09,2.355067594101662720e-01,-1.882350404210725081e+00,-1.882350404210725081e+00,-3.493420179235594003e-01,-2.116340590301542868e+00,6.594833226268735915e-01,7.527912713770583686e-01
8.000000000000000000e+00,1.644187237354323626e+09,2.441911549437933426e-01,-1.983816823166292265e+00,-1.983816823166292265e+00,-3.172922915085532591e-01,-2.195961356506407114e+00,6.713485548627021737e-01,6.712630694800181264e-01
8.016666666666665719e+00,1.644187237367288351e+09,2.524663505039407285e-01,-1.672419882233688648e+00,-1.672419882233688648e+00,-3.172922915085532591e-01,-2.256448930337056513e+00,6.819009001764869682e-01,5.952295772900542126e-01
8.033333333333333215e+00,1.644187237381281853e+09,2.603378113714224229e-01,-1.049626000368482526e+00,-1.049626000368482526e+00,-3.172922915085532591e-01,-2.297669315712181692e+00,6.912768496258424600e-01,5.300653725726875987e-01
8.050000000000000711e+00,1.644187237399550200e+09,2.678137128648304111e-01,-1.413505571795344640e+00,-1.413505571795344640e+00,-3.172922915085532591e-01,-2.319657493152878835e+00,6.995224332630353148e-01,4.596004045196909749e-01
8.066666666666666430e+00,1.644187237414531946e+09,2.749048003086059788e-01,-1.661923356134837659e+00,-1.661923356134837659e+00,-3.172922915085532591e-01,-2.322615842802639552e+00,7.065686132255030172e-01,3.861452379082653263e-01
8.083333333333333925e+00,1.644187237433463573e+09,2.816242306817089425e-01,-1.644429145970084383e+00,-1.644429145970084383e+00,-3.493420179235594003e-01,-2.306911016942780890e+00,7.124052715427990901e-01,3.144529102090881656e-01
8.099999999999999645e+00,1.644187237452435970e+09,2.879873973833220746e-01,-1.619937251739430151e+00,-1.619937251739430151e+00,-3.172922915085532591e-01,-2.273069297254952659e+00,7.170650169797109230e-01,2.449097222889365932e-01
8.116666666666667140e+00,1.644187237467389107e+09,2.940117396779359238e-01,-1.721403670694997334e+00,-1.721403670694997334e+00,-3.493420179235594003e-01,-2.221770486565528557e+00,7.205683854493499796e-01,1.756867845316221477e-01
8.133333333333332860e+00,1.644187237483346701e+09,2.997165384950771783e-01,-1.172085471521752797e+00,-1.172085471521752797e+00,-3.172922915085532591e-01,-2.153840398780634935e+00,7.230128540377874780e-01,1.178102181048115149e-01
8.150000000000000355e+00,1.644187237502249718e+09,3.051227003581532538e-01,-1.336531047070431910e+00,-1.336531047070431910e+00,-3.172922915085532591e-01,-2.070242024050819474e+00,7.244895404702942354e-01,5.955398048695056262e-02
8.166666666666666075e+00,1.644187237519478083e+09,3.102525313014984354e-01,-1.263055364378468992e+00,-1.263055364378468992e+00,-3.493420179235594003e-01,-1.972065458760916545e+00,7.250270446839187644e-01,5.097795887669655246e-03
8.183333333333333570e+00,1.644187237536212683e+09,3.151295027042194108e-01,-1.284048416576172080e+00,-1.284048416576172080e+00,-3.493420179235594003e-01,-1.860516701601954814e+00,7.246769749354313728e-01,-4.696155300014511619e-02
8.199999999999999289e+00,1.644187237554164648e+09,3.197780110231527306e-01,-1.053124842401432337e+00,-1.053124842401432337e+00,-3.172922915085532591e-01,-1.736905427635414334e+00,7.235154083655195301e-01,-9.230049093084743972e-02
8.216666666666666785e+00,1.644187237570444345e+09,3.242231334450010327e-01,-1.560456937179269366e+00,-1.560456937179269366e+00,-3.493420179235594003e-01,-1.602631861802615409e+00,7.215529280366624887e-01,-1.430561572516884650e-01
8.233333333333332504e+00,1.644187237585458994e+09,3.284903814990133841e-01,-2.036299453660552317e+00,-2.036299453660552317e+00,-3.172922915085532591e-01,-1.459172881672278876e+00,7.187056213538586258e-01,-1.984667228244318404e-01
8.250000000000000000e+00,1.644187237604023457e+09,3.326054546764815045e-01,-1.696911776464342880e+00,-1.696911776464342880e+00,-3.172922915085532591e-01,-1.308067486276973668e+00,7.150102057277358814e-01,-2.448542949106643496e-01
8.266666666666665719e+00,1.644187237621975422e+09,3.365939960916678464e-01,-1.179083155587653975e+00,-1.179083155587653975e+00,-3.493420179235594003e-01,-1.150901773597011069e+00,7.106413015289321233e-01,-2.793184728649383275e-01
8.283333333333333215e+00,1.644187237637932777e+09,3.404813521908689466e-01,-1.448493992124849861e+00,-1.448493992124849861e+00,-3.493420179235594003e-01,-9.892935735557315535e-01,7.056878648197362214e-01,-3.149948289170854676e-01
8.300000000000000711e+00,1.644187237654057503e+09,3.442923384722227365e-01,-1.210572733884209162e+00,-1.210572733884209162e+00,-3.493420179235594003e-01,-8.248768862500586163e-01,7.002003209302312126e-01,-3.434314453631515662e-01
8.316666666666666430e+00,1.644187237672395706e+09,3.480510131191433820e-01,-1.098609788829789879e+00,-1.098609788829789879e+00,-3.172922915085532591e-01,-6.592862765338143305e-01,6.942810969484204398e-01,-3.668104891374008858e-01
8.333333333333333925e+00,1.644187237690344810e+09,3.517804603753273973e-01,-1.123101683060444111e+00,-1.123101683060444111e+00,-3.172922915085532591e-01,-4.941413759807535833e-01,6.879948784256454397e-01,-3.874783215986458695e-01
8.349999999999999645e+00,1.644187237705302477e+09,3.555025853997658136e-01,-1.165087787455851842e+00,-1.165087787455851842e+00,-3.493420179235594003e-01,-3.310316416896667002e-01,6.813837803360469625e-01,-4.058025473281394180e-01
8.366666666666667140e+00,1.644187237722259998e+09,3.592379222369385117e-01,-1.486981254487307780e+00,-1.486981254487307780e+00,-3.172922915085532591e-01,-1.715015183680611566e-01,6.744473837294434615e-01,-4.265075302691254122e-01
8.383333333333332860e+00,1.644187237740300417e+09,3.630054564210861701e-01,-1.864856194045971804e+00,-1.864856194045971804e+00,-3.172922915085532591e-01,-1.703614567709532679e-02,6.671379064155478211e-01,-4.505629252839475907e-01
8.400000000000000355e+00,1.644187237755638123e+09,3.668224636052753174e-01,-1.556958095146319332e+00,-1.556958095146319332e+00,-3.172922915085532591e-01,1.309522530119335837e-01,6.594937956650887001e-01,-4.666855785690615654e-01
8.416666666666666075e+00,1.644187237774787188e+09,3.707043654668059629e-01,-8.536908465232481147e-01,-8.536908465232481147e-01,-3.493420179235594003e-01,2.711371714570487423e-01,6.516996989296346410e-01,-4.686007097513775199e-01
8.433333333333333570e+00,1.644187237791570425e+09,3.746646039915754178e-01,1.028609727513567274e+00,1.028609727513567274e+00,-3.493420179235594003e-01,4.022896903908304012e-01,6.441520470058726966e-01,-4.372047341958755773e-01
8.449999999999999289e+00,1.644187237809962988e+09,3.787145350825310564e-01,1.012245021382364385e+00,1.012245021382364385e+00,-3.172922915085532591e-01,5.232893053517855275e-01,6.371377771393770262e-01,-4.045982255504774194e-01
8.466666666666666785e+00,1.644187237824221373e+09,3.828633422725682411e-01,1.119784518815983176e+00,1.119784518815983176e+00,-3.172922915085532591e-01,6.331336121166513120e-01,6.306924706158983929e-01,-3.689376168447882076e-01
8.483333333333332504e+00,1.644187237841197729e+09,3.871179711515051469e-01,1.026271912351966797e+00,1.026271912351966797e+00,-3.493420179235594003e-01,7.309467609469053606e-01,6.248371761028372884e-01,-3.337953444434125783e-01
8.500000000000000000e+00,1.644187237859127998e+09,3.914830849415363856e-01,9.163945997567476409e-01,9.163945997567476409e-01,-3.172922915085532591e-01,8.159866033040934497e-01,6.195593016978175882e-01,-2.996444499873788803e-01
8.516666666666665719e+00,1.644187237876091480e+09,3.959610414771762565e-01,1.103419812684780288e+00,1.103419812684780288e+00,-3.172922915085532591e-01,8.876504678521230929e-01,6.148816221929419568e-01,-2.617822658068881814e-01
8.533333333333333215e+00,1.644187237891439915e+09,4.005518916656665707e-01,1.044974433644769940e+00,1.044974433644769940e+00,-3.172922915085532591e-01,9.454795163164282368e-01,6.108296644194166625e-01,-2.245560755340096359e-01
8.550000000000000711e+00,1.644187237909384727e+09,4.052533993235472587e-01,1.089392921715177653e+00,1.089392921715177653e+00,-3.493420179235594003e-01,9.891616439758480483e-01,6.074051699514683156e-01,-1.864890049712109032e-01
8.566666666666666430e+00,1.644187237929357052e+09,4.100610821061170252e-01,1.119784518815983176e+00,1.119784518815983176e+00,-3.493420179235594003e-01,1.018532904078722545e+00,6.046181232924431326e-01,-1.480633345972738879e-01
8.583333333333333925e+00,1.644187237949331999e+09,4.149682730701548805e-01,1.110433258169581272e+00,1.110433258169581272e+00,-3.172922915085532591e-01,1.033577450159331113e+00,6.024669834596431128e-01,-1.101786829589919969e-01
8.599999999999999645e+00,1.644187237963266373e+09,4.199662022381199233e-01,1.262391243673607555e+00,1.262391243673607555e+00,-3.172922915085532591e-01,1.034426004936328081e+00,6.009631275560831654e-01,-7.039453957859981292e-02
8.616666666666667140e+00,1.644187237980529070e+09,4.250440973653679122e-01,1.210959310118398635e+00,1.210959310118398635e+00,-3.172922915085532591e-01,1.021352879056595553e+00,6.001079362321329880e-01,-3.233414510173301948e-02
8.633333333333332860e+00,1.644187237994985342e+09,4.301893029521132172e-01,1.213297125279998889e+00,1.213297125279998889e+00,-3.493420179235594003e-01,9.947715772620302488e-01,5.998784793729837750e-01,4.696456799783303715e-03
8.650000000000000355e+00,1.644187238015920401e+09,4.353874163902318184e-01,1.334863513683220315e+00,1.334863513683220315e+00,-3.172922915085532591e-01,9.552290434614920667e-01,6.002724137027066753e-01,4.247073175580565185e-02
8.666666666666666075e+00,1.644187238030489445e+09,4.406224399926934598e-01,1.264729058835208031e+00,1.264729058835208031e+00,-3.493420179235594003e-01,9.033986095475552425e-01,6.012738560286986500e-01,7.760475056952645390e-02
8.683333333333333570e+00,1.644187238049433231e+09,4.458769475217221334e-01,1.372268556268826600e+00,1.372268556268826600e+00,-3.172922915085532591e-01,8.400717254781843168e-01,6.028621192749284985e-01,1.128888253524134161e-01
8.699999999999999289e+00,1.644187238063843012e+09,4.511322637115627865e-01,1.388633262400029045e+00,1.388633262400029045e+00,-3.493420179235594003e-01,7.661485600196601409e-01,6.050256269770694084e-01,1.466383480239339399e-01
8.716666666666666785e+00,1.644187238082263470e+09,4.563686551741918951e-01,1.271742504320009015e+00,1.271742504320009015e+00,-3.172922915085532591e-01,6.826275725054609111e-01,6.077192842525230843e-01,1.765175253622380813e-01
8.733333333333332504e+00,1.644187238098404408e+09,4.615655309820907992e-01,1.215634940441599587e+00,1.215634940441599587e+00,-3.493420179235594003e-01,5.905941658956437301e-01,6.108863395853038059e-01,2.034542884684114317e-01
