# 
# 
# 
# 
# 
# 
# 
# 
# 
# 
# time,realtime,ref,inp,inp0,inp1,dis,state...
0.000000000000000000e+00,1.644187335683788061e+09,-0.000000000000000000e+00,0.000000000000000000e+00,0.000000000000000000e+00,-3.172922915085532591e-01,0.000000000000000000e+00,0.000000000000000000e+00,0.000000000000000000e+00
1.666666666666666644e-02,1.644187335688746691e+09,-6.418826485120109801e-06,0.000000000000000000e+00,0.000000000000000000e+00,-3.493420179235594003e-01,0.000000000000000000e+00,0.000000000000000000e+00,0.000000000000000000e+00
3.333333333333333287e-02,1.644187335690740824e+09,-2.573099529579324401e-05,0.000000000000000000e+00,0.000000000000000000e+00,-3.172922915085532591e-01,6.554416811020512150e-06,9.052993204033313402e-10,1.083349808632718697e-07
5.000000000000000278e-02,1.644187335708295107e+09,-5.798354769857891035e-05,0.000000000000000000e+00,0.000000000000000000e+00,-3.172922915085532591e-01,2.538228703685628090e-05,6.201733203738969727e-09,5.260766642608742679e-07
6.666666666666666574e-02,1.644187335723258734e+09,-1.031767434332470410e-04,0.000000000000000000e+00,0.000000000000000000e+00,-3.172922915085532591e-01,5.413036346579454239e-05,2.237352844810965914e-08,1.412077593446412548e-06
8.333333333333332871e-02,1.644187335740392923e+09,-1.612669257716369193e-04,0.000000000000000000e+00,0.000000000000000000e+00,-3.493420179235594003e-01,8.896668294798774196e-05,5.800124078434503287e-08,2.859227930243305948e-06
1.000000000000000056e-01,1.644187335760161400e+09,-2.321699459471909181e-04,0.000000000000000000e+00,0.000000000000000000e+00,-3.172922915085532591e-01,1.246019007009392427e-04,1.224701983309087082e-07,4.871457317712396143e-06
1.166666666666666685e-01,1.644187335773325682e+09,-3.157650632640398637e-04,0.000000000000000000e+00,0.000000000000000000e+00,-3.172922915085532591e-01,1.543540894588426703e-04,2.243077693649755733e-07,7.342187904325706975e-06
1.333333333333333315e-01,1.644187335793374062e+09,-4.118992299738261369e-04,0.000000000000000000e+00,0.000000000000000000e+00,-3.172922915085532591e-01,1.702564111404418457e-04,3.691793615732807785e-07,1.003492316445809830e-05
1.499999999999999944e-01,1.644187335810946703e+09,-5.203916641662132770e-04,0.000000000000000000e+00,0.000000000000000000e+00,-3.172922915085532591e-01,1.632062052751674652e-04,5.575841748941043096e-07,1.256662177239006617e-05
1.666666666666666574e-01,1.644187335826906204e+09,-6.410386095336579465e-04,0.000000000000000000e+00,0.000000000000000000e+00,-3.172922915085532591e-01,1.231531933766387356e-04,7.823021435500978734e-07,1.439445702667805132e-05
1.833333333333333204e-01,1.644187335844864845e+09,-7.736181780026473494e-04,5.774114013246892663e-01,5.774114013246892663e-01,-3.172922915085532591e-01,3.932368582160518410e-05,8.077800386080359520e-05,9.558577505484604220e-03
2.000000000000000111e-01,1.644187335862812519e+09,-9.178951699133207787e-04,5.423441739006831241e-01,5.423441739006831241e-01,-3.493420179235594003e-01,-9.952308881550196598e-05,3.136624951922969235e-04,1.836310386101756842e-02
2.166666666666666741e-01,1.644187335879200697e+09,-1.073625766698801812e-03,0.000000000000000000e+00,0.000000000000000000e+00,-3.172922915085532591e-01,-3.048111196377810655e-04,6.171358044773764175e-04,1.805455036640519345e-02
2.333333333333333370e-01,1.644187335900584221e+09,-1.240561992866332387e-03,0.000000000000000000e+00,0.000000000000000000e+00,-3.493420179235594003e-01,-5.878414386582611617e-04,9.154700807926644847e-04,1.774641873277893467e-02
2.500000000000000000e-01,1.644187335915578365e+09,-1.418455847496296555e-03,0.000000000000000000e+00,0.000000000000000000e+00,-3.493420179235594003e-01,-9.594694137553362112e-04,1.208660059734481323e-03,1.743723759694119566e-02
2.666666666666666630e-01,1.644187335933545351e+09,-1.607063010414450056e-03,0.000000000000000000e+00,0.000000000000000000e+00,-3.172922915085532591e-01,-1.429771749722111036e-03,1.496674765605112648e-03,1.712539336190853009e-02
2.833333333333333259e-01,1.644187335948458672e+09,-1.806146034599806320e-03,0.000000000000000000e+00,0.000000000000000000e+00,-3.172922915085532591e-01,-2.007709798955984587e-03,1.779455314548142189e-03,1.680915098298290181e-02
2.999999999999999889e-01,1.644187335966845989e+09,-2.015476944189604092e-03,0.000000000000000000e+00,0.000000000000000000e+00,-3.172922915085532591e-01,-2.700796036533883223e-03,2.056913107313953354e-03,1.648667992294152590e-02
3.166666666666666519e-01,1.644187335983193874e+09,-2.234839166539458188e-03,0.000000000000000000e+00,0.000000000000000000e+00,-3.493420179235594003e-01,-3.514770694078084030e-03,2.328928495690274925e-03,1.615608502299723664e-02
3.333333333333333148e-01,1.644187335999984264e+09,-2.464028737080263196e-03,0.000000000000000000e+00,0.000000000000000000e+00,-3.172922915085532591e-01,-4.453295569053252780e-03,2.595350001476034313e-03,1.581544192439392205e-02
3.499999999999999778e-01,1.644187336018951893e+09,-2.702854727056849815e-03,0.000000000000000000e+00,0.000000000000000000e+00,-3.172922915085532591e-01,-5.517671928809983820e-03,2.855994159885919328e-03,1.546283656717053687e-02
3.666666666666666408e-01,1.644187336034891129e+09,-2.951138856495975123e-03,0.000000000000000000e+00,0.000000000000000000e+00,-3.493420179235594003e-01,-6.706589211462226849e-03,3.110646050521645358e-03,1.509640818967710775e-02
3.833333333333333037e-01,1.644187336051848412e+09,-3.208714267778974873e-03,0.000000000000000000e+00,0.000000000000000000e+00,-3.172922915085532591e-01,-8.015910890029865135e-03,3.359060568639259895e-03,1.471439515672566187e-02
4.000000000000000222e-01,1.644187336070599794e+09,-3.475423448822917254e-03,0.000000000000000000e+00,0.000000000000000000e+00,-3.172922915085532591e-01,-9.438503415479001027e-03,3.600964477515627201e-03,1.431518285759131141e-02
4.166666666666666852e-01,1.644187336087805986e+09,-3.751115308929227864e-03,0.000000000000000000e+00,0.000000000000000000e+00,-3.493420179235594003e-01,-1.096411359342054463e-02,3.836059269436027912e-03,1.389735283911390160e-02
4.333333333333333481e-01,1.644187336104753733e+09,-4.035641424659832874e-03,0.000000000000000000e+00,0.000000000000000000e+00,-3.172922915085532591e-01,-1.257929908507907091e-02,4.064024848379736536e-03,1.345973227541887550e-02
4.500000000000000111e-01,1.644187336120740652e+09,-4.328851487461654254e-03,0.000000000000000000e+00,0.000000000000000000e+00,-3.493420179235594003e-01,-1.426741596416379945e-02,4.284524032086818070e-03,1.300144282564239667e-02
4.666666666666666741e-01,1.644187336139264822e+09,-4.630587998991941498e-03,0.000000000000000000e+00,0.000000000000000000e+00,-3.172922915085532591e-01,-1.600866641745262581e-02,4.497207855083659722e-03,1.252194789568801189e-02
4.833333333333333370e-01,1.644187336155255079e+09,-4.940680274009745694e-03,0.000000000000000000e+00,0.000000000000000000e+00,-3.172922915085532591e-01,-1.778020875964936992e-02,4.701721637681321661e-03,1.202109730042952816e-02
5.000000000000000000e-01,1.644187336173076391e+09,-5.258937824104863330e-03,0.000000000000000000e+00,0.000000000000000000e+00,-3.493420179235594003e-01,-1.955633095507649730e-02,4.897711769208269901e-03,1.149916831965130601e-02
5.166666666666666075e-01,1.644187336188095093e+09,-5.585143208249859943e-03,0.000000000000000000e+00,0.000000000000000000e+00,-3.493420179235594003e-01,-2.130868781381353369e-02,5.084833137076462568e-03,1.095690215488622117e-02
5.333333333333333259e-01,1.644187336205846548e+09,-5.919044448005726308e-03,0.000000000000000000e+00,0.000000000000000000e+00,-3.493420179235594003e-01,-2.300660097269767099e-02,5.262757116992441628e-03,1.039553482542528162e-02
5.500000000000000444e-01,1.644187336223814726e+09,-6.260347116015798838e-03,0.000000000000000000e+00,0.000000000000000000e+00,-3.172922915085532591e-01,-2.461741969761430809e-02,5.431180024000351915e-03,9.816821590123800401e-03
5.666666666666666519e-01,1.644187336240753651e+09,-6.608706216026469064e-03,0.000000000000000000e+00,0.000000000000000000e+00,-3.493420179235594003e-01,-2.610693946867604504e-02,5.589831909366718178e-03,9.223054046946167067e-03
5.833333333333333703e-01,1.644187336255739212e+09,-6.963717980928388340e-03,0.000000000000000000e+00,0.000000000000000000e+00,-3.172922915085532591e-01,-2.743987425048068085e-02,5.738485574865634896e-03,8.617069143939238771e-03
5.999999999999999778e-01,1.644187336274689198e+09,-7.324911722083805865e-03,0.000000000000000000e+00,0.000000000000000000e+00,-3.172922915085532591e-01,-2.858037732197676525e-02,5.876965664064962361e-03,8.002249432706965218e-03
6.166666666666666963e-01,1.644187336290670156e+09,-7.691741868377056229e-03,0.000000000000000000e+00,0.000000000000000000e+00,-3.172922915085532591e-01,-2.949260456072227629e-02,6.005157680000987493e-03,7.382514007425568583e-03
6.333333333333333037e-01,1.644187336307831764e+09,-8.063580336893595366e-03,0.000000000000000000e+00,0.000000000000000000e+00,-3.172922915085532591e-01,-3.014131316027940030e-02,6.123016770393034311e-03,6.762299697695530951e-03
6.500000000000000222e-01,1.644187336325753212e+09,-8.439709378817075031e-03,0.000000000000000000e+00,0.000000000000000000e+00,-3.172922915085532591e-01,-3.049248792231269364e-02,6.230576115499484799e-03,6.146532220550534990e-03
6.666666666666666297e-01,1.644187336342017889e+09,-8.819315043970476012e-03,0.000000000000000000e+00,0.000000000000000000e+00,-3.493420179235594003e-01,-3.051398652097701489e-02,6.327954750034204233e-03,5.540587143999531512e-03
6.833333333333333481e-01,1.644187336358196020e+09,-9.201481405375270747e-03,0.000000000000000000e+00,0.000000000000000000e+00,-3.493420179235594003e-01,-3.017619449967067977e-02,6.415364649398594583e-03,4.950240669640630121e-03
6.999999999999999556e-01,1.644187336376496077e+09,-9.585185681241321573e-03,0.000000000000000000e+00,0.000000000000000000e+00,-3.172922915085532591e-01,-2.945268024121446698e-02,6.493116911956997930e-03,4.381610403061985889e-03
7.166666666666666741e-01,1.644187336393450260e+09,-9.969294385932513450e-03,0.000000000000000000e+00,0.000000000000000000e+00,-3.172922915085532591e-01,-2.832083976257127045e-02,6.561626873273573336e-03,3.841086445702556092e-03
7.333333333333332815e-01,1.644187336410566330e+09,-1.035256063370340943e-02,0.000000000000000000e+00,0.000000000000000000e+00,-3.493420179235594003e-01,-2.676252093332106077e-02,6.621417995180439893e-03,3.335253308240338464e-03
7.500000000000000000e-01,1.644187336425633907e+09,-1.073362270941788550e-02,0.000000000000000000e+00,0.000000000000000000e+00,-3.172922915085532591e-01,-2.476461661044907295e-02,6.673124382263583530e-03,2.870803310983043033e-03
7.666666666666666075e-01,1.644187336445965767e+09,-1.111100400911098178e-02,0.000000000000000000e+00,0.000000000000000000e+00,-3.172922915085532591e-01,-2.231961622590472247e-02,6.717491790797572304e-03,2.454442298683975378e-03
7.833333333333333259e-01,1.644187336461259365e+09,-1.148311444023239480e-02,0.000000000000000000e+00,0.000000000000000000e+00,-3.172922915085532591e-01,-1.942610556115960743e-02,6.755377010254140328e-03,2.092788653208080447e-03
8.000000000000000444e-01,1.644187336478178978e+09,-1.184825335682609081e-02,0.000000000000000000e+00,0.000000000000000000e+00,-3.172922915085532591e-01,-1.608920479585939853e-02,6.787745515133465808e-03,1.792266735064431890e-03
8.166666666666666519e-01,1.644187336497130156e+09,-1.220461408888904968e-02,0.000000000000000000e+00,0.000000000000000000e+00,-3.172922915085532591e-01,-1.232093542473720188e-02,6.815667304860146755e-03,1.558996021592131071e-03
8.333333333333333703e-01,1.644187336513061285e+09,-1.255029010786508532e-02,0.000000000000000000e+00,0.000000000000000000e+00,-3.172922915085532591e-01,-8.140507295160493220e-03,6.840310871648799633e-03,1.398677333217469973e-03
8.499999999999999778e-01,1.644187336529211760e+09,-1.288328285183712105e-02,0.000000000000000000e+00,0.000000000000000000e+00,-3.172922915085532591e-01,-3.574517821816305691e-03,6.862935260339463224e-03,1.316477647496534830e-03
8.666666666666666963e-01,1.644187336548232794e+09,-1.320151121466965963e-02,0.000000000000000000e+00,0.000000000000000000e+00,-3.172922915085532591e-01,1.342943622253527222e-03,6.884880209958044346e-03,1.316915091582178789e-03
8.833333333333333037e-01,1.644187336565401077e+09,-1.350282268332211183e-02,0.000000000000000000e+00,0.000000000000000000e+00,-3.172922915085532591e-01,6.570292067174739875e-03,6.907554393866899810e-03,1.403745775459568816e-03
9.000000000000000222e-01,1.644187336580343485e+09,-1.378500608701743908e-02,0.000000000000000000e+00,0.000000000000000000e+00,-3.172922915085532591e-01,1.205854879956235262e-02,6.932421803501355104e-03,1.579854179151153008e-03
9.166666666666666297e-01,1.644187336602307796e+09,-1.404580590113085198e-02,0.000000000000000000e+00,0.000000000000000000e+00,-3.493420179235594003e-01,1.775155215268021253e-02,6.960986349480523250e-03,1.847148835716655446e-03
9.333333333333333481e-01,1.644187336617244005e+09,-1.428293802779269546e-02,0.000000000000000000e+00,0.000000000000000000e+00,-3.172922915085532591e-01,2.358627929469264695e-02,6.994774782955327785e-03,2.206465057153395200e-03
9.499999999999999556e-01,1.644187336634199619e+09,-1.449410695451368997e-02,0.000000000000000000e+00,0.000000000000000000e+00,-3.172922915085532591e-01,2.949327961942512996e-02,7.035318069017226436e-03,2.657476431415248773e-03
9.666666666666666741e-01,1.644187336651504517e+09,-1.467702417188036269e-02,0.000000000000000000e+00,0.000000000000000000e+00,-3.172922915085532591e-01,3.539721883202222308e-02,7.084131372430707389e-03,3.198616775202138204e-03
9.833333333333332815e-01,1.644187336668463707e+09,-1.482942771177308411e-02,0.000000000000000000e+00,0.000000000000000000e+00,-3.172922915085532591e-01,4.121753127370803016e-02,7.142692843458286686e-03,3.827014158736359670e-03
1.000000000000000000e+00,1.644187336688357353e+09,-1.494910264886796514e-02,0.000000000000000000e+00,0.000000000000000000e+00,-3.172922915085532591e-01,4.686917646544908750e-02,7.212421417705161368e-03,4.538438525580302911e-03
1.016666666666666607e+00,1.644187336703344822e+09,-1.503390239063026601e-02,0.000000000000000000e+00,0.000000000000000000e+00,-3.172922915085532591e-01,5.226349429032181582e-02,7.294653868313820920e-03,5.327264313143674143e-03
1.033333333333333215e+00,1.644187336719300747e+09,-1.508177056481680225e-02,0.000000000000000000e+00,0.000000000000000000e+00,-3.493420179235594003e-01,5.730915169980767276e-02,7.390621371089526291e-03,6.186449338698097461e-03
1.050000000000000044e+00,1.644187336737538099e+09,-1.509076329889560628e-02,0.000000000000000000e+00,0.000000000000000000e+00,-3.172922915085532591e-01,6.191317234128070751e-02,7.501425862854974036e-03,7.107531052620661566e-03
1.066666666666666652e+00,1.644187336754494905e+09,-1.505907167296634611e-02,0.000000000000000000e+00,0.000000000000000000e+00,-3.172922915085532591e-01,6.598203908363452219e-02,7.628016490157912138e-03,8.080641076711631357e-03
1.083333333333333259e+00,1.644187336771755695e+09,-1.498504411691448622e-02,0.000000000000000000e+00,0.000000000000000000e+00,-3.172922915085532591e-01,6.942285808597950525e-02,7.771166459057758311e-03,9.094538742578109347e-03
1.100000000000000089e+00,1.644187336790473223e+09,-1.486720851382703802e-02,0.000000000000000000e+00,0.000000000000000000e+00,-3.493420179235594003e-01,7.214457183057673695e-02,7.931450606797658606e-03,1.013666412534782249e-02
1.116666666666666696e+00,1.644187336806435108e+09,-1.470429376529374874e-02,0.000000000000000000e+00,0.000000000000000000e+00,-3.172922915085532591e-01,7.405920744465001315e-02,8.109224022465558873e-03,1.119321083375742279e-02
1.133333333333333304e+00,1.644187336823384523e+09,-1.449525057024322709e-02,0.000000000000000000e+00,0.000000000000000000e+00,-3.493420179235594003e-01,7.508314568422917723e-02,8.304602046042299651e-03,1.224921857158450117e-02
1.149999999999999911e+00,1.644187336841709614e+09,-1.423927116753008308e-02,0.000000000000000000e+00,0.000000000000000000e+00,-3.172922915085532591e-01,7.513839516300147015e-02,8.517441973352735812e-03,1.328868523032408940e-02
1.166666666666666741e+00,1.644187336858635187e+09,-1.393580779368073716e-02,0.000000000000000000e+00,0.000000000000000000e+00,-3.172922915085532591e-01,7.415385579488108225e-02,8.747326788253146496e-03,1.429469801200502869e-02
1.183333333333333348e+00,1.644187336874844790e+09,-1.358458961107843546e-02,0.000000000000000000e+00,0.000000000000000000e+00,-3.172922915085532591e-01,7.206655499327978276e-02,8.993551232832642725e-03,1.524958281731352873e-02
1.199999999999999956e+00,1.644187336889824867e+09,-1.318563786845662958e-02,0.000000000000000000e+00,0.000000000000000000e+00,-3.493420179235594003e-01,6.882283994338064814e-02,9.255110511460299880e-03,1.613507087107554985e-02
1.216666666666666563e+00,1.644187336908803225e+09,-1.273927906487498304e-02,0.000000000000000000e+00,0.000000000000000000e+00,-3.493420179235594003e-01,6.437950924425746291e-02,9.530691905212248030e-03,1.693248129806122770e-02
1.233333333333333393e+00,1.644187336926728487e+09,-1.224615590035000971e-02,0.000000000000000000e+00,0.000000000000000000e+00,-3.172922915085532591e-01,5.870486741116399260e-02,9.818669549659760770e-03,1.762291811046644979e-02
1.250000000000000000e+00,1.644187336941717386e+09,-1.170723581094914451e-02,0.000000000000000000e+00,0.000000000000000000e+00,-3.172922915085532591e-01,5.177968613784941082e-02,1.011710260134405376e-02,1.818747982774631539e-02
1.266666666666666607e+00,1.644187336959640741e+09,-1.112381690334922346e-02,0.000000000000000000e+00,0.000000000000000000e+00,-3.172922915085532591e-01,4.359805684478403054e-02,1.042373698671656551e-02,1.860747972312020576e-02
1.283333333333333215e+00,1.644187336976606846e+09,-1.049753112349894810e-02,0.000000000000000000e+00,0.000000000000000000e+00,-3.493420179235594003e-01,3.416811987938707385e-02,1.073601089215126328e-02,1.886467448234195946e-02
1.300000000000000044e+00,1.644187336992578030e+09,-9.830344515967974484e-03,0.000000000000000000e+00,0.000000000000000000e+00,-3.493420179235594003e-01,2.351265678366064316e-02,1.105106411515829716e-02,1.894149887239593780e-02
1.316666666666666652e+00,1.644187337010034561e+09,-9.124554454651835275e-03,0.000000000000000000e+00,0.000000000000000000e+00,-3.172922915085532591e-01,1.166953329521174844e-02,1.136575135551754108e-02,1.882130385362355829e-02
1.333333333333333259e+00,1.644187337027166843e+09,-8.382783751534641364e-03,0.000000000000000000e+00,0.000000000000000000e+00,-3.172922915085532591e-01,-1.308017811069130771e-03,1.167665948112565390e-02,1.848859543116429180e-02
1.350000000000000089e+00,1.644187337042523623e+09,-7.607971577980101978e-03,0.000000000000000000e+00,0.000000000000000000e+00,-3.493420179235594003e-01,-1.535128331462016181e-02,1.198012875737423238e-02,1.792927143300537818e-02
1.366666666666666696e+00,1.644187337059818745e+09,-6.803361162285049071e-03,0.000000000000000000e+00,0.000000000000000000e+00,-3.172922915085532591e-01,-3.037613306747796380e-02,1.227227798135170980e-02,1.713085332456993487e-02
1.383333333333333304e+00,1.644187337077537298e+09,-5.972484257727670928e-03,0.000000000000000000e+00,0.000000000000000000e+00,-3.172922915085532591e-01,-4.628326600832875087e-02,1.254903341362379604e-02,1.608271012549237003e-02
1.399999999999999911e+00,1.644187337091444492e+09,-5.119142406803070533e-03,0.000000000000000000e+00,0.000000000000000000e+00,-3.172922915085532591e-01,-6.295864219386901328e-02,1.280616135136029496e-02,1.477627148452472124e-02
1.416666666666666741e+00,1.644187337109448671e+09,-4.247385059463504656e-03,0.000000000000000000e+00,0.000000000000000000e+00,-3.493420179235594003e-01,-8.027410222033443121e-02,1.303930413772552699e-02,1.320522699448724822e-02
1.433333333333333348e+00,1.644187337128369808e+09,-3.361484635665626126e-03,0.000000000000000000e+00,0.000000000000000000e+00,-3.172922915085532591e-01,-9.808817318242457617e-02,1.324401935433567809e-02,1.136570889150335419e-02
1.449999999999999956e+00,1.644187337143565893e+09,-2.465908655056747289e-03,0.000000000000000000e+00,0.000000000000000000e+00,-3.172922915085532591e-01,-1.162470580397815256e-01,1.341582189681709072e-02,9.256455381692250961e-03
1.466666666666666563e+00,1.644187337161493778e+09,-1.565289088881013533e-03,0.000000000000000000e+00,0.000000000000000000e+00,-3.172922915085532591e-01,-1.345858029594486360e-01,1.355022858868340681e-02,6.878951973835124856e-03
1.483333333333333393e+00,1.644187337178637266e+09,-6.643891208254237065e-04,0.000000000000000000e+00,0.000000000000000000e+00,-3.172922915085532591e-01,-1.529296349040284442e-01,1.364280494648787388e-02,4.237548367630183943e-03
1.500000000000000000e+00,1.644187337195929527e+09,2.319324657698447999e-04,5.727357710014885361e-01,5.727357710014885361e-01,-3.172922915085532591e-01,-1.710954594677910889e-01,1.376832022055607223e-02,1.080603828579027557e-02
1.516666666666666607e+00,1.644187337210883856e+09,1.118759027476388989e-03,6.358567803646993921e-01,6.358567803646993921e-01,-3.493420179235594003e-01,-1.888935067552745262e-01,1.400866311362537406e-02,1.801508328621138910e-02
1.533333333333333215e+00,1.644187337229837894e+09,1.991155652404432656e-03,6.498836713343019156e-01,6.498836713343019156e-01,-3.493420179235594003e-01,-2.061291109773350783e-01,1.436771785073364532e-02,2.505193788838589591e-02
1.550000000000000044e+00,1.644187337247785091e+09,2.844210303226572117e-03,0.000000000000000000e+00,0.000000000000000000e+00,-3.172922915085532591e-01,-2.226046074360737703e-01,1.475104370325971449e-02,2.095853524525859851e-02
1.566666666666666652e+00,1.644187337263722181e+09,3.673076187179342717e-03,5.820870316478899964e-01,5.820870316478899964e-01,-3.172922915085532591e-01,-2.381213287097325437e-01,1.514496653518703981e-02,2.629737412896723109e-02
1.583333333333333259e+00,1.644187337280697823e+09,4.473015007356384055e-03,5.680601406782874729e-01,5.680601406782874729e-01,-3.172922915085532591e-01,-2.524816801574744085e-01,1.562321175199853085e-02,3.107876992083595524e-02
1.600000000000000089e+00,1.644187337297630072e+09,5.239440731090012904e-03,6.311811500414986620e-01,6.311811500414986620e-01,-3.172922915085532591e-01,-2.654912733664223090e-01,1.618740790370533020e-02,3.660940504704709997e-02
1.616666666666666696e+00,1.644187337314607382e+09,5.967963495698941703e-03,5.891004771326910916e-01,5.891004771326910916e-01,-3.493420179235594003e-01,-2.769610948821106255e-01,1.683562099242232046e-02,4.116351499583978391e-02
1.633333333333333304e+00,1.644187337333720922e+09,6.654433259580115612e-03,7.200181261823138668e-01,7.200181261823138668e-01,-3.493420179235594003e-01,-2.867096865191007815e-01,1.757584282835039646e-02,4.764510048763192368e-02
1.649999999999999911e+00,1.644187337349008083e+09,7.294982797735401377e-03,6.171542590718961385e-01,6.171542590718961385e-01,-3.493420179235594003e-01,-2.945653127590916465e-01,1.840790321765202811e-02,5.218952253687703102e-02
1.666666666666666741e+00,1.644187337367089033e+09,7.886069635514709325e-03,0.000000000000000000e+00,0.000000000000000000e+00,-3.172922915085532591e-01,-3.003680902247767848e-01,1.922903315987591413e-02,4.636225775757353562e-02
1.683333333333333348e+00,1.644187337383889675e+09,8.424516512763163475e-03,5.493576193854842193e-01,5.493576193854842193e-01,-3.172922915085532591e-01,-3.039720539815208844e-01,2.002922665439449065e-02,4.965182368645434940e-02
1.699999999999999956e+00,1.644187337399847746e+09,8.907549972774573416e-03,0.000000000000000000e+00,0.000000000000000000e+00,-3.172922915085532591e-01,-3.052471354749602961e-01,2.080773822784499905e-02,4.378585985508783723e-02
1.716666666666666563e+00,1.644187337418798923e+09,9.332836676551718030e-03,0.000000000000000000e+00,0.000000000000000000e+00,-3.172922915085532591e-01,-3.040810272669642877e-01,2.148945501073827591e-02,3.803612595107849076e-02
1.733333333333333393e+00,1.644187337433940887e+09,9.698517052878084105e-03,0.000000000000000000e+00,0.000000000000000000e+00,-3.172922915085532591e-01,-3.003809103876003417e-01,2.207664811333679908e-02,3.244258434201996444e-02
1.750000000000000000e+00,1.644187337449571371e+09,1.000323590861030253e-02,0.000000000000000000e+00,0.000000000000000000e+00,-3.172922915085532591e-01,-2.940750210759118799e-01,2.257225907778726004e-02,2.704572302630430664e-02
1.766666666666666607e+00,1.644187337466523886e+09,1.024616964136445402e-02,0.000000000000000000e+00,0.000000000000000000e+00,-3.172922915085532591e-01,-2.851140349328858958e-01,2.297990546669761644e-02,2.188617605517918785e-02
1.783333333333333215e+00,1.644187337485124588e+09,1.042704971830167755e-02,0.000000000000000000e+00,0.000000000000000000e+00,-3.172922915085532591e-01,-2.734722480477931872e-01,2.330388001470482320e-02,1.700433070637542843e-02
1.800000000000000044e+00,1.644187337503075361e+09,1.054618210990577142e-02,0.000000000000000000e+00,0.000000000000000000e+00,-3.172922915085532591e-01,-2.591485364724078200e-01,2.354914315467068753e-02,1.243992529186943412e-02
1.816666666666666652e+00,1.644187337518701315e+09,1.060446239632441973e-02,0.000000000000000000e+00,0.000000000000000000e+00,-3.172922915085532591e-01,-2.421670774911347246e-01,2.372130879660256167e-02,8.231641691751979961e-03
1.833333333333333259e+00,1.644187337534659624e+09,1.060338629582356640e-02,0.000000000000000000e+00,0.000000000000000000e+00,-3.172922915085532591e-01,-2.225778184501869816e-01,2.382662330699635012e-02,4.416696873855074576e-03
1.849999999999999867e+00,1.644187337552555799e+09,1.054505539994986772e-02,0.000000000000000000e+00,0.000000000000000000e+00,-3.172922915085532591e-01,-2.004566814436596345e-01,2.387193770832147371e-02,1.030437781802292542e-03
1.866666666666666696e+00,1.644187337570555449e+09,1.043217793784726073e-02,0.000000000000000000e+00,0.000000000000000000e+00,-3.172922915085532591e-01,-1.759054948837716348e-01,2.386467319204580925e-02,-1.894055949984903633e-03
1.883333333333333304e+00,1.644187337586512804e+09,1.026806443253004686e-02,0.000000000000000000e+00,0.000000000000000000e+00,-3.493420179235594003e-01,-1.490516458788165854e-01,2.381278011313102405e-02,-4.326356969050396302e-03
1.899999999999999911e+00,1.644187337604464531e+09,1.005661815445871646e-02,0.000000000000000000e+00,0.000000000000000000e+00,-3.493420179235594003e-01,-1.200474503752252953e-01,2.372469070848409745e-02,-6.239058403990558471e-03
1.916666666666666741e+00,1.644187337620696545e+09,9.802320322134310329e-03,0.000000000000000000e+00,0.000000000000000000e+00,-3.172922915085532591e-01,-8.906924115705715239e-02,2.360926585557919163e-02,-7.608120903703273138e-03
1.933333333333333348e+00,1.644187337637670279e+09,9.510210045256109468e-03,0.000000000000000000e+00,0.000000000000000000e+00,-3.172922915085532591e-01,-5.631617700274119814e-02,2.347573625950515400e-02,-8.413194257674921905e-03
1.949999999999999956e+00,1.644187337653629303e+09,9.185859052866793620e-03,0.000000000000000000e+00,0.000000000000000000e+00,-3.172922915085532591e-01,-2.200877953911608773e-02,2.333363852618769441e-02,-8.637909516676063951e-03
1.966666666666666563e+00,1.644187337670562029e+09,8.835341296438654901e-03,0.000000000000000000e+00,0.000000000000000000e+00,-3.172922915085532591e-01,1.361279243034509492e-02,2.319274664563180863e-02,-8.270137762281092736e-03
1.983333333333333393e+00,1.644187337689483404e+09,8.465197565589372905e-03,0.000000000000000000e+00,0.000000000000000000e+00,-3.172922915085532591e-01,5.029071815045582650e-02,2.306299947089930288e-02,-7.302211951707658286e-03
2.000000000000000000e+00,1.644187337707435608e+09,8.082395301629937204e-03,0.000000000000000000e+00,0.000000000000000000e+00,-3.172922915085532591e-01,8.775172360308873543e-02,2.295442483537884701e-02,-5.731108589469056415e-03
2.016666666666666607e+00,1.644187337724390745e+09,7.694283840989027227e-03,0.000000000000000000e+00,0.000000000000000000e+00,-3.493420179235594003e-01,1.257095045708080394e-01,2.287706100196247247e-02,-3.558586346539215593e-03
2.033333333333333215e+00,1.644187337740374565e+09,7.308545366281900268e-03,0.000000000000000000e+00,0.000000000000000000e+00,-3.172922915085532591e-01,1.638673421408594622e-01,2.284087618230354680e-02,-7.912791578659661602e-04
2.049999999999999822e+00,1.644187337757302999e+09,6.933141886953909927e-03,0.000000000000000000e+00,0.000000000000000000e+00,-3.493420179235594003e-01,2.019208860598428190e-01,2.285568690174651432e-02,2.559258223688445823e-03
2.066666666666666430e+00,1.644187337774284840e+09,6.576258613589039577e-03,0.000000000000000000e+00,0.000000000000000000e+00,-3.493420179235594003e-01,2.395610789192026135e-01,2.293107601520620251e-02,6.476553758882135428e-03
2.083333333333333481e+00,1.644187337791237116e+09,6.246244129706408563e-03,0.000000000000000000e+00,0.000000000000000000e+00,-3.172922915085532591e-01,2.764771919791711441e-01,2.307631120072776640e-02,1.093927177301342452e-02
2.100000000000000089e+00,1.644187337809164762e+09,5.951547801757585410e-03,0.000000000000000000e+00,0.000000000000000000e+00,-3.493420179235594003e-01,3.123599415543415470e-01,2.330026477025508649e-02,1.592131722939179803e-02
2.116666666666666696e+00,1.644187337825122118e+09,5.700654901692490950e-03,0.000000000000000000e+00,0.000000000000000000e+00,-3.172922915085532591e-01,3.469046533151838863e-01,2.361133564094293480e-02,2.139199058062368070e-02
2.133333333333333304e+00,1.644187337845067739e+09,5.502019946510814524e-03,0.000000000000000000e+00,0.000000000000000000e+00,-3.172922915085532591e-01,3.798144406310978161e-01,2.401737430493011347e-02,2.731619259382146725e-02
2.149999999999999911e+00,1.644187337861027002e+09,5.363998785311595296e-03,0.000000000000000000e+00,0.000000000000000000e+00,-3.172922915085532591e-01,4.108033622128586249e-01,2.452561162071063838e-02,3.365467798158858909e-02
2.166666666666666519e+00,1.644187337880971670e+09,5.294779986190470758e-03,0.000000000000000000e+00,0.000000000000000000e+00,-3.172922915085532591e-01,4.395995238229488122e-01,2.514259222506617583e-02,4.036435610761553161e-02
2.183333333333333126e+00,1.644187337896929026e+09,5.302316092620021522e-03,0.000000000000000000e+00,0.000000000000000000e+00,-3.172922915085532591e-01,4.659480887242798408e-01,2.587411333102947186e-02,4.739863648039023547e-02
2.200000000000000178e+00,1.644187337913885832e+09,5.394255331456131348e-03,0.000000000000000000e+00,0.000000000000000000e+00,-3.493420179235594003e-01,4.896141618401966822e-01,2.672516963471814611e-02,5.470781620737150130e-02
2.216666666666666785e+00,1.644187337931837320e+09,5.577874362225394671e-03,0.000000000000000000e+00,0.000000000000000000e+00,-3.172922915085532591e-01,5.103855133057891846e-01,2.769990500240094786e-02,6.223950606145185055e-02
2.233333333333333393e+00,1.644187337948792934e+09,5.860012659716810207e-03,0.000000000000000000e+00,0.000000000000000000e+00,-3.493420179235594003e-01,5.280751082023277254e-01,2.880157154923139104e-02,6.993909131799354306e-02
2.250000000000000000e+00,1.644187337965745211e+09,6.247009119003307624e-03,0.000000000000000000e+00,0.000000000000000000e+00,-3.172922915085532591e-01,5.425234107781938819e-01,3.003249665320775405e-02,7.775022306032040864e-02
2.266666666666666607e+00,1.644187337980706930e+09,6.744641463790195489e-03,0.000000000000000000e+00,0.000000000000000000e+00,-3.172922915085532591e-01,5.536004333615869299e-01,3.139405837269545335e-02,8.561533523019249081e-02
2.283333333333333215e+00,1.644187337998659134e+09,7.358069025404439904e-03,0.000000000000000000e+00,0.000000000000000000e+00,-3.172922915085532591e-01,5.612075024482749974e-01,3.288666965397495090e-02,9.347618232305091035e-02
2.299999999999999822e+00,1.644187338015612602e+09,8.091779440835170784e-03,0.000000000000000000e+00,0.000000000000000000e+00,-3.172922915085532591e-01,5.652787170830583241e-01,3.450977162754272770e-02,1.012743923008674468e-01
2.316666666666666430e+00,1.644187338030571699e+09,8.949539794081142266e-03,0.000000000000000000e+00,0.000000000000000000e+00,-3.172922915085532591e-01,5.657820776230858550e-01,3.626183619916317769e-02,1.089520290229650940e-01
2.333333333333333481e+00,1.644187338048525572e+09,9.934352695790798701e-03,0.000000000000000000e+00,0.000000000000000000e+00,-3.172922915085532591e-01,5.627202662473577144e-01,3.814037804488864397e-02,1.164521582813622530e-01
2.350000000000000089e+00,1.644187338066475868e+09,1.104841776196637849e-02,0.000000000000000000e+00,0.000000000000000000e+00,-3.493420179235594003e-01,5.561310641280321487e-01,4.014197601944066718e-02,1.237194113756107661e-01
2.366666666666666696e+00,1.644187338080438614e+09,1.229309891357312570e-02,6.218298893950967576e-01,6.218298893950967576e-01,-3.172922915085532591e-01,5.460873939703511093e-01,4.234819134013807773e-02,1.409784841110041653e-01
2.383333333333333304e+00,1.644187338098391056e+09,1.366889787551760910e-02,6.615727471423037409e-01,6.615727471423037409e-01,-3.172922915085532591e-01,5.326969806204389091e-01,4.484331385412331644e-02,1.583878570597312962e-01
2.399999999999999911e+00,1.644187338117389679e+09,1.517543420595341905e-02,5.680601406782874729e-01,5.680601406782874729e-01,-3.172922915085532591e-01,5.161016265922176993e-01,4.761097982619832969e-02,1.736895538754980317e-01
2.416666666666666519e+00,1.644187338135338545e+09,1.681143213560177055e-02,5.610466951934863777e-01,5.610466951934863777e-01,-3.493420179235594003e-01,4.964761036320794463e-01,5.062788121292313009e-02,1.882980324691993224e-01
2.433333333333333126e+00,1.644187338150298595e+09,1.857471444213260048e-02,0.000000000000000000e+00,0.000000000000000000e+00,-3.493420179235594003e-01,4.740266657762194913e-01,5.380564673547917620e-02,1.930207113762469340e-01
2.450000000000000178e+00,1.644187338167254448e+09,2.046220352708257029e-02,0.000000000000000000e+00,0.000000000000000000e+00,-3.493420179235594003e-01,4.489891937127760690e-01,5.705801308625117751e-02,1.972514982540211903e-01
2.466666666666666785e+00,1.644187338184208393e+09,2.246992980276170393e-02,0.000000000000000000e+00,0.000000000000000000e+00,-3.172922915085532591e-01,4.216269845900214031e-01,6.037652891128116039e-02,2.009600988388249021e-01
2.483333333333333393e+00,1.644187338200142860e+09,2.459304743461733153e-02,0.000000000000000000e+00,0.000000000000000000e+00,-3.172922915085532591e-01,3.922282056629523561e-01,6.375228193828007262e-02,2.041214825728752125e-01
2.500000000000000000e+00,1.644187338218118429e+09,2.682585742111583127e-02,0.000000000000000000e+00,0.000000000000000000e+00,-3.493420179235594003e-01,3.611030342942076476e-01,6.717598901808101430e-02,2.067161593979777168e-01
2.516666666666666607e+00,1.644187338233245134e+09,2.916183792891973575e-02,0.000000000000000000e+00,0.000000000000000000e+00,-3.493420179235594003e-01,3.285805107720085605e-01,7.063809030639922604e-02,2.087303999558596523e-01
2.533333333333333215e+00,1.644187338252217293e+09,3.159368173653646916e-02,0.000000000000000000e+00,0.000000000000000000e+00,-3.172922915085532591e-01,2.950051341297487140e-01,7.412884661499626049e-02,2.101563958827584455e-01
2.549999999999999822e+00,1.644187338266157389e+09,3.411334057529457481e-02,0.000000000000000000e+00,0.000000000000000000e+00,-3.172922915085532591e-01,2.607332346026201564e-01,7.763843891124261321e-02,2.109923574965557602e-01
2.566666666666666430e+00,1.644187338284269333e+09,3.671207609302104546e-02,0.000000000000000000e+00,0.000000000000000000e+00,-3.172922915085532591e-01,2.261291594920690207e-01,8.115706890549632957e-02,2.112425468271698636e-01
2.583333333333333481e+00,1.644187338302212477e+09,3.938051710376162806e-02,0.000000000000000000e+00,0.000000000000000000e+00,-3.172922915085532591e-01,1.915613119877364046e-01,8.467505963730610763e-02,2.109172446284890423e-01
2.600000000000000089e+00,1.644187338319170237e+09,4.210872272687235518e-02,0.000000000000000000e+00,0.000000000000000000e+00,-3.172922915085532591e-01,1.573980848805886790e-01,8.818295495473202350e-02,2.100326507257395947e-01
2.616666666666666696e+00,1.644187338335870981e+09,4.488625096139374493e-02,0.000000000000000000e+00,0.000000000000000000e+00,-3.493420179235594003e-01,1.240037330561891832e-01,9.167161677645987994e-02,2.086107177882815522e-01
2.633333333333333304e+00,1.644187338354203463e+09,4.770223218735994419e-02,0.000000000000000000e+00,0.000000000000000000e+00,-3.172922915085532591e-01,9.173423015333520558e-02,9.513231903414109958e-02,2.066789193664892443e-01
2.649999999999999911e+00,1.644187338370610237e+09,5.054544703512409143e-02,0.000000000000000000e+00,0.000000000000000000e+00,-3.172922915085532591e-01,6.093315578532874227e-02,9.855683721266048081e-02,2.042699537843919999e-01
2.666666666666666519e+00,1.644187338385790586e+09,5.340440801743040478e-02,0.000000000000000000e+00,0.000000000000000000e+00,-3.493420179235594003e-01,3.192766022857902730e-02,1.019375324388205745e-01,2.014213862287082268e-01
2.683333333333333126e+00,1.644187338404762506e+09,5.626744427729130776e-02,0.000000000000000000e+00,0.000000000000000000e+00,-3.172922915085532591e-01,5.024553471168107313e-03,1.052674291140955481e-01,1.981752321112860704e-01
2.700000000000000178e+00,1.644187338420719862e+09,5.912278876820981771e-02,0.000000000000000000e+00,0.000000000000000000e+00,-3.172922915085532591e-01,-1.949343502702247100e-02,1.085402851443681149e-01,1.945774854972298074e-01
2.716666666666666785e+00,1.644187338439257622e+09,6.195866715230834848e-02,5.797492164862896313e-01,5.797492164862896313e-01,-3.493420179235594003e-01,-4.137118058453323477e-02,1.118307291395570502e-01,2.002600087670701468e-01
2.733333333333333393e+00,1.644187338457566261e+09,6.476338767686980191e-02,5.750735861630889012e-01,5.750735861630889012e-01,-3.172922915085532591e-01,-6.038442788444043502e-02,1.152118250633631796e-01,2.054570654812414854e-01
2.750000000000000000e+00,1.644187338475075245e+09,6.752543127097043740e-02,5.820870316478899964e-01,5.820870316478899964e-01,-3.172922915085532591e-01,-7.634275434729138887e-02,1.186775853075816983e-01,2.104203765253662706e-01
2.766666666666666607e+00,1.644187338492021799e+09,7.023354109155072189e-02,5.633845103550867428e-01,5.633845103550867428e-01,-3.172922915085532591e-01,-8.909219337445309361e-02,1.222210377070846454e-01,2.147817960755405431e-01
2.783333333333333215e+00,1.644187338506811380e+09,7.287681074265475734e-02,5.680601406782874729e-01,5.680601406782874729e-01,-3.493420179235594003e-01,-9.851748166511192784e-02,1.258359220058509198e-01,2.189926227603271880e-01
2.799999999999999822e+00,1.644187338525508404e+09,7.544477039280131359e-02,6.101408135870950433e-01,6.101408135870950433e-01,-3.172922915085532591e-01,-1.045438983904973945e-01,1.295253849797349532e-01,2.237297750397197749e-01
2.816666666666666430e+00,1.644187338541792631e+09,7.792747002364774911e-02,0.000000000000000000e+00,0.000000000000000000e+00,-3.172922915085532591e-01,-1.071386680180757139e-01,1.332085148492813120e-01,2.182610007032054766e-01
2.833333333333333481e+00,1.644187338558911324e+09,8.031555905828337283e-02,0.000000000000000000e+00,0.000000000000000000e+00,-3.172922915085532591e-01,-1.063119029792779224e-01,1.368013680229255846e-01,2.128962824799065789e-01
2.850000000000000089e+00,1.644187338574892998e+09,8.260036163962154732e-02,6.078029984254942342e-01,6.078029984254942342e-01,-3.172922915085532591e-01,-1.021170671243974704e-01,1.403900796499794879e-01,2.177356697078709769e-01
2.866666666666666696e+00,1.644187338592144012e+09,8.477394685835056010e-02,6.054651832638939801e-01,6.054651832638939801e-01,-3.172922915085532591e-01,-9.465094596076761846e-02,1.440594876364380272e-01,2.225798323431312231e-01
2.883333333333333304e+00,1.644187338608229399e+09,8.682919326559783435e-02,5.423441739006831241e-01,5.423441739006831241e-01,-3.172922915085532591e-01,-8.405311497390847986e-02,1.478017080610523892e-01,2.264757962339631059e-01
2.899999999999999911e+00,1.644187338625370741e+09,8.875984704762999999e-02,0.000000000000000000e+00,0.000000000000000000e+00,-3.172922915085532591e-01,-7.050490283120607049e-02,1.515352855426120859e-01,2.215671370385499939e-01
2.916666666666666519e+00,1.644187338643666506e+09,9.056057328828989728e-02,0.000000000000000000e+00,0.000000000000000000e+00,-3.172922915085532591e-01,-5.422785190580599324e-02,1.551899782184344989e-01,2.170086468309641303e-01
2.933333333333333126e+00,1.644187338659576416e+09,9.222699979907907075e-02,0.000000000000000000e+00,0.000000000000000000e+00,-3.172922915085532591e-01,-3.548168427399725489e-02,1.587719149084329540e-01,2.128353487363990604e-01
2.950000000000000178e+00,1.644187338677656174e+09,9.375575305649054558e-02,0.000000000000000000e+00,0.000000000000000000e+00,-3.172922915085532591e-01,-1.456178707013877464e-02,1.622877625148440583e-01,2.090768046788189782e-01
2.966666666666666785e+00,1.644187338693756104e+09,9.514448585084614440e-02,0.000000000000000000e+00,0.000000000000000000e+00,-3.172922915085532591e-01,8.203763235025779421e-03,1.657446312414436185e-01,2.057566653394698464e-01
2.983333333333333393e+00,1.644187338713801384e+09,9.639189632006296693e-02,0.000000000000000000e+00,0.000000000000000000e+00,-3.172922915085532591e-01,3.245761249801787374e-02,1.691499728454517459e-01,2.028922839437620196e-01
3.000000000000000000e+00,1.644187338731117725e+09,9.749773811485834552e-02,0.000000000000000000e+00,0.000000000000000000e+00,-3.172922915085532591e-01,5.781694598241498423e-02,1.725114730331134827e-01,2.004943995224738595e-01
3.016666666666666607e+00,1.644187338746078253e+09,9.846282151830719476e-02,0.000000000000000000e+00,0.000000000000000000e+00,-3.172922915085532591e-01,8.387767517855905519e-02,1.758369391983332919e-01,1.985668946102300547e-01
3.033333333333333215e+00,1.644187338763032913e+09,9.928900542179167066e-02,0.000000000000000000e+00,0.000000000000000000e+00,-3.493420179235594003e-01,1.102189538392623069e-01,1.791341847801747600e-01,1.971066315923762913e-01
3.049999999999999822e+00,1.644187338779899359e+09,9.997918014047628421e-02,0.000000000000000000e+00,0.000000000000000000e+00,-3.493420179235594003e-01,1.364079782221681858e-01,1.824109115784239843e-01,1.961033710978298539e-01
3.066666666666666430e+00,1.644187338796901464e+09,1.005372411338978367e-01,0.000000000000000000e+00,0.000000000000000000e+00,-3.172922915085532591e-01,1.620050224627889168e-01,1.856745914157935939e-01,1.955397749681734021e-01
3.083333333333333481e+00,1.644187338815851212e+09,1.009680537802685879e-01,0.000000000000000000e+00,0.000000000000000000e+00,-3.172922915085532591e-01,1.865686564072729370e-01,1.889323485698911897e-01,1.953914954208636756e-01
3.100000000000000089e+00,1.644187338833166122e+09,1.012774094359644994e-01,0.000000000000000000e+00,0.000000000000000000e+00,-3.172922915085532591e-01,2.096610901592592668e-01,1.921908444171176455e-01,1.956273510762915613e-01
3.116666666666666696e+00,1.644187338849362135e+09,1.014719730936435999e-01,5.587088800318860127e-01,5.587088800318860127e-01,-3.172922915085532591e-01,2.308535870844192484e-01,1.955333348829731421e-01,2.054442350623744973e-01
3.133333333333333304e+00,1.644187338867357016e+09,1.015592230327497514e-01,0.000000000000000000e+00,0.000000000000000000e+00,-3.172922915085532591e-01,2.497318851074702695e-01,1.989635224996685325e-01,2.061762455308036035e-01
3.149999999999999911e+00,1.644187338882792234e+09,1.015473829340650530e-01,6.054651832638939801e-01,6.054651832638939801e-01,-3.172922915085532591e-01,2.659015648619271199e-01,2.024916697026445944e-01,2.171708774632579164e-01
3.166666666666666519e+00,1.644187338901021957e+09,1.014453470047498168e-01,5.914382922942917897e-01,5.914382922942917897e-01,-3.493420179235594003e-01,2.789933026380931325e-01,2.062014130232873443e-01,2.279683273914882569e-01
3.183333333333333126e+00,1.644187338916181087e+09,1.012625987311929904e-01,0.000000000000000000e+00,0.000000000000000000e+00,-3.172922915085532591e-01,2.886679461387970935e-01,2.100092690081075686e-01,2.289716038423146582e-01
3.200000000000000178e+00,1.644187338933504581e+09,1.010091239433490162e-01,5.516954345470849175e-01,5.516954345470849175e-01,-3.172922915085532591e-01,2.946213518065470827e-01,2.139107304301254009e-01,2.391754221928573676e-01
3.216666666666666785e+00,1.644187338951432943e+09,1.006953189353231859e-01,0.000000000000000000e+00,0.000000000000000000e+00,-3.172922915085532591e-01,2.965889239346039541e-01,2.179049174481812734e-01,2.401243839070448804e-01
3.233333333333333393e+00,1.644187338969390392e+09,1.003318944422292719e-01,0.000000000000000000e+00,0.000000000000000000e+00,-3.172922915085532591e-01,2.943497979143024912e-01,2.219144801545382961e-01,2.410206511659262474e-01
3.250000000000000000e+00,1.644187338986837864e+09,9.992977632211409722e-02,0.000000000000000000e+00,0.000000000000000000e+00,-3.172922915085532591e-01,2.877306127909018962e-01,2.259379426105103117e-01,2.417926989231359292e-01
3.266666666666666607e+00,1.644187339003783464e+09,9.950000383356835676e-02,0.000000000000000000e+00,0.000000000000000000e+00,-3.493420179235594003e-01,2.766088217813976735e-01,2.299726297461573421e-01,2.423681588171788526e-01
3.283333333333333215e+00,1.644187339022008657e+09,9.905362643396427302e-02,0.000000000000000000e+00,0.000000000000000000e+00,-3.172922915085532591e-01,2.609154935238838791e-01,2.340146608269012551e-01,2.426747192951663190e-01
3.299999999999999822e+00,1.644187339037618160e+09,9.860160004970376646e-02,0.000000000000000000e+00,0.000000000000000000e+00,-3.172922915085532591e-01,2.406375615451874228e-01,2.380589581085757744e-01,2.426410480392449109e-01
3.316666666666666430e+00,1.644187339056355715e+09,9.815468378805157490e-02,0.000000000000000000e+00,0.000000000000000000e+00,-3.493420179235594003e-01,2.158194847107540448e-01,2.420992709681863975e-01,2.421977265914801725e-01
3.333333333333333481e+00,1.644187339072436810e+09,9.772333806975985748e-02,0.000000000000000000e+00,0.000000000000000000e+00,-3.172922915085532591e-01,1.865642872101807848e-01,2.461282156263042420e-01,2.412781867201986841e-01
3.350000000000000089e+00,1.644187339090070486e+09,9.731762516258064821e-02,0.000000000000000000e+00,0.000000000000000000e+00,-3.172922915085532591e-01,1.530339528789867176e-01,2.501373304006980769e-01,2.398196378271212903e-01
3.366666666666666696e+00,1.644187339110167027e+09,9.694711308772643865e-02,0.000000000000000000e+00,0.000000000000000000e+00,-3.493420179235594003e-01,1.154491553020522837e-01,2.541171462513797663e-01,2.377639745648071345e-01
3.383333333333333304e+00,1.644187339124100208e+09,9.662078385435400596e-02,0.000000000000000000e+00,0.000000000000000000e+00,-3.493420179235594003e-01,7.408831212068173189e-02,2.580572721966269967e-01,2.350586538215712618e-01
3.399999999999999911e+00,1.644187339141057014e+09,9.634694695118196928e-02,0.000000000000000000e+00,0.000000000000000000e+00,-3.172922915085532591e-01,2.928595920324895616e-02,2.619464949997311609e-01,2.316575303385212115e-01
3.416666666666666519e+00,1.644187339158981085e+09,9.613315898954552519e-02,0.000000000000000000e+00,0.000000000000000000e+00,-3.172922915085532591e-01,-1.856955223590530182e-02,2.657728923492052031e-01,2.275216404517820534e-01
3.433333333333333126e+00,1.644187339177496195e+09,9.598615034868866747e-02,0.000000000000000000e+00,0.000000000000000000e+00,-3.172922915085532591e-01,-6.903902495087560487e-02,2.695239585829876106e-01,2.226199238021517313e-01
3.449999999999999734e+00,1.644187339194441319e+09,9.591175962215979511e-02,0.000000000000000000e+00,0.000000000000000000e+00,-3.172922915085532591e-01,-1.216360332312930170e-01,2.731867418417975313e-01,2.169298733228202380e-01
3.466666666666666785e+00,1.644187339210646391e+09,9.591487660414847738e-02,0.000000000000000000e+00,0.000000000000000000e+00,-3.493420179235594003e-01,-1.758311630328090458e-01,2.767479913801932923e-01,2.104381044005443069e-01
3.483333333333333393e+00,1.644187339228597403e+09,9.599939448689277788e-02,0.000000000000000000e+00,0.000000000000000000e+00,-3.172922915085532591e-01,-2.310568416094007649e-01,2.801943136179662064e-01,2.031408348026147170e-01
3.500000000000000000e+00,1.644187339246479988e+09,9.616817186536899542e-02,0.000000000000000000e+00,0.000000000000000000e+00,-3.493420179235594003e-01,-2.867127164331614853e-01,2.835123353810902747e-01,1.950442677656046009e-01
3.516666666666666607e+00,1.644187339261435032e+09,9.642300506394425874e-02,0.000000000000000000e+00,0.000000000000000000e+00,-3.172922915085532591e-01,-3.421715363355747330e-01,2.866888726622660033e-01,1.861648715455025971e-01
3.533333333333333215e+00,1.644187339281403542e+09,9.676461121210142013e-02,0.000000000000000000e+00,0.000000000000000000e+00,-3.493420179235594003e-01,-3.967854813337456377e-01,2.897111031277426196e-01,1.765295497244635803e-01
3.549999999999999822e+00,1.644187339294339180e+09,9.719262240348147674e-02,0.000000000000000000e+00,0.000000000000000000e+00,-3.172922915085532591e-01,-4.498928815932904390e-01,2.925667405110366492e-01,1.661756976479480397e-01
3.566666666666666430e+00,1.644187339313474894e+09,9.770559117503699320e-02,0.000000000000000000e+00,0.000000000000000000e+00,-3.172922915085532591e-01,-5.008252604995125923e-01,2.952442089666821867e-01,1.551511415173106312e-01
3.583333333333333481e+00,1.644187339331605434e+09,9.830100744186549833e-02,0.000000000000000000e+00,0.000000000000000000e+00,-3.172922915085532591e-01,-5.489146319297244503e-01,2.977328154093669688e-01,1.435139578757970991e-01
3.600000000000000089e+00,1.644187339347562075e+09,9.897532691916215153e-02,0.000000000000000000e+00,0.000000000000000000e+00,-3.172922915085532591e-01,-5.935009776054948061e-01,3.000229178366590199e-01,1.313321724884134734e-01
3.616666666666666696e+00,1.644187339365514040e+09,9.972401095652513869e-02,0.000000000000000000e+00,0.000000000000000000e+00,-3.172922915085532591e-01,-6.339398269119382867e-01,3.021060876277267271e-01,1.186833389154801355e-01
3.633333333333333304e+00,1.644187339381471872e+09,1.005415776025625624e-01,0.000000000000000000e+00,0.000000000000000000e+00,-3.172922915085532591e-01,-6.696098588526372408e-01,3.039752638265067475e-01,1.056539984024895129e-01
3.649999999999999911e+00,1.644187339398426294e+09,1.014216636102451136e-01,0.000000000000000000e+00,0.000000000000000000e+00,-3.172922915085532591e-01,-6.999204439065548344e-01,3.056248974559513942e-01,9.233902404126893837e-02
3.666666666666666519e+00,1.644187339415380716e+09,1.023570969867470537e-01,0.000000000000000000e+00,0.000000000000000000e+00,-3.493420179235594003e-01,-7.243190425027609125e-01,3.070510839703326500e-01,7.884085348517502756e-02
3.683333333333333126e+00,1.644187339432333469e+09,1.033399795865409670e-01,0.000000000000000000e+00,0.000000000000000000e+00,-3.172922915085532591e-01,-7.422983766562273322e-01,3.082516820348936148e-01,6.526861580967693865e-02
3.699999999999999734e+00,1.644187339448292494e+09,1.043617791442585235e-01,0.000000000000000000e+00,0.000000000000000000e+00,-3.172922915085532591e-01,-7.534032920310733683e-01,3.092264169259835715e-01,5.173715938473576192e-02
3.716666666666666785e+00,1.644187339465300083e+09,1.054134300452225642e-01,0.000000000000000000e+00,0.000000000000000000e+00,-3.172922915085532591e-01,-7.572372293246378838e-01,3.099769669695057184e-01,3.836598885246965407e-02
3.733333333333333393e+00,1.644187339483078241e+09,1.064854420375642569e-01,0.000000000000000000e+00,0.000000000000000000e+00,-3.493420179235594003e-01,-7.534682263951374415e-01,3.105070315801344294e-01,2.527812046858866901e-02
3.750000000000000000e+00,1.644187339501253128e+09,1.075680160013563758e-01,0.000000000000000000e+00,0.000000000000000000e+00,-3.493420179235594003e-01,-7.418343759763982304e-01,3.108223796271682438e-01,1.259886615528157255e-02
3.766666666666666607e+00,1.644187339517434120e+09,1.086511658081063675e-01,0.000000000000000000e+00,0.000000000000000000e+00,-3.172922915085532591e-01,-7.221486681142834652e-01,3.109308770337050887e-01,4.545576135066547313e-04
3.783333333333333215e+00,1.644187339534662008e+09,1.097248452290881388e-01,0.000000000000000000e+00,0.000000000000000000e+00,-3.493420179235594003e-01,-6.943031515904058981e-01,3.108424927124708859e-01,-1.102877725843255836e-02
3.799999999999999822e+00,1.644187339550203562e+09,1.107790787841615027e-01,0.000000000000000000e+00,0.000000000000000000e+00,-3.172922915085532591e-01,-6.582723545293931444e-01,3.105692821523151070e-01,-2.172677260710000058e-02
3.816666666666666430e+00,1.644187339569132090e+09,1.118040953645940971e-01,0.000000000000000000e+00,0.000000000000000000e+00,-3.172922915085532591e-01,-6.141159110671190469e-01,3.101253481921408817e-01,-3.151810383137777088e-02
3.833333333333333481e+00,1.644187339584093809e+09,1.127904634147258167e-01,0.000000000000000000e+00,0.000000000000000000e+00,-3.493420179235594003e-01,-5.619803483306361480e-01,3.095267787517222979e-01,-4.028587352980312480e-02
3.850000000000000089e+00,1.644187339601069450e+09,1.137292264185828378e-01,0.000000000000000000e+00,0.000000000000000000e+00,-3.172922915085532591e-01,-5.020999959795402479e-01,3.087915615292008975e-01,-4.791898957360737898e-02
3.866666666666666696e+00,1.644187339621320724e+09,1.146120374093294036e-01,0.000000000000000000e+00,0.000000000000000000e+00,-3.493420179235594003e-01,-4.347969891088647731e-01,3.079394759206373067e-01,-5.431352045019154778e-02
3.883333333333333304e+00,1.644187339637877226e+09,1.154312912021711324e-01,0.000000000000000000e+00,0.000000000000000000e+00,-3.493420179235594003e-01,-3.604803443338747693e-01,3.069919626653175304e-01,-5.937401293376969730e-02
3.899999999999999911e+00,1.644187339651660204e+09,1.161802530452753501e-01,0.000000000000000000e+00,0.000000000000000000e+00,-3.493420179235594003e-01,-2.796440982795669883e-01,3.059719719689916739e-01,-6.301475720876992259e-02
3.916666666666666519e+00,1.644187339669115067e+09,1.168531823887657972e-01,0.000000000000000000e+00,0.000000000000000000e+00,-3.172922915085532591e-01,-1.928645073888675121e-01,3.049037911032260184e-01,-6.516098479948538580e-02
3.933333333333333126e+00,1.644187339686873913e+09,1.174454504889663187e-01,0.000000000000000000e+00,0.000000000000000000e+00,-3.172922915085532591e-01,-1.007963178457941811e-01,3.038128527199199236e-01,-6.574998504694250234e-02
3.949999999999999734e+00,1.644187339703805208e+09,1.179536505938987428e-01,0.000000000000000000e+00,0.000000000000000000e+00,-3.172922915085532591e-01,-4.168124381513541726e-03,3.027255253531269119e-01,-6.473212641984137095e-02
3.966666666666666785e+00,1.644187339720753908e+09,1.183756994965096260e-01,0.000000000000000000e+00,0.000000000000000000e+00,-3.493420179235594003e-01,9.622315331182086651e-02,3.016688878030114873e-01,-6.207176964786224882e-02
3.983333333333333393e+00,1.644187339738708973e+09,1.187109292940505823e-01,0.000000000000000000e+00,0.000000000000000000e+00,-3.172922915085532591e-01,1.995186379976788271e-01,3.006704893065105244e-01,-5.774806051806664897e-02
4.000000000000000000e+00,1.644187339754725933e+09,1.189601682552259981e-01,0.000000000000000000e+00,0.000000000000000000e+00,-3.172922915085532591e-01,3.048046579701045311e-01,2.997580975935903447e-01,-5.175559117231141176e-02
4.016666666666666607e+00,1.644187339772703886e+09,1.191258097707573599e-01,0.000000000000000000e+00,0.000000000000000000e+00,-3.172922915085532591e-01,4.111206483360457242e-01,2.989594371045479759e-01,-4.410491987766826383e-02
4.033333333333333215e+00,1.644187339789966583e+09,1.192118684474667151e-01,0.000000000000000000e+00,0.000000000000000000e+00,-3.493420179235594003e-01,5.174677242105706343e-01,2.983019198003968864e-01,-3.482294050334099056e-02
4.049999999999999822e+00,1.644187339808274269e+09,1.192240225002692278e-01,0.000000000000000000e+00,0.000000000000000000e+00,-3.172922915085532591e-01,6.228178512225338581e-01,2.978123711329715428e-01,-2.395309431554006746e-02
4.066666666666666430e+00,1.644187339825221539e+09,1.191696416999363101e-01,0.000000000000000000e+00,0.000000000000000000e+00,-3.493420179235594003e-01,7.261235310527293096e-01,2.975167538521417132e-01,-1.155541818383140629e-02
4.083333333333333037e+00,1.644187339840181112e+09,1.190578002464189739e-01,6.381945955262997572e-01,6.381945955262997572e-01,-3.172922915085532591e-01,8.263279127745634112e-01,2.975280401688042975e-01,1.284200397118707287e-02
4.099999999999999645e+00,1.644187339858133316e+09,1.188992740570461309e-01,8.345710691007336424e-01,8.345710691007336424e-01,-3.493420179235594003e-01,9.223752346239341149e-01,2.979829701244638418e-01,4.166951241093866387e-02
4.116666666666666252e+00,1.644187339873092890e+09,1.187065220851605679e-01,1.028609727513567274e+00,1.028609727513567274e+00,-3.172922915085532591e-01,1.013221495568402686e+00,2.989537253314804577e-01,7.472927758862155101e-02
4.133333333333332860e+00,1.644187339890075207e+09,1.184936514167220789e-01,1.241350907219203936e+00,1.241350907219203936e+00,-3.172922915085532591e-01,1.097845251745871442e+00,3.005119825868503014e-01,1.121576229826696525e-01
4.150000000000000355e+00,1.644187339906005859e+09,1.182763660290486601e-01,1.587347551136063739e+00,1.587347551136063739e+00,-3.172922915085532591e-01,1.175258429559895346e+00,3.027473575528928929e-01,1.559656810282263883e-01
4.166666666666666963e+00,1.644187339925976992e+09,1.180718992361130537e-01,2.153098820243361189e+00,2.153098820243361189e+00,-3.172922915085532591e-01,1.244517045004828404e+00,3.057945239109645108e-01,2.095454457576245710e-01
4.183333333333333570e+00,1.644187339943904877e+09,1.178989299874461938e-01,2.335448402848192995e+00,2.335448402848192995e+00,-3.172922915085532591e-01,1.304731717688544901e+00,3.097607889799932623e-01,2.662488493642081178e-01
4.200000000000000178e+00,1.644187339958892345e+09,1.177774833316323766e-01,2.396231597049804041e+00,2.396231597049804041e+00,-3.172922915085532591e-01,1.355077868054145984e+00,3.146796281139209173e-01,3.238518346486796706e-01
4.216666666666666785e+00,1.644187339977813721e+09,1.177288154992725960e-01,2.721187904512259337e+00,2.721187904512259337e+00,-3.172922915085532591e-01,1.394805487492158713e+00,3.206009311754702829e-01,3.865304214538706207e-01
4.233333333333333393e+00,1.644187339995765209e+09,1.177752842030360542e-01,2.704823198381057114e+00,2.704823198381057114e+00,-3.493420179235594003e-01,1.423248373388249499e+00,3.275598883969709219e-01,4.483726570951917512e-01
4.250000000000000000e+00,1.644187340008730888e+09,1.179402048926587038e-01,2.674431601280251591e+00,2.674431601280251591e+00,-3.172922915085532591e-01,1.439832724661952446e+00,3.355391008016996301e-01,5.089645167894998323e-01
4.266666666666666607e+00,1.644187340028677940e+09,1.182476938393007132e-01,2.672093786118651781e+00,2.672093786118651781e+00,-3.172922915085532591e-01,1.444084998001617048e+00,3.445200729826910502e-01,5.685865243438462668e-01
4.283333333333333215e+00,1.644187340046666384e+09,1.187224990553163162e-01,2.485068573190619023e+00,2.485068573190619023e+00,-3.493420179235594003e-01,1.435638930759532972e+00,3.544595116774035271e-01,6.239922107149696862e-01
4.299999999999999822e+00,1.644187340062871218e+09,1.193898201809426296e-01,2.534162691584227467e+00,2.534162691584227467e+00,-3.172922915085532591e-01,1.414241643296410889e+00,3.653185513173620169e-01,6.789399099896885614e-01
4.316666666666666430e+00,1.644187340078857660e+09,1.202751185876140688e-01,2.386880336403401692e+00,2.386880336403401692e+00,-3.172922915085532591e-01,1.379758741402209887e+00,3.770606910335885242e-01,7.299750882368889471e-01
4.333333333333333037e+00,1.644187340095653772e+09,1.214039190573081295e-01,2.054910583456144746e+00,2.054910583456144746e+00,-3.172922915085532591e-01,1.332178348205362628e+00,3.895939443940804048e-01,7.738933170707554821e-01
4.349999999999999645e+00,1.644187340113327026e+09,1.228016044975590165e-01,2.363502184787398264e+00,2.363502184787398264e+00,-3.172922915085532591e-01,1.271614004637968920e+00,4.028873598760570607e-01,8.211851714125348867e-01
4.366666666666666252e+00,1.644187340130247593e+09,1.244932052414408213e-01,1.708913939539284721e+00,1.708913939539284721e+00,-3.172922915085532591e-01,1.198306387964739539e+00,4.168619036162301006e-01,8.556642997974288622e-01
4.383333333333332860e+00,1.644187340148199797e+09,1.265031845600568805e-01,1.316160992390416951e+00,1.316160992390416951e+00,-3.493420179235594003e-01,1.112623809011530573e+00,4.313402554681440293e-01,8.816656946355474478e-01
4.400000000000000355e+00,1.644187340167148829e+09,1.288552220809635052e-01,1.234337461734402952e+00,1.234337461734402952e+00,-3.172922915085532591e-01,1.015061460441554431e+00,4.462235957079171977e-01,9.042723364320403023e-01
4.416666666666666963e+00,1.644187340185101032e+09,1.315719968588022759e-01,1.152513931078388509e+00,1.152513931078388509e+00,-3.493420179235594003e-01,9.062394006108476230e-01,4.614542588062355288e-01,9.233542288618759031e-01
4.433333333333333570e+00,1.644187340201058388e+09,1.346749718835014153e-01,9.491240120191535290e-01,9.491240120191535290e-01,-3.172922915085532591e-01,7.868992700714763089e-01,4.769557422090638932e-01,9.367864668272247730e-01
4.450000000000000178e+00,1.644187340217015505e+09,1.381841818362189167e-01,1.073028215583974765e+00,1.073028215583974765e+00,-3.172922915085532591e-01,6.578997505562343973e-01,4.926785372096564863e-01,9.499124712623023825e-01
4.466666666666666785e+00,1.644187340233970404e+09,1.421180259132763246e-01,1.138487040108786319e+00,1.138487040108786319e+00,-3.493420179235594003e-01,5.202107891453169319e-01,5.086083095180041758e-01,9.616276627748564509e-01
4.483333333333333393e+00,1.644187340250924826e+09,1.464930675333565580e-01,1.019258466867165813e+00,1.019258466867165813e+00,-3.172922915085532591e-01,3.749066231510983505e-01,5.246951795161930443e-01,9.687768776103052870e-01
4.500000000000000000e+00,1.644187340268877029e+09,1.513238427230065020e-01,9.397727513727516246e-01,9.397727513727516246e-01,-3.172922915085532591e-01,2.231576539305608342e-01,5.408682773918200848e-01,9.719859531564001287e-01
4.516666666666666607e+00,1.644187340286828995e+09,1.566226789399232100e-01,8.532735903935368960e-01,8.532735903935368960e-01,-3.172922915085532591e-01,6.622123021193228321e-02,5.570607931763406073e-01,9.711183510486374182e-01
4.533333333333333215e+00,1.644187340303857088e+09,1.623995260426657483e-01,-8.082059000948906835e-01,-8.082059000948906835e-01,-3.172922915085532591e-01,-9.456858652754357442e-02,5.729872760133936094e-01,9.401456267678772738e-01
4.549999999999999822e+00,1.644187340319817305e+09,1.686618010495084252e-01,-1.382015993498789230e+00,-1.382015993498789230e+00,-3.172922915085532591e-01,-2.578121907023153137e-01,5.883000225227545954e-01,8.975024105218312176e-01
4.566666666666666430e+00,1.644187340336791277e+09,1.754142482484256638e-01,-1.875352720144824126e+00,-1.875352720144824126e+00,-3.172922915085532591e-01,-4.220564406349524567e-01,6.028171132510548036e-01,8.446951671138680506e-01
4.583333333333333037e+00,1.644187340354741573e+09,1.826588161251603559e-01,-1.997812191298094175e+00,-1.997812191298094175e+00,-3.493420179235594003e-01,-5.858074013943049829e-01,6.164218454910311840e-01,7.880301083290183195e-01
4.599999999999999645e+00,1.644187340368667126e+09,1.903945524674983680e-01,-1.822870089650564074e+00,-1.822870089650564074e+00,-3.172922915085532591e-01,-7.475437089042307193e-01,6.290918106816626443e-01,7.325199131624736681e-01
4.616666666666666252e+00,1.644187340387833595e+09,1.986175188819636339e-01,-1.878851562177773715e+00,-1.878851562177773715e+00,-3.172922915085532591e-01,-9.057304337943531403e-01,6.408146920304149674e-01,6.743873318808525363e-01
4.633333333333332860e+00,1.644187340402740955e+09,2.073207258249851748e-01,-2.176253134978575421e+00,-2.176253134978575421e+00,-3.172922915085532591e-01,-1.058833316601558439e+00,6.515145024254094253e-01,6.097694139595225549e-01
4.650000000000000355e+00,1.644187340419003248e+09,2.164940891050749217e-01,-2.242731133604637161e+00,-2.242731133604637161e+00,-3.172922915085532591e-01,-1.205333240270365813e+00,6.611168559638835873e-01,5.426993208564649951e-01
4.666666666666666963e+00,1.644187340434392691e+09,2.261244086567253675e-01,-2.463158181680524805e+00,-2.463158181680524805e+00,-3.172922915085532591e-01,-1.343740801515016736e+00,6.695610759567447445e-01,4.708067844770115196e-01
4.683333333333333570e+00,1.644187340453593254e+09,2.361953702217707562e-01,-2.952996066293608113e+00,-2.952996066293608113e+00,-3.172922915085532591e-01,-1.472610839559349794e+00,6.767315605959505209e-01,3.898761847402564262e-01
4.700000000000000178e+00,1.644187340468283415e+09,2.466875704009861558e-01,-2.386183656955612076e+00,-2.386183656955612076e+00,-3.172922915085532591e-01,-1.590556779111868657e+00,6.826263777418062340e-01,3.177023603266093676e-01
4.716666666666666785e+00,1.644187340487234116e+09,2.575785653591733393e-01,-2.165756608879723544e+00,-2.165756608879723544e+00,-3.493420179235594003e-01,-1.696264644197786664e+00,6.873441115695380077e-01,2.486176056142524460e-01
4.733333333333333393e+00,1.644187340503212690e+09,2.688429432821383691e-01,-1.871853878111872982e+00,-1.871853878111872982e+00,-3.172922915085532591e-01,-1.788506600680323411e+00,6.909478283262898701e-01,1.840078808776306474e-01
4.750000000000000000e+00,1.644187340520325422e+09,2.804524204953735556e-01,-1.654925672068935372e+00,-1.654925672068935372e+00,-3.172922915085532591e-01,-1.866153887965681379e+00,6.935028778148463191e-01,1.227681720551639100e-01
4.766666666666666607e+00,1.644187340537281752e+09,2.923759609633491685e-01,-1.465988202289603359e+00,-1.465988202289603359e+00,-3.172922915085532591e-01,-1.928189004493175984e+00,6.950632517651862408e-01,6.463817799177772050e-02
4.783333333333333215e+00,1.644187340553235769e+09,3.045799186966404726e-01,-1.336531047070431910e+00,-1.336531047070431910e+00,-3.172922915085532591e-01,-1.973717017140721230e+00,6.956744137599717437e-01,8.856214926806285637e-03
4.799999999999999822e+00,1.644187340569858789e+09,3.170282024032789470e-01,-1.472985886355504093e+00,-1.472985886355504093e+00,-3.172922915085532591e-01,-2.001975871588547395e+00,6.953408306653474646e-01,-4.872623127763694301e-02
4.816666666666666430e+00,1.644187340588498592e+09,3.296824615322356822e-01,-1.731900196793849434e+00,-1.731900196793849434e+00,-3.172922915085532591e-01,-2.012345588928425855e+00,6.940182998059024611e-01,-1.098077968468965382e-01
4.833333333333333037e+00,1.644187340603435040e+09,3.425022926724530237e-01,-1.584948831409923597e+00,-1.584948831409923597e+00,-3.172922915085532591e-01,-2.004356243314930897e+00,6.917075799582648177e-01,-1.673188282446730901e-01
4.849999999999999645e+00,1.644187340621418476e+09,3.554454650919174896e-01,-2.025802927561699551e+00,-2.025802927561699551e+00,-3.172922915085532591e-01,-1.977694626148740031e+00,6.883890779011495598e-01,-2.307252854160651845e-01
4.866666666666666252e+00,1.644187340639181614e+09,3.684681640293788196e-01,-2.039798295693501906e+00,-2.039798295693501906e+00,-3.493420179235594003e-01,-1.932209514065954759e+00,6.840269086684939159e-01,-2.925632463460671739e-01
4.883333333333332860e+00,1.644187340655138969e+09,3.815252501881093439e-01,-1.850860825914169672e+00,-1.850860825914169672e+00,-3.493420179235594003e-01,-1.867915470775785902e+00,6.786776243066310332e-01,-3.491935669290368582e-01
4.900000000000000355e+00,1.644187340674762249e+09,3.945705337278754832e-01,-2.641599125361004496e+00,-2.641599125361004496e+00,-3.493420179235594003e-01,-1.784995126424029355e+00,6.722945589073826556e-01,-4.165870723928723485e-01
4.916666666666666963e+00,1.644187340689723492e+09,4.075570609095763297e-01,-2.855028489370992517e+00,-2.855028489370992517e+00,-3.493420179235594003e-01,-1.683799892533708320e+00,6.647820750076186558e-01,-4.847217281915200404e-01
4.933333333333333570e+00,1.644187340706676006e+09,4.204374114180435273e-01,-2.876021541568695383e+00,-2.876021541568695383e+00,-3.172922915085532591e-01,-1.564849085550144236e+00,6.561569542778358244e-01,-5.501111179137178064e-01
4.950000000000000178e+00,1.644187340724826574e+09,4.331640042734940521e-01,-2.298712606131847025e+00,-2.298712606131847025e+00,-3.172922915085532591e-01,-1.428827447450298660e+00,6.465495675759005412e-01,-6.026293987714849143e-01
4.966666666666666785e+00,1.644187340741783619e+09,4.456894101423438115e-01,-2.221738081406932963e+00,-2.221738081406932963e+00,-3.493420179235594003e-01,-1.276581067614670717e+00,6.361057901498721190e-01,-6.504909404958165720e-01
4.983333333333333393e+00,1.644187340758074284e+09,4.579666677743476910e-01,-2.414174393219216341e+00,-2.414174393219216341e+00,-3.172922915085532591e-01,-1.109111726047627755e+00,6.248674825714080061e-01,-6.979740682384664163e-01
5.000000000000000000e+00,1.644187340778985500e+09,4.699496022264214590e-01,-2.491148917944129071e+00,-2.491148917944129071e+00,-3.172922915085532591e-01,-9.275696939092606952e-01,6.128587908401630369e-01,-7.429440200381112192e-01
5.016666666666666607e+00,1.644187340793981552e+09,4.783985035884716353e-01,-2.582118810800845488e+00,-2.582118810800845488e+00,-3.493420179235594003e-01,-7.332450430272764441e-01,6.001210865951880358e-01,-7.854623800236049114e-01
5.033333333333333215e+00,1.644187340810900927e+09,4.863473887758127390e-01,-2.396680183054463065e+00,-2.396680183054463065e+00,-3.493420179235594003e-01,-5.240579886386911301e-01,5.867351215703414669e-01,-8.207553845269776049e-01
5.049999999999999822e+00,1.644187340829877377e+09,4.937644918801066263e-01,-1.941830718770884534e+00,-1.941830718770884534e+00,-3.493420179235594003e-01,-3.079257841040264343e-01,5.728584908140619270e-01,-8.443746954852798803e-01
5.066666666666666430e+00,1.644187340844809771e+09,5.006209224043864925e-01,-2.067789031957107504e+00,-2.067789031957107504e+00,-3.172922915085532591e-01,-8.661053241500554778e-02,5.586046379340853241e-01,-8.660275020115051348e-01
5.083333333333333037e+00,1.644187340861066341e+09,5.068908595165568798e-01,-1.850860825914169672e+00,-1.850860825914169672e+00,-3.493420179235594003e-01,1.380817650206789260e-01,5.440538924860761627e-01,-8.800230742450541044e-01
5.099999999999999645e+00,1.644187340878050804e+09,5.125517256491787244e-01,-1.424002097894196961e+00,-1.424002097894196961e+00,-3.172922915085532591e-01,3.643173942374820506e-01,5.293620262947582589e-01,-8.829926197813481314e-01
5.116666666666666252e+00,1.644187340894002438e+09,5.175843381199269899e-01,1.383957632076828315e+00,1.383957632076828315e+00,-3.172922915085532591e-01,5.902513415780666906e-01,5.150401207414825322e-01,-8.357672313338241343e-01
5.133333333333332860e+00,1.644187340911343336e+09,5.219730376088727031e-01,1.458767717248041551e+00,1.458767717248041551e+00,-3.172922915085532591e-01,8.140437788744800951e-01,5.015400253308462952e-01,-7.843869443211458625e-01
5.150000000000000355e+00,1.644187340928651810e+09,5.257057924996476617e-01,1.482145868864045424e+00,1.482145868864045424e+00,-3.172922915085532591e-01,1.033876465746923490e+00,4.889227637685757966e-01,-7.298359771820258635e-01
5.166666666666666963e+00,1.644187340943974018e+09,5.287742782702724575e-01,1.601374442105666152e+00,1.601374442105666152e+00,-3.493420179235594003e-01,1.247968914816582675e+00,4.772531888510759268e-01,-6.706773463158217652e-01
5.183333333333333570e+00,1.644187340960197687e+09,5.311739313045966693e-01,1.610725702752067390e+00,1.610725702752067390e+00,-3.493420179235594003e-01,1.454594168111816188e+00,4.665912508789374358e-01,-6.089267438292851331e-01
5.200000000000000178e+00,1.644187340975213051e+09,5.329039766854765103e-01,1.526564356934452915e+00,1.526564356934452915e+00,-3.493420179235594003e-01,1.652094036892440165e+00,4.569656149642249421e-01,-5.463234680174577917e-01
5.216666666666666785e+00,1.644187340995129347e+09,5.339674297245745604e-01,1.475132423379244440e+00,1.475132423379244440e+00,-3.172922915085532591e-01,1.838893662486126734e+00,4.483934172371861759e-01,-4.825175021926628727e-01
5.233333333333333393e+00,1.644187341011067867e+09,5.343710711794604773e-01,1.447078641440039171e+00,1.447078641440039171e+00,-3.493420179235594003e-01,2.013515262470241485e+00,4.408960833822184178e-01,-4.173436032725237332e-01
5.250000000000000000e+00,1.644187341030252457e+09,5.341253963050387465e-01,1.613063517913668088e+00,1.613063517913668088e+00,-3.172922915085532591e-01,2.174590934575430623e+00,4.345211530906443742e-01,-3.478410987727980630e-01
5.266666666666666607e+00,1.644187341046492815e+09,5.332445380817381064e-01,1.732292091155289260e+00,1.732292091155289260e+00,-3.172922915085532591e-01,2.320874399953314793e+00,4.293316708087214773e-01,-2.750988416390651725e-01
5.283333333333333215e+00,1.644187341062754393e+09,5.317461651558050839e-01,1.788399655033698465e+00,1.788399655033698465e+00,-3.172922915085532591e-01,2.451251577850175334e+00,4.253702696477604239e-01,-2.004765865967061966e-01
5.299999999999999822e+00,1.644187341077658892e+09,5.296513552160064808e-01,2.003478649900936048e+00,2.003478649900936048e+00,-3.493420179235594003e-01,2.564749895156943182e+00,4.226876491367125843e-01,-1.216568236680270754e-01
5.316666666666666430e+00,1.644187341097652197e+09,5.269844447145801691e-01,2.132058483788957570e+00,2.132058483788957570e+00,-3.493420179235594003e-01,2.660546246652382596e+00,4.213387956668406820e-01,-4.043122469079948877e-02
5.333333333333333037e+00,1.644187341114583969e+09,5.237728560169789827e-01,2.125045038304157252e+00,2.125045038304157252e+00,-3.172922915085532591e-01,2.737973534898780148e+00,4.213422088547593147e-01,4.061567167466419159e-02
5.349999999999999645e+00,1.644187341131764412e+09,5.200469032334527064e-01,2.206868568960170585e+00,2.206868568960170585e+00,-3.172922915085532591e-01,2.796525732558869048e+00,4.227045981766414107e-01,1.226431873780994275e-01
5.366666666666666252e+00,1.644187341148158312e+09,5.158395781445064276e-01,2.300381175424187408e+00,2.300381175424187408e+00,-3.493420179235594003e-01,2.835861424243697471e+00,4.254411321520769063e-01,2.055106967304620169e-01
5.383333333333332860e+00,1.644187341168075800e+09,5.111863177805395786e-01,2.438312269958610834e+00,2.438312269958610834e+00,-3.172922915085532591e-01,2.855805799733091455e+00,4.295691514203398564e-01,2.896179786237274567e-01
5.400000000000000355e+00,1.644187341182966471e+09,5.061247553523802178e-01,2.665080340633850131e+00,2.665080340633850131e+00,-3.172922915085532591e-01,2.856351085388729061e+00,4.351187384146142367e-01,3.760922487298293815e-01
5.416666666666666963e+00,1.644187341198824167e+09,5.006944563528836767e-01,2.625337482886642704e+00,2.625337482886642704e+00,-3.172922915085532591e-01,2.837655415658377756e+00,4.420895478160807301e-01,4.601713209707798402e-01
5.433333333333333570e+00,1.644187341217801094e+09,4.949366417593810685e-01,2.742228240966662955e+00,2.742228240966662955e+00,-3.172922915085532591e-01,2.800040161600809263e+00,4.504610116169905920e-01,5.441709972126611561e-01
5.450000000000000178e+00,1.644187341233019590e+09,4.888939003616394885e-01,2.356488739302596613e+00,2.356488739302596613e+00,-3.172922915085532591e-01,2.743985748197470542e+00,4.601598471487443054e-01,6.194800698059085287e-01
5.466666666666666785e+00,1.644187341250949860e+09,4.826098923194351298e-01,2.433636639635410326e+00,2.433636639635410326e+00,-3.172922915085532591e-01,2.670126006714671263e+00,4.711038863258428799e-01,6.935987414013112806e-01
5.483333333333333393e+00,1.644187341266929388e+09,4.761290461172459909e-01,2.403245042534604359e+00,2.403245042534604359e+00,-3.172922915085532591e-01,2.579241122396894070e+00,4.832562486201673613e-01,7.644878151891785212e-01
5.500000000000000000e+00,1.644187341283546209e+09,4.694962511303980568e-01,2.262976132838580678e+00,2.262976132838580678e+00,-3.172922915085532591e-01,2.472249251172163653e+00,4.965461524609429689e-01,8.301183344152486265e-01
5.516666666666666607e+00,1.644187341301490545e+09,4.627565480470149928e-01,1.786061839872097767e+00,1.786061839872097767e+00,-3.493420179235594003e-01,2.350196891703073554e+00,5.108381037958550364e-01,8.847640286065894255e-01
5.533333333333333215e+00,1.644187341318444014e+09,4.559548194029326984e-01,1.570982845004860851e+00,1.570982845004860851e+00,-3.172922915085532591e-01,2.214248110900024713e+00,5.259847848785460522e-01,9.327045301223131357e-01
5.549999999999999822e+00,1.644187341334640026e+09,4.491354824824563274e-01,1.505524020480049296e+00,1.505524020480049296e+00,-3.172922915085532591e-01,2.065672731812012053e+00,5.418942902428423025e-01,9.763149706295511931e-01
5.566666666666666430e+00,1.644187341353437185e+09,4.423421868163064929e-01,1.196932419148796445e+00,1.196932419148796445e+00,-3.172922915085532591e-01,1.905833602520192294e+00,5.584599129002089102e-01,1.011462115000001161e+00
5.583333333333333037e+00,1.644187341365613937e+09,4.356175184696710057e-01,1.306809731744015268e+00,1.306809731744015268e+00,-3.493420179235594003e-01,1.736173073188128413e+00,5.755982094682393635e-01,1.045040198514173069e+00
5.599999999999999645e+00,1.644187341385916233e+09,4.290027132581500924e-01,1.278755949804810443e+00,1.278755949804810443e+00,-3.172922915085532591e-01,1.558198815686502536e+00,5.932630462442468611e-01,1.074657941163020825e+00
5.616666666666666252e+00,1.644187341400157213e+09,4.225373809580283413e-01,-1.724902512727948256e+00,-1.724902512727948256e+00,-3.172922915085532591e-01,1.373469126142094598e+00,6.109770394845300823e-01,1.051086724812973383e+00
5.633333333333332860e+00,1.644187341418101788e+09,4.162592424903130972e-01,-2.144763556682020234e+00,-2.144763556682020234e+00,-3.172922915085532591e-01,1.183577855302571535e+00,6.282172154931746633e-01,1.017826787114671339e+00
5.650000000000000355e+00,1.644187341434058189e+09,4.102038819560147598e-01,-2.652095651459856818e+00,-2.652095651459856818e+00,-3.172922915085532591e-01,9.901391147199717357e-01,6.448108622685937430e-01,9.735338647269208279e-01
5.666666666666666963e+00,1.644187341451013088e+09,4.044045152840115009e-01,-3.054462485249175518e+00,-3.054462485249175518e+00,-3.493420179235594003e-01,7.947719084071029894e-01,6.605898521075537211e-01,9.200933652739262669e-01
5.683333333333333570e+00,1.644187341469941616e+09,3.988917771234432585e-01,-3.103446273710483982e+00,-3.103446273710483982e+00,-3.493420179235594003e-01,5.990848397989285701e-01,6.754517541232180067e-01,8.634921060264026949e-01
5.700000000000000178e+00,1.644187341483924866e+09,3.936935274709912891e-01,-3.085952063545732038e+00,-3.085952063545732038e+00,-3.172922915085532591e-01,4.046610425568988312e-01,6.893536820094100515e-01,8.049019944570634522e-01
5.716666666666666785e+00,1.644187341503853559e+09,3.888346793706470850e-01,-2.918007645964102892e+00,-2.918007645964102892e+00,-3.493420179235594003e-01,2.130434810025612080e-01,7.022839307851000967e-01,7.468890095986810973e-01
5.733333333333333393e+00,1.644187341524065971e+09,3.843370488609142432e-01,-3.124439325908188625e+00,-3.124439325908188625e+00,-3.172922915085532591e-01,2.572076178745574815e-02,7.142009237081485828e-01,6.833267072736204373e-01
5.750000000000000000e+00,1.644187341539026260e+09,3.802192281730705226e-01,-3.355362900082928146e+00,-3.355362900082928146e+00,-3.172922915085532591e-01,-1.558864071563046405e-01,7.250103452306118079e-01,6.139964639638366695e-01
5.766666666666666607e+00,1.644187341555957079e+09,3.764964830055101963e-01,-3.670258683048481796e+00,-3.670258683048481796e+00,-3.172922915085532591e-01,-3.304379812297492114e-01,7.346062359125373753e-01,5.377222955439405760e-01
5.783333333333333215e+00,1.644187341573912382e+09,3.731806745146121207e-01,-3.845200784696011453e+00,-3.845200784696011453e+00,-3.172922915085532591e-01,-4.966864463357645310e-01,7.428943000690078069e-01,4.570694442036071781e-01
5.799999999999999822e+00,1.644187341589045525e+09,3.702802064736011034e-01,-4.328040985243194250e+00,-4.328040985243194250e+00,-3.172922915085532591e-01,-6.534876769118262985e-01,7.497609422549138536e-01,3.671773243151174038e-01
5.816666666666666430e+00,1.644187341609264612e+09,3.677999978587966345e-01,-4.219576882221725889e+00,-4.219576882221725889e+00,-3.172922915085532591e-01,-7.998106835344277465e-01,7.551365692964751020e-01,2.781452378442869078e-01
5.833333333333333037e+00,1.644187341623224974e+09,3.657414809291765767e-01,-3.995650992112887767e+00,-3.995650992112887767e+00,-3.493420179235594003e-01,-9.347461601748332516e-01,7.590529167867089422e-01,1.920556044825910968e-01
5.849999999999999645e+00,1.644187341640181780e+09,3.641026246715861059e-01,-3.596783000356519100e+00,-3.596783000356519100e+00,-3.172922915085532591e-01,-1.057513753419081493e+00,7.615844629221726336e-01,1.119524457842007437e-01
5.866666666666666252e+00,1.644187341658154964e+09,3.628779832919493686e-01,-3.316875637720470671e+00,-3.316875637720470671e+00,-3.493420179235594003e-01,-1.167467988935097400e+00,7.628154943116313147e-01,3.598235395048264562e-02
5.883333333333332860e+00,1.644187341676086426e+09,3.620587692437650662e-01,-3.393850162445384733e+00,-3.393850162445384733e+00,-3.172922915085532591e-01,-1.264102804048216511e+00,7.627668715222077900e-01,-4.160157270165383558e-02
5.900000000000000355e+00,1.644187341694038153e+09,3.616329501006061431e-01,-3.197915008600149989e+00,-3.197915008600149989e+00,-3.493420179235594003e-01,-1.347054649336683063e+00,7.614515045301966101e-01,-1.160357000085898566e-01
5.916666666666666963e+00,1.644187341707777262e+09,3.615853684006525848e-01,-2.952996066293608113e+00,-2.952996066293608113e+00,-3.172922915085532591e-01,-1.416104136541042280e+00,7.589301408054330844e-01,-1.863326729977372032e-01
5.933333333333333570e+00,1.644187341725726843e+09,3.618978834198388062e-01,-2.578619968767894122e+00,-2.578619968767894122e+00,-3.172922915085532591e-01,-1.471176224652465780e+00,7.552909727462729927e-01,-2.501901081622497913e-01
5.950000000000000178e+00,1.644187341744064808e+09,3.625495336673899005e-01,-1.861357352013021771e+00,-1.861357352013021771e+00,-3.172922915085532591e-01,-1.512338950659976033e+00,7.506897173761100106e-01,-3.018171245033035022e-01
5.966666666666666785e+00,1.644187341759071827e+09,3.635167187444844350e-01,1.449416456601640091e+00,1.449416456601640091e+00,-3.172922915085532591e-01,-1.539800725949702631e+00,7.456886351791746081e-01,-2.983224467955024051e-01
5.983333333333333393e+00,1.644187341776110888e+09,3.647733990648320823e-01,1.645792930176073865e+00,1.645792930176073865e+00,-3.172922915085532591e-01,-1.553906233617243338e+00,7.407704902808327496e-01,-2.918728569545134266e-01
6.000000000000000000e+00,1.644187341794031382e+09,3.662913118060465711e-01,1.369930741107226346e+00,1.369930741107226346e+00,-3.172922915085532591e-01,-1.555130975834912999e+00,7.359206763407327712e-01,-2.901097135932081961e-01
6.016666666666666607e+00,1.644187341809802055e+09,3.680402013439061371e-01,1.461105532409641805e+00,1.461105532409641805e+00,-3.172922915085532591e-01,-1.544074533771762514e+00,7.311141248260432102e-01,-2.866859787678873173e-01
6.033333333333333215e+00,1.644187341827782393e+09,3.699880623187815076e-01,1.213297125279998889e+00,1.213297125279998889e+00,-3.172922915085532591e-01,-1.521452615263989339e+00,7.263330598003099325e-01,-2.870408385752205582e-01
6.049999999999999822e+00,1.644187341844737768e+09,3.721013933954208097e-01,-1.343528731136332866e+00,-1.343528731136332866e+00,-3.493420179235594003e-01,-1.488087977350903923e+00,7.211975877352339026e-01,-3.290989783182651784e-01
6.066666666666666430e+00,1.644187341861680746e+09,3.743454597046292354e-01,-1.521969674816813001e+00,-1.521969674816813001e+00,-3.172922915085532591e-01,-1.444900321809455601e+00,7.153482745140423704e-01,-3.726974983741780933e-01
6.083333333333333037e+00,1.644187341878769875e+09,3.766845618986426891e-01,-2.428169761351018252e+00,-2.428169761351018252e+00,-3.172922915085532591e-01,-1.392895271830474568e+00,7.086603592965957654e-01,-4.296940003764230243e-01
6.099999999999999645e+00,1.644187341895802975e+09,3.790823097116174933e-01,-2.550629232504289856e+00,-2.550629232504289856e+00,-3.172922915085532591e-01,-1.333152546883308531e+00,7.010217122961280856e-01,-4.867850496990819842e-01
6.116666666666666252e+00,1.644187341914076805e+09,3.815018978928957916e-01,-2.823538911074437330e+00,-2.823538911074437330e+00,-3.172922915085532591e-01,-1.266813460525717083e+00,6.924109016178994214e-01,-5.463467785475225602e-01
6.133333333333332860e+00,1.644187341931745291e+09,3.839063823737492998e-01,-2.676587545690511494e+00,-2.676587545690511494e+00,-3.172922915085532591e-01,-1.195067872357015837e+00,6.828458286869197869e-01,-6.013092959173349517e-01
6.150000000000000355e+00,1.644187341949677944e+09,3.862589545380638589e-01,-2.736067860250672279e+00,-2.736067860250672279e+00,-3.493420179235594003e-01,-1.119140730422784724e+00,6.723745768941038481e-01,-6.550915206357432741e-01
6.166666666666666963e+00,1.644187341967292547e+09,3.885232114939849990e-01,-2.673088703657560128e+00,-2.673088703657560128e+00,-3.172922915085532591e-01,-1.040278344108809039e+00,6.610339743417094072e-01,-7.056403688794550266e-01
6.183333333333333570e+00,1.644187341982968092e+09,3.906634202863518701e-01,-2.582118810800845488e+00,-2.582118810800845488e+00,-3.493420179235594003e-01,-9.597345298755038945e-01,6.488815623761986506e-01,-7.525188459252167839e-01
6.200000000000000178e+00,1.644187342000340462e+09,3.926447740488003268e-01,-2.302211448164797059e+00,-2.302211448164797059e+00,-3.493420179235594003e-01,-8.787567730606576921e-01,6.360041629713356626e-01,-7.926575835407779769e-01
6.216666666666666785e+00,1.644187342015304327e+09,3.944336381688055004e-01,-2.211241555308081974e+00,-2.211241555308081974e+00,-3.172922915085532591e-01,-7.985725484108617822e-01,6.224869684807917691e-01,-8.293039574455498553e-01
6.233333333333333393e+00,1.644187342034632206e+09,3.959977846284332137e-01,-2.015306401462847674e+00,-2.015306401462847674e+00,-3.172922915085532591e-01,-7.203759399973256317e-01,6.084019259230712962e-01,-8.608136205788322615e-01
6.250000000000000000e+00,1.644187342050589800e+09,3.973066127870656938e-01,-2.029301769594649585e+00,-2.029301769594649585e+00,-3.493420179235594003e-01,-6.453146977534375273e-01,5.938045088925263393e-01,-8.907931446707553214e-01
6.266666666666666607e+00,1.644187342068645477e+09,3.983313549893249816e-01,9.421105665343523228e-01,9.421105665343523228e-01,-3.493420179235594003e-01,-5.744778630730713598e-01,5.791317708874093029e-01,-8.699931949412835763e-01
6.283333333333333215e+00,1.644187342086566925e+09,3.990452655106329627e-01,-8.851804248198035241e-01,-8.851804248198035241e-01,-3.493420179235594003e-01,-5.088840897821125253e-01,5.645594993128865147e-01,-8.786553319434594611e-01
6.299999999999999822e+00,1.644187342102771282e+09,3.994237914934165579e-01,-7.452267435017799757e-01,-7.452267435017799757e-01,-3.172922915085532591e-01,-4.494707794019667801e-01,5.498715918753841470e-01,-8.838790498876861745e-01
6.316666666666666430e+00,1.644187342121724129e+09,3.994447246777074190e-01,-7.312313753699777319e-01,-7.312313753699777319e-01,-3.172922915085532591e-01,-3.970841410399574833e-01,5.351065126905332203e-01,-8.879192293096674904e-01
6.333333333333333037e+00,1.644187342138543606e+09,3.990883328895108439e-01,-7.347302174029277655e-01,-7.347302174029277655e-01,-3.172922915085532591e-01,-3.524702765538776372e-01,5.202803340409967170e-01,-8.912130588927444919e-01
6.349999999999999645e+00,1.644187342154499292e+09,3.983374704176657066e-01,-9.481595814129141209e-01,-9.481595814129141209e-01,-3.172922915085532591e-01,-3.162673809448732776e-01,5.053752345688814485e-01,-8.973817421265922745e-01
6.366666666666666252e+00,1.644187342170458078e+09,3.971776665835223818e-01,-1.175584313554703941e+00,-1.175584313554703941e+00,-3.172922915085532591e-01,-2.889991363435135963e-01,4.903405300172101744e-01,-9.067567617398912816e-01
6.383333333333332860e+00,1.644187342189428806e+09,3.955971919862653619e-01,-9.761503176765194967e-01,-9.761503176765194967e-01,-3.172922915085532591e-01,-2.710693655840354932e-01,4.751808924129437006e-01,-9.123841188566340632e-01
6.400000000000000355e+00,1.644187342204391479e+09,3.935871020887373728e-01,-1.186080839653554930e+00,-1.186080839653554930e+00,-3.172922915085532591e-01,-2.627579983377892336e-01,4.599003950385174844e-01,-9.212509354487302682e-01
6.416666666666666963e+00,1.644187342222938538e+09,3.911412579925803712e-01,-1.042628316302580238e+00,-1.042628316302580238e+00,-3.172922915085532591e-01,-2.642183892290066449e-01,4.444929541008736384e-01,-9.276242729366128703e-01
6.433333333333333570e+00,1.644187342240422010e+09,3.882563244360799914e-01,-1.018136422071927116e+00,-1.018136422071927116e+00,-3.172922915085532591e-01,-2.754760134215843426e-01,4.289819990843001807e-01,-9.336735251782646294e-01
6.450000000000000178e+00,1.644187342258363485e+09,3.849317452316935451e-01,-9.726514756435684639e-01,-9.726514756435684639e-01,-3.172922915085532591e-01,-2.964285509846085187e-01,4.133744471513239871e-01,-9.392173070224246745e-01
6.466666666666666785e+00,1.644187342274345636e+09,3.811696965414280158e-01,-9.271665292152109217e-01,-9.271665292152109217e-01,-3.493420179235594003e-01,-3.268473570595951117e-01,3.976773455070161667e-01,-9.444204368160302732e-01
6.483333333333333393e+00,1.644187342290302992e+09,3.769750185656260411e-01,8.088551023231294046e-01,8.088551023231294046e-01,-3.493420179235594003e-01,-3.663803006080683655e-01,3.821285635557823412e-01,-9.214970748362121267e-01
6.500000000000000000e+00,1.644187342309204102e+09,3.723551263927668553e-01,8.556114055551372610e-01,8.556114055551372610e-01,-3.172922915085532591e-01,-4.145559404567948913e-01,3.669584754118690451e-01,-8.989760622739930707e-01
6.516666666666666607e+00,1.644187342324684620e+09,3.673199009234053847e-01,8.275576236159326582e-01,8.275576236159326582e-01,-3.493420179235594003e-01,-4.707889936221461014e-01,3.521489851241123015e-01,-8.782204281530064938e-01
6.533333333333333215e+00,1.644187342343632698e+09,3.618815609388828514e-01,9.561374575039545132e-01,9.561374575039545132e-01,-3.172922915085532591e-01,-5.343870376215864582e-01,3.376915306104075198e-01,-8.567337999745955335e-01
6.549999999999999822e+00,1.644187342359977722e+09,3.560545175337755941e-01,-9.411618973470131655e-01,-9.411618973470131655e-01,-3.493420179235594003e-01,-6.045583758042513134e-01,3.233174707887047084e-01,-8.681217447054138114e-01
6.566666666666666430e+00,1.644187342376317263e+09,3.498552122691133137e-01,-1.067120210533234470e+00,-1.067120210533234470e+00,-3.172922915085532591e-01,-6.804209827797322863e-01,3.087273091905678446e-01,-8.826572696624930270e-01
6.583333333333333037e+00,1.644187342391413689e+09,3.433019405298151083e-01,-1.081115578665037935e+00,-1.081115578665037935e+00,-3.493420179235594003e-01,-7.610124359165095775e-01,2.938838321181564961e-01,-8.985159261664408259e-01
6.599999999999999645e+00,1.644187342410761595e+09,3.364146616840524295e-01,-1.312039152839777456e+00,-1.312039152839777456e+00,-3.172922915085532591e-01,-8.453007287294558303e-01,2.787346972892120189e-01,-9.193224560303169257e-01
6.616666666666666252e+00,1.644187342426711082e+09,3.292147977428774297e-01,-1.242062312180764572e+00,-1.242062312180764572e+00,-3.493420179235594003e-01,-9.321958528821647771e-01,2.632393240090650233e-01,-9.400647188345521155e-01
6.633333333333332860e+00,1.644187342444662571e+09,3.217250223052088298e-01,1.299796286259214062e+00,1.299796286259214062e+00,-3.172922915085532591e-01,-1.020562027586514597e+00,2.477399888783241855e-01,-9.199114793925996514e-01
6.649999999999999467e+00,1.644187342461866140e+09,3.139690416450681698e-01,1.278755949804810443e+00,1.278755949804810443e+00,-3.172922915085532591e-01,-1.109230448468175867e+00,2.325586044678235043e-01,-9.019046699598217698e-01
6.666666666666666963e+00,1.644187342478041649e+09,3.059713698544758165e-01,-1.665422198167787471e+00,-1.665422198167787471e+00,-3.172922915085532591e-01,-1.197012422551162469e+00,2.172560705934463154e-01,-9.343093797640937836e-01
6.683333333333333570e+00,1.644187342494256973e+09,2.977570999961894338e-01,-1.990814507232193220e+00,-1.990814507232193220e+00,-3.172922915085532591e-01,-1.282712751951520902e+00,2.013611536566703164e-01,-9.729732504803796367e-01
6.700000000000000178e+00,1.644187342513208151e+09,2.893516732450687190e-01,-1.868355036078922948e+00,-1.868355036078922948e+00,-3.493420179235594003e-01,-1.365143226201069648e+00,1.848327079727640210e-01,-1.010336442501139853e+00
6.716666666666666785e+00,1.644187342528173208e+09,2.807806480053098852e-01,-1.721403670694997334e+00,-1.721403670694997334e+00,-3.172922915085532591e-01,-1.443136081874657251e+00,1.676962276283396336e-01,-1.045942291366209753e+00
6.733333333333333393e+00,1.644187342547115803e+09,2.720694709828693769e-01,-1.644429145970084383e+00,-1.644429145970084383e+00,-3.493420179235594003e-01,-1.515557288380209089e+00,1.499718632736933843e-01,-1.080884367584068473e+00
6.750000000000000000e+00,1.644187342564049959e+09,2.632432521683358839e-01,-1.766888617123354654e+00,-1.766888617123354654e+00,-3.172922915085532591e-01,-1.581319520391337496e+00,1.316439599235268432e-01,-1.118359933192480060e+00
6.766666666666666607e+00,1.644187342581008196e+09,2.543265456454176787e-01,-1.437997466025998872e+00,-1.437997466025998872e+00,-3.172922915085532591e-01,-1.639394680438746921e+00,1.127340451968543711e-01,-1.150739887573553277e+00
6.783333333333333215e+00,1.644187342598222256e+09,2.453431380844984799e-01,-1.458990518223702182e+00,-1.458990518223702182e+00,-3.172922915085532591e-01,-1.688825839601816092e+00,9.327920987207365122e-02,-1.183748658212531168e+00
6.799999999999999822e+00,1.644187342616738558e+09,2.363158467098469551e-01,1.302134101420814538e+00,1.302134101420814538e+00,-3.172922915085532591e-01,-1.728738470010691142e+00,7.365464271560734355e-02,-1.171234163865896072e+00
6.816666666666666430e+00,1.644187342630987883e+09,2.272663284436090281e-01,-1.098609788829789879e+00,-1.098609788829789879e+00,-3.172922915085532591e-01,-1.758350849924697812e+00,5.390123993600184904e-02,-1.199096771732198752e+00
6.833333333333333037e+00,1.644187342649257660e+09,2.182149018303804200e-01,-1.175584313554703941e+00,-1.175584313554703941e+00,-3.493420179235594003e-01,-1.776983530425767732e+00,3.367410344103471953e-02,-1.228079099303572841e+00
6.849999999999999645e+00,1.644187342668253422e+09,2.091803832338466063e-01,-9.586561075117663311e-01,-9.586561075117663311e-01,-3.172922915085532591e-01,-1.784067762172361515e+00,1.299691496119276951e-02,-1.253113975318466355e+00
6.866666666666666252e+00,1.644187342683214188e+09,2.001799386724359420e-01,1.012245021382364385e+00,1.012245021382364385e+00,-3.172922915085532591e-01,-1.779152791107612597e+00,-7.821162917062245146e-03,-1.245077693602298918e+00
6.883333333333332860e+00,1.644187342699465036e+09,1.912289525254772526e-01,1.157189561401589462e+00,1.157189561401589462e+00,-3.172922915085532591e-01,-1.761911943400030545e+00,-2.848401161527631259e-02,-1.234493551270725575e+00
6.899999999999999467e+00,1.644187342719760656e+09,1.823409141957025859e-01,1.152513931078388509e+00,1.152513931078388509e+00,-3.172922915085532591e-01,-1.732147432102993267e+00,-4.896845453955877420e-02,-1.223669666696853175e+00
6.916666666666666963e+00,1.644187342735813618e+09,1.735273236597008051e-01,1.194594603987195969e+00,1.194594603987195969e+00,-3.493420179235594003e-01,-1.689793830928894458e+00,-6.926233228388158081e-02,-1.211629109401558768e+00
6.933333333333333570e+00,1.644187342751777172e+09,1.647976166760264372e-01,1.330187883360019141e+00,1.330187883360019141e+00,-3.493420179235594003e-01,-1.634920174015090932e+00,-8.933088973278691114e-02,-1.196639423463571328e+00
6.950000000000000178e+00,1.644187342770016193e+09,1.561591102526322661e-01,1.276418134643210189e+00,1.276418134643210189e+00,-3.172922915085532591e-01,-1.567730654478651564e+00,-1.091498359201852619e-01,-1.181675685940096976e+00
6.966666666666666785e+00,1.644187342787878275e+09,1.476169688024092097e-01,1.037960988159968512e+00,1.037960988159968512e+00,-3.172922915085532591e-01,-1.488563908774460209e+00,-1.287434545507225303e-01,-1.169592115986467951e+00
6.983333333333333393e+00,1.644187342804810762e+09,1.391741912392920888e-01,1.133811409785585367e+00,1.133811409785585367e+00,-3.493420179235594003e-01,-1.397890888245324703e+00,-1.481115866265104164e-01,-1.154625308551675777e+00
7.000000000000000000e+00,1.644187342824730635e+09,1.308316190891273545e-01,1.122122333977583430e+00,1.122122333977583430e+00,-3.172922915085532591e-01,-1.296311333638895835e+00,-1.672199234168449400e-01,-1.138420121755696401e+00
7.016666666666666607e+00,1.644187342840715170e+09,1.225879655106267840e-01,1.089392921715177653e+00,1.089392921715177653e+00,-3.493420179235594003e-01,-1.184548882620097832e+00,-1.860494959463177556e-01,-1.121176481907972367e+00
7.033333333333333215e+00,1.644187342854675770e+09,1.144398649438796295e-01,1.124460149139183684e+00,1.124460149139183684e+00,-3.172922915085532591e-01,-1.063444854286929697e+00,-2.045724857266982000e-01,-1.101636570546721039e+00
7.049999999999999822e+00,1.644187342873911381e+09,1.063819429283267282e-01,1.115108888492782002e+00,1.115108888492782002e+00,-3.493420179235594003e-01,-9.339507682606975614e-01,-2.227559149930422588e-01,-1.080433839276508934e+00
7.066666666666666430e+00,1.644187342888848305e+09,9.840690546039537745e-02,1.290445025612812158e+00,1.290445025612812158e+00,-3.172922915085532591e-01,-7.971196689334736352e-01,-2.405457772422447960e-01,-1.054421887749317444e+00
7.083333333333333037e+00,1.644187342903005123e+09,9.050564709448041811e-02,1.227324016249601302e+00,1.227324016249601302e+00,-3.493420179235594003e-01,-6.540963377840128823e-01,-2.578946636011642535e-01,-1.027519206749304859e+00
7.099999999999999645e+00,1.644187342921224594e+09,8.266737683097005740e-02,1.435389565632037456e+00,1.435389565632037456e+00,-3.172922915085532591e-01,-5.061064881948456051e-01,-2.747497092057728518e-01,-9.951761098540763406e-01
7.116666666666666252e+00,1.644187342939174414e+09,7.487976068294829868e-02,1.318498807552017205e+00,1.318498807552017205e+00,-3.172922915085532591e-01,-3.544450478010751082e-01,-2.910653678961516722e-01,-9.627928885011818316e-01
7.133333333333332860e+00,1.644187342957320690e+09,6.712907967020426137e-02,1.222648385926400794e+00,1.222648385926400794e+00,-3.172922915085532591e-01,-2.004636429679211851e-01,-3.068377499369341899e-01,-9.299840940777579501e-01
7.149999999999999467e+00,1.644187342972280264e+09,5.940040185646910942e-02,1.297458471097613586e+00,1.297458471097613586e+00,-3.493420179235594003e-01,-4.555740843317424016e-02,-3.220361217716830593e-01,-8.939207045319350620e-01
7.166666666666666963e+00,1.644187342990211964e+09,5.167776692444886466e-02,1.290445025612812158e+00,1.290445025612812158e+00,-3.172922915085532591e-01,1.088487476252231745e-01,-3.366180602526310794e-01,-8.560172031636864576e-01
7.183333333333333570e+00,1.644187343007922649e+09,4.394438167423259795e-02,1.531239987257653645e+00,1.531239987257653645e+00,-3.172922915085532591e-01,2.613142868993340029e-01,-3.505191916246841455e-01,-8.122401672223502622e-01
7.200000000000000178e+00,1.644187343023902655e+09,3.618282473489753404e-02,1.533577802419254565e+00,1.533577802419254565e+00,-3.172922915085532591e-01,4.103974518553971107e-01,-3.636758378957674065e-01,-7.666839333800228307e-01
7.216666666666666785e+00,1.644187343042831182e+09,2.837525869745302978e-02,1.603712257267266628e+00,1.603712257267266628e+00,-3.172922915085532591e-01,5.546698002586087917e-01,-3.760498918779135447e-01,-7.183368451057787762e-01
7.233333333333333393e+00,1.644187343060292244e+09,2.050364781023257532e-02,1.552280323712057264e+00,1.552280323712057264e+00,-3.493420179235594003e-01,6.927307175865713429e-01,-3.876128735409811177e-01,-6.693570127544007375e-01
7.250000000000000000e+00,1.644187343078264475e+09,1.254997932619470249e-02,1.517213096288051677e+00,1.517213096288051677e+00,-3.172922915085532591e-01,8.232217612933282469e-01,-3.983531097986242608e-01,-6.196095288704013271e-01
7.266666666666666607e+00,1.644187343096590519e+09,4.496486555496810068e-03,1.531239987257653645e+00,1.531239987257653645e+00,-3.172922915085532591e-01,9.448406920351613003e-01,-4.082523570035858640e-01,-5.684422703438928304e-01
7.283333333333333215e+00,1.644187343112513542e+09,-3.674128343176326361e-03,1.790737470195299164e+00,1.790737470195299164e+00,-3.172922915085532591e-01,1.056355049567850202e+00,-4.172546394731876940e-01,-5.119884458782385517e-01
7.299999999999999822e+00,1.644187343129948139e+09,-1.197847380295631418e-02,1.765021503417694149e+00,1.765021503417694149e+00,-3.172922915085532591e-01,1.156615135046947795e+00,-4.253135262278955331e-01,-4.552356151491199765e-01
7.316666666666666430e+00,1.644187343146228313e+09,-2.043225247867235320e-02,1.636441669529672627e+00,1.636441669529672627e+00,-3.493420179235594003e-01,1.244566266872113136e+00,-4.324399828563512127e-01,-4.000923595806344935e-01
7.333333333333333037e+00,1.644187343161212683e+09,-2.905005099558369622e-02,1.977762683123330811e+00,1.977762683123330811e+00,-3.493420179235594003e-01,1.319260183961764366e+00,-4.385975414495006941e-01,-3.389844198694000887e-01
7.349999999999999645e+00,1.644187343182157516e+09,-3.784513770169495306e-02,2.113355962496154650e+00,2.113355962496154650e+00,-3.493420179235594003e-01,1.379865478359506792e+00,-4.437179755950136917e-01,-2.756436283762927486e-01
7.366666666666666252e+00,1.644187343199134827e+09,-4.682927024814764749e-02,2.150761005081761379e+00,2.150761005081761379e+00,-3.172922915085532591e-01,1.425676948284147816e+00,-4.477799846378039406e-01,-2.119743201107373576e-01
7.383333333333332860e+00,1.644187343216092110e+09,-5.601251474692363341e-02,1.933344195052923764e+00,1.933344195052923764e+00,-3.493420179235594003e-01,1.456123773048384695e+00,-4.508154569671191103e-01,-1.524477149797337505e-01
7.399999999999999467e+00,1.644187343233135939e+09,-6.540307816510776417e-02,1.844507218912107893e+00,1.844507218912107893e+00,-3.172922915085532591e-01,1.470776422589624266e+00,-4.528772874315260544e-01,-9.513115715696460195e-02
7.416666666666666963e+00,1.644187343251064777e+09,-7.500715551127280778e-02,1.655144190822475325e+00,1.655144190822475325e+00,-3.172922915085532591e-01,1.469352226567856246e+00,-4.540181101503775740e-01,-4.191539414827421400e-02
7.433333333333333570e+00,1.644187343267013788e+09,-8.482879325273978699e-02,1.743981166963290530e+00,1.743981166963290530e+00,-3.172922915085532591e-01,1.451719540971711853e+00,-4.542695189013519208e-01,1.159769306828347529e-02
7.450000000000000178e+00,1.644187343284963608e+09,-9.486977027351173319e-02,1.685535787923280626e+00,1.685535787923280626e+00,-3.172922915085532591e-01,1.417900463807064249e+00,-4.536491777324197505e-01,6.270128942819039319e-02
7.466666666666666785e+00,1.644187343299925804e+09,-1.051294975427675416e-01,1.638779484691272659e+00,1.638779484691272659e+00,-3.493420179235594003e-01,1.368072065589002850e+00,-4.521975087388748760e-01,1.113638129393167558e-01
7.483333333333333393e+00,1.644187343318873405e+09,-1.156049375137360447e-01,1.715927385024086371e+00,1.715927385024086371e+00,-3.493420179235594003e-01,1.302566114879555759e+00,-4.499399109869487989e-01,1.594144401857847115e-01
7.500000000000000000e+00,1.644187343335833311e+09,-1.262905441140551588e-01,1.811777806649702782e+00,1.811777806649702782e+00,-3.172922915085532591e-01,1.221867293866276238e+00,-4.468860134775559656e-01,2.069212943516581804e-01
7.516666666666666607e+00,1.644187343352784395e+09,-1.371782240224190541e-01,1.804764361164901576e+00,1.804764361164901576e+00,-3.172922915085532591e-01,1.126609913815997510e+00,-4.430610224332535707e-01,2.519525412237041406e-01
7.533333333333333215e+00,1.644187343367848396e+09,-1.482573197537993270e-01,1.613063517913668088e+00,1.613063517913668088e+00,-3.172922915085532591e-01,1.017573155017631237e+00,-4.385332683736921644e-01,2.912687317129977194e-01
7.549999999999999822e+00,1.644187343383955717e+09,-1.595146148982843348e-01,1.362917295622424696e+00,1.362917295622424696e+00,-3.172922915085532591e-01,8.956748704013264284e-01,-4.334070618174241663e-01,3.237857279237922326e-01
7.566666666666666430e+00,1.644187343401407719e+09,-1.709343616777925234e-01,1.236675276896003206e+00,1.236675276896003206e+00,-3.172922915085532591e-01,7.619640062449872797e-01,-4.277793014099440239e-01,3.514686222353285983e-01
7.583333333333333037e+00,1.644187343417501211e+09,-1.824983308023345741e-01,1.112771073331181748e+00,1.112771073331181748e+00,-3.172922915085532591e-01,6.176117071123430335e-01,-4.217310347277850591e-01,3.742600685605617095e-01
7.599999999999999645e+00,1.644187343435473204e+09,-1.941858834243329612e-01,1.220310570764800318e+00,1.220310570764800318e+00,-3.493420179235594003e-01,4.639011852730453578e-01,-4.153124357377398490e-01,3.959116655044805921e-01
7.616666666666666252e+00,1.644187343451808453e+09,-2.059740648073119795e-01,1.140824855270386795e+00,1.140824855270386795e+00,-3.172922915085532591e-01,3.022164472049559958e-01,-4.085692779113859197e-01,4.132191960527156760e-01
7.633333333333332860e+00,1.644187343469760180e+09,-2.178377191456601358e-01,1.096406367199978638e+00,1.096406367199978638e+00,-3.172922915085532591e-01,1.340299812490605147e-01,-4.015694168696505306e-01,4.267266074851309154e-01
7.649999999999999467e+00,1.644187343485224485e+09,-2.297496247962383942e-01,1.175892082694392826e+00,1.175892082694392826e+00,-3.172922915085532591e-01,-3.911047903615916255e-02,-3.943592335945299565e-01,4.384627842709808987e-01
7.666666666666666963e+00,1.644187343503226280e+09,-2.416806490122471451e-01,1.351228219814423204e+00,1.351228219814423204e+00,-3.172922915085532591e-01,-2.155959918960286825e-01,-3.869552271319228742e-01,4.499859816070137519e-01
7.683333333333333570e+00,1.644187343521178007e+09,-2.535999211058658220e-01,-1.612939567673528973e+00,-1.612939567673528973e+00,-3.493420179235594003e-01,-3.937711126651670668e-01,-3.797947809405747832e-01,4.093803574100207121e-01
7.700000000000000178e+00,1.644187343537135363e+09,-2.654750228104894583e-01,-1.654925672068935372e+00,-1.654925672068935372e+00,-3.172922915085532591e-01,-5.719491282945610156e-01,-3.733358958615481393e-01,3.658068923249357951e-01
7.716666666666666785e+00,1.644187343552562952e+09,-2.772721944668574690e-01,-1.591946515475824553e+00,-1.591946515475824553e+00,-3.172922915085532591e-01,-7.484276765293901290e-01,-3.676128934044732843e-01,3.210776533344407158e-01
7.733333333333333393e+00,1.644187343569746017e+09,-2.889565555214035908e-01,-2.470155865746425761e+00,-2.470155865746425761e+00,-3.172922915085532591e-01,-9.215046009802687621e-01,-3.627744044239248344e-01,2.597114899084473350e-01
7.750000000000000000e+00,1.644187343589743376e+09,-3.004923377007459040e-01,-2.945998382227707157e+00,-2.945998382227707157e+00,-3.172922915085532591e-01,-1.089493890606901161e+00,-3.590391352790103796e-01,1.887180162162894193e-01
7.766666666666666607e+00,1.644187343606035471e+09,-3.118431291144353468e-01,-2.505144286075932314e+00,-2.505144286075932314e+00,-3.493420179235594003e-01,-1.250741550882428887e+00,-3.564386656611830406e-01,1.235194493158227602e-01
7.783333333333333215e+00,1.644187343622212410e+09,-3.229721274398614783e-01,-2.270721869868241427e+00,-2.270721869868241427e+00,-3.172922915085532591e-01,-1.403641254142821371e+00,-3.549045736086479108e-01,6.074597186310323749e-02
7.799999999999999822e+00,1.644187343638518810e+09,-3.338424002592784157e-01,-2.151761240747921189e+00,-2.151761240747921189e+00,-3.493420179235594003e-01,-1.546649618347128552e+00,-3.544113573614657842e-01,-1.387425368996400565e-03
7.816666666666666430e+00,1.644187343655331612e+09,-3.444171505501027464e-01,-1.612939567673528973e+00,-1.612939567673528973e+00,-3.493420179235594003e-01,-1.678300966669262539e+00,-3.548888772705691141e-01,-5.576391436560625831e-02
7.833333333333333037e+00,1.644187343673250198e+09,-3.546599852764268368e-01,1.760345873094493419e+00,1.760345873094493419e+00,-3.493420179235594003e-01,-1.797221424977176962e+00,-3.558156669732783217e-01,-5.545171719427510054e-02
7.849999999999999645e+00,1.644187343690232754e+09,-3.645351849925824728e-01,1.788399655033698465e+00,1.788399655033698465e+00,-3.493420179235594003e-01,-1.902142220290614860e+00,-3.567479134208694225e-01,-5.641518016763259064e-02
7.866666666666666252e+00,1.644187343706522226e+09,-3.740079723489427854e-01,1.570982845004860851e+00,1.570982845004860851e+00,-3.172922915085532591e-01,-1.991912050684715219e+00,-3.577385132827490266e-01,-6.244006706708387505e-02
7.883333333333332860e+00,1.644187343722722292e+09,-3.830447773861320737e-01,1.729954275993688340e+00,1.729954275993688340e+00,-3.172922915085532591e-01,-2.065508405753924137e+00,-3.588169037178156606e-01,-6.695424546135450572e-02
7.899999999999999467e+00,1.644187343738583088e+09,-3.916134975164758947e-01,1.767359318579294847e+00,1.767359318579294847e+00,-3.172922915085532591e-01,-2.122047726585979177e+00,-3.599725497949400332e-01,-7.171007285100818029e-02
7.916666666666666963e+00,1.644187343756511688e+09,-3.996837501209491439e-01,1.828142512780905671e+00,1.828142512780905671e+00,-3.172922915085532591e-01,-2.160794305124045245e+00,-3.612037590762888217e-01,-7.602306010871170971e-02
7.933333333333333570e+00,1.644187343773488998e+09,-4.072271157355786819e-01,1.919317304083320908e+00,1.919317304083320908e+00,-3.172922915085532591e-01,-2.181167834711526865e+00,-3.624964766610513922e-01,-7.909451803441923390e-02
7.950000000000000178e+00,1.644187343788840532e+09,-4.142173698633573320e-01,1.706576124377684245e+00,1.706576124377684245e+00,-3.172922915085532591e-01,-2.182749536402504464e+00,-3.638695633632605952e-01,-8.565765486595702805e-02
7.966666666666666785e+00,1.644187343809554100e+09,-4.206307015252330750e-01,1.507861835641650217e+00,1.507861835641650217e+00,-3.172922915085532591e-01,-2.165286799158300912e+00,-3.653761637303261089e-01,-9.510813722416901206e-02
7.983333333333333393e+00,1.644187343825518847e+09,-4.264459167566189146e-01,1.545266878227256502e+00,1.545266878227256502e+00,-3.172922915085532591e-01,-2.128696286205189026e+00,-3.670287465283036954e-01,-1.031793778924903204e-01
8.000000000000000000e+00,1.644187343848147154e+09,-4.316446253629973584e-01,1.825804697619305195e+00,1.825804697619305195e+00,-3.493420179235594003e-01,-2.073065474462787883e+00,-3.687683034212274613e-01,-1.055608339469579493e-01
8.016666666666665719e+00,1.644187343861130714e+09,-4.362114093690050987e-01,1.860871925043310782e+00,1.860871925043310782e+00,-3.172922915085532591e-01,-1.998652608924880614e+00,-3.705321008754264844e-01,-1.060933812241184049e-01
8.033333333333333215e+00,1.644187343877224684e+09,-4.401339717289263209e-01,1.732292091155289260e+00,1.732292091155289260e+00,-3.493420179235594003e-01,-1.905885069038604440e+00,-3.723096469737993686e-01,-1.072090514238007580e-01
8.050000000000000711e+00,1.644187343895151377e+09,-4.434032640116206125e-01,2.031532431840139985e+00,2.031532431840139985e+00,-3.172922915085532591e-01,-1.795356159336761070e+00,-3.740490359452491864e-01,-1.015333912439612962e-01
8.066666666666666430e+00,1.644187343912126064e+09,-4.460135919287290251e-01,2.499095464160220992e+00,2.499095464160220992e+00,-3.172922915085532591e-01,-1.667820351683221958e+00,-3.756124191566700410e-01,-8.611542282459047626e-02
8.083333333333333925e+00,1.644187343931467295e+09,-4.479626977400368304e-01,2.548189582553829879e+00,2.548189582553829879e+00,-3.493420179235594003e-01,-1.524187021345727144e+00,-3.768943461538750705e-01,-6.776678647391708166e-02
8.099999999999999645e+00,1.644187343945822716e+09,-4.492518187430939447e-01,2.576243364493034704e+00,2.576243364493034704e+00,-3.172922915085532591e-01,-1.365512733569778536e+00,-3.778472058938827649e-01,-4.663508288518847938e-02
8.116666666666667140e+00,1.644187343962755203e+09,-4.498857212341171308e-01,2.728201349997060543e+00,2.728201349997060543e+00,-3.172922915085532591e-01,-1.192992151249979926e+00,-3.784059721538288179e-01,-2.048949664612444155e-02
8.133333333333332860e+00,1.644187343979995251e+09,-4.498727095124862019e-01,3.102251775853125615e+00,3.102251775853125615e+00,-3.493420179235594003e-01,-1.007947647545540670e+00,-3.784553674138978474e-01,1.446496741907100925e-02
8.150000000000000355e+00,1.644187343997965813e+09,-4.492246096903659280e-01,3.120954297145928980e+00,3.120954297145928980e+00,-3.172922915085532591e-01,-8.118177197368469100e-01,-3.778973434358331440e-01,5.239255306449100424e-02
8.166666666666666075e+00,1.644187344015918493e+09,-4.479567282606261580e-01,3.228493794579547327e+00,3.228493794579547327e+00,-3.172922915085532591e-01,-6.061443121455520888e-01,-3.766691704846726330e-01,9.487020482056374160e-02
8.183333333333333570e+00,1.644187344033869267e+09,-4.460877855688358262e-01,3.272912282649955262e+00,3.272912282649955262e+00,-3.172922915085532591e-01,-3.925591664334827091e-01,-3.747032681147321465e-01,1.409101877208978060e-01
8.199999999999999289e+00,1.644187344050817013e+09,-4.436398245271838126e-01,2.690796307411454258e+00,2.690796307411454258e+00,-3.172922915085532591e-01,-1.727693269485229277e-01,-3.720264364285241765e-01,1.802004723757386906e-01
8.216666666666666785e+00,1.644187344067774296e+09,-4.406380950981532707e-01,2.426623194150609120e+00,2.426623194150609120e+00,-3.493420179235594003e-01,5.145806308785377814e-02,-3.687057107816802959e-01,2.181811010162025277e-01
8.233333333333332504e+00,1.644187344084726334e+09,-4.371109152622762450e-01,2.468703867059416357e+00,2.468703867059416357e+00,-3.493420179235594003e-01,2.783115319404815824e-01,-3.647200752430239667e-01,2.599790554608777948e-01
8.250000000000000000e+00,1.644187344101681709e+09,-4.330895093657590733e-01,2.038545877324941635e+00,2.038545877324941635e+00,-3.172922915085532591e-01,5.059514682122884244e-01,-3.600715521792084983e-01,2.977388214893494922e-01
8.266666666666665719e+00,1.644187344117640018e+09,-4.286078249188292055e-01,1.657482005984076245e+00,1.657482005984076245e+00,-3.172922915085532591e-01,7.325265761189077018e-01,-3.548202531444010210e-01,3.323209988229250955e-01
8.283333333333333215e+00,1.644187344135695457e+09,-4.237023290829469158e-01,1.746318982124891228e+00,1.746318982124891228e+00,-3.172922915085532591e-01,9.561904425657505868e-01,-3.489541982226490036e-01,3.714967676460171342e-01
8.300000000000000711e+00,1.644187344152341127e+09,-4.184117862431513957e-01,1.795413100518499894e+00,1.795413100518499894e+00,-3.172922915085532591e-01,1.175118060351786564e+00,-3.424036055013132684e-01,4.144550276058528437e-01
8.316666666666666430e+00,1.644187344169596434e+09,-4.127770182096843210e-01,1.699562678892883483e+00,1.699562678892883483e+00,-3.172922915085532591e-01,1.387522152265795672e+00,-3.351268767458503994e-01,4.586297127030345977e-01
8.333333333333333925e+00,1.644187344186565399e+09,-4.068406487292712259e-01,1.290445025612812158e+00,1.290445025612812158e+00,-3.172922915085532591e-01,1.591669142784010615e+00,-3.271483153185304471e-01,4.986863874156617360e-01
8.349999999999999645e+00,1.644187344202527523e+09,-4.006468341102442099e-01,1.056663509452771876e+00,1.056663509452771876e+00,-3.493420179235594003e-01,1.785894627495156373e+00,-3.185131387926995461e-01,5.374271798389629318e-01
8.366666666666667140e+00,1.644187344220451832e+09,-3.942409818757194317e-01,9.514618271807538941e-01,9.514618271807538941e-01,-3.172922915085532591e-01,1.968618195242713309e+00,-3.092269259292239059e-01,5.768089673492117209e-01
8.383333333333332860e+00,1.644187344238424063e+09,-3.876694594548774075e-01,9.210702300799484821e-01,9.210702300799484821e-01,-3.493420179235594003e-01,2.138357464234795113e+00,-2.992705426027466586e-01,6.178430455946468669e-01
8.400000000000000355e+00,1.644187344255044222e+09,-3.809792950027711678e-01,1.395646707884830695e+00,1.395646707884830695e+00,-3.172922915085532591e-01,2.293741200966207483e+00,-2.885489152003771762e-01,6.686112166731279505e-01
8.416666666666666075e+00,1.644187344271050215e+09,-3.742178725038380338e-01,-1.490480096520257369e+00,-1.490480096520257369e+00,-3.493420179235594003e-01,2.433521399655261597e+00,-2.773674905020168668e-01,6.731471470270177226e-01
8.433333333333333570e+00,1.644187344287008762e+09,-3.674326233624918836e-01,-2.655594493492808184e+00,-2.655594493492808184e+00,-3.172922915085532591e-01,2.556584209927516671e+00,-2.662550221544976448e-01,6.603845072867435828e-01
8.449999999999999289e+00,1.644187344305955887e+09,-3.606707167157639504e-01,-3.957163729750431180e+00,-3.957163729750431180e+00,-3.493420179235594003e-01,2.661959611587506380e+00,-2.555187205764480884e-01,6.280614704059785947e-01
8.466666666666666785e+00,1.644187344322985411e+09,-3.539787507174058101e-01,-4.758398555296118104e+00,-4.758398555296118104e+00,-3.172922915085532591e-01,2.748829747393541467e+00,-2.454153402131566131e-01,5.844652765776441328e-01
8.483333333333332504e+00,1.644187344336954117e+09,-3.474024470402354847e-01,-5.255234123975103699e+00,-5.255234123975103699e+00,-3.172922915085532591e-01,2.816535837676982013e+00,-2.360918131299717948e-01,5.344967780561572512e-01
8.500000000000000000e+00,1.644187344355895281e+09,-3.409863508236848917e-01,-5.955002530565224106e+00,-5.955002530565224106e+00,-3.493420179235594003e-01,2.864583614295198366e+00,-2.276842086601313375e-01,4.745821916484830316e-01
8.516666666666665719e+00,1.644187344373849630e+09,-3.347735382567016416e-01,-6.483327677540765777e+00,-6.483327677540765777e+00,-3.172922915085532591e-01,2.892647225647328568e+00,-2.203360015707649111e-01,4.073893103608926536e-01
8.533333333333333215e+00,1.644187344390801907e+09,-3.288053339325687774e-01,-6.980163246219748707e+00,-6.980163246219748707e+00,-3.172922915085532591e-01,2.900571579171777437e+00,-2.141659237828906770e-01,3.332260381222189038e-01
8.550000000000000711e+00,1.644187344406760216e+09,-3.231210400423124018e-01,-7.281063661053499558e+00,-7.281063661053499558e+00,-3.172922915085532591e-01,2.888373102743469367e+00,-2.092649024392491675e-01,2.551135074734102171e-01
8.566666666666666430e+00,1.644187344423716307e+09,-3.177576793876238370e-01,-7.186594926163835773e+00,-7.186594926163835773e+00,-3.172922915085532591e-01,2.856238921548710508e+00,-2.056463579850525414e-01,1.793223629422948384e-01
8.583333333333333925e+00,1.644187344441665888e+09,-3.127497540933399933e-01,-6.724747777814355842e+00,-6.724747777814355842e+00,-3.172922915085532591e-01,2.804524462190177481e+00,-2.032238832306930976e-01,1.115628329275324127e-01
8.599999999999999645e+00,1.644187344459623575e+09,-3.081290217842548862e-01,-6.570798728364530383e+00,-6.570798728364530383e+00,-3.493420179235594003e-01,2.733749510814957429e+00,-2.019098869485564662e-01,4.629801635290289874e-02
8.616666666666667140e+00,1.644187344476572514e+09,-3.039242908621864192e-01,-6.203420314904716015e+00,-6.203420314904716015e+00,-3.172922915085532591e-01,2.644592766819196861e+00,-2.016361950844887951e-01,-1.328946797925675827e-02
8.633333333333332860e+00,1.644187344493495226e+09,-3.001612363779689874e-01,-5.321712122601164552e+00,-5.321712122601164552e+00,-3.172922915085532591e-01,2.537884948019287101e+00,-2.022403542679308552e-01,-5.908242837217930754e-02
8.650000000000000355e+00,1.644187344509705544e+09,-2.968622378402102080e-01,-4.195084987991071657e+00,-4.195084987991071657e+00,-3.172922915085532591e-01,2.414600516953962828e+00,-2.034628223165300953e-01,-8.753470150753188406e-02
8.666666666666666075e+00,1.644187344527600527e+09,-2.940462401396705672e-01,-3.747233207773394525e+00,-3.747233207773394525e+00,-3.493420179235594003e-01,2.275848111057769074e+00,-2.051128721154099055e-01,-1.104077366539124860e-01
8.683333333333333570e+00,1.644187344545570135e+09,-2.917286385960604078e-01,-3.782221628102901079e+00,-3.782221628102901079e+00,-3.172922915085532591e-01,2.122859771701285148e+00,-2.071669433755448098e-01,-1.360096963338044973e-01
8.699999999999999289e+00,1.644187344563521862e+09,-2.899211889543271692e-01,-4.384022457770404557e+00,-4.384022457770404557e+00,-3.172922915085532591e-01,1.956979078403629169e+00,-2.097502103632352122e-01,-1.738771523355603366e-01
8.716666666666666785e+00,1.644187344577138662e+09,-2.886319429715011320e-01,-4.153098883595664148e+00,-4.153098883595664148e+00,-3.172922915085532591e-01,1.779648304784815727e+00,-2.129519690813497512e-01,-2.102329032642932527e-01
8.733333333333332504e+00,1.644187344596184969e+09,-2.878652100442342654e-01,-4.695419398703007730e+00,-4.695419398703007730e+00,-3.172922915085532591e-01,1.592394721933977353e+00,-2.168554046455975493e-01,-2.580465456461960017e-01
8.750000000000000000e+00,1.644187344613435507e+09,-2.876215451329398598e-01,-4.405015509968108312e+00,-4.405015509968108312e+00,-3.493420179235594003e-01,1.396816182743816359e+00,-2.215360328808060608e-01,-3.035025728647257059e-01
