# 
# 
# 
# 
# 
# 
# 
# 
# 
# 
# time,realtime,ref,inp,dis,state...
0.000000000000000000e+00,1.685120799030331135e+09,0.000000000000000000e+00,5.298357095448045229e-01,0.000000000000000000e+00,8.669450995258987103e-01
1.666666666666666644e-02,1.685120799031306505e+09,0.000000000000000000e+00,8.669450995258987103e-01,0.000000000000000000e+00,8.669450995258987103e-01
3.333333333333333287e-02,1.685120799033331394e+09,0.000000000000000000e+00,5.138108463373021184e-01,0.000000000000000000e+00,5.138108463373021184e-01
5.000000000000000278e-02,1.685120799050333738e+09,0.000000000000000000e+00,4.990523742691441722e-01,0.000000000000000000e+00,4.990523742691441722e-01
6.666666666666666574e-02,1.685120799067306995e+09,0.000000000000000000e+00,4.554759645932093259e-01,0.000000000000000000e+00,4.554759645932093259e-01
8.333333333333332871e-02,1.685120799083333254e+09,0.000000000000000000e+00,4.642712032433979341e-01,0.000000000000000000e+00,4.642712032433979341e-01
1.000000000000000056e-01,1.685120799102340221e+09,0.000000000000000000e+00,4.314889500926946675e-01,0.000000000000000000e+00,4.314889500926946675e-01
1.166666666666666685e-01,1.685120799119342089e+09,0.000000000000000000e+00,4.378854872928318875e-01,0.000000000000000000e+00,4.378854872928318875e-01
1.333333333333333315e-01,1.685120799136353016e+09,0.000000000000000000e+00,4.646709868184065728e-01,0.000000000000000000e+00,4.646709868184065728e-01
1.499999999999999944e-01,1.685120799152362823e+09,0.000000000000000000e+00,4.558757481682178536e-01,0.000000000000000000e+00,4.558757481682178536e-01
1.666666666666666574e-01,1.685120799167363882e+09,0.000000000000000000e+00,4.814618969687667338e-01,0.000000000000000000e+00,4.814618969687667338e-01
1.833333333333333204e-01,1.685120799185366392e+09,0.000000000000000000e+00,4.630718525183721845e-01,0.000000000000000000e+00,4.630718525183721845e-01
2.000000000000000111e-01,1.685120799201366663e+09,0.000000000000000000e+00,5.362322467449417429e-01,0.000000000000000000e+00,5.362322467449417429e-01
2.166666666666666741e-01,1.685120799219363213e+09,0.000000000000000000e+00,5.494251047202246552e-01,0.000000000000000000e+00,5.494251047202246552e-01
2.333333333333333370e-01,1.685120799238341093e+09,0.000000000000000000e+00,5.614186119704819289e-01,0.000000000000000000e+00,5.614186119704819289e-01
2.500000000000000000e-01,1.685120799251341820e+09,0.000000000000000000e+00,5.434283510950961293e-01,0.000000000000000000e+00,5.434283510950961293e-01
2.666666666666666630e-01,1.685120799269342422e+09,0.000000000000000000e+00,5.778097385458336177e-01,0.000000000000000000e+00,5.778097385458336177e-01
2.833333333333333259e-01,1.685120799286341906e+09,0.000000000000000000e+00,8.669450995258987103e-01,0.000000000000000000e+00,8.669450995258987103e-01
2.999999999999999889e-01,1.685120799305342436e+09,0.000000000000000000e+00,8.669450995258987103e-01,0.000000000000000000e+00,8.669450995258987103e-01
3.166666666666666519e-01,1.685120799321307182e+09,0.000000000000000000e+00,8.669450995258987103e-01,0.000000000000000000e+00,8.669450995258987103e-01
3.333333333333333148e-01,1.685120799338353395e+09,0.000000000000000000e+00,8.669450995258987103e-01,0.000000000000000000e+00,8.669450995258987103e-01
3.499999999999999778e-01,1.685120799356362581e+09,0.000000000000000000e+00,8.669450995258987103e-01,0.000000000000000000e+00,8.669450995258987103e-01
3.666666666666666408e-01,1.685120799372356415e+09,0.000000000000000000e+00,5.902030293710995856e-01,0.000000000000000000e+00,5.902030293710995856e-01
3.833333333333333037e-01,1.685120799390363693e+09,0.000000000000000000e+00,5.798086564208766447e-01,0.000000000000000000e+00,5.798086564208766447e-01
4.000000000000000222e-01,1.685120799406363487e+09,0.000000000000000000e+00,5.338000250877308339e-01,0.000000000000000000e+00,5.338000250877308339e-01
4.166666666666666852e-01,1.685120799422342777e+09,0.000000000000000000e+00,5.254380902197102188e-01,0.000000000000000000e+00,5.254380902197102188e-01
4.333333333333333481e-01,1.685120799441334963e+09,0.000000000000000000e+00,4.926558370690068966e-01,0.000000000000000000e+00,4.926558370690068966e-01
4.500000000000000111e-01,1.685120799459363222e+09,0.000000000000000000e+00,5.134445829694528340e-01,0.000000000000000000e+00,5.134445829694528340e-01
4.666666666666666741e-01,1.685120799475342274e+09,0.000000000000000000e+00,5.410296496450446302e-01,0.000000000000000000e+00,5.410296496450446302e-01
4.833333333333333370e-01,1.685120799490341663e+09,0.000000000000000000e+00,5.506244554452504048e-01,0.000000000000000000e+00,5.506244554452504048e-01
5.000000000000000000e-01,1.685120799507344007e+09,0.000000000000000000e+00,4.914564863439811471e-01,0.000000000000000000e+00,4.914564863439811471e-01
5.166666666666666075e-01,1.685120799525352716e+09,0.000000000000000000e+00,4.606731510683207964e-01,0.000000000000000000e+00,4.606731510683207964e-01
5.333333333333333259e-01,1.685120799542354822e+09,0.000000000000000000e+00,4.514781288431234940e-01,0.000000000000000000e+00,4.514781288431234940e-01
5.500000000000000444e-01,1.685120799560352564e+09,0.000000000000000000e+00,4.250924128925574474e-01,0.000000000000000000e+00,4.250924128925574474e-01
5.666666666666666519e-01,1.685120799578348398e+09,0.000000000000000000e+00,4.402841887428834422e-01,0.000000000000000000e+00,4.402841887428834422e-01
5.833333333333333703e-01,1.685120799594353676e+09,0.000000000000000000e+00,4.782636283686981793e-01,0.000000000000000000e+00,4.782636283686981793e-01
5.999999999999999778e-01,1.685120799612306595e+09,0.000000000000000000e+00,5.122452322444270845e-01,0.000000000000000000e+00,5.122452322444270845e-01
6.166666666666666963e-01,1.685120799631357431e+09,0.000000000000000000e+00,5.318346274198474388e-01,0.000000000000000000e+00,5.318346274198474388e-01
6.333333333333333037e-01,1.685120799645308256e+09,0.000000000000000000e+00,5.246385230696930524e-01,0.000000000000000000e+00,5.246385230696930524e-01
6.500000000000000222e-01,1.685120799663366079e+09,0.000000000000000000e+00,4.890577848939297589e-01,0.000000000000000000e+00,4.890577848939297589e-01
6.666666666666666297e-01,1.685120799681355715e+09,0.000000000000000000e+00,4.954543220940669235e-01,0.000000000000000000e+00,4.954543220940669235e-01
6.833333333333333481e-01,1.685120799697355509e+09,0.000000000000000000e+00,5.126450158194356677e-01,0.000000000000000000e+00,5.126450158194356677e-01
6.999999999999999556e-01,1.685120799714342594e+09,0.000000000000000000e+00,5.730123356457306194e-01,0.000000000000000000e+00,5.730123356457306194e-01
7.166666666666666741e-01,1.685120799730363846e+09,0.000000000000000000e+00,5.206406873196072205e-01,0.000000000000000000e+00,5.206406873196072205e-01
7.333333333333332815e-01,1.685120799748307943e+09,0.000000000000000000e+00,5.502246718702419326e-01,0.000000000000000000e+00,5.502246718702419326e-01
7.500000000000000000e-01,1.685120799764330864e+09,0.000000000000000000e+00,5.254380902197102188e-01,0.000000000000000000e+00,5.254380902197102188e-01
7.666666666666666075e-01,1.685120799783330441e+09,0.000000000000000000e+00,4.374857037178234709e-01,0.000000000000000000e+00,4.374857037178234709e-01
7.833333333333333259e-01,1.685120799798330784e+09,0.000000000000000000e+00,4.186958756924202829e-01,0.000000000000000000e+00,4.186958756924202829e-01
8.000000000000000444e-01,1.685120799819354057e+09,0.000000000000000000e+00,3.998725274598577406e-01,0.000000000000000000e+00,3.998725274598577406e-01
8.166666666666666519e-01,1.685120799832332611e+09,0.000000000000000000e+00,4.095008534672229250e-01,0.000000000000000000e+00,4.095008534672229250e-01
8.333333333333333703e-01,1.685120799851330996e+09,0.000000000000000000e+00,4.646709868184065728e-01,0.000000000000000000e+00,4.646709868184065728e-01
8.499999999999999778e-01,1.685120799869355917e+09,0.000000000000000000e+00,4.646709868184065728e-01,0.000000000000000000e+00,4.646709868184065728e-01
8.666666666666666963e-01,1.685120799885365486e+09,0.000000000000000000e+00,4.306893829426776121e-01,0.000000000000000000e+00,4.306893829426776121e-01
8.833333333333333037e-01,1.685120799900353909e+09,0.000000000000000000e+00,4.002723110348663793e-01,0.000000000000000000e+00,4.002723110348663793e-01
9.000000000000000222e-01,1.685120799918352604e+09,0.000000000000000000e+00,4.122993384922830074e-01,0.000000000000000000e+00,4.122993384922830074e-01
9.166666666666666297e-01,1.685120799936368227e+09,0.000000000000000000e+00,4.910567027689726194e-01,0.000000000000000000e+00,4.910567027689726194e-01
9.333333333333333481e-01,1.685120799952307224e+09,0.000000000000000000e+00,5.166428515695213886e-01,0.000000000000000000e+00,5.166428515695213886e-01
9.499999999999999556e-01,1.685120799971345425e+09,0.000000000000000000e+00,5.306352766948215782e-01,0.000000000000000000e+00,5.306352766948215782e-01
9.666666666666666741e-01,1.685120799988306284e+09,0.000000000000000000e+00,8.669450995258987103e-01,0.000000000000000000e+00,8.669450995258987103e-01
9.833333333333332815e-01,1.685120800001306772e+09,0.000000000000000000e+00,8.669450995258987103e-01,0.000000000000000000e+00,8.669450995258987103e-01
1.000000000000000000e+00,1.685120800023308039e+09,0.000000000000000000e+00,8.669450995258987103e-01,0.000000000000000000e+00,8.669450995258987103e-01
1.016666666666666607e+00,1.685120800037307262e+09,0.000000000000000000e+00,8.669450995258987103e-01,0.000000000000000000e+00,8.669450995258987103e-01
1.033333333333333215e+00,1.685120800054327250e+09,0.000000000000000000e+00,8.669450995258987103e-01,0.000000000000000000e+00,8.669450995258987103e-01
1.050000000000000044e+00,1.685120800073307037e+09,0.000000000000000000e+00,8.669450995258987103e-01,0.000000000000000000e+00,8.669450995258987103e-01
1.066666666666666652e+00,1.685120800088334799e+09,0.000000000000000000e+00,8.669450995258987103e-01,0.000000000000000000e+00,8.669450995258987103e-01
1.083333333333333259e+00,1.685120800105333567e+09,0.000000000000000000e+00,8.669450995258987103e-01,0.000000000000000000e+00,8.669450995258987103e-01
1.100000000000000089e+00,1.685120800123332739e+09,0.000000000000000000e+00,8.669450995258987103e-01,0.000000000000000000e+00,8.669450995258987103e-01
1.116666666666666696e+00,1.685120800139342070e+09,0.000000000000000000e+00,8.509202363183961948e-01,0.000000000000000000e+00,8.509202363183961948e-01
1.133333333333333304e+00,1.685120800157340288e+09,0.000000000000000000e+00,8.509202363183961948e-01,0.000000000000000000e+00,8.509202363183961948e-01
1.149999999999999911e+00,1.685120800174361706e+09,0.000000000000000000e+00,8.669450995258987103e-01,0.000000000000000000e+00,8.669450995258987103e-01
1.166666666666666741e+00,1.685120800190361738e+09,0.000000000000000000e+00,8.669450995258987103e-01,0.000000000000000000e+00,8.669450995258987103e-01
1.183333333333333348e+00,1.685120800208352089e+09,0.000000000000000000e+00,8.669450995258987103e-01,0.000000000000000000e+00,8.669450995258987103e-01
1.199999999999999956e+00,1.685120800224306583e+09,0.000000000000000000e+00,8.669450995258987103e-01,0.000000000000000000e+00,8.669450995258987103e-01
1.216666666666666563e+00,1.685120800241361618e+09,0.000000000000000000e+00,8.669450995258987103e-01,0.000000000000000000e+00,8.669450995258987103e-01
1.233333333333333393e+00,1.685120800259317398e+09,0.000000000000000000e+00,8.669450995258987103e-01,0.000000000000000000e+00,8.669450995258987103e-01
1.250000000000000000e+00,1.685120800275362968e+09,0.000000000000000000e+00,8.669450995258987103e-01,0.000000000000000000e+00,8.669450995258987103e-01
1.266666666666666607e+00,1.685120800292306900e+09,0.000000000000000000e+00,8.669450995258987103e-01,0.000000000000000000e+00,8.669450995258987103e-01
1.283333333333333215e+00,1.685120800311354876e+09,0.000000000000000000e+00,8.669450995258987103e-01,0.000000000000000000e+00,8.669450995258987103e-01
1.300000000000000044e+00,1.685120800327354670e+09,0.000000000000000000e+00,8.669450995258987103e-01,0.000000000000000000e+00,8.669450995258987103e-01
1.316666666666666652e+00,1.685120800345333338e+09,0.000000000000000000e+00,8.669450995258987103e-01,0.000000000000000000e+00,8.669450995258987103e-01
1.333333333333333259e+00,1.685120800361363411e+09,0.000000000000000000e+00,8.669450995258987103e-01,0.000000000000000000e+00,8.669450995258987103e-01
1.350000000000000089e+00,1.685120800379355431e+09,0.000000000000000000e+00,8.669450995258987103e-01,0.000000000000000000e+00,8.669450995258987103e-01
1.366666666666666696e+00,1.685120800396353245e+09,0.000000000000000000e+00,8.669450995258987103e-01,0.000000000000000000e+00,8.669450995258987103e-01
1.383333333333333304e+00,1.685120800414354086e+09,0.000000000000000000e+00,8.669450995258987103e-01,0.000000000000000000e+00,8.669450995258987103e-01
1.399999999999999911e+00,1.685120800428356409e+09,0.000000000000000000e+00,8.669450995258987103e-01,0.000000000000000000e+00,8.669450995258987103e-01
1.416666666666666741e+00,1.685120800446333408e+09,0.000000000000000000e+00,8.669450995258987103e-01,0.000000000000000000e+00,8.669450995258987103e-01
1.433333333333333348e+00,1.685120800462354422e+09,0.000000000000000000e+00,8.669450995258987103e-01,0.000000000000000000e+00,8.669450995258987103e-01
1.449999999999999956e+00,1.685120800480353594e+09,0.000000000000000000e+00,8.669450995258987103e-01,0.000000000000000000e+00,8.669450995258987103e-01
1.466666666666666563e+00,1.685120800497355223e+09,0.000000000000000000e+00,8.669450995258987103e-01,0.000000000000000000e+00,8.669450995258987103e-01
1.483333333333333393e+00,1.685120800515357256e+09,0.000000000000000000e+00,8.669450995258987103e-01,0.000000000000000000e+00,8.669450995258987103e-01
1.500000000000000000e+00,1.685120800532355070e+09,0.000000000000000000e+00,8.669450995258987103e-01,0.000000000000000000e+00,8.669450995258987103e-01
1.516666666666666607e+00,1.685120800548354149e+09,0.000000000000000000e+00,8.669450995258987103e-01,0.000000000000000000e+00,8.669450995258987103e-01
1.533333333333333215e+00,1.685120800565333366e+09,0.000000000000000000e+00,8.669450995258987103e-01,0.000000000000000000e+00,8.669450995258987103e-01
1.550000000000000044e+00,1.685120800582356453e+09,0.000000000000000000e+00,8.669450995258987103e-01,0.000000000000000000e+00,8.669450995258987103e-01
1.566666666666666652e+00,1.685120800599306583e+09,0.000000000000000000e+00,8.669450995258987103e-01,0.000000000000000000e+00,8.669450995258987103e-01
1.583333333333333259e+00,1.685120800616333246e+09,0.000000000000000000e+00,8.669450995258987103e-01,0.000000000000000000e+00,8.669450995258987103e-01
1.600000000000000089e+00,1.685120800635331154e+09,0.000000000000000000e+00,8.669450995258987103e-01,0.000000000000000000e+00,8.669450995258987103e-01
1.616666666666666696e+00,1.685120800650332212e+09,0.000000000000000000e+00,8.669450995258987103e-01,0.000000000000000000e+00,8.669450995258987103e-01
1.633333333333333304e+00,1.685120800666336060e+09,0.000000000000000000e+00,8.669450995258987103e-01,0.000000000000000000e+00,8.669450995258987103e-01
1.649999999999999911e+00,1.685120800685309410e+09,0.000000000000000000e+00,8.669450995258987103e-01,0.000000000000000000e+00,8.669450995258987103e-01
1.666666666666666741e+00,1.685120800701354742e+09,0.000000000000000000e+00,8.669450995258987103e-01,0.000000000000000000e+00,8.669450995258987103e-01
1.683333333333333348e+00,1.685120800718306541e+09,0.000000000000000000e+00,8.669450995258987103e-01,0.000000000000000000e+00,8.669450995258987103e-01
1.699999999999999956e+00,1.685120800737332582e+09,0.000000000000000000e+00,8.669450995258987103e-01,0.000000000000000000e+00,8.669450995258987103e-01
1.716666666666666563e+00,1.685120800752371311e+09,0.000000000000000000e+00,8.669450995258987103e-01,0.000000000000000000e+00,8.669450995258987103e-01
1.733333333333333393e+00,1.685120800769332886e+09,0.000000000000000000e+00,8.669450995258987103e-01,0.000000000000000000e+00,8.669450995258987103e-01
1.750000000000000000e+00,1.685120800786354542e+09,0.000000000000000000e+00,8.669450995258987103e-01,0.000000000000000000e+00,8.669450995258987103e-01
1.766666666666666607e+00,1.685120800803357601e+09,0.000000000000000000e+00,8.669450995258987103e-01,0.000000000000000000e+00,8.669450995258987103e-01
1.783333333333333215e+00,1.685120800821306705e+09,0.000000000000000000e+00,8.669450995258987103e-01,0.000000000000000000e+00,8.669450995258987103e-01
1.800000000000000044e+00,1.685120800837332964e+09,0.000000000000000000e+00,8.669450995258987103e-01,0.000000000000000000e+00,8.669450995258987103e-01
1.816666666666666652e+00,1.685120800854357481e+09,0.000000000000000000e+00,8.669450995258987103e-01,0.000000000000000000e+00,8.669450995258987103e-01
1.833333333333333259e+00,1.685120800871333361e+09,0.000000000000000000e+00,8.669450995258987103e-01,0.000000000000000000e+00,8.669450995258987103e-01
1.849999999999999867e+00,1.685120800889333010e+09,0.000000000000000000e+00,8.669450995258987103e-01,0.000000000000000000e+00,8.669450995258987103e-01
1.866666666666666696e+00,1.685120800904332161e+09,0.000000000000000000e+00,8.669450995258987103e-01,0.000000000000000000e+00,8.669450995258987103e-01
1.883333333333333304e+00,1.685120800921307325e+09,0.000000000000000000e+00,8.669450995258987103e-01,0.000000000000000000e+00,8.669450995258987103e-01
1.899999999999999911e+00,1.685120800939306498e+09,0.000000000000000000e+00,8.669450995258987103e-01,0.000000000000000000e+00,8.669450995258987103e-01
1.916666666666666741e+00,1.685120800957333803e+09,0.000000000000000000e+00,8.509202363183961948e-01,0.000000000000000000e+00,8.509202363183961948e-01
1.933333333333333348e+00,1.685120800972333193e+09,0.000000000000000000e+00,8.669450995258987103e-01,0.000000000000000000e+00,8.669450995258987103e-01
1.949999999999999956e+00,1.685120800992333651e+09,0.000000000000000000e+00,8.669450995258987103e-01,0.000000000000000000e+00,8.669450995258987103e-01
1.966666666666666563e+00,1.685120801008334398e+09,0.000000000000000000e+00,8.669450995258987103e-01,0.000000000000000000e+00,8.669450995258987103e-01
1.983333333333333393e+00,1.685120801024359226e+09,0.000000000000000000e+00,8.669450995258987103e-01,0.000000000000000000e+00,8.669450995258987103e-01
2.000000000000000000e+00,1.685120801043309212e+09,0.000000000000000000e+00,8.669450995258987103e-01,0.000000000000000000e+00,8.669450995258987103e-01
2.016666666666666607e+00,1.685120801058341503e+09,0.000000000000000000e+00,8.669450995258987103e-01,0.000000000000000000e+00,8.669450995258987103e-01
2.033333333333333215e+00,1.685120801077339411e+09,0.000000000000000000e+00,8.669450995258987103e-01,0.000000000000000000e+00,8.669450995258987103e-01
2.049999999999999822e+00,1.685120801093353510e+09,0.000000000000000000e+00,8.669450995258987103e-01,0.000000000000000000e+00,8.669450995258987103e-01
2.066666666666666430e+00,1.685120801111305714e+09,0.000000000000000000e+00,8.669450995258987103e-01,0.000000000000000000e+00,8.669450995258987103e-01
2.083333333333333481e+00,1.685120801125334740e+09,0.000000000000000000e+00,8.669450995258987103e-01,0.000000000000000000e+00,8.669450995258987103e-01
2.100000000000000089e+00,1.685120801142354488e+09,0.000000000000000000e+00,8.669450995258987103e-01,0.000000000000000000e+00,8.669450995258987103e-01
2.116666666666666696e+00,1.685120801159333706e+09,0.000000000000000000e+00,8.669450995258987103e-01,0.000000000000000000e+00,8.669450995258987103e-01
2.133333333333333304e+00,1.685120801177340269e+09,0.000000000000000000e+00,8.669450995258987103e-01,0.000000000000000000e+00,8.669450995258987103e-01
2.149999999999999911e+00,1.685120801196355581e+09,0.000000000000000000e+00,8.669450995258987103e-01,0.000000000000000000e+00,8.669450995258987103e-01
2.166666666666666519e+00,1.685120801211357594e+09,0.000000000000000000e+00,8.669450995258987103e-01,0.000000000000000000e+00,8.669450995258987103e-01
2.183333333333333126e+00,1.685120801228355646e+09,0.000000000000000000e+00,8.669450995258987103e-01,0.000000000000000000e+00,8.669450995258987103e-01
2.200000000000000178e+00,1.685120801247336388e+09,0.000000000000000000e+00,8.669450995258987103e-01,0.000000000000000000e+00,8.669450995258987103e-01
2.216666666666666785e+00,1.685120801261354685e+09,0.000000000000000000e+00,8.509202363183961948e-01,0.000000000000000000e+00,8.509202363183961948e-01
2.233333333333333393e+00,1.685120801280354738e+09,0.000000000000000000e+00,8.509202363183961948e-01,0.000000000000000000e+00,8.509202363183961948e-01
2.250000000000000000e+00,1.685120801297357082e+09,0.000000000000000000e+00,8.669450995258987103e-01,0.000000000000000000e+00,8.669450995258987103e-01
2.266666666666666607e+00,1.685120801315355301e+09,0.000000000000000000e+00,8.669450995258987103e-01,0.000000000000000000e+00,8.669450995258987103e-01
2.283333333333333215e+00,1.685120801328353643e+09,0.000000000000000000e+00,8.509202363183961948e-01,0.000000000000000000e+00,8.509202363183961948e-01
2.299999999999999822e+00,1.685120801348354340e+09,0.000000000000000000e+00,8.509202363183961948e-01,0.000000000000000000e+00,8.509202363183961948e-01
2.316666666666666430e+00,1.685120801362345695e+09,0.000000000000000000e+00,8.028456466958876492e-01,0.000000000000000000e+00,8.028456466958876492e-01
2.333333333333333481e+00,1.685120801383334160e+09,0.000000000000000000e+00,7.707959202808816190e-01,0.000000000000000000e+00,7.707959202808816190e-01
2.350000000000000089e+00,1.685120801398354530e+09,0.000000000000000000e+00,7.547710570733791036e-01,0.000000000000000000e+00,7.547710570733791036e-01
2.366666666666666696e+00,1.685120801417354584e+09,0.000000000000000000e+00,7.387461938658766991e-01,0.000000000000000000e+00,7.387461938658766991e-01
2.383333333333333304e+00,1.685120801433354616e+09,0.000000000000000000e+00,7.387461938658766991e-01,0.000000000000000000e+00,7.387461938658766991e-01
2.399999999999999911e+00,1.685120801448333025e+09,0.000000000000000000e+00,7.387461938658766991e-01,0.000000000000000000e+00,7.387461938658766991e-01
2.416666666666666519e+00,1.685120801465354443e+09,0.000000000000000000e+00,7.387461938658766991e-01,0.000000000000000000e+00,7.387461938658766991e-01
2.433333333333333126e+00,1.685120801484307051e+09,0.000000000000000000e+00,7.387461938658766991e-01,0.000000000000000000e+00,7.387461938658766991e-01
2.450000000000000178e+00,1.685120801500366211e+09,0.000000000000000000e+00,7.387461938658766991e-01,0.000000000000000000e+00,7.387461938658766991e-01
2.466666666666666785e+00,1.685120801517354727e+09,0.000000000000000000e+00,7.387461938658766991e-01,0.000000000000000000e+00,7.387461938658766991e-01
2.483333333333333393e+00,1.685120801536354303e+09,0.000000000000000000e+00,7.387461938658766991e-01,0.000000000000000000e+00,7.387461938658766991e-01
2.500000000000000000e+00,1.685120801550357580e+09,0.000000000000000000e+00,7.387461938658766991e-01,0.000000000000000000e+00,7.387461938658766991e-01
2.516666666666666607e+00,1.685120801567332268e+09,0.000000000000000000e+00,7.387461938658766991e-01,0.000000000000000000e+00,7.387461938658766991e-01
2.533333333333333215e+00,1.685120801585330963e+09,0.000000000000000000e+00,7.387461938658766991e-01,0.000000000000000000e+00,7.387461938658766991e-01
2.549999999999999822e+00,1.685120801603354216e+09,0.000000000000000000e+00,7.387461938658766991e-01,0.000000000000000000e+00,7.387461938658766991e-01
2.566666666666666430e+00,1.685120801619306803e+09,0.000000000000000000e+00,7.387461938658766991e-01,0.000000000000000000e+00,7.387461938658766991e-01
2.583333333333333481e+00,1.685120801636356115e+09,0.000000000000000000e+00,7.387461938658766991e-01,0.000000000000000000e+00,7.387461938658766991e-01
2.600000000000000089e+00,1.685120801652354479e+09,0.000000000000000000e+00,7.387461938658766991e-01,0.000000000000000000e+00,7.387461938658766991e-01
2.616666666666666696e+00,1.685120801669331551e+09,0.000000000000000000e+00,7.387461938658766991e-01,0.000000000000000000e+00,7.387461938658766991e-01
2.633333333333333304e+00,1.685120801687354088e+09,0.000000000000000000e+00,7.387461938658766991e-01,0.000000000000000000e+00,7.387461938658766991e-01
2.649999999999999911e+00,1.685120801706306458e+09,0.000000000000000000e+00,7.387461938658766991e-01,0.000000000000000000e+00,7.387461938658766991e-01
2.666666666666666519e+00,1.685120801722332954e+09,0.000000000000000000e+00,7.387461938658766991e-01,0.000000000000000000e+00,7.387461938658766991e-01
2.683333333333333126e+00,1.685120801741354704e+09,0.000000000000000000e+00,7.387461938658766991e-01,0.000000000000000000e+00,7.387461938658766991e-01
2.700000000000000178e+00,1.685120801756334305e+09,0.000000000000000000e+00,7.387461938658766991e-01,0.000000000000000000e+00,7.387461938658766991e-01
2.716666666666666785e+00,1.685120801773354053e+09,0.000000000000000000e+00,7.387461938658766991e-01,0.000000000000000000e+00,7.387461938658766991e-01
2.733333333333333393e+00,1.685120801790333271e+09,0.000000000000000000e+00,7.387461938658766991e-01,0.000000000000000000e+00,7.387461938658766991e-01
2.750000000000000000e+00,1.685120801808332205e+09,0.000000000000000000e+00,7.387461938658766991e-01,0.000000000000000000e+00,7.387461938658766991e-01
2.766666666666666607e+00,1.685120801824333906e+09,0.000000000000000000e+00,7.387461938658766991e-01,0.000000000000000000e+00,7.387461938658766991e-01
2.783333333333333215e+00,1.685120801842335939e+09,0.000000000000000000e+00,7.387461938658766991e-01,0.000000000000000000e+00,7.387461938658766991e-01
2.799999999999999822e+00,1.685120801859331608e+09,0.000000000000000000e+00,7.387461938658766991e-01,0.000000000000000000e+00,7.387461938658766991e-01
2.816666666666666430e+00,1.685120801876345396e+09,0.000000000000000000e+00,7.387461938658766991e-01,0.000000000000000000e+00,7.387461938658766991e-01
2.833333333333333481e+00,1.685120801891332626e+09,0.000000000000000000e+00,7.387461938658766991e-01,0.000000000000000000e+00,7.387461938658766991e-01
2.850000000000000089e+00,1.685120801908352375e+09,0.000000000000000000e+00,7.387461938658766991e-01,0.000000000000000000e+00,7.387461938658766991e-01
2.866666666666666696e+00,1.685120801926332951e+09,0.000000000000000000e+00,7.387461938658766991e-01,0.000000000000000000e+00,7.387461938658766991e-01
2.883333333333333304e+00,1.685120801943351984e+09,0.000000000000000000e+00,7.387461938658766991e-01,0.000000000000000000e+00,7.387461938658766991e-01
2.899999999999999911e+00,1.685120801960352182e+09,0.000000000000000000e+00,7.227213306583742947e-01,0.000000000000000000e+00,7.227213306583742947e-01
2.916666666666666519e+00,1.685120801977333069e+09,0.000000000000000000e+00,7.066964674508705579e-01,0.000000000000000000e+00,7.066964674508705579e-01
2.933333333333333126e+00,1.685120801994332075e+09,0.000000000000000000e+00,7.066964674508705579e-01,0.000000000000000000e+00,7.066964674508705579e-01
2.950000000000000178e+00,1.685120802013354540e+09,0.000000000000000000e+00,7.066964674508705579e-01,0.000000000000000000e+00,7.066964674508705579e-01
2.966666666666666785e+00,1.685120802029354572e+09,0.000000000000000000e+00,7.066964674508705579e-01,0.000000000000000000e+00,7.066964674508705579e-01
2.983333333333333393e+00,1.685120802045306683e+09,0.000000000000000000e+00,7.066964674508705579e-01,0.000000000000000000e+00,7.066964674508705579e-01
3.000000000000000000e+00,1.685120802062306881e+09,0.000000000000000000e+00,7.066964674508705579e-01,0.000000000000000000e+00,7.066964674508705579e-01
3.016666666666666607e+00,1.685120802080337048e+09,0.000000000000000000e+00,7.066964674508705579e-01,0.000000000000000000e+00,7.066964674508705579e-01
3.033333333333333215e+00,1.685120802096332788e+09,0.000000000000000000e+00,7.066964674508705579e-01,0.000000000000000000e+00,7.066964674508705579e-01
3.049999999999999822e+00,1.685120802114334822e+09,0.000000000000000000e+00,7.066964674508705579e-01,0.000000000000000000e+00,7.066964674508705579e-01
3.066666666666666430e+00,1.685120802129367828e+09,0.000000000000000000e+00,7.066964674508705579e-01,0.000000000000000000e+00,7.066964674508705579e-01
3.083333333333333481e+00,1.685120802148340702e+09,0.000000000000000000e+00,7.066964674508705579e-01,0.000000000000000000e+00,7.066964674508705579e-01
3.100000000000000089e+00,1.685120802164352417e+09,0.000000000000000000e+00,7.066964674508705579e-01,0.000000000000000000e+00,7.066964674508705579e-01
3.116666666666666696e+00,1.685120802182352543e+09,0.000000000000000000e+00,7.066964674508705579e-01,0.000000000000000000e+00,7.066964674508705579e-01
3.133333333333333304e+00,1.685120802200356245e+09,0.000000000000000000e+00,7.066964674508705579e-01,0.000000000000000000e+00,7.066964674508705579e-01
3.149999999999999911e+00,1.685120802215334654e+09,0.000000000000000000e+00,7.066964674508705579e-01,0.000000000000000000e+00,7.066964674508705579e-01
3.166666666666666519e+00,1.685120802231362343e+09,0.000000000000000000e+00,7.066964674508705579e-01,0.000000000000000000e+00,7.066964674508705579e-01
3.183333333333333126e+00,1.685120802249352694e+09,0.000000000000000000e+00,7.066964674508705579e-01,0.000000000000000000e+00,7.066964674508705579e-01
3.200000000000000178e+00,1.685120802268354893e+09,0.000000000000000000e+00,7.066964674508705579e-01,0.000000000000000000e+00,7.066964674508705579e-01
3.216666666666666785e+00,1.685120802283360720e+09,0.000000000000000000e+00,6.906716042433681535e-01,0.000000000000000000e+00,6.906716042433681535e-01
3.233333333333333393e+00,1.685120802302331448e+09,0.000000000000000000e+00,6.906716042433681535e-01,0.000000000000000000e+00,6.906716042433681535e-01
3.250000000000000000e+00,1.685120802318354130e+09,0.000000000000000000e+00,6.906716042433681535e-01,0.000000000000000000e+00,6.906716042433681535e-01
3.266666666666666607e+00,1.685120802334354401e+09,0.000000000000000000e+00,6.906716042433681535e-01,0.000000000000000000e+00,6.906716042433681535e-01
3.283333333333333215e+00,1.685120802351331949e+09,0.000000000000000000e+00,6.586218778283632336e-01,0.000000000000000000e+00,6.586218778283632336e-01
3.299999999999999822e+00,1.685120802368354082e+09,0.000000000000000000e+00,6.425970146208608291e-01,0.000000000000000000e+00,6.425970146208608291e-01
3.316666666666666430e+00,1.685120802385306358e+09,0.000000000000000000e+00,6.105472882058546880e-01,0.000000000000000000e+00,6.105472882058546880e-01
3.333333333333333481e+00,1.685120802403332472e+09,0.000000000000000000e+00,6.105472882058546880e-01,0.000000000000000000e+00,6.105472882058546880e-01
3.350000000000000089e+00,1.685120802419354677e+09,0.000000000000000000e+00,6.105472882058546880e-01,0.000000000000000000e+00,6.105472882058546880e-01
3.366666666666666696e+00,1.685120802437357187e+09,0.000000000000000000e+00,6.105472882058546880e-01,0.000000000000000000e+00,6.105472882058546880e-01
3.383333333333333304e+00,1.685120802452306986e+09,0.000000000000000000e+00,5.945224249983522835e-01,0.000000000000000000e+00,5.945224249983522835e-01
3.399999999999999911e+00,1.685120802470363855e+09,0.000000000000000000e+00,6.105472882058546880e-01,0.000000000000000000e+00,6.105472882058546880e-01
3.416666666666666519e+00,1.685120802486363411e+09,0.000000000000000000e+00,6.105472882058546880e-01,0.000000000000000000e+00,6.105472882058546880e-01
3.433333333333333126e+00,1.685120802504354954e+09,0.000000000000000000e+00,6.105472882058546880e-01,0.000000000000000000e+00,6.105472882058546880e-01
3.449999999999999734e+00,1.685120802523361683e+09,0.000000000000000000e+00,6.105472882058546880e-01,0.000000000000000000e+00,6.105472882058546880e-01
3.466666666666666785e+00,1.685120802540333509e+09,0.000000000000000000e+00,6.105472882058546880e-01,0.000000000000000000e+00,6.105472882058546880e-01
3.483333333333333393e+00,1.685120802555355549e+09,0.000000000000000000e+00,6.105472882058546880e-01,0.000000000000000000e+00,6.105472882058546880e-01
3.500000000000000000e+00,1.685120802571309805e+09,0.000000000000000000e+00,6.105472882058546880e-01,0.000000000000000000e+00,6.105472882058546880e-01
3.516666666666666607e+00,1.685120802590309381e+09,0.000000000000000000e+00,6.105472882058546880e-01,0.000000000000000000e+00,6.105472882058546880e-01
3.533333333333333215e+00,1.685120802606310129e+09,0.000000000000000000e+00,6.105472882058546880e-01,0.000000000000000000e+00,6.105472882058546880e-01
3.549999999999999822e+00,1.685120802624354124e+09,0.000000000000000000e+00,5.945224249983522835e-01,0.000000000000000000e+00,5.945224249983522835e-01
3.566666666666666430e+00,1.685120802640355587e+09,0.000000000000000000e+00,5.945224249983522835e-01,0.000000000000000000e+00,5.945224249983522835e-01
3.583333333333333481e+00,1.685120802657338619e+09,0.000000000000000000e+00,5.624726985833461423e-01,0.000000000000000000e+00,5.624726985833461423e-01
3.600000000000000089e+00,1.685120802675352573e+09,0.000000000000000000e+00,5.304229721683412224e-01,0.000000000000000000e+00,5.304229721683412224e-01
3.616666666666666696e+00,1.685120802690340042e+09,0.000000000000000000e+00,5.304229721683412224e-01,0.000000000000000000e+00,5.304229721683412224e-01
3.633333333333333304e+00,1.685120802709363699e+09,0.000000000000000000e+00,5.304229721683412224e-01,0.000000000000000000e+00,5.304229721683412224e-01
3.649999999999999911e+00,1.685120802727352858e+09,0.000000000000000000e+00,5.143981089608388180e-01,0.000000000000000000e+00,5.143981089608388180e-01
3.666666666666666519e+00,1.685120802744354248e+09,0.000000000000000000e+00,5.304229721683412224e-01,0.000000000000000000e+00,5.304229721683412224e-01
3.683333333333333126e+00,1.685120802760353804e+09,0.000000000000000000e+00,5.143981089608388180e-01,0.000000000000000000e+00,5.143981089608388180e-01
3.699999999999999734e+00,1.685120802779339552e+09,0.000000000000000000e+00,5.143981089608388180e-01,0.000000000000000000e+00,5.143981089608388180e-01
3.716666666666666785e+00,1.685120802794354439e+09,0.000000000000000000e+00,5.304229721683412224e-01,0.000000000000000000e+00,5.304229721683412224e-01
3.733333333333333393e+00,1.685120802811306715e+09,0.000000000000000000e+00,5.304229721683412224e-01,0.000000000000000000e+00,5.304229721683412224e-01
3.750000000000000000e+00,1.685120802828354359e+09,0.000000000000000000e+00,5.304229721683412224e-01,0.000000000000000000e+00,5.304229721683412224e-01
3.766666666666666607e+00,1.685120802846334934e+09,0.000000000000000000e+00,5.304229721683412224e-01,0.000000000000000000e+00,5.304229721683412224e-01
3.783333333333333215e+00,1.685120802862335443e+09,0.000000000000000000e+00,5.304229721683412224e-01,0.000000000000000000e+00,5.304229721683412224e-01
3.799999999999999822e+00,1.685120802880342960e+09,0.000000000000000000e+00,5.304229721683412224e-01,0.000000000000000000e+00,5.304229721683412224e-01
3.816666666666666430e+00,1.685120802897307158e+09,0.000000000000000000e+00,5.304229721683412224e-01,0.000000000000000000e+00,5.304229721683412224e-01
3.833333333333333481e+00,1.685120802912362576e+09,0.000000000000000000e+00,5.143981089608388180e-01,0.000000000000000000e+00,5.143981089608388180e-01
3.850000000000000089e+00,1.685120802930352688e+09,0.000000000000000000e+00,5.143981089608388180e-01,0.000000000000000000e+00,5.143981089608388180e-01
3.866666666666666696e+00,1.685120802947352886e+09,0.000000000000000000e+00,5.143981089608388180e-01,0.000000000000000000e+00,5.143981089608388180e-01
3.883333333333333304e+00,1.685120802964352131e+09,0.000000000000000000e+00,4.983732457533351368e-01,0.000000000000000000e+00,4.983732457533351368e-01
3.899999999999999911e+00,1.685120802982362509e+09,0.000000000000000000e+00,4.663235193383302724e-01,0.000000000000000000e+00,4.663235193383302724e-01
3.916666666666666519e+00,1.685120802997353077e+09,0.000000000000000000e+00,4.663235193383302724e-01,0.000000000000000000e+00,4.663235193383302724e-01
3.933333333333333126e+00,1.685120803016308784e+09,0.000000000000000000e+00,4.663235193383302724e-01,0.000000000000000000e+00,4.663235193383302724e-01
3.949999999999999734e+00,1.685120803031354189e+09,0.000000000000000000e+00,4.663235193383302724e-01,0.000000000000000000e+00,4.663235193383302724e-01
3.966666666666666785e+00,1.685120803050358772e+09,0.000000000000000000e+00,4.663235193383302724e-01,0.000000000000000000e+00,4.663235193383302724e-01
3.983333333333333393e+00,1.685120803068307877e+09,0.000000000000000000e+00,4.663235193383302724e-01,0.000000000000000000e+00,4.663235193383302724e-01
4.000000000000000000e+00,1.685120803084308863e+09,0.000000000000000000e+00,4.663235193383302724e-01,0.000000000000000000e+00,4.663235193383302724e-01
4.016666666666666607e+00,1.685120803101332188e+09,0.000000000000000000e+00,4.663235193383302724e-01,0.000000000000000000e+00,4.663235193383302724e-01
4.033333333333333215e+00,1.685120803117331982e+09,0.000000000000000000e+00,4.663235193383302724e-01,0.000000000000000000e+00,4.663235193383302724e-01
4.049999999999999822e+00,1.685120803134334803e+09,0.000000000000000000e+00,4.663235193383302724e-01,0.000000000000000000e+00,4.663235193383302724e-01
4.066666666666666430e+00,1.685120803151306629e+09,0.000000000000000000e+00,4.663235193383302724e-01,0.000000000000000000e+00,4.663235193383302724e-01
4.083333333333333037e+00,1.685120803169332743e+09,0.000000000000000000e+00,4.663235193383302724e-01,0.000000000000000000e+00,4.663235193383302724e-01
4.099999999999999645e+00,1.685120803186353683e+09,0.000000000000000000e+00,4.663235193383302724e-01,0.000000000000000000e+00,4.663235193383302724e-01
4.116666666666666252e+00,1.685120803203364849e+09,0.000000000000000000e+00,4.663235193383302724e-01,0.000000000000000000e+00,4.663235193383302724e-01
4.133333333333332860e+00,1.685120803218307018e+09,0.000000000000000000e+00,4.663235193383302724e-01,0.000000000000000000e+00,4.663235193383302724e-01
4.150000000000000355e+00,1.685120803237307310e+09,0.000000000000000000e+00,4.663235193383302724e-01,0.000000000000000000e+00,4.663235193383302724e-01
4.166666666666666963e+00,1.685120803253331661e+09,0.000000000000000000e+00,4.342737929233241867e-01,0.000000000000000000e+00,4.342737929233241867e-01
4.183333333333333570e+00,1.685120803272332430e+09,0.000000000000000000e+00,4.182489297158217267e-01,0.000000000000000000e+00,4.182489297158217267e-01
4.200000000000000178e+00,1.685120803289355040e+09,0.000000000000000000e+00,3.861992033008168068e-01,0.000000000000000000e+00,3.861992033008168068e-01
4.216666666666666785e+00,1.685120803304354429e+09,0.000000000000000000e+00,3.541494768858107212e-01,0.000000000000000000e+00,3.541494768858107212e-01
4.233333333333333393e+00,1.685120803319306612e+09,0.000000000000000000e+00,3.220997504708058012e-01,0.000000000000000000e+00,3.220997504708058012e-01
4.250000000000000000e+00,1.685120803339333057e+09,0.000000000000000000e+00,3.220997504708058012e-01,0.000000000000000000e+00,3.220997504708058012e-01
4.266666666666666607e+00,1.685120803355333805e+09,0.000000000000000000e+00,3.060748872633021755e-01,0.000000000000000000e+00,3.060748872633021755e-01
4.283333333333333215e+00,1.685120803372356415e+09,0.000000000000000000e+00,3.060748872633021755e-01,0.000000000000000000e+00,3.060748872633021755e-01
4.299999999999999822e+00,1.685120803390308619e+09,0.000000000000000000e+00,3.060748872633021755e-01,0.000000000000000000e+00,3.060748872633021755e-01
4.316666666666666430e+00,1.685120803408365488e+09,0.000000000000000000e+00,3.220997504708058012e-01,0.000000000000000000e+00,3.220997504708058012e-01
4.333333333333333037e+00,1.685120803424358606e+09,0.000000000000000000e+00,3.060748872633021755e-01,0.000000000000000000e+00,3.060748872633021755e-01
4.349999999999999645e+00,1.685120803443354130e+09,0.000000000000000000e+00,3.220997504708058012e-01,0.000000000000000000e+00,3.220997504708058012e-01
4.366666666666666252e+00,1.685120803460331440e+09,0.000000000000000000e+00,3.060748872633021755e-01,0.000000000000000000e+00,3.060748872633021755e-01
4.383333333333332860e+00,1.685120803477354050e+09,0.000000000000000000e+00,3.060748872633021755e-01,0.000000000000000000e+00,3.060748872633021755e-01
4.400000000000000355e+00,1.685120803495307446e+09,0.000000000000000000e+00,3.060748872633021755e-01,0.000000000000000000e+00,3.060748872633021755e-01
4.416666666666666963e+00,1.685120803510354757e+09,0.000000000000000000e+00,3.060748872633021755e-01,0.000000000000000000e+00,3.060748872633021755e-01
4.433333333333333570e+00,1.685120803529333353e+09,0.000000000000000000e+00,3.220997504708058012e-01,0.000000000000000000e+00,3.220997504708058012e-01
4.450000000000000178e+00,1.685120803546331167e+09,0.000000000000000000e+00,3.060748872633021755e-01,0.000000000000000000e+00,3.060748872633021755e-01
4.466666666666666785e+00,1.685120803562332630e+09,0.000000000000000000e+00,3.060748872633021755e-01,0.000000000000000000e+00,3.060748872633021755e-01
4.483333333333333393e+00,1.685120803579354286e+09,0.000000000000000000e+00,3.060748872633021755e-01,0.000000000000000000e+00,3.060748872633021755e-01
4.500000000000000000e+00,1.685120803594365120e+09,0.000000000000000000e+00,3.220997504708058012e-01,0.000000000000000000e+00,3.220997504708058012e-01
4.516666666666666607e+00,1.685120803613355637e+09,0.000000000000000000e+00,3.220997504708058012e-01,0.000000000000000000e+00,3.220997504708058012e-01
4.533333333333333215e+00,1.685120803631354094e+09,0.000000000000000000e+00,3.060748872633021755e-01,0.000000000000000000e+00,3.060748872633021755e-01
4.549999999999999822e+00,1.685120803647353649e+09,0.000000000000000000e+00,3.060748872633021755e-01,0.000000000000000000e+00,3.060748872633021755e-01
4.566666666666666430e+00,1.685120803665354729e+09,0.000000000000000000e+00,3.060748872633021755e-01,0.000000000000000000e+00,3.060748872633021755e-01
4.583333333333333037e+00,1.685120803681333065e+09,0.000000000000000000e+00,3.060748872633021755e-01,0.000000000000000000e+00,3.060748872633021755e-01
4.599999999999999645e+00,1.685120803698333263e+09,0.000000000000000000e+00,3.060748872633021755e-01,0.000000000000000000e+00,3.060748872633021755e-01
4.616666666666666252e+00,1.685120803714333296e+09,0.000000000000000000e+00,3.060748872633021755e-01,0.000000000000000000e+00,3.060748872633021755e-01
4.633333333333332860e+00,1.685120803733332634e+09,0.000000000000000000e+00,3.060748872633021755e-01,0.000000000000000000e+00,3.060748872633021755e-01
4.650000000000000355e+00,1.685120803749306917e+09,0.000000000000000000e+00,3.060748872633021755e-01,0.000000000000000000e+00,3.060748872633021755e-01
4.666666666666666963e+00,1.685120803767333746e+09,0.000000000000000000e+00,3.060748872633021755e-01,0.000000000000000000e+00,3.060748872633021755e-01
4.683333333333333570e+00,1.685120803784352779e+09,0.000000000000000000e+00,3.060748872633021755e-01,0.000000000000000000e+00,3.060748872633021755e-01
4.700000000000000178e+00,1.685120803801362753e+09,0.000000000000000000e+00,3.060748872633021755e-01,0.000000000000000000e+00,3.060748872633021755e-01
4.716666666666666785e+00,1.685120803818355799e+09,0.000000000000000000e+00,3.060748872633021755e-01,0.000000000000000000e+00,3.060748872633021755e-01
4.733333333333333393e+00,1.685120803835306644e+09,0.000000000000000000e+00,3.060748872633021755e-01,0.000000000000000000e+00,3.060748872633021755e-01
4.750000000000000000e+00,1.685120803852355480e+09,0.000000000000000000e+00,3.060748872633021755e-01,0.000000000000000000e+00,3.060748872633021755e-01
4.766666666666666607e+00,1.685120803869354010e+09,0.000000000000000000e+00,3.060748872633021755e-01,0.000000000000000000e+00,3.060748872633021755e-01
4.783333333333333215e+00,1.685120803886354446e+09,0.000000000000000000e+00,3.060748872633021755e-01,0.000000000000000000e+00,3.060748872633021755e-01
4.799999999999999822e+00,1.685120803903353691e+09,0.000000000000000000e+00,3.060748872633021755e-01,0.000000000000000000e+00,3.060748872633021755e-01
4.816666666666666430e+00,1.685120803921322107e+09,0.000000000000000000e+00,3.060748872633021755e-01,0.000000000000000000e+00,3.060748872633021755e-01
4.833333333333333037e+00,1.685120803937355280e+09,0.000000000000000000e+00,2.900500240557997156e-01,0.000000000000000000e+00,2.900500240557997156e-01
4.849999999999999645e+00,1.685120803954341888e+09,0.000000000000000000e+00,2.900500240557997156e-01,0.000000000000000000e+00,2.900500240557997156e-01
4.866666666666666252e+00,1.685120803973331928e+09,0.000000000000000000e+00,2.580002976407948512e-01,0.000000000000000000e+00,2.580002976407948512e-01
4.883333333333332860e+00,1.685120803990333319e+09,0.000000000000000000e+00,2.580002976407948512e-01,0.000000000000000000e+00,2.580002976407948512e-01
4.900000000000000355e+00,1.685120804005340338e+09,0.000000000000000000e+00,2.580002976407948512e-01,0.000000000000000000e+00,2.580002976407948512e-01
4.916666666666666963e+00,1.685120804021306515e+09,0.000000000000000000e+00,2.419754344332911700e-01,0.000000000000000000e+00,2.419754344332911700e-01
4.933333333333333570e+00,1.685120804040354490e+09,0.000000000000000000e+00,2.419754344332911700e-01,0.000000000000000000e+00,2.419754344332911700e-01
4.950000000000000178e+00,1.685120804056353807e+09,0.000000000000000000e+00,2.259505712257887378e-01,0.000000000000000000e+00,2.259505712257887378e-01
4.966666666666666785e+00,1.685120804073332787e+09,0.000000000000000000e+00,2.099257080182862778e-01,0.000000000000000000e+00,2.099257080182862778e-01
4.983333333333333393e+00,1.685120804092340708e+09,0.000000000000000000e+00,2.099257080182862778e-01,0.000000000000000000e+00,2.099257080182862778e-01
5.000000000000000000e+00,1.685120804110308647e+09,0.000000000000000000e+00,2.099257080182862778e-01,0.000000000000000000e+00,2.099257080182862778e-01
5.016666666666666607e+00,1.685120804124305010e+09,0.000000000000000000e+00,1.939008448107838178e-01,0.000000000000000000e+00,1.939008448107838178e-01
5.033333333333333215e+00,1.685120804142335892e+09,0.000000000000000000e+00,1.939008448107838178e-01,0.000000000000000000e+00,1.939008448107838178e-01
5.049999999999999822e+00,1.685120804159306526e+09,0.000000000000000000e+00,1.939008448107838178e-01,0.000000000000000000e+00,1.939008448107838178e-01
5.066666666666666430e+00,1.685120804176337004e+09,0.000000000000000000e+00,1.778759816032801921e-01,0.000000000000000000e+00,1.778759816032801921e-01
5.083333333333333037e+00,1.685120804192335367e+09,0.000000000000000000e+00,1.778759816032801921e-01,0.000000000000000000e+00,1.778759816032801921e-01
5.099999999999999645e+00,1.685120804209333420e+09,0.000000000000000000e+00,1.618511183957777322e-01,0.000000000000000000e+00,1.618511183957777322e-01
5.116666666666666252e+00,1.685120804227333784e+09,0.000000000000000000e+00,1.618511183957777322e-01,0.000000000000000000e+00,1.618511183957777322e-01
5.133333333333332860e+00,1.685120804244333982e+09,0.000000000000000000e+00,1.298013919807728400e-01,0.000000000000000000e+00,1.298013919807728400e-01
5.150000000000000355e+00,1.685120804260357857e+09,0.000000000000000000e+00,1.137765287732703939e-01,0.000000000000000000e+00,1.137765287732703939e-01
5.166666666666666963e+00,1.685120804277362585e+09,0.000000000000000000e+00,9.775166556576674048e-02,0.000000000000000000e+00,9.775166556576674048e-02
5.183333333333333570e+00,1.685120804294306755e+09,0.000000000000000000e+00,8.172680235826429440e-02,0.000000000000000000e+00,8.172680235826429440e-02
