# 
# 
# 
# 
# 
# 
# 
# 
# 
# 
# time,realtime,ref,inp,dis,state...
0.000000000000000000e+00,1.685120470935130835e+09,0.000000000000000000e+00,-3.990190938668175535e-01,0.000000000000000000e+00,-3.990190938668175535e-01
1.666666666666666644e-02,1.685120470937098742e+09,0.000000000000000000e+00,-3.990190938668175535e-01,0.000000000000000000e+00,-3.990190938668175535e-01
3.333333333333333287e-02,1.685120470939095020e+09,0.000000000000000000e+00,-3.990190938668175535e-01,0.000000000000000000e+00,-3.990190938668175535e-01
5.000000000000000278e-02,1.685120470958126783e+09,0.000000000000000000e+00,-3.990190938668175535e-01,0.000000000000000000e+00,-3.990190938668175535e-01
6.666666666666666574e-02,1.685120470974098444e+09,0.000000000000000000e+00,-3.990190938668175535e-01,0.000000000000000000e+00,-3.990190938668175535e-01
8.333333333333332871e-02,1.685120470990120888e+09,0.000000000000000000e+00,-3.990190938668175535e-01,0.000000000000000000e+00,-3.990190938668175535e-01
1.000000000000000056e-01,1.685120471009128332e+09,0.000000000000000000e+00,-3.990190938668175535e-01,0.000000000000000000e+00,-3.990190938668175535e-01
1.166666666666666685e-01,1.685120471025119543e+09,0.000000000000000000e+00,-3.990190938668175535e-01,0.000000000000000000e+00,-3.990190938668175535e-01
1.333333333333333315e-01,1.685120471045138836e+09,0.000000000000000000e+00,-3.990190938668175535e-01,0.000000000000000000e+00,-3.990190938668175535e-01
1.499999999999999944e-01,1.685120471060127020e+09,0.000000000000000000e+00,-3.990190938668175535e-01,0.000000000000000000e+00,-3.990190938668175535e-01
1.666666666666666574e-01,1.685120471075084209e+09,0.000000000000000000e+00,-3.990190938668175535e-01,0.000000000000000000e+00,-3.990190938668175535e-01
1.833333333333333204e-01,1.685120471094132423e+09,0.000000000000000000e+00,-3.990190938668175535e-01,0.000000000000000000e+00,-3.990190938668175535e-01
2.000000000000000111e-01,1.685120471110129833e+09,0.000000000000000000e+00,-3.990190938668175535e-01,0.000000000000000000e+00,-3.990190938668175535e-01
2.166666666666666741e-01,1.685120471128118515e+09,0.000000000000000000e+00,-3.990190938668175535e-01,0.000000000000000000e+00,-3.990190938668175535e-01
2.333333333333333370e-01,1.685120471143103600e+09,0.000000000000000000e+00,-3.990190938668175535e-01,0.000000000000000000e+00,-3.990190938668175535e-01
2.500000000000000000e-01,1.685120471162125111e+09,0.000000000000000000e+00,-3.990190938668175535e-01,0.000000000000000000e+00,-3.990190938668175535e-01
2.666666666666666630e-01,1.685120471178103924e+09,0.000000000000000000e+00,-3.990190938668175535e-01,0.000000000000000000e+00,-3.990190938668175535e-01
2.833333333333333259e-01,1.685120471196130037e+09,0.000000000000000000e+00,-3.990190938668175535e-01,0.000000000000000000e+00,-3.990190938668175535e-01
2.999999999999999889e-01,1.685120471214120865e+09,0.000000000000000000e+00,-3.990190938668175535e-01,0.000000000000000000e+00,-3.990190938668175535e-01
3.166666666666666519e-01,1.685120471232080698e+09,0.000000000000000000e+00,-3.990190938668175535e-01,0.000000000000000000e+00,-3.990190938668175535e-01
3.333333333333333148e-01,1.685120471248120785e+09,0.000000000000000000e+00,-3.990190938668175535e-01,0.000000000000000000e+00,-3.990190938668175535e-01
3.499999999999999778e-01,1.685120471264128447e+09,0.000000000000000000e+00,-3.990190938668175535e-01,0.000000000000000000e+00,-3.990190938668175535e-01
3.666666666666666408e-01,1.685120471280128002e+09,0.000000000000000000e+00,-3.990190938668175535e-01,0.000000000000000000e+00,-3.990190938668175535e-01
3.833333333333333037e-01,1.685120471297127485e+09,0.000000000000000000e+00,-3.990190938668175535e-01,0.000000000000000000e+00,-3.990190938668175535e-01
4.000000000000000222e-01,1.685120471314107656e+09,0.000000000000000000e+00,-3.990190938668175535e-01,0.000000000000000000e+00,-3.990190938668175535e-01
4.166666666666666852e-01,1.685120471333108187e+09,0.000000000000000000e+00,-3.990190938668175535e-01,0.000000000000000000e+00,-3.990190938668175535e-01
4.333333333333333481e-01,1.685120471349073172e+09,0.000000000000000000e+00,-3.990190938668175535e-01,0.000000000000000000e+00,-3.990190938668175535e-01
4.500000000000000111e-01,1.685120471366105080e+09,0.000000000000000000e+00,-3.990190938668175535e-01,0.000000000000000000e+00,-3.990190938668175535e-01
4.666666666666666741e-01,1.685120471383101225e+09,0.000000000000000000e+00,-3.990190938668175535e-01,0.000000000000000000e+00,-3.990190938668175535e-01
4.833333333333333370e-01,1.685120471398127794e+09,0.000000000000000000e+00,-3.990190938668175535e-01,0.000000000000000000e+00,-3.990190938668175535e-01
5.000000000000000000e-01,1.685120471418071747e+09,0.000000000000000000e+00,-3.990190938668175535e-01,0.000000000000000000e+00,-3.990190938668175535e-01
5.166666666666666075e-01,1.685120471435127974e+09,0.000000000000000000e+00,-3.990190938668175535e-01,0.000000000000000000e+00,-3.990190938668175535e-01
5.333333333333333259e-01,1.685120471452129841e+09,0.000000000000000000e+00,-3.990190938668175535e-01,0.000000000000000000e+00,-3.990190938668175535e-01
5.500000000000000444e-01,1.685120471470122576e+09,0.000000000000000000e+00,-3.990190938668175535e-01,0.000000000000000000e+00,-3.990190938668175535e-01
5.666666666666666519e-01,1.685120471488097906e+09,0.000000000000000000e+00,-3.990190938668175535e-01,0.000000000000000000e+00,-3.990190938668175535e-01
5.833333333333333703e-01,1.685120471504071712e+09,0.000000000000000000e+00,-3.990190938668175535e-01,0.000000000000000000e+00,-3.990190938668175535e-01
5.999999999999999778e-01,1.685120471522128105e+09,0.000000000000000000e+00,-3.990190938668175535e-01,0.000000000000000000e+00,-3.990190938668175535e-01
6.166666666666666963e-01,1.685120471538119793e+09,0.000000000000000000e+00,-3.990190938668175535e-01,0.000000000000000000e+00,-3.990190938668175535e-01
6.333333333333333037e-01,1.685120471553097248e+09,0.000000000000000000e+00,-3.990190938668175535e-01,0.000000000000000000e+00,-3.990190938668175535e-01
6.500000000000000222e-01,1.685120471573116779e+09,0.000000000000000000e+00,-3.990190938668175535e-01,0.000000000000000000e+00,-3.990190938668175535e-01
6.666666666666666297e-01,1.685120471589118242e+09,0.000000000000000000e+00,-3.990190938668175535e-01,0.000000000000000000e+00,-3.990190938668175535e-01
6.833333333333333481e-01,1.685120471607121944e+09,0.000000000000000000e+00,-3.990190938668175535e-01,0.000000000000000000e+00,-3.990190938668175535e-01
6.999999999999999556e-01,1.685120471624117374e+09,0.000000000000000000e+00,-3.990190938668175535e-01,0.000000000000000000e+00,-3.990190938668175535e-01
7.166666666666666741e-01,1.685120471642119169e+09,0.000000000000000000e+00,-3.990190938668175535e-01,0.000000000000000000e+00,-3.990190938668175535e-01
7.333333333333332815e-01,1.685120471660134315e+09,0.000000000000000000e+00,-3.990190938668175535e-01,0.000000000000000000e+00,-3.990190938668175535e-01
7.500000000000000000e-01,1.685120471676071644e+09,0.000000000000000000e+00,-3.990190938668175535e-01,0.000000000000000000e+00,-3.990190938668175535e-01
7.666666666666666075e-01,1.685120471694098234e+09,0.000000000000000000e+00,-3.990190938668175535e-01,0.000000000000000000e+00,-3.990190938668175535e-01
7.833333333333333259e-01,1.685120471711119890e+09,0.000000000000000000e+00,-3.990190938668175535e-01,0.000000000000000000e+00,-3.990190938668175535e-01
8.000000000000000444e-01,1.685120471728118658e+09,0.000000000000000000e+00,-3.990190938668175535e-01,0.000000000000000000e+00,-3.990190938668175535e-01
8.166666666666666519e-01,1.685120471745120049e+09,0.000000000000000000e+00,-3.990190938668175535e-01,0.000000000000000000e+00,-3.990190938668175535e-01
8.333333333333333703e-01,1.685120471762071609e+09,0.000000000000000000e+00,-3.990190938668175535e-01,0.000000000000000000e+00,-3.990190938668175535e-01
8.499999999999999778e-01,1.685120471780119419e+09,0.000000000000000000e+00,-3.990190938668175535e-01,0.000000000000000000e+00,-3.990190938668175535e-01
8.666666666666666963e-01,1.685120471796119213e+09,0.000000000000000000e+00,-3.990190938668175535e-01,0.000000000000000000e+00,-3.990190938668175535e-01
8.833333333333333037e-01,1.685120471813122272e+09,0.000000000000000000e+00,-3.990190938668175535e-01,0.000000000000000000e+00,-3.990190938668175535e-01
9.000000000000000222e-01,1.685120471832097292e+09,0.000000000000000000e+00,-3.990190938668175535e-01,0.000000000000000000e+00,-3.990190938668175535e-01
9.166666666666666297e-01,1.685120471849127054e+09,0.000000000000000000e+00,-3.990190938668175535e-01,0.000000000000000000e+00,-3.990190938668175535e-01
9.333333333333333481e-01,1.685120471865103960e+09,0.000000000000000000e+00,-3.990190938668175535e-01,0.000000000000000000e+00,-3.990190938668175535e-01
9.499999999999999556e-01,1.685120471884098291e+09,0.000000000000000000e+00,-3.990190938668175535e-01,0.000000000000000000e+00,-3.990190938668175535e-01
9.666666666666666741e-01,1.685120471901108980e+09,0.000000000000000000e+00,-3.990190938668175535e-01,0.000000000000000000e+00,-3.990190938668175535e-01
9.833333333333332815e-01,1.685120471916071892e+09,0.000000000000000000e+00,-3.990190938668175535e-01,0.000000000000000000e+00,-3.990190938668175535e-01
1.000000000000000000e+00,1.685120471935070515e+09,0.000000000000000000e+00,-3.990190938668175535e-01,0.000000000000000000e+00,-3.990190938668175535e-01
1.016666666666666607e+00,1.685120471953100920e+09,0.000000000000000000e+00,-3.990190938668175535e-01,0.000000000000000000e+00,-3.990190938668175535e-01
1.033333333333333215e+00,1.685120471968072414e+09,0.000000000000000000e+00,-3.990190938668175535e-01,0.000000000000000000e+00,-3.990190938668175535e-01
1.050000000000000044e+00,1.685120471986117601e+09,0.000000000000000000e+00,-3.990190938668175535e-01,0.000000000000000000e+00,-3.990190938668175535e-01
1.066666666666666652e+00,1.685120472001097202e+09,0.000000000000000000e+00,-3.990190938668175535e-01,0.000000000000000000e+00,-3.990190938668175535e-01
1.083333333333333259e+00,1.685120472020085573e+09,0.000000000000000000e+00,-3.990190938668175535e-01,0.000000000000000000e+00,-3.990190938668175535e-01
1.100000000000000089e+00,1.685120472036119461e+09,0.000000000000000000e+00,-3.990190938668175535e-01,0.000000000000000000e+00,-3.990190938668175535e-01
1.116666666666666696e+00,1.685120472053130150e+09,0.000000000000000000e+00,-3.990190938668175535e-01,0.000000000000000000e+00,-3.990190938668175535e-01
1.133333333333333304e+00,1.685120472072127581e+09,0.000000000000000000e+00,-3.990190938668175535e-01,0.000000000000000000e+00,-3.990190938668175535e-01
1.149999999999999911e+00,1.685120472088127851e+09,0.000000000000000000e+00,-3.990190938668175535e-01,0.000000000000000000e+00,-3.990190938668175535e-01
1.166666666666666741e+00,1.685120472105112553e+09,0.000000000000000000e+00,-3.990190938668175535e-01,0.000000000000000000e+00,-3.990190938668175535e-01
1.183333333333333348e+00,1.685120472123127460e+09,0.000000000000000000e+00,-3.990190938668175535e-01,0.000000000000000000e+00,-3.990190938668175535e-01
1.199999999999999956e+00,1.685120472139127016e+09,0.000000000000000000e+00,-3.990190938668175535e-01,0.000000000000000000e+00,-3.990190938668175535e-01
1.216666666666666563e+00,1.685120472158118486e+09,0.000000000000000000e+00,-3.990190938668175535e-01,0.000000000000000000e+00,-3.990190938668175535e-01
1.233333333333333393e+00,1.685120472173119545e+09,0.000000000000000000e+00,-3.990190938668175535e-01,0.000000000000000000e+00,-3.990190938668175535e-01
1.250000000000000000e+00,1.685120472189119816e+09,0.000000000000000000e+00,-3.829942306593151491e-01,0.000000000000000000e+00,-3.829942306593151491e-01
1.266666666666666607e+00,1.685120472208099365e+09,0.000000000000000000e+00,-3.829942306593151491e-01,0.000000000000000000e+00,-3.829942306593151491e-01
1.283333333333333215e+00,1.685120472224121332e+09,0.000000000000000000e+00,-3.669693674518120785e-01,0.000000000000000000e+00,-3.669693674518120785e-01
1.300000000000000044e+00,1.685120472240122080e+09,0.000000000000000000e+00,-3.349196410368071586e-01,0.000000000000000000e+00,-3.349196410368071586e-01
1.316666666666666652e+00,1.685120472257118702e+09,0.000000000000000000e+00,-3.188947778293041435e-01,0.000000000000000000e+00,-3.188947778293041435e-01
1.333333333333333259e+00,1.685120472274071693e+09,0.000000000000000000e+00,-2.868450514142986130e-01,0.000000000000000000e+00,-2.868450514142986130e-01
1.350000000000000089e+00,1.685120472292098045e+09,0.000000000000000000e+00,-2.708201882067962085e-01,0.000000000000000000e+00,-2.708201882067962085e-01
1.366666666666666696e+00,1.685120472308119774e+09,0.000000000000000000e+00,-2.547953249992931379e-01,0.000000000000000000e+00,-2.547953249992931379e-01
1.383333333333333304e+00,1.685120472325129271e+09,0.000000000000000000e+00,-2.547953249992931379e-01,0.000000000000000000e+00,-2.547953249992931379e-01
1.399999999999999911e+00,1.685120472341129303e+09,0.000000000000000000e+00,-2.387704617917906780e-01,0.000000000000000000e+00,-2.387704617917906780e-01
1.416666666666666741e+00,1.685120472359072447e+09,0.000000000000000000e+00,-2.387704617917906780e-01,0.000000000000000000e+00,-2.387704617917906780e-01
1.433333333333333348e+00,1.685120472379101753e+09,0.000000000000000000e+00,-2.387704617917906780e-01,0.000000000000000000e+00,-2.387704617917906780e-01
1.449999999999999956e+00,1.685120472392119884e+09,0.000000000000000000e+00,-2.387704617917906780e-01,0.000000000000000000e+00,-2.387704617917906780e-01
1.466666666666666563e+00,1.685120472412131310e+09,0.000000000000000000e+00,-2.387704617917906780e-01,0.000000000000000000e+00,-2.387704617917906780e-01
1.483333333333333393e+00,1.685120472428069830e+09,0.000000000000000000e+00,-2.387704617917906780e-01,0.000000000000000000e+00,-2.387704617917906780e-01
1.500000000000000000e+00,1.685120472445120573e+09,0.000000000000000000e+00,-2.227455985842876351e-01,0.000000000000000000e+00,-2.227455985842876351e-01
1.516666666666666607e+00,1.685120472463117123e+09,0.000000000000000000e+00,-2.227455985842876351e-01,0.000000000000000000e+00,-2.227455985842876351e-01
1.533333333333333215e+00,1.685120472480098724e+09,0.000000000000000000e+00,-2.227455985842876351e-01,0.000000000000000000e+00,-2.227455985842876351e-01
1.550000000000000044e+00,1.685120472497116804e+09,0.000000000000000000e+00,-2.227455985842876351e-01,0.000000000000000000e+00,-2.227455985842876351e-01
1.566666666666666652e+00,1.685120472513121367e+09,0.000000000000000000e+00,-2.227455985842876351e-01,0.000000000000000000e+00,-2.227455985842876351e-01
1.583333333333333259e+00,1.685120472531097174e+09,0.000000000000000000e+00,-2.227455985842876351e-01,0.000000000000000000e+00,-2.227455985842876351e-01
1.600000000000000089e+00,1.685120472548117876e+09,0.000000000000000000e+00,-2.227455985842876351e-01,0.000000000000000000e+00,-2.227455985842876351e-01
1.616666666666666696e+00,1.685120472565119505e+09,0.000000000000000000e+00,-2.227455985842876351e-01,0.000000000000000000e+00,-2.227455985842876351e-01
1.633333333333333304e+00,1.685120472585100651e+09,0.000000000000000000e+00,-1.906958721692821324e-01,0.000000000000000000e+00,-1.906958721692821324e-01
1.649999999999999911e+00,1.685120472598128319e+09,0.000000000000000000e+00,-1.746710089617797002e-01,0.000000000000000000e+00,-1.746710089617797002e-01
1.666666666666666741e+00,1.685120472617071390e+09,0.000000000000000000e+00,-1.265964193392711545e-01,0.000000000000000000e+00,-1.265964193392711545e-01
1.683333333333333348e+00,1.685120472635120153e+09,0.000000000000000000e+00,-1.105715561317686946e-01,0.000000000000000000e+00,-1.105715561317686946e-01
1.699999999999999956e+00,1.685120472651097775e+09,0.000000000000000000e+00,-7.852182971676319179e-02,0.000000000000000000e+00,-7.852182971676319179e-02
1.716666666666666563e+00,1.685120472668124199e+09,0.000000000000000000e+00,-6.249696650926014896e-02,0.000000000000000000e+00,-6.249696650926014896e-02
1.733333333333333393e+00,1.685120472685098886e+09,0.000000000000000000e+00,-6.249696650926014896e-02,0.000000000000000000e+00,-6.249696650926014896e-02
1.750000000000000000e+00,1.685120472702121973e+09,0.000000000000000000e+00,-4.647210330175770288e-02,0.000000000000000000e+00,-4.647210330175770288e-02
1.766666666666666607e+00,1.685120472718117952e+09,0.000000000000000000e+00,-4.647210330175770288e-02,0.000000000000000000e+00,-4.647210330175770288e-02
1.783333333333333215e+00,1.685120472735117435e+09,0.000000000000000000e+00,-3.044724009425465311e-02,0.000000000000000000e+00,-3.044724009425465311e-02
1.800000000000000044e+00,1.685120472753116846e+09,0.000000000000000000e+00,-3.044724009425465311e-02,0.000000000000000000e+00,-3.044724009425465311e-02
1.816666666666666652e+00,1.685120472771107197e+09,0.000000000000000000e+00,-3.044724009425465311e-02,0.000000000000000000e+00,-3.044724009425465311e-02
1.833333333333333259e+00,1.685120472789119005e+09,0.000000000000000000e+00,-1.442237688675220356e-02,0.000000000000000000e+00,-1.442237688675220356e-02
1.849999999999999867e+00,1.685120472806100368e+09,0.000000000000000000e+00,-1.442237688675220356e-02,0.000000000000000000e+00,-1.442237688675220356e-02
1.866666666666666696e+00,1.685120472821118593e+09,0.000000000000000000e+00,-1.442237688675220356e-02,0.000000000000000000e+00,-1.442237688675220356e-02
1.883333333333333304e+00,1.685120472840097904e+09,0.000000000000000000e+00,1.602486320750845994e-03,0.000000000000000000e+00,1.602486320750845994e-03
1.899999999999999911e+00,1.685120472855097294e+09,0.000000000000000000e+00,1.602486320750845994e-03,0.000000000000000000e+00,1.602486320750845994e-03
1.916666666666666741e+00,1.685120472871118546e+09,0.000000000000000000e+00,3.365221273575574185e-02,0.000000000000000000e+00,3.365221273575574185e-02
1.933333333333333348e+00,1.685120472890118122e+09,0.000000000000000000e+00,4.967707594325939530e-02,0.000000000000000000e+00,4.967707594325939530e-02
1.949999999999999956e+00,1.685120472907117605e+09,0.000000000000000000e+00,6.570193915076183444e-02,0.000000000000000000e+00,6.570193915076183444e-02
1.966666666666666563e+00,1.685120472924120903e+09,0.000000000000000000e+00,8.172680235826429440e-02,0.000000000000000000e+00,8.172680235826429440e-02
1.983333333333333393e+00,1.685120472941119432e+09,0.000000000000000000e+00,9.775166556576674048e-02,0.000000000000000000e+00,9.775166556576674048e-02
2.000000000000000000e+00,1.685120472960071564e+09,0.000000000000000000e+00,1.298013919807728400e-01,0.000000000000000000e+00,1.298013919807728400e-01
2.016666666666666607e+00,1.685120472975096464e+09,0.000000000000000000e+00,1.458262551882752722e-01,0.000000000000000000e+00,1.458262551882752722e-01
2.033333333333333215e+00,1.685120472993085861e+09,0.000000000000000000e+00,1.778759816032801921e-01,0.000000000000000000e+00,1.778759816032801921e-01
2.049999999999999822e+00,1.685120473010095835e+09,0.000000000000000000e+00,2.099257080182862778e-01,0.000000000000000000e+00,2.099257080182862778e-01
2.066666666666666430e+00,1.685120473027117014e+09,0.000000000000000000e+00,2.419754344332911700e-01,0.000000000000000000e+00,2.419754344332911700e-01
2.083333333333333481e+00,1.685120473043106794e+09,0.000000000000000000e+00,2.740251608482972556e-01,0.000000000000000000e+00,2.740251608482972556e-01
2.100000000000000089e+00,1.685120473061118364e+09,0.000000000000000000e+00,3.060748872633021755e-01,0.000000000000000000e+00,3.060748872633021755e-01
2.116666666666666696e+00,1.685120473078117609e+09,0.000000000000000000e+00,3.381246136783082612e-01,0.000000000000000000e+00,3.381246136783082612e-01
2.133333333333333304e+00,1.685120473094117165e+09,0.000000000000000000e+00,3.701743400933131811e-01,0.000000000000000000e+00,3.701743400933131811e-01
2.149999999999999911e+00,1.685120473111117601e+09,0.000000000000000000e+00,4.022240665083192668e-01,0.000000000000000000e+00,4.022240665083192668e-01
2.166666666666666519e+00,1.685120473128097773e+09,0.000000000000000000e+00,4.502986561308278124e-01,0.000000000000000000e+00,4.502986561308278124e-01
2.183333333333333126e+00,1.685120473145120144e+09,0.000000000000000000e+00,4.663235193383302724e-01,0.000000000000000000e+00,4.663235193383302724e-01
2.200000000000000178e+00,1.685120473161120415e+09,0.000000000000000000e+00,4.823483825458327323e-01,0.000000000000000000e+00,4.823483825458327323e-01
2.216666666666666785e+00,1.685120473179119110e+09,0.000000000000000000e+00,5.143981089608388180e-01,0.000000000000000000e+00,5.143981089608388180e-01
