# 
# 
# 
# 
# 
# 
# 
# 
# 
# 
# time,realtime,ref,inp,inp0,inp1,dis,state...
0.000000000000000000e+00,1.685138774578307152e+09,0.000000000000000000e+00,6.570193915076183444e-02,0.000000000000000000e+00,1.314038783015236689e-01,-0.000000000000000000e+00,0.000000000000000000e+00,0.000000000000000000e+00
1.666666666666666644e-02,1.685138774581302643e+09,3.857870083813241360e-06,8.172680235826429440e-02,0.000000000000000000e+00,1.634536047165285888e-01,0.000000000000000000e+00,1.128814672104356962e-05,1.350825225916694582e-03
3.333333333333333287e-02,1.685138774585313320e+09,1.537063253457860600e-05,4.967707594325939530e-02,0.000000000000000000e+00,9.935415188651879059e-02,-2.053338874459859356e-06,4.047646274061828095e-05,2.149553953303535297e-03
5.000000000000000278e-02,1.685138774602313757e+09,3.439000552368860395e-05,4.967707594325939530e-02,0.000000000000000000e+00,9.935415188651879059e-02,-5.128973513603410489e-06,8.286617859808002601e-05,2.935030020275170362e-03
6.666666666666666574e-02,1.685138774618303299e+09,6.069382208253627786e-05,3.365221273575574185e-02,0.000000000000000000e+00,6.730442547151148369e-02,-3.410587742632920181e-06,1.360255471342369099e-04,3.442684020872565070e-03
8.333333333333332871e-02,1.685138774636304617e+09,9.398967891907626952e-05,3.365221273575574185e-02,0.000000000000000000e+00,6.730442547151148369e-02,1.042166801385400276e-05,1.975776087745501075e-04,3.942175865961745039e-03
1.000000000000000056e-01,1.685138774653304338e+09,1.339197288141794474e-04,1.762734952825329576e-02,0.000000000000000000e+00,3.525469905650659153e-02,4.505015061934717843e-05,2.651769652379379685e-04,4.169116504146234796e-03
1.166666666666666685e-01,1.685138774669327974e+09,1.800665537828711430e-04,1.602486320750845994e-03,0.000000000000000000e+00,3.204972641501691987e-03,1.103354359955664797e-04,3.343229756509107174e-04,4.128517523012368608e-03
1.333333333333333315e-01,1.685138774685304165e+09,2.319600416622101351e-04,1.602486320750845994e-03,0.000000000000000000e+00,3.204972641501691987e-03,2.170915977084593451e-04,4.028126891441749990e-04,4.090354108160092900e-03
1.499999999999999944e-01,1.685138774703325272e+09,2.890851751635343538e-04,-1.442237688675220356e-02,0.000000000000000000e+00,-2.884475377350440711e-02,3.768247006780068762e-04,4.684803171868554082e-04,3.790593943682842460e-03
1.666666666666666574e-01,1.685138774723267555e+09,3.508906298687723430e-04,-3.044724009425465311e-02,0.000000000000000000e+00,-6.089448018850930622e-02,6.014389245438291195e-04,5.270110072382486015e-04,3.234633234136268746e-03
1.833333333333333204e-01,1.685138774739303827e+09,4.167980663133423122e-04,-4.647210330175770288e-02,0.000000000000000000e+00,-9.294420660351540575e-02,9.029154314946813593e-04,5.741807530178792609e-04,2.427977023852254373e-03
2.000000000000000111e-01,1.685138774756305218e+09,4.862119913229598746e-04,-4.647210330175770288e-02,0.000000000000000000e+00,-9.294420660351540575e-02,1.292969715823119245e-03,6.080715188767495767e-04,1.641100698227807757e-03
2.166666666666666741e-01,1.685138774772311449e+09,5.585300552843235674e-04,-6.249696650926014896e-02,0.000000000000000000e+00,-1.249939330185202979e-01,1.782693706321946802e-03,6.268106418790301768e-04,6.104570285098904255e-04
2.333333333333333370e-01,1.685138774788326263e+09,6.331536451391891552e-04,-7.852182971676319179e-02,0.000000000000000000e+00,-1.570436594335263836e-01,2.382189328384592790e-03,6.263841639362199712e-04,-6.581105000202759972e-04
2.500000000000000000e-01,1.685138774804274797e+09,7.094986276888254253e-04,-7.852182971676319179e-02,0.000000000000000000e+00,-1.570436594335263836e-01,3.100200562204316525e-03,6.050892811011416650e-04,-1.893842769761179025e-03
2.666666666666666630e-01,1.685138774822303772e+09,7.870060943530816965e-04,-9.454669292426565175e-02,0.000000000000000000e+00,-1.890933858485313035e-01,3.943751250219926056e-03,5.612726899345105939e-04,-3.360075206495310128e-03
2.833333333333333259e-01,1.685138774839303017e+09,8.651529568971408433e-04,-9.454669292426565175e-02,0.000000000000000000e+00,-1.890933858485313035e-01,4.917796006002965806e-03,4.933559437924359223e-04,-4.785973408990946802e-03
2.999999999999999889e-01,1.685138774857307196e+09,9.434622438505739029e-04,-7.852182971676319179e-02,0.000000000000000000e+00,-1.570436594335263836e-01,6.024891554922713784e-03,4.042374480717690318e-04,-5.905137215967620930e-03
3.166666666666666519e-01,1.685138774875301600e+09,1.021512949407541327e-03,-9.454669292426565175e-02,0.000000000000000000e+00,-1.890933858485313035e-01,7.264895692745360588e-03,2.945787095863514125e-04,-7.250175098007541515e-03
3.333333333333333148e-01,1.685138774890301704e+09,1.098949290502462903e-03,-7.852182971676319179e-02,0.000000000000000000e+00,-1.570436594335263836e-01,8.634700782226820137e-03,1.650910106349554496e-04,-8.285472881298418246e-03
3.499999999999999778e-01,1.685138774908324480e+09,1.175489233469560789e-03,-9.454669292426565175e-02,0.000000000000000000e+00,-1.890933858485313035e-01,1.012800832197980651e-02,1.648423875546620328e-05,-9.543844186123692092e-03
3.666666666666666408e-01,1.685138774926304817e+09,1.250932159163505464e-03,-7.852182971676319179e-02,0.000000000000000000e+00,-1.570436594335263836e-01,1.173515062048270489e-02,-1.504862399335785074e-04,-1.048998502570598797e-02
3.833333333333333037e-01,1.685138774943325996e+09,1.325165544567586231e-03,-7.852182971676319179e-02,0.000000000000000000e+00,-1.570436594335263836e-01,1.344296499687502172e-02,-3.328591669969838606e-04,-1.139225984397405217e-02
4.000000000000000222e-01,1.685138774961296797e+09,1.398170549651219950e-03,-9.454669292426565175e-02,0.000000000000000000e+00,-1.890933858485313035e-01,1.523472521667853727e-02,-5.321112683366513354e-04,-1.251487387109417003e-02
4.166666666666666852e-01,1.685138774974328279e+09,1.470026410446996848e-03,-9.454669292426565175e-02,0.000000000000000000e+00,-1.890933858485313035e-01,1.709013406394429765e-02,-7.496622774562962258e-04,-1.358826550964654760e-02
4.333333333333333481e-01,1.685138774993303299e+09,1.540913552867843829e-03,-7.852182971676319179e-02,0.000000000000000000e+00,-1.570436594335263836e-01,1.898538006220151439e-02,-9.824797554046547053e-04,-1.434772219260754995e-02
4.500000000000000111e-01,1.685138775009325504e+09,1.611115356530164319e-03,-7.852182971676319179e-02,0.000000000000000000e+00,-1.570436594335263836e-01,2.089326039699520784e-02,-1.227586430815879844e-03,-1.506309167252579094e-02
4.666666666666666741e-01,1.685138775027317762e+09,1.681018513626489916e-03,-7.852182971676319179e-02,0.000000000000000000e+00,-1.570436594335263836e-01,2.278337107597511874e-02,-1.484256060672802489e-03,-1.573539635334866849e-02
4.833333333333333370e-01,1.685138775043303728e+09,1.751111944526176096e-03,-7.852182971676319179e-02,0.000000000000000000e+00,-1.570436594335263836e-01,2.462236430270960466e-02,-1.751783906823382690e-03,-1.636619293076564674e-02
5.000000000000000000e-01,1.685138775060294390e+09,1.821984249088129263e-03,-7.852182971676319179e-02,0.000000000000000000e+00,-1.570436594335263836e-01,2.637427195276394881e-02,-2.029495928967446454e-03,-1.695760687135490496e-02
5.166666666666666075e-01,1.685138775077267885e+09,1.894319690449796723e-03,-7.852182971676319179e-02,0.000000000000000000e+00,-1.570436594335263836e-01,2.800089294086740080e-02,-2.316758494030245023e-03,-1.751235991922370228e-02
5.333333333333333259e-01,1.685138775094313383e+09,1.968892726108361670e-03,-7.852182971676319179e-02,0.000000000000000000e+00,-1.570436594335263836e-01,2.946224117239305135e-02,-2.612988478309503666e-03,-1.803378974401727980e-02
5.500000000000000444e-01,1.685138775112297058e+09,2.046561119225338930e-03,-7.852182971676319179e-02,0.000000000000000000e+00,-1.570436594335263836e-01,3.071704969729615806e-02,-2.917663624741503349e-03,-1.852586093124306346e-02
5.666666666666666519e-01,1.685138775129268169e+09,2.128257681054036236e-03,-7.852182971676319179e-02,0.000000000000000000e+00,-1.570436594335263836e-01,3.172332564648278064e-02,-3.230333005173152867e-03,-1.899316661864942218e-02
5.833333333333333703e-01,1.685138775146301985e+09,2.214980712999199686e-03,-7.852182971676319179e-02,0.000000000000000000e+00,-1.570436594335263836e-01,3.243894954545344794e-02,-3.550627426903523592e-03,-1.944092019977421495e-02
5.999999999999999778e-01,1.685138775161324501e+09,2.307783233860965198e-03,-7.852182971676319179e-02,0.000000000000000000e+00,-1.570436594335263836e-01,3.282231168364075496e-02,-3.878269614201452879e-03,-1.987493664636165794e-02
6.166666666666666963e-01,1.685138775180304527e+09,2.407761094085881463e-03,-7.852182971676319179e-02,0.000000000000000000e+00,-1.570436594335263836e-01,3.283297738509462216e-02,-4.213083989222335402e-03,-2.030160314353525106e-02
6.333333333333333037e-01,1.685138775197304249e+09,2.516040094148711166e-03,-7.852182971676319179e-02,0.000000000000000000e+00,-1.570436594335263836e-01,3.243237229109818126e-02,-4.555005872915433504e-03,-2.072783888360323762e-02
6.500000000000000222e-01,1.685138775213323116e+09,2.633762238330083962e-03,-7.852182971676319179e-02,0.000000000000000000e+00,-1.570436594335263836e-01,3.158447814082315785e-02,-4.904089925279677895e-03,-2.116104402417132851e-02
6.666666666666666297e-01,1.685138775231324673e+09,2.762071267959612889e-03,-7.852182971676319179e-02,0.000000000000000000e+00,-1.570436594335263836e-01,3.025652903383756892e-02,-5.260517645803150684e-03,-2.160903798169661744e-02
6.833333333333333481e-01,1.685138775247303963e+09,2.902097629496199708e-03,-7.852182971676319179e-02,0.000000000000000000e+00,-1.570436594335263836e-01,2.841969778823045731e-02,-5.624603759184597720e-03,-2.207998740045738137e-02
6.999999999999999556e-01,1.685138775265326023e+09,3.054943042467623670e-03,-7.852182971676319179e-02,0.000000000000000000e+00,-1.570436594335263836e-01,2.604976177872281307e-02,-5.996801318520844637e-03,-2.258232430675513949e-02
7.166666666666666741e-01,1.685138775281325102e+09,3.221664840156945701e-03,-7.852182971676319179e-02,0.000000000000000000e+00,-1.570436594335263836e-01,2.312773755698899203e-02,-6.377705368048083336e-03,-2.312465512655747027e-02
7.333333333333332815e-01,1.685138775300304651e+09,3.403260261889846146e-03,-7.852182971676319179e-02,0.000000000000000000e+00,-1.570436594335263836e-01,1.964047362617464890e-02,-6.768055020202757253e-03,-2.371566140924593821e-02
7.500000000000000000e-01,1.685138775317268372e+09,3.600650879749912620e-03,-7.852182971676319179e-02,0.000000000000000000e+00,-1.570436594335263836e-01,1.558119096592335689e-02,-7.168733817132744331e-03,-2.436399325816328287e-02
7.666666666666666075e-01,1.685138775332293987e+09,3.814667344455509573e-03,-7.852182971676319179e-02,0.000000000000000000e+00,-1.570436594335263836e-01,1.094996128364491943e-02,-7.580768264714115093e-03,-2.507815661780055105e-02
7.833333333333333259e-01,1.685138775349292994e+09,4.046034634921395409e-03,-7.852182971676319179e-02,0.000000000000000000e+00,-1.570436594335263836e-01,5.754113500705090173e-03,-8.005324447444886124e-03,-2.586639570533741730e-02
8.000000000000000444e-01,1.685138775367293835e+09,4.295357993672673305e-03,-7.852182971676319179e-02,0.000000000000000000e+00,-1.570436594335263836e-01,8.559664944905231171e-06,-8.443702655087852865e-03,-2.673657199855808755e-02
8.166666666666666519e-01,1.685138775384307384e+09,4.563109725774361705e-03,-7.852182971676319179e-02,0.000000000000000000e+00,-1.570436594335263836e-01,-6.263967692415177771e-03,-8.897329976375760452e-03,-2.769604130075648679e-02
8.333333333333333703e-01,1.685138775401295185e+09,4.849617032306650054e-03,-7.852182971676319179e-02,0.000000000000000000e+00,-1.570436594335263836e-01,-1.303277377482653723e-02,-9.367750841195083417e-03,-2.875153049413032777e-02
8.499999999999999778e-01,1.685138775418314219e+09,5.155051040697611851e-03,-7.852182971676319179e-02,0.000000000000000000e+00,-1.570436594335263836e-01,-2.025916124417184022e-02,-9.856615520119613172e-03,-2.990901566455471394e-02
8.666666666666666963e-01,1.685138775435318708e+09,5.479417183489702914e-03,-7.852182971676319179e-02,0.000000000000000000e+00,-1.570436594335263836e-01,-2.789649617831546288e-02,-1.036566661863383941e-02,-3.117360333095846314e-02
8.833333333333333037e-01,1.685138775451319218e+09,5.822547064454696754e-03,-7.852182971676319179e-02,0.000000000000000000e+00,-1.570436594335263836e-01,-3.589038368746983593e-02,-1.089672363250680266e-02,-3.254941654048938010e-02
9.000000000000000222e-01,1.685138775469304562e+09,6.184091936498024161e-03,-7.852182971676319179e-02,0.000000000000000000e+00,-1.570436594335263836e-01,-4.417895522627899446e-02,-1.145166566016832255e-02,-3.403948759521189388e-02
9.166666666666666297e-01,1.685138775487304211e+09,6.563517899642574462e-03,-7.852182971676319179e-02,0.000000000000000000e+00,-1.570436594335263836e-01,-5.269326818215049058e-02,-1.203241239720483080e-02,-3.564565915649061528e-02
9.333333333333333481e-01,1.685138775502302408e+09,6.960102909710204865e-03,-7.852182971676319179e-02,0.000000000000000000e+00,-1.570436594335263836e-01,-6.135781681379690738e-02,-1.264090356682553810e-02,-3.736849542904591148e-02
9.499999999999999556e-01,1.685138775520326853e+09,7.372935669301755243e-03,-7.852182971676319179e-02,0.000000000000000000e+00,-1.570436594335263836e-01,-7.009115207631982924e-02,-1.327907696794069885e-02,-3.920720505781546961e-02
9.666666666666666741e-01,1.685138775539303064e+09,7.800916452504665435e-03,-7.852182971676319179e-02,0.000000000000000000e+00,-1.570436594335263836e-01,-7.880660632040577263e-02,-1.394884534893291693e-02,-4.115957727744273126e-02
9.833333333333332815e-01,1.685138775553303242e+09,8.242759893640384458e-03,-7.852182971676319179e-02,0.000000000000000000e+00,-1.570436594335263836e-01,-8.741311731381888606e-02,-1.465207233988658105e-02,-4.322193273699876520e-02
1.000000000000000000e+00,1.685138775574273825e+09,8.696999748521776208e-03,-7.852182971676319179e-02,0.000000000000000000e+00,-1.570436594335263836e-01,-9.581614452418162065e-02,-1.539054769857887972e-02,-4.538909028232221421e-02
1.016666666666666607e+00,1.685138775591284990e+09,9.161995614357506743e-03,-7.852182971676319179e-02,0.000000000000000000e+00,-1.570436594335263836e-01,-1.039186691438950677e-01,-1.616596214555512945e-02,-4.765435081635693848e-02
1.033333333333333215e+00,1.685138775608297586e+09,9.635941571856250151e-03,-7.852182971676319179e-02,0.000000000000000000e+00,-1.570436594335263836e-01,-1.116222679515711802e-01,-1.697988208076121885e-02,-5.000949917562308444e-02
1.050000000000000044e+00,1.685138775624316454e+09,1.011687669049691173e-02,-7.852182971676319179e-02,0.000000000000000000e+00,-1.570436594335263836e-01,-1.188282498096782797e-01,-1.783372448816503142e-02,-5.244482476032662904e-02
1.066666666666666652e+00,1.685138775639295816e+09,1.060269731559418394e-02,-7.852182971676319179e-02,0.000000000000000000e+00,-1.570436594335263836e-01,-1.254388424145402026e-01,-1.872873234527806449e-02,-5.494916143873532222e-02
1.083333333333333259e+00,1.685138775657314062e+09,1.109117103395353132e-02,-7.852182971676319179e-02,0.000000000000000000e+00,-1.570436594335263836e-01,-1.313584158607097874e-01,-1.966595086123771111e-02,-5.750994701573355905e-02
1.100000000000000089e+00,1.685138775674309492e+09,1.157995219382777427e-02,-7.852182971676319179e-02,0.000000000000000000e+00,-1.570436594335263836e-01,-1.364947286740287868e-01,-2.064620486992098727e-02,-6.011330231356348114e-02
1.116666666666666696e+00,1.685138775693304062e+09,1.206659883480705117e-02,-7.852182971676319179e-02,0.000000000000000000e+00,-1.570436594335263836e-01,-1.407601812218398363e-01,-2.167007770326960167e-02,-6.274412966252491952e-02
1.133333333333333304e+00,1.685138775710303783e+09,1.254859086443398455e-02,-7.852182971676319179e-02,0.000000000000000000e+00,-1.570436594335263836e-01,-1.440730608385192846e-01,-2.273789186450045005e-02,-6.538623034388210686e-02
1.149999999999999911e+00,1.685138775725268126e+09,1.302334930096670992e-02,-7.852182971676319179e-02,0.000000000000000000e+00,-1.570436594335263836e-01,-1.463587626214169490e-01,-2.384969181109356309e-02,-6.802244026959199108e-02
1.166666666666666741e+00,1.685138775742325544e+09,1.348825638603516619e-02,-7.852182971676319179e-02,0.000000000000000000e+00,-1.570436594335263836e-01,-1.475509696659555170e-01,-2.500522914338337843e-02,-7.063478292701415306e-02
1.183333333333333348e+00,1.685138775761268377e+09,1.394067635714982614e-02,-7.852182971676319179e-02,0.000000000000000000e+00,-1.570436594335263836e-01,-1.475927765262282643e-01,-2.620395047627663634e-02,-7.320463836483741271e-02
1.199999999999999956e+00,1.685138775778326273e+09,1.437797665831853228e-02,-7.852182971676319179e-02,0.000000000000000000e+00,-1.570436594335263836e-01,-1.464377399136489732e-01,-2.744498824918499905e-02,-7.571292675243591896e-02
1.216666666666666563e+00,1.685138775796320677e+09,1.479754935756882363e-02,-7.852182971676319179e-02,0.000000000000000000e+00,-1.570436594335263836e-01,-1.440508410831870534e-01,-2.872715470285222214e-02,-7.814030481210119949e-02
1.233333333333333393e+00,1.685138775812297583e+09,1.519683253310967312e-02,-7.852182971676319179e-02,0.000000000000000000e+00,-1.570436594335263836e-01,-1.404093450039292645e-01,-3.004893922158960451e-02,-8.046737320537536431e-02
1.250000000000000000e+00,1.685138775828298807e+09,1.557333138531782207e-02,-7.852182971676319179e-02,0.000000000000000000e+00,-1.570436594335263836e-01,-1.355035422649394083e-01,-3.140850920577844402e-02,-8.267489275421489869e-02
1.266666666666666607e+00,1.685138775844305992e+09,1.592463882979891845e-02,-7.852182971676319179e-02,0.000000000000000000e+00,-1.570436594335263836e-01,-1.293373607226931676e-01,-3.280371460267500483e-02,-8.474400719797595127e-02
1.283333333333333215e+00,1.685138775861293077e+09,1.624845532752308003e-02,-6.249696650926014896e-02,0.000000000000000000e+00,-1.249939330185202979e-01,-1.219288351441357582e-01,-3.422988282182979486e-02,-8.639160233971109049e-02
1.300000000000000044e+00,1.685138775879266977e+09,1.654260771151183640e-02,-7.852182971676319179e-02,0.000000000000000000e+00,-1.570436594335263836e-01,-1.133104245284239364e-01,-3.568430637627801466e-02,-8.813438302268265800e-02
1.316666666666666652e+00,1.685138775898324490e+09,1.680506677577494126e-02,-6.249696650926014896e-02,0.000000000000000000e+00,-1.249939330185202979e-01,-1.035291683868438811e-01,-3.716397120762388734e-02,-8.942182043960518467e-02
1.333333333333333259e+00,1.685138775913327694e+09,1.703396340114532101e-02,-6.249696650926014896e-02,0.000000000000000000e+00,-1.249939330185202979e-01,-9.264667500812889811e-02,-3.866341241233786641e-02,-9.050810659351435361e-02
1.350000000000000089e+00,1.685138775929328442e+09,1.722760300429800398e-02,-6.249696650926014896e-02,0.000000000000000000e+00,-1.249939330185202979e-01,-8.073893661693407053e-02,-4.017916364512984922e-02,-9.137962041282560177e-02
1.366666666666666696e+00,1.685138775949324131e+09,1.738447811049010153e-02,-6.249696650926014896e-02,0.000000000000000000e+00,-1.249939330185202979e-01,-6.789596832610059196e-02,-4.170754585713150331e-02,-9.202445378141328736e-02
1.383333333333333304e+00,1.685138775963326454e+09,1.750327886732108013e-02,-6.249696650926014896e-02,0.000000000000000000e+00,-1.249939330185202979e-01,-5.422126986621048778e-02,-4.324469747106177153e-02,-9.243260610707419722e-02
1.399999999999999911e+00,1.685138775981304169e+09,1.758290133595871718e-02,-6.249696650926014896e-02,0.000000000000000000e+00,-1.249939330185202979e-01,-3.983111122483420224e-02,-4.478660767365835738e-02,-9.259616386671251642e-02
1.416666666666666741e+00,1.685138775998325825e+09,1.762245341764567472e-02,-4.647210330175770288e-02,0.000000000000000000e+00,-9.294420660351540575e-02,-2.485364551756260795e-02,-4.632693919109723280e-02,-9.224459482959565526e-02
1.433333333333333348e+00,1.685138776014302015e+09,1.762125829671029251e-02,-4.647210330175770288e-02,0.000000000000000000e+00,-9.294420660351540575e-02,-9.427854617050790073e-03,-4.785932916553878314e-02,-9.164387082046758504e-02
1.449999999999999956e+00,1.685138776032303095e+09,1.757885530654572717e-02,-3.044724009425465311e-02,0.000000000000000000e+00,-6.089448018850930622e-02,6.297664742154576202e-03,-4.937740466677877776e-02,-9.052828824176259448e-02
1.466666666666666563e+00,1.685138776049301863e+09,1.749499815186053575e-02,-1.442237688675220356e-02,0.000000000000000000e+00,-2.884475377350440711e-02,2.216606451373507106e-02,-5.087263609646627827e-02,-8.890399535162538114e-02
1.483333333333333393e+00,1.685138776064289808e+09,1.736965044868505129e-02,1.762734952825329576e-02,0.000000000000000000e+00,3.525469905650659153e-02,3.801374659150044688e-02,-5.233440471216883882e-02,-8.651487513392693007e-02
1.500000000000000000e+00,1.685138776083326817e+09,1.720297857287390181e-02,4.967707594325939530e-02,0.000000000000000000e+00,9.935415188651879059e-02,5.367198782087994474e-02,-5.375009519575704720e-02,-8.337670025426972831e-02
1.516666666666666607e+00,1.685138776099317074e+09,1.699534183788138295e-02,9.775166556576674048e-02,0.000000000000000000e+00,1.955033311315334810e-01,6.896867296033259986e-02,-5.510516333887398310e-02,-7.924295980238446613e-02
1.533333333333333215e+00,1.685138776118334055e+09,1.674728005310284137e-02,1.458262551882752722e-01,0.000000000000000000e+00,2.916525103765505444e-01,8.373011806283012226e-02,-5.638322781761707231e-02,-7.413895576945628285e-02
1.550000000000000044e+00,1.685138776135318518e+09,1.645949854475915394e-02,1.618511183957777322e-01,0.000000000000000000e+00,3.237022367915554644e-01,9.778296519909880635e-02,-5.757277618170120875e-02,-6.862217267879086591e-02
1.566666666666666652e+00,1.685138776151326895e+09,1.613285075182627551e-02,1.618511183957777322e-01,0.000000000000000000e+00,3.237022367915554644e-01,1.109561280904638181e-01,-5.866932065794253776e-02,-6.297884076111218143e-02
1.583333333333333259e+00,1.685138776169293404e+09,1.576831853955850890e-02,1.778759816032801921e-01,0.000000000000000000e+00,3.557519632065603843e-01,1.230827670808119223e-01,-5.966870076251253041e-02,-5.696348151180732206e-02
1.600000000000000089e+00,1.685138776184295416e+09,1.536699040238670606e-02,1.778759816032801921e-01,0.000000000000000000e+00,3.557519632065603843e-01,1.340022709731230333e-01,-6.056714751668899194e-02,-5.086706388135747714e-02
1.616666666666666696e+00,1.685138776203316450e+09,1.493003775607291278e-02,1.778759816032801921e-01,0.000000000000000000e+00,3.557519632065603843e-01,1.435622226024699244e-01,-6.136350892531382273e-02,-4.471339906930348052e-02
1.633333333333333304e+00,1.685138776219293118e+09,1.445868954564314898e-02,1.778759816032801921e-01,0.000000000000000000e+00,3.557519632065603843e-01,1.516203246278735595e-01,-6.205704621191958370e-02,-3.852825667884515748e-02
1.649999999999999911e+00,1.685138776237321615e+09,1.395420542049522622e-02,1.618511183957777322e-01,0.000000000000000000e+00,3.237022367915554644e-01,1.580462619105182098e-01,-6.264967789540921983e-02,-3.260400199025059731e-02
1.666666666666666741e+00,1.685138776253293514e+09,1.341784775088031290e-02,1.778759816032801921e-01,0.000000000000000000e+00,3.557519632065603843e-01,1.627234770130243091e-01,-6.314153088038330919e-02,-2.643549136167143432e-02
1.683333333333333348e+00,1.685138776270317316e+09,1.285085278040956278e-02,1.778759816032801921e-01,0.000000000000000000e+00,3.557519632065603843e-01,1.655508358079475217e-01,-6.353103683643948618e-02,-2.032220511542813524e-02
1.699999999999999956e+00,1.685138776286318541e+09,1.225440122706589370e-02,1.778759816032801921e-01,0.000000000000000000e+00,3.557519632065603843e-01,1.664441609242016118e-01,-6.381937567202748685e-02,-1.429519723771543668e-02
1.716666666666666563e+00,1.685138776304320097e+09,1.162958866016580717e-02,1.939008448107838178e-01,0.000000000000000000e+00,3.878016896215676357e-01,1.653376117850348936e-01,-6.400603630467271987e-02,-8.121228995139888329e-03
1.733333333333333393e+00,1.685138776321296215e+09,1.097739599259348747e-02,1.939008448107838178e-01,0.000000000000000000e+00,3.878016896215676357e-01,1.621848912943445742e-01,-6.409108567350994823e-02,-2.101417357883850548e-03
1.750000000000000000e+00,1.685138776337304592e+09,1.029866043622794380e-02,2.099257080182862778e-01,0.000000000000000000e+00,4.198514160365725556e-01,1.569602607998666355e-01,-6.407514457424863530e-02,3.997407689824051744e-03
1.766666666666666607e+00,1.685138776355268240e+09,9.594047273634425527e-03,2.259505712257887378e-01,0.000000000000000000e+00,4.519011424515774755e-01,1.496593467890120488e-01,-6.395719380740154392e-02,1.013962222322364014e-02
1.783333333333333215e+00,1.685138776372307301e+09,8.864022800666428170e-03,2.259505712257887378e-01,0.000000000000000000e+00,4.519011424515774755e-01,1.402997248394380059e-01,-6.373901391972112973e-02,1.602561393663033337e-02
1.800000000000000044e+00,1.685138776390268803e+09,8.108828792521194720e-03,2.419754344332911700e-01,0.000000000000000000e+00,4.839508688665823399e-01,1.289212686321734858e-01,-6.342290538220969609e-02,2.189111711687664538e-02
1.816666666666666652e+00,1.685138776406304359e+09,7.328458839944033965e-03,2.419754344332911700e-01,0.000000000000000000e+00,4.839508688665823399e-01,1.155862543176219143e-01,-6.301169044341771441e-02,2.743926365726654520e-02
1.833333333333333259e+00,1.685138776423331499e+09,6.522636892662421471e-03,2.419754344332911700e-01,0.000000000000000000e+00,4.839508688665823399e-01,1.003792131785312264e-01,-6.251087311249776957e-02,3.264435711987696831e-02
1.849999999999999867e+00,1.685138776440324783e+09,5.690798333753495711e-03,2.419754344332911700e-01,0.000000000000000000e+00,4.839508688665823399e-01,8.340652833099654329e-02,-6.192636742967391750e-02,3.748288414979124294e-02
1.866666666666666696e+00,1.685138776458324432e+09,4.832073891557453829e-03,2.419754344332911700e-01,0.000000000000000000e+00,4.839508688665823399e-01,6.479577411446327262e-02,-6.126445845611110108e-02,4.193382865202432974e-02
1.883333333333333304e+00,1.685138776475324392e+09,3.945276675032419016e-03,2.419754344332911700e-01,0.000000000000000000e+00,4.839508688665823399e-01,4.469479981215998543e-02,-6.053175819745371805e-02,4.597896563079113125e-02
1.899999999999999911e+00,1.685138776492324829e+09,3.028892594223448701e-03,2.419754344332911700e-01,0.000000000000000000e+00,4.839508688665823399e-01,2.327056238059881446e-02,-5.973515683185225827e-02,4.960313087875450194e-02
1.916666666666666741e+00,1.685138776507294893e+09,2.081074399953048576e-03,2.419754344332911700e-01,0.000000000000000000e+00,4.839508688665823399e-01,7.077159155652971165e-04,-5.888176967524243882e-02,5.279446289462562392e-02
1.933333333333333348e+00,1.685138776526324272e+09,1.099639546131816765e-03,2.419754344332911700e-01,0.000000000000000000e+00,4.839508688665823399e-01,-2.279303139355482594e-02,-5.797888037501638253e-02,5.554461364506183690e-02
1.949999999999999956e+00,1.685138776543325186e+09,8.207204446409827948e-05,2.419754344332911700e-01,0.000000000000000000e+00,4.839508688665823399e-01,-4.701677910560844026e-02,-5.703388087726455474e-02,5.784892506943805496e-02
1.966666666666666563e+00,1.685138776560303688e+09,-9.744715549391468013e-04,2.419754344332911700e-01,0.000000000000000000e+00,4.839508688665823399e-01,-7.173649858364733456e-02,-5.605420876173891620e-02,5.970656855140647756e-02
1.983333333333333393e+00,1.685138776580317020e+09,-2.073151962139896040e-03,2.419754344332911700e-01,0.000000000000000000e+00,4.839508688665823399e-01,-9.671527994959092100e-02,-5.504728258190439566e-02,6.112064494630029682e-02
2.000000000000000000e+00,1.685138776598268747e+09,-3.217432670871049356e-03,2.419754344332911700e-01,0.000000000000000000e+00,4.839508688665823399e-01,-1.217087400568890726e-01,-5.402043588427326432e-02,6.209824315494253538e-02
2.016666666666666607e+00,1.685138776613269091e+09,-4.411061194965397100e-03,2.259505712257887378e-01,0.000000000000000000e+00,4.519011424515774755e-01,-1.464675672372336979e-01,-5.298306397318339189e-02,6.238558797699524094e-02
2.033333333333333215e+00,1.685138776629295349e+09,-5.658046049296111372e-03,2.419754344332911700e-01,0.000000000000000000e+00,4.839508688665823399e-01,-1.707401764481177309e-01,-5.194208185272954775e-02,6.253186015629427774e-02
2.049999999999999822e+00,1.685138776646294594e+09,-6.962629551258799586e-03,2.259505712257887378e-01,0.000000000000000000e+00,4.519011424515774755e-01,-1.942754465827827848e-01,-5.090414613116369530e-02,6.202184317877851988e-02
2.066666666666666430e+00,1.685138776663316250e+09,-8.329256563737409344e-03,2.419754344332911700e-01,0.000000000000000000e+00,4.839508688665823399e-01,-2.168255101302167809e-01,-4.987554151268385610e-02,6.141240396534992235e-02
2.083333333333333481e+00,1.685138776679315805e+09,-9.762539345439550861e-03,2.419754344332911700e-01,0.000000000000000000e+00,4.839508688665823399e-01,-2.381485641148224364e-01,-4.885995518923551967e-02,6.046059881387606805e-02
2.100000000000000089e+00,1.685138776698314190e+09,-1.126721871902675899e-02,2.259505712257887378e-01,0.000000000000000000e+00,4.519011424515774755e-01,-2.580116703245761145e-01,-4.786505768541894634e-02,5.893134965841303335e-02
2.116666666666666696e+00,1.685138776713299990e+09,-1.284812181114615599e-02,2.259505712257887378e-01,0.000000000000000000e+00,4.519011424515774755e-01,-2.761935122704728962e-01,-4.689794773195213318e-02,5.712685735420148375e-02
2.133333333333333304e+00,1.685138776732295036e+09,-1.451011666085330089e-02,2.419754344332911700e-01,0.000000000000000000e+00,4.839508688665823399e-01,-2.924870761229046434e-01,-4.596070052591188365e-02,5.534774945333434393e-02
2.149999999999999911e+00,1.685138776747314215e+09,-1.625806403355296859e-02,2.259505712257887378e-01,0.000000000000000000e+00,4.519011424515774755e-01,-3.067022230520166648e-01,-4.505703615223739106e-02,5.309822421588938912e-02
2.166666666666666519e+00,1.685138776766303539e+09,-1.809676681604250117e-02,2.259505712257887378e-01,0.000000000000000000e+00,4.519011424515774755e-01,-3.186681209647536095e-01,-4.419220589609575145e-02,5.068810146409833545e-02
2.183333333333333126e+00,1.685138776783326149e+09,-2.003091740408634996e-02,2.259505712257887378e-01,0.000000000000000000e+00,4.519011424515774755e-01,-3.282355045823841522e-01,-4.336853291692601559e-02,4.815967959565201073e-02
2.200000000000000178e+00,1.685138776799314737e+09,-2.206504352678897649e-02,2.259505712257887378e-01,0.000000000000000000e+00,4.519011424515774755e-01,-3.352787341355097928e-01,-4.258762388972055224e-02,4.555663451995119878e-02
2.216666666666666785e+00,1.685138776816268206e+09,-2.420345298145527499e-02,2.259505712257887378e-01,0.000000000000000000e+00,4.519011424515774755e-01,-3.396976246611465022e-01,-4.185034975258970086e-02,4.292357615889771938e-02
2.233333333333333393e+00,1.685138776833303213e+09,-2.645017777829067676e-02,2.259505712257887378e-01,0.000000000000000000e+00,4.519011424515774755e-01,-3.414190199560396266e-01,-4.115683400211882226e-02,4.030558626292265328e-02
2.250000000000000000e+00,1.685138776850301504e+09,-2.880891821584003962e-02,2.259505712257887378e-01,0.000000000000000000e+00,4.519011424515774755e-01,-3.403980876551929713e-01,-4.050644880683131749e-02,3.774774246047840620e-02
2.266666666666666607e+00,1.685138776867268801e+09,-3.128298742521046227e-02,2.419754344332911700e-01,0.000000000000000000e+00,4.839508688665823399e-01,-3.366193146434778294e-01,-3.989560576280622162e-02,3.555950141295020211e-02
2.283333333333333215e+00,1.685138776886326313e+09,-3.387525693358049705e-02,2.419754344332911700e-01,0.000000000000000000e+00,4.839508688665823399e-01,-3.300971850458577772e-01,-3.932003032216686150e-02,3.351523012876806568e-02
2.299999999999999822e+00,1.685138776902326107e+09,-3.658810380505449905e-02,2.259505712257887378e-01,0.000000000000000000e+00,4.519011424515774755e-01,-3.208765263489416486e-01,-3.877918351394950974e-02,3.139228406849816494e-02
2.316666666666666430e+00,1.685138776919303417e+09,-3.942335991937152145e-02,2.259505712257887378e-01,0.000000000000000000e+00,4.519011424515774755e-01,-3.090325127502364655e-01,-3.827179001663277846e-02,2.950019154577397315e-02
2.333333333333333481e+00,1.685138776935324907e+09,-4.238226394618992837e-02,2.259505712257887378e-01,0.000000000000000000e+00,4.519011424515774755e-01,-2.946703185753111742e-01,-3.779368634450568087e-02,2.787675875115483773e-02
2.350000000000000089e+00,1.685138776953268766e+09,-4.546541656454086006e-02,1.939008448107838178e-01,0.000000000000000000e+00,3.878016896215676357e-01,-2.779244185077540674e-01,-3.734452942840587458e-02,2.602720894010553121e-02
2.366666666666666696e+00,1.685138776972325087e+09,-4.867273946351986097e-02,1.458262551882752722e-01,0.000000000000000000e+00,2.916525103765505444e-01,-2.589575354001706908e-01,-3.692996325269520125e-02,2.372712142752993192e-02
2.383333333333333304e+00,1.685138776987324715e+09,-5.200343864137871308e-02,8.172680235826429440e-02,0.000000000000000000e+00,1.634536047165285888e-01,-2.379592405325663407e-01,-3.655936733306987957e-02,2.075265153833290646e-02
2.399999999999999911e+00,1.685138777004324198e+09,-5.545597249592400246e-02,3.365221273575574185e-02,0.000000000000000000e+00,6.730442547151148369e-02,-2.151442153111886579e-01,-3.624142393997144967e-02,1.740984143564392600e-02
2.416666666666666519e+00,1.685138777020325422e+09,-5.902802516964256868e-02,1.602486320750845994e-03,0.000000000000000000e+00,3.204972641501691987e-03,-1.907501875093476629e-01,-3.597978974689757664e-02,1.399574555609343733e-02
2.433333333333333126e+00,1.685138777038304090e+09,-6.271648557839111515e-02,-3.044724009425465311e-02,0.000000000000000000e+00,-6.089448018850930622e-02,-1.650355591939452471e-01,-3.577546060210033685e-02,1.053336975649286911e-02
2.450000000000000178e+00,1.685138777055325508e+09,-6.651743251303289528e-02,-4.647210330175770288e-02,0.000000000000000000e+00,-9.294420660351540575e-02,-1.382767474095939475e-01,-3.562687691722334071e-02,7.305638559760014965e-03
2.466666666666666785e+00,1.685138777072303534e+09,-7.042612615930494979e-02,-9.454669292426565175e-02,0.000000000000000000e+00,-1.890933858485313035e-01,-1.107652624587037171e-01,-3.553448312272609877e-02,3.791378842213283251e-03
2.483333333333333393e+00,1.685138777089315891e+09,-7.443700633278362011e-02,-1.105715561317686946e-01,0.000000000000000000e+00,-2.211431122635373892e-01,-8.280455217414191271e-02,-3.549852634706167354e-02,5.324869281170133486e-04
2.500000000000000000e+00,1.685138777107267380e+09,-7.854369767340629860e-02,-1.426212825467741974e-01,0.000000000000000000e+00,-2.852425650935483947e-01,-5.470664388595900679e-02,-3.551698014394643471e-02,-2.737858048877109089e-03
2.516666666666666607e+00,1.685138777126267910e+09,-8.273902198801194596e-02,-1.746710089617797002e-01,0.000000000000000000e+00,-3.493420179235594003e-01,-2.678861879218721875e-02,-3.559005866141582569e-02,-6.022439993973833020e-03
2.533333333333333215e+00,1.685138777140269279e+09,-8.701501787020660128e-02,-1.906958721692821324e-01,0.000000000000000000e+00,-3.813917443385642647e-01,6.310438846703221019e-04,-3.571585268781794081e-02,-9.064393105648578877e-03
2.549999999999999822e+00,1.685138777157268286e+09,-9.136296766501438016e-02,-2.067207353767851752e-01,0.000000000000000000e+00,-4.134414707535703504e-01,2.723621327644917475e-02,-3.589046441949689942e-02,-1.188119007564188839e-02
2.566666666666666430e+00,1.685138777174303532e+09,-9.577343178174443916e-02,-2.227455985842876351e-01,0.000000000000000000e+00,-4.454911971685752703e-01,5.271690221512247143e-02,-3.611032766657124027e-02,-1.449513843472029911e-02
2.583333333333333481e+00,1.685138777192314148e+09,-1.002362902928257832e-01,-2.387704617917906780e-01,0.000000000000000000e+00,-4.775409235835813559e-01,7.677306852577671370e-02,-3.637228639218658549e-02,-1.693313626353851881e-02
2.600000000000000089e+00,1.685138777209314108e+09,-1.047407916895941732e-01,-2.387704617917906780e-01,0.000000000000000000e+00,-4.775409235835813559e-01,9.911837825873015539e-02,-3.667145533214231229e-02,-1.896150204913379933e-02
2.616666666666666696e+00,1.685138777226313591e+09,-1.092756085987435649e-01,-2.387704617917906780e-01,0.000000000000000000e+00,-4.775409235835813559e-01,1.194838863482156899e-01,-3.700133731549110072e-02,-2.061972965651125839e-02
2.633333333333333304e+00,1.685138777242296219e+09,-1.138289001959732205e-01,-2.387704617917906780e-01,0.000000000000000000e+00,-4.775409235835813559e-01,1.376215901797492036e-01,-3.735612220170157760e-02,-2.195075929716814103e-02
2.649999999999999911e+00,1.685138777259318590e+09,-1.183883809868822856e-01,-2.387704617917906780e-01,0.000000000000000000e+00,-4.775409235835813559e-01,1.533078120521446097e-01,-3.773074048398623176e-02,-2.300051851054425375e-02
2.666666666666666519e+00,1.685138777276315928e+09,-1.229413955600101582e-01,-2.387704617917906780e-01,0.000000000000000000e+00,-4.775409235835813559e-01,1.663463675376662398e-01,-3.812090886810461099e-02,-2.381741836399461215e-02
2.683333333333333126e+00,1.685138777294321299e+09,-1.274749988536882928e-01,-2.387704617917906780e-01,0.000000000000000000e+00,-4.775409235835813559e-01,1.765714782736095279e-01,-3.852316712176824531e-02,-2.445180983563399746e-02
2.700000000000000178e+00,1.685138777311293840e+09,-1.319760414176965324e-01,-2.387704617917906780e-01,0.000000000000000000e+00,-4.775409235835813559e-01,1.838503897535166964e-01,-3.893490557727369294e-02,-2.495540591409978193e-02
2.716666666666666785e+00,1.685138777328316927e+09,-1.364312590931767433e-01,-2.387704617917906780e-01,0.000000000000000000e+00,-4.775409235835813559e-01,1.880856572132554583e-01,-3.935438276655711665e-02,-2.538067546779194592e-02
2.733333333333333393e+00,1.685138777343269587e+09,-1.408273664804552405e-01,-2.387704617917906780e-01,0.000000000000000000e+00,-4.775409235835813559e-01,1.892170657073966311e-01,-3.978073277258670215e-02,-2.578021539650225680e-02
2.750000000000000000e+00,1.685138777360294104e+09,-1.451511535149003773e-01,-2.387704617917906780e-01,0.000000000000000000e+00,-4.775409235835813559e-01,1.872231539201673900e-01,-4.021396199286477596e-02,-2.620610797408457274e-02
2.766666666666666607e+00,1.685138777379268169e+09,-1.493895844262548567e-01,-2.387704617917906780e-01,0.000000000000000000e+00,-4.775409235835813559e-01,1.821223151225872250e-01,-4.065493512867379006e-02,-2.670927061609561573e-02
2.783333333333333215e+00,1.685138777395315886e+09,-1.535298983175036047e-01,-2.387704617917906780e-01,0.000000000000000000e+00,-4.775409235835813559e-01,1.739734529377955086e-01,-4.110535033635215330e-02,-2.733880555598383957e-02
2.799999999999999822e+00,1.685138777411316633e+09,-1.575597105657531860e-01,-2.387704617917906780e-01,0.000000000000000000e+00,-4.775409235835813559e-01,1.628761741696160004e-01,-4.156770360302931844e-02,-2.814135708300958411e-02
2.816666666666666430e+00,1.685138777430296421e+09,-1.614671142202190324e-01,-2.387704617917906780e-01,0.000000000000000000e+00,-4.775409235835813559e-01,1.489705058400277171e-01,-4.204524253752109364e-02,-2.916048408104719020e-02
2.833333333333333481e+00,1.685138777446266651e+09,-1.652407805516066253e-01,-2.387704617917906780e-01,0.000000000000000000e+00,-4.775409235835813559e-01,1.324361287201992476e-01,-4.254190989606864565e-02,-3.043605560702615856e-02
2.850000000000000089e+00,1.685138777463301897e+09,-1.688700578932696428e-01,-2.387704617917906780e-01,0.000000000000000000e+00,-4.775409235835813559e-01,1.134911249740095385e-01,-4.306227729084397687e-02,-3.200367715921384471e-02
2.866666666666666696e+00,1.685138777482326031e+09,-1.723450679077783709e-01,-2.387704617917906780e-01,0.000000000000000000e+00,-4.775409235835813559e-01,9.239024300653364552e-02,-4.361146965516419366e-02,-3.389415510798124420e-02
2.883333333333333304e+00,1.685138777499303341e+09,-1.756567984131600646e-01,-2.387704617917906780e-01,0.000000000000000000e+00,-4.775409235835813559e-01,6.942268816379018603e-02,-4.419508116167465001e-02,-3.613300649527079189e-02
2.899999999999999911e+00,1.685138777516325712e+09,-1.787971919112015251e-01,-2.387704617917906780e-01,0.000000000000000000e+00,-4.775409235835813559e-01,4.490945350348379828e-02,-4.481908340690521353e-02,-3.874002105484534303e-02
2.916666666666666519e+00,1.685138777533326387e+09,-1.817592289759457358e-01,-2.547953249992931379e-01,0.000000000000000000e+00,-5.095906499985862759e-01,1.920021038736585001e-02,-4.549194014823309401e-02,-4.199374955704958390e-02
2.933333333333333126e+00,1.685138777548268557e+09,-1.845370056838461226e-01,-2.547953249992931379e-01,0.000000000000000000e+00,-5.095906499985862759e-01,-7.330215928866937528e-03,-4.622224068704752081e-02,-4.563220803370449108e-02
2.950000000000000178e+00,1.685138777566325903e+09,-1.871258042979448422e-01,-2.547953249992931379e-01,0.000000000000000000e+00,-5.095906499985862759e-01,-3.428575527508691267e-02,-4.701640276731711837e-02,-4.965606395800789552e-02
2.966666666666666785e+00,1.685138777584317207e+09,-1.895221564567734773e-01,-2.708201882067962085e-01,0.000000000000000000e+00,-5.416403764135924170e-01,-6.125335065612848989e-02,-4.788301147583597095e-02,-5.432401423053778711e-02
2.983333333333333393e+00,1.685138777599295378e+09,-1.917238981642671869e-01,-3.028699146218016836e-01,0.000000000000000000e+00,-6.057398292436033671e-01,-8.780752525610595327e-02,-4.883486901599268237e-02,-5.988344735501286570e-02
3.000000000000000000e+00,1.685138777619292974e+09,-1.937302159295547777e-01,-3.349196410368071586e-01,0.000000000000000000e+00,-6.698392820736143172e-01,-1.135152137772883901e-01,-4.988659338618377237e-02,-6.630563723172336332e-02
3.016666666666666607e+00,1.685138777637268543e+09,-1.955416834647522029e-01,-3.509445042443096185e-01,0.000000000000000000e+00,-7.018890084886192371e-01,-1.379408095534326306e-01,-5.105005425582821027e-02,-7.329026492537463189e-02
3.033333333333333215e+00,1.685138777651297331e+09,-1.971602884144281476e-01,-3.669693674518120785e-01,0.000000000000000000e+00,-7.339387349036241570e-01,-1.606513753557284041e-01,-5.233431102355402820e-02,-8.079968720444115349e-02
3.049999999999999822e+00,1.685138777669301748e+09,-1.985894486617979238e-01,-3.829942306593151491e-01,0.000000000000000000e+00,-7.659884613186302982e-01,-1.812219627942281419e-01,-5.374774220601541419e-02,-8.878985924620548531e-02
3.066666666666666430e+00,1.685138777686297178e+09,-1.998340178334234996e-01,-3.829942306593151491e-01,0.000000000000000000e+00,-7.659884613186302982e-01,-1.992409827521018917e-01,-5.529572811198448651e-02,-9.694579356376002710e-02
3.083333333333333481e+00,1.685138777703301191e+09,-2.009002797056984868e-01,-3.829942306593151491e-01,0.000000000000000000e+00,-7.659884613186302982e-01,-2.143155674126661914e-01,-5.698060186401705113e-02,-1.052160831129271557e-01
3.100000000000000089e+00,1.685138777719268322e+09,-2.017959313020434298e-01,-3.829942306593151491e-01,0.000000000000000000e+00,-7.659884613186302982e-01,-2.260768631822311636e-01,-5.880379595472347981e-02,-1.135440739195798382e-01
3.116666666666666696e+00,1.685138777738314867e+09,-2.025300545589013290e-01,-3.829942306593151491e-01,0.000000000000000000e+00,-7.659884613186302982e-01,-2.341851932016055238e-01,-6.076575955254990419e-02,-1.218684340527687593e-01
3.133333333333333304e+00,1.685138777754303932e+09,-2.031130765305640684e-01,-3.829942306593151491e-01,0.000000000000000000e+00,-7.659884613186302982e-01,-2.383350281950975535e-01,-6.286588589843421226e-02,-1.301237953544580050e-01
3.149999999999999911e+00,1.685138777771351337e+09,-2.035567181968722383e-01,-3.829942306593151491e-01,0.000000000000000000e+00,-7.659884613186302982e-01,-2.382597051404374278e-01,-6.510245096106660745e-02,-1.382414625551548204e-01
3.166666666666666519e+00,1.685138777786305904e+09,-2.038739320331265925e-01,-3.829942306593151491e-01,0.000000000000000000e+00,-7.659884613186302982e-01,-2.337358346616722204e-01,-6.747256442155190326e-02,-1.461501835166859886e-01
3.183333333333333126e+00,1.685138777803334713e+09,-2.040788285973284821e-01,-3.829942306593151491e-01,0.000000000000000000e+00,-7.659884613186302982e-01,-2.245873401473605091e-01,-6.997213394695013522e-02,-1.537769735047323505e-01
3.200000000000000178e+00,1.685138777822331429e+09,-2.041865924853439318e-01,-3.829942306593151491e-01,0.000000000000000000e+00,-7.659884613186302982e-01,-2.106890743686320455e-01,-7.259584358737292131e-02,-1.610479856147753464e-01
3.216666666666666785e+00,1.685138777838331223e+09,-2.042133880989042138e-01,-3.990190938668175535e-01,0.000000000000000000e+00,-7.980381877336351071e-01,-1.919699627986471702e-01,-7.533936035621424665e-02,-1.681542864570250984e-01
3.233333333333333393e+00,1.685138777854354382e+09,-2.041762557637202824e-01,-3.990190938668175535e-01,0.000000000000000000e+00,-7.980381877336351071e-01,-1.684156268917205157e-01,-7.819708060997981880e-02,-1.747538115492351662e-01
3.250000000000000000e+00,1.685138777872357130e+09,-2.040929988245515359e-01,-4.150439570743206241e-01,0.000000000000000000e+00,-8.300879141486412482e-01,-1.400704452348393303e-01,-8.116217973038514222e-02,-1.810406191339825055e-01
3.266666666666666607e+00,1.685138777888356924e+09,-2.039820624300351937e-01,-4.310688202818230841e-01,0.000000000000000000e+00,-8.621376405636461682e-01,-1.070390156969990431e-01,-8.422884168477505484e-02,-1.869424211125729762e-01
3.283333333333333215e+00,1.685138777905329943e+09,-2.038624048016449974e-01,-4.470936834893260992e-01,0.000000000000000000e+00,-8.941873669786521983e-01,-6.948698742673029005e-02,-8.739007850286079071e-02,-1.923908621430881760e-01
3.299999999999999822e+00,1.685138777923330307e+09,-2.037533618575464722e-01,-4.470936834893260992e-01,0.000000000000000000e+00,-8.941873669786521983e-01,-2.764123773262211828e-02,-9.063559037423378484e-02,-1.970575989587476651e-01
3.316666666666666430e+00,1.685138777939353943e+09,-2.036745061326073192e-01,-4.470936834893260992e-01,0.000000000000000000e+00,-8.941873669786521983e-01,1.821062453286716870e-02,-9.395190353842201858e-02,-2.008893367771670824e-01
3.333333333333333481e+00,1.685138777957328558e+09,-2.036455009997032162e-01,-4.631185466968285591e-01,0.000000000000000000e+00,-9.262370933936571182e-01,6.772144054360035303e-02,-9.732692466153479438e-02,-2.041042674232747822e-01
3.350000000000000089e+00,1.685138777976332188e+09,-2.036859512540928896e-01,-4.470936834893260992e-01,0.000000000000000000e+00,-8.941873669786521983e-01,1.204863722906917289e-01,-1.007455826334544557e-01,-2.061290646379990432e-01
3.366666666666666696e+00,1.685138777993340969e+09,-2.038152511714059201e-01,-4.470936834893260992e-01,0.000000000000000000e+00,-8.941873669786521983e-01,1.760454594752052515e-01,-1.041900337107735941e-01,-2.072020839609152454e-01
3.383333333333333304e+00,1.685138778007363796e+09,-2.040524311901541488e-01,-4.470936834893260992e-01,0.000000000000000000e+00,-8.941873669786521983e-01,2.338868518793232321e-01,-1.076442311555303316e-01,-2.073013337096585584e-01
3.399999999999999911e+00,1.685138778025303602e+09,-2.044160044011746613e-01,-4.470936834893260992e-01,0.000000000000000000e+00,-8.941873669786521983e-01,2.934506990486541733e-01,-1.110918420660496342e-01,-2.064144392064837796e-01
3.416666666666666519e+00,1.685138778042339563e+09,-2.049238140486057680e-01,-4.470936834893260992e-01,0.000000000000000000e+00,-8.941873669786521983e-01,3.541336716158665077e-01,-1.145164123373773046e-01,-2.045392024663804376e-01
3.433333333333333126e+00,1.685138778058349133e+09,-2.055928832595798894e-01,-4.470936834893260992e-01,0.000000000000000000e+00,-8.941873669786521983e-01,4.152940812163919415e-01,-1.179015401653795148e-01,-2.016840680095937921e-01
3.449999999999999734e+00,1.685138778076352596e+09,-2.064392682225029974e-01,-4.470936834893260992e-01,0.000000000000000000e+00,-8.941873669786521983e-01,4.762575587731425752e-01,-1.212310564657585882e-01,-1.978684871211511265e-01
3.466666666666666785e+00,1.685138778093345404e+09,-2.074779160264129674e-01,-4.470936834893260992e-01,0.000000000000000000e+00,-8.941873669786521983e-01,5.363232440398399969e-01,-1.244892104588463805e-01,-1.931231737855547692e-01
3.483333333333333393e+00,1.685138778109304190e+09,-2.087225283563826639e-01,-4.470936834893260992e-01,0.000000000000000000e+00,-8.941873669786521983e-01,5.947704327715099826e-01,-1.276608585665154894e-01,-1.874902465231825799e-01
3.500000000000000000e+00,1.685138778128365517e+09,-2.101854322122217733e-01,-4.470936834893260992e-01,0.000000000000000000e+00,-8.941873669786521983e-01,6.508656218131916305e-01,-1.307316546803689028e-01,-1.810232514372647483e-01
3.516666666666666607e+00,1.685138778144355297e+09,-2.118774587799426845e-01,-4.470936834893260992e-01,0.000000000000000000e+00,-8.941873669786521983e-01,7.038698868371701112e-01,-1.336882397918457421e-01,-1.737870629366571607e-01
3.533333333333333215e+00,1.685138778161352396e+09,-2.138078315377301142e-01,-4.470936834893260992e-01,0.000000000000000000e+00,-8.941873669786521983e-01,7.530465224849084427e-01,-1.365184289261587580e-01,-1.658576598190844298e-01
3.549999999999999822e+00,1.685138778178356171e+09,-2.159840646207602799e-01,-4.470936834893260992e-01,0.000000000000000000e+00,-8.941873669786521983e-01,7.976688703462824215e-01,-1.392113932940088339e-01,-1.573217756702851022e-01
3.566666666666666430e+00,1.685138778196363926e+09,-2.184118724024763092e-01,-4.470936834893260992e-01,0.000000000000000000e+00,-8.941873669786521983e-01,8.370282565941727926e-01,-1.417578355685556180e-01,-1.482764238439908677e-01
3.583333333333333481e+00,1.685138778213354349e+09,-2.210950911742853020e-01,-4.470936834893260992e-01,0.000000000000000000e+00,-8.941873669786521983e-01,8.704419582388869259e-01,-1.441501562106947965e-01,-1.388282986226923310e-01
3.600000000000000089e+00,1.685138778229330063e+09,-2.240356137215760435e-01,-4.631185466968285591e-01,0.000000000000000000e+00,-9.262370933936571182e-01,8.972611149184203105e-01,-1.463848221657151893e-01,-1.293579231973120969e-01
3.616666666666666696e+00,1.685138778246355295e+09,-2.272333375020831325e-01,-4.470936834893260992e-01,0.000000000000000000e+00,-8.941873669786521983e-01,9.168785019343815845e-01,-1.484580336579064408e-01,-1.194549647310365892e-01
3.633333333333333304e+00,1.685138778265357971e+09,-2.306861270335632819e-01,-4.470936834893260992e-01,0.000000000000000000e+00,-8.941873669786521983e-01,9.287360799072139628e-01,-1.503659258693048895e-01,-1.095196992460066715e-01
3.649999999999999911e+00,1.685138778281353474e+09,-2.343897909922749712e-01,-4.470936834893260992e-01,0.000000000000000000e+00,-8.941873669786521983e-01,9.323322369779595276e-01,-1.521091058834367349e-01,-9.968921000706428004e-02
3.666666666666666519e+00,1.685138778296353340e+09,-2.383380744126104844e-01,-4.470936834893260992e-01,0.000000000000000000e+00,-8.941873669786521983e-01,9.272286409373251548e-01,-1.536905071135633571e-01,-9.010555948613767352e-02
3.683333333333333126e+00,1.685138778315352917e+09,-2.425226662623239382e-01,-4.470936834893260992e-01,0.000000000000000000e+00,-8.941873669786521983e-01,9.130566210169530628e-01,-1.551154619800626244e-01,-8.091455566084462814e-02
3.699999999999999734e+00,1.685138778331362963e+09,-2.469332225479872467e-01,-4.470936834893260992e-01,0.000000000000000000e+00,-8.941873669786521983e-01,8.895230023239913963e-01,-1.563917533906645230e-01,-7.226444226966496909e-02
3.716666666666666785e+00,1.685138778349366188e+09,-2.515574049825811120e-01,-4.470936834893260992e-01,0.000000000000000000e+00,-8.941873669786521983e-01,8.564153200195916416e-01,-1.575296438523241804e-01,-6.430452453250089240e-02
3.733333333333333393e+00,1.685138778365365982e+09,-2.563809351224470845e-01,-4.470936834893260992e-01,0.000000000000000000e+00,-8.941873669786521983e-01,8.136063453069708462e-01,-1.585418812431218238e-01,-5.718374277807584949e-02
3.750000000000000000e+00,1.685138778382362843e+09,-2.613876637552388082e-01,-4.470936834893260992e-01,0.000000000000000000e+00,-8.941873669786521983e-01,7.610578610675785560e-01,-1.594436804868046842e-01,-5.104920724142211763e-02
3.766666666666666607e+00,1.685138778400364399e+09,-2.665596551950257798e-01,-4.470936834893260992e-01,0.000000000000000000e+00,-8.941873669786521983e-01,6.988236315177704938e-01,-1.602526805994911041e-01,-4.604470799492829669e-02
3.783333333333333215e+00,1.685138778416339636e+09,-2.718772860164040961e-01,-4.470936834893260992e-01,0.000000000000000000e+00,-8.941873669786521983e-01,6.270515174980698658e-01,-1.609888768155362804e-01,-4.230921454540406690e-02
3.799999999999999822e+00,1.685138778434364557e+09,-2.773193576373980118e-01,-4.470936834893260992e-01,0.000000000000000000e+00,-8.941873669786521983e-01,5.459846968879681350e-01,-1.616745277453545404e-01,-3.997538005894177987e-02
3.816666666666666430e+00,1.685138778450364351e+09,-2.828632220421462007e-01,-4.470936834893260992e-01,0.000000000000000000e+00,-8.941873669786521983e-01,4.559619580899540447e-01,-1.623340377697170822e-01,-3.916806545790210703e-02
3.833333333333333481e+00,1.685138778467362881e+09,-2.884849198199095910e-01,-4.470936834893260992e-01,0.000000000000000000e+00,-8.941873669786521983e-01,3.574170434676781083e-01,-1.629938151302031957e-01,-4.000289876444346887e-02
3.850000000000000089e+00,1.685138778484353065e+09,-2.941593295878138226e-01,-4.470936834893260992e-01,0.000000000000000000e+00,-8.941873669786521983e-01,2.508770289694118305e-01,-1.636821064315016894e-01,-4.258488503847687040e-02
3.866666666666666696e+00,1.685138778503333092e+09,-2.998603277619489305e-01,-4.470936834893260992e-01,0.000000000000000000e+00,-8.941873669786521983e-01,1.369597358279943389e-01,-1.644288085255050380e-01,-4.700708207216237194e-02
3.883333333333333304e+00,1.685138778518306971e+09,-3.055609575459154459e-01,-4.470936834893260992e-01,0.000000000000000000e+00,-8.941873669786521983e-01,1.637018010625886782e-02,-1.652652589969493269e-01,-5.334935665710255348e-02
3.899999999999999911e+00,1.685138778535362482e+09,-3.112336059185522585e-01,-4.470936834893260992e-01,0.000000000000000000e+00,-8.941873669786521983e-01,-1.101039241472583918e-01,-1.662240067130654197e-01,-6.167723573492953776e-02
3.916666666666666519e+00,1.685138778553357601e+09,-3.168501873242025035e-01,-4.470936834893260992e-01,0.000000000000000000e+00,-8.941873669786521983e-01,-2.415975823567728664e-01,-1.673385641326818052e-01,-7.204086607941480314e-02
3.933333333333333126e+00,1.685138778571305990e+09,-3.223823327002903749e-01,-4.470936834893260992e-01,0.000000000000000000e+00,-8.941873669786521983e-01,-3.771748217944048132e-01,-1.686431432908722106e-01,-8.447409534261991759e-02
3.949999999999999734e+00,1.685138778586342812e+09,-3.278015824188316718e-01,-4.470936834893260992e-01,0.000000000000000000e+00,-8.941873669786521983e-01,-5.158358334476209617e-01,-1.701723775810704276e-01,-9.899368633470415069e-02
3.966666666666666785e+00,1.685138778604341745e+09,-3.330795816714717250e-01,-4.470936834893260992e-01,0.000000000000000000e+00,-8.941873669786521983e-01,-6.565248985264986459e-01,-1.719610316451858634e-01,-1.155986753041857995e-01
3.983333333333333393e+00,1.685138778622353792e+09,-3.381882767921749466e-01,-4.470936834893260992e-01,0.000000000000000000e+00,-8.941873669786521983e-01,-7.981390357333193464e-01,-1.740437018513898149e-01,-1.342698837516926036e-01
4.000000000000000000e+00,1.685138778640340567e+09,-3.431001109883405897e-01,-4.470936834893260992e-01,0.000000000000000000e+00,-8.941873669786521983e-01,-9.395372968948753067e-01,-1.764545099868103373e-01,-1.549695919560087620e-01
4.016666666666666607e+00,1.685138778655331612e+09,-3.477882179400827445e-01,-4.470936834893260992e-01,0.000000000000000000e+00,-8.941873669786521983e-01,-1.079550630636416875e+00,-1.792267929164627349e-01,-1.776413809284520806e-01
4.033333333333333215e+00,1.685138778671332359e+09,-3.522266117290840937e-01,-4.470936834893260992e-01,0.000000000000000000e+00,-8.941873669786521983e-01,-1.216992226547064515e+00,-1.823927910586569945e-01,-2.022101479535310109e-01
4.049999999999999822e+00,1.685138778690331459e+09,-3.563903715728189980e-01,-4.631185466968285591e-01,0.000000000000000000e+00,-9.262370933936571182e-01,-1.350668245836080361e+00,-1.859855519614954655e-01,-2.288471669262410191e-01
4.066666666666666430e+00,1.685138778705337048e+09,-3.602558198671531042e-01,-4.791434099043316297e-01,0.000000000000000000e+00,-9.582868198086632594e-01,-1.479388838887473856e+00,-1.900385763768364378e-01,-2.574363466574301484e-01
4.083333333333333037e+00,1.685138778722331285e+09,-3.638006920802576705e-01,-4.951682731118340897e-01,0.000000000000000000e+00,-9.903365462236681793e-01,-1.601979345458615533e+00,-1.945832839932998271e-01,-2.878440993504742251e-01
4.099999999999999645e+00,1.685138778740351677e+09,-3.670042970932268500e-01,-5.111931363193371602e-01,0.000000000000000000e+00,-1.022386272638674320e+00,-1.717291569599311174e+00,-1.996487278980440261e-01,-3.199200672110408261e-01
4.116666666666666252e+00,1.685138778758365393e+09,-3.698476666474924679e-01,-5.272179995268395647e-01,0.000000000000000000e+00,-1.054435999053679129e+00,-1.824215018745982242e+00,-2.052613226006951286e-01,-3.534980228129367408e-01
4.133333333333332860e+00,1.685138778775320768e+09,-3.723136926356404031e-01,-5.432428627343426353e-01,0.000000000000000000e+00,-1.086485725468685271e+00,-1.921687994913480191e+00,-2.114445884709356405e-01,-3.883969379034932778e-01
4.150000000000000355e+00,1.685138778794342518e+09,-3.743872510601092829e-01,-5.752925891493481103e-01,0.000000000000000000e+00,-1.150585178298696221e+00,-2.008708425498181072e+00,-2.182211286999502786e-01,-4.246870812519374372e-01
4.166666666666666963e+00,1.685138778810352087e+09,-3.760553115827898751e-01,-5.913174523568505148e-01,0.000000000000000000e+00,-1.182634904713701030e+00,-2.084344321941517197e+00,-2.256101524685910076e-01,-4.618924203882694979e-01
4.183333333333333570e+00,1.685138778826334238e+09,-3.773070316971223193e-01,-5.913174523568505148e-01,0.000000000000000000e+00,-1.182634904713701030e+00,-2.147743756393071912e+00,-2.336228831643523129e-01,-4.995307098383402478e-01
4.200000000000000178e+00,1.685138778844332218e+09,-3.781338346720531374e-01,-5.913174523568505148e-01,0.000000000000000000e+00,-1.182634904713701030e+00,-2.198144249554791152e+00,-2.422646814062260900e-01,-5.373799399616605577e-01
4.216666666666666785e+00,1.685138778860351324e+09,-3.785294705432760143e-01,-5.913174523568505148e-01,0.000000000000000000e+00,-1.182634904713701030e+00,-2.234881467068372096e+00,-2.515371465584186894e-01,-5.752107901332217388e-01
4.233333333333333393e+00,1.685138778876351595e+09,-3.784900595606046081e-01,-5.913174523568505148e-01,0.000000000000000000e+00,-1.182634904713701030e+00,-2.257397127101185674e+00,-2.614380105384335184e-01,-6.127885024775074907e-01
4.250000000000000000e+00,1.685138778895353317e+09,-3.780141176400123593e-01,-5.752925891493481103e-01,0.000000000000000000e+00,-1.150585178298696221e+00,-2.265246028153190316e+00,-2.719588502038347566e-01,-6.496099731004818523e-01
4.266666666666666607e+00,1.685138778911305666e+09,-3.771025635137666976e-01,-5.592677259418450397e-01,0.000000000000000000e+00,-1.118535451883690079e+00,-2.258102113499135477e+00,-2.830850951632314372e-01,-6.854398921317681470e-01
4.283333333333333215e+00,1.685138778929354191e+09,-3.757587074209733924e-01,-5.111931363193371602e-01,0.000000000000000000e+00,-1.022386272638674320e+00,-2.235763497035526459e+00,-2.947938310863627565e-01,-7.195137667645512547e-01
4.299999999999999822e+00,1.685138778946353912e+09,-3.739882213325388394e-01,-4.150439570743206241e-01,0.000000000000000000e+00,-8.300879141486412482e-01,-2.198156384548371367e+00,-3.070472841337197334e-01,-7.508136527442391683e-01
4.316666666666666430e+00,1.685138778962310314e+09,-3.717990908577931686e-01,-3.188947778293041435e-01,0.000000000000000000e+00,-6.377895556586082870e-01,-2.145337834473407312e+00,-3.197975032944312956e-01,-7.791339771219061294e-01
4.333333333333333037e+00,1.685138778982305288e+09,-3.692015491335151056e-01,-2.067207353767851752e-01,0.000000000000000000e+00,-4.134414707535703504e-01,-2.077497312993549894e+00,-3.329909525427108274e-01,-8.040108286797988946e-01
4.349999999999999645e+00,1.685138778998306751e+09,-3.662079931485551776e-01,-4.647210330175770288e-02,0.000000000000000000e+00,-9.294420660351540575e-02,-1.994957009707992057e+00,-3.465620458515751845e-01,-8.244635539210970476e-01
4.366666666666666252e+00,1.685138779014319658e+09,-3.628328831073873717e-01,5.097924356282063085e-01,8.240815401248789973e-01,1.955033311315334810e-01,-1.898170892005756283e+00,-3.603809932912980241e-01,-8.337842474209999910e-01
4.383333333333332860e+00,1.685138779030305624e+09,-3.590926255823914670e-01,7.453434190077414812e-01,1.006735969148900400e+00,4.839508688665823399e-01,-1.787722488567952128e+00,-3.743062086358980300e-01,-8.372320165690702032e-01
4.400000000000000355e+00,1.685138779048341751e+09,-3.550054413462396807e-01,9.613242849918467448e-01,1.150250163382059876e+00,7.723984066016336136e-01,-1.664321404987298747e+00,-3.882415349878217681e-01,-8.350133088837373707e-01
4.416666666666666963e+00,1.685138779065304518e+09,-3.505912189111543009e-01,1.119161934700370509e+00,1.241577377894070633e+00,9.967464915066702735e-01,-1.528798587205159487e+00,-4.020996702331876560e-01,-8.279824511801180398e-01
4.433333333333333570e+00,1.685138779082305431e+09,-3.458713549297761647e-01,1.281659136169712054e+00,1.342223695927714955e+00,1.221094576411709376e+00,-1.382100361197050375e+00,-4.157988893956779397e-01,-8.159572524347500355e-01
4.450000000000000178e+00,1.685138779098334789e+09,-3.408685827318514994e-01,1.402037984570975837e+00,1.390683034240210558e+00,1.413392934901741116e+00,-1.225281289956814623e+00,-4.292610627905550369e-01,-7.995491341296369070e-01
4.466666666666666785e+00,1.685138779115351915e+09,-3.356067903806816410e-01,1.398472756134512052e+00,1.191254218877248361e+00,1.605691293391775298e+00,-1.059495901207066160e+00,-4.424296279150153888e-01,-7.807309547563857643e-01
4.483333333333333393e+00,1.685138779132352114e+09,-3.301108297323596674e-01,1.421750540690059461e+00,1.077561155913316693e+00,1.765939925466802229e+00,-8.859893512679754002e-01,-4.552599759424428849e-01,-7.589712535719235209e-01
4.500000000000000000e+00,1.685138779150351524e+09,-3.244063180681959757e-01,1.523308794827330725e+00,1.120429032112832068e+00,1.926188557541829161e+00,-7.060871020211569871e-01,-4.676917922790796434e-01,-7.329190756885172187e-01
4.516666666666666607e+00,1.685138779167351484e+09,-3.185194339456179358e-01,1.695874622949744337e+00,1.273262329867625331e+00,2.118486916031863121e+00,-5.211836987843927460e-01,-4.796436301621993525e-01,-7.013890557359749867e-01
4.533333333333333215e+00,1.685138779185352325e+09,-3.124767089743649695e-01,1.824275890079027906e+00,1.401865958466171014e+00,2.246685821691885465e+00,-3.327307470483175655e-01,-4.910305585920543003e-01,-6.651430415889415526e-01
4.549999999999999822e+00,1.685138779199362516e+09,-3.063048172723776830e-01,1.850916541601778986e+00,1.358998082266655416e+00,2.342835000936902556e+00,-1.422241953023358763e-01,-5.017884006236194017e-01,-6.259069937857191235e-01
4.566666666666666430e+00,1.685138779217303991e+09,-3.000303643888488359e-01,1.739816848225074430e+00,1.008599789853227069e+00,2.471033906596921792e+00,4.880896051022911436e-02,-5.118866873779148730e-01,-5.859982768858352786e-01
4.583333333333333037e+00,1.685138779234366655e+09,-2.936796774999624882e-01,1.740911171549427428e+00,8.184900780118988806e-01,2.663332265086955974e+00,2.388244281174371486e-01,-5.212989448827554106e-01,-5.435904260532137267e-01
4.599999999999999645e+00,1.685138779250341177e+09,-2.872785986856540297e-01,1.735117347967185530e+00,6.787035251873927422e-01,2.791531170746978319e+00,4.262746967329690273e-01,-5.299851717884068725e-01,-4.988809984025597277e-01
4.616666666666666252e+00,1.685138779267362833e+09,-2.808522830830484929e-01,1.459865038203500109e+00,0.000000000000000000e+00,2.919730076407000219e+00,6.096233077939094969e-01,-5.379451106397253879e-01,-4.564295871179510633e-01
4.633333333333332860e+00,1.685138779286310434e+09,-2.744250036840180651e-01,1.523964491033511059e+00,0.000000000000000000e+00,3.047928982067022119e+00,7.873591812741422835e-01,-5.451699869638035878e-01,-4.106826495887453410e-01
4.650000000000000355e+00,1.685138779301362276e+09,-2.680199645006545728e-01,1.556014217448515868e+00,0.000000000000000000e+00,3.112028434897031737e+00,9.580108579884183406e-01,-5.516107356999572220e-01,-3.623414829286427663e-01
4.666666666666666963e+00,1.685138779318341732e+09,-2.616591237635225164e-01,1.604088807071024414e+00,0.000000000000000000e+00,3.208177614142048828e+00,1.120160517449293680e+00,-5.572234389529898690e-01,-3.113246242669381880e-01
4.683333333333333570e+00,1.685138779336341619e+09,-2.553630287437390622e-01,1.652163396693532960e+00,0.000000000000000000e+00,3.304326793387065919e+00,1.272457631396624489e+00,-5.619652322626249585e-01,-2.578391471558004744e-01
4.700000000000000178e+00,1.685138779354341269e+09,-2.491506637016770442e-01,1.716262849523544132e+00,0.000000000000000000e+00,3.432525699047088263e+00,1.413632115099299646e+00,-5.657946358559876598e-01,-2.018448274853903435e-01
4.716666666666666785e+00,1.685138779369354248e+09,-2.430393123629666086e-01,1.748312575938548941e+00,0.000000000000000000e+00,3.496625151877097881e+00,1.542506841926872596e+00,-5.686763077857708293e-01,-1.441161652578502039e-01
4.733333333333333393e+00,1.685138779388329506e+09,-2.370444362072613997e-01,1.780362302353555082e+00,0.000000000000000000e+00,3.560724604707110164e+00,1.658009391489458695e+00,-5.705834288627443796e-01,-8.490284928349306481e-02
4.750000000000000000e+00,1.685138779405329704e+09,-2.311795697277437001e-01,1.828436891976062295e+00,0.000000000000000000e+00,3.656873783952124590e+00,1.759182907813182428e+00,-5.714912256900296361e-01,-2.420138912638704343e-02
4.766666666666666607e+00,1.685138779421362877e+09,-2.254562336805481793e-01,1.844461755183566032e+00,0.000000000000000000e+00,3.688923510367132064e+00,1.845195951510356869e+00,-5.713816221040459720e-01,3.718330239919470648e-02
4.783333333333333215e+00,1.685138779437330961e+09,-2.198838671942245082e-01,1.860486618391068436e+00,0.000000000000000000e+00,3.720973236782136873e+00,1.915351238656849420e+00,-5.702455155648237239e-01,9.897782681077108013e-02
4.799999999999999822e+00,1.685138779455352545e+09,-2.144697794512535338e-01,1.892536344806073467e+00,0.000000000000000000e+00,3.785072689612146934e+00,1.969093169029158652e+00,-5.680761857895109124e-01,1.611689889327121428e-01
4.816666666666666430e+00,1.685138779472353697e+09,-2.092191214876777672e-01,1.924586071221079386e+00,0.000000000000000000e+00,3.849172142442158773e+00,2.006014057393038730e+00,-5.648694002641153622e-01,2.234722055508852057e-01
4.833333333333333037e+00,1.685138779491353989e+09,-2.041348784844922160e-01,1.956635797636084417e+00,0.000000000000000000e+00,3.913271595272168835e+00,2.025858993573472766e+00,-5.606256654297587794e-01,2.856033839033546018e-01
4.849999999999999645e+00,1.685138779506331682e+09,-1.992178827469454072e-01,2.004710387258592963e+00,0.000000000000000000e+00,4.009420774517185926e+00,2.028529269961319770e+00,-5.553479836393364621e-01,3.475463630665975301e-01
4.866666666666666252e+00,1.685138779523353100e+09,-1.944668473868032266e-01,2.068809840088603913e+00,0.000000000000000000e+00,4.137619680177207826e+00,2.014084328802669965e+00,-5.490396161521217122e-01,4.092862317275706707e-01
4.883333333333332860e+00,1.685138779541362524e+09,-1.898784205394599967e-01,2.100859566503610054e+00,0.000000000000000000e+00,4.201719133007220108e+00,1.982742195941426200e+00,-5.417106806621818649e-01,4.700173256117147758e-01
4.900000000000000355e+00,1.685138779557362080e+09,-1.854472597640583753e-01,2.132909292918614863e+00,0.000000000000000000e+00,4.265818585837229726e+00,1.934878382504899852e+00,-5.333801327327535313e-01,5.294832389393450134e-01
4.916666666666666963e+00,1.685138779574353218e+09,-1.811661260921254013e-01,2.132909292918614863e+00,0.000000000000000000e+00,4.265818585837229726e+00,1.871023251189719128e+00,-5.240755194120844118e-01,5.869108346871481086e-01
4.933333333333333570e+00,1.685138779589351416e+09,-1.770259970101729363e-01,2.132909292918614863e+00,0.000000000000000000e+00,4.265818585837229726e+00,1.791857859169880829e+00,-5.138326457872449682e-01,6.420807469304502524e-01
4.950000000000000178e+00,1.685138779609331608e+09,-1.730161974859015794e-01,2.132909292918614863e+00,0.000000000000000000e+00,4.265818585837229726e+00,1.698208305055862066e+00,-5.026908286439670803e-01,6.947908897534136319e-01
4.966666666666666785e+00,1.685138779624350309e+09,-1.691245479775619343e-01,2.132909292918614863e+00,0.000000000000000000e+00,4.265818585837229726e+00,1.591038622624578514e+00,-4.906925918015460075e-01,7.448584515033791487e-01
4.983333333333333393e+00,1.685138779642369032e+09,-1.653375282032679416e-01,2.132909292918614863e+00,0.000000000000000000e+00,4.265818585837229726e+00,1.471442279058897906e+00,-4.778833296598851144e-01,7.921217155613434757e-01
5.000000000000000000e+00,1.685138779660340309e+09,-1.616404552930914285e-01,2.132909292918614863e+00,0.000000000000000000e+00,4.265818585837229726e+00,1.340632350023696073e+00,-4.643109420088749051e-01,8.364416886260384043e-01
5.016666666666666607e+00,1.685138779677305698e+09,-1.569694675805887174e-01,2.132909292918614863e+00,0.000000000000000000e+00,4.265818585837229726e+00,1.199930457909759607e+00,-4.500254434524588176e-01,8.777035192500952654e-01
5.033333333333333215e+00,1.685138779694332123e+09,-1.524138049248766613e-01,2.132909292918614863e+00,0.000000000000000000e+00,4.265818585837229726e+00,1.043784412493628855e+00,-4.350795137933146095e-01,9.157024846811551155e-01
5.049999999999999822e+00,1.685138779713331938e+09,-1.479548458075335415e-01,2.132909292918614863e+00,0.000000000000000000e+00,4.265818585837229726e+00,8.827959405741745424e-01,-4.195277522877886023e-01,9.504124770671755762e-01
5.066666666666666430e+00,1.685138779728331089e+09,-1.435741133427862748e-01,2.132909292918614863e+00,0.000000000000000000e+00,4.265818585837229726e+00,7.186101322698240645e-01,-4.034249624963969216e-01,9.818350110289245647e-01
5.083333333333333037e+00,1.685138779744361401e+09,-1.392534920442746460e-01,2.132909292918614863e+00,0.000000000000000000e+00,4.265818585837229726e+00,5.528821745500597240e-01,-3.868256943299261952e-01,1.009998933986931746e+00
5.099999999999999645e+00,1.685138779764361620e+09,-1.349754394692939674e-01,2.132909292918614863e+00,0.000000000000000000e+00,4.265818585837229726e+00,3.872616517448407292e-01,-3.697837930518303451e-01,1.034959881786560176e+00
5.116666666666666252e+00,1.685138779782340288e+09,-1.307231908724268421e-01,2.132909292918614863e+00,0.000000000000000000e+00,4.265818585837229726e+00,2.233770004930865083e-01,-3.523519594254435061e-01,1.056799486383701803e+00
5.133333333333332860e+00,1.685138779798362732e+09,-1.264809550627626900e-01,2.116884429711112681e+00,0.000000000000000000e+00,4.233768859422225361e+00,6.282026841178944832e-02,-3.345835384242390464e-01,1.075359477017879151e+00
5.150000000000000355e+00,1.685138779815362215e+09,-1.222340997361085341e-01,2.116884429711112681e+00,0.000000000000000000e+00,4.233768859422225361e+00,-9.286767767841497268e-02,-3.165298514577633560e-01,1.091039402585281870e+00
5.166666666666666963e+00,1.685138779831340790e+09,-1.179693246450182198e-01,2.100859566503610054e+00,0.000000000000000000e+00,4.201719133007220108e+00,-2.422113530000629122e-01,-2.982398389026966190e-01,1.103726860255274334e+00
5.183333333333333570e+00,1.685138779847339869e+09,-1.136748210744476378e-01,2.084834703296106539e+00,0.000000000000000000e+00,4.169669406592213079e+00,-3.838141307994256124e-01,-2.797618927262082167e-01,1.113599256953730743e+00
5.200000000000000178e+00,1.685138779866304159e+09,-1.093404162084440634e-01,2.052784976881101286e+00,0.000000000000000000e+00,4.105569953762202573e+00,-5.163708658595134171e-01,-2.611435057116964220e-01,1.120587771789578690e+00
5.216666666666666785e+00,1.685138779881345987e+09,-1.049577011025722983e-01,2.004710387258592963e+00,0.000000000000000000e+00,4.009420774517185926e+00,-6.386795471110030542e-01,-2.424331421294661504e-01,1.124644588876474893e+00
5.233333333333333393e+00,1.685138779898362875e+09,-1.005201411167217784e-01,1.940610934428582013e+00,0.000000000000000000e+00,3.881221868857164026e+00,-7.496518708124191299e-01,-2.236799062598515131e-01,1.125740670733796245e+00
5.250000000000000000e+00,1.685138779918361664e+09,-9.602316781235581411e-02,1.828436891976062295e+00,0.000000000000000000e+00,3.656873783952124590e+00,-8.483226367192869821e-01,-2.049376757407906369e-01,1.123333677802348385e+00
5.266666666666666607e+00,1.685138779933362246e+09,-9.146425147598560845e-02,1.365463464131721150e+00,-6.695490443686388238e-01,3.400475972632080790e+00,-9.338578815404049438e-01,-1.863109896070810900e-01,1.111900418045160821e+00
5.283333333333333215e+00,1.685138779950362682e+09,-8.684295359532898106e-02,1.211100854250974468e+00,-7.539261792250951943e-01,3.176127887727044019e+00,-1.005561676672027227e+00,-1.679045030397764149e-01,1.096919584437505257e+00
5.299999999999999822e+00,1.685138779967365742e+09,-8.216095878498066996e-02,1.069190664176778327e+00,-7.813487480534434537e-01,2.919730076407000219e+00,-1.062881530578831502e+00,-1.497731456254711435e-01,1.078893379249832529e+00
5.316666666666666430e+00,1.685138779985341072e+09,-7.742208583303032687e-02,9.420464727024621121e-01,-7.792393196820319723e-01,2.663332265086955974e+00,-1.105412350122671139e+00,-1.319631707730234416e-01,1.058360639773714640e+00
5.333333333333333037e+00,1.685138780002330780e+09,-7.263227771752535367e-02,8.545391573650087391e-01,-7.940053182819117872e-01,2.503083633011929265e+00,-1.132898929487028417e+00,-1.145084552670708744e-01,1.036266594732395019e+00
5.349999999999999645e+00,1.685138780020364285e+09,-6.779957062054366157e-02,7.755886117622188269e-01,-7.275583245824525092e-01,2.278735548106890274e+00,-1.145236949964532069e+00,-9.743153102691229361e-02,1.013028864855531230e+00
5.366666666666666252e+00,1.685138780034363747e+09,-6.293404214643795458e-02,6.414697218317976235e-01,-8.034977459532631761e-01,2.086437189616858312e+00,-1.142472488622670923e+00,-8.075683541707461000e-02,9.880041231325122908e-01
5.383333333333332860e+00,1.685138780052364349e+09,-5.804773912811706654e-02,5.730663180860647854e-01,-7.159564685396897499e-01,1.862089104711819321e+00,-1.124800048591945600e+00,-6.450276939216210981e-02,9.625544949325017807e-01
5.400000000000000355e+00,1.685138780069340944e+09,-5.315458557956757174e-02,5.259613484763628888e-01,-6.178680492690593606e-01,1.669790746221785138e+00,-1.092559138286753662e+00,-4.867140175319203954e-02,9.372798307966918596e-01
5.416666666666666963e+00,1.685138780086361885e+09,-4.827027152276868599e-02,4.116778776524331884e-01,-6.220869060118822125e-01,1.445442661316748589e+00,-1.046229441127515036e+00,-3.326717337638925021e-02,9.112997430286376987e-01
5.433333333333333570e+00,1.685138780105361700e+09,-4.341212358136157384e-02,5.945224249983522835e-01,0.000000000000000000e+00,1.189044849996704567e+00,-9.864246311432347536e-01,-1.825884322939203344e-02,8.897597094458924438e-01
5.450000000000000178e+00,1.685138780121305227e+09,-3.859895839051321470e-02,1.786879288398315613e-01,-6.073209074120022866e-01,9.646967650916654646e-01,-9.138849030598287237e-01,-3.653954566581667923e-03,8.629015378794154811e-01
5.466666666666666785e+00,1.685138780138341427e+09,-3.385092002111565745e-02,3.541494768858107212e-01,0.000000000000000000e+00,7.082989537716214423e-01,-8.294682979925268596e-01,1.054290206769201502e-02,8.407827008933631552e-01
5.483333333333333393e+00,1.685138780155351400e+09,-2.918930275554681639e-02,2.419754344332911700e-01,0.000000000000000000e+00,4.839508688665823399e-01,-7.341409175364167483e-01,2.437183961430505752e-02,8.187510052950313089e-01
5.500000000000000000e+00,1.685138780171331882e+09,-2.463636068055083395e-02,1.618511183957777322e-01,0.000000000000000000e+00,3.237022367915554644e-01,-6.289661297737174639e-01,3.784008524672261009e-02,7.974975094729814806e-01
5.516666666666666607e+00,1.685138780191353798e+09,-2.021510567933260810e-02,8.172680235826429440e-02,0.000000000000000000e+00,1.634536047165285888e-01,-5.150928803858234595e-01,5.096170291173458822e-02,7.771531238408435627e-01
5.533333333333333215e+00,1.685138780208354950e+09,-1.594909550870221571e-02,1.602486320750845994e-03,0.000000000000000000e+00,3.204972641501691987e-03,-3.937432305764113072e-01,6.375275152324319516e-02,7.578263961584073005e-01
5.549999999999999822e+00,1.685138780223353624e+09,-1.186221373725489421e-02,-4.647210330175770288e-02,0.000000000000000000e+00,-9.294420660351540575e-02,-2.661992507985883050e-01,7.623533377580336834e-02,7.401326246708413992e-01
5.566666666666666430e+00,1.685138780239363909e+09,-7.978443396293159739e-03,-9.454669292426565175e-02,0.000000000000000000e+00,-1.890933858485313035e-01,-1.337894052617092655e-01,8.843711213707841634e-02,7.241252446731334391e-01
5.583333333333333037e+00,1.685138780257348299e+09,-4.321636255948014746e-03,-1.265964193392711545e-01,0.000000000000000000e+00,-2.531928386785423091e-01,2.125433184014591248e-03,1.003886576801368835e-01,7.100991826941540630e-01
5.599999999999999645e+00,1.685138780274340630e+09,-9.152796841427946785e-04,-1.586461457542766296e-01,0.000000000000000000e+00,-3.172922915085532591e-01,1.401661949682018182e-01,1.121230123449164923e-01,6.980568288496065144e-01
5.616666666666666252e+00,1.685138780291362762e+09,2.217736924689207682e-03,-1.746710089617797002e-01,0.000000000000000000e+00,-3.493420179235594003e-01,2.789499079255707836e-01,1.236752799217893523e-01,6.882425429221301627e-01
5.633333333333332860e+00,1.685138780309331894e+09,5.055354151131088297e-03,-1.746710089617797002e-01,0.000000000000000000e+00,-3.493420179235594003e-01,4.171039286899800302e-01,1.350844135228898291e-01,6.808739579831664113e-01
5.650000000000000355e+00,1.685138780325355768e+09,7.576570985805802794e-03,-1.906958721692821324e-01,0.000000000000000000e+00,-3.813917443385642647e-01,5.532799675368026415e-01,1.463883504679673320e-01,6.756130892942142641e-01
5.666666666666666963e+00,1.685138780343355894e+09,9.761667720716685898e-03,-2.067207353767851752e-01,0.000000000000000000e+00,-4.134414707535703504e-01,6.861677654067330767e-01,1.576214740688841043e-01,6.723707495271299406e-01
5.683333333333333570e+00,1.685138780360350132e+09,1.159242135549147512e-02,-2.227455985842876351e-01,0.000000000000000000e+00,-4.454911971685752703e-01,8.145082858057808295e-01,1.688165196018828473e-01,6.710384154478227225e-01
5.700000000000000178e+00,1.685138780376335859e+09,1.305231162884817886e-02,-2.387704617917906780e-01,0.000000000000000000e+00,-4.775409235835813559e-01,9.371062896071470361e-01,1.800042635248967071e-01,6.714896019883981326e-01
5.716666666666666785e+00,1.685138780392331362e+09,1.412671585286490866e-02,-2.387704617917906780e-01,0.000000000000000000e+00,-4.775409235835813559e-01,1.052842167423079456e+00,1.912154504026695179e-01,6.738462768711468431e-01
5.733333333333333393e+00,1.685138780411351442e+09,1.480309080996452739e-02,-2.387704617917906780e-01,0.000000000000000000e+00,-4.775409235835813559e-01,1.160682912102700914e+00,2.024804847075086789e-01,6.779464500714895703e-01
5.750000000000000000e+00,1.685138780426352024e+09,1.507114006925830765e-02,-2.547953249992931379e-01,0.000000000000000000e+00,-5.095906499985862759e-01,1.259692122962899008e+00,2.138247507538898473e-01,6.833504639911684997e-01
5.766666666666666607e+00,1.685138780446303368e+09,1.492296518931776964e-02,-2.547953249992931379e-01,0.000000000000000000e+00,-5.095906499985862759e-01,1.349038943482359976e+00,2.252706779212649280e-01,6.901419304651779107e-01
5.783333333333333215e+00,1.685138780461330175e+09,1.435319939764531302e-02,-2.547953249992931379e-01,0.000000000000000000e+00,-5.095906499985862759e-01,1.428005845281346886e+00,2.368397651036807106e-01,6.981263519541296425e-01
5.799999999999999822e+00,1.685138780478305340e+09,1.335912247218166982e-02,-2.547953249992931379e-01,0.000000000000000000e+00,-5.095906499985862759e-01,1.495995183158753683e+00,2.485502138865713084e-01,7.071025674738966593e-01
5.816666666666666430e+00,1.685138780496363878e+09,1.194075569606182358e-02,-2.547953249992931379e-01,0.000000000000000000e+00,-5.095906499985862759e-01,1.552534458643165971e+00,2.604168356950329333e-01,7.168649312261662354e-01
5.833333333333333037e+00,1.685138780514340639e+09,1.010093591231064208e-02,-2.547953249992931379e-01,0.000000000000000000e+00,-5.095906499985862759e-01,1.597280242808302386e+00,2.724509954935155354e-01,7.272055200578337875e-01
5.849999999999999645e+00,1.685138780531362772e+09,7.845367869105397685e-03,-2.547953249992931379e-01,0.000000000000000000e+00,-5.095906499985862759e-01,1.630020722870762828e+00,2.846605923233462843e-01,7.379163465258608001e-01
5.866666666666666252e+00,1.685138780548306942e+09,5.182654217268350960e-03,-2.547953249992931379e-01,0.000000000000000000e+00,-5.095906499985862759e-01,1.650676851191702710e+00,2.970500765776984964e-01,7.487915543747154512e-01
5.883333333333332860e+00,1.685138780564362288e+09,2.124302698477610607e-03,-2.547953249992931379e-01,0.000000000000000000e+00,-5.095906499985862759e-01,1.659302089601328634e+00,3.096205035292967089e-01,7.596295734998178562e-01
5.900000000000000355e+00,1.685138780581343174e+09,-1.315289756115611830e-03,-2.547953249992931379e-01,0.000000000000000000e+00,-5.095906499985862759e-01,1.656080756312996893e+00,3.223696222482093643e-01,7.702352119694668708e-01
5.916666666666666963e+00,1.685138780598362684e+09,-5.118876113056551602e-03,-2.547953249992931379e-01,0.000000000000000000e+00,-5.095906499985862759e-01,1.641324996947637116e+00,3.352919986793592710e-01,7.804216634041226675e-01
5.933333333333333570e+00,1.685138780616357327e+09,-9.266421420132453513e-03,-2.708201882067962085e-01,0.000000000000000000e+00,-5.416403764135924170e-01,1.615470415206559984e+00,3.483769579334989319e-01,7.897475412666457029e-01
5.950000000000000178e+00,1.685138780631353855e+09,-1.373518781126637639e-02,-2.708201882067962085e-01,0.000000000000000000e+00,-5.416403764135924170e-01,1.579070412370582321e+00,3.616110328038893429e-01,7.983176367989850419e-01
5.966666666666666785e+00,1.685138780648356915e+09,-1.849984187363935828e-02,-2.868450514142986130e-01,0.000000000000000000e+00,-5.736901028285972259e-01,1.532789297929527894e+00,3.749781531612259022e-01,8.057162538835689336e-01
5.983333333333333393e+00,1.685138780665354252e+09,-2.353258373674391168e-02,-3.028699146218016836e-01,0.000000000000000000e+00,-6.057398292436033671e-01,1.477394246126408017e+00,3.884576973483243600e-01,8.118121152215472813e-01
6.000000000000000000e+00,1.685138780687306404e+09,-2.880329706631319653e-02,-3.829942306593151491e-01,0.000000000000000000e+00,-7.659884613186302982e-01,1.413746184910587900e+00,4.020181393484949517e-01,8.154308724588978929e-01
6.016666666666666607e+00,1.685138780700341702e+09,-3.427971897512093608e-02,-4.470936834893260992e-01,0.000000000000000000e+00,-8.941873669786521983e-01,1.342789714616588359e+00,4.156197401532418789e-01,8.167575388396053349e-01
6.033333333333333215e+00,1.685138780718340635e+09,-3.992762869890730676e-02,-5.432428627343426353e-01,0.000000000000000000e+00,-1.086485725468685271e+00,1.265542163511097273e+00,4.292193191815954489e-01,8.151962814908643162e-01
6.049999999999999822e+00,1.685138780736332417e+09,-4.571105373042171072e-02,-6.554169051868615758e-01,0.000000000000000000e+00,-1.310833810373723152e+00,1.183081896083097551e+00,4.427662099077830926e-01,8.104438072796139592e-01
6.066666666666666430e+00,1.685138780752356291e+09,-5.159249195909994951e-02,-7.836158108468835870e-01,0.000000000000000000e+00,-1.567231621693767174e+00,1.096535997502003923e+00,4.562048884850460340e-01,8.022204651466030567e-01
6.083333333333333037e+00,1.685138780769352198e+09,-5.753314822932437123e-02,-1.219047613613858383e+00,-5.503663413838945084e-01,-1.887728885843822146e+00,1.007067463962026732e+00,4.694351476758498731e-01,7.854572034616019716e-01
6.099999999999999645e+00,1.685138780786340714e+09,-6.349318360770928038e-02,-1.120137938204440964e+00,0.000000000000000000e+00,-2.240275876408881928e+00,9.158620336049695387e-01,4.823893986361428854e-01,7.690983540913177707e-01
6.116666666666666252e+00,1.685138780801362276e+09,-6.943197554033656016e-02,-1.248336843864462864e+00,0.000000000000000000e+00,-2.496673687728925728e+00,8.241147963165411650e-01,4.950428825283579304e-01,7.493745027399707492e-01
6.133333333333332860e+00,1.685138780819352150e+09,-7.530838698530605002e-02,-1.728474943274911579e+00,-5.756794818408311754e-01,-2.881270404708991872e+00,7.330167228909475474e-01,5.072914604076849132e-01,7.205349545209109863e-01
6.150000000000000355e+00,1.685138780835352898e+09,-8.108104252507400411e-02,-1.872698712142436106e+00,-5.756794818408311754e-01,-3.169717942444040926e+00,6.437412548287312353e-01,5.190311114517036639e-01,6.883126791883305007e-01
6.166666666666666963e+00,1.685138780852361679e+09,-8.670860939760673125e-02,-2.045518820273033445e+00,-6.969716131969871942e-01,-3.394066027349079917e+00,5.574310953699994631e-01,5.302023839284015772e-01,6.523399446299152915e-01
6.183333333333333570e+00,1.685138780870357752e+09,-9.215008133579784266e-02,-2.182597702338654688e+00,-8.108807452532029725e-01,-3.554314659424106626e+00,4.751853402734582676e-01,5.407487861728510481e-01,6.133366696843792765e-01
6.200000000000000178e+00,1.685138780887332201e+09,-9.736506307143412420e-02,-2.211160079525607891e+00,-7.718563203820921759e-01,-3.650463838669123717e+00,3.980470833528433339e-01,5.506359215623473080e-01,5.732309843586702591e-01
6.216666666666666785e+00,1.685138780904364109e+09,-1.023140533434725163e-01,-2.213150451648000949e+00,-7.117376117968670091e-01,-3.714563291499134667e+00,3.269916269132180364e-01,5.598500791540618193e-01,5.325808463547093696e-01
6.233333333333333393e+00,1.685138780921361685e+09,-1.069587242507142183e-01,-2.274408968591830060e+00,-7.381054664395094722e-01,-3.810712470744150870e+00,2.629154210360595822e-01,5.683750377686002109e-01,4.905309952809081553e-01
6.250000000000000000e+00,1.685138780938361883e+09,-1.112621948061384702e-01,-2.331567685041854965e+00,-8.203731729245543614e-01,-3.842762197159155679e+00,2.066258482089773363e-01,5.761893039439981434e-01,4.473010318249622252e-01
6.266666666666666607e+00,1.685138780954361677e+09,-1.151892965841120192e-01,-2.339886342278481912e+00,-7.729110345677977501e-01,-3.906861649989166629e+00,1.588319611572803769e-01,5.832812913799710897e-01,4.038581380369692386e-01
6.283333333333333215e+00,1.685138780972352982e+09,-1.187068294022041448e-01,-2.346503871987532186e+00,-6.579471883258760645e-01,-4.035060555649188530e+00,1.201362719958964931e-01,5.896489722559105084e-01,3.603843304945025250e-01
6.299999999999999822e+00,1.685138780989332438e+09,-1.217838050460041399e-01,-2.065604867447103032e+00,0.000000000000000000e+00,-4.131209734894206065e+00,9.102768008150130541e-02,5.953328717142268856e-01,3.217908112467595116e-01
6.316666666666666430e+00,1.685138781005351067e+09,-1.243916771277268074e-01,-2.129704320277113982e+00,0.000000000000000000e+00,-4.259408640554227965e+00,7.187561431115030430e-02,6.003673776665938711e-01,2.824591601949598130e-01
6.333333333333333037e+00,1.685138781022361517e+09,-1.265045552668468132e-01,-2.209828636314627115e+00,0.000000000000000000e+00,-4.419657272629254230e+00,6.292545320444387080e-02,6.047394855974707051e-01,2.423053325455798990e-01
6.349999999999999645e+00,1.685138781042340994e+09,-1.280994018928272582e-01,-2.709598004409649707e+00,-6.790414720399902127e-01,-4.740154536779309424e+00,6.429527304392990139e-02,6.083790699399430624e-01,1.945773693470122523e-01
6.366666666666666252e+00,1.685138781058346272e+09,-1.291562100953361492e-01,-2.854434224542926390e+00,-5.841171953264767680e-01,-5.124751253759375125e+00,7.597396076536511167e-02,6.112113886543792951e-01,1.454373795696166649e-01
6.383333333333332860e+00,1.685138781076355934e+09,-1.296581610852234889e-01,-2.738649122162217786e+00,0.000000000000000000e+00,-5.477298244324435572e+00,9.782071432149508361e-02,6.132505045597160809e-01,9.938445686693449244e-02
6.400000000000000355e+00,1.685138781091305733e+09,-1.295917599789260244e-01,-2.866848027822239686e+00,0.000000000000000000e+00,-5.733696055644479372e+00,1.295659390304062519e-01,6.145151103754636912e-01,5.249848290465631423e-02
6.416666666666666963e+00,1.685138781111339808e+09,-1.289469487787326951e-01,-2.979022070274758516e+00,0.000000000000000000e+00,-5.958044140549517032e+00,1.708135341055576628e-01,6.149949628096563758e-01,5.215154867643574665e-03
6.433333333333333570e+00,1.685138781127306461e+09,-1.277171955902259570e-01,-3.011071796689764657e+00,0.000000000000000000e+00,-6.022143593379529314e+00,2.210445492923787114e-01,6.146958017821041453e-01,-4.098613822809396567e-02
6.450000000000000178e+00,1.685138781142330408e+09,-1.258995592949646025e-01,-3.027096659897267283e+00,0.000000000000000000e+00,-6.054193319794534567e+00,2.796221774503089286e-01,6.136388779577393038e-01,-8.572045577784515036e-02
6.466666666666666785e+00,1.685138781161330223e+09,-1.234947290796670205e-01,-3.011071796689764657e+00,0.000000000000000000e+00,-6.022143593379529314e+00,3.457980351602756297e-01,6.118539145050619910e-01,-1.283567216839926750e-01
6.483333333333333393e+00,1.685138781177361012e+09,-1.205070384114608623e-01,-2.962997207067256333e+00,0.000000000000000000e+00,-5.925994414134512667e+00,4.187196701451683101e-01,6.093809476218532417e-01,-1.682883804161520169e-01
6.500000000000000000e+00,1.685138781195362806e+09,-1.169444532406290482e-01,-2.882872891029742757e+00,0.000000000000000000e+00,-5.765745782059485514e+00,4.974392215980605325e-01,6.062699080679735397e-01,-2.049345686861337446e-01
6.516666666666666607e+00,1.685138781211353779e+09,-1.128185344063038220e-01,-2.722624258954714715e+00,0.000000000000000000e+00,-5.445248517909429431e+00,5.809231475488679797e-01,6.025868247619334817e-01,-2.369465039035244525e-01
6.533333333333333215e+00,1.685138781229362726e+09,-1.081443744152070785e-01,-2.546350763672184492e+00,0.000000000000000000e+00,-5.092701527344368984e+00,6.680629222848359916e-01,5.984110134790261437e-01,-2.640754899770728636e-01
6.549999999999999822e+00,1.685138781245352983e+09,-1.029405089572591470e-01,-2.434176721219665662e+00,0.000000000000000000e+00,-4.868353442439331324e+00,7.576865966863188806e-01,5.938146718986624384e-01,-2.874206504722649491e-01
6.566666666666666430e+00,1.685138781261358500e+09,-9.722880371326446391e-02,-2.354052405182152530e+00,0.000000000000000000e+00,-4.708104810364305060e+00,8.485711052508984054e-01,5.888560885794442701e-01,-3.075534221519009570e-01
6.583333333333333037e+00,1.685138781279352903e+09,-9.103431719733520722e-02,-2.257903225937135883e+00,0.000000000000000000e+00,-4.515806451874271765e+00,9.394551956463080833e-01,5.835905729425624466e-01,-3.242620403531996098e-01
6.599999999999999645e+00,1.685138781297357321e+09,-8.438514055886764398e-02,-2.145729183484616165e+00,0.000000000000000000e+00,-4.291458366969232330e+00,1.029052849939293024e+00,5.780767569457748722e-01,-3.373594965821674063e-01
6.616666666666666252e+00,1.685138781313352585e+09,-7.731221544429621451e-02,-2.081629730654605215e+00,0.000000000000000000e+00,-4.163259461309210430e+00,1.116067061259848892e+00,5.723673309337212745e-01,-3.477427817266930399e-01
6.633333333333332860e+00,1.685138781330362558e+09,-6.984913118607448401e-02,-2.017530277824594265e+00,0.000000000000000000e+00,-4.035060555649188530e+00,1.199203825635797305e+00,5.665066206535711579e-01,-3.555208456496894986e-01
6.649999999999999467e+00,1.685138781348354816e+09,-6.203190274424419393e-02,-1.985480551409588790e+00,0.000000000000000000e+00,-3.970961102819177579e+00,1.277186206112474132e+00,5.605325479742812034e-01,-3.613516787253514551e-01
6.666666666666666963e+00,1.685138781365354061e+09,-5.389873097309734462e-02,-1.969455688202086385e+00,0.000000000000000000e+00,-3.938911376404172771e+00,1.348768325084487074e+00,5.544742004213960573e-01,-3.656381205577596272e-01
6.683333333333333570e+00,1.685138781380355597e+09,-4.548974692087250082e-02,-1.937405961787080910e+00,0.000000000000000000e+00,-3.874811923574161820e+00,1.412749141026331534e+00,5.483582680032156320e-01,-3.682664684855916915e-01
6.700000000000000178e+00,1.685138781399331093e+09,-3.684674199295050190e-02,-1.857281645749567334e+00,0.000000000000000000e+00,-3.714563291499134667e+00,1.467985867513461384e+00,5.422175889496999579e-01,-3.686140524026778609e-01
6.716666666666666785e+00,1.685138781417329788e+09,-2.801288591772156666e-02,-1.761132466504550909e+00,0.000000000000000000e+00,-3.522264933009101817e+00,1.513406895562926735e+00,5.360907185870346092e-01,-3.666159415557062595e-01
6.733333333333333393e+00,1.685138781432343721e+09,-1.903243454839818882e-02,-1.697033013674539959e+00,0.000000000000000000e+00,-3.394066027349079917e+00,1.548024084861073790e+00,5.300105088836191136e-01,-3.630192139991818556e-01
6.750000000000000000e+00,1.685138781448353767e+09,-9.950429612642027605e-03,-1.648958424052031413e+00,0.000000000000000000e+00,-3.297916848104062826e+00,1.570944295344150587e+00,5.239995536948891530e-01,-3.583084942889165903e-01
6.766666666666666607e+00,1.685138781465363264e+09,-8.123925845530307601e-04,-1.616908697637025938e+00,0.000000000000000000e+00,-3.233817395274051876e+00,1.581380037798052918e+00,5.180723279685326421e-01,-3.529734128932096038e-01
6.783333333333333215e+00,1.685138781482363462e+09,8.335985100334040304e-03,-1.568834108014517836e+00,0.000000000000000000e+00,-3.137668216029035673e+00,1.578659130575948977e+00,5.122395476545767989e-01,-3.469768822032298639e-01
6.799999999999999822e+00,1.685138781501358032e+09,1.744915323717150663e-02,-1.520759518392009291e+00,0.000000000000000000e+00,-3.041519036784018581e+00,1.562233259116415862e+00,5.065102526117207793e-01,-3.405563581483003754e-01
6.816666666666666430e+00,1.685138781517340899e+09,2.648201318898482648e-02,-1.504734655184506886e+00,0.000000000000000000e+00,-3.009469310369013773e+00,1.531685345584276492e+00,5.008850735661699582e-01,-3.344820009294200980e-01
6.833333333333333037e+00,1.685138781534342766e+09,3.539022511203483018e-02,-1.488709791977003816e+00,0.000000000000000000e+00,-2.977419583954007631e+00,1.486735647549705552e+00,4.953562997017315617e-01,-3.289861294721033169e-01
6.849999999999999645e+00,1.685138781551362514e+09,4.413050983462458998e-02,-1.472684928769501411e+00,0.000000000000000000e+00,-2.945369857539002822e+00,1.427246517052338071e+00,4.899123612961216456e-01,-3.242994979284460899e-01
6.866666666666666252e+00,1.685138781570362329e+09,5.266094319396825985e-02,-1.440635202354495936e+00,0.000000000000000000e+00,-2.881270404708991872e+00,1.353225764545537002e+00,4.845400890372859037e-01,-3.203840496330929710e-01
6.883333333333332860e+00,1.685138781587353468e+09,6.094124069166688418e-02,-1.392560612731987391e+00,0.000000000000000000e+00,-2.785121225463974781e+00,1.264828585950685813e+00,4.792269640702584432e-01,-3.171997917790871924e-01
6.899999999999999467e+00,1.685138781603332281e+09,6.893303040060165532e-02,-1.360510886316982582e+00,0.000000000000000000e+00,-2.721021772633965163e+00,1.162358025238334536e+00,4.739567436954096324e-01,-3.152321190888825453e-01
6.916666666666666963e+00,1.685138781620354176e+09,7.660011214404274793e-02,-1.344486023109479511e+00,0.000000000000000000e+00,-2.688972046218959022e+00,1.046263959450399295e+00,4.687052244812717761e-01,-3.149509676023959925e-01
6.933333333333333570e+00,1.685138781637352943e+09,8.390870107075437678e-02,-1.328461159901977107e+00,0.000000000000000000e+00,-2.656922319803954213e+00,9.171406077436168314e-01,4.634427310727939897e-01,-3.165438167298909033e-01
6.950000000000000178e+00,1.685138781653332710e+09,9.082765386719141021e-02,-1.312436296694474036e+00,0.000000000000000000e+00,-2.624872593388948072e+00,7.757225807225645031e-01,4.581365908176207036e-01,-3.201829050742494576e-01
6.966666666666666785e+00,1.685138781672331095e+09,9.732867597843311569e-02,-1.312436296694474036e+00,0.000000000000000000e+00,-2.624872593388948072e+00,6.228795008958397661e-01,4.527491909602894271e-01,-3.262881184802287615e-01
6.983333333333333393e+00,1.685138781687359095e+09,1.033865083524654754e-01,-1.312436296694474036e+00,0.000000000000000000e+00,-2.624872593388948072e+00,4.596092393866006987e-01,4.472383298313269973e-01,-3.349910416397308688e-01
7.000000000000000000e+00,1.685138781707332611e+09,1.089790923765753122e-01,-1.312436296694474036e+00,0.000000000000000000e+00,-2.624872593388948072e+00,2.870298279166260125e-01,4.415597852807044421e-01,-3.464026049020724196e-01
7.016666666666666607e+00,1.685138781723354578e+09,1.140877118387715050e-01,-1.312436296694474036e+00,0.000000000000000000e+00,-2.624872593388948072e+00,1.063701184224655760e-01,4.356676713706353343e-01,-3.606115939632034695e-01
7.033333333333333215e+00,1.685138781739332199e+09,1.186971109201566676e-01,-1.312436296694474036e+00,0.000000000000000000e+00,-2.624872593388948072e+00,-8.104072467851963779e-02,4.295148182497113276e-01,-3.776833578651627166e-01
7.049999999999999822e+00,1.685138781756333590e+09,1.227955874044392715e-01,-1.312436296694474036e+00,0.000000000000000000e+00,-2.624872593388948072e+00,-2.737848027035205689e-01,4.230531717827392679e-01,-3.976587297214905226e-01
7.066666666666666430e+00,1.685138781773331165e+09,1.263750604772592989e-01,-1.344486023109479511e+00,0.000000000000000000e+00,-2.688972046218959022e+00,-4.703680236069397447e-01,4.162297825630580927e-01,-4.210829079470830294e-01
7.083333333333333037e+00,1.685138781790338516e+09,1.294311126788998123e-01,-1.360510886316982582e+00,0.000000000000000000e+00,-2.721021772633965163e+00,-6.692334878864268921e-01,4.089895449728783161e-01,-4.476717432602934088e-01
7.099999999999999645e+00,1.685138781806332588e+09,1.319630057680359625e-01,-1.392560612731987391e+00,0.000000000000000000e+00,-2.785121225463974781e+00,-8.687755930542664373e-01,4.012778450113430040e-01,-4.776489800618623494e-01
7.116666666666666252e+00,1.685138781824361801e+09,1.339736704498904751e-01,-1.424610339146992866e+00,0.000000000000000000e+00,-2.849220678293985731e+00,-1.067354722704393799e+00,3.930388103346761364e-01,-5.109426964160519447e-01
7.133333333333332860e+00,1.685138781840332031e+09,1.354696701178512708e-01,-1.424610339146992866e+00,0.000000000000000000e+00,-2.849220678293985731e+00,-1.263312379974800503e+00,3.842224131607555049e-01,-5.469250112274944842e-01
7.149999999999999467e+00,1.685138781858350992e+09,1.364611389520261620e-01,-1.424610339146992866e+00,0.000000000000000000e+00,-2.849220678293985731e+00,-1.454986620336807368e+00,3.747848064935346835e-01,-5.854806872183370148e-01
7.166666666666666963e+00,1.685138781876353264e+09,1.369616949095797120e-01,-1.424610339146992866e+00,0.000000000000000000e+00,-2.849220678293985731e+00,-1.640727635189469957e+00,3.646842759140216383e-01,-6.264691228777650167e-01
7.183333333333333570e+00,1.685138781892363071e+09,1.369883283287312570e-01,-1.424610339146992866e+00,0.000000000000000000e+00,-2.849220678293985731e+00,-1.818913335733268077e+00,3.538816549855014482e-01,-6.697252298639158052e-01
7.200000000000000178e+00,1.685138781908362865e+09,1.365612670495013892e-01,-1.424610339146992866e+00,0.000000000000000000e+00,-2.849220678293985731e+00,-1.987964786066489964e+00,3.423407240249540795e-01,-7.150605509902597801e-01
7.216666666666666785e+00,1.685138781924341202e+09,1.357038191282048112e-01,-1.424610339146992866e+00,0.000000000000000000e+00,-2.849220678293985731e+00,-2.146361335396531178e+00,3.300285883057138547e-01,-7.622646098467449338e-01
7.233333333333333393e+00,1.685138781941333294e+09,1.344421943881161097e-01,-1.424610339146992866e+00,0.000000000000000000e+00,-2.849220678293985731e+00,-2.292655301679959567e+00,3.169160319247420476e-01,-8.111064808128890524e-01
7.250000000000000000e+00,1.685138781957333088e+09,1.328053062042358623e-01,-1.440635202354495936e+00,0.000000000000000000e+00,-2.881270404708991872e+00,-2.425486062879476101e+00,3.029756304114719634e-01,-8.616014337201851614e-01
7.266666666666666607e+00,1.685138781975330591e+09,1.308245550646401911e-01,-1.424610339146992866e+00,0.000000000000000000e+00,-2.849220678293985731e+00,-2.543593417315361371e+00,2.881865210532133514e-01,-9.129490536362990794e-01
7.283333333333333215e+00,1.685138781994334459e+09,1.285335955832543342e-01,-1.424610339146992866e+00,0.000000000000000000e+00,-2.849220678293985731e+00,-2.645830081244710641e+00,2.725345892095348832e-01,-9.651377954658156844e-01
7.299999999999999822e+00,1.685138782012332678e+09,1.259680887581379749e-01,-1.408585475939490461e+00,0.000000000000000000e+00,-2.817170951878980922e+00,-2.731173199761271597e+00,2.560104790650822304e-01,-1.017609663249709140e+00
7.316666666666666430e+00,1.685138782024330616e+09,1.231654413745952859e-01,-1.376535749524484986e+00,0.000000000000000000e+00,-2.753071499048969972e+00,-2.798734756293984383e+00,2.386141803197630029e-01,-1.069801206268031102e+00
7.333333333333333037e+00,1.685138782042304993e+09,1.201645345427430345e-01,-1.312436296694474036e+00,0.000000000000000000e+00,-2.624872593388948072e+00,-2.847770776307645413e+00,2.203573118149590171e-01,-1.120881122313262424e+00
7.349999999999999645e+00,1.685138782060351610e+09,1.170054434340553895e-01,-1.168212527826949509e+00,0.000000000000000000e+00,-2.336425055653899019e+00,-2.877689232172297107e+00,2.012719544664264282e-01,-1.169227460964717302e+00
7.366666666666666252e+00,1.685138782077305317e+09,1.137291503401696435e-01,-9.759141693369165482e-01,0.000000000000000000e+00,-1.951828338673833096e+00,-2.888056568461573548e+00,1.814126308310189395e-01,-1.213767649625951295e+00
7.383333333333332860e+00,1.685138782096362829e+09,1.103772532195085310e-01,-7.675909476393810715e-01,0.000000000000000000e+00,-1.535181895278762143e+00,-2.878602780043629572e+00,1.608472021003079788e-01,-1.253972116356623756e+00
7.399999999999999467e+00,1.685138782110341787e+09,1.069916719227908680e-01,-5.592677259418450397e-01,0.000000000000000000e+00,-1.118535451883690079e+00,-2.849224989114883755e+00,1.396500833675614062e-01,-1.289583209541489417e+00
7.416666666666666963e+00,1.685138782130304337e+09,1.036143542969922421e-01,-4.291291918271732120e-02,5.519637172931736169e-01,-6.377895556586082870e-01,-2.799989481662892743e+00,1.179424846534387894e-01,-1.315257317508127022e+00
7.433333333333333570e+00,1.685138782146339178e+09,1.002869843588732185e-01,2.008228958970263989e-01,6.227889040575901314e-01,-2.211431122635373892e-01,-2.731132178590306658e+00,9.585370577792937108e-02,-1.335340360010838889e+00
7.450000000000000178e+00,1.685138782162362337e+09,9.705069470380944807e-02,5.245006397935585429e-01,7.252990427955615660e-01,3.237022367915554644e-01,-2.643057531743845612e+00,7.348985485288808683e-02,-1.348285790618302338e+00
7.466666666666666785e+00,1.685138782177305937e+09,9.394578527362637543e-02,7.417781905712773627e-01,8.073071537859383140e-01,6.762492273566165224e-01,-2.536335850223898181e+00,5.095678571602188511e-02,-1.355662015808979826e+00
7.483333333333333393e+00,1.685138782196363211e+09,9.101145054881483454e-02,9.512157098417012291e-01,7.774860225167102845e-01,1.124945397166692285e+00,-2.411699077454561468e+00,2.834794080845823988e-02,-1.357394560361630420e+00
7.500000000000000000e+00,1.685138782215343237e+09,8.828551715631630104e-02,1.093393270784174032e+00,8.054433330816116454e-01,1.381343208486736307e+00,-2.270035054422606891e+00,5.749663799475838305e-03,-1.354406979746621831e+00
7.516666666666666607e+00,1.685138782231363297e+09,8.580419379478268493e-02,1.204453015663805138e+00,8.352644643508396749e-01,1.573641566976770489e+00,-2.112380319101516690e+00,-1.676211786729557562e-02,-1.347027319803812295e+00
7.533333333333333215e+00,1.685138782247361660e+09,8.360183527530395953e-02,1.177225253981805331e+00,6.526100353268181609e-01,1.701840472636792390e+00,-1.939911506220902471e+00,-3.913186371753771264e-02,-1.337369011490888493e+00
7.549999999999999822e+00,1.685138782263305426e+09,8.171072235823045871e-02,1.283260672659167989e+00,7.364819670215216885e-01,1.830039378296814512e+00,-1.753935425082675970e+00,-6.130163899886799383e-02,-1.323043815416616642e+00
7.566666666666666430e+00,1.685138782280304909e+09,8.016085893653775163e-02,1.333381470206728814e+00,7.085246564566207716e-01,1.958238283956836412e+00,-1.555877905932724792e+00,-8.320036110258730022e-02,-1.304853367241664008e+00
7.583333333333333037e+00,1.685138782298364639e+09,7.897978797445359689e-02,1.393570894407359706e+00,7.327543256128682403e-01,2.054387463201851283e+00,-1.347271517342657710e+00,-1.047612953320518070e-01,-1.282520776727787748e+00
7.599999999999999645e+00,1.685138782315330029e+09,7.819242745781690429e-02,1.556635231787414808e+00,8.986343682979489600e-01,2.214636095276880212e+00,-1.129742268025922591e+00,-1.259005365320636782e-01,-1.254266652798417647e+00
7.616666666666666252e+00,1.685138782332341909e+09,7.782092745112412224e-02,1.532203201161905115e+00,7.215714013869076737e-01,2.342835000936902556e+00,-9.049954163961888565e-01,-1.465451105572527224e-01,-1.223168615693799977e+00
7.633333333333332860e+00,1.685138782350305319e+09,7.788454918672599314e-02,1.659105422028312127e+00,7.830774846296904013e-01,2.535133359426934074e+00,-6.748005198783832981e-01,-1.666263568083991009e-01,-1.186682287740154829e+00
7.649999999999999467e+00,1.685138782366363287e+09,7.839956693550304001e-02,1.753208393348276495e+00,8.110347951945917622e-01,2.695381991501961227e+00,-4.409758634171186964e-01,-1.860592435758984253e-01,-1.145378858807136302e+00
7.666666666666666963e+00,1.685138782382362127e+09,7.937919322699860114e-02,1.740324061390178700e+00,5.929677727883622129e-01,2.887680349991995410e+00,-2.053724127208744477e-01,-2.047786826355836864e-01,-1.101076892269629237e+00
7.683333333333333570e+00,1.685138782399363995e+09,8.083352780184986652e-02,1.890524041060670291e+00,7.010693736393136533e-01,3.079978708482026928e+00,3.014255752605903005e-02,-2.227125994546907961e-01,-1.051131865474076665e+00
7.700000000000000178e+00,1.685138782417363405e+09,8.276953049186328015e-02,1.978468414356941985e+00,6.526100353268181609e-01,3.304326793387065919e+00,2.637020070066848909e-01,-2.397765913241377556e-01,-9.966983665819025839e-01
7.716666666666666785e+00,1.685138782433305740e+09,8.519101803481629598e-02,2.101642993814695881e+00,7.066608357522937700e-01,3.496625151877097881e+00,4.934556894258306792e-01,-2.558921299664447258e-01,-9.373311832189201720e-01
7.733333333333333393e+00,1.685138782452330112e+09,8.809868464336845229e-02,2.236932407850574567e+00,7.849413053340171809e-01,3.688923510367132064e+00,7.175865729629721246e-01,-2.709767720668494473e-01,-8.730045581049563630e-01
7.750000000000000000e+00,1.685138782468359709e+09,9.149014596197924121e-02,2.367197495684185249e+00,9.172725753412164229e-01,3.817122416027153964e+00,9.343269672425044137e-01,-2.849502600039107714e-01,-8.040056624524501983e-01
7.766666666666666607e+00,1.685138782486356258e+09,9.536000586377069155e-02,2.546104309051016479e+00,1.114837569999851841e+00,3.977371048102181117e+00,1.141974205260242403e+00,-2.977299054702030601e-01,-7.297580417476369208e-01
7.783333333333333215e+00,1.685138782503332138e+09,9.969994536237589133e-02,2.612067582585354319e+00,1.118565211408505178e+00,4.105569953762202573e+00,1.338905732889291711e+00,-3.092460345487206830e-01,-6.523923574112084900e-01
7.799999999999999822e+00,1.685138782519353867e+09,1.044988327433182956e-01,2.596022745129315190e+00,9.582766308364050190e-01,4.233768859422225361e+00,1.523593464193786717e+00,-3.194601283012419857e-01,-5.735179935033021259e-01
7.816666666666666430e+00,1.685138782536339760e+09,1.097428538567021827e-01,2.691240014022167504e+00,9.564128101320780173e-01,4.426067217912256879e+00,1.694617267753877776e+00,-3.283337701386900287e-01,-4.915467303029199542e-01
7.833333333333333037e+00,1.685138782555339098e+09,1.154156613592797753e-01,2.771364330059681080e+00,9.564128101320780173e-01,4.586315849987284032e+00,1.850677457480880195e+00,-3.358199242461207823e-01,-4.070265464031465052e-01
7.849999999999999645e+00,1.685138782570340633e+09,1.214985415504272609e-01,2.955113082408055369e+00,1.131611956338792524e+00,4.778614208477318215e+00,1.990606170896633609e+00,-3.418643760987849500e-01,-3.185534403287375582e-01
7.866666666666666252e+00,1.685138782588355541e+09,1.279705973143858699e-01,3.143703773737971385e+00,1.284445254093586009e+00,5.002962293382356762e+00,2.113377528475684830e+00,-3.464034906515428558e-01,-2.263963040724187581e-01
7.883333333333332860e+00,1.685138782604355335e+09,1.348089455613196153e-01,3.210416570403746395e+00,1.321721668180120712e+00,5.099111472627371633e+00,2.218116479297138177e+00,-3.493957007220931388e-01,-1.329285431735203749e-01
7.899999999999999467e+00,1.685138782621353626e+09,1.419889274531370427e-01,3.231648147034241525e+00,1.235985915781090183e+00,5.227310378287393533e+00,2.304106250813808376e+00,-3.508282151253284131e-01,-3.923345547281759105e-02
7.916666666666666963e+00,1.685138782638333559e+09,1.494843296076527606e-01,3.270403633135116728e+00,1.217347708737822831e+00,5.323459557532411068e+00,2.370794333895875905e+00,-3.506975220274274885e-01,5.465581754646470225e-02
7.933333333333333570e+00,1.685138782656344175e+09,1.572676143969449492e-01,3.297976195010031031e+00,1.176343653242634346e+00,5.419608736777427715e+00,2.417796948315445782e+00,-3.490046753852153461e-01,1.482258566263438271e-01
7.950000000000000178e+00,1.685138782672338963e+09,1.653101573935680801e-01,3.319774907551238829e+00,1.155841625495040104e+00,5.483708189607437333e+00,2.444901948370966416e+00,-3.457584974269729550e-01,2.410576262668048531e-01
7.966666666666666785e+00,1.685138782690340996e+09,1.735824899717958725e-01,3.203833275192993657e+00,8.278091815335324455e-01,5.579857368852454869e+00,2.452070143264516666e+00,-3.409929691198567703e-01,3.305571549339805237e-01
7.983333333333333393e+00,1.685138782704306602e+09,1.820545450409063459e-01,3.204947572765882491e+00,7.979880502643044160e-01,5.611907095267459233e+00,2.439435021995844721e+00,-3.347497349830955704e-01,4.183869640432481551e-01
8.000000000000000000e+00,1.685138782726359129e+09,1.906959038736270595e-01,3.216495271433294167e+00,7.569839947691161530e-01,5.676006548097471516e+00,2.407300887777083620e+00,-3.270576452003223777e-01,5.044248102473145590e-01
8.016666666666665719e+00,1.685138782740351677e+09,1.994760419954815511e-01,3.189469871220556030e+00,7.029331943436404329e-01,5.676006548097471516e+00,2.356139422153295637e+00,-3.179542741133185024e-01,5.877482607165416262e-01
8.033333333333333215e+00,1.685138782758351088e+09,2.083645721198119916e-01,3.216860045874744056e+00,6.936140908220067569e-01,5.740106000927481134e+00,2.286584713988474071e+00,-3.074795113147897330e-01,6.689975772490664996e-01
8.050000000000000711e+00,1.685138782775332689e+09,2.173314821484610138e-01,3.231952998730083237e+00,6.917502701176797553e-01,5.772155727342486387e+00,2.199426803099420180e+00,-2.956717690848213453e-01,7.477128317162564652e-01
8.066666666666666430e+00,1.685138782791334629e+09,2.263473663092376020e-01,2.886077863671243193e+00,0.000000000000000000e+00,5.772155727342486387e+00,2.095603802448127162e+00,-2.826250906681808117e-01,8.176941810682720746e-01
8.083333333333333925e+00,1.685138782807333231e+09,2.353836475678779405e-01,2.902102726878746708e+00,0.000000000000000000e+00,5.804205453757493416e+00,1.976192676301116169e+00,-2.684360020501218580e-01,8.848100158365441725e-01
8.099999999999999645e+00,1.685138782827305794e+09,2.444127895336399847e-01,2.918127590086249334e+00,0.000000000000000000e+00,5.836255180172498669e+00,1.842398764498812014e+00,-2.531538525782673910e-01,9.488699722744406984e-01
8.116666666666667140e+00,1.685138782841332436e+09,2.534084961734104358e-01,2.934152453293751961e+00,0.000000000000000000e+00,5.868304906587503922e+00,1.695544154828732886e+00,-2.368309554287902630e-01,1.009708685260338301e+00
8.133333333333332860e+00,1.685138782859351397e+09,2.623458977581681340e-01,2.934152453293751961e+00,0.000000000000000000e+00,5.868304906587503922e+00,1.537055016345172831e+00,-2.195243734018313964e-01,1.066922227727361561e+00
8.150000000000000355e+00,1.685138782876353741e+09,2.712017215873180342e-01,2.934152453293751961e+00,0.000000000000000000e+00,5.868304906587503922e+00,1.368448016223902997e+00,-2.012954227797757178e-01,1.120403284930600041e+00
8.166666666666666075e+00,1.685138782893352509e+09,2.799544461693724839e-01,2.934152453293751961e+00,0.000000000000000000e+00,5.868304906587503922e+00,1.191315951285754293e+00,-1.822069736038322285e-01,1.170072642497648419e+00
8.183333333333333570e+00,1.685138782911331654e+09,2.885844376809851841e-01,2.934152453293751961e+00,0.000000000000000000e+00,5.868304906587503922e+00,1.007312732589044968e+00,-1.623229767746006968e-01,1.215879732099796939e+00
8.199999999999999289e+00,1.685138782927352428e+09,2.970740676789659362e-01,2.934152453293751961e+00,0.000000000000000000e+00,5.868304906587503922e+00,8.181378674047833366e-01,-1.417079842768443343e-01,1.257802911613682850e+00
8.216666666666666785e+00,1.685138782946352005e+09,3.054078112005815249e-01,2.934152453293751961e+00,0.000000000000000000e+00,5.868304906587503922e+00,6.255205873977440767e-01,-1.204266669658211747e-01,1.295849478314184733e+00
8.233333333333332504e+00,1.685138782961323261e+09,3.135723245547396565e-01,2.934152453293751961e+00,0.000000000000000000e+00,5.868304906587503922e+00,4.312037748942636473e-01,-9.854333435566793586e-02,1.330055416173831828e+00
8.250000000000000000e+00,1.685138782978332996e+09,3.215565022792843952e-01,2.934152453293751961e+00,0.000000000000000000e+00,5.868304906587503922e+00,2.369278407007178733e-01,-7.612146081136110520e-02,1.360484880862766088e+00
8.266666666666665719e+00,1.685138782996352196e+09,3.293515129160722865e-01,2.934152453293751961e+00,0.000000000000000000e+00,5.868304906587503922e+00,4.441470702539740412e-02,-5.322322246516671129e-02,1.387229428521890906e+00
8.283333333333333215e+00,1.685138783012362957e+09,3.369508134345050032e-01,2.934152453293751961e+00,0.000000000000000000e+00,5.868304906587503922e+00,-1.446479523414040402e-01,-2.990904905710289885e-02,1.410406996796366164e+00
8.300000000000000711e+00,1.685138783030339956e+09,3.443501423140948314e-01,2.934152453293751961e+00,0.000000000000000000e+00,5.868304906587503922e+00,-3.286220653105308420e-01,-6.237194738040588438e-03,1.430160648943690882e+00
8.316666666666666430e+00,1.685138783046305656e+09,3.515474914761703706e-01,2.934152453293751961e+00,0.000000000000000000e+00,5.868304906587503922e+00,-5.059339632793393715e-01,1.773666832469839028e-02,1.446657094047858694e+00
8.333333333333333925e+00,1.685138783064339161e+09,3.585430574323536512e-01,2.918127590086249334e+00,0.000000000000000000e+00,5.836255180172498669e+00,-6.750884921799131799e-01,4.195761657190730937e-02,1.459820130765755453e+00
8.349999999999999645e+00,1.685138783081305504e+09,3.653391721917003121e-01,2.902102726878746708e+00,0.000000000000000000e+00,5.804205453757493416e+00,-8.346823006123502697e-01,6.637187414065949531e-02,1.469862880301443298e+00
8.366666666666667140e+00,1.685138783100339413e+09,3.719402146378283924e-01,2.536129042043210102e+00,-6.357981904260562311e-01,5.708056274512476769e+00,-9.834161812209063491e-01,9.088103209299951135e-02,1.471232270029475098e+00
8.383333333333332860e+00,1.685138783117363214e+09,3.783525032506635521e-01,2.415075023185091485e+00,-7.497073224822722315e-01,5.579857368852454869e+00,-1.120106350994871880e+00,1.153772243107400730e-01,1.468318889014904816e+00
8.400000000000000355e+00,1.685138783134364128e+09,3.845841712032908033e-01,2.153454773033297798e+00,-1.016550011465815473e+00,5.323459557532411068e+00,-1.243694566792570955e+00,1.397720573903523666e-01,1.459086726039304560e+00
8.416666666666666075e+00,1.685138783152363777e+09,3.906450250115389711e-01,2.050245801159276571e+00,-9.986198703088182693e-01,5.099111472627371633e+00,-1.353256983994001628e+00,1.639849081475688586e-01,1.446490355568176067e+00
8.433333333333333570e+00,1.685138783167305470e+09,3.965463880511316264e-01,1.817953397785325942e+00,-1.174757139321670918e+00,4.810663934892322580e+00,-1.448011678665282576e+00,1.879443873055388070e-01,1.428696571728873543e+00
8.449999999999999289e+00,1.685138783185331106e+09,4.023009303834300665e-01,1.481040139604593575e+00,-1.528086391533081345e+00,4.490166670742269162e+00,-1.527324766847983906e+00,2.115522716951781790e-01,1.404317276885177712e+00
8.466666666666666785e+00,1.685138783201363087e+09,4.079224864449812471e-01,1.049406755132265001e+00,-2.102905622742690106e+00,4.201719133007220108e+00,-1.590715068432319246e+00,2.346888288659369770e-01,1.372158914492751292e+00
8.483333333333332504e+00,1.685138783220314741e+09,4.134258622572231645e-01,8.740689177864211512e-01,-2.165133759699326532e+00,3.913271595272168835e+00,-1.637857277403392375e+00,2.572631260042066437e-01,1.336854811360865369e+00
8.500000000000000000e+00,1.685138783237351894e+09,4.188266339001777139e-01,7.367007911259839670e-01,-2.151422475285151847e+00,3.624824057537119781e+00,-1.668583614918623059e+00,2.792306803526856118e-01,1.299355876615842398e+00
8.516666666666665719e+00,1.685138783253305435e+09,4.241409390668035018e-01,5.635914384005716871e-01,-2.145094190170917958e+00,3.272277066972061110e+00,-1.682883956540688120e+00,3.005525467064967260e-01,1.259379134959695890e+00
8.533333333333333215e+00,1.685138783270354509e+09,4.293852635725959876e-01,4.478449525470999393e-01,-2.088139624142809847e+00,2.983829529237009837e+00,-1.680904439865140931e+00,3.211979420896609039e-01,1.218182748121231063e+00
8.550000000000000711e+00,1.685138783288363457e+09,4.345762247372420006e-01,2.788354003154915328e-01,-2.137711190870978051e+00,2.695381991501961227e+00,-1.662944573600496412e+00,3.411415580330280917e-01,1.175170645956447046e+00
8.566666666666666430e+00,1.685138783305361986e+09,4.397303535816112774e-01,1.808999993699990094e-01,-2.109233907856923995e+00,2.471033906596921792e+00,-1.629452883734183954e+00,3.603653454624651808e-01,1.131804310454273432e+00
8.583333333333333925e+00,1.685138783321361542e+09,4.448638777936031463e-01,9.805380369532340490e-02,-2.018528487886233513e+00,2.214636095276880212e+00,-1.581021146607883843e+00,3.788675970712442886e-01,1.088585936463618342e+00
8.599999999999999645e+00,1.685138783338362455e+09,4.499925074104906830e-01,7.178195378834855041e-03,-2.007981346029176439e+00,2.022337736786846030e+00,-1.518377272391729704e+00,3.966516124090253559e-01,1.045615269842288919e+00
8.616666666666667140e+00,1.685138783356367111e+09,4.551312251433988765e-01,2.039608477627610078e-02,-1.821296935159267161e+00,1.862089104711819321e+00,-1.442376915453940089e+00,4.137377079684003145e-01,1.004829493771619564e+00
8.633333333333332860e+00,1.685138783372358322e+09,4.602940832314954545e-01,-7.725007157440057226e-02,-1.920440068615603346e+00,1.765939925466802229e+00,-1.353993900344958590e+00,4.301483945153156130e-01,9.645647410260482779e-01
8.650000000000000355e+00,1.685138783390354633e+09,4.654940086598337579e-01,-1.559113725823743912e-01,-1.981613491386533976e+00,1.669790746221785138e+00,-1.254309563433297692e+00,4.458964669497537670e-01,9.253129863246822850e-01
8.666666666666666075e+00,1.685138783407356501e+09,4.707426185058824486e-01,7.012066982958210792e-02,-1.497499680147616141e+00,1.637741019806780329e+00,-1.144501120533020444e+00,4.610421513998533838e-01,8.922609610295253457e-01
8.683333333333333570e+00,1.685138783423342228e+09,4.760500470961914754e-01,1.385919977275538451e-01,-1.264407845106655381e+00,1.541591840561763238e+00,-1.025829180053117629e+00,4.756673822455336209e-01,8.628484438117524080e-01
8.699999999999999289e+00,1.685138783440341711e+09,4.814247865570543405e-01,3.567227044834975214e-02,-1.374098120420049085e+00,1.445442661316748589e+00,-8.996245291837861036e-01,4.898096830677365343e-01,8.343069386772922202e-01
8.716666666666666785e+00,1.685138783458362103e+09,4.868735422322194029e-01,-2.010852514503459754e-02,-1.421560258776805474e+00,1.381343208486736307e+00,-7.672743273423591193e-01,5.034908101092259169e-01,8.075027640943462925e-01
