2023-05-26-15:06:08.733765,3.0,8.0,460.0
2023-05-26-15:06:08.734793,0.0,8.0,460.0
2023-05-26-15:06:08.735763,6.0,5.0,460.0
2023-05-26-15:06:08.735763,1.0,5.0,460.0
2023-05-26-15:06:08.737807,0.0,25.0,460.0
2023-05-26-15:06:08.737807,1.0,14.0,460.0
2023-05-26-15:06:08.738843,5.0,2.0,460.0
2023-05-26-15:06:08.739764,5.0,2.0,460.0
2023-05-26-15:06:08.740784,5.0,2.0,460.0
2023-05-26-15:06:08.742791,6.0,3.0,460.0
2023-05-26-15:06:08.744813,5.0,0.0,460.0
2023-05-26-15:06:08.744813,10.0,4.0,460.0
2023-05-26-15:06:08.745799,11.0,3.0,460.0
2023-05-26-15:06:08.746802,2.0,5.0,460.0
2023-05-26-15:06:08.747798,3.0,4.0,460.0
2023-05-26-15:06:08.748801,3.0,0.0,460.0
2023-05-26-15:06:08.749761,3.0,1.0,460.0
2023-05-26-15:06:08.750772,3.0,0.0,460.0
2023-05-26-15:06:08.751764,3.0,3.0,460.0
2023-05-26-15:06:08.752801,2.0,4.0,460.0
2023-05-26-15:06:08.753800,5.0,4.0,461.0
2023-05-26-15:06:08.754802,3.0,6.0,460.0
2023-05-26-15:06:08.755799,4.0,5.0,460.0
2023-05-26-15:06:08.756802,3.0,5.0,460.0
2023-05-26-15:06:08.757799,6.0,10.0,460.0
2023-05-26-15:06:08.758763,4.0,2.0,460.0
2023-05-26-15:06:08.759799,4.0,15.0,461.0
2023-05-26-15:06:08.760798,1.0,9.0,460.0
2023-05-26-15:06:08.761764,6.0,19.0,460.0
2023-05-26-15:06:08.762799,4.0,11.0,460.0
2023-05-26-15:06:08.763799,4.0,2.0,460.0
2023-05-26-15:06:08.764800,5.0,5.0,460.0
2023-05-26-15:06:08.765803,4.0,3.0,460.0
2023-05-26-15:06:08.766762,6.0,2.0,460.0
2023-05-26-15:06:08.767768,3.0,6.0,460.0
2023-05-26-15:06:08.768764,4.0,9.0,460.0
2023-05-26-15:06:08.769801,5.0,7.0,460.0
2023-05-26-15:06:08.770799,3.0,23.0,460.0
2023-05-26-15:06:08.771801,3.0,14.0,460.0
2023-05-26-15:06:08.772802,1.0,3.0,460.0
2023-05-26-15:06:08.773801,6.0,11.0,460.0
2023-05-26-15:06:08.774803,1.0,7.0,460.0
2023-05-26-15:06:08.775799,1.0,30.0,460.0
2023-05-26-15:06:08.776800,1.0,30.0,460.0
2023-05-26-15:06:08.778820,1.0,30.0,460.0
2023-05-26-15:06:08.778820,0.0,22.0,460.0
2023-05-26-15:06:08.779823,6.0,29.0,460.0
2023-05-26-15:06:08.780821,10.0,18.0,460.0
2023-05-26-15:06:08.781822,1.0,16.0,460.0
2023-05-26-15:06:08.782765,6.0,7.0,460.0
2023-05-26-15:06:08.783766,9.0,6.0,460.0
2023-05-26-15:06:08.784764,9.0,19.0,460.0
2023-05-26-15:06:08.785763,6.0,6.0,460.0
2023-05-26-15:06:08.786799,5.0,10.0,460.0
2023-05-26-15:06:08.787801,9.0,1.0,460.0
2023-05-26-15:06:08.788802,11.0,5.0,460.0
2023-05-26-15:06:08.789799,8.0,13.0,460.0
2023-05-26-15:06:08.790803,10.0,3.0,460.0
2023-05-26-15:06:08.791790,4.0,6.0,460.0
2023-05-26-15:06:08.792789,6.0,5.0,460.0
2023-05-26-15:06:08.793790,3.0,9.0,460.0
2023-05-26-15:06:08.794790,1.0,1.0,460.0
2023-05-26-15:06:08.795791,3.0,11.0,460.0
2023-05-26-15:06:08.796789,7.0,13.0,460.0
2023-05-26-15:06:08.797795,10.0,15.0,460.0
2023-05-26-15:06:08.798788,3.0,5.0,460.0
2023-05-26-15:06:08.799782,6.0,2.0,460.0
2023-05-26-15:06:08.800789,4.0,12.0,460.0
2023-05-26-15:06:08.801791,5.0,21.0,461.0
2023-05-26-15:06:08.802789,2.0,2.0,460.0
2023-05-26-15:06:08.803788,4.0,29.0,460.0
2023-05-26-15:06:08.804791,6.0,20.0,460.0
2023-05-26-15:06:08.805841,4.0,10.0,460.0
2023-05-26-15:06:08.805841,6.0,11.0,460.0
2023-05-26-15:06:08.806887,4.0,2.0,460.0
2023-05-26-15:06:08.807885,7.0,1.0,460.0
2023-05-26-15:06:08.808886,6.0,3.0,460.0
2023-05-26-15:06:08.809879,4.0,5.0,460.0
2023-05-26-15:06:08.811882,2.0,7.0,460.0
2023-05-26-15:06:08.811882,6.0,3.0,460.0
2023-05-26-15:06:08.812850,7.0,1.0,460.0
2023-05-26-15:06:08.813881,0.0,1.0,460.0
2023-05-26-15:06:08.814877,4.0,1.0,460.0
2023-05-26-15:06:08.815877,3.0,5.0,460.0
2023-05-26-15:06:08.816878,4.0,6.0,460.0
2023-05-26-15:06:08.817897,1.0,8.0,460.0
2023-05-26-15:06:08.818877,5.0,2.0,460.0
2023-05-26-15:06:08.819877,5.0,2.0,460.0
2023-05-26-15:06:08.820878,7.0,10.0,460.0
2023-05-26-15:06:08.821876,3.0,5.0,460.0
2023-05-26-15:06:08.822863,5.0,3.0,460.0
2023-05-26-15:06:08.823850,2.0,2.0,460.0
2023-05-26-15:06:08.824849,3.0,1.0,460.0
2023-05-26-15:06:08.825865,8.0,10.0,460.0
2023-05-26-15:06:08.826870,7.0,3.0,460.0
2023-05-26-15:06:08.827849,5.0,3.0,460.0
2023-05-26-15:06:08.828850,4.0,0.0,460.0
2023-05-26-15:06:08.829850,2.0,8.0,460.0
2023-05-26-15:06:08.830875,4.0,26.0,460.0
2023-05-26-15:06:08.831878,7.0,8.0,460.0
2023-05-26-15:06:08.832877,4.0,18.0,460.0
2023-05-26-15:06:08.833877,8.0,16.0,460.0
2023-05-26-15:06:08.834849,3.0,13.0,460.0
2023-05-26-15:06:08.835850,6.0,31.0,460.0
2023-05-26-15:06:08.836876,7.0,5.0,460.0
2023-05-26-15:06:08.837875,4.0,13.0,460.0
2023-05-26-15:06:08.838876,6.0,18.0,460.0
2023-05-26-15:06:08.839875,5.0,5.0,460.0
2023-05-26-15:06:08.840877,6.0,0.0,460.0
2023-05-26-15:06:08.841876,6.0,3.0,460.0
2023-05-26-15:06:08.842876,5.0,2.0,460.0
2023-05-26-15:06:08.843875,4.0,8.0,460.0
2023-05-26-15:06:08.845879,4.0,8.0,460.0
2023-05-26-15:06:08.845879,4.0,8.0,460.0
2023-05-26-15:06:08.846850,4.0,8.0,460.0
2023-05-26-15:06:08.847878,4.0,0.0,460.0
2023-05-26-15:06:08.848875,2.0,2.0,460.0
2023-05-26-15:06:08.849877,2.0,2.0,460.0
2023-05-26-15:06:08.850850,2.0,2.0,460.0
2023-05-26-15:06:08.851875,5.0,4.0,460.0
2023-05-26-15:06:08.852877,8.0,1.0,460.0
2023-05-26-15:06:08.853876,8.0,1.0,460.0
2023-05-26-15:06:08.854882,8.0,1.0,460.0
2023-05-26-15:06:08.855876,5.0,10.0,460.0
2023-05-26-15:06:08.856877,8.0,6.0,460.0
2023-05-26-15:06:08.857874,8.0,6.0,460.0
2023-05-26-15:06:08.858875,8.0,6.0,460.0
2023-05-26-15:06:08.859875,7.0,5.0,460.0
2023-05-26-15:06:08.860878,8.0,0.0,460.0
2023-05-26-15:06:08.861878,8.0,0.0,460.0
2023-05-26-15:06:08.862884,8.0,0.0,460.0
2023-05-26-15:06:08.863886,8.0,0.0,460.0
2023-05-26-15:06:08.864886,4.0,4.0,460.0
2023-05-26-15:06:08.865886,4.0,4.0,460.0
2023-05-26-15:06:08.866887,4.0,4.0,460.0
2023-05-26-15:06:08.867886,4.0,4.0,460.0
2023-05-26-15:06:08.868887,3.0,6.0,460.0
2023-05-26-15:06:08.869888,5.0,4.0,460.0
2023-05-26-15:06:08.870886,5.0,4.0,460.0
2023-05-26-15:06:08.871885,5.0,4.0,460.0
2023-05-26-15:06:08.872887,7.0,3.0,460.0
2023-05-26-15:06:08.873884,3.0,16.0,460.0
2023-05-26-15:06:08.874885,3.0,16.0,460.0
2023-05-26-15:06:08.875884,3.0,16.0,460.0
2023-05-26-15:06:08.876886,3.0,7.0,460.0
2023-05-26-15:06:08.877888,9.0,3.0,460.0
2023-05-26-15:06:08.878885,9.0,3.0,460.0
2023-05-26-15:06:08.880885,9.0,3.0,460.0
2023-05-26-15:06:08.880885,9.0,2.0,460.0
2023-05-26-15:06:08.881886,6.0,3.0,460.0
2023-05-26-15:06:08.882886,6.0,3.0,460.0
2023-05-26-15:06:08.883896,6.0,3.0,460.0
2023-05-26-15:06:08.884887,4.0,3.0,460.0
2023-05-26-15:06:08.885884,4.0,1.0,460.0
2023-05-26-15:06:08.886849,4.0,1.0,460.0
2023-05-26-15:06:08.887850,4.0,1.0,460.0
2023-05-26-15:06:08.888889,5.0,4.0,460.0
2023-05-26-15:06:08.889884,5.0,4.0,460.0
2023-05-26-15:06:08.890884,5.0,4.0,460.0
2023-05-26-15:06:08.891851,5.0,4.0,460.0
2023-05-26-15:06:08.892884,3.0,3.0,460.0
2023-05-26-15:06:08.893888,3.0,3.0,460.0
2023-05-26-15:06:08.894884,3.0,3.0,460.0
2023-05-26-15:06:08.895870,3.0,3.0,460.0
2023-05-26-15:06:08.896884,6.0,9.0,460.0
2023-05-26-15:06:08.897887,6.0,9.0,460.0
2023-05-26-15:06:08.898885,6.0,9.0,460.0
2023-05-26-15:06:08.899884,6.0,9.0,460.0
2023-05-26-15:06:08.900886,2.0,7.0,460.0
2023-05-26-15:06:08.901855,6.0,3.0,460.0
2023-05-26-15:06:08.902886,7.0,6.0,460.0
2023-05-26-15:06:08.903884,7.0,6.0,460.0
2023-05-26-15:06:08.904886,3.0,3.0,460.0
2023-05-26-15:06:08.905884,4.0,2.0,460.0
2023-05-26-15:06:08.906884,4.0,2.0,460.0
2023-05-26-15:06:08.907884,4.0,2.0,460.0
2023-05-26-15:06:08.908885,4.0,2.0,460.0
2023-05-26-15:06:08.909888,5.0,6.0,460.0
2023-05-26-15:06:08.910884,4.0,1.0,460.0
2023-05-26-15:06:08.911886,4.0,1.0,460.0
2023-05-26-15:06:08.913887,4.0,1.0,460.0
2023-05-26-15:06:08.913887,5.0,3.0,460.0
2023-05-26-15:06:08.914887,5.0,3.0,460.0
2023-05-26-15:06:08.915886,5.0,3.0,460.0
2023-05-26-15:06:08.916887,5.0,3.0,460.0
2023-05-26-15:06:08.917886,3.0,4.0,460.0
2023-05-26-15:06:08.918885,2.0,4.0,460.0
2023-05-26-15:06:08.919885,2.0,4.0,460.0
2023-05-26-15:06:08.920887,2.0,4.0,460.0
2023-05-26-15:06:08.921885,4.0,3.0,460.0
2023-05-26-15:06:08.922849,5.0,6.0,460.0
2023-05-26-15:06:08.923886,5.0,6.0,460.0
2023-05-26-15:06:08.924885,5.0,6.0,460.0
2023-05-26-15:06:08.925888,6.0,2.0,460.0
2023-05-26-15:06:08.926887,9.0,1.0,460.0
2023-05-26-15:06:08.927886,9.0,1.0,460.0
2023-05-26-15:06:08.928885,9.0,1.0,460.0
2023-05-26-15:06:08.929886,6.0,4.0,460.0
2023-05-26-15:06:08.930885,2.0,26.0,460.0
2023-05-26-15:06:08.931886,2.0,26.0,460.0
2023-05-26-15:06:08.932850,2.0,26.0,460.0
2023-05-26-15:06:08.933849,3.0,15.0,460.0
2023-05-26-15:06:08.934850,5.0,3.0,460.0
2023-05-26-15:06:08.935878,3.0,2.0,460.0
2023-05-26-15:06:08.936857,3.0,2.0,460.0
2023-05-26-15:06:08.937885,1.0,3.0,460.0
2023-05-26-15:06:08.938878,3.0,9.0,460.0
2023-05-26-15:06:08.939885,4.0,5.0,460.0
2023-05-26-15:06:08.940887,4.0,5.0,460.0
2023-05-26-15:06:08.941889,3.0,28.0,461.0
2023-05-26-15:06:08.942887,4.0,28.0,460.0
2023-05-26-15:06:08.943886,4.0,15.0,460.0
2023-05-26-15:06:08.944885,4.0,15.0,460.0
2023-05-26-15:06:08.945887,4.0,15.0,460.0
2023-05-26-15:06:08.946885,5.0,5.0,460.0
2023-05-26-15:06:08.948886,7.0,24.0,460.0
2023-05-26-15:06:08.948886,7.0,24.0,460.0
2023-05-26-15:06:08.949850,4.0,39.0,460.0
2023-05-26-15:06:08.950909,3.0,41.0,460.0
2023-05-26-15:06:08.951908,5.0,17.0,460.0
2023-05-26-15:06:08.952907,5.0,17.0,460.0
2023-05-26-15:06:08.953907,5.0,17.0,460.0
2023-05-26-15:06:08.954907,5.0,14.0,460.0
2023-05-26-15:06:08.955885,7.0,16.0,460.0
2023-05-26-15:06:08.956907,8.0,18.0,460.0
2023-05-26-15:06:08.957911,8.0,18.0,460.0
2023-05-26-15:06:08.958908,8.0,5.0,460.0
2023-05-26-15:06:08.959908,4.0,17.0,460.0
2023-05-26-15:06:08.960909,3.0,22.0,460.0
2023-05-26-15:06:08.961908,3.0,22.0,460.0
2023-05-26-15:06:08.962910,4.0,16.0,460.0
2023-05-26-15:06:08.963907,3.0,4.0,460.0
2023-05-26-15:06:08.964906,7.0,10.0,460.0
2023-05-26-15:06:08.965851,7.0,10.0,460.0
2023-05-26-15:06:08.966891,3.0,5.0,460.0
2023-05-26-15:06:08.967907,7.0,1.0,460.0
2023-05-26-15:06:08.968914,7.0,0.0,460.0
2023-05-26-15:06:08.969907,7.0,0.0,460.0
2023-05-26-15:06:08.970908,5.0,3.0,460.0
2023-05-26-15:06:08.971907,4.0,3.0,460.0
2023-05-26-15:06:08.972885,2.0,1.0,461.0
2023-05-26-15:06:08.973850,2.0,1.0,461.0
2023-05-26-15:06:08.974907,5.0,1.0,460.0
2023-05-26-15:06:08.975907,8.0,0.0,460.0
2023-05-26-15:06:08.976909,8.0,3.0,460.0
2023-05-26-15:06:08.977851,8.0,3.0,460.0
2023-05-26-15:06:08.978910,3.0,2.0,460.0
2023-05-26-15:06:08.979913,4.0,7.0,460.0
2023-05-26-15:06:08.980908,4.0,5.0,460.0
2023-05-26-15:06:08.981908,4.0,5.0,460.0
2023-05-26-15:06:08.983886,4.0,5.0,460.0
2023-05-26-15:06:08.983886,5.0,3.0,460.0
2023-05-26-15:06:08.984908,4.0,1.0,460.0
2023-05-26-15:06:08.985907,4.0,1.0,460.0
2023-05-26-15:06:08.986907,4.0,1.0,460.0
2023-05-26-15:06:08.987908,3.0,7.0,460.0
2023-05-26-15:06:08.988907,4.0,7.0,460.0
2023-05-26-15:06:08.989891,4.0,7.0,460.0
2023-05-26-15:06:08.990909,4.0,7.0,460.0
2023-05-26-15:06:08.991908,3.0,3.0,460.0
2023-05-26-15:06:08.992909,6.0,2.0,460.0
2023-05-26-15:06:08.993907,6.0,2.0,460.0
2023-05-26-15:06:08.994909,6.0,2.0,460.0
2023-05-26-15:06:08.995907,6.0,4.0,460.0
2023-05-26-15:06:08.996908,5.0,4.0,461.0
2023-05-26-15:06:08.997907,5.0,5.0,460.0
2023-05-26-15:06:08.998909,5.0,5.0,460.0
2023-05-26-15:06:08.999908,5.0,7.0,460.0
2023-05-26-15:06:09.000907,2.0,5.0,460.0
2023-05-26-15:06:09.001912,2.0,5.0,460.0
2023-05-26-15:06:09.002912,2.0,5.0,460.0
2023-05-26-15:06:09.003907,2.0,8.0,460.0
2023-05-26-15:06:09.004908,7.0,3.0,460.0
2023-05-26-15:06:09.005910,4.0,7.0,460.0
2023-05-26-15:06:09.006907,4.0,7.0,460.0
2023-05-26-15:06:09.007907,6.0,4.0,460.0
2023-05-26-15:06:09.008909,8.0,3.0,460.0
2023-05-26-15:06:09.009907,5.0,2.0,460.0
2023-05-26-15:06:09.010909,5.0,2.0,460.0
2023-05-26-15:06:09.011907,9.0,5.0,460.0
2023-05-26-15:06:09.012908,5.0,4.0,460.0
2023-05-26-15:06:09.013907,6.0,3.0,460.0
2023-05-26-15:06:09.014850,6.0,3.0,460.0
2023-05-26-15:06:09.015912,7.0,3.0,460.0
2023-05-26-15:06:09.016909,7.0,3.0,460.0
2023-05-26-15:06:09.018850,7.0,3.0,460.0
2023-05-26-15:06:09.018850,3.0,7.0,460.0
2023-05-26-15:06:09.019911,5.0,1.0,460.0
2023-05-26-15:06:09.020908,6.0,1.0,460.0
2023-05-26-15:06:09.021910,6.0,1.0,460.0
2023-05-26-15:06:09.022888,6.0,1.0,460.0
2023-05-26-15:06:09.023849,8.0,6.0,460.0
2023-05-26-15:06:09.024848,7.0,4.0,460.0
2023-05-26-15:06:09.025848,7.0,4.0,460.0
2023-05-26-15:06:09.026883,7.0,4.0,460.0
2023-05-26-15:06:09.027890,8.0,2.0,460.0
2023-05-26-15:06:09.028885,3.0,9.0,460.0
2023-05-26-15:06:09.029883,5.0,3.0,460.0
2023-05-26-15:06:09.030901,5.0,3.0,460.0
2023-05-26-15:06:09.031886,5.0,3.0,460.0
2023-05-26-15:06:09.032889,4.0,4.0,460.0
2023-05-26-15:06:09.033905,2.0,0.0,460.0
2023-05-26-15:06:09.034906,2.0,0.0,460.0
2023-05-26-15:06:09.035907,2.0,0.0,460.0
2023-05-26-15:06:09.036906,4.0,2.0,460.0
2023-05-26-15:06:09.037888,4.0,4.0,460.0
2023-05-26-15:06:09.038907,6.0,6.0,460.0
2023-05-26-15:06:09.039915,6.0,6.0,460.0
2023-05-26-15:06:09.040909,6.0,2.0,460.0
2023-05-26-15:06:09.041848,7.0,3.0,460.0
2023-05-26-15:06:09.042886,7.0,3.0,460.0
2023-05-26-15:06:09.043906,7.0,3.0,460.0
2023-05-26-15:06:09.044907,3.0,3.0,460.0
2023-05-26-15:06:09.045907,3.0,8.0,460.0
2023-05-26-15:06:09.046908,3.0,8.0,460.0
2023-05-26-15:06:09.047906,3.0,8.0,460.0
2023-05-26-15:06:09.048906,3.0,6.0,460.0
2023-05-26-15:06:09.049888,3.0,18.0,460.0
2023-05-26-15:06:09.050909,6.0,18.0,460.0
2023-05-26-15:06:09.052888,6.0,18.0,460.0
2023-05-26-15:06:09.052888,6.0,10.0,460.0
2023-05-26-15:06:09.053910,6.0,10.0,460.0
2023-05-26-15:06:09.054906,6.0,10.0,460.0
2023-05-26-15:06:09.055907,6.0,10.0,460.0
2023-05-26-15:06:09.056909,5.0,10.0,460.0
2023-05-26-15:06:09.057879,5.0,3.0,460.0
2023-05-26-15:06:09.058909,3.0,0.0,460.0
2023-05-26-15:06:09.059850,3.0,0.0,460.0
2023-05-26-15:06:09.060907,5.0,1.0,460.0
2023-05-26-15:06:09.061912,5.0,3.0,460.0
2023-05-26-15:06:09.062907,7.0,5.0,460.0
2023-05-26-15:06:09.063851,7.0,5.0,460.0
2023-05-26-15:06:09.064912,4.0,7.0,460.0
2023-05-26-15:06:09.065907,4.0,1.0,460.0
2023-05-26-15:06:09.066907,4.0,4.0,460.0
2023-05-26-15:06:09.067907,4.0,4.0,460.0
2023-05-26-15:06:09.068906,5.0,3.0,460.0
2023-05-26-15:06:09.069909,5.0,3.0,460.0
2023-05-26-15:06:09.070907,5.0,0.0,460.0
2023-05-26-15:06:09.071906,5.0,0.0,460.0
2023-05-26-15:06:09.072909,5.0,0.0,460.0
2023-05-26-15:06:09.073886,6.0,0.0,460.0
2023-05-26-15:06:09.074909,4.0,1.0,460.0
2023-05-26-15:06:09.075907,5.0,2.0,460.0
2023-05-26-15:06:09.076907,5.0,2.0,460.0
2023-05-26-15:06:09.077906,7.0,7.0,460.0
2023-05-26-15:06:09.078907,5.0,1.0,460.0
2023-05-26-15:06:09.079906,5.0,1.0,460.0
2023-05-26-15:06:09.080906,5.0,1.0,460.0
2023-05-26-15:06:09.081907,3.0,9.0,460.0
2023-05-26-15:06:09.082908,2.0,4.0,460.0
2023-05-26-15:06:09.083907,2.0,4.0,460.0
2023-05-26-15:06:09.084907,4.0,6.0,460.0
2023-05-26-15:06:09.086887,2.0,3.0,460.0
2023-05-26-15:06:09.086887,2.0,3.0,460.0
2023-05-26-15:06:09.087906,2.0,3.0,460.0
2023-05-26-15:06:09.088909,2.0,3.0,460.0
2023-05-26-15:06:09.089906,4.0,1.0,460.0
2023-05-26-15:06:09.090886,8.0,3.0,460.0
2023-05-26-15:06:09.091907,7.0,2.0,460.0
2023-05-26-15:06:09.092907,7.0,2.0,460.0
2023-05-26-15:06:09.093908,7.0,1.0,460.0
2023-05-26-15:06:09.094907,6.0,4.0,460.0
2023-05-26-15:06:09.095908,7.0,3.0,460.0
2023-05-26-15:06:09.096906,7.0,3.0,460.0
2023-05-26-15:06:09.097907,5.0,1.0,460.0
2023-05-26-15:06:09.098907,0.0,0.0,460.0
2023-05-26-15:06:09.099906,7.0,4.0,460.0
2023-05-26-15:06:09.100851,7.0,4.0,460.0
2023-05-26-15:06:09.101910,4.0,11.0,460.0
2023-05-26-15:06:09.102906,2.0,18.0,460.0
2023-05-26-15:06:09.103906,2.0,18.0,460.0
2023-05-26-15:06:09.104851,2.0,18.0,460.0
2023-05-26-15:06:09.105907,3.0,11.0,460.0
2023-05-26-15:06:09.106909,3.0,1.0,460.0
2023-05-26-15:06:09.107906,5.0,2.0,460.0
2023-05-26-15:06:09.108888,5.0,2.0,460.0
2023-05-26-15:06:09.109907,6.0,1.0,460.0
2023-05-26-15:06:09.110907,5.0,1.0,460.0
2023-05-26-15:06:09.111906,7.0,11.0,460.0
2023-05-26-15:06:09.112908,7.0,11.0,460.0
2023-05-26-15:06:09.113907,5.0,11.0,460.0
2023-05-26-15:06:09.114908,5.0,6.0,460.0
2023-05-26-15:06:09.115908,6.0,5.0,460.0
2023-05-26-15:06:09.116889,6.0,5.0,460.0
2023-05-26-15:06:09.117909,2.0,0.0,460.0
2023-05-26-15:06:09.119907,2.0,0.0,460.0
2023-05-26-15:06:09.119907,2.0,0.0,460.0
2023-05-26-15:06:09.120910,2.0,0.0,460.0
2023-05-26-15:06:09.121909,2.0,0.0,460.0
2023-05-26-15:06:09.122909,4.0,1.0,460.0
2023-05-26-15:06:09.123906,6.0,5.0,460.0
2023-05-26-15:06:09.124906,6.0,5.0,460.0
2023-05-26-15:06:09.125885,6.0,5.0,460.0
2023-05-26-15:06:09.126907,5.0,8.0,460.0
2023-05-26-15:06:09.127907,5.0,19.0,460.0
2023-05-26-15:06:09.128909,3.0,4.0,460.0
2023-05-26-15:06:09.129911,3.0,4.0,460.0
2023-05-26-15:06:09.130908,5.0,3.0,460.0
2023-05-26-15:06:09.131907,8.0,1.0,460.0
2023-05-26-15:06:09.132911,8.0,4.0,460.0
2023-05-26-15:06:09.133910,8.0,4.0,460.0
2023-05-26-15:06:09.134914,5.0,2.0,460.0
2023-05-26-15:06:09.135849,3.0,7.0,460.0
2023-05-26-15:06:09.136908,3.0,7.0,460.0
2023-05-26-15:06:09.137907,3.0,7.0,460.0
2023-05-26-15:06:09.138909,1.0,7.0,460.0
2023-05-26-15:06:09.139913,1.0,0.0,460.0
2023-05-26-15:06:09.140908,4.0,10.0,460.0
2023-05-26-15:06:09.141907,4.0,10.0,460.0
2023-05-26-15:06:09.142908,6.0,8.0,460.0
2023-05-26-15:06:09.143907,10.0,14.0,460.0
2023-05-26-15:06:09.144907,6.0,14.0,460.0
2023-05-26-15:06:09.145850,6.0,14.0,460.0
2023-05-26-15:06:09.146908,4.0,9.0,460.0
2023-05-26-15:06:09.147907,0.0,5.0,460.0
2023-05-26-15:06:09.148886,5.0,7.0,460.0
2023-05-26-15:06:09.149848,4.0,7.0,460.0
2023-05-26-15:06:09.150898,8.0,1.0,460.0
2023-05-26-15:06:09.151908,8.0,1.0,460.0
2023-05-26-15:06:09.153886,2.0,2.0,460.0
2023-05-26-15:06:09.153886,2.0,12.0,460.0
2023-05-26-15:06:09.154909,5.0,9.0,460.0
2023-05-26-15:06:09.155908,3.0,8.0,460.0
2023-05-26-15:06:09.156907,4.0,3.0,460.0
2023-05-26-15:06:09.157907,4.0,3.0,460.0
2023-05-26-15:06:09.158908,4.0,3.0,460.0
2023-05-26-15:06:09.159908,5.0,2.0,460.0
2023-05-26-15:06:09.160907,5.0,4.0,460.0
2023-05-26-15:06:09.161906,5.0,4.0,460.0
2023-05-26-15:06:09.162907,5.0,4.0,460.0
2023-05-26-15:06:09.163907,5.0,7.0,460.0
2023-05-26-15:06:09.164909,2.0,5.0,460.0
2023-05-26-15:06:09.165910,2.0,5.0,460.0
2023-05-26-15:06:09.166908,2.0,5.0,460.0
2023-05-26-15:06:09.167907,5.0,5.0,460.0
2023-05-26-15:06:09.168908,5.0,5.0,460.0
2023-05-26-15:06:09.169908,4.0,1.0,460.0
2023-05-26-15:06:09.170909,2.0,6.0,460.0
2023-05-26-15:06:09.171889,6.0,3.0,460.0
2023-05-26-15:06:09.172886,7.0,5.0,460.0
2023-05-26-15:06:09.173907,7.0,5.0,460.0
2023-05-26-15:06:09.174908,7.0,5.0,460.0
2023-05-26-15:06:09.175907,4.0,3.0,460.0
2023-05-26-15:06:09.176908,6.0,3.0,460.0
2023-05-26-15:06:09.177911,7.0,0.0,460.0
2023-05-26-15:06:09.178907,7.0,0.0,460.0
2023-05-26-15:06:09.179907,5.0,6.0,460.0
2023-05-26-15:06:09.180908,5.0,1.0,460.0
2023-05-26-15:06:09.181910,7.0,1.0,460.0
2023-05-26-15:06:09.182910,7.0,1.0,460.0
2023-05-26-15:06:09.183915,4.0,2.0,460.0
2023-05-26-15:06:09.184909,5.0,5.0,460.0
2023-05-26-15:06:09.186850,5.0,5.0,460.0
2023-05-26-15:06:09.187851,3.0,18.0,460.0
2023-05-26-15:06:09.187851,5.0,8.0,460.0
2023-05-26-15:06:09.188848,5.0,8.0,460.0
2023-05-26-15:06:09.189909,5.0,8.0,460.0
2023-05-26-15:06:09.190850,5.0,8.0,460.0
2023-05-26-15:06:09.191907,6.0,3.0,461.0
2023-05-26-15:06:09.192908,6.0,2.0,460.0
2023-05-26-15:06:09.193911,5.0,1.0,460.0
2023-05-26-15:06:09.194908,5.0,1.0,460.0
2023-05-26-15:06:09.195907,8.0,0.0,460.0
2023-05-26-15:06:09.196908,7.0,0.0,460.0
2023-05-26-15:06:09.197910,8.0,2.0,460.0
2023-05-26-15:06:09.198885,8.0,2.0,460.0
2023-05-26-15:06:09.199886,8.0,2.0,460.0
2023-05-26-15:06:09.200895,2.0,4.0,460.0
2023-05-26-15:06:09.201894,3.0,8.0,460.0
2023-05-26-15:06:09.202909,3.0,8.0,460.0
2023-05-26-15:06:09.203906,3.0,6.0,460.0
2023-05-26-15:06:09.204885,5.0,4.0,460.0
2023-05-26-15:06:09.205885,7.0,2.0,460.0
2023-05-26-15:06:09.206886,7.0,2.0,460.0
2023-05-26-15:06:09.207885,7.0,2.0,460.0
2023-05-26-15:06:09.208886,5.0,5.0,460.0
2023-05-26-15:06:09.209886,6.0,7.0,460.0
2023-05-26-15:06:09.210887,5.0,7.0,460.0
2023-05-26-15:06:09.211887,5.0,7.0,460.0
2023-05-26-15:06:09.212885,6.0,7.0,460.0
2023-05-26-15:06:09.213888,3.0,6.0,460.0
2023-05-26-15:06:09.214886,5.0,3.0,460.0
2023-05-26-15:06:09.215886,5.0,3.0,460.0
2023-05-26-15:06:09.216910,5.0,2.0,460.0
2023-05-26-15:06:09.217891,2.0,2.0,461.0
2023-05-26-15:06:09.218887,3.0,1.0,460.0
2023-05-26-15:06:09.219885,3.0,1.0,460.0
2023-05-26-15:06:09.220885,5.0,0.0,460.0
2023-05-26-15:06:09.222885,5.0,13.0,460.0
2023-05-26-15:06:09.222885,5.0,13.0,460.0
2023-05-26-15:06:09.223907,5.0,13.0,460.0
2023-05-26-15:06:09.224907,4.0,9.0,460.0
2023-05-26-15:06:09.225911,6.0,2.0,460.0
2023-05-26-15:06:09.226907,7.0,0.0,460.0
2023-05-26-15:06:09.227850,7.0,0.0,460.0
2023-05-26-15:06:09.228907,6.0,6.0,460.0
2023-05-26-15:06:09.229910,4.0,7.0,460.0
2023-05-26-15:06:09.230907,9.0,3.0,460.0
2023-05-26-15:06:09.231850,9.0,3.0,460.0
2023-05-26-15:06:09.232909,9.0,0.0,460.0
2023-05-26-15:06:09.233908,4.0,5.0,460.0
2023-05-26-15:06:09.234909,1.0,10.0,460.0
2023-05-26-15:06:09.235867,1.0,10.0,460.0
2023-05-26-15:06:09.236849,5.0,10.0,460.0
2023-05-26-15:06:09.237886,3.0,4.0,460.0
2023-05-26-15:06:09.238886,3.0,4.0,460.0
2023-05-26-15:06:09.239885,3.0,4.0,460.0
2023-05-26-15:06:09.240886,4.0,2.0,459.0
2023-05-26-15:06:09.241885,9.0,2.0,460.0
2023-05-26-15:06:09.242887,6.0,3.0,460.0
2023-05-26-15:06:09.243888,6.0,3.0,460.0
2023-05-26-15:06:09.244885,6.0,3.0,460.0
2023-05-26-15:06:09.245888,4.0,6.0,459.0
2023-05-26-15:06:09.246892,5.0,5.0,460.0
2023-05-26-15:06:09.247885,3.0,3.0,459.0
2023-05-26-15:06:09.248886,3.0,3.0,459.0
2023-05-26-15:06:09.249886,4.0,0.0,459.0
2023-05-26-15:06:09.250897,4.0,4.0,459.0
2023-05-26-15:06:09.251894,3.0,7.0,459.0
2023-05-26-15:06:09.252885,2.0,12.0,459.0
2023-05-26-15:06:09.253886,2.0,3.0,459.0
2023-05-26-15:06:09.254886,3.0,9.0,459.0
2023-05-26-15:06:09.256886,8.0,6.0,459.0
2023-05-26-15:06:09.256886,8.0,6.0,459.0
2023-05-26-15:06:09.257911,5.0,7.0,459.0
2023-05-26-15:06:09.258908,7.0,2.0,458.0
2023-05-26-15:06:09.259907,7.0,2.0,458.0
2023-05-26-15:06:09.260907,7.0,2.0,458.0
2023-05-26-15:06:09.261910,8.0,7.0,458.0
2023-05-26-15:06:09.262909,4.0,2.0,458.0
2023-05-26-15:06:09.263907,8.0,0.0,458.0
2023-05-26-15:06:09.264908,8.0,0.0,458.0
2023-05-26-15:06:09.265907,8.0,19.0,458.0
2023-05-26-15:06:09.266913,0.0,29.0,458.0
2023-05-26-15:06:09.267907,1.0,33.0,458.0
2023-05-26-15:06:09.268848,1.0,33.0,458.0
2023-05-26-15:06:09.269883,5.0,18.0,457.0
2023-05-26-15:06:09.270884,7.0,3.0,457.0
2023-05-26-15:06:09.271885,7.0,3.0,457.0
2023-05-26-15:06:09.272850,7.0,3.0,457.0
2023-05-26-15:06:09.273911,8.0,3.0,457.0
2023-05-26-15:06:09.274907,4.0,1.0,457.0
2023-05-26-15:06:09.275911,4.0,2.0,456.0
2023-05-26-15:06:09.276849,4.0,2.0,456.0
2023-05-26-15:06:09.277910,6.0,1.0,456.0
2023-05-26-15:06:09.278910,5.0,2.0,456.0
2023-05-26-15:06:09.279907,5.0,4.0,455.0
2023-05-26-15:06:09.280910,5.0,4.0,455.0
2023-05-26-15:06:09.281907,4.0,4.0,455.0
2023-05-26-15:06:09.282909,5.0,3.0,455.0
2023-05-26-15:06:09.283909,7.0,2.0,455.0
2023-05-26-15:06:09.284907,7.0,2.0,455.0
2023-05-26-15:06:09.285907,7.0,2.0,455.0
2023-05-26-15:06:09.286907,2.0,6.0,454.0
2023-05-26-15:06:09.287907,4.0,6.0,454.0
2023-05-26-15:06:09.288907,4.0,6.0,454.0
2023-05-26-15:06:09.290887,4.0,6.0,454.0
2023-05-26-15:06:09.290887,2.0,2.0,454.0
2023-05-26-15:06:09.291850,4.0,4.0,453.0
2023-05-26-15:06:09.292910,4.0,4.0,453.0
2023-05-26-15:06:09.293909,4.0,4.0,453.0
2023-05-26-15:06:09.294907,6.0,3.0,453.0
2023-05-26-15:06:09.295907,5.0,5.0,452.0
2023-05-26-15:06:09.296908,5.0,3.0,452.0
2023-05-26-15:06:09.297907,5.0,3.0,452.0
2023-05-26-15:06:09.298908,6.0,1.0,451.0
2023-05-26-15:06:09.299899,6.0,2.0,451.0
2023-05-26-15:06:09.300909,3.0,0.0,450.0
2023-05-26-15:06:09.301909,3.0,0.0,450.0
2023-05-26-15:06:09.302907,3.0,6.0,450.0
2023-05-26-15:06:09.303907,2.0,7.0,449.0
2023-05-26-15:06:09.304907,6.0,4.0,448.0
2023-05-26-15:06:09.305910,6.0,4.0,448.0
2023-05-26-15:06:09.306907,5.0,5.0,448.0
2023-05-26-15:06:09.307916,7.0,3.0,447.0
2023-05-26-15:06:09.308908,7.0,3.0,447.0
2023-05-26-15:06:09.309909,7.0,3.0,447.0
2023-05-26-15:06:09.310907,4.0,2.0,446.0
2023-05-26-15:06:09.311907,4.0,2.0,445.0
2023-05-26-15:06:09.312909,4.0,6.0,444.0
2023-05-26-15:06:09.313850,4.0,6.0,444.0
2023-05-26-15:06:09.314908,7.0,6.0,444.0
2023-05-26-15:06:09.315909,7.0,8.0,443.0
2023-05-26-15:06:09.316853,2.0,6.0,442.0
2023-05-26-15:06:09.317850,2.0,6.0,442.0
2023-05-26-15:06:09.318890,4.0,4.0,442.0
2023-05-26-15:06:09.319877,5.0,2.0,441.0
2023-05-26-15:06:09.320886,6.0,0.0,440.0
2023-05-26-15:06:09.321878,6.0,0.0,440.0
2023-05-26-15:06:09.322889,6.0,2.0,439.0
2023-05-26-15:06:09.324885,4.0,1.0,438.0
2023-05-26-15:06:09.324885,4.0,1.0,438.0
2023-05-26-15:06:09.325909,4.0,1.0,438.0
2023-05-26-15:06:09.326907,6.0,2.0,437.0
2023-05-26-15:06:09.327908,6.0,4.0,436.0
2023-05-26-15:06:09.328908,7.0,3.0,435.0
2023-05-26-15:06:09.329907,7.0,3.0,435.0
2023-05-26-15:06:09.330908,7.0,3.0,435.0
2023-05-26-15:06:09.331907,5.0,5.0,434.0
2023-05-26-15:06:09.332907,4.0,6.0,433.0
2023-05-26-15:06:09.333908,4.0,6.0,433.0
2023-05-26-15:06:09.334913,4.0,6.0,433.0
2023-05-26-15:06:09.335908,3.0,23.0,432.0
2023-05-26-15:06:09.336907,6.0,5.0,431.0
2023-05-26-15:06:09.337886,8.0,2.0,430.0
2023-05-26-15:06:09.338887,8.0,2.0,430.0
2023-05-26-15:06:09.339911,8.0,18.0,429.0
2023-05-26-15:06:09.340907,7.0,18.0,427.0
2023-05-26-15:06:09.341909,7.0,18.0,427.0
2023-05-26-15:06:09.342909,7.0,18.0,427.0
2023-05-26-15:06:09.343907,7.0,18.0,427.0
2023-05-26-15:06:09.344908,5.0,4.0,426.0
2023-05-26-15:06:09.345907,2.0,1.0,425.0
2023-05-26-15:06:09.346908,2.0,1.0,425.0
2023-05-26-15:06:09.347909,4.0,1.0,424.0
2023-05-26-15:06:09.348907,3.0,7.0,423.0
2023-05-26-15:06:09.349909,4.0,2.0,422.0
2023-05-26-15:06:09.350913,4.0,2.0,422.0
2023-05-26-15:06:09.351908,5.0,5.0,422.0
2023-05-26-15:06:09.352908,4.0,0.0,420.0
2023-05-26-15:06:09.353910,5.0,1.0,419.0
2023-05-26-15:06:09.354850,5.0,1.0,419.0
2023-05-26-15:06:09.355911,6.0,6.0,419.0
2023-05-26-15:06:09.357887,3.0,1.0,418.0
2023-05-26-15:06:09.357887,5.0,2.0,417.0
2023-05-26-15:06:09.358850,5.0,2.0,417.0
2023-05-26-15:06:09.359907,7.0,5.0,417.0
2023-05-26-15:06:09.360908,4.0,7.0,415.0
2023-05-26-15:06:09.361911,5.0,5.0,415.0
2023-05-26-15:06:09.362862,5.0,5.0,415.0
2023-05-26-15:06:09.363908,3.0,10.0,414.0
2023-05-26-15:06:09.364885,5.0,1.0,412.0
2023-05-26-15:06:09.365907,5.0,1.0,412.0
2023-05-26-15:06:09.366908,5.0,1.0,412.0
2023-05-26-15:06:09.367913,3.0,0.0,411.0
2023-05-26-15:06:09.368907,4.0,6.0,411.0
2023-05-26-15:06:09.369910,3.0,13.0,410.0
2023-05-26-15:06:09.370907,3.0,13.0,410.0
2023-05-26-15:06:09.371907,3.0,13.0,410.0
2023-05-26-15:06:09.372907,5.0,23.0,409.0
2023-05-26-15:06:09.373909,4.0,1.0,407.0
2023-05-26-15:06:09.374911,4.0,1.0,407.0
2023-05-26-15:06:09.375907,4.0,1.0,407.0
2023-05-26-15:06:09.376907,5.0,1.0,406.0
2023-05-26-15:06:09.377907,6.0,0.0,405.0
2023-05-26-15:06:09.378885,5.0,4.0,405.0
2023-05-26-15:06:09.379907,5.0,4.0,405.0
2023-05-26-15:06:09.380913,8.0,4.0,404.0
2023-05-26-15:06:09.381908,5.0,6.0,403.0
2023-05-26-15:06:09.382907,3.0,5.0,402.0
2023-05-26-15:06:09.383908,3.0,5.0,402.0
2023-05-26-15:06:09.384907,4.0,3.0,402.0
2023-05-26-15:06:09.385910,4.0,3.0,401.0
2023-05-26-15:06:09.386907,5.0,2.0,400.0
2023-05-26-15:06:09.387911,5.0,2.0,400.0
2023-05-26-15:06:09.388909,6.0,1.0,400.0
2023-05-26-15:06:09.389848,6.0,3.0,398.0
2023-05-26-15:06:09.391886,6.0,3.0,398.0
2023-05-26-15:06:09.391886,7.0,3.0,397.0
2023-05-26-15:06:09.392885,5.0,8.0,395.0
2023-05-26-15:06:09.393886,5.0,8.0,395.0
2023-05-26-15:06:09.394885,5.0,8.0,395.0
2023-05-26-15:06:09.395885,5.0,8.0,395.0
2023-05-26-15:06:09.396907,7.0,11.0,395.0
2023-05-26-15:06:09.397907,3.0,8.0,394.0
2023-05-26-15:06:09.398912,3.0,12.0,393.0
2023-05-26-15:06:09.399859,3.0,12.0,393.0
2023-05-26-15:06:09.400920,5.0,18.0,393.0
2023-05-26-15:06:09.401911,5.0,3.0,391.0
2023-05-26-15:06:09.402907,5.0,3.0,391.0
2023-05-26-15:06:09.403850,5.0,3.0,391.0
2023-05-26-15:06:09.404907,4.0,8.0,390.0
2023-05-26-15:06:09.405909,6.0,3.0,389.0
2023-05-26-15:06:09.406914,6.0,1.0,389.0
2023-05-26-15:06:09.407911,6.0,1.0,389.0
2023-05-26-15:06:09.408907,8.0,1.0,387.0
2023-05-26-15:06:09.409907,4.0,0.0,386.0
2023-05-26-15:06:09.410908,4.0,0.0,386.0
2023-05-26-15:06:09.411907,4.0,0.0,386.0
2023-05-26-15:06:09.412907,4.0,0.0,386.0
2023-05-26-15:06:09.413908,7.0,4.0,385.0
2023-05-26-15:06:09.414907,5.0,1.0,384.0
2023-05-26-15:06:09.415907,5.0,1.0,384.0
2023-05-26-15:06:09.416888,5.0,1.0,384.0
2023-05-26-15:06:09.417910,2.0,8.0,382.0
2023-05-26-15:06:09.418907,3.0,7.0,382.0
2023-05-26-15:06:09.419907,3.0,7.0,382.0
2023-05-26-15:06:09.420894,3.0,7.0,382.0
2023-05-26-15:06:09.421909,2.0,5.0,381.0
2023-05-26-15:06:09.422907,5.0,12.0,380.0
2023-05-26-15:06:09.423907,2.0,12.0,380.0
2023-05-26-15:06:09.424908,2.0,12.0,380.0
2023-05-26-15:06:09.426912,2.0,12.0,380.0
2023-05-26-15:06:09.426912,8.0,6.0,379.0
2023-05-26-15:06:09.427908,8.0,6.0,379.0
2023-05-26-15:06:09.428908,3.0,3.0,377.0
2023-05-26-15:06:09.429909,2.0,2.0,376.0
2023-05-26-15:06:09.430907,11.0,7.0,375.0
2023-05-26-15:06:09.431907,11.0,7.0,375.0
2023-05-26-15:06:09.432917,11.0,7.0,375.0
2023-05-26-15:06:09.433910,10.0,0.0,375.0
2023-05-26-15:06:09.434908,2.0,14.0,374.0
2023-05-26-15:06:09.435910,2.0,26.0,373.0
2023-05-26-15:06:09.436907,2.0,26.0,373.0
2023-05-26-15:06:09.437909,0.0,16.0,373.0
2023-05-26-15:06:09.438907,5.0,10.0,372.0
2023-05-26-15:06:09.439907,5.0,1.0,371.0
2023-05-26-15:06:09.440850,5.0,1.0,371.0
2023-05-26-15:06:09.441907,8.0,3.0,371.0
2023-05-26-15:06:09.442913,3.0,2.0,369.0
2023-05-26-15:06:09.443907,3.0,2.0,369.0
2023-05-26-15:06:09.444851,3.0,2.0,369.0
2023-05-26-15:06:09.445914,3.0,1.0,369.0
2023-05-26-15:06:09.446912,6.0,1.0,368.0
2023-05-26-15:06:09.447908,4.0,9.0,368.0
2023-05-26-15:06:09.448887,4.0,9.0,368.0
2023-05-26-15:06:09.449910,6.0,13.0,367.0
2023-05-26-15:06:09.450887,6.0,3.0,366.0
2023-05-26-15:06:09.451907,6.0,3.0,366.0
2023-05-26-15:06:09.452908,6.0,3.0,366.0
2023-05-26-15:06:09.453909,5.0,3.0,364.0
2023-05-26-15:06:09.454910,4.0,2.0,363.0
2023-05-26-15:06:09.455909,4.0,2.0,363.0
2023-05-26-15:06:09.456909,4.0,2.0,363.0
2023-05-26-15:06:09.457907,5.0,1.0,363.0
2023-05-26-15:06:09.459889,2.0,2.0,361.0
2023-05-26-15:06:09.459889,2.0,2.0,361.0
2023-05-26-15:06:09.460909,2.0,2.0,361.0
2023-05-26-15:06:09.461907,2.0,2.0,361.0
2023-05-26-15:06:09.462907,6.0,2.0,360.0
2023-05-26-15:06:09.463907,4.0,2.0,359.0
2023-05-26-15:06:09.464909,4.0,2.0,359.0
2023-05-26-15:06:09.465910,4.0,2.0,359.0
2023-05-26-15:06:09.466907,3.0,0.0,359.0
2023-05-26-15:06:09.467907,5.0,3.0,358.0
2023-05-26-15:06:09.468910,6.0,8.0,357.0
2023-05-26-15:06:09.469909,6.0,8.0,357.0
2023-05-26-15:06:09.470849,2.0,6.0,357.0
2023-05-26-15:06:09.471885,3.0,1.0,355.0
2023-05-26-15:06:09.472907,3.0,1.0,355.0
2023-05-26-15:06:09.473910,3.0,1.0,355.0
2023-05-26-15:06:09.474850,6.0,1.0,353.0
2023-05-26-15:06:09.475908,6.0,1.0,353.0
2023-05-26-15:06:09.476909,6.0,1.0,353.0
2023-05-26-15:06:09.477907,6.0,1.0,353.0
2023-05-26-15:06:09.478911,8.0,2.0,352.0
2023-05-26-15:06:09.479908,7.0,3.0,352.0
2023-05-26-15:06:09.480907,3.0,2.0,351.0
2023-05-26-15:06:09.481910,3.0,2.0,351.0
2023-05-26-15:06:09.482907,7.0,0.0,351.0
2023-05-26-15:06:09.483910,4.0,4.0,350.0
2023-05-26-15:06:09.484907,6.0,7.0,349.0
2023-05-26-15:06:09.485850,6.0,7.0,349.0
2023-05-26-15:06:09.486908,3.0,5.0,348.0
2023-05-26-15:06:09.487892,6.0,7.0,348.0
2023-05-26-15:06:09.488908,6.0,6.0,347.0
2023-05-26-15:06:09.489850,6.0,6.0,347.0
2023-05-26-15:06:09.490907,4.0,6.0,346.0
2023-05-26-15:06:09.492907,4.0,5.0,346.0
2023-05-26-15:06:09.492907,7.0,4.0,345.0
2023-05-26-15:06:09.493914,7.0,4.0,345.0
2023-05-26-15:06:09.494911,7.0,2.0,345.0
2023-05-26-15:06:09.495907,6.0,10.0,344.0
2023-05-26-15:06:09.496909,8.0,4.0,343.0
2023-05-26-15:06:09.497910,8.0,4.0,343.0
2023-05-26-15:06:09.498909,8.0,4.0,343.0
2023-05-26-15:06:09.499909,4.0,6.0,342.0
2023-05-26-15:06:09.500908,5.0,6.0,341.0
2023-05-26-15:06:09.501909,5.0,6.0,341.0
2023-05-26-15:06:09.502907,5.0,6.0,341.0
2023-05-26-15:06:09.503907,4.0,3.0,340.0
2023-05-26-15:06:09.504884,6.0,4.0,339.0
2023-05-26-15:06:09.505907,6.0,4.0,339.0
2023-05-26-15:06:09.506907,6.0,4.0,339.0
2023-05-26-15:06:09.507907,5.0,4.0,339.0
2023-05-26-15:06:09.508908,4.0,3.0,338.0
2023-05-26-15:06:09.509908,5.0,2.0,337.0
2023-05-26-15:06:09.510912,5.0,2.0,337.0
2023-05-26-15:06:09.511908,4.0,1.0,337.0
2023-05-26-15:06:09.512908,7.0,4.0,336.0
2023-05-26-15:06:09.513910,9.0,5.0,336.0
2023-05-26-15:06:09.514907,9.0,5.0,336.0
2023-05-26-15:06:09.515910,5.0,19.0,336.0
2023-05-26-15:06:09.516893,2.0,7.0,335.0
2023-05-26-15:06:09.517909,5.0,2.0,334.0
2023-05-26-15:06:09.518908,5.0,2.0,334.0
2023-05-26-15:06:09.519892,4.0,19.0,333.0
2023-05-26-15:06:09.520907,4.0,18.0,333.0
2023-05-26-15:06:09.521908,4.0,18.0,333.0
2023-05-26-15:06:09.522907,4.0,18.0,333.0
2023-05-26-15:06:09.523907,0.0,25.0,332.0
2023-05-26-15:06:09.524907,6.0,3.0,331.0
2023-05-26-15:06:09.525907,6.0,3.0,331.0
2023-05-26-15:06:09.527885,6.0,3.0,331.0
2023-05-26-15:06:09.527885,6.0,3.0,331.0
2023-05-26-15:06:09.528909,4.0,0.0,330.0
2023-05-26-15:06:09.529910,6.0,2.0,329.0
2023-05-26-15:06:09.530850,6.0,2.0,329.0
2023-05-26-15:06:09.531910,4.0,4.0,329.0
2023-05-26-15:06:09.532907,3.0,3.0,328.0
2023-05-26-15:06:09.533909,6.0,5.0,328.0
2023-05-26-15:06:09.534850,6.0,5.0,328.0
2023-05-26-15:06:09.535886,6.0,5.0,328.0
2023-05-26-15:06:09.536884,6.0,7.0,328.0
2023-05-26-15:06:09.537887,7.0,4.0,326.0
2023-05-26-15:06:09.538884,7.0,4.0,326.0
2023-05-26-15:06:09.539884,3.0,7.0,326.0
2023-05-26-15:06:09.540884,2.0,8.0,325.0
2023-05-26-15:06:09.541884,2.0,8.0,325.0
2023-05-26-15:06:09.542888,2.0,8.0,325.0
2023-05-26-15:06:09.543907,2.0,8.0,325.0
2023-05-26-15:06:09.544907,4.0,4.0,324.0
2023-05-26-15:06:09.545910,10.0,3.0,323.0
2023-05-26-15:06:09.546907,10.0,3.0,323.0
2023-05-26-15:06:09.547910,10.0,3.0,323.0
2023-05-26-15:06:09.548908,8.0,4.0,323.0
2023-05-26-15:06:09.549892,4.0,6.0,322.0
2023-05-26-15:06:09.550849,5.0,10.0,322.0
2023-05-26-15:06:09.551907,5.0,10.0,322.0
2023-05-26-15:06:09.552909,7.0,12.0,322.0
2023-05-26-15:06:09.553907,4.0,14.0,321.0
2023-05-26-15:06:09.554907,6.0,3.0,320.0
2023-05-26-15:06:09.555907,6.0,3.0,320.0
2023-05-26-15:06:09.556907,5.0,4.0,320.0
2023-05-26-15:06:09.557907,5.0,3.0,319.0
2023-05-26-15:06:09.558906,3.0,2.0,319.0
2023-05-26-15:06:09.559907,3.0,2.0,319.0
2023-05-26-15:06:09.560908,6.0,2.0,318.0
2023-05-26-15:06:09.561910,5.0,2.0,317.0
2023-05-26-15:06:09.563887,5.0,2.0,317.0
2023-05-26-15:06:09.563887,5.0,5.0,317.0
2023-05-26-15:06:09.564908,5.0,3.0,316.0
2023-05-26-15:06:09.565908,5.0,3.0,316.0
2023-05-26-15:06:09.566912,5.0,3.0,316.0
2023-05-26-15:06:09.567906,5.0,3.0,316.0
2023-05-26-15:06:09.568911,5.0,6.0,316.0
2023-05-26-15:06:09.569908,6.0,3.0,315.0
2023-05-26-15:06:09.570907,2.0,5.0,315.0
2023-05-26-15:06:09.571849,2.0,5.0,315.0
2023-05-26-15:06:09.572907,4.0,0.0,314.0
2023-05-26-15:06:09.573907,5.0,3.0,313.0
2023-05-26-15:06:09.574906,7.0,3.0,313.0
2023-05-26-15:06:09.575863,7.0,3.0,313.0
2023-05-26-15:06:09.576907,4.0,2.0,312.0
2023-05-26-15:06:09.577910,4.0,2.0,312.0
2023-05-26-15:06:09.578907,8.0,2.0,312.0
2023-05-26-15:06:09.579910,8.0,2.0,312.0
2023-05-26-15:06:09.580908,4.0,1.0,311.0
2023-05-26-15:06:09.581909,4.0,8.0,311.0
2023-05-26-15:06:09.582889,8.0,2.0,310.0
2023-05-26-15:06:09.583861,8.0,2.0,310.0
2023-05-26-15:06:09.584882,8.0,2.0,310.0
2023-05-26-15:06:09.585901,7.0,1.0,310.0
2023-05-26-15:06:09.586903,5.0,9.0,309.0
2023-05-26-15:06:09.587899,5.0,9.0,309.0
2023-05-26-15:06:09.588877,5.0,9.0,309.0
2023-05-26-15:06:09.589899,4.0,9.0,309.0
2023-05-26-15:06:09.590903,4.0,8.0,308.0
2023-05-26-15:06:09.591849,4.0,10.0,308.0
2023-05-26-15:06:09.592898,4.0,10.0,308.0
2023-05-26-15:06:09.593901,4.0,3.0,306.0
2023-05-26-15:06:09.594898,6.0,1.0,306.0
2023-05-26-15:06:09.596882,6.0,1.0,306.0
2023-05-26-15:06:09.596882,8.0,6.0,306.0
2023-05-26-15:06:09.597901,5.0,5.0,305.0
2023-05-26-15:06:09.598877,6.0,1.0,305.0
2023-05-26-15:06:09.599878,6.0,1.0,305.0
2023-05-26-15:06:09.600879,6.0,1.0,305.0
2023-05-26-15:06:09.601877,4.0,4.0,305.0
2023-05-26-15:06:09.602876,5.0,1.0,304.0
2023-05-26-15:06:09.603880,5.0,9.0,304.0
2023-05-26-15:06:09.604875,5.0,9.0,304.0
2023-05-26-15:06:09.605875,8.0,8.0,304.0
2023-05-26-15:06:09.606879,2.0,16.0,303.0
2023-05-26-15:06:09.607875,2.0,16.0,303.0
2023-05-26-15:06:09.608877,2.0,16.0,303.0
2023-05-26-15:06:09.609875,9.0,4.0,303.0
2023-05-26-15:06:09.610877,9.0,4.0,303.0
2023-05-26-15:06:09.611875,1.0,14.0,302.0
2023-05-26-15:06:09.612850,1.0,14.0,302.0
2023-05-26-15:06:09.613876,3.0,8.0,302.0
2023-05-26-15:06:09.614877,3.0,8.0,302.0
2023-05-26-15:06:09.615877,3.0,8.0,302.0
2023-05-26-15:06:09.616850,3.0,8.0,302.0
2023-05-26-15:06:09.617876,2.0,5.0,301.0
2023-05-26-15:06:09.618876,2.0,1.0,301.0
2023-05-26-15:06:09.619875,2.0,0.0,301.0
2023-05-26-15:06:09.620878,2.0,0.0,301.0
2023-05-26-15:06:09.621875,2.0,4.0,301.0
2023-05-26-15:06:09.622879,4.0,1.0,300.0
2023-05-26-15:06:09.623876,4.0,1.0,300.0
2023-05-26-15:06:09.624876,4.0,1.0,300.0
2023-05-26-15:06:09.625876,4.0,1.0,300.0
2023-05-26-15:06:09.626877,4.0,3.0,300.0
2023-05-26-15:06:09.627875,4.0,3.0,300.0
2023-05-26-15:06:09.628878,5.0,1.0,300.0
2023-05-26-15:06:09.630897,7.0,1.0,299.0
2023-05-26-15:06:09.630897,5.0,6.0,299.0
2023-05-26-15:06:09.631895,5.0,6.0,299.0
2023-05-26-15:06:09.632898,6.0,5.0,299.0
2023-05-26-15:06:09.633903,6.0,5.0,299.0
2023-05-26-15:06:09.634898,5.0,4.0,299.0
2023-05-26-15:06:09.635897,5.0,3.0,299.0
2023-05-26-15:06:09.636896,5.0,3.0,299.0
2023-05-26-15:06:09.637903,5.0,3.0,299.0
2023-05-26-15:06:09.638902,6.0,5.0,299.0
2023-05-26-15:06:09.639896,2.0,3.0,299.0
2023-05-26-15:06:09.640900,7.0,1.0,298.0
2023-05-26-15:06:09.641895,7.0,1.0,298.0
2023-05-26-15:06:09.642897,5.0,6.0,298.0
2023-05-26-15:06:09.643896,10.0,9.0,298.0
2023-05-26-15:06:09.644896,8.0,10.0,298.0
2023-05-26-15:06:09.645897,8.0,10.0,298.0
2023-05-26-15:06:09.646897,5.0,6.0,298.0
2023-05-26-15:06:09.647897,10.0,4.0,298.0
2023-05-26-15:06:09.648898,10.0,4.0,298.0
2023-05-26-15:06:09.649896,10.0,4.0,298.0
2023-05-26-15:06:09.650898,3.0,0.0,298.0
2023-05-26-15:06:09.651896,1.0,5.0,298.0
2023-05-26-15:06:09.652896,2.0,4.0,298.0
2023-05-26-15:06:09.653850,2.0,4.0,298.0
2023-05-26-15:06:09.654900,5.0,6.0,298.0
2023-05-26-15:06:09.655897,3.0,5.0,298.0
2023-05-26-15:06:09.656896,5.0,0.0,298.0
2023-05-26-15:06:09.657850,5.0,0.0,298.0
2023-05-26-15:06:09.658897,4.0,2.0,298.0
2023-05-26-15:06:09.659896,6.0,4.0,298.0
2023-05-26-15:06:09.660896,6.0,4.0,298.0
2023-05-26-15:06:09.661875,6.0,4.0,298.0
2023-05-26-15:06:09.663849,6.0,3.0,298.0
2023-05-26-15:06:09.663849,4.0,2.0,298.0
2023-05-26-15:06:09.664850,5.0,7.0,298.0
2023-05-26-15:06:09.665898,5.0,7.0,298.0
2023-05-26-15:06:09.666903,4.0,9.0,298.0
2023-05-26-15:06:09.667896,4.0,5.0,299.0
2023-05-26-15:06:09.668897,6.0,4.0,298.0
2023-05-26-15:06:09.669895,6.0,4.0,298.0
2023-05-26-15:06:09.670899,3.0,10.0,298.0
2023-05-26-15:06:09.671896,4.0,7.0,299.0
2023-05-26-15:06:09.672896,6.0,1.0,298.0
2023-05-26-15:06:09.673899,6.0,1.0,298.0
2023-05-26-15:06:09.674896,6.0,1.0,298.0
2023-05-26-15:06:09.675900,6.0,0.0,298.0
2023-05-26-15:06:09.676896,5.0,1.0,298.0
2023-05-26-15:06:09.677897,5.0,1.0,298.0
2023-05-26-15:06:09.678897,5.0,1.0,298.0
2023-05-26-15:06:09.679897,5.0,3.0,298.0
2023-05-26-15:06:09.680898,6.0,0.0,298.0
2023-05-26-15:06:09.681896,5.0,5.0,298.0
2023-05-26-15:06:09.682898,5.0,5.0,298.0
2023-05-26-15:06:09.683897,5.0,7.0,298.0
2023-05-26-15:06:09.684897,2.0,10.0,298.0
2023-05-26-15:06:09.685896,1.0,11.0,298.0
2023-05-26-15:06:09.686900,1.0,11.0,298.0
2023-05-26-15:06:09.687897,1.0,17.0,298.0
2023-05-26-15:06:09.688850,4.0,8.0,298.0
2023-05-26-15:06:09.689874,4.0,8.0,298.0
2023-05-26-15:06:09.690878,4.0,8.0,298.0
2023-05-26-15:06:09.691879,8.0,8.0,298.0
2023-05-26-15:06:09.692875,6.0,9.0,298.0
2023-05-26-15:06:09.693875,6.0,9.0,298.0
2023-05-26-15:06:09.695887,6.0,9.0,298.0
2023-05-26-15:06:09.696891,1.0,13.0,298.0
2023-05-26-15:06:09.696891,1.0,13.0,298.0
2023-05-26-15:06:09.697906,1.0,13.0,298.0
2023-05-26-15:06:09.698850,1.0,13.0,298.0
2023-05-26-15:06:09.699908,2.0,14.0,298.0
2023-05-26-15:06:09.700907,2.0,8.0,298.0
2023-05-26-15:06:09.701916,2.0,8.0,298.0
2023-05-26-15:06:09.702852,2.0,8.0,298.0
2023-05-26-15:06:09.703907,6.0,15.0,298.0
2023-05-26-15:06:09.704907,6.0,12.0,298.0
2023-05-26-15:06:09.705909,6.0,2.0,298.0
2023-05-26-15:06:09.706908,6.0,2.0,298.0
2023-05-26-15:06:09.707906,2.0,0.0,298.0
2023-05-26-15:06:09.708906,6.0,14.0,298.0
2023-05-26-15:06:09.709907,6.0,19.0,298.0
2023-05-26-15:06:09.710887,6.0,19.0,298.0
2023-05-26-15:06:09.711887,6.0,19.0,298.0
2023-05-26-15:06:09.712885,7.0,10.0,298.0
2023-05-26-15:06:09.713886,4.0,8.0,298.0
2023-05-26-15:06:09.714889,4.0,8.0,298.0
2023-05-26-15:06:09.715879,4.0,7.0,298.0
2023-05-26-15:06:09.716880,6.0,5.0,298.0
2023-05-26-15:06:09.717906,6.0,3.0,298.0
2023-05-26-15:06:09.718890,6.0,3.0,298.0
2023-05-26-15:06:09.719886,6.0,3.0,298.0
2023-05-26-15:06:09.720886,3.0,4.0,298.0
2023-05-26-15:06:09.721892,1.0,5.0,298.0
2023-05-26-15:06:09.722887,2.0,4.0,298.0
2023-05-26-15:06:09.723887,2.0,4.0,298.0
2023-05-26-15:06:09.724886,5.0,2.0,298.0
2023-05-26-15:06:09.725886,3.0,0.0,298.0
2023-05-26-15:06:09.726886,3.0,2.0,298.0
2023-05-26-15:06:09.727887,5.0,1.0,298.0
2023-05-26-15:06:09.728885,6.0,1.0,298.0
2023-05-26-15:06:09.729894,6.0,1.0,298.0
2023-05-26-15:06:09.730865,4.0,1.0,298.0
2023-05-26-15:06:09.731875,7.0,0.0,298.0
2023-05-26-15:06:09.732875,3.0,6.0,298.0
2023-05-26-15:06:09.733850,5.0,6.0,298.0
2023-05-26-15:06:09.734852,5.0,6.0,298.0
2023-05-26-15:06:09.736878,5.0,6.0,298.0
2023-05-26-15:06:09.736878,2.0,8.0,298.0
2023-05-26-15:06:09.737875,5.0,4.0,298.0
2023-05-26-15:06:09.738878,6.0,4.0,298.0
2023-05-26-15:06:09.739850,6.0,4.0,298.0
2023-05-26-15:06:09.740875,8.0,0.0,298.0
2023-05-26-15:06:09.741859,7.0,5.0,298.0
2023-05-26-15:06:09.742874,7.0,5.0,298.0
2023-05-26-15:06:09.743850,7.0,5.0,298.0
2023-05-26-15:06:09.744883,5.0,9.0,298.0
2023-05-26-15:06:09.745877,4.0,8.0,298.0
2023-05-26-15:06:09.746875,4.0,8.0,298.0
2023-05-26-15:06:09.747899,4.0,8.0,298.0
2023-05-26-15:06:09.748851,5.0,4.0,298.0
2023-05-26-15:06:09.749898,3.0,3.0,298.0
2023-05-26-15:06:09.750849,5.0,4.0,298.0
2023-05-26-15:06:09.751854,5.0,4.0,298.0
2023-05-26-15:06:09.752881,5.0,4.0,298.0
2023-05-26-15:06:09.753875,4.0,2.0,298.0
2023-05-26-15:06:09.754864,6.0,6.0,298.0
2023-05-26-15:06:09.755875,6.0,6.0,298.0
2023-05-26-15:06:09.756876,6.0,6.0,298.0
2023-05-26-15:06:09.757877,5.0,2.0,298.0
2023-05-26-15:06:09.758876,6.0,5.0,299.0
2023-05-26-15:06:09.759877,7.0,1.0,298.0
2023-05-26-15:06:09.760876,7.0,1.0,298.0
2023-05-26-15:06:09.761877,8.0,3.0,298.0
2023-05-26-15:06:09.762877,6.0,6.0,298.0
2023-05-26-15:06:09.763875,6.0,6.0,298.0
2023-05-26-15:06:09.765876,5.0,1.0,298.0
2023-05-26-15:06:09.765876,3.0,6.0,298.0
2023-05-26-15:06:09.766854,3.0,6.0,298.0
2023-05-26-15:06:09.767849,4.0,7.0,298.0
2023-05-26-15:06:09.768874,4.0,7.0,298.0
2023-05-26-15:06:09.769849,4.0,3.0,299.0
2023-05-26-15:06:09.770878,6.0,5.0,298.0
2023-05-26-15:06:09.771876,6.0,4.0,298.0
2023-05-26-15:06:09.772876,6.0,4.0,298.0
2023-05-26-15:06:09.773876,5.0,4.0,298.0
2023-05-26-15:06:09.774878,4.0,2.0,298.0
2023-05-26-15:06:09.775877,4.0,2.0,298.0
2023-05-26-15:06:09.776877,4.0,2.0,298.0
2023-05-26-15:06:09.777879,4.0,1.0,298.0
2023-05-26-15:06:09.778875,6.0,7.0,298.0
2023-05-26-15:06:09.779879,6.0,7.0,298.0
2023-05-26-15:06:09.780878,6.0,7.0,298.0
2023-05-26-15:06:09.781875,6.0,6.0,298.0
2023-05-26-15:06:09.782878,1.0,6.0,298.0
2023-05-26-15:06:09.783877,1.0,6.0,298.0
2023-05-26-15:06:09.784851,1.0,6.0,298.0
2023-05-26-15:06:09.785880,4.0,2.0,298.0
2023-05-26-15:06:09.786878,5.0,6.0,298.0
2023-05-26-15:06:09.787876,5.0,6.0,298.0
2023-05-26-15:06:09.788876,5.0,6.0,298.0
2023-05-26-15:06:09.789877,5.0,6.0,298.0
2023-05-26-15:06:09.790876,5.0,4.0,298.0
2023-05-26-15:06:09.791877,4.0,8.0,299.0
2023-05-26-15:06:09.792875,3.0,3.0,298.0
2023-05-26-15:06:09.793878,4.0,6.0,298.0
2023-05-26-15:06:09.794875,5.0,7.0,298.0
2023-05-26-15:06:09.795875,4.0,10.0,298.0
2023-05-26-15:06:09.796874,4.0,10.0,298.0
2023-05-26-15:06:09.798879,6.0,5.0,298.0
2023-05-26-15:06:09.798879,4.0,6.0,298.0
2023-05-26-15:06:09.799897,4.0,6.0,298.0
2023-05-26-15:06:09.800878,4.0,6.0,298.0
2023-05-26-15:06:09.801901,4.0,6.0,298.0
2023-05-26-15:06:09.802899,4.0,4.0,298.0
2023-05-26-15:06:09.803900,6.0,4.0,298.0
2023-05-26-15:06:09.804899,3.0,5.0,298.0
2023-05-26-15:06:09.805899,3.0,5.0,298.0
2023-05-26-15:06:09.806900,4.0,5.0,298.0
2023-05-26-15:06:09.807877,3.0,3.0,299.0
2023-05-26-15:06:09.808898,4.0,3.0,298.0
2023-05-26-15:06:09.809899,4.0,3.0,298.0
2023-05-26-15:06:09.810898,4.0,0.0,298.0
2023-05-26-15:06:09.811898,7.0,1.0,298.0
2023-05-26-15:06:09.812898,6.0,5.0,298.0
2023-05-26-15:06:09.813898,6.0,5.0,298.0
2023-05-26-15:06:09.814850,4.0,5.0,298.0
2023-05-26-15:06:09.815898,3.0,3.0,299.0
2023-05-26-15:06:09.816851,3.0,3.0,299.0
2023-05-26-15:06:09.817900,3.0,3.0,299.0
2023-05-26-15:06:09.818899,3.0,4.0,299.0
2023-05-26-15:06:09.819900,4.0,3.0,298.0
2023-05-26-15:06:09.820866,2.0,1.0,299.0
2023-05-26-15:06:09.821880,2.0,1.0,299.0
2023-05-26-15:06:09.822900,5.0,2.0,298.0
2023-05-26-15:06:09.823899,4.0,17.0,298.0
2023-05-26-15:06:09.824876,3.0,6.0,298.0
2023-05-26-15:06:09.825850,3.0,6.0,298.0
2023-05-26-15:06:09.826902,6.0,11.0,298.0
2023-05-26-15:06:09.827898,8.0,29.0,299.0
2023-05-26-15:06:09.828896,8.0,21.0,299.0
2023-05-26-15:06:09.829850,8.0,21.0,299.0
2023-05-26-15:06:09.830900,7.0,14.0,298.0
2023-05-26-15:06:09.832897,7.0,7.0,298.0
2023-05-26-15:06:09.832897,4.0,4.0,298.0
2023-05-26-15:06:09.833900,4.0,4.0,298.0
2023-05-26-15:06:09.834897,4.0,6.0,299.0
2023-05-26-15:06:09.835896,5.0,7.0,298.0
2023-05-26-15:06:09.836896,3.0,1.0,298.0
2023-05-26-15:06:09.837898,3.0,1.0,298.0
2023-05-26-15:06:09.838896,3.0,1.0,298.0
2023-05-26-15:06:09.839897,5.0,3.0,298.0
2023-05-26-15:06:09.840897,5.0,29.0,298.0
2023-05-26-15:06:09.841895,5.0,29.0,298.0
2023-05-26-15:06:09.842898,5.0,29.0,298.0
2023-05-26-15:06:09.843896,6.0,8.0,298.0
2023-05-26-15:06:09.844896,5.0,3.0,298.0
2023-05-26-15:06:09.845896,5.0,3.0,298.0
2023-05-26-15:06:09.846899,5.0,3.0,298.0
2023-05-26-15:06:09.847902,2.0,9.0,298.0
2023-05-26-15:06:09.848897,6.0,14.0,299.0
2023-05-26-15:06:09.849900,5.0,15.0,299.0
2023-05-26-15:06:09.850898,5.0,15.0,299.0
2023-05-26-15:06:09.851900,7.0,8.0,298.0
2023-05-26-15:06:09.852896,2.0,15.0,299.0
2023-05-26-15:06:09.853898,1.0,17.0,298.0
2023-05-26-15:06:09.854896,1.0,17.0,298.0
2023-05-26-15:06:09.855897,2.0,14.0,298.0
2023-05-26-15:06:09.856876,8.0,2.0,298.0
2023-05-26-15:06:09.857898,8.0,2.0,298.0
2023-05-26-15:06:09.858897,8.0,2.0,298.0
2023-05-26-15:06:09.859896,7.0,2.0,298.0
2023-05-26-15:06:09.860898,6.0,9.0,299.0
2023-05-26-15:06:09.861896,6.0,9.0,299.0
2023-05-26-15:06:09.862899,6.0,9.0,299.0
2023-05-26-15:06:09.863898,3.0,8.0,298.0
2023-05-26-15:06:09.864896,2.0,1.0,298.0
2023-05-26-15:06:09.865900,2.0,1.0,298.0
2023-05-26-15:06:09.867893,2.0,1.0,298.0
2023-05-26-15:06:09.867893,2.0,1.0,298.0
2023-05-26-15:06:09.868896,9.0,4.0,298.0
2023-05-26-15:06:09.869896,7.0,4.0,298.0
2023-05-26-15:06:09.870850,7.0,4.0,298.0
2023-05-26-15:06:09.871902,5.0,1.0,298.0
2023-05-26-15:06:09.872848,2.0,5.0,298.0
2023-05-26-15:06:09.873850,3.0,6.0,299.0
2023-05-26-15:06:09.874865,3.0,6.0,299.0
2023-05-26-15:06:09.875884,7.0,4.0,299.0
2023-05-26-15:06:09.876884,7.0,6.0,299.0
2023-05-26-15:06:09.877883,7.0,6.0,299.0
2023-05-26-15:06:09.878887,7.0,6.0,299.0
2023-05-26-15:06:09.879884,4.0,4.0,299.0
2023-05-26-15:06:09.880887,3.0,4.0,298.0
2023-05-26-15:06:09.881886,3.0,4.0,298.0
2023-05-26-15:06:09.882886,3.0,4.0,298.0
2023-05-26-15:06:09.883884,5.0,4.0,298.0
2023-05-26-15:06:09.884851,3.0,3.0,298.0
2023-05-26-15:06:09.885886,3.0,3.0,298.0
2023-05-26-15:06:09.886884,3.0,3.0,298.0
2023-05-26-15:06:09.887884,3.0,3.0,298.0
2023-05-26-15:06:09.888849,7.0,7.0,299.0
2023-05-26-15:06:09.889906,6.0,7.0,298.0
2023-05-26-15:06:09.890906,6.0,7.0,298.0
2023-05-26-15:06:09.891907,6.0,7.0,298.0
2023-05-26-15:06:09.892906,4.0,7.0,298.0
2023-05-26-15:06:09.893906,4.0,13.0,299.0
2023-05-26-15:06:09.894909,7.0,10.0,299.0
2023-05-26-15:06:09.895907,7.0,10.0,299.0
2023-05-26-15:06:09.896906,5.0,8.0,298.0
2023-05-26-15:06:09.897909,3.0,1.0,298.0
2023-05-26-15:06:09.898906,3.0,2.0,298.0
2023-05-26-15:06:09.899909,3.0,2.0,298.0
2023-05-26-15:06:09.901884,3.0,5.0,298.0
2023-05-26-15:06:09.901884,3.0,5.0,298.0
2023-05-26-15:06:09.902885,3.0,5.0,298.0
2023-05-26-15:06:09.903886,3.0,5.0,298.0
2023-05-26-15:06:09.904886,8.0,4.0,298.0
2023-05-26-15:06:09.905889,10.0,11.0,298.0
2023-05-26-15:06:09.906886,8.0,9.0,298.0
2023-05-26-15:06:09.907888,8.0,9.0,298.0
2023-05-26-15:06:09.908885,2.0,5.0,298.0
2023-05-26-15:06:09.909886,3.0,3.0,298.0
2023-05-26-15:06:09.910888,9.0,3.0,298.0
2023-05-26-15:06:09.911851,9.0,3.0,298.0
2023-05-26-15:06:09.912886,5.0,6.0,298.0
2023-05-26-15:06:09.913886,4.0,7.0,298.0
2023-05-26-15:06:09.914888,6.0,2.0,299.0
2023-05-26-15:06:09.915849,6.0,2.0,299.0
2023-05-26-15:06:09.916886,5.0,2.0,298.0
2023-05-26-15:06:09.917892,1.0,3.0,298.0
2023-05-26-15:06:09.918886,1.0,3.0,298.0
2023-05-26-15:06:09.919887,1.0,3.0,298.0
2023-05-26-15:06:09.920887,3.0,5.0,298.0
2023-05-26-15:06:09.921886,7.0,4.0,298.0
2023-05-26-15:06:09.922849,7.0,4.0,299.0
2023-05-26-15:06:09.923884,7.0,4.0,299.0
2023-05-26-15:06:09.924886,7.0,4.0,299.0
2023-05-26-15:06:09.925884,4.0,4.0,298.0
2023-05-26-15:06:09.926887,7.0,3.0,298.0
2023-05-26-15:06:09.927883,7.0,3.0,298.0
2023-05-26-15:06:09.928886,7.0,3.0,298.0
2023-05-26-15:06:09.929884,6.0,1.0,298.0
2023-05-26-15:06:09.930886,3.0,7.0,298.0
2023-05-26-15:06:09.931886,3.0,5.0,298.0
2023-05-26-15:06:09.932884,3.0,5.0,298.0
2023-05-26-15:06:09.933893,3.0,2.0,298.0
2023-05-26-15:06:09.935886,3.0,2.0,298.0
2023-05-26-15:06:09.935886,5.0,8.0,298.0
2023-05-26-15:06:09.936909,2.0,3.0,298.0
2023-05-26-15:06:09.937913,5.0,5.0,298.0
2023-05-26-15:06:09.938911,5.0,5.0,298.0
2023-05-26-15:06:09.939848,5.0,5.0,298.0
2023-05-26-15:06:09.940907,5.0,5.0,298.0
2023-05-26-15:06:09.941908,3.0,6.0,298.0
2023-05-26-15:06:09.942910,5.0,0.0,298.0
2023-05-26-15:06:09.943909,5.0,0.0,298.0
2023-05-26-15:06:09.944907,5.0,0.0,298.0
2023-05-26-15:06:09.945910,5.0,11.0,298.0
2023-05-26-15:06:09.946907,4.0,8.0,298.0
2023-05-26-15:06:09.947909,6.0,0.0,298.0
2023-05-26-15:06:09.948907,6.0,0.0,298.0
2023-05-26-15:06:09.949908,4.0,3.0,298.0
2023-05-26-15:06:09.950909,4.0,3.0,298.0
2023-05-26-15:06:09.951907,5.0,2.0,298.0
2023-05-26-15:06:09.952850,4.0,1.0,299.0
2023-05-26-15:06:09.953907,6.0,1.0,298.0
2023-05-26-15:06:09.954911,5.0,7.0,298.0
2023-05-26-15:06:09.955907,8.0,5.0,298.0
2023-05-26-15:06:09.956850,8.0,5.0,298.0
2023-05-26-15:06:09.957907,8.0,8.0,299.0
2023-05-26-15:06:09.958910,6.0,5.0,298.0
2023-05-26-15:06:09.959910,7.0,3.0,298.0
2023-05-26-15:06:09.960909,7.0,3.0,298.0
2023-05-26-15:06:09.961908,7.0,1.0,298.0
2023-05-26-15:06:09.962908,5.0,0.0,298.0
2023-05-26-15:06:09.963914,4.0,0.0,298.0
2023-05-26-15:06:09.964907,4.0,0.0,298.0
2023-05-26-15:06:09.965907,4.0,0.0,298.0
2023-05-26-15:06:09.966894,8.0,1.0,299.0
2023-05-26-15:06:09.967908,0.0,5.0,299.0
2023-05-26-15:06:09.969886,0.0,5.0,299.0
2023-05-26-15:06:09.970850,0.0,9.0,298.0
2023-05-26-15:06:09.970850,6.0,2.0,298.0
2023-05-26-15:06:09.971889,6.0,2.0,298.0
2023-05-26-15:06:09.972907,6.0,2.0,298.0
2023-05-26-15:06:09.973907,6.0,2.0,298.0
2023-05-26-15:06:09.974910,5.0,9.0,299.0
2023-05-26-15:06:09.975908,4.0,20.0,298.0
2023-05-26-15:06:09.976907,3.0,10.0,299.0
2023-05-26-15:06:09.977908,3.0,10.0,299.0
2023-05-26-15:06:09.978907,6.0,0.0,299.0
2023-05-26-15:06:09.979909,3.0,10.0,298.0
2023-05-26-15:06:09.980849,5.0,30.0,299.0
2023-05-26-15:06:09.981875,5.0,30.0,299.0
2023-05-26-15:06:09.982886,5.0,14.0,299.0
2023-05-26-15:06:09.983885,4.0,7.0,299.0
2023-05-26-15:06:09.984884,4.0,7.0,299.0
2023-05-26-15:06:09.985888,5.0,22.0,299.0
2023-05-26-15:06:09.986888,3.0,24.0,299.0
2023-05-26-15:06:09.987887,5.0,15.0,299.0
2023-05-26-15:06:09.988885,5.0,15.0,299.0
2023-05-26-15:06:09.989917,5.0,15.0,299.0
2023-05-26-15:06:09.990897,1.0,6.0,298.0
2023-05-26-15:06:09.991887,5.0,3.0,298.0
2023-05-26-15:06:09.992886,5.0,3.0,298.0
2023-05-26-15:06:09.993885,5.0,3.0,298.0
2023-05-26-15:06:09.994886,8.0,3.0,299.0
2023-05-26-15:06:09.995887,6.0,3.0,299.0
2023-05-26-15:06:09.996885,7.0,3.0,299.0
2023-05-26-15:06:09.997850,7.0,3.0,299.0
2023-05-26-15:06:09.998889,6.0,2.0,298.0
2023-05-26-15:06:09.999886,6.0,5.0,298.0
2023-05-26-15:06:10.000894,3.0,4.0,298.0
2023-05-26-15:06:10.001865,3.0,4.0,298.0
2023-05-26-15:06:10.002886,2.0,3.0,298.0
2023-05-26-15:06:10.004886,4.0,1.0,299.0
2023-05-26-15:06:10.004886,4.0,1.0,299.0
2023-05-26-15:06:10.005908,4.0,1.0,299.0
2023-05-26-15:06:10.006910,7.0,3.0,299.0
2023-05-26-15:06:10.007908,7.0,1.0,299.0
2023-05-26-15:06:10.008910,4.0,3.0,299.0
2023-05-26-15:06:10.009908,4.0,3.0,299.0
2023-05-26-15:06:10.010907,4.0,3.0,299.0
2023-05-26-15:06:10.011908,5.0,3.0,298.0
2023-05-26-15:06:10.012908,6.0,7.0,298.0
2023-05-26-15:06:10.013913,6.0,7.0,298.0
2023-05-26-15:06:10.014907,6.0,7.0,298.0
2023-05-26-15:06:10.015907,7.0,6.0,299.0
2023-05-26-15:06:10.016908,4.0,4.0,299.0
2023-05-26-15:06:10.017908,4.0,4.0,299.0
2023-05-26-15:06:10.018911,4.0,4.0,299.0
2023-05-26-15:06:10.019908,4.0,8.0,299.0
2023-05-26-15:06:10.020911,4.0,8.0,299.0
2023-05-26-15:06:10.021885,3.0,4.0,299.0
2023-05-26-15:06:10.022910,3.0,4.0,299.0
2023-05-26-15:06:10.023888,3.0,3.0,298.0
2023-05-26-15:06:10.024885,3.0,2.0,299.0
2023-05-26-15:06:10.025885,3.0,2.0,299.0
2023-05-26-15:06:10.026886,3.0,2.0,299.0
2023-05-26-15:06:10.027908,6.0,1.0,299.0
2023-05-26-15:06:10.028908,4.0,3.0,299.0
2023-05-26-15:06:10.029908,4.0,3.0,299.0
2023-05-26-15:06:10.030907,4.0,3.0,299.0
2023-05-26-15:06:10.031907,7.0,11.0,299.0
2023-05-26-15:06:10.032907,4.0,20.0,299.0
2023-05-26-15:06:10.033886,7.0,12.0,299.0
2023-05-26-15:06:10.034899,7.0,12.0,299.0
2023-05-26-15:06:10.035909,5.0,0.0,298.0
2023-05-26-15:06:10.037885,7.0,1.0,299.0
2023-05-26-15:06:10.037885,7.0,1.0,299.0
2023-05-26-15:06:10.038850,7.0,1.0,299.0
2023-05-26-15:06:10.039907,4.0,1.0,299.0
2023-05-26-15:06:10.040907,7.0,2.0,299.0
2023-05-26-15:06:10.041908,7.0,3.0,299.0
2023-05-26-15:06:10.042852,7.0,3.0,299.0
2023-05-26-15:06:10.043909,7.0,3.0,299.0
2023-05-26-15:06:10.044907,5.0,5.0,298.0
2023-05-26-15:06:10.045907,7.0,3.0,299.0
2023-05-26-15:06:10.046908,7.0,3.0,299.0
2023-05-26-15:06:10.047907,5.0,3.0,299.0
2023-05-26-15:06:10.048907,3.0,2.0,298.0
2023-05-26-15:06:10.049907,1.0,1.0,299.0
2023-05-26-15:06:10.050910,1.0,1.0,299.0
2023-05-26-15:06:10.051907,3.0,1.0,299.0
2023-05-26-15:06:10.052907,4.0,4.0,299.0
2023-05-26-15:06:10.053911,4.0,4.0,299.0
2023-05-26-15:06:10.054910,4.0,4.0,299.0
2023-05-26-15:06:10.055907,4.0,4.0,299.0
2023-05-26-15:06:10.056908,4.0,17.0,299.0
2023-05-26-15:06:10.057908,3.0,5.0,299.0
2023-05-26-15:06:10.058848,3.0,5.0,299.0
2023-05-26-15:06:10.059886,3.0,5.0,299.0
2023-05-26-15:06:10.060908,6.0,2.0,299.0
2023-05-26-15:06:10.061908,6.0,8.0,299.0
2023-05-26-15:06:10.062907,2.0,3.0,299.0
2023-05-26-15:06:10.063907,2.0,3.0,299.0
2023-05-26-15:06:10.064907,5.0,3.0,299.0
2023-05-26-15:06:10.065908,5.0,7.0,298.0
2023-05-26-15:06:10.066911,6.0,7.0,299.0
2023-05-26-15:06:10.067908,6.0,7.0,299.0
2023-05-26-15:06:10.068907,0.0,8.0,298.0
2023-05-26-15:06:10.070887,0.0,8.0,298.0
2023-05-26-15:06:10.070887,6.0,6.0,299.0
2023-05-26-15:06:10.071907,6.0,1.0,299.0
2023-05-26-15:06:10.072907,6.0,4.0,298.0
2023-05-26-15:06:10.073908,6.0,1.0,299.0
2023-05-26-15:06:10.074885,6.0,1.0,299.0
2023-05-26-15:06:10.075908,6.0,1.0,299.0
2023-05-26-15:06:10.076907,9.0,2.0,299.0
2023-05-26-15:06:10.077908,8.0,4.0,298.0
2023-05-26-15:06:10.078913,7.0,8.0,299.0
2023-05-26-15:06:10.079850,7.0,8.0,299.0
2023-05-26-15:06:10.080913,5.0,6.0,299.0
2023-05-26-15:06:10.081907,4.0,15.0,299.0
2023-05-26-15:06:10.082910,2.0,8.0,299.0
2023-05-26-15:06:10.083850,2.0,8.0,299.0
2023-05-26-15:06:10.084908,4.0,2.0,298.0
2023-05-26-15:06:10.085907,4.0,2.0,298.0
2023-05-26-15:06:10.086851,5.0,8.0,299.0
2023-05-26-15:06:10.087887,5.0,8.0,299.0
2023-05-26-15:06:10.088888,7.0,19.0,299.0
2023-05-26-15:06:10.089888,4.0,4.0,299.0
2023-05-26-15:06:10.090910,4.0,4.0,299.0
2023-05-26-15:06:10.091908,4.0,4.0,299.0
2023-05-26-15:06:10.092909,6.0,7.0,299.0
2023-05-26-15:06:10.093909,4.0,8.0,298.0
2023-05-26-15:06:10.094907,5.0,6.0,299.0
2023-05-26-15:06:10.095907,5.0,6.0,299.0
2023-05-26-15:06:10.096908,5.0,6.0,299.0
2023-05-26-15:06:10.097907,3.0,3.0,299.0
2023-05-26-15:06:10.098910,4.0,6.0,298.0
2023-05-26-15:06:10.099907,4.0,6.0,298.0
2023-05-26-15:06:10.100910,4.0,6.0,298.0
2023-05-26-15:06:10.101907,6.0,5.0,299.0
2023-05-26-15:06:10.102909,3.0,4.0,299.0
2023-05-26-15:06:10.104886,3.0,5.0,299.0
2023-05-26-15:06:10.104886,5.0,0.0,299.0
2023-05-26-15:06:10.105850,6.0,4.0,299.0
2023-05-26-15:06:10.106907,5.0,2.0,299.0
2023-05-26-15:06:10.107908,5.0,2.0,299.0
2023-05-26-15:06:10.108907,5.0,2.0,299.0
2023-05-26-15:06:10.109910,5.0,4.0,299.0
2023-05-26-15:06:10.110907,8.0,0.0,299.0
2023-05-26-15:06:10.111907,8.0,3.0,298.0
2023-05-26-15:06:10.112907,8.0,3.0,298.0
2023-05-26-15:06:10.113908,6.0,1.0,299.0
2023-05-26-15:06:10.114910,5.0,6.0,299.0
2023-05-26-15:06:10.115907,5.0,7.0,299.0
2023-05-26-15:06:10.116911,5.0,7.0,299.0
2023-05-26-15:06:10.117849,2.0,7.0,299.0
2023-05-26-15:06:10.118910,5.0,6.0,299.0
2023-05-26-15:06:10.119908,5.0,6.0,299.0
2023-05-26-15:06:10.120850,5.0,6.0,299.0
2023-05-26-15:06:10.121904,9.0,2.0,299.0
2023-05-26-15:06:10.122851,5.0,4.0,299.0
2023-05-26-15:06:10.123850,2.0,1.0,299.0
2023-05-26-15:06:10.124849,2.0,1.0,299.0
2023-05-26-15:06:10.125849,6.0,1.0,299.0
2023-05-26-15:06:10.126852,6.0,0.0,299.0
2023-05-26-15:06:10.127849,4.0,7.0,299.0
2023-05-26-15:06:10.128849,4.0,7.0,299.0
2023-05-26-15:06:10.129850,6.0,3.0,299.0
2023-05-26-15:06:10.130850,4.0,4.0,299.0
2023-05-26-15:06:10.131850,4.0,1.0,299.0
2023-05-26-15:06:10.132850,4.0,4.0,299.0
2023-05-26-15:06:10.133866,4.0,4.0,299.0
2023-05-26-15:06:10.134850,5.0,3.0,299.0
2023-05-26-15:06:10.135850,3.0,9.0,298.0
2023-05-26-15:06:10.136862,3.0,9.0,298.0
2023-05-26-15:06:10.137885,9.0,5.0,299.0
2023-05-26-15:06:10.139850,8.0,5.0,299.0
2023-05-26-15:06:10.139850,8.0,5.0,299.0
2023-05-26-15:06:10.140892,8.0,5.0,299.0
2023-05-26-15:06:10.141887,8.0,5.0,299.0
2023-05-26-15:06:10.142886,8.0,1.0,299.0
2023-05-26-15:06:10.143890,8.0,2.0,299.0
2023-05-26-15:06:10.144888,5.0,12.0,298.0
2023-05-26-15:06:10.145886,5.0,12.0,298.0
2023-05-26-15:06:10.146886,4.0,10.0,299.0
2023-05-26-15:06:10.147887,4.0,2.0,299.0
2023-05-26-15:06:10.148887,4.0,6.0,299.0
2023-05-26-15:06:10.149886,4.0,6.0,299.0
2023-05-26-15:06:10.150850,2.0,8.0,299.0
2023-05-26-15:06:10.151886,5.0,4.0,299.0
2023-05-26-15:06:10.152886,5.0,4.0,299.0
2023-05-26-15:06:10.153887,5.0,4.0,299.0
2023-05-26-15:06:10.154886,4.0,5.0,299.0
2023-05-26-15:06:10.155885,5.0,0.0,299.0
2023-05-26-15:06:10.156885,5.0,1.0,299.0
2023-05-26-15:06:10.157885,5.0,1.0,299.0
2023-05-26-15:06:10.158886,7.0,3.0,299.0
2023-05-26-15:06:10.159885,6.0,6.0,299.0
2023-05-26-15:06:10.160885,5.0,0.0,299.0
2023-05-26-15:06:10.161886,5.0,0.0,299.0
2023-05-26-15:06:10.162885,7.0,1.0,298.0
2023-05-26-15:06:10.163887,0.0,6.0,299.0
2023-05-26-15:06:10.164887,2.0,5.0,299.0
2023-05-26-15:06:10.165850,2.0,5.0,299.0
2023-05-26-15:06:10.166887,1.0,6.0,299.0
2023-05-26-15:06:10.167886,5.0,10.0,299.0
2023-05-26-15:06:10.168888,5.0,10.0,299.0
2023-05-26-15:06:10.169850,5.0,10.0,299.0
2023-05-26-15:06:10.170887,5.0,15.0,299.0
2023-05-26-15:06:10.172886,4.0,10.0,299.0
2023-05-26-15:06:10.172886,4.0,10.0,299.0
2023-05-26-15:06:10.173907,4.0,10.0,299.0
2023-05-26-15:06:10.174908,9.0,11.0,299.0
2023-05-26-15:06:10.175906,6.0,8.0,299.0
2023-05-26-15:06:10.176906,7.0,11.0,299.0
2023-05-26-15:06:10.177907,7.0,11.0,299.0
2023-05-26-15:06:10.178910,7.0,11.0,299.0
2023-05-26-15:06:10.179907,4.0,28.0,299.0
2023-05-26-15:06:10.180885,3.0,15.0,299.0
2023-05-26-15:06:10.181907,3.0,8.0,299.0
2023-05-26-15:06:10.182908,5.0,8.0,299.0
2023-05-26-15:06:10.183850,6.0,0.0,299.0
2023-05-26-15:06:10.184888,6.0,0.0,299.0
2023-05-26-15:06:10.185886,6.0,0.0,299.0
2023-05-26-15:06:10.186890,6.0,0.0,299.0
2023-05-26-15:06:10.187850,6.0,3.0,299.0
2023-05-26-15:06:10.188889,5.0,8.0,299.0
2023-05-26-15:06:10.189885,5.0,8.0,299.0
2023-05-26-15:06:10.190886,5.0,8.0,299.0
2023-05-26-15:06:10.191890,4.0,17.0,299.0
2023-05-26-15:06:10.192887,4.0,4.0,299.0
2023-05-26-15:06:10.193886,4.0,2.0,299.0
2023-05-26-15:06:10.194885,4.0,2.0,299.0
2023-05-26-15:06:10.195887,3.0,1.0,299.0
2023-05-26-15:06:10.196889,4.0,1.0,299.0
2023-05-26-15:06:10.197885,9.0,1.0,299.0
2023-05-26-15:06:10.198887,9.0,1.0,299.0
2023-05-26-15:06:10.199886,6.0,3.0,299.0
2023-05-26-15:06:10.200887,4.0,4.0,299.0
2023-05-26-15:06:10.201886,4.0,4.0,299.0
2023-05-26-15:06:10.202886,4.0,4.0,299.0
2023-05-26-15:06:10.203888,6.0,4.0,299.0
2023-05-26-15:06:10.205885,6.0,4.0,299.0
2023-05-26-15:06:10.205885,5.0,5.0,299.0
2023-05-26-15:06:10.206906,5.0,5.0,299.0
2023-05-26-15:06:10.207906,5.0,3.0,299.0
2023-05-26-15:06:10.208906,6.0,3.0,299.0
2023-05-26-15:06:10.209908,7.0,4.0,299.0
2023-05-26-15:06:10.210850,7.0,4.0,299.0
2023-05-26-15:06:10.211906,4.0,4.0,298.0
2023-05-26-15:06:10.212906,8.0,1.0,299.0
2023-05-26-15:06:10.213907,4.0,3.0,299.0
2023-05-26-15:06:10.214885,4.0,3.0,299.0
2023-05-26-15:06:10.215906,4.0,4.0,299.0
2023-05-26-15:06:10.216887,7.0,6.0,299.0
2023-05-26-15:06:10.217887,7.0,6.0,299.0
2023-05-26-15:06:10.218906,7.0,6.0,299.0
2023-05-26-15:06:10.219908,7.0,5.0,299.0
2023-05-26-15:06:10.220907,6.0,3.0,299.0
2023-05-26-15:06:10.221906,6.0,3.0,299.0
2023-05-26-15:06:10.222885,7.0,4.0,299.0
2023-05-26-15:06:10.223885,6.0,9.0,299.0
2023-05-26-15:06:10.224906,8.0,10.0,299.0
2023-05-26-15:06:10.225907,8.0,10.0,299.0
2023-05-26-15:06:10.226905,8.0,10.0,299.0
2023-05-26-15:06:10.227906,8.0,10.0,299.0
2023-05-26-15:06:10.228906,7.0,14.0,299.0
2023-05-26-15:06:10.229911,7.0,1.0,299.0
2023-05-26-15:06:10.230908,4.0,7.0,299.0
2023-05-26-15:06:10.231907,4.0,7.0,299.0
2023-05-26-15:06:10.232913,1.0,4.0,299.0
2023-05-26-15:06:10.233885,4.0,7.0,299.0
2023-05-26-15:06:10.234893,4.0,3.0,299.0
2023-05-26-15:06:10.235908,4.0,3.0,299.0
2023-05-26-15:06:10.236906,4.0,5.0,299.0
2023-05-26-15:06:10.237906,6.0,2.0,299.0
2023-05-26-15:06:10.238906,8.0,2.0,299.0
2023-05-26-15:06:10.240906,8.0,2.0,299.0
2023-05-26-15:06:10.240906,8.0,2.0,299.0
2023-05-26-15:06:10.241906,8.0,2.0,299.0
2023-05-26-15:06:10.242910,4.0,3.0,299.0
2023-05-26-15:06:10.243897,5.0,1.0,299.0
2023-05-26-15:06:10.244897,7.0,3.0,299.0
2023-05-26-15:06:10.245897,8.0,3.0,299.0
2023-05-26-15:06:10.246902,5.0,5.0,299.0
2023-05-26-15:06:10.247906,5.0,5.0,299.0
2023-05-26-15:06:10.248879,9.0,4.0,299.0
2023-05-26-15:06:10.249899,4.0,5.0,299.0
2023-05-26-15:06:10.250896,4.0,5.0,299.0
2023-05-26-15:06:10.251850,4.0,5.0,299.0
2023-05-26-15:06:10.252907,5.0,5.0,299.0
2023-05-26-15:06:10.253907,5.0,2.0,299.0
2023-05-26-15:06:10.254906,5.0,2.0,299.0
2023-05-26-15:06:10.255849,5.0,2.0,299.0
2023-05-26-15:06:10.256906,3.0,4.0,299.0
2023-05-26-15:06:10.257906,3.0,6.0,299.0
2023-05-26-15:06:10.258910,3.0,6.0,299.0
2023-05-26-15:06:10.259907,3.0,6.0,299.0
2023-05-26-15:06:10.260911,6.0,4.0,299.0
2023-05-26-15:06:10.261908,5.0,2.0,299.0
2023-05-26-15:06:10.262908,5.0,10.0,299.0
2023-05-26-15:06:10.263907,5.0,10.0,299.0
2023-05-26-15:06:10.264908,5.0,9.0,299.0
2023-05-26-15:06:10.265907,3.0,7.0,299.0
2023-05-26-15:06:10.266906,5.0,5.0,299.0
2023-05-26-15:06:10.267848,5.0,5.0,299.0
2023-05-26-15:06:10.268907,5.0,5.0,299.0
2023-05-26-15:06:10.269906,4.0,1.0,299.0
2023-05-26-15:06:10.270906,3.0,1.0,299.0
2023-05-26-15:06:10.271911,4.0,2.0,299.0
2023-05-26-15:06:10.273888,4.0,2.0,299.0
2023-05-26-15:06:10.273888,5.0,8.0,299.0
2023-05-26-15:06:10.274880,5.0,8.0,299.0
2023-05-26-15:06:10.275907,5.0,8.0,299.0
2023-05-26-15:06:10.276907,5.0,8.0,299.0
2023-05-26-15:06:10.277906,5.0,13.0,299.0
2023-05-26-15:06:10.278908,7.0,7.0,299.0
2023-05-26-15:06:10.279906,7.0,5.0,299.0
2023-05-26-15:06:10.280906,7.0,5.0,299.0
2023-05-26-15:06:10.281909,5.0,5.0,299.0
2023-05-26-15:06:10.282909,7.0,25.0,299.0
2023-05-26-15:06:10.283897,4.0,13.0,299.0
2023-05-26-15:06:10.284900,4.0,13.0,299.0
2023-05-26-15:06:10.285907,5.0,1.0,299.0
2023-05-26-15:06:10.286906,3.0,14.0,299.0
2023-05-26-15:06:10.287911,2.0,19.0,299.0
2023-05-26-15:06:10.288906,2.0,19.0,299.0
2023-05-26-15:06:10.289906,7.0,8.0,299.0
2023-05-26-15:06:10.290910,7.0,8.0,299.0
2023-05-26-15:06:10.291908,7.0,8.0,299.0
2023-05-26-15:06:10.292850,7.0,8.0,299.0
2023-05-26-15:06:10.293906,7.0,9.0,299.0
2023-05-26-15:06:10.294908,6.0,1.0,299.0
2023-05-26-15:06:10.295907,5.0,2.0,299.0
2023-05-26-15:06:10.296850,5.0,2.0,299.0
2023-05-26-15:06:10.297908,3.0,2.0,299.0
2023-05-26-15:06:10.298907,2.0,4.0,299.0
2023-05-26-15:06:10.299908,6.0,5.0,299.0
2023-05-26-15:06:10.300884,6.0,5.0,299.0
2023-05-26-15:06:10.301913,3.0,2.0,299.0
2023-05-26-15:06:10.302908,2.0,8.0,299.0
2023-05-26-15:06:10.303910,5.0,3.0,299.0
2023-05-26-15:06:10.304907,5.0,3.0,299.0
2023-05-26-15:06:10.305906,5.0,3.0,299.0
2023-05-26-15:06:10.306910,2.0,3.0,299.0
2023-05-26-15:06:10.308885,6.0,4.0,298.0
2023-05-26-15:06:10.308885,6.0,3.0,299.0
2023-05-26-15:06:10.309851,4.0,2.0,299.0
2023-05-26-15:06:10.310908,4.0,2.0,299.0
2023-05-26-15:06:10.311906,4.0,2.0,299.0
2023-05-26-15:06:10.312885,4.0,2.0,299.0
2023-05-26-15:06:10.313910,4.0,2.0,299.0
2023-05-26-15:06:10.314907,5.0,4.0,299.0
2023-05-26-15:06:10.315908,4.0,4.0,299.0
2023-05-26-15:06:10.316906,3.0,5.0,299.0
2023-05-26-15:06:10.317890,3.0,5.0,299.0
2023-05-26-15:06:10.318906,4.0,7.0,299.0
2023-05-26-15:06:10.319910,5.0,4.0,299.0
2023-05-26-15:06:10.320912,5.0,2.0,299.0
2023-05-26-15:06:10.321907,5.0,2.0,299.0
2023-05-26-15:06:10.322910,5.0,3.0,299.0
2023-05-26-15:06:10.323907,6.0,2.0,299.0
2023-05-26-15:06:10.324915,7.0,3.0,299.0
2023-05-26-15:06:10.325906,7.0,3.0,299.0
2023-05-26-15:06:10.326908,5.0,6.0,299.0
2023-05-26-15:06:10.327906,6.0,5.0,298.0
2023-05-26-15:06:10.328906,6.0,5.0,298.0
2023-05-26-15:06:10.329908,6.0,5.0,298.0
2023-05-26-15:06:10.330907,6.0,4.0,299.0
2023-05-26-15:06:10.331907,7.0,8.0,299.0
2023-05-26-15:06:10.332913,4.0,6.0,299.0
2023-05-26-15:06:10.333850,4.0,6.0,299.0
2023-05-26-15:06:10.334907,3.0,6.0,299.0
2023-05-26-15:06:10.335911,2.0,4.0,299.0
2023-05-26-15:06:10.336907,4.0,4.0,299.0
2023-05-26-15:06:10.337850,4.0,4.0,299.0
2023-05-26-15:06:10.338910,2.0,3.0,299.0
2023-05-26-15:06:10.339907,3.0,3.0,299.0
2023-05-26-15:06:10.340909,8.0,1.0,299.0
2023-05-26-15:06:10.341859,8.0,1.0,299.0
2023-05-26-15:06:10.343907,4.0,1.0,299.0
2023-05-26-15:06:10.343907,7.0,6.0,299.0
2023-05-26-15:06:10.344906,7.0,6.0,299.0
2023-05-26-15:06:10.345909,7.0,6.0,299.0
2023-05-26-15:06:10.346908,4.0,4.0,299.0
2023-05-26-15:06:10.347907,2.0,4.0,299.0
2023-05-26-15:06:10.348907,5.0,6.0,299.0
2023-05-26-15:06:10.349913,5.0,6.0,299.0
2023-05-26-15:06:10.350913,5.0,6.0,299.0
2023-05-26-15:06:10.351911,1.0,9.0,299.0
2023-05-26-15:06:10.352909,2.0,2.0,299.0
2023-05-26-15:06:10.353908,3.0,1.0,299.0
2023-05-26-15:06:10.354909,3.0,1.0,299.0
2023-05-26-15:06:10.355908,3.0,0.0,299.0
2023-05-26-15:06:10.356910,9.0,13.0,299.0
2023-05-26-15:06:10.357908,12.0,6.0,299.0
2023-05-26-15:06:10.358908,12.0,6.0,299.0
2023-05-26-15:06:10.359907,2.0,16.0,299.0
2023-05-26-15:06:10.360906,7.0,18.0,299.0
2023-05-26-15:06:10.361908,7.0,18.0,299.0
2023-05-26-15:06:10.362907,7.0,18.0,299.0
2023-05-26-15:06:10.363907,5.0,11.0,299.0
2023-05-26-15:06:10.364907,6.0,0.0,299.0
2023-05-26-15:06:10.365907,5.0,12.0,299.0
2023-05-26-15:06:10.366885,5.0,12.0,299.0
2023-05-26-15:06:10.367848,2.0,5.0,299.0
2023-05-26-15:06:10.368908,2.0,7.0,299.0
2023-05-26-15:06:10.369907,1.0,10.0,299.0
2023-05-26-15:06:10.370909,1.0,10.0,299.0
2023-05-26-15:06:10.371907,3.0,4.0,299.0
2023-05-26-15:06:10.372909,5.0,1.0,299.0
2023-05-26-15:06:10.373907,6.0,6.0,299.0
2023-05-26-15:06:10.374908,6.0,6.0,299.0
2023-05-26-15:06:10.376909,6.0,6.0,299.0
2023-05-26-15:06:10.376909,5.0,0.0,299.0
2023-05-26-15:06:10.377908,5.0,0.0,299.0
2023-05-26-15:06:10.378850,5.0,0.0,299.0
2023-05-26-15:06:10.379907,4.0,2.0,298.0
2023-05-26-15:06:10.380912,5.0,5.0,299.0
2023-05-26-15:06:10.381907,6.0,5.0,299.0
2023-05-26-15:06:10.382852,6.0,5.0,299.0
2023-05-26-15:06:10.383871,3.0,9.0,299.0
2023-05-26-15:06:10.384884,1.0,15.0,299.0
2023-05-26-15:06:10.385888,1.0,15.0,299.0
2023-05-26-15:06:10.386886,1.0,15.0,299.0
2023-05-26-15:06:10.387886,4.0,7.0,299.0
2023-05-26-15:06:10.388883,8.0,5.0,299.0
2023-05-26-15:06:10.389884,7.0,1.0,299.0
2023-05-26-15:06:10.390884,7.0,1.0,299.0
2023-05-26-15:06:10.391884,7.0,2.0,299.0
2023-05-26-15:06:10.392885,4.0,6.0,299.0
2023-05-26-15:06:10.393908,4.0,6.0,299.0
2023-05-26-15:06:10.394907,4.0,6.0,299.0
2023-05-26-15:06:10.395912,4.0,6.0,299.0
2023-05-26-15:06:10.396909,7.0,3.0,299.0
2023-05-26-15:06:10.397907,7.0,2.0,299.0
2023-05-26-15:06:10.398907,7.0,2.0,299.0
2023-05-26-15:06:10.399911,7.0,2.0,299.0
2023-05-26-15:06:10.400913,7.0,1.0,299.0
2023-05-26-15:06:10.401890,3.0,5.0,299.0
2023-05-26-15:06:10.402910,3.0,0.0,299.0
2023-05-26-15:06:10.403911,3.0,0.0,299.0
2023-05-26-15:06:10.404848,4.0,3.0,299.0
2023-05-26-15:06:10.405909,2.0,4.0,299.0
2023-05-26-15:06:10.406908,4.0,2.0,299.0
2023-05-26-15:06:10.407907,4.0,2.0,299.0
2023-05-26-15:06:10.408906,10.0,9.0,299.0
2023-05-26-15:06:10.409908,8.0,7.0,299.0
2023-05-26-15:06:10.411885,8.0,7.0,299.0
2023-05-26-15:06:10.411885,9.0,26.0,299.0
2023-05-26-15:06:10.412907,5.0,30.0,298.0
2023-05-26-15:06:10.413908,6.0,27.0,299.0
2023-05-26-15:06:10.414907,6.0,27.0,299.0
2023-05-26-15:06:10.415911,6.0,27.0,299.0
2023-05-26-15:06:10.416907,4.0,27.0,299.0
2023-05-26-15:06:10.417909,3.0,1.0,299.0
2023-05-26-15:06:10.418909,3.0,1.0,299.0
2023-05-26-15:06:10.419850,3.0,1.0,299.0
2023-05-26-15:06:10.420910,5.0,3.0,299.0
2023-05-26-15:06:10.421907,6.0,1.0,299.0
2023-05-26-15:06:10.422908,2.0,1.0,299.0
2023-05-26-15:06:10.423850,2.0,1.0,299.0
2023-05-26-15:06:10.424909,3.0,2.0,299.0
2023-05-26-15:06:10.425908,3.0,2.0,299.0
2023-05-26-15:06:10.426887,4.0,5.0,299.0
2023-05-26-15:06:10.427862,4.0,5.0,299.0
2023-05-26-15:06:10.428888,7.0,0.0,299.0
2023-05-26-15:06:10.429885,3.0,4.0,299.0
2023-05-26-15:06:10.430887,4.0,3.0,299.0
2023-05-26-15:06:10.431889,4.0,3.0,299.0
2023-05-26-15:06:10.432885,5.0,1.0,299.0
2023-05-26-15:06:10.433907,5.0,5.0,299.0
2023-05-26-15:06:10.434886,6.0,4.0,299.0
2023-05-26-15:06:10.435886,6.0,4.0,299.0
2023-05-26-15:06:10.436910,6.0,4.0,299.0
2023-05-26-15:06:10.437907,5.0,0.0,299.0
2023-05-26-15:06:10.438908,10.0,3.0,299.0
2023-05-26-15:06:10.439908,10.0,3.0,299.0
2023-05-26-15:06:10.440908,10.0,3.0,299.0
2023-05-26-15:06:10.441907,3.0,5.0,299.0
2023-05-26-15:06:10.442908,6.0,1.0,299.0
2023-05-26-15:06:10.443912,6.0,1.0,299.0
2023-05-26-15:06:10.445885,6.0,1.0,299.0
2023-05-26-15:06:10.445885,6.0,1.0,299.0
2023-05-26-15:06:10.446907,6.0,1.0,299.0
2023-05-26-15:06:10.447911,2.0,4.0,299.0
2023-05-26-15:06:10.448910,6.0,0.0,299.0
2023-05-26-15:06:10.449916,6.0,2.0,299.0
2023-05-26-15:06:10.450878,2.0,1.0,299.0
2023-05-26-15:06:10.451907,0.0,3.0,299.0
2023-05-26-15:06:10.452910,0.0,3.0,299.0
2023-05-26-15:06:10.453907,1.0,4.0,299.0
2023-05-26-15:06:10.454908,1.0,8.0,299.0
2023-05-26-15:06:10.455909,4.0,6.0,299.0
2023-05-26-15:06:10.456908,4.0,6.0,299.0
2023-05-26-15:06:10.457912,4.0,7.0,299.0
2023-05-26-15:06:10.458907,5.0,20.0,299.0
2023-05-26-15:06:10.459912,4.0,10.0,299.0
2023-05-26-15:06:10.460907,4.0,10.0,299.0
2023-05-26-15:06:10.461899,8.0,9.0,299.0
2023-05-26-15:06:10.462898,6.0,5.0,299.0
2023-05-26-15:06:10.463901,6.0,5.0,299.0
2023-05-26-15:06:10.464850,6.0,5.0,299.0
2023-05-26-15:06:10.465885,3.0,8.0,299.0
2023-05-26-15:06:10.466909,4.0,5.0,299.0
2023-05-26-15:06:10.467912,5.0,1.0,299.0
2023-05-26-15:06:10.468851,5.0,1.0,299.0
2023-05-26-15:06:10.469908,6.0,1.0,299.0
2023-05-26-15:06:10.470908,5.0,0.0,299.0
2023-05-26-15:06:10.471908,4.0,2.0,299.0
2023-05-26-15:06:10.472909,4.0,2.0,299.0
2023-05-26-15:06:10.473907,5.0,4.0,299.0
2023-05-26-15:06:10.474907,10.0,3.0,299.0
2023-05-26-15:06:10.475907,9.0,5.0,299.0
2023-05-26-15:06:10.476908,9.0,5.0,299.0
2023-05-26-15:06:10.477917,6.0,6.0,299.0
2023-05-26-15:06:10.478908,3.0,9.0,299.0
2023-05-26-15:06:10.480885,5.0,9.0,299.0
2023-05-26-15:06:10.480885,5.0,9.0,299.0
2023-05-26-15:06:10.481907,2.0,5.0,299.0
2023-05-26-15:06:10.482878,5.0,4.0,299.0
2023-05-26-15:06:10.483876,5.0,4.0,299.0
2023-05-26-15:06:10.484910,5.0,4.0,299.0
2023-05-26-15:06:10.485908,5.0,4.0,299.0
2023-05-26-15:06:10.486908,6.0,1.0,298.0
2023-05-26-15:06:10.487850,5.0,9.0,299.0
2023-05-26-15:06:10.488908,5.0,9.0,299.0
2023-05-26-15:06:10.489911,5.0,9.0,299.0
2023-05-26-15:06:10.490908,3.0,8.0,299.0
2023-05-26-15:06:10.491907,7.0,0.0,299.0
2023-05-26-15:06:10.492908,7.0,0.0,299.0
2023-05-26-15:06:10.493907,7.0,0.0,299.0
2023-05-26-15:06:10.494908,7.0,7.0,299.0
2023-05-26-15:06:10.495911,7.0,2.0,299.0
2023-05-26-15:06:10.496907,6.0,4.0,299.0
2023-05-26-15:06:10.497907,6.0,4.0,299.0
2023-05-26-15:06:10.498909,4.0,7.0,299.0
2023-05-26-15:06:10.499907,4.0,9.0,299.0
2023-05-26-15:06:10.500885,2.0,1.0,299.0
2023-05-26-15:06:10.501850,2.0,1.0,299.0
2023-05-26-15:06:10.502885,4.0,3.0,299.0
2023-05-26-15:06:10.503886,5.0,2.0,299.0
2023-05-26-15:06:10.504885,3.0,0.0,299.0
2023-05-26-15:06:10.505850,3.0,0.0,299.0
2023-05-26-15:06:10.506888,6.0,2.0,299.0
2023-05-26-15:06:10.507883,7.0,12.0,299.0
2023-05-26-15:06:10.508885,7.0,12.0,299.0
2023-05-26-15:06:10.509850,7.0,12.0,299.0
2023-05-26-15:06:10.510883,3.0,15.0,299.0
2023-05-26-15:06:10.512885,6.0,1.0,299.0
2023-05-26-15:06:10.512885,6.0,1.0,299.0
2023-05-26-15:06:10.513912,6.0,1.0,299.0
2023-05-26-15:06:10.514909,7.0,4.0,299.0
2023-05-26-15:06:10.515907,1.0,5.0,299.0
2023-05-26-15:06:10.516909,5.0,2.0,299.0
2023-05-26-15:06:10.517886,5.0,2.0,299.0
2023-05-26-15:06:10.518908,5.0,2.0,299.0
2023-05-26-15:06:10.519907,5.0,3.0,299.0
2023-05-26-15:06:10.520913,3.0,22.0,299.0
2023-05-26-15:06:10.521907,3.0,22.0,299.0
2023-05-26-15:06:10.522907,3.0,22.0,299.0
2023-05-26-15:06:10.523907,5.0,12.0,299.0
2023-05-26-15:06:10.524907,6.0,1.0,299.0
2023-05-26-15:06:10.525908,4.0,17.0,299.0
2023-05-26-15:06:10.526909,4.0,17.0,299.0
2023-05-26-15:06:10.527911,2.0,26.0,299.0
2023-05-26-15:06:10.528907,2.0,26.0,299.0
2023-05-26-15:06:10.529908,8.0,25.0,299.0
2023-05-26-15:06:10.530909,6.0,18.0,298.0
2023-05-26-15:06:10.531901,5.0,4.0,299.0
2023-05-26-15:06:10.532900,5.0,4.0,299.0
2023-05-26-15:06:10.533908,5.0,4.0,299.0
2023-05-26-15:06:10.534886,5.0,4.0,299.0
2023-05-26-15:06:10.535909,7.0,3.0,299.0
2023-05-26-15:06:10.536900,4.0,1.0,299.0
2023-05-26-15:06:10.537907,4.0,1.0,299.0
2023-05-26-15:06:10.538908,4.0,1.0,299.0
2023-05-26-15:06:10.539914,6.0,2.0,299.0
2023-05-26-15:06:10.540907,6.0,2.0,298.0
2023-05-26-15:06:10.541907,6.0,2.0,298.0
2023-05-26-15:06:10.542907,6.0,2.0,298.0
2023-05-26-15:06:10.543911,6.0,9.0,299.0
2023-05-26-15:06:10.544907,6.0,1.0,299.0
2023-05-26-15:06:10.545907,5.0,2.0,299.0
2023-05-26-15:06:10.546850,5.0,2.0,299.0
2023-05-26-15:06:10.548885,5.0,3.0,299.0
2023-05-26-15:06:10.548885,8.0,11.0,299.0
2023-05-26-15:06:10.549886,8.0,11.0,299.0
2023-05-26-15:06:10.550850,8.0,11.0,299.0
2023-05-26-15:06:10.551856,8.0,11.0,299.0
2023-05-26-15:06:10.552850,6.0,3.0,299.0
2023-05-26-15:06:10.553849,6.0,3.0,299.0
2023-05-26-15:06:10.554849,6.0,3.0,299.0
2023-05-26-15:06:10.555849,5.0,7.0,299.0
2023-05-26-15:06:10.556849,7.0,4.0,299.0
2023-05-26-15:06:10.557848,7.0,4.0,299.0
2023-05-26-15:06:10.558849,7.0,4.0,299.0
2023-05-26-15:06:10.559918,3.0,3.0,299.0
2023-05-26-15:06:10.560884,4.0,5.0,299.0
2023-05-26-15:06:10.561887,4.0,5.0,299.0
2023-05-26-15:06:10.562884,4.0,5.0,299.0
2023-05-26-15:06:10.563907,4.0,5.0,299.0
2023-05-26-15:06:10.564909,4.0,4.0,299.0
2023-05-26-15:06:10.565908,6.0,4.0,299.0
2023-05-26-15:06:10.566908,6.0,4.0,299.0
2023-05-26-15:06:10.567885,6.0,4.0,299.0
2023-05-26-15:06:10.568908,2.0,4.0,299.0
2023-05-26-15:06:10.569910,4.0,3.0,299.0
2023-05-26-15:06:10.570908,4.0,3.0,299.0
2023-05-26-15:06:10.571911,4.0,3.0,299.0
2023-05-26-15:06:10.572908,3.0,1.0,299.0
2023-05-26-15:06:10.573908,4.0,2.0,299.0
2023-05-26-15:06:10.574907,5.0,2.0,299.0
2023-05-26-15:06:10.575910,5.0,2.0,299.0
2023-05-26-15:06:10.576907,6.0,1.0,299.0
2023-05-26-15:06:10.577907,6.0,3.0,299.0
2023-05-26-15:06:10.578909,4.0,4.0,298.0
2023-05-26-15:06:10.579907,4.0,4.0,298.0
2023-05-26-15:06:10.580909,5.0,6.0,299.0
2023-05-26-15:06:10.581912,3.0,5.0,299.0
2023-05-26-15:06:10.583885,3.0,5.0,299.0
2023-05-26-15:06:10.583885,1.0,7.0,299.0
2023-05-26-15:06:10.584908,4.0,9.0,299.0
2023-05-26-15:06:10.585906,6.0,9.0,299.0
2023-05-26-15:06:10.586907,6.0,9.0,299.0
2023-05-26-15:06:10.587911,6.0,9.0,299.0
2023-05-26-15:06:10.588907,4.0,7.0,299.0
2023-05-26-15:06:10.589908,8.0,2.0,299.0
2023-05-26-15:06:10.590907,7.0,0.0,299.0
2023-05-26-15:06:10.591850,7.0,0.0,299.0
2023-05-26-15:06:10.592909,4.0,4.0,299.0
2023-05-26-15:06:10.593908,4.0,4.0,299.0
2023-05-26-15:06:10.594909,2.0,2.0,299.0
2023-05-26-15:06:10.595852,2.0,2.0,299.0
2023-05-26-15:06:10.596886,2.0,4.0,299.0
2023-05-26-15:06:10.597887,2.0,4.0,299.0
2023-05-26-15:06:10.598885,2.0,4.0,299.0
2023-05-26-15:06:10.599891,2.0,4.0,299.0
2023-05-26-15:06:10.600886,4.0,6.0,299.0
2023-05-26-15:06:10.601885,3.0,11.0,299.0
2023-05-26-15:06:10.602886,4.0,11.0,299.0
2023-05-26-15:06:10.603888,4.0,11.0,299.0
2023-05-26-15:06:10.604888,4.0,11.0,299.0
2023-05-26-15:06:10.605887,6.0,2.0,299.0
2023-05-26-15:06:10.606889,6.0,2.0,298.0
2023-05-26-15:06:10.607888,6.0,2.0,298.0
2023-05-26-15:06:10.608886,6.0,2.0,298.0
2023-05-26-15:06:10.609886,7.0,5.0,298.0
2023-05-26-15:06:10.610892,2.0,3.0,299.0
2023-05-26-15:06:10.611888,2.0,3.0,299.0
2023-05-26-15:06:10.612886,2.0,3.0,299.0
2023-05-26-15:06:10.613885,4.0,3.0,299.0
2023-05-26-15:06:10.615885,4.0,1.0,299.0
2023-05-26-15:06:10.615885,4.0,1.0,299.0
2023-05-26-15:06:10.616850,5.0,8.0,299.0
2023-05-26-15:06:10.617883,1.0,16.0,299.0
2023-05-26-15:06:10.618888,1.0,16.0,299.0
2023-05-26-15:06:10.619911,1.0,16.0,299.0
2023-05-26-15:06:10.620908,1.0,16.0,299.0
2023-05-26-15:06:10.621907,2.0,17.0,299.0
2023-05-26-15:06:10.622907,4.0,1.0,299.0
2023-05-26-15:06:10.623910,8.0,7.0,299.0
2023-05-26-15:06:10.624909,8.0,7.0,299.0
2023-05-26-15:06:10.625908,6.0,19.0,299.0
2023-05-26-15:06:10.626909,10.0,16.0,299.0
2023-05-26-15:06:10.627909,10.0,18.0,299.0
2023-05-26-15:06:10.628909,10.0,18.0,299.0
2023-05-26-15:06:10.629908,4.0,13.0,299.0
2023-05-26-15:06:10.630907,7.0,13.0,299.0
2023-05-26-15:06:10.631909,5.0,14.0,299.0
2023-05-26-15:06:10.632850,5.0,14.0,299.0
2023-05-26-15:06:10.633907,5.0,7.0,299.0
2023-05-26-15:06:10.634908,4.0,1.0,299.0
2023-05-26-15:06:10.635911,2.0,2.0,299.0
2023-05-26-15:06:10.636850,2.0,2.0,299.0
2023-05-26-15:06:10.637908,3.0,2.0,299.0
2023-05-26-15:06:10.638907,5.0,4.0,299.0
2023-05-26-15:06:10.639910,4.0,11.0,299.0
2023-05-26-15:06:10.640882,4.0,11.0,299.0
2023-05-26-15:06:10.641907,2.0,5.0,299.0
2023-05-26-15:06:10.642909,5.0,3.0,299.0
2023-05-26-15:06:10.643907,9.0,3.0,299.0
2023-05-26-15:06:10.644909,9.0,3.0,299.0
2023-05-26-15:06:10.645907,5.0,5.0,299.0
2023-05-26-15:06:10.646886,5.0,16.0,299.0
2023-05-26-15:06:10.647908,5.0,16.0,299.0
2023-05-26-15:06:10.648913,5.0,16.0,299.0
2023-05-26-15:06:10.650879,5.0,16.0,299.0
2023-05-26-15:06:10.650879,4.0,16.0,299.0
2023-05-26-15:06:10.651850,6.0,3.0,299.0
2023-05-26-15:06:10.652884,6.0,3.0,299.0
2023-05-26-15:06:10.653884,6.0,3.0,299.0
2023-05-26-15:06:10.654884,4.0,1.0,299.0
2023-05-26-15:06:10.655886,8.0,1.0,299.0
2023-05-26-15:06:10.656883,6.0,4.0,299.0
2023-05-26-15:06:10.657887,6.0,4.0,299.0
2023-05-26-15:06:10.658884,4.0,2.0,299.0
2023-05-26-15:06:10.659890,8.0,2.0,299.0
2023-05-26-15:06:10.660883,9.0,7.0,299.0
2023-05-26-15:06:10.661885,9.0,7.0,299.0
2023-05-26-15:06:10.662884,8.0,9.0,299.0
2023-05-26-15:06:10.663884,5.0,7.0,298.0
2023-05-26-15:06:10.664884,6.0,5.0,299.0
2023-05-26-15:06:10.665907,6.0,5.0,299.0
2023-05-26-15:06:10.666907,7.0,4.0,299.0
2023-05-26-15:06:10.667886,5.0,7.0,299.0
2023-05-26-15:06:10.668908,5.0,7.0,299.0
2023-05-26-15:06:10.669907,5.0,7.0,299.0
2023-05-26-15:06:10.670908,4.0,9.0,299.0
2023-05-26-15:06:10.671910,4.0,6.0,299.0
2023-05-26-15:06:10.672907,4.0,4.0,299.0
2023-05-26-15:06:10.673907,4.0,4.0,299.0
2023-05-26-15:06:10.674914,2.0,4.0,299.0
2023-05-26-15:06:10.675908,4.0,2.0,299.0
2023-05-26-15:06:10.676909,4.0,7.0,299.0
2023-05-26-15:06:10.677850,4.0,7.0,299.0
2023-05-26-15:06:10.678907,7.0,5.0,298.0
2023-05-26-15:06:10.679907,5.0,8.0,299.0
2023-05-26-15:06:10.680909,5.0,8.0,299.0
2023-05-26-15:06:10.682886,5.0,8.0,299.0
2023-05-26-15:06:10.682886,5.0,4.0,299.0
2023-05-26-15:06:10.683911,3.0,8.0,298.0
2023-05-26-15:06:10.684908,3.0,8.0,298.0
2023-05-26-15:06:10.685909,3.0,8.0,298.0
2023-05-26-15:06:10.686907,4.0,7.0,299.0
2023-05-26-15:06:10.687910,5.0,1.0,299.0
2023-05-26-15:06:10.688886,4.0,2.0,299.0
2023-05-26-15:06:10.689910,4.0,2.0,299.0
2023-05-26-15:06:10.690908,4.0,2.0,299.0
2023-05-26-15:06:10.691908,5.0,4.0,299.0
2023-05-26-15:06:10.692909,7.0,7.0,298.0
2023-05-26-15:06:10.693907,7.0,7.0,298.0
2023-05-26-15:06:10.694907,7.0,7.0,298.0
2023-05-26-15:06:10.695907,5.0,5.0,298.0
2023-05-26-15:06:10.696908,6.0,5.0,298.0
2023-05-26-15:06:10.697907,6.0,5.0,298.0
2023-05-26-15:06:10.698907,6.0,5.0,298.0
2023-05-26-15:06:10.699911,6.0,5.0,298.0
2023-05-26-15:06:10.700907,5.0,3.0,298.0
2023-05-26-15:06:10.701849,5.0,2.0,299.0
2023-05-26-15:06:10.702908,5.0,2.0,299.0
2023-05-26-15:06:10.703910,1.0,2.0,299.0
2023-05-26-15:06:10.704907,4.0,4.0,298.0
2023-05-26-15:06:10.705907,6.0,4.0,299.0
2023-05-26-15:06:10.706908,6.0,4.0,299.0
2023-05-26-15:06:10.707907,5.0,2.0,299.0
2023-05-26-15:06:10.708909,5.0,5.0,298.0
2023-05-26-15:06:10.709909,4.0,4.0,299.0
2023-05-26-15:06:10.710907,4.0,4.0,299.0
2023-05-26-15:06:10.711908,5.0,3.0,299.0
2023-05-26-15:06:10.712913,6.0,0.0,299.0
2023-05-26-15:06:10.713907,4.0,3.0,299.0
2023-05-26-15:06:10.714908,4.0,3.0,299.0
2023-05-26-15:06:10.715911,4.0,4.0,299.0
2023-05-26-15:06:10.717885,4.0,4.0,299.0
2023-05-26-15:06:10.717885,4.0,4.0,299.0
2023-05-26-15:06:10.718850,4.0,4.0,299.0
2023-05-26-15:06:10.719910,5.0,5.0,299.0
2023-05-26-15:06:10.720850,7.0,4.0,299.0
2023-05-26-15:06:10.721886,6.0,3.0,299.0
2023-05-26-15:06:10.722850,6.0,3.0,299.0
2023-05-26-15:06:10.723886,6.0,1.0,299.0
2023-05-26-15:06:10.724886,3.0,6.0,299.0
2023-05-26-15:06:10.725886,3.0,6.0,299.0
2023-05-26-15:06:10.726892,3.0,6.0,299.0
2023-05-26-15:06:10.727886,3.0,1.0,299.0
2023-05-26-15:06:10.728891,5.0,9.0,299.0
2023-05-26-15:06:10.729886,4.0,11.0,299.0
2023-05-26-15:06:10.730886,4.0,11.0,299.0
2023-05-26-15:06:10.731886,4.0,11.0,299.0
2023-05-26-15:06:10.732887,5.0,5.0,299.0
2023-05-26-15:06:10.733888,1.0,9.0,299.0
2023-05-26-15:06:10.734886,1.0,9.0,299.0
2023-05-26-15:06:10.735888,4.0,1.0,299.0
2023-05-26-15:06:10.736885,5.0,4.0,298.0
2023-05-26-15:06:10.737886,5.0,4.0,298.0
2023-05-26-15:06:10.738886,5.0,4.0,298.0
2023-05-26-15:06:10.739886,5.0,4.0,298.0
2023-05-26-15:06:10.740886,6.0,1.0,299.0
2023-05-26-15:06:10.741885,6.0,4.0,299.0
2023-05-26-15:06:10.742885,8.0,8.0,298.0
2023-05-26-15:06:10.743885,8.0,8.0,298.0
2023-05-26-15:06:10.744886,5.0,15.0,299.0
2023-05-26-15:06:10.745886,4.0,4.0,298.0
2023-05-26-15:06:10.746886,7.0,4.0,299.0
2023-05-26-15:06:10.747887,7.0,4.0,299.0
2023-05-26-15:06:10.748888,4.0,0.0,299.0
2023-05-26-15:06:10.749910,4.0,0.0,299.0
2023-05-26-15:06:10.750849,5.0,5.0,299.0
2023-05-26-15:06:10.751890,5.0,5.0,299.0
2023-05-26-15:06:10.752891,5.0,2.0,299.0
2023-05-26-15:06:10.754849,6.0,4.0,299.0
2023-05-26-15:06:10.755849,6.0,4.0,299.0
2023-05-26-15:06:10.755849,7.0,3.0,299.0
2023-05-26-15:06:10.756909,5.0,6.0,299.0
2023-05-26-15:06:10.757907,5.0,6.0,299.0
2023-05-26-15:06:10.758907,5.0,6.0,299.0
2023-05-26-15:06:10.759850,5.0,6.0,299.0
2023-05-26-15:06:10.760912,6.0,5.0,299.0
2023-05-26-15:06:10.761908,5.0,11.0,298.0
2023-05-26-15:06:10.762908,4.0,5.0,299.0
2023-05-26-15:06:10.763850,4.0,5.0,299.0
2023-05-26-15:06:10.764908,4.0,4.0,298.0
2023-05-26-15:06:10.765907,5.0,5.0,299.0
2023-05-26-15:06:10.766907,3.0,2.0,299.0
2023-05-26-15:06:10.767851,3.0,2.0,299.0
2023-05-26-15:06:10.768907,5.0,3.0,299.0
2023-05-26-15:06:10.769908,4.0,4.0,299.0
2023-05-26-15:06:10.770908,4.0,4.0,299.0
2023-05-26-15:06:10.771911,4.0,4.0,299.0
2023-05-26-15:06:10.772909,4.0,3.0,299.0
2023-05-26-15:06:10.773850,6.0,1.0,299.0
2023-05-26-15:06:10.774859,6.0,1.0,299.0
2023-05-26-15:06:10.775890,6.0,1.0,299.0
2023-05-26-15:06:10.776887,6.0,1.0,299.0
2023-05-26-15:06:10.777887,5.0,5.0,299.0
2023-05-26-15:06:10.778888,6.0,3.0,299.0
2023-05-26-15:06:10.779911,6.0,3.0,299.0
2023-05-26-15:06:10.780908,6.0,3.0,299.0
2023-05-26-15:06:10.781908,4.0,5.0,299.0
2023-05-26-15:06:10.782908,6.0,5.0,299.0
2023-05-26-15:06:10.783910,4.0,5.0,299.0
2023-05-26-15:06:10.784879,3.0,5.0,299.0
2023-05-26-15:06:10.785875,5.0,5.0,298.0
2023-05-26-15:06:10.787887,3.0,5.0,299.0
2023-05-26-15:06:10.787887,4.0,5.0,298.0
2023-05-26-15:06:10.788851,6.0,5.0,298.0
2023-05-26-15:06:10.789910,4.0,0.0,299.0
2023-05-26-15:06:10.790907,6.0,0.0,299.0
2023-05-26-15:06:10.791886,6.0,0.0,299.0
2023-05-26-15:06:10.792912,6.0,0.0,299.0
2023-05-26-15:06:10.793908,6.0,0.0,299.0
2023-05-26-15:06:10.794907,5.0,16.0,298.0
2023-05-26-15:06:10.795911,4.0,20.0,298.0
2023-05-26-15:06:10.796907,4.0,20.0,298.0
2023-05-26-15:06:10.797907,4.0,9.0,299.0
2023-05-26-15:06:10.798907,2.0,10.0,299.0
2023-05-26-15:06:10.799910,4.0,16.0,299.0
2023-05-26-15:06:10.800936,4.0,16.0,299.0
2023-05-26-15:06:10.801850,2.0,18.0,299.0
2023-05-26-15:06:10.802850,3.0,22.0,298.0
2023-05-26-15:06:10.803850,6.0,5.0,298.0
2023-05-26-15:06:10.804851,6.0,5.0,298.0
2023-05-26-15:06:10.805890,8.0,10.0,299.0
2023-05-26-15:06:10.806886,4.0,0.0,299.0
2023-05-26-15:06:10.807886,4.0,0.0,299.0
2023-05-26-15:06:10.808849,4.0,0.0,299.0
2023-05-26-15:06:10.809885,4.0,3.0,299.0
2023-05-26-15:06:10.810907,7.0,1.0,299.0
2023-05-26-15:06:10.811911,7.0,1.0,299.0
2023-05-26-15:06:10.812913,7.0,1.0,299.0
2023-05-26-15:06:10.813907,6.0,4.0,298.0
2023-05-26-15:06:10.814908,6.0,4.0,299.0
2023-05-26-15:06:10.815910,6.0,1.0,298.0
2023-05-26-15:06:10.816907,6.0,1.0,298.0
2023-05-26-15:06:10.817852,4.0,10.0,299.0
2023-05-26-15:06:10.818851,2.0,6.0,299.0
2023-05-26-15:06:10.820886,2.0,6.0,299.0
2023-05-26-15:06:10.821850,2.0,8.0,299.0
2023-05-26-15:06:10.821850,3.0,11.0,299.0
2023-05-26-15:06:10.822878,3.0,11.0,299.0
2023-05-26-15:06:10.823892,3.0,11.0,299.0
2023-05-26-15:06:10.824891,3.0,11.0,299.0
2023-05-26-15:06:10.825886,3.0,11.0,299.0
2023-05-26-15:06:10.826892,7.0,8.0,299.0
2023-05-26-15:06:10.827888,7.0,0.0,299.0
2023-05-26-15:06:10.828887,5.0,5.0,299.0
2023-05-26-15:06:10.829885,5.0,5.0,299.0
2023-05-26-15:06:10.830885,3.0,10.0,299.0
2023-05-26-15:06:10.831887,6.0,1.0,299.0
2023-05-26-15:06:10.832885,7.0,0.0,299.0
2023-05-26-15:06:10.833886,7.0,0.0,299.0
2023-05-26-15:06:10.834885,4.0,6.0,299.0
2023-05-26-15:06:10.835888,4.0,6.0,299.0
2023-05-26-15:06:10.836885,4.0,6.0,299.0
2023-05-26-15:06:10.837890,4.0,6.0,299.0
2023-05-26-15:06:10.838885,3.0,5.0,299.0
2023-05-26-15:06:10.839885,4.0,6.0,299.0
2023-05-26-15:06:10.840889,7.0,4.0,298.0
2023-05-26-15:06:10.841885,7.0,4.0,298.0
2023-05-26-15:06:10.842888,6.0,2.0,299.0
2023-05-26-15:06:10.843849,6.0,2.0,299.0
2023-05-26-15:06:10.844888,4.0,1.0,299.0
2023-05-26-15:06:10.845851,4.0,1.0,299.0
2023-05-26-15:06:10.846885,4.0,4.0,299.0
2023-05-26-15:06:10.847886,5.0,4.0,298.0
2023-05-26-15:06:10.848884,5.0,5.0,299.0
2023-05-26-15:06:10.849851,5.0,5.0,299.0
2023-05-26-15:06:10.850884,5.0,6.0,299.0
2023-05-26-15:06:10.851892,5.0,4.0,298.0
2023-05-26-15:06:10.852885,5.0,4.0,298.0
2023-05-26-15:06:10.854906,5.0,4.0,298.0
2023-05-26-15:06:10.854906,5.0,9.0,299.0
2023-05-26-15:06:10.855908,2.0,15.0,299.0
2023-05-26-15:06:10.856905,2.0,15.0,299.0
2023-05-26-15:06:10.857906,2.0,15.0,299.0
2023-05-26-15:06:10.858908,6.0,4.0,299.0
2023-05-26-15:06:10.859906,6.0,6.0,299.0
2023-05-26-15:06:10.860905,6.0,6.0,299.0
2023-05-26-15:06:10.861884,6.0,6.0,299.0
2023-05-26-15:06:10.862905,6.0,6.0,299.0
2023-05-26-15:06:10.863911,0.0,2.0,299.0
2023-05-26-15:06:10.864906,1.0,6.0,298.0
2023-05-26-15:06:10.865905,1.0,6.0,298.0
2023-05-26-15:06:10.866908,1.0,6.0,298.0
2023-05-26-15:06:10.867892,1.0,2.0,298.0
2023-05-26-15:06:10.868905,4.0,4.0,299.0
2023-05-26-15:06:10.869906,3.0,5.0,299.0
2023-05-26-15:06:10.870905,3.0,5.0,299.0
2023-05-26-15:06:10.871906,4.0,3.0,298.0
2023-05-26-15:06:10.872905,5.0,0.0,299.0
2023-05-26-15:06:10.873906,5.0,0.0,299.0
2023-05-26-15:06:10.874905,5.0,0.0,299.0
2023-05-26-15:06:10.875906,5.0,5.0,299.0
2023-05-26-15:06:10.876911,7.0,5.0,299.0
2023-05-26-15:06:10.877884,6.0,2.0,299.0
2023-05-26-15:06:10.878905,6.0,2.0,299.0
2023-05-26-15:06:10.879908,8.0,6.0,298.0
2023-05-26-15:06:10.880905,3.0,6.0,298.0
2023-05-26-15:06:10.881905,1.0,3.0,298.0
2023-05-26-15:06:10.882908,1.0,3.0,298.0
2023-05-26-15:06:10.883905,6.0,20.0,299.0
2023-05-26-15:06:10.884908,2.0,4.0,299.0
2023-05-26-15:06:10.885905,2.0,4.0,299.0
2023-05-26-15:06:10.886913,2.0,4.0,299.0
2023-05-26-15:06:10.888884,3.0,23.0,299.0
2023-05-26-15:06:10.888884,6.0,23.0,298.0
2023-05-26-15:06:10.889895,6.0,23.0,298.0
2023-05-26-15:06:10.890851,6.0,23.0,298.0
2023-05-26-15:06:10.891906,1.0,22.0,298.0
2023-05-26-15:06:10.892904,7.0,12.0,299.0
2023-05-26-15:06:10.893907,7.0,6.0,299.0
2023-05-26-15:06:10.894857,7.0,6.0,299.0
2023-05-26-15:06:10.895886,4.0,4.0,299.0
2023-05-26-15:06:10.896906,4.0,4.0,298.0
2023-05-26-15:06:10.897908,4.0,4.0,298.0
2023-05-26-15:06:10.898909,4.0,4.0,298.0
2023-05-26-15:06:10.899907,3.0,2.0,299.0
2023-05-26-15:06:10.900906,2.0,4.0,299.0
2023-05-26-15:06:10.901894,4.0,4.0,299.0
2023-05-26-15:06:10.902904,4.0,4.0,299.0
2023-05-26-15:06:10.903905,6.0,2.0,299.0
2023-05-26-15:06:10.904904,5.0,2.0,299.0
2023-05-26-15:06:10.905906,5.0,2.0,299.0
2023-05-26-15:06:10.906910,5.0,2.0,299.0
2023-05-26-15:06:10.907911,5.0,2.0,299.0
2023-05-26-15:06:10.908905,6.0,2.0,299.0
2023-05-26-15:06:10.909905,5.0,3.0,299.0
2023-05-26-15:06:10.910905,5.0,3.0,299.0
2023-05-26-15:06:10.911907,5.0,3.0,299.0
2023-05-26-15:06:10.912906,5.0,4.0,299.0
2023-05-26-15:06:10.913912,3.0,2.0,299.0
2023-05-26-15:06:10.914908,3.0,5.0,299.0
2023-05-26-15:06:10.915905,3.0,5.0,299.0
2023-05-26-15:06:10.916908,4.0,6.0,299.0
2023-05-26-15:06:10.917884,0.0,7.0,299.0
2023-05-26-15:06:10.918906,6.0,6.0,299.0
2023-05-26-15:06:10.920887,6.0,6.0,299.0
2023-05-26-15:06:10.920887,8.0,5.0,299.0
2023-05-26-15:06:10.921851,6.0,4.0,299.0
2023-05-26-15:06:10.922905,4.0,1.0,299.0
2023-05-26-15:06:10.923906,4.0,1.0,299.0
2023-05-26-15:06:10.924904,5.0,2.0,299.0
2023-05-26-15:06:10.925905,5.0,4.0,299.0
2023-05-26-15:06:10.926908,5.0,1.0,299.0
2023-05-26-15:06:10.927907,5.0,1.0,299.0
2023-05-26-15:06:10.928907,6.0,1.0,299.0
2023-05-26-15:06:10.929907,8.0,3.0,299.0
2023-05-26-15:06:10.930907,7.0,6.0,299.0
2023-05-26-15:06:10.931850,7.0,6.0,299.0
2023-05-26-15:06:10.932908,5.0,9.0,299.0
2023-05-26-15:06:10.933907,3.0,4.0,299.0
2023-05-26-15:06:10.934917,3.0,4.0,299.0
2023-05-26-15:06:10.935850,3.0,4.0,299.0
2023-05-26-15:06:10.936907,6.0,1.0,299.0
2023-05-26-15:06:10.937910,6.0,1.0,299.0
2023-05-26-15:06:10.938907,6.0,1.0,299.0
2023-05-26-15:06:10.939906,6.0,1.0,299.0
2023-05-26-15:06:10.940907,4.0,8.0,299.0
2023-05-26-15:06:10.941907,8.0,1.0,299.0
2023-05-26-15:06:10.942907,7.0,6.0,299.0
2023-05-26-15:06:10.943909,7.0,6.0,299.0
2023-05-26-15:06:10.944885,7.0,5.0,299.0
2023-05-26-15:06:10.945887,2.0,12.0,298.0
2023-05-26-15:06:10.946907,4.0,10.0,299.0
2023-05-26-15:06:10.947907,2.0,9.0,299.0
2023-05-26-15:06:10.948908,2.0,9.0,299.0
2023-05-26-15:06:10.949886,7.0,6.0,299.0
2023-05-26-15:06:10.950907,6.0,4.0,299.0
2023-05-26-15:06:10.951882,6.0,4.0,299.0
2023-05-26-15:06:10.952912,6.0,4.0,299.0
2023-05-26-15:06:10.953907,4.0,1.0,299.0
2023-05-26-15:06:10.955885,3.0,5.0,298.0
2023-05-26-15:06:10.955885,3.0,5.0,298.0
2023-05-26-15:06:10.956908,3.0,5.0,298.0
2023-05-26-15:06:10.957910,1.0,2.0,298.0
2023-05-26-15:06:10.958907,0.0,1.0,299.0
2023-05-26-15:06:10.959909,7.0,2.0,298.0
2023-05-26-15:06:10.960907,7.0,2.0,298.0
2023-05-26-15:06:10.961907,7.0,4.0,299.0
2023-05-26-15:06:10.962907,7.0,7.0,299.0
2023-05-26-15:06:10.963850,5.0,9.0,299.0
2023-05-26-15:06:10.964908,5.0,9.0,299.0
2023-05-26-15:06:10.965885,4.0,9.0,299.0
2023-05-26-15:06:10.966907,6.0,3.0,299.0
2023-05-26-15:06:10.967887,2.0,4.0,299.0
2023-05-26-15:06:10.968909,2.0,4.0,299.0
2023-05-26-15:06:10.969908,3.0,7.0,299.0
2023-05-26-15:06:10.970907,3.0,7.0,299.0
2023-05-26-15:06:10.971910,3.0,4.0,299.0
2023-05-26-15:06:10.972850,6.0,6.0,299.0
2023-05-26-15:06:10.973907,5.0,8.0,299.0
2023-05-26-15:06:10.974908,8.0,7.0,299.0
2023-05-26-15:06:10.975909,5.0,1.0,299.0
2023-05-26-15:06:10.976850,5.0,1.0,299.0
2023-05-26-15:06:10.977907,6.0,4.0,299.0
2023-05-26-15:06:10.978908,3.0,4.0,299.0
2023-05-26-15:06:10.979907,6.0,5.0,299.0
2023-05-26-15:06:10.980881,6.0,5.0,299.0
2023-05-26-15:06:10.981864,3.0,3.0,299.0
2023-05-26-15:06:10.982887,3.0,3.0,299.0
2023-05-26-15:06:10.983885,3.0,3.0,299.0
2023-05-26-15:06:10.984888,3.0,3.0,299.0
2023-05-26-15:06:10.985890,5.0,4.0,299.0
2023-05-26-15:06:10.986886,4.0,2.0,299.0
2023-05-26-15:06:10.987886,4.0,2.0,299.0
2023-05-26-15:06:10.989886,5.0,2.0,299.0
2023-05-26-15:06:10.989886,5.0,3.0,299.0
2023-05-26-15:06:10.990907,6.0,3.0,299.0
2023-05-26-15:06:10.991909,6.0,3.0,299.0
2023-05-26-15:06:10.992852,6.0,3.0,299.0
2023-05-26-15:06:10.993887,6.0,3.0,299.0
2023-05-26-15:06:10.994885,6.0,0.0,299.0
2023-05-26-15:06:10.995886,5.0,5.0,299.0
2023-05-26-15:06:10.996885,3.0,7.0,299.0
2023-05-26-15:06:10.997885,3.0,7.0,299.0
2023-05-26-15:06:10.998850,5.0,5.0,299.0
2023-05-26-15:06:10.999887,4.0,7.0,299.0
2023-05-26-15:06:11.000885,5.0,5.0,299.0
2023-05-26-15:06:11.001889,5.0,5.0,299.0
2023-05-26-15:06:11.002886,6.0,8.0,299.0
2023-05-26-15:06:11.003886,5.0,4.0,299.0
2023-05-26-15:06:11.004886,5.0,4.0,299.0
2023-05-26-15:06:11.005885,5.0,5.0,299.0
2023-05-26-15:06:11.006892,8.0,2.0,299.0
2023-05-26-15:06:11.007877,5.0,4.0,299.0
2023-05-26-15:06:11.008877,5.0,4.0,299.0
2023-05-26-15:06:11.009893,5.0,4.0,299.0
2023-05-26-15:06:11.010876,4.0,4.0,299.0
2023-05-26-15:06:11.011877,8.0,2.0,299.0
2023-05-26-15:06:11.012875,7.0,2.0,299.0
2023-05-26-15:06:11.013875,7.0,2.0,299.0
2023-05-26-15:06:11.014875,4.0,6.0,299.0
2023-05-26-15:06:11.015876,3.0,3.0,299.0
2023-05-26-15:06:11.016875,3.0,21.0,299.0
2023-05-26-15:06:11.017850,3.0,21.0,299.0
2023-05-26-15:06:11.018878,5.0,4.0,299.0
2023-05-26-15:06:11.019876,2.0,9.0,299.0
2023-05-26-15:06:11.020877,2.0,9.0,299.0
2023-05-26-15:06:11.021850,2.0,9.0,299.0
2023-05-26-15:06:11.023888,8.0,12.0,299.0
2023-05-26-15:06:11.024851,4.0,9.0,299.0
2023-05-26-15:06:11.024851,4.0,9.0,299.0
2023-05-26-15:06:11.025893,4.0,9.0,299.0
2023-05-26-15:06:11.026888,3.0,10.0,299.0
2023-05-26-15:06:11.027909,2.0,5.0,299.0
2023-05-26-15:06:11.028912,2.0,5.0,299.0
2023-05-26-15:06:11.029909,2.0,5.0,299.0
2023-05-26-15:06:11.030913,2.0,5.0,299.0
2023-05-26-15:06:11.031910,5.0,17.0,299.0
2023-05-26-15:06:11.032848,3.0,17.0,299.0
2023-05-26-15:06:11.033907,3.0,17.0,299.0
2023-05-26-15:06:11.034912,3.0,17.0,299.0
2023-05-26-15:06:11.035910,3.0,1.0,299.0
2023-05-26-15:06:11.036908,4.0,1.0,299.0
2023-05-26-15:06:11.037910,3.0,2.0,299.0
2023-05-26-15:06:11.038908,3.0,2.0,299.0
2023-05-26-15:06:11.039909,7.0,2.0,299.0
2023-05-26-15:06:11.040907,7.0,7.0,299.0
2023-05-26-15:06:11.041909,7.0,7.0,299.0
2023-05-26-15:06:11.042908,7.0,7.0,299.0
2023-05-26-15:06:11.043907,6.0,13.0,299.0
2023-05-26-15:06:11.044908,2.0,8.0,299.0
2023-05-26-15:06:11.045889,5.0,4.0,299.0
2023-05-26-15:06:11.046908,5.0,4.0,299.0
2023-05-26-15:06:11.047908,3.0,8.0,299.0
2023-05-26-15:06:11.048906,4.0,5.0,299.0
2023-05-26-15:06:11.049909,5.0,14.0,299.0
2023-05-26-15:06:11.050907,5.0,14.0,299.0
2023-05-26-15:06:11.051910,7.0,20.0,299.0
2023-05-26-15:06:11.052887,5.0,17.0,299.0
2023-05-26-15:06:11.053910,5.0,17.0,299.0
2023-05-26-15:06:11.054907,5.0,17.0,299.0
2023-05-26-15:06:11.055849,6.0,26.0,299.0
2023-05-26-15:06:11.057906,5.0,19.0,299.0
2023-05-26-15:06:11.057906,5.0,19.0,299.0
2023-05-26-15:06:11.058850,5.0,19.0,299.0
2023-05-26-15:06:11.059907,9.0,1.0,299.0
2023-05-26-15:06:11.060907,5.0,5.0,299.0
2023-05-26-15:06:11.061909,6.0,9.0,299.0
2023-05-26-15:06:11.062850,6.0,9.0,299.0
2023-05-26-15:06:11.063912,5.0,6.0,299.0
2023-05-26-15:06:11.064906,4.0,4.0,299.0
2023-05-26-15:06:11.065907,3.0,4.0,299.0
2023-05-26-15:06:11.066882,3.0,4.0,299.0
2023-05-26-15:06:11.067898,2.0,2.0,299.0
2023-05-26-15:06:11.068889,5.0,1.0,299.0
2023-05-26-15:06:11.069910,3.0,0.0,299.0
2023-05-26-15:06:11.070908,3.0,0.0,299.0
2023-05-26-15:06:11.071909,5.0,1.0,299.0
2023-05-26-15:06:11.072907,5.0,1.0,299.0
2023-05-26-15:06:11.073907,6.0,2.0,299.0
2023-05-26-15:06:11.074907,8.0,4.0,299.0
2023-05-26-15:06:11.075908,3.0,4.0,299.0
2023-05-26-15:06:11.076913,5.0,6.0,299.0
2023-05-26-15:06:11.077908,5.0,6.0,299.0
2023-05-26-15:06:11.078908,5.0,6.0,299.0
2023-05-26-15:06:11.079912,5.0,6.0,299.0
2023-05-26-15:06:11.080911,5.0,4.0,299.0
2023-05-26-15:06:11.081885,4.0,3.0,299.0
2023-05-26-15:06:11.082907,6.0,6.0,299.0
2023-05-26-15:06:11.083910,6.0,6.0,299.0
2023-05-26-15:06:11.084893,4.0,4.0,299.0
2023-05-26-15:06:11.085909,5.0,4.0,299.0
2023-05-26-15:06:11.086908,6.0,4.0,299.0
2023-05-26-15:06:11.087909,6.0,4.0,299.0
2023-05-26-15:06:11.088910,4.0,5.0,299.0
2023-05-26-15:06:11.089906,4.0,5.0,299.0
2023-05-26-15:06:11.091886,4.0,5.0,299.0
2023-05-26-15:06:11.091886,5.0,0.0,299.0
2023-05-26-15:06:11.092850,6.0,3.0,299.0
2023-05-26-15:06:11.093907,6.0,3.0,299.0
2023-05-26-15:06:11.094907,6.0,3.0,299.0
2023-05-26-15:06:11.095907,6.0,3.0,299.0
2023-05-26-15:06:11.096889,4.0,2.0,299.0
2023-05-26-15:06:11.097886,4.0,2.0,299.0
2023-05-26-15:06:11.098886,4.0,2.0,299.0
2023-05-26-15:06:11.099886,4.0,2.0,299.0
2023-05-26-15:06:11.100886,5.0,1.0,299.0
2023-05-26-15:06:11.101850,4.0,3.0,299.0
2023-05-26-15:06:11.102907,2.0,7.0,299.0
2023-05-26-15:06:11.103850,2.0,7.0,299.0
2023-05-26-15:06:11.104908,5.0,8.0,299.0
2023-05-26-15:06:11.105906,5.0,1.0,299.0
2023-05-26-15:06:11.106907,5.0,1.0,299.0
2023-05-26-15:06:11.107857,7.0,3.0,299.0
2023-05-26-15:06:11.108907,7.0,7.0,299.0
2023-05-26-15:06:11.109908,6.0,4.0,299.0
2023-05-26-15:06:11.110907,4.0,5.0,299.0
2023-05-26-15:06:11.111908,4.0,5.0,299.0
2023-05-26-15:06:11.112911,5.0,6.0,299.0
2023-05-26-15:06:11.113909,7.0,4.0,299.0
2023-05-26-15:06:11.114907,6.0,5.0,299.0
2023-05-26-15:06:11.115910,6.0,5.0,299.0
2023-05-26-15:06:11.116907,6.0,5.0,299.0
2023-05-26-15:06:11.117886,3.0,9.0,299.0
2023-05-26-15:06:11.118908,1.0,6.0,299.0
2023-05-26-15:06:11.119909,1.0,6.0,299.0
2023-05-26-15:06:11.120907,1.0,6.0,299.0
2023-05-26-15:06:11.121909,4.0,6.0,299.0
2023-05-26-15:06:11.122907,2.0,1.0,299.0
2023-05-26-15:06:11.123848,5.0,1.0,299.0
2023-05-26-15:06:11.124907,5.0,1.0,299.0
2023-05-26-15:06:11.126908,6.0,2.0,299.0
2023-05-26-15:06:11.126908,6.0,2.0,299.0
2023-05-26-15:06:11.127908,7.0,9.0,299.0
2023-05-26-15:06:11.128911,7.0,9.0,299.0
2023-05-26-15:06:11.129907,4.0,12.0,299.0
2023-05-26-15:06:11.130911,1.0,9.0,299.0
2023-05-26-15:06:11.131910,5.0,8.0,299.0
2023-05-26-15:06:11.132907,5.0,8.0,299.0
2023-05-26-15:06:11.133909,4.0,4.0,299.0
2023-05-26-15:06:11.134912,2.0,1.0,299.0
2023-05-26-15:06:11.135908,3.0,4.0,299.0
2023-05-26-15:06:11.136907,3.0,4.0,299.0
2023-05-26-15:06:11.137909,5.0,6.0,299.0
2023-05-26-15:06:11.138907,7.0,0.0,299.0
2023-05-26-15:06:11.139907,5.0,2.0,299.0
2023-05-26-15:06:11.140912,5.0,2.0,299.0
2023-05-26-15:06:11.141907,4.0,1.0,299.0
2023-05-26-15:06:11.142907,5.0,4.0,299.0
2023-05-26-15:06:11.143912,5.0,4.0,299.0
2023-05-26-15:06:11.144850,5.0,4.0,299.0
2023-05-26-15:06:11.145907,4.0,6.0,299.0
2023-05-26-15:06:11.146908,2.0,8.0,299.0
2023-05-26-15:06:11.147909,3.0,8.0,299.0
2023-05-26-15:06:11.148850,3.0,8.0,299.0
2023-05-26-15:06:11.149901,6.0,1.0,299.0
2023-05-26-15:06:11.150891,7.0,3.0,299.0
2023-05-26-15:06:11.151908,6.0,4.0,299.0
2023-05-26-15:06:11.152907,6.0,4.0,299.0
2023-05-26-15:06:11.153909,1.0,10.0,299.0
2023-05-26-15:06:11.154907,4.0,1.0,299.0
2023-05-26-15:06:11.155907,3.0,3.0,299.0
2023-05-26-15:06:11.156907,3.0,3.0,299.0
2023-05-26-15:06:11.157911,4.0,1.0,299.0
2023-05-26-15:06:11.158912,8.0,3.0,299.0
2023-05-26-15:06:11.160911,8.0,3.0,299.0
2023-05-26-15:06:11.160911,9.0,1.0,299.0
2023-05-26-15:06:11.161907,3.0,6.0,299.0
2023-05-26-15:06:11.162909,4.0,6.0,299.0
2023-05-26-15:06:11.163909,4.0,6.0,299.0
2023-05-26-15:06:11.164908,4.0,6.0,299.0
2023-05-26-15:06:11.165909,4.0,6.0,299.0
2023-05-26-15:06:11.166910,3.0,10.0,299.0
2023-05-26-15:06:11.167889,2.0,2.0,299.0
2023-05-26-15:06:11.168915,6.0,0.0,299.0
2023-05-26-15:06:11.169909,6.0,0.0,299.0
2023-05-26-15:06:11.170907,9.0,1.0,299.0
2023-05-26-15:06:11.171907,4.0,7.0,299.0
2023-05-26-15:06:11.172907,4.0,10.0,299.0
2023-05-26-15:06:11.173907,4.0,10.0,299.0
2023-05-26-15:06:11.174848,6.0,17.0,299.0
2023-05-26-15:06:11.175887,6.0,17.0,299.0
2023-05-26-15:06:11.176891,6.0,17.0,299.0
2023-05-26-15:06:11.177887,6.0,17.0,299.0
2023-05-26-15:06:11.178894,9.0,6.0,299.0
2023-05-26-15:06:11.179885,6.0,5.0,299.0
2023-05-26-15:06:11.180886,6.0,3.0,299.0
2023-05-26-15:06:11.181887,6.0,3.0,299.0
2023-05-26-15:06:11.182887,2.0,4.0,299.0
2023-05-26-15:06:11.183887,4.0,1.0,299.0
2023-05-26-15:06:11.184909,5.0,3.0,299.0
2023-05-26-15:06:11.185850,5.0,3.0,299.0
2023-05-26-15:06:11.186887,5.0,2.0,299.0
2023-05-26-15:06:11.187889,7.0,0.0,299.0
2023-05-26-15:06:11.188885,7.0,1.0,299.0
2023-05-26-15:06:11.189850,7.0,1.0,299.0
2023-05-26-15:06:11.190885,6.0,0.0,299.0
2023-05-26-15:06:11.191886,6.0,0.0,299.0
2023-05-26-15:06:11.193857,6.0,4.0,299.0
2023-05-26-15:06:11.193857,5.0,0.0,299.0
2023-05-26-15:06:11.194907,7.0,2.0,299.0
2023-05-26-15:06:11.195909,4.0,7.0,299.0
2023-05-26-15:06:11.196908,4.0,7.0,299.0
2023-05-26-15:06:11.197909,4.0,7.0,299.0
2023-05-26-15:06:11.198907,4.0,11.0,299.0
2023-05-26-15:06:11.199908,3.0,3.0,299.0
2023-05-26-15:06:11.200885,7.0,3.0,299.0
2023-05-26-15:06:11.201909,7.0,3.0,299.0
2023-05-26-15:06:11.202907,7.0,3.0,299.0
2023-05-26-15:06:11.203907,4.0,4.0,299.0
2023-05-26-15:06:11.204907,6.0,0.0,299.0
2023-05-26-15:06:11.205908,6.0,0.0,299.0
2023-05-26-15:06:11.206917,6.0,0.0,299.0
2023-05-26-15:06:11.207908,6.0,4.0,299.0
2023-05-26-15:06:11.208911,7.0,5.0,299.0
2023-05-26-15:06:11.209907,7.0,5.0,299.0
2023-05-26-15:06:11.210908,7.0,5.0,299.0
2023-05-26-15:06:11.211909,3.0,7.0,299.0
2023-05-26-15:06:11.212907,4.0,3.0,299.0
2023-05-26-15:06:11.213910,6.0,5.0,299.0
2023-05-26-15:06:11.214908,6.0,5.0,299.0
2023-05-26-15:06:11.215908,3.0,4.0,299.0
2023-05-26-15:06:11.216910,4.0,5.0,299.0
2023-05-26-15:06:11.217929,7.0,4.0,299.0
2023-05-26-15:06:11.218910,7.0,4.0,299.0
2023-05-26-15:06:11.219907,2.0,3.0,299.0
2023-05-26-15:06:11.220907,6.0,3.0,299.0
2023-05-26-15:06:11.221907,6.0,3.0,299.0
2023-05-26-15:06:11.222908,6.0,3.0,299.0
2023-05-26-15:06:11.223907,7.0,3.0,299.0
2023-05-26-15:06:11.224911,6.0,5.0,299.0
2023-05-26-15:06:11.225908,7.0,2.0,299.0
2023-05-26-15:06:11.226908,7.0,2.0,299.0
2023-05-26-15:06:11.228886,7.0,2.0,299.0
2023-05-26-15:06:11.228886,6.0,26.0,299.0
2023-05-26-15:06:11.229909,6.0,26.0,299.0
2023-05-26-15:06:11.230850,6.0,26.0,299.0
2023-05-26-15:06:11.231910,2.0,20.0,299.0
2023-05-26-15:06:11.232908,3.0,2.0,299.0
2023-05-26-15:06:11.233908,3.0,11.0,299.0
2023-05-26-15:06:11.234850,3.0,11.0,299.0
2023-05-26-15:06:11.235886,3.0,17.0,299.0
2023-05-26-15:06:11.236886,2.0,24.0,299.0
2023-05-26-15:06:11.237888,5.0,25.0,299.0
2023-05-26-15:06:11.238886,5.0,25.0,299.0
2023-05-26-15:06:11.239886,6.0,5.0,299.0
2023-05-26-15:06:11.240889,9.0,5.0,300.0
2023-05-26-15:06:11.241889,6.0,7.0,299.0
2023-05-26-15:06:11.242886,6.0,7.0,299.0
2023-05-26-15:06:11.243885,7.0,3.0,299.0
2023-05-26-15:06:11.244886,5.0,6.0,299.0
2023-05-26-15:06:11.245885,5.0,6.0,299.0
2023-05-26-15:06:11.246907,5.0,6.0,299.0
2023-05-26-15:06:11.247908,5.0,6.0,299.0
2023-05-26-15:06:11.248886,5.0,2.0,299.0
2023-05-26-15:06:11.249850,4.0,5.0,299.0
2023-05-26-15:06:11.250883,4.0,5.0,299.0
2023-05-26-15:06:11.251888,4.0,5.0,299.0
2023-05-26-15:06:11.252884,2.0,2.0,299.0
2023-05-26-15:06:11.253883,3.0,4.0,299.0
2023-05-26-15:06:11.254884,3.0,4.0,299.0
2023-05-26-15:06:11.255885,3.0,4.0,299.0
2023-05-26-15:06:11.256887,2.0,3.0,299.0
2023-05-26-15:06:11.257884,4.0,4.0,299.0
2023-05-26-15:06:11.258886,6.0,7.0,299.0
2023-05-26-15:06:11.259884,6.0,7.0,299.0
2023-05-26-15:06:11.260886,6.0,1.0,299.0
2023-05-26-15:06:11.261883,4.0,7.0,299.0
2023-05-26-15:06:11.263886,4.0,7.0,299.0
2023-05-26-15:06:11.263886,4.0,7.0,299.0
2023-05-26-15:06:11.264908,3.0,14.0,299.0
2023-05-26-15:06:11.265913,2.0,8.0,299.0
2023-05-26-15:06:11.266907,2.0,8.0,299.0
2023-05-26-15:06:11.267908,2.0,8.0,299.0
2023-05-26-15:06:11.268912,5.0,4.0,299.0
2023-05-26-15:06:11.269908,6.0,3.0,299.0
2023-05-26-15:06:11.270908,6.0,3.0,299.0
2023-05-26-15:06:11.271850,6.0,3.0,299.0
2023-05-26-15:06:11.272911,5.0,1.0,299.0
2023-05-26-15:06:11.273907,7.0,3.0,299.0
2023-05-26-15:06:11.274911,5.0,5.0,299.0
2023-05-26-15:06:11.275850,5.0,5.0,299.0
2023-05-26-15:06:11.276908,4.0,4.0,299.0
2023-05-26-15:06:11.277886,7.0,4.0,299.0
2023-05-26-15:06:11.278890,7.0,4.0,299.0
2023-05-26-15:06:11.279887,7.0,4.0,299.0
2023-05-26-15:06:11.280890,6.0,3.0,299.0
2023-05-26-15:06:11.281891,6.0,5.0,299.0
2023-05-26-15:06:11.282885,3.0,8.0,299.0
2023-05-26-15:06:11.283887,3.0,8.0,299.0
2023-05-26-15:06:11.284888,3.0,8.0,299.0
2023-05-26-15:06:11.285888,4.0,4.0,299.0
2023-05-26-15:06:11.286887,3.0,3.0,299.0
2023-05-26-15:06:11.287885,3.0,3.0,299.0
2023-05-26-15:06:11.288889,3.0,3.0,299.0
2023-05-26-15:06:11.289885,4.0,5.0,299.0
2023-05-26-15:06:11.290886,5.0,4.0,299.0
2023-05-26-15:06:11.291885,5.0,4.0,299.0
2023-05-26-15:06:11.292886,5.0,4.0,299.0
2023-05-26-15:06:11.293886,6.0,10.0,299.0
2023-05-26-15:06:11.295886,5.0,1.0,299.0
2023-05-26-15:06:11.295886,5.0,1.0,299.0
2023-05-26-15:06:11.296907,5.0,1.0,299.0
2023-05-26-15:06:11.297908,7.0,7.0,299.0
2023-05-26-15:06:11.298907,3.0,2.0,299.0
2023-05-26-15:06:11.299907,3.0,2.0,299.0
2023-05-26-15:06:11.300906,3.0,2.0,299.0
2023-05-26-15:06:11.301909,3.0,2.0,299.0
2023-05-26-15:06:11.302907,6.0,3.0,299.0
2023-05-26-15:06:11.303908,7.0,2.0,299.0
2023-05-26-15:06:11.304910,7.0,2.0,299.0
2023-05-26-15:06:11.305908,5.0,0.0,299.0
2023-05-26-15:06:11.306916,5.0,6.0,299.0
2023-05-26-15:06:11.307909,3.0,6.0,299.0
2023-05-26-15:06:11.308907,3.0,6.0,299.0
2023-05-26-15:06:11.309909,6.0,7.0,299.0
2023-05-26-15:06:11.310909,6.0,7.0,299.0
2023-05-26-15:06:11.311915,5.0,5.0,299.0
2023-05-26-15:06:11.312907,6.0,1.0,299.0
2023-05-26-15:06:11.313848,6.0,1.0,299.0
2023-05-26-15:06:11.314908,4.0,2.0,299.0
2023-05-26-15:06:11.315899,3.0,6.0,299.0
2023-05-26-15:06:11.316850,3.0,6.0,299.0
2023-05-26-15:06:11.317907,5.0,8.0,299.0
2023-05-26-15:06:11.318917,5.0,5.0,299.0
2023-05-26-15:06:11.319907,1.0,5.0,299.0
2023-05-26-15:06:11.320857,1.0,5.0,299.0
2023-05-26-15:06:11.321911,3.0,7.0,299.0
2023-05-26-15:06:11.322907,5.0,4.0,299.0
2023-05-26-15:06:11.323909,7.0,2.0,299.0
2023-05-26-15:06:11.324908,7.0,2.0,299.0
2023-05-26-15:06:11.325909,4.0,0.0,299.0
2023-05-26-15:06:11.326909,7.0,9.0,299.0
2023-05-26-15:06:11.327908,4.0,1.0,299.0
2023-05-26-15:06:11.328908,4.0,1.0,299.0
2023-05-26-15:06:11.330890,4.0,1.0,299.0
2023-05-26-15:06:11.330890,5.0,4.0,299.0
2023-05-26-15:06:11.331890,2.0,5.0,299.0
2023-05-26-15:06:11.332876,5.0,12.0,299.0
2023-05-26-15:06:11.333888,5.0,12.0,299.0
2023-05-26-15:06:11.334850,7.0,0.0,299.0
2023-05-26-15:06:11.335888,7.0,0.0,299.0
2023-05-26-15:06:11.336889,7.0,0.0,299.0
2023-05-26-15:06:11.337885,7.0,0.0,299.0
2023-05-26-15:06:11.338887,6.0,2.0,299.0
2023-05-26-15:06:11.339850,8.0,4.0,299.0
2023-05-26-15:06:11.340886,5.0,25.0,299.0
2023-05-26-15:06:11.341886,5.0,25.0,299.0
2023-05-26-15:06:11.342850,6.0,15.0,299.0
2023-05-26-15:06:11.343889,5.0,10.0,299.0
2023-05-26-15:06:11.344881,5.0,10.0,299.0
2023-05-26-15:06:11.345886,5.0,10.0,299.0
2023-05-26-15:06:11.347851,5.0,10.0,299.0
2023-05-26-15:06:11.347851,2.0,20.0,299.0
2023-05-26-15:06:11.348876,2.0,20.0,299.0
2023-05-26-15:06:11.349864,2.0,20.0,299.0
2023-05-26-15:06:11.350885,2.0,7.0,299.0
2023-05-26-15:06:11.351850,2.0,1.0,299.0
2023-05-26-15:06:11.352888,2.0,1.0,299.0
2023-05-26-15:06:11.353885,2.0,1.0,299.0
2023-05-26-15:06:11.354886,4.0,1.0,299.0
2023-05-26-15:06:11.355886,8.0,1.0,299.0
2023-05-26-15:06:11.356886,8.0,1.0,299.0
2023-05-26-15:06:11.357851,8.0,1.0,299.0
2023-05-26-15:06:11.358891,7.0,1.0,299.0
2023-05-26-15:06:11.359886,7.0,5.0,299.0
2023-05-26-15:06:11.360886,6.0,6.0,299.0
2023-05-26-15:06:11.361850,6.0,6.0,299.0
2023-05-26-15:06:11.362885,4.0,3.0,299.0
2023-05-26-15:06:11.363886,4.0,3.0,299.0
2023-05-26-15:06:11.365888,4.0,3.0,299.0
2023-05-26-15:06:11.365888,5.0,4.0,299.0
2023-05-26-15:06:11.366908,6.0,2.0,299.0
2023-05-26-15:06:11.367885,6.0,2.0,299.0
2023-05-26-15:06:11.368849,6.0,2.0,299.0
2023-05-26-15:06:11.369908,6.0,2.0,299.0
2023-05-26-15:06:11.370907,6.0,5.0,299.0
2023-05-26-15:06:11.371909,5.0,3.0,299.0
2023-05-26-15:06:11.372907,3.0,4.0,299.0
2023-05-26-15:06:11.373909,3.0,4.0,299.0
2023-05-26-15:06:11.374908,3.0,4.0,299.0
2023-05-26-15:06:11.375907,7.0,4.0,299.0
2023-05-26-15:06:11.376908,7.0,4.0,299.0
2023-05-26-15:06:11.377913,7.0,4.0,299.0
2023-05-26-15:06:11.378907,7.0,4.0,299.0
2023-05-26-15:06:11.379913,5.0,6.0,299.0
2023-05-26-15:06:11.380911,5.0,11.0,299.0
2023-05-26-15:06:11.381908,5.0,11.0,299.0
2023-05-26-15:06:11.382907,5.0,11.0,299.0
2023-05-26-15:06:11.383907,5.0,7.0,299.0
2023-05-26-15:06:11.384911,3.0,6.0,299.0
2023-05-26-15:06:11.385908,3.0,5.0,299.0
2023-05-26-15:06:11.386908,3.0,5.0,299.0
2023-05-26-15:06:11.387909,5.0,3.0,299.0
2023-05-26-15:06:11.388907,5.0,3.0,299.0
2023-05-26-15:06:11.389909,7.0,3.0,299.0
2023-05-26-15:06:11.390908,7.0,3.0,299.0
2023-05-26-15:06:11.391907,2.0,0.0,299.0
2023-05-26-15:06:11.392907,7.0,0.0,299.0
2023-05-26-15:06:11.393908,7.0,1.0,299.0
2023-05-26-15:06:11.394907,5.0,2.0,299.0
2023-05-26-15:06:11.395849,4.0,3.0,299.0
2023-05-26-15:06:11.396888,6.0,3.0,299.0
2023-05-26-15:06:11.398850,6.0,3.0,299.0
2023-05-26-15:06:11.398850,4.0,5.0,299.0
2023-05-26-15:06:11.399885,3.0,2.0,299.0
2023-05-26-15:06:11.400910,3.0,2.0,299.0
2023-05-26-15:06:11.401909,3.0,2.0,299.0
2023-05-26-15:06:11.402851,3.0,2.0,299.0
2023-05-26-15:06:11.403909,5.0,4.0,299.0
2023-05-26-15:06:11.404908,5.0,2.0,299.0
2023-05-26-15:06:11.405909,5.0,6.0,299.0
2023-05-26-15:06:11.406885,5.0,6.0,299.0
2023-05-26-15:06:11.407908,4.0,0.0,299.0
2023-05-26-15:06:11.408907,10.0,2.0,299.0
2023-05-26-15:06:11.409852,7.0,6.0,299.0
2023-05-26-15:06:11.410885,7.0,6.0,299.0
2023-05-26-15:06:11.411886,4.0,8.0,299.0
2023-05-26-15:06:11.412889,4.0,8.0,299.0
2023-05-26-15:06:11.413887,3.0,7.0,299.0
2023-05-26-15:06:11.414885,1.0,7.0,299.0
2023-05-26-15:06:11.415876,1.0,5.0,299.0
2023-05-26-15:06:11.416879,8.0,4.0,299.0
2023-05-26-15:06:11.417883,8.0,4.0,299.0
2023-05-26-15:06:11.418850,8.0,4.0,299.0
2023-05-26-15:06:11.419851,8.0,4.0,299.0
2023-05-26-15:06:11.420851,7.0,8.0,299.0
2023-05-26-15:06:11.421880,10.0,9.0,299.0
2023-05-26-15:06:11.422877,2.0,9.0,299.0
2023-05-26-15:06:11.423877,2.0,9.0,299.0
2023-05-26-15:06:11.424848,5.0,7.0,299.0
2023-05-26-15:06:11.425848,7.0,1.0,299.0
2023-05-26-15:06:11.426847,7.0,1.0,299.0
2023-05-26-15:06:11.427847,7.0,1.0,299.0
2023-05-26-15:06:11.428995,7.0,3.0,299.0
2023-05-26-15:06:11.429908,1.0,6.0,299.0
2023-05-26-15:06:11.430886,1.0,6.0,299.0
2023-05-26-15:06:11.430886,1.0,6.0,299.0
2023-05-26-15:06:11.431906,1.0,6.0,299.0
2023-05-26-15:06:11.432909,1.0,8.0,299.0
2023-05-26-15:06:11.433908,2.0,6.0,299.0
2023-05-26-15:06:11.434897,4.0,4.0,299.0
2023-05-26-15:06:11.435908,4.0,4.0,299.0
2023-05-26-15:06:11.436906,6.0,4.0,299.0
2023-05-26-15:06:11.437848,4.0,3.0,299.0
2023-05-26-15:06:11.438906,2.0,5.0,299.0
2023-05-26-15:06:11.439907,2.0,5.0,299.0
2023-05-26-15:06:11.440907,3.0,5.0,299.0
2023-05-26-15:06:11.441907,3.0,7.0,299.0
2023-05-26-15:06:11.442907,4.0,0.0,299.0
2023-05-26-15:06:11.443850,4.0,0.0,299.0
2023-05-26-15:06:11.444906,6.0,1.0,299.0
2023-05-26-15:06:11.445906,5.0,6.0,299.0
2023-05-26-15:06:11.446911,5.0,4.0,299.0
2023-05-26-15:06:11.447856,5.0,4.0,299.0
2023-05-26-15:06:11.448888,5.0,7.0,299.0
2023-05-26-15:06:11.449908,4.0,6.0,299.0
2023-05-26-15:06:11.450906,4.0,6.0,299.0
2023-05-26-15:06:11.451891,4.0,6.0,299.0
2023-05-26-15:06:11.452906,4.0,4.0,299.0
2023-05-26-15:06:11.453909,5.0,4.0,299.0
2023-05-26-15:06:11.454907,4.0,2.0,299.0
2023-05-26-15:06:11.455908,4.0,2.0,299.0
2023-05-26-15:06:11.456908,4.0,2.0,299.0
2023-05-26-15:06:11.457907,5.0,6.0,299.0
2023-05-26-15:06:11.458906,4.0,1.0,299.0
2023-05-26-15:06:11.459937,4.0,1.0,299.0
2023-05-26-15:06:11.459937,4.0,1.0,299.0
2023-05-26-15:06:11.460984,4.0,2.0,299.0
2023-05-26-15:06:11.461982,6.0,5.0,299.0
2023-05-26-15:06:11.462982,6.0,5.0,299.0
2023-05-26-15:06:11.463985,6.0,5.0,299.0
2023-05-26-15:06:11.464565,6.0,5.0,299.0
2023-05-26-15:06:11.465590,4.0,22.0,299.0
2023-05-26-15:06:11.465590,4.0,22.0,299.0
2023-05-26-15:06:11.466597,4.0,22.0,299.0
2023-05-26-15:06:11.467178,4.0,22.0,299.0
2023-05-26-15:06:11.467178,4.0,22.0,299.0
2023-05-26-15:06:11.468215,4.0,22.0,299.0
2023-05-26-15:06:11.469199,2.0,20.0,299.0
2023-05-26-15:06:11.470223,9.0,6.0,299.0
2023-05-26-15:06:11.471226,8.0,9.0,299.0
2023-05-26-15:06:11.471786,8.0,9.0,299.0
2023-05-26-15:06:11.472810,8.0,9.0,299.0
2023-05-26-15:06:11.473834,8.0,9.0,299.0
2023-05-26-15:06:11.474830,5.0,3.0,299.0
2023-05-26-15:06:11.475831,4.0,0.0,299.0
2023-05-26-15:06:11.476830,4.0,0.0,299.0
2023-05-26-15:06:11.477832,6.0,2.0,299.0
2023-05-26-15:06:11.478831,4.0,0.0,299.0
2023-05-26-15:06:11.479831,7.0,0.0,299.0
2023-05-26-15:06:11.481206,7.0,0.0,299.0
2023-05-26-15:06:11.482252,4.0,3.0,299.0
2023-05-26-15:06:11.483255,5.0,3.0,298.0
2023-05-26-15:06:11.484258,5.0,3.0,298.0
2023-05-26-15:06:11.485235,5.0,3.0,298.0
2023-05-26-15:06:11.486255,6.0,4.0,299.0
2023-05-26-15:06:11.487253,6.0,4.0,299.0
2023-05-26-15:06:11.488256,5.0,6.0,299.0
2023-05-26-15:06:11.489383,5.0,6.0,299.0
2023-05-26-15:06:11.489383,6.0,4.0,299.0
2023-05-26-15:06:11.490431,6.0,3.0,299.0
2023-05-26-15:06:11.491427,5.0,1.0,299.0
2023-05-26-15:06:11.492431,5.0,1.0,299.0
2023-05-26-15:06:11.493428,5.0,1.0,299.0
2023-05-26-15:06:11.494429,4.0,1.0,299.0
2023-05-26-15:06:11.495428,6.0,2.0,299.0
2023-05-26-15:06:11.496428,7.0,1.0,299.0
2023-05-26-15:06:11.497583,7.0,1.0,299.0
2023-05-26-15:06:11.497583,2.0,7.0,299.0
2023-05-26-15:06:11.499608,2.0,7.0,299.0
2023-05-26-15:06:11.499608,2.0,7.0,299.0
2023-05-26-15:06:11.500608,2.0,7.0,299.0
2023-05-26-15:06:11.501131,2.0,7.0,299.0
2023-05-26-15:06:11.501131,5.0,6.0,299.0
2023-05-26-15:06:11.502157,5.0,6.0,299.0
2023-05-26-15:06:11.503158,3.0,6.0,299.0
2023-05-26-15:06:11.504155,3.0,3.0,299.0
2023-05-26-15:06:11.505161,3.0,3.0,299.0
2023-05-26-15:06:11.505701,6.0,1.0,299.0
2023-05-26-15:06:11.506048,4.0,3.0,299.0
2023-05-26-15:06:11.506742,4.0,3.0,299.0
2023-05-26-15:06:11.507742,4.0,3.0,299.0
2023-05-26-15:06:11.508745,4.0,3.0,299.0
2023-05-26-15:06:11.509399,4.0,3.0,299.0
2023-05-26-15:06:11.509399,6.0,1.0,299.0
2023-05-26-15:06:11.510303,6.0,1.0,299.0
2023-05-26-15:06:11.511303,5.0,4.0,299.0
2023-05-26-15:06:11.512302,5.0,4.0,299.0
2023-05-26-15:06:11.513304,5.0,4.0,299.0
2023-05-26-15:06:11.514302,6.0,2.0,299.0
2023-05-26-15:06:11.515307,6.0,2.0,299.0
2023-05-26-15:06:11.516302,1.0,12.0,299.0
2023-05-26-15:06:11.517324,4.0,3.0,299.0
2023-05-26-15:06:11.518310,4.0,3.0,299.0
2023-05-26-15:06:11.519340,0.0,5.0,299.0
2023-05-26-15:06:11.520325,0.0,5.0,299.0
2023-05-26-15:06:11.521327,0.0,5.0,299.0
2023-05-26-15:06:11.522266,0.0,5.0,299.0
2023-05-26-15:06:11.523310,4.0,17.0,299.0
2023-05-26-15:06:11.524324,9.0,2.0,299.0
2023-05-26-15:06:11.525325,9.0,2.0,299.0
2023-05-26-15:06:11.526324,9.0,2.0,299.0
2023-05-26-15:06:11.527325,10.0,4.0,299.0
2023-05-26-15:06:11.528325,4.0,4.0,299.0
2023-05-26-15:06:11.529325,7.0,6.0,299.0
2023-05-26-15:06:11.530329,7.0,6.0,299.0
2023-05-26-15:06:11.531330,6.0,2.0,299.0
2023-05-26-15:06:11.532325,6.0,2.0,299.0
2023-05-26-15:06:11.534306,6.0,3.0,299.0
2023-05-26-15:06:11.534306,0.0,2.0,299.0
2023-05-26-15:06:11.535268,1.0,6.0,299.0
2023-05-26-15:06:11.536334,1.0,7.0,299.0
2023-05-26-15:06:11.537327,1.0,7.0,299.0
2023-05-26-15:06:11.538325,1.0,7.0,299.0
2023-05-26-15:06:11.539327,2.0,3.0,299.0
2023-05-26-15:06:11.540303,4.0,2.0,299.0
2023-05-26-15:06:11.541304,5.0,0.0,299.0
2023-05-26-15:06:11.542304,5.0,0.0,299.0
2023-05-26-15:06:11.543304,3.0,2.0,299.0
2023-05-26-15:06:11.544303,4.0,4.0,299.0
2023-05-26-15:06:11.545304,3.0,3.0,299.0
2023-05-26-15:06:11.546268,3.0,3.0,299.0
2023-05-26-15:06:11.547311,4.0,5.0,299.0
2023-05-26-15:06:11.548307,6.0,4.0,299.0
2023-05-26-15:06:11.549303,3.0,10.0,299.0
2023-05-26-15:06:11.550268,3.0,10.0,299.0
2023-05-26-15:06:11.551304,3.0,10.0,299.0
2023-05-26-15:06:11.552291,7.0,2.0,299.0
2023-05-26-15:06:11.553302,7.0,2.0,299.0
2023-05-26-15:06:11.554305,7.0,2.0,299.0
2023-05-26-15:06:11.555302,7.0,5.0,299.0
2023-05-26-15:06:11.556302,5.0,2.0,299.0
2023-05-26-15:06:11.557302,6.0,2.0,299.0
2023-05-26-15:06:11.558301,6.0,2.0,299.0
2023-05-26-15:06:11.559307,6.0,2.0,299.0
2023-05-26-15:06:11.560302,6.0,2.0,299.0
2023-05-26-15:06:11.561305,6.0,8.0,299.0
2023-05-26-15:06:11.562301,6.0,8.0,299.0
2023-05-26-15:06:11.563305,6.0,8.0,299.0
2023-05-26-15:06:11.564302,3.0,4.0,299.0
2023-05-26-15:06:11.565303,4.0,5.0,299.0
2023-05-26-15:06:11.566304,4.0,5.0,299.0
2023-05-26-15:06:11.568303,4.0,5.0,299.0
2023-05-26-15:06:11.568303,4.0,6.0,299.0
2023-05-26-15:06:11.569268,5.0,4.0,299.0
2023-05-26-15:06:11.570325,5.0,5.0,299.0
2023-05-26-15:06:11.571327,5.0,5.0,299.0
2023-05-26-15:06:11.572326,5.0,4.0,299.0
2023-05-26-15:06:11.573325,5.0,1.0,299.0
2023-05-26-15:06:11.574304,4.0,1.0,299.0
2023-05-26-15:06:11.575304,4.0,1.0,299.0
2023-05-26-15:06:11.576325,5.0,0.0,299.0
2023-05-26-15:06:11.577325,7.0,0.0,299.0
2023-05-26-15:06:11.578329,6.0,3.0,299.0
2023-05-26-15:06:11.579325,6.0,3.0,299.0
2023-05-26-15:06:11.580325,6.0,4.0,299.0
2023-05-26-15:06:11.581325,5.0,6.0,299.0
2023-05-26-15:06:11.582328,2.0,8.0,299.0
2023-05-26-15:06:11.583325,2.0,8.0,299.0
2023-05-26-15:06:11.584304,2.0,6.0,299.0
2023-05-26-15:06:11.585329,6.0,7.0,299.0
2023-05-26-15:06:11.586285,5.0,2.0,299.0
2023-05-26-15:06:11.587269,5.0,2.0,299.0
2023-05-26-15:06:11.588325,5.0,19.0,299.0
2023-05-26-15:06:11.589325,4.0,16.0,299.0
2023-05-26-15:06:11.590325,5.0,1.0,299.0
2023-05-26-15:06:11.591268,5.0,1.0,299.0
2023-05-26-15:06:11.592325,8.0,9.0,299.0
2023-05-26-15:06:11.593325,5.0,22.0,299.0
2023-05-26-15:06:11.594329,5.0,23.0,299.0
2023-05-26-15:06:11.595312,5.0,23.0,299.0
2023-05-26-15:06:11.596326,7.0,16.0,299.0
2023-05-26-15:06:11.597326,4.0,3.0,299.0
2023-05-26-15:06:11.598328,5.0,4.0,299.0
2023-05-26-15:06:11.599325,5.0,4.0,299.0
2023-05-26-15:06:11.600325,1.0,6.0,299.0
2023-05-26-15:06:11.601327,1.0,3.0,299.0
2023-05-26-15:06:11.603304,1.0,3.0,299.0
2023-05-26-15:06:11.603304,1.0,3.0,299.0
2023-05-26-15:06:11.604303,7.0,1.0,299.0
2023-05-26-15:06:11.605303,6.0,1.0,299.0
2023-05-26-15:06:11.606304,6.0,1.0,299.0
2023-05-26-15:06:11.607304,6.0,1.0,299.0
2023-05-26-15:06:11.608303,6.0,1.0,299.0
2023-05-26-15:06:11.609306,8.0,4.0,299.0
2023-05-26-15:06:11.610303,4.0,7.0,299.0
2023-05-26-15:06:11.611306,2.0,5.0,299.0
2023-05-26-15:06:11.612304,2.0,5.0,299.0
2023-05-26-15:06:11.613303,5.0,5.0,299.0
2023-05-26-15:06:11.614306,5.0,2.0,299.0
2023-05-26-15:06:11.615305,7.0,12.0,299.0
2023-05-26-15:06:11.616296,7.0,12.0,299.0
2023-05-26-15:06:11.617326,2.0,4.0,299.0
2023-05-26-15:06:11.618319,2.0,13.0,299.0
2023-05-26-15:06:11.619345,2.0,13.0,299.0
2023-05-26-15:06:11.620303,2.0,13.0,299.0
2023-05-26-15:06:11.621308,2.0,11.0,300.0
2023-05-26-15:06:11.622304,3.0,1.0,299.0
2023-05-26-15:06:11.623295,6.0,1.0,300.0
2023-05-26-15:06:11.624327,6.0,1.0,300.0
2023-05-26-15:06:11.625304,7.0,2.0,300.0
2023-05-26-15:06:11.626329,5.0,3.0,300.0
2023-05-26-15:06:11.627325,5.0,3.0,300.0
2023-05-26-15:06:11.628325,5.0,3.0,300.0
2023-05-26-15:06:11.629324,7.0,5.0,300.0
2023-05-26-15:06:11.630327,6.0,7.0,300.0
2023-05-26-15:06:11.631325,8.0,4.0,300.0
2023-05-26-15:06:11.632268,8.0,4.0,300.0
2023-05-26-15:06:11.633331,6.0,0.0,300.0
2023-05-26-15:06:11.634324,6.0,0.0,300.0
2023-05-26-15:06:11.635306,3.0,1.0,300.0
2023-05-26-15:06:11.637303,2.0,3.0,300.0
