# 
# 
# 
# 
# 
# 
# 
# 
# 
# 
# time,realtime,ref,inp,inp0,inp1,dis,state...
0.000000000000000000e+00,1.642706811514010906e+09,0.000000000000000000e+00,-4.727334646213282587e-02,0.000000000000000000e+00,-1.890933858485313035e-01,-0.000000000000000000e+00,0.000000000000000000e+00,0.000000000000000000e+00
1.666666666666666644e-02,1.642706811519023418e+09,1.294841934427322557e-06,-4.727334646213282587e-02,0.000000000000000000e+00,-1.890933858485313035e-01,0.000000000000000000e+00,-6.529418201387885997e-06,-7.813596895008257086e-04
3.333333333333333287e-02,1.642706811521017551e+09,5.112353979204503813e-06,-4.727334646213282587e-02,0.000000000000000000e+00,-1.890933858485313035e-01,-1.773857567846165578e-05,-2.597602616519011478e-05,-1.550097832167211505e-03
5.000000000000000278e-02,1.642706811539123535e+09,1.139638837297105511e-05,-4.727334646213282587e-02,0.000000000000000000e+00,-1.890933858485313035e-01,-7.210426321789717137e-05,-5.813626702681202573e-05,-2.307028436728101629e-03
6.666666666666666574e-02,1.642706811554630995e+09,2.015514073703772877e-05,-4.727334646213282587e-02,0.000000000000000000e+00,-1.890933858485313035e-01,-1.636304361569794062e-04,-1.028201119723355325e-04,-3.052960873420741510e-03
8.333333333333332871e-02,1.642706811574865818e+09,3.146635026744819741e-05,-4.727334646213282587e-02,0.000000000000000000e+00,-1.890933858485313035e-01,-2.912779262733523953e-04,-1.598507663707422126e-04,-3.788673958829104002e-03
1.000000000000000056e-01,1.642706811590285540e+09,4.548088089552672071e-05,-4.727334646213282587e-02,0.000000000000000000e+00,-1.890933858485313035e-01,-4.524798169929855141e-04,-2.290639537530799841e-04,-4.514891209432196455e-03
1.166666666666666685e-01,1.642706811606513023e+09,6.242460143184579721e-05,-4.727334646213282587e-02,0.000000000000000000e+00,-1.890933858485313035e-01,-6.432148309123226961e-04,-3.103068009050816687e-04,-5.232257717164280793e-03
1.333333333333333315e-01,1.642706811622283697e+09,8.259851020780753224e-05,-4.727334646213282587e-02,0.000000000000000000e+00,-1.890933858485313035e-01,-8.581079780549758645e-04,-4.034363546480003839e-04,-5.941319070757825407e-03
1.499999999999999944e-01,1.642706811638488054e+09,1.063770782995606572e-04,-4.727334646213282587e-02,0.000000000000000000e+00,-1.890933858485313035e-01,-1.090556739527486678e-03,-5.083177676484385140e-04,-6.642502711118392252e-03
1.666666666666666574e-01,1.642706811657891989e+09,1.342048146412924030e-04,-4.727334646213282587e-02,0.000000000000000000e+00,-1.890933858485313035e-01,-1.332880692822974601e-03,-6.248221967259508800e-04,-7.336102067956810045e-03
1.833333333333333204e-01,1.642706811673440695e+09,1.665910857778818454e-04,-4.727334646213282587e-02,0.000000000000000000e+00,-1.890933858485313035e-01,-1.576492144805931002e-03,-7.528244625301538538e-04,-8.022263778934920000e-03
2.000000000000000111e-01,1.642706811690177917e+09,2.041032522336636099e-04,-4.727334646213282587e-02,0.000000000000000000e+00,-1.890933858485313035e-01,-1.812085030718162777e-03,-8.922005240597197760e-04,-8.700978242286203090e-03
2.166666666666666741e-01,1.642706811707724571e+09,2.473582120482537244e-04,-4.727334646213282587e-02,0.000000000000000000e+00,-1.890933858485313035e-01,-2.029839066310110476e-03,-1.042824825227519053e-03,-9.372073699925785595e-03
2.333333333333333370e-01,1.642706811725723028e+09,2.970124695222229488e-04,-4.727334646213282587e-02,0.000000000000000000e+00,-1.890933858485313035e-01,-2.219635908925613344e-03,-1.204567573484449953e-03,-1.003521399118649515e-02
2.500000000000000000e-01,1.642706811740849972e+09,3.537508732076704568e-04,-4.727334646213282587e-02,0.000000000000000000e+00,-1.890933858485313035e-01,-2.371283895079259046e-03,-1.377292012356658027e-03,-1.068990005826782157e-02
2.666666666666666630e-01,1.642706811760232449e+09,4.182741912728124762e-04,-4.727334646213282587e-02,0.000000000000000000e+00,-1.890933858485313035e-01,-2.474747779280995867e-03,-1.560851750597278161e-03,-1.133547522405076516e-02
2.833333333333333259e-01,1.642706811775192499e+09,4.912857141911033346e-04,-4.727334646213282587e-02,0.000000000000000000e+00,-1.890933858485313035e-01,-2.520379803558496327e-03,-1.755088210488221605e-03,-1.197113420192134382e-02
2.999999999999999889e-01,1.642706811793139696e+09,5.734770939093145406e-04,-4.727334646213282587e-02,0.000000000000000000e+00,-1.890933858485313035e-01,-2.499148380714649124e-03,-1.959828256647091864e-03,-1.259593573647659753e-02
3.166666666666666519e-01,1.642706811808095455e+09,6.655136449252004385e-04,-4.727334646213282587e-02,0.000000000000000000e+00,-1.890933858485313035e-01,-2.402860677662065503e-03,-2.174882064509915582e-03,-1.320881871427702185e-02
3.333333333333333148e-01,1.642706811827560425e+09,7.680193457827739351e-04,-4.727334646213282587e-02,0.000000000000000000e+00,-1.890933858485313035e-01,-2.224375438430150047e-03,-2.400041284496406361e-03,-1.380862152596658114e-02
3.499999999999999778e-01,1.642706811844002008e+09,8.815617891439951571e-04,-4.727334646213282587e-02,0.000000000000000000e+00,-1.890933858485313035e-01,-1.957802489273826989e-03,-2.635077553758672156e-03,-1.439410440589442702e-02
3.666666666666666408e-01,1.642706811860997200e+09,1.006637334638675390e-03,-4.727334646213282587e-02,0.000000000000000000e+00,-1.890933858485313035e-01,-1.598685519758251492e-03,-2.879741402417201890e-03,-1.496397442360074791e-02
3.833333333333333037e-01,1.642706811880941629e+09,1.143656720998047997e-03,-4.727334646213282587e-02,0.000000000000000000e+00,-1.890933858485313035e-01,-1.144164932192232075e-03,-3.133761595362628653e-03,-1.551691275389407119e-02
4.000000000000000222e-01,1.642706811898892879e+09,1.292931392462056545e-03,-3.926091485838159589e-02,0.000000000000000000e+00,-1.570436594335263836e-01,-5.931177952002184917e-04,-3.395738263071596333e-03,-1.591916996374479962e-02
4.166666666666666852e-01,1.642706811912890434e+09,1.454660789089377371e-03,-4.727334646213282587e-02,0.000000000000000000e+00,-1.890933858485313035e-01,5.372777712964165321e-05,-3.665380996062745506e-03,-1.643652087550370386e-02
4.333333333333333481e-01,1.642706811931831837e+09,1.628920841420459847e-03,-4.727334646213282587e-02,0.000000000000000000e+00,-1.890933858485313035e-01,7.937061744208063910e-04,-3.943472581298339275e-03,-1.693308996172997877e-02
4.500000000000000111e-01,1.642706811947791100e+09,1.815653897029068185e-03,-4.727334646213282587e-02,0.000000000000000000e+00,-1.890933858485313035e-01,1.622157761434403532e-03,-4.229657305454502352e-03,-1.740775838258545524e-02
4.666666666666666741e-01,1.642706811964716911e+09,2.014660289982761910e-03,-4.727334646213282587e-02,0.000000000000000000e+00,-1.890933858485313035e-01,2.532403874553463847e-03,-4.523561884871791887e-03,-1.785953617962782181e-02
4.833333333333333370e-01,1.642706812062490463e+09,2.225591744304879303e-03,-4.727334646213282587e-02,0.000000000000000000e+00,-1.890933858485313035e-01,3.515754528432448681e-03,-4.824797873582058715e-03,-1.828759338981256199e-02
5.000000000000000000e-01,1.642706812063452959e+09,2.447946779427969538e-03,-4.727334646213282587e-02,0.000000000000000000e+00,-1.890933858485313035e-01,4.561549578565910271e-03,-5.132964579919132957e-03,-1.869128996486826844e-02
5.166666666666666075e-01,1.642706812086391687e+09,2.681068259636125092e-03,-4.727334646213282587e-02,0.000000000000000000e+00,-1.890933858485313035e-01,5.657233629755206543e-03,-5.447652467306890976e-03,-1.907020395802013629e-02
5.333333333333333259e-01,1.642706812102348804e+09,2.924143200940586360e-03,-4.727334646213282587e-02,0.000000000000000000e+00,-1.890933858485313035e-01,6.788464513734176857e-03,-5.768447005949898024e-03,-1.942415745185043993e-02
5.500000000000000444e-01,1.642706812117343903e+09,3.176204918087828163e-03,-4.727334646213282587e-02,0.000000000000000000e+00,-1.890933858485313035e-01,7.939254687218472856e-03,-6.094932933543923542e-03,-1.975323972050498783e-02
5.666666666666666519e-01,1.642706812135260344e+09,3.436137561866301014e-03,-4.727334646213282587e-02,0.000000000000000000e+00,-1.890933858485313035e-01,9.092144430155305393e-03,-6.426698874901822650e-03,-2.005782714634671282e-02
5.833333333333333703e-01,1.642706812154211521e+09,3.702683062990949278e-03,-4.727334646213282587e-02,0.000000000000000000e+00,-1.890933858485313035e-01,1.022840525881789191e-02,-6.763342262677230106e-03,-2.033859944529322131e-02
5.999999999999999778e-01,1.642706812170169353e+09,3.974450464061697087e-03,-4.727334646213282587e-02,0.000000000000000000e+00,-1.890933858485313035e-01,1.132827151544544241e-02,-7.104474494282217965e-03,-2.059655179613302176e-02
6.166666666666666963e-01,1.642706812187121868e+09,4.249927585890580541e-03,-4.727334646213282587e-02,0.000000000000000000e+00,-1.890933858485313035e-01,1.237119766113842223e-02,-7.449726253747493768e-03,-2.083300251668432010e-02
6.333333333333333037e-01,1.642706812201084852e+09,4.527494939360237128e-03,-4.727334646213282587e-02,0.000000000000000000e+00,-1.890933858485313035e-01,1.333613838729895938e-02,-7.798752921769212115e-03,-2.104959598324316478e-02
6.500000000000000222e-01,1.642706812221035480e+09,4.805441759409132506e-03,-4.727334646213282587e-02,0.000000000000000000e+00,-1.890933858485313035e-01,1.420184827846728871e-02,-8.151239992620436595e-03,-2.124830054878636479e-02
6.666666666666666297e-01,1.642706812236990452e+09,5.081984004229236213e-03,-5.528577806588434729e-02,0.000000000000000000e+00,-2.211431122635373892e-01,1.494719741109188683e-02,-8.508015094113949989e-03,-2.156383512487272669e-02
6.833333333333333481e-01,1.642706812253943205e+09,5.355284130795683398e-03,-4.727334646213282587e-02,0.000000000000000000e+00,-1.890933858485313035e-01,1.555149896338672323e-02,-8.868815375932797423e-03,-2.173173230136631398e-02
6.999999999999999556e-01,1.642706812269936085e+09,5.623472427896261845e-03,-4.727334646213282587e-02,0.000000000000000000e+00,-1.890933858485313035e-01,1.599484464539767045e-02,-9.232329518857928033e-03,-2.188952652205343463e-02
7.166666666666666741e-01,1.642706812287852526e+09,5.884669660341878758e-03,-4.727334646213282587e-02,0.000000000000000000e+00,-1.890933858485313035e-01,1.625844353968821168e-02,-9.598415362433873610e-03,-2.204035572718490016e-02
7.333333333333332815e-01,1.642706812307800770e+09,6.137010753440037825e-03,-4.727334646213282587e-02,0.000000000000000000e+00,-1.890933858485313035e-01,1.632495977514480251e-02,-9.966985006234640662e-03,-2.218759252816726590e-02
7.500000000000000000e-01,1.642706812321764231e+09,6.378669225491497008e-03,-4.727334646213282587e-02,0.000000000000000000e+00,-1.890933858485313035e-01,1.617884434222936069e-02,-1.033800844183452999e-02,-2.233481079456576743e-02
7.666666666666666075e-01,1.642706812338717699e+09,6.607882058376124065e-03,-4.727334646213282587e-02,0.000000000000000000e+00,-1.890933858485313035e-01,1.580665629992789381e-02,-1.071151658814542898e-02,-2.248574748429161760e-02
7.833333333333333259e-01,1.642706812355671167e+09,6.822974682533628453e-03,-3.926091485838159589e-02,0.000000000000000000e+00,-1.570436594335263836e-01,1.519736862440420298e-02,-1.108649697256753816e-02,-2.251182620376913218e-02
8.000000000000000444e-01,1.642706812373624802e+09,7.022385743075621779e-03,-4.727334646213282587e-02,0.000000000000000000e+00,-1.890933858485313035e-01,1.434265400806787431e-02,-1.146313313496889578e-02,-2.268403491560219004e-02
8.166666666666666519e-01,1.642706812389582157e+09,7.204691308591752892e-03,-4.727334646213282587e-02,0.000000000000000000e+00,-1.890933858485313035e-01,1.323714603584705968e-02,-1.184276835032700530e-02,-2.287166970734884341e-02
8.333333333333333703e-01,1.642706812404573679e+09,7.368628183581546996e-03,-4.727334646213282587e-02,0.000000000000000000e+00,-1.890933858485313035e-01,1.187867134268193701e-02,-1.222569252920562531e-02,-2.307865678046107372e-02
8.499999999999999778e-01,1.642706812424521923e+09,7.513115989444577383e-03,-4.727334646213282587e-02,0.000000000000000000e+00,-1.890933858485313035e-01,1.026844859170880295e-02,-1.261226030824811467e-02,-2.330883729925898457e-02
8.666666666666666963e-01,1.642706812441441536e+09,7.637277687620939830e-03,-4.727334646213282587e-02,0.000000000000000000e+00,-1.890933858485313035e-01,8.411250404687717688e-03,-1.300288915376274050e-02,-2.356591005470177677e-02
8.833333333333333037e-01,1.642706812458396196e+09,7.740458231757168552e-03,-4.727334646213282587e-02,0.000000000000000000e+00,-1.890933858485313035e-01,6.315524722663866559e-03,-1.339805650086106636e-02,-2.385337306992793213e-02
9.000000000000000222e-01,1.642706812475351095e+09,7.822241053581769840e-03,-4.727334646213282587e-02,0.000000000000000000e+00,-1.890933858485313035e-01,3.993472472719301718e-03,-1.379829591669346281e-02,-2.417446488725242745e-02
9.166666666666666297e-01,1.642706812493303299e+09,7.882462109348679219e-03,-4.727334646213282587e-02,0.000000000000000000e+00,-1.890933858485313035e-01,1.461078862399322080e-03,-1.420419228892162537e-02,-2.453210630835315695e-02
9.333333333333333481e-01,1.642706812511290789e+09,7.921221240024999000e-03,-4.727334646213282587e-02,0.000000000000000000e+00,-1.890933858485313035e-01,-1.261903887181382812e-03,-1.461637605362599290e-02,-2.492884338280402720e-02
9.499999999999999556e-01,1.642706812526216507e+09,7.938890628580982933e-03,-4.727334646213282587e-02,0.000000000000000000e+00,-1.890933858485313035e-01,-4.152024030170101479e-03,-1.503551649021809405e-02,-2.536679245441697539e-02
9.666666666666666741e-01,1.642706812541174889e+09,7.936120171447555438e-03,-4.727334646213282587e-02,0.000000000000000000e+00,-1.890933858485313035e-01,-7.182249105287106215e-03,-1.546231412445881956e-02,-2.584758807963324911e-02
9.833333333333332815e-01,1.642706812559126854e+09,7.913839618051613997e-03,-4.727334646213282587e-02,0.000000000000000000e+00,-1.890933858485313035e-01,-1.032213657412323939e-02,-1.589749229421206708e-02,-2.637233462715093610e-02
1.000000000000000000e+00,1.642706812577080965e+09,7.873257371883216754e-03,-4.727334646213282587e-02,0.000000000000000000e+00,-1.890933858485313035e-01,-1.353805618508928908e-02,-1.634178794592361719e-02,-2.694156235289308851e-02
1.016666666666666607e+00,1.642706812596028090e+09,7.815855888311089641e-03,-4.727334646213282587e-02,0.000000000000000000e+00,-1.890933858485313035e-01,-1.679346333254165546e-02,-1.679594174283959018e-02,-2.755518871922169044e-02
1.033333333333333215e+00,1.642706812615977764e+09,7.743383647825321549e-03,-4.727334646213282587e-02,0.000000000000000000e+00,-1.890933858485313035e-01,-2.004922204498419541e-02,-1.726068757849903365e-02,-2.821248569201419837e-02
1.050000000000000044e+00,1.642706812628940344e+09,7.657843727999146324e-03,-4.727334646213282587e-02,0.000000000000000000e+00,-1.890933858485313035e-01,-2.326397559915155400e-02,-1.773674160088413443e-02,-2.891205370398383656e-02
1.066666666666666652e+00,1.642706812644897461e+09,7.561479042650872708e-03,-4.727334646213282587e-02,0.000000000000000000e+00,-1.890933858485313035e-01,-2.639456212540913435e-02,-1.822479086362559925e-02,-2.965180291770140586e-02
1.083333333333333259e+00,1.642706812663846970e+09,7.456754361861665965e-03,-4.727334646213282587e-02,0.000000000000000000e+00,-1.890933858485313035e-01,-2.939647195150327935e-02,-1.872548173068155561e-02,-3.042894235753938401e-02
1.100000000000000089e+00,1.642706812678806782e+09,7.346335271062598427e-03,-4.727334646213282587e-02,0.000000000000000000e+00,-1.890933858485313035e-01,-3.222434283352134526e-02,-1.923940816978486276e-02,-3.123997740669698028e-02
1.116666666666666696e+00,1.642706812697756052e+09,7.233064270743057300e-03,-4.727334646213282587e-02,0.000000000000000000e+00,-1.890933858485313035e-01,-3.483248865214345902e-02,-1.976710007754364784e-02,-3.208071608417613352e-02
1.133333333333333304e+00,1.642706812715708017e+09,7.119934259853185482e-03,-4.727334646213282587e-02,0.000000000000000000e+00,-1.890933858485313035e-01,-3.717545661590827138e-02,-2.030901178525234413e-02,-3.294628442776812577e-02
1.149999999999999911e+00,1.642706812731665134e+09,7.010059685092456631e-03,-3.926091485838159589e-02,0.000000000000000000e+00,-1.570436594335263836e-01,-3.920860751804733368e-02,-2.086440421805539971e-02,-3.369871736790554934e-02
1.166666666666666741e+00,1.642706812747623205e+09,6.906645674431309730e-03,-4.727334646213282587e-02,0.000000000000000000e+00,-1.890933858485313035e-01,-4.088871314593170436e-02,-2.143357201152634034e-02,-3.459891723456901685e-02
1.183333333333333348e+00,1.642706812766572952e+09,6.812955505869581346e-03,-4.727334646213282587e-02,0.000000000000000000e+00,-1.890933858485313035e-01,-4.217456454840705360e-02,-2.201779640249089398e-02,-3.550549136044679061e-02
1.199999999999999956e+00,1.642706812782529354e+09,6.732276791097135428e-03,-4.727334646213282587e-02,0.000000000000000000e+00,-1.890933858485313035e-01,-4.302758453188065824e-02,-2.261712296529520827e-02,-3.641118031420936818e-02
1.216666666666666563e+00,1.642706812801478863e+09,6.667886777934948703e-03,-4.727334646213282587e-02,0.000000000000000000e+00,-1.890933858485313035e-01,-4.341243748606286867e-02,-2.323147240586742254e-02,-3.730826060610708400e-02
1.233333333333333393e+00,1.642706812816438675e+09,6.623017194795275536e-03,-4.727334646213282587e-02,0.000000000000000000e+00,-1.890933858485313035e-01,-4.329762943926326185e-02,-2.386063342211568530e-02,-3.818861585488209087e-02
1.250000000000000000e+00,1.642706812835388899e+09,6.600819074560342233e-03,-4.727334646213282587e-02,0.000000000000000000e+00,-1.890933858485313035e-01,-4.265609111494836347e-02,-2.450425682114383552e-02,-3.904381641547195747e-02
1.266666666666666607e+00,1.642706812850347757e+09,6.604328003954243638e-03,-4.727334646213282587e-02,0.000000000000000000e+00,-1.890933858485313035e-01,-4.146573670904381281e-02,-2.516185102977584048e-02,-3.986520692635956570e-02
1.283333333333333215e+00,1.642706812869298697e+09,6.636430247453273604e-03,-4.727334646213282587e-02,0.000000000000000000e+00,-1.890933858485313035e-01,-3.970999113361607658e-02,-2.583277912493381345e-02,-4.064400112446407698e-02
1.300000000000000044e+00,1.642706812885255814e+09,6.699830191896155585e-03,-4.727334646213282587e-02,0.000000000000000000e+00,-1.890933858485313035e-01,-3.737827857873005089e-02,-2.651625749864875217e-02,-4.137138316809685357e-02
1.316666666666666652e+00,1.642706812902208805e+09,6.797019549142609487e-03,-4.727334646213282587e-02,0.000000000000000000e+00,-1.890933858485313035e-01,-3.446646543124522177e-02,-2.721135625896858520e-02,-4.203861460599998823e-02
1.333333333333333259e+00,1.642706812919164181e+09,6.930248739385055749e-03,-4.727334646213282587e-02,0.000000000000000000e+00,-1.890933858485313035e-01,-3.097725085707740342e-02,-2.791700145285633608e-02,-4.263714603409907156e-02
1.350000000000000089e+00,1.642706812936118126e+09,7.101500857121821608e-03,-4.727334646213282587e-02,0.000000000000000000e+00,-1.890933858485313035e-01,-2.692049870110825582e-02,-2.863197918045425408e-02,-4.315873239255517413e-02
1.366666666666666696e+00,1.642706812953074217e+09,7.312468595504489390e-03,-4.727334646213282587e-02,0.000000000000000000e+00,-1.890933858485313035e-01,-2.231350478475406171e-02,-2.935494165195987049e-02,-4.359555077516433924e-02
1.383333333333333304e+00,1.642706812970028400e+09,7.564534473007348062e-03,-4.727334646213282587e-02,0.000000000000000000e+00,-1.890933858485313035e-01,-1.718119418258897552e-02,-3.008441521896809343e-02,-4.394031955223481195e-02
1.399999999999999911e+00,1.642706812987981319e+09,7.858754669439317261e-03,-4.727334646213282587e-02,0.000000000000000000e+00,-1.890933858485313035e-01,-1.155624363291357475e-02,-3.081881039164869815e-02,-4.418641754780498060e-02
1.416666666666666741e+00,1.642706813005933762e+09,8.195846736606072699e-03,-4.727334646213282587e-02,0.000000000000000000e+00,-1.890933858485313035e-01,-5.479124878511943894e-03,-3.155643383173619559e-02,-4.432800196339489740e-02
1.433333333333333348e+00,1.642706813019896269e+09,8.576181402879235610e-03,-4.727334646213282587e-02,0.000000000000000000e+00,-1.890933858485313035e-01,1.001934562052757098e-03,-3.229550228920960442e-02,-4.436012370425615470e-02
1.449999999999999956e+00,1.642706813038846016e+09,8.999778641051199915e-03,-4.727334646213282587e-02,0.000000000000000000e+00,-1.890933858485313035e-01,7.831075931186894795e-03,-3.303415842794637375e-02,-4.427883874103515083e-02
1.466666666666666563e+00,1.642706813056797743e+09,9.466308115720328820e-03,-4.727334646213282587e-02,0.000000000000000000e+00,-1.890933858485313035e-01,1.494502100420496207e-02,-3.377048846277266869e-02,-4.408131413050765668e-02
1.483333333333333393e+00,1.642706813071757555e+09,9.975094070682690925e-03,-4.727334646213282587e-02,0.000000000000000000e+00,-1.890933858485313035e-01,2.227337216893728045e-02,-3.450254150743509163e-02,-4.376592732406515973e-02
1.500000000000000000e+00,1.642706813089706898e+09,1.052512465907475339e-02,-4.727334646213282587e-02,0.000000000000000000e+00,-1.890933858485313035e-01,2.973900099547741038e-02,-3.522835051032789655e-02,-4.333235741228327886e-02
1.516666666666666607e+00,1.642706813104667664e+09,1.111506566002220739e-02,-4.727334646213282587e-02,0.000000000000000000e+00,-1.890933858485313035e-01,3.725852456144459340e-02,-3.594595463256992918e-02,-4.278166698838604953e-02
1.533333333333333215e+00,1.642706813121621847e+09,1.174327846604107488e-02,-4.727334646213282587e-02,0.000000000000000000e+00,-1.890933858485313035e-01,4.474286786280898959e-02,-3.665342290148521781e-02,-4.211637336279282912e-02
1.550000000000000044e+00,1.642706813136582136e+09,1.240784216616831401e-02,-4.727334646213282587e-02,0.000000000000000000e+00,-1.890933858485313035e-01,5.209790969589250115e-02,-3.734887895194687057e-02,-4.134050792510184785e-02
1.566666666666666652e+00,1.642706813156529188e+09,1.310657949153853745e-02,-4.727334646213282587e-02,0.000000000000000000e+00,-1.890933858485313035e-01,5.922520845210126755e-02,-3.803052664864120525e-02,-4.045966252857470524e-02
1.583333333333333259e+00,1.642706813174483061e+09,1.383708633364772941e-02,-4.727334646213282587e-02,0.000000000000000000e+00,-1.890933858485313035e-01,6.602280333289624326e-02,-3.869667636433569979e-02,-3.948102186503415351e-02
1.600000000000000089e+00,1.642706813191437244e+09,1.459676449161622855e-02,-3.926091485838159589e-02,0.000000000000000000e+00,-1.570436594335263836e-01,7.238608557825833290e-02,-3.934466499187137811e-02,-3.828094705883386406e-02
1.616666666666666696e+00,1.642706813205398321e+09,1.538285725413508602e-02,3.624726325854419340e-01,5.463279720634329761e-01,-1.890933858485313035e-01,7.820873341718784233e-02,-3.991652626251682850e-02,-3.036439635481125165e-02
1.633333333333333304e+00,1.642706813225344181e+09,1.619248737517213835e-02,3.791266690330627465e-01,5.685333539935941705e-01,-1.890933858485313035e-01,8.338370360331409659e-02,-4.035452342607363796e-02,-2.221789298064815593e-02
1.649999999999999911e+00,1.642706813241339445e+09,1.702269696061374168e-02,-4.727334646213282587e-02,0.000000000000000000e+00,-1.890933858485313035e-01,8.780427160193046698e-02,-4.071615474434912840e-02,-2.118074624337604184e-02
1.666666666666666741e+00,1.642706813254303455e+09,1.787048874646741600e-02,-4.727334646213282587e-02,0.000000000000000000e+00,-1.890933858485313035e-01,9.136511175597158974e-02,-4.106015170987610541e-02,-2.010188652295175071e-02
1.683333333333333348e+00,1.642706813274214268e+09,1.873286821863524160e-02,-3.926091485838159589e-02,0.000000000000000000e+00,-1.570436594335263836e-01,9.396340808638205255e-02,-4.138485113366886792e-02,-1.886547887869231138e-02
1.699999999999999956e+00,1.642706813289175510e+09,1.960688600011227870e-02,-4.727334646213282587e-02,0.000000000000000000e+00,-1.890933858485313035e-01,9.549998578538318461e-02,-4.169000898480398898e-02,-1.775654370550302022e-02
1.716666666666666563e+00,1.642706813309122562e+09,2.048967991422212878e-02,-4.727334646213282587e-02,0.000000000000000000e+00,-1.890933858485313035e-01,9.588045294705743737e-02,-4.197678519941785286e-02,-1.665964904947374314e-02
1.733333333333333393e+00,1.642706813327074528e+09,2.137851612254988015e-02,-4.727334646213282587e-02,0.000000000000000000e+00,-1.890933858485313035e-01,9.501634165559738610e-02,-4.224555069155118414e-02,-1.559516697078267011e-02
1.750000000000000000e+00,1.642706813344028950e+09,2.227082873386224127e-02,-4.727334646213282587e-02,0.000000000000000000e+00,-1.890933858485313035e-01,9.282623722383892551e-02,-4.249702434081909647e-02,-1.458447847548632187e-02
1.766666666666666607e+00,1.642706813360984325e+09,2.316425728572224854e-02,-4.727334646213282587e-02,0.000000000000000000e+00,-1.890933858485313035e-01,8.923688414890308673e-02,-4.273228854186904291e-02,-1.364982197965687420e-02
1.783333333333333215e+00,1.642706813375943661e+09,2.405668151381772438e-02,-4.727334646213282587e-02,0.000000000000000000e+00,-1.890933858485313035e-01,8.418425723255779092e-02,-4.295280210122753156e-02,-1.281412657412463359e-02
1.800000000000000044e+00,1.642706813396887302e+09,2.494625284524922340e-02,-4.727334646213282587e-02,0.000000000000000000e+00,-1.890933858485313035e-01,7.761458630499463995e-02,-4.316041023672014670e-02,-1.210083110791765858e-02
1.816666666666666652e+00,1.642706813410850286e+09,2.583142208107288770e-02,-4.727334646213282587e-02,0.000000000000000000e+00,-1.890933858485313035e-01,6.948532309480985603e-02,-4.335735145305921051e-02,-1.153369028103398003e-02
1.833333333333333259e+00,1.642706813428802013e+09,2.671096277009086389e-02,-4.727334646213282587e-02,0.000000000000000000e+00,-1.890933858485313035e-01,5.976603900673240627e-02,-4.354626108842542948e-02,-1.113656910325776933e-02
1.849999999999999867e+00,1.642706813445770502e+09,2.758398981993685772e-02,-4.727334646213282587e-02,0.000000000000000000e+00,-1.890933858485313035e-01,4.843924290262479476e-02,-4.373017135080024820e-02,-1.093322723354141907e-02
1.866666666666666696e+00,1.642706813461712599e+09,2.844997294254300590e-02,-4.727334646213282587e-02,0.000000000000000000e+00,-1.890933858485313035e-01,3.550110842994882998e-02,-4.391250768928275927e-02,-1.094709486226197806e-02
1.883333333333333304e+00,1.642706813478666544e+09,2.930874458861695148e-02,-4.727334646213282587e-02,0.000000000000000000e+00,-1.890933858485313035e-01,2.096210100356106151e-02,-4.409708137446709253e-02,-1.120104193472050945e-02
1.899999999999999911e+00,1.642706813494624376e+09,3.016050208924236919e-02,-4.727334646213282587e-02,0.000000000000000000e+00,-1.890933858485313035e-01,4.847495218571596862e-03,-4.428807819295445258e-02,-1.171714263695917101e-02
1.916666666666666741e+00,1.642706813514570951e+09,3.100580379148725613e-02,-4.727334646213282587e-02,0.000000000000000000e+00,-1.890933858485313035e-01,-1.280222574988201280e-02,-4.449004319399280788e-02,-1.251643717278772862e-02
1.933333333333333348e+00,1.642706813531527758e+09,3.184555904823360012e-02,-4.727334646213282587e-02,0.000000000000000000e+00,-1.890933858485313035e-01,-3.193109632475545773e-02,-4.470786146081674739e-02,-1.361869295241192532e-02
1.949999999999999956e+00,1.642706813655194521e+09,3.268101199952348074e-02,-4.727334646213282587e-02,0.000000000000000000e+00,-1.890933858485313035e-01,-5.246752687353661154e-02,-4.494673491521729985e-02,-1.504216738693919461e-02
1.966666666666666563e+00,1.642706813659185886e+09,3.351371916268259393e-02,5.197607545907503290e-01,7.560454680705109842e-01,-1.890933858485313035e-01,-7.432429975113333254e-02,-4.513383616793212316e-02,-7.431125220230757472e-03
1.983333333333333393e+00,1.642706813676140785e+09,3.434552093041181448e-02,5.327138940500110165e-01,7.733163206828584935e-01,-1.890933858485313035e-01,-9.739870742533890402e-02,-4.519653591342629589e-02,-1.131723643253831554e-04
2.000000000000000000e+00,1.642706813697087288e+09,3.517850715895994712e-02,5.068076151314895306e-01,7.387746154581632529e-01,-1.890933858485313035e-01,-1.215728358583933466e-01,-4.514519766814070051e-02,6.256069044940621056e-03
2.016666666666666607e+00,1.642706813712044001e+09,3.601497711140843466e-02,5.188355303436601451e-01,7.548118357410572576e-01,-1.890933858485313035e-01,-1.467139950449250774e-01,-4.499039632996972016e-02,1.230329329508189108e-02
2.033333333333333215e+00,1.642706813728001118e+09,3.685739410298301960e-02,4.855274574484183536e-01,7.104010718807349800e-01,-1.890933858485313035e-01,-1.726752972834353639e-01,-4.474382948226105633e-02,1.727092911678961007e-02
2.049999999999999822e+00,1.642706813746949911e+09,3.770833527512800626e-02,4.846022332013284473e-01,7.091674395512816975e-01,-1.890933858485313035e-01,-1.992963823969681747e-01,-4.441895954652270301e-02,2.170115669445726175e-02
2.066666666666666430e+00,1.642706813763905048e+09,3.857043700180028817e-02,5.077328393785798255e-01,7.400082477876168685e-01,-1.890933858485313035e-01,-2.264042877307006485e-01,-4.402141373627752735e-02,2.599242007834340340e-02
2.083333333333333481e+00,1.642706813780859709e+09,3.944633650404195946e-02,4.790508877187880099e-01,7.017656455745611144e-01,-1.890933858485313035e-01,-2.538144593525085146e-01,-4.356068705313005662e-02,2.928563386796725551e-02
2.100000000000000089e+00,1.642706813797815084e+09,4.033861031638242417e-02,4.753499907304279959e-01,6.968311162567476513e-01,-1.890933858485313035e-01,-2.813318994799711703e-01,-4.304984022612018402e-02,3.200842189513165847e-02
2.116666666666666696e+00,1.642706813814770222e+09,4.124971031004949495e-02,4.522193845531766732e-01,6.659903080204127024e-01,-1.890933858485313035e-01,-3.087524437670445265e-01,-4.250097182162417692e-02,3.385066917040451678e-02
2.133333333333333304e+00,1.642706813832721710e+09,4.218189803242708424e-02,4.633220755182573813e-01,6.807938959738536466e-01,-1.890933858485313035e-01,-3.358641607191005241e-01,-4.192386492264386921e-02,3.539786085141016087e-02
2.149999999999999911e+00,1.642706813848678589e+09,4.313717816885278417e-02,4.010174643431646535e-01,5.870378389353949622e-01,-1.570436594335263836e-01,-3.624488641795261534e-01,-4.133346263102445628e-02,3.545026856251805303e-02
2.166666666666666519e+00,1.642706813864636660e+09,4.411723197092816406e-02,-4.727334646213282587e-02,0.000000000000000000e+00,-1.890933858485313035e-01,-3.882837285579787689e-01,-4.080768059096388789e-02,2.766520193878895667e-02
2.183333333333333126e+00,1.642706813881591320e+09,4.512335152434688440e-02,-4.727334646213282587e-02,0.000000000000000000e+00,-1.890933858485313035e-01,-4.131429952626705093e-01,-4.041400795833351850e-02,1.959792361074519720e-02
2.200000000000000178e+00,1.642706813897547960e+09,4.615637574823531347e-02,-4.727334646213282587e-02,0.000000000000000000e+00,-1.890933858485313035e-01,-4.367997576694352957e-01,-4.015694319182353672e-02,1.127297377537574488e-02
2.216666666666666785e+00,1.642706813916497469e+09,4.721662902667636552e-02,-4.727334646213282587e-02,0.000000000000000000e+00,-1.890933858485313035e-01,-4.590278109210351176e-01,-4.004054789281747545e-02,2.718225853316883628e-03
2.233333333333333393e+00,1.642706813932453632e+09,4.830386337106976763e-02,-4.727334646213282587e-02,0.000000000000000000e+00,-1.890933858485313035e-01,-4.796035519127901936e-01,-4.006839207140664577e-02,-6.035211607675998458e-03
2.250000000000000000e+00,1.642706813950405598e+09,4.941720499902875485e-02,-4.727334646213282587e-02,0.000000000000000000e+00,-1.890933858485313035e-01,-4.983079139960616688e-01,-4.024350130101975176e-02,-1.495312338569946935e-02
2.266666666666666607e+00,1.642706813967361212e+09,5.055510619148655821e-02,-4.727334646213282587e-02,0.000000000000000000e+00,-1.890933858485313035e-01,-5.149283202293828410e-01,-4.056830626597739825e-02,-2.399834619893374821e-02
2.283333333333333215e+00,1.642706813984314680e+09,5.171530325459770816e-02,-4.727334646213282587e-02,0.000000000000000000e+00,-1.890933858485313035e-01,-5.292606384373007566e-01,-4.104459520074297402e-02,-3.313095701249206548e-02
2.299999999999999822e+00,1.642706814001268625e+09,5.289478136698723409e-02,-4.727334646213282587e-02,0.000000000000000000e+00,-1.890933858485313035e-01,-5.411111209071899353e-01,-4.167346970952383323e-02,-4.230849029319991988e-02
2.316666666666666430e+00,1.642706814015231133e+09,5.408974703619922469e-02,-4.727334646213282587e-02,0.000000000000000000e+00,-1.890933858485313035e-01,-5.502983112714296965e-01,-4.245530444015768734e-02,-5.148618319145877031e-02
2.333333333333333481e+00,1.642706814033182859e+09,5.529560882121184462e-02,-3.926091485838159589e-02,0.000000000000000000e+00,-1.570436594335263836e-01,-5.566549009919864455e-01,-4.338860438586621820e-02,-6.048481350992303274e-02
2.350000000000000089e+00,1.642706814053132057e+09,5.650696690114316578e-02,-4.727334646213282587e-02,0.000000000000000000e+00,-1.890933858485313035e-01,-5.600295178910201788e-01,-4.447221139306052617e-02,-6.952292090861461604e-02
2.366666666666666696e+00,1.642706814069089651e+09,5.771761198442632718e-02,-4.727334646213282587e-02,0.000000000000000000e+00,-1.890933858485313035e-01,-5.602884293576170238e-01,-4.570524093664365267e-02,-7.841592096202731899e-02
2.383333333333333304e+00,1.642706814086041927e+09,5.892053395854571912e-02,-4.727334646213282587e-02,0.000000000000000000e+00,-1.890933858485313035e-01,-5.573171432087068444e-01,-4.708484844665345587e-02,-8.711282161319817974e-02
2.399999999999999911e+00,1.642706814102999687e+09,6.010794057879381008e-02,-4.727334646213282587e-02,0.000000000000000000e+00,-1.890933858485313035e-01,-5.510218896917608022e-01,-4.860733357703508895e-02,-9.556192375204811129e-02
2.416666666666666519e+00,1.642706814120949984e+09,6.127128638641659436e-02,-4.727334646213282587e-02,0.000000000000000000e+00,-1.890933858485313035e-01,-5.413309687866396658e-01,-5.026813156736337218e-02,-1.037111976825327020e-01
2.433333333333333126e+00,1.642706814136905909e+09,6.240131193306097668e-02,-4.727334646213282587e-02,0.000000000000000000e+00,-1.890933858485313035e-01,-5.281959477910481704e-01,-5.206181099243095689e-02,-1.115086731616848070e-01
2.450000000000000178e+00,1.642706814155855656e+09,6.348809327079235620e-02,-4.727334646213282587e-02,0.000000000000000000e+00,-1.890933858485313035e-01,-5.115926951541309720e-01,-5.398207810140842611e-02,-1.189028400796450780e-01
2.466666666666666785e+00,1.642706814172810078e+09,6.452110154637549777e-02,-4.727334646213282587e-02,0.000000000000000000e+00,-1.890933858485313035e-01,-4.915222376498961654e-01,-5.602178789805598025e-02,-1.258430566848646737e-01
2.483333333333333393e+00,1.642706814191779613e+09,6.548927241631666285e-02,-4.727334646213282587e-02,0.000000000000000000e+00,-1.890933858485313035e-01,-4.680114292491365791e-01,-5.817296206068918452e-02,-1.322799621174192974e-01
2.500000000000000000e+00,1.642706814207717180e+09,6.638108487671898206e-02,-4.727334646213282587e-02,0.000000000000000000e+00,-1.890933858485313035e-01,-4.411134214465157743e-01,-6.042681374568242836e-02,-1.381658898975701988e-01
2.516666666666666607e+00,1.642706814223674536e+09,6.718464898070271307e-02,-4.727334646213282587e-02,0.000000000000000000e+00,-1.890933858485313035e-01,-4.109079263184832742e-01,-6.277377926167086730e-02,-1.434552789279253671e-01
2.533333333333333215e+00,1.642706814242623806e+09,6.788780179740803999e-02,-4.727334646213282587e-02,0.000000000000000000e+00,-1.890933858485313035e-01,-3.775012652162605953e-01,-6.520355654374603016e-02,-1.481050785071567621e-01
2.549999999999999822e+00,1.642706814258580923e+09,6.847821085184944978e-02,-4.727334646213282587e-02,0.000000000000000000e+00,-1.890933858485313035e-01,-3.410261977237161735e-01,-6.770515029831497555e-02,-1.520751438223519603e-01
2.566666666666666430e+00,1.642706814274537802e+09,6.894348417553364250e-02,-4.727334646213282587e-02,0.000000000000000000e+00,-1.890933858485313035e-01,-3.016415273188194912e-01,-7.026692363040674960e-02,-1.553286183866093850e-01
2.583333333333333481e+00,1.642706814291492701e+09,6.927128599517304308e-02,-4.727334646213282587e-02,0.000000000000000000e+00,-1.890933858485313035e-01,-2.595314820548715873e-01,-7.287665590657571579e-02,-1.578322999190571729e-01
2.600000000000000089e+00,1.642706814309444666e+09,6.944945699234449099e-02,-4.727334646213282587e-02,0.000000000000000000e+00,-1.890933858485313035e-01,-2.149048705081801625e-01,-7.552160654868872447e-02,-1.595569862264493710e-01
2.616666666666666696e+00,1.642706814326399088e+09,6.946613798184210486e-02,-4.727334646213282587e-02,0.000000000000000000e+00,-1.890933858485313035e-01,-1.679940152060061809e-01,-7.818858439731675436e-02,-1.604777977389569843e-01
2.633333333333333304e+00,1.642706814345348597e+09,6.930989578193806622e-02,-4.727334646213282587e-02,0.000000000000000000e+00,-1.890933858485313035e-01,-1.190534677354188192e-01,-8.086402222870445189e-02,-1.605744734775284843e-01
2.649999999999999911e+00,1.642706814362304449e+09,6.896984998689857649e-02,-4.727334646213282587e-02,0.000000000000000000e+00,-1.890933858485313035e-01,-6.835851172275177190e-02,-8.353405595688064011e-02,-1.598316373857670558e-01
2.666666666666666519e+00,1.642706814379258871e+09,6.843579930190203664e-02,-4.727334646213282587e-02,0.000000000000000000e+00,-1.890933858485313035e-01,-1.620346184683183963e-02,-8.618460800290637935e-02,-1.582390321448907122e-01
2.683333333333333126e+00,1.642706814393221617e+09,6.769834606383944020e-02,-4.727334646213282587e-02,0.000000000000000000e+00,-1.890933858485313035e-01,3.710023101095237530e-02,-8.880147426702686420e-02,-1.557917178049565698e-01
2.700000000000000178e+00,1.642706814413168907e+09,6.674901754909055851e-02,-4.727334646213282587e-02,0.000000000000000000e+00,-1.890933858485313035e-01,9.122605648814850754e-02,-9.137041409707075124e-02,-1.524902328078124314e-01
2.716666666666666785e+00,1.642706814431119919e+09,6.558038266185650667e-02,-4.727334646213282587e-02,0.000000000000000000e+00,-1.890933858485313035e-01,1.458346895236955765e-01,-9.387724260827437495e-02,-1.483407152455827605e-01
2.733333333333333393e+00,1.642706814450068235e+09,6.418616260443796295e-02,-4.727334646213282587e-02,0.000000000000000000e+00,-1.890933858485313035e-01,2.005763876583435967e-01,-9.630792467621612785e-02,-1.433549824910374804e-01
2.750000000000000000e+00,1.642706814464066744e+09,6.256133415425689515e-02,-4.727334646213282587e-02,0.000000000000000000e+00,-1.890933858485313035e-01,2.550935236817416518e-01,-9.864866989611456582e-02,-1.375505676508122221e-01
2.766666666666666607e+00,1.642706814479988575e+09,6.070222421155117148e-02,-4.727334646213282587e-02,0.000000000000000000e+00,-1.890933858485313035e-01,3.090232349466111583e-01,-1.008860277787206050e-01,-1.309507116267982219e-01
2.783333333333333215e+00,1.642706814497941017e+09,5.860659433646047550e-02,-4.727334646213282587e-02,0.000000000000000000e+00,-1.890933858485313035e-01,3.620001692982193764e-01,-1.030069824357269792e-01,-1.235843099225237413e-01
2.799999999999999822e+00,1.642706814513897896e+09,5.627371406444506285e-02,-4.727334646213282587e-02,0.000000000000000000e+00,-1.890933858485313035e-01,4.136593063454935271e-01,-1.049990459962890643e-01,-1.154858136972389676e-01
2.816666666666666430e+00,1.642706814533845901e+09,5.370442187422248825e-02,-4.727334646213282587e-02,0.000000000000000000e+00,-1.890933858485313035e-01,4.636388317423075778e-01,-1.068503499911164778e-01,-1.066950849477419777e-01
2.833333333333333481e+00,1.642706814549803019e+09,5.090117278209484869e-02,-4.727334646213282587e-02,0.000000000000000000e+00,-1.890933858485313035e-01,5.115830412660712367e-01,-1.085497339418179386e-01,-9.725720608364155084e-02
2.850000000000000089e+00,1.642706814568752527e+09,4.786807164990992264e-02,-4.727334646213282587e-02,0.000000000000000000e+00,-1.890933858485313035e-01,5.571452507864651515e-01,-1.100868304008758153e-01,-8.722224455251147146e-02
2.866666666666666696e+00,1.642706814584710121e+09,4.461089142004031477e-02,-4.727334646213282587e-02,0.000000000000000000e+00,-1.890933858485313035e-01,5.999906877197265231e-01,-1.114521457018474992e-01,-7.664497356391322680e-02
2.883333333333333304e+00,1.642706814603659391e+09,4.113707562858851668e-02,-4.727334646213282587e-02,0.000000000000000000e+00,-1.890933858485313035e-01,6.397993392709186988e-01,-1.126371357001402923e-01,-6.558455035214066919e-02
2.899999999999999911e+00,1.642706814620614052e+09,3.745572469630235879e-02,-4.727334646213282587e-02,0.000000000000000000e+00,-1.890933858485313035e-01,6.762687326842818925e-01,-1.136342758119276153e-01,-5.410415380331752566e-02
2.916666666666666519e+00,1.642706814638566017e+09,3.357756565405004695e-02,-4.727334646213282587e-02,0.000000000000000000e+00,-1.890933858485313035e-01,7.091166228546101902e-01,-1.144371246923537866e-01,-4.227058364968339782e-02
2.933333333333333126e+00,1.642706814652528524e+09,2.951490512464110400e-02,-4.727334646213282587e-02,0.000000000000000000e+00,-1.890933858485313035e-01,7.380835630029074501e-01,-1.150403809339400063e-01,-3.015382379908427418e-02
2.950000000000000178e+00,1.642706814669483185e+09,2.528156555369326028e-02,-4.727334646213282587e-02,0.000000000000000000e+00,-1.890933858485313035e-01,7.629353346881196929e-01,-1.154399322118272314e-01,-1.782657271743059990e-02
2.966666666666666785e+00,1.642706814686438084e+09,2.089280485741177446e-02,-4.727334646213282587e-02,0.000000000000000000e+00,-1.890933858485313035e-01,7.834652142122219276e-01,-1.156328963538868909e-01,-5.363744112869458722e-03
2.983333333333333393e+00,1.642706814703392506e+09,1.636521983277174422e-02,-4.727334646213282587e-02,0.000000000000000000e+00,-1.890933858485313035e-01,7.994960534749948611e-01,-1.156176538704580814e-01,7.158058520582761056e-03
3.000000000000000000e+00,1.642706814720347881e+09,1.171663385383574923e-02,-4.727334646213282587e-02,0.000000000000000000e+00,-1.890933858485313035e-01,8.108821545423807731e-01,-1.153938715401387205e-01,1.966108965826753041e-02
3.016666666666666607e+00,1.642706814737302780e+09,6.965969554869355998e-03,-4.727334646213282587e-02,0.000000000000000000e+00,-1.890933858485313035e-01,8.175109186011036977e-01,-1.149625167142246523e-01,3.206702770133630642e-02
3.033333333333333215e+00,1.642706814754283428e+09,2.133107374638968257e-03,3.689492023150723332e-01,5.549633983696068418e-01,-1.890933858485313035e-01,8.193042515733333087e-01,-1.142683732064470326e-01,5.117710842503211260e-02
3.049999999999999822e+00,1.642706814770241261e+09,-2.761268995159380565e-03,4.124347419283045380e-01,6.129441178539164481e-01,-1.890933858485313035e-01,8.162197104475840126e-01,-1.132527876410893974e-01,7.063909706593927973e-02
3.066666666666666430e+00,1.642706814791184664e+09,-7.695839052887365819e-03,3.957807054806836700e-01,5.907387359237553648e-01,-1.890933858485313035e-01,8.082513763331621304e-01,-1.119189245520732512e-01,8.937243534048722182e-02
3.083333333333333481e+00,1.642706814806144714e+09,-1.264882246434654439e-02,3.837527902685131109e-01,5.747015156408612491e-01,-1.890933858485313035e-01,7.954304423508904431e-01,-1.102788587519607788e-01,1.073854234173648031e-01
3.100000000000000089e+00,1.642706814823098183e+09,-1.759816507571760821e-02,3.948554812335935416e-01,5.895051035943017492e-01,-1.890933858485313035e-01,7.778255067166076620e-01,-1.083419625400796199e-01,1.249932103379869930e-01
3.116666666666666696e+00,1.642706814841050863e+09,-2.252173233388536644e-02,3.633978568325317848e-01,5.475616043928861476e-01,-1.890933858485313035e-01,7.555425637386098403e-01,-1.061214578831514016e-01,1.414217126905777944e-01
3.133333333333333304e+00,1.642706814857008219e+09,-2.739750837076374360e-02,-4.727334646213282587e-02,0.000000000000000000e+00,-1.890933858485313035e-01,7.287246879170103941e-01,-1.036898401765242866e-01,1.503476173415319583e-01
3.149999999999999911e+00,1.642706814874960184e+09,-3.220379890865111144e-02,-4.727334646213282587e-02,0.000000000000000000e+00,-1.890933858485313035e-01,6.975514088818989267e-01,-1.011149959116403180e-01,1.586107407836440941e-01
3.166666666666666519e+00,1.642706814891914606e+09,-3.691943606107227216e-02,-4.727334646213282587e-02,0.000000000000000000e+00,-1.890933858485313035e-01,6.622377775172612058e-01,-9.840845176583860876e-02,1.661536038220945144e-01
3.183333333333333126e+00,1.642706814909865856e+09,-4.152398303921336215e-02,-4.727334646213282587e-02,0.000000000000000000e+00,-1.890933858485313035e-01,6.230331262668689085e-01,-9.558265002606196326e-02,1.729237984123968008e-01
3.200000000000000178e+00,1.642706814925822496e+09,-4.599793672898209312e-02,-4.727334646213282587e-02,0.000000000000000000e+00,-1.890933858485313035e-01,5.802195292843445040e-01,-9.265086024781320206e-02,1.788744450145182407e-01
3.216666666666666785e+00,1.642706814943774223e+09,-5.032292607879135238e-02,-4.727334646213282587e-02,0.000000000000000000e+00,-1.890933858485313035e-01,5.341099707490911674e-01,-8.962708360770586802e-02,1.839646121125268763e-01
3.233333333333333393e+00,1.642706814960729122e+09,-5.448190423402351351e-02,-4.727334646213282587e-02,0.000000000000000000e+00,-1.890933858485313035e-01,4.850462322995954811e-01,-8.652595061375384367e-02,1.881596938825325638e-01
3.250000000000000000e+00,1.642706814977684259e+09,-5.845933237125241350e-02,-4.727334646213282587e-02,0.000000000000000000e+00,-1.890933858485313035e-01,4.333965131120795511e-01,-8.336261290207493124e-02,1.914317422816861070e-01
3.266666666666666607e+00,1.642706814996632814e+09,-6.224135322391341485e-02,-4.727334646213282587e-02,0.000000000000000000e+00,-1.890933858485313035e-01,3.795527986525246700e-01,-8.015262990807528465e-02,1.937597501575263337e-01
3.283333333333333215e+00,1.642706815011592627e+09,-6.581595235121677490e-02,-4.727334646213282587e-02,0.000000000000000000e+00,-1.890933858485313035e-01,3.239279965302843123e-01,-7.691185125384535082e-02,1.951298823377655978e-01
3.299999999999999822e+00,1.642706815030541897e+09,-6.917310528351175436e-02,-4.727334646213282587e-02,0.000000000000000000e+00,-1.890933858485313035e-01,2.669528601597839224e-01,-7.365629574088293496e-02,1.955356520530973641e-01
3.316666666666666430e+00,1.642706815046533585e+09,-7.230490877954943996e-02,-4.727334646213282587e-02,0.000000000000000000e+00,-1.890933858485313035e-01,2.090727230710471285e-01,-7.040202787786242755e-02,1.949780404668920997e-01
3.333333333333333481e+00,1.642706815063461065e+09,-7.520569455351357180e-02,-4.727334646213282587e-02,0.000000000000000000e+00,-1.890933858485313035e-01,1.507440686793028173e-01,-6.716503290653705327e-02,1.934655575325195664e-01
3.350000000000000089e+00,1.642706815081405878e+09,-7.787212397138225384e-02,-4.727334646213282587e-02,0.000000000000000000e+00,-1.890933858485313035e-01,9.243096210900718368e-02,-6.396109131459636055e-02,1.910142428680267901e-01
3.366666666666666696e+00,1.642706815100355148e+09,-8.030326237602646022e-02,-4.727334646213282587e-02,0.000000000000000000e+00,-1.890933858485313035e-01,3.460137224981820608e-02,-6.080565384206593899e-02,1.876476058252911361e-01
3.383333333333333304e+00,1.642706815116345167e+09,-8.250063187712765311e-02,-4.727334646213282587e-02,0.000000000000000000e+00,-1.890933858485313035e-01,-2.227658641545130630e-02,-5.771371799735755537e-02,1.833965044326230087e-01
3.399999999999999911e+00,1.642706815133321524e+09,-8.446824163397124996e-02,-4.727334646213282587e-02,0.000000000000000000e+00,-1.890933858485313035e-01,-7.773846154332070268e-02,-5.469970710014798038e-02,1.782989634019891967e-01
3.416666666666666519e+00,1.642706815151219606e+09,-8.621259486471333222e-02,-4.727334646213282587e-02,0.000000000000000000e+00,-1.890933858485313035e-01,-1.313272886756964020e-01,-5.177735286074776344e-02,1.723999319102918204e-01
3.433333333333333126e+00,1.642706815168173790e+09,-8.774267203297649032e-02,-4.727334646213282587e-02,0.000000000000000000e+00,-1.890933858485313035e-01,-1.825974028331756038e-01,-4.895958248945250085e-02,1.657509823840747631e-01
3.449999999999999734e+00,1.642706815188120127e+09,-8.906988988950328978e-02,-5.528577806588434729e-02,0.000000000000000000e+00,-2.211431122635373892e-01,-2.311182034386056738e-01,-4.625951798560917760e-02,1.582775181884899518e-01
3.466666666666666785e+00,1.642706815201085806e+09,-9.020803628097091853e-02,-4.727334646213282587e-02,0.000000000000000000e+00,-1.890933858485313035e-01,-2.764778399794788344e-01,-4.368813739433629467e-02,1.503102844898568657e-01
3.483333333333333393e+00,1.642706815221057177e+09,-9.117318087758798095e-02,3.745005477976124375e-01,5.623651923463270919e-01,-1.890933858485313035e-01,-3.182867860240539692e-01,-4.119596264484104431e-02,1.487550057699209283e-01
3.500000000000000000e+00,1.642706815237988710e+09,-9.198356221342250671e-02,3.726500993034324027e-01,5.598979276874203048e-01,-1.890933858485313035e-01,-3.561812696956171420e-01,-3.873498398133419507e-02,1.465685075998776621e-01
3.516666666666666607e+00,1.642706815253946066e+09,-9.265945167605267596e-02,3.902293599981435102e-01,5.833369419470351147e-01,-1.890933858485313035e-01,-3.898265294819561744e-01,-3.631236399758749900e-02,1.441526014580674087e-01
3.533333333333333215e+00,1.642706815270900488e+09,-9.322299532262250110e-02,3.837527902685131109e-01,5.747015156408612491e-01,-1.890933858485313035e-01,-4.189198653103334835e-01,-3.393458836314655613e-02,1.411887079062627837e-01
3.549999999999999822e+00,1.642706815287855387e+09,-9.369803463517563380e-02,3.670987538208922429e-01,5.524961337107000547e-01,-1.890933858485313035e-01,-4.431934561471038703e-01,-3.161145452441498083e-02,1.375973290287610118e-01
3.566666666666666430e+00,1.642706815305806875e+09,-9.410990755675846531e-02,3.643230810796220243e-01,5.487952367223397632e-01,-1.890933858485313035e-01,-4.624169169778795663e-01,-2.935071948857178453e-02,1.337016967279468505e-01
3.583333333333333481e+00,1.642706815321764231e+09,-9.448523136872342965e-02,3.920798084923235449e-01,5.858042066059417907e-01,-1.890933858485313035e-01,-4.763995698791646527e-01,-2.715247110902057823e-02,1.300981189919482861e-01
3.600000000000000089e+00,1.642706815339716434e+09,-9.485166917654148933e-02,-4.727334646213282587e-02,0.000000000000000000e+00,-1.890933858485313035e-01,-4.849924059929861531e-01,-2.507565515424620139e-02,1.191502071629219200e-01
3.616666666666666696e+00,1.642706815355674744e+09,-9.523768196390385021e-02,-5.528577806588434729e-02,0.000000000000000000e+00,-2.211431122635373892e-01,-4.880897175477958427e-01,-2.318132674884624753e-02,1.081996204972939662e-01
3.633333333333333304e+00,1.642706815374622583e+09,-9.567226835077655145e-02,-4.727334646213282587e-02,0.000000000000000000e+00,-1.890933858485313035e-01,-4.856303816148379027e-01,-2.146654925495519381e-02,9.760311420212006150e-02
3.649999999999999911e+00,1.642706815392576694e+09,-9.618469434826162900e-02,-4.727334646213282587e-02,0.000000000000000000e+00,-1.890933858485313035e-01,-4.775987800301454977e-01,-1.992580727576178518e-02,8.731450344805534447e-02
3.666666666666666519e+00,1.642706815408533096e+09,-9.680421553975346316e-02,-4.727334646213282587e-02,0.000000000000000000e+00,-1.890933858485313035e-01,-4.640253428276255865e-01,-1.855324630449921644e-02,7.742029765529680196e-02
3.683333333333333126e+00,1.642706815425499201e+09,-9.755979423219510172e-02,3.717248750563422188e-01,5.586642953579666893e-01,-1.890933858485313035e-01,-4.449867055952069772e-01,-1.728372030097648920e-02,7.492974114279299380e-02
3.699999999999999734e+00,1.642706815440447092e+09,-9.847981421175691641e-02,3.606221840912618437e-01,5.438607074045261891e-01,-1.890933858485313035e-01,-4.206054743596296386e-01,-1.605352553714616687e-02,7.269982487448987951e-02
3.716666666666666785e+00,1.642706815459397316e+09,-9.959179580366758766e-02,-4.727334646213282587e-02,0.000000000000000000e+00,-1.890933858485313035e-01,-3.910495948999064275e-01,-1.491244450869623137e-02,6.425336149000596131e-02
3.733333333333333393e+00,1.642706815478345633e+09,-1.009221139751912272e-01,-4.727334646213282587e-02,0.000000000000000000e+00,-1.890933858485313035e-01,-3.565313267581275425e-01,-1.390620355983112309e-02,5.651704265413651229e-02
3.750000000000000000e+00,1.642706815492308140e+09,-1.024957222330638434e-01,-4.727334646213282587e-02,0.000000000000000000e+00,-1.890933858485313035e-01,-3.173058256304027713e-01,-1.302241486822453866e-02,4.955693442765433943e-02
3.766666666666666607e+00,1.642706815512255430e+09,-1.043358850515670178e-01,3.615474083383516946e-01,5.450943397339793606e-01,-1.890933858485313035e-01,-2.736693412517536284e-01,-1.219117302713297255e-02,5.019032703800607037e-02
3.783333333333333215e+00,1.642706815528212547e+09,-1.064639215245702097e-01,3.819023417743327431e-01,5.722342509819540179e-01,-1.890933858485313035e-01,-2.259570413072060080e-01,-1.134006064680082200e-02,5.193830299879270002e-02
3.799999999999999822e+00,1.642706815544169903e+09,-1.088989628643604185e-01,-4.727334646213282587e-02,0.000000000000000000e+00,-1.890933858485313035e-01,-1.745404752769506573e-01,-1.051223304355083064e-02,4.741357836655798325e-02
3.816666666666666430e+00,1.642706815561122417e+09,-1.116577262722343450e-01,-4.727334646213282587e-02,0.000000000000000000e+00,-1.890933858485313035e-01,-1.198246954269543418e-01,-9.751635189466359085e-03,4.386801314765539223e-02
3.833333333333333481e+00,1.642706815580071688e+09,-1.147543075812509500e-01,-4.727334646213282587e-02,0.000000000000000000e+00,-1.890933858485313035e-01,-6.224505535764950082e-02,-9.041687445176140384e-03,4.133275870636880095e-02
3.850000000000000089e+00,1.642706815597026110e+09,-1.181999949211490625e-01,-4.727334646213282587e-02,0.000000000000000000e+00,-1.890933858485313035e-01,-2.263709593522642526e-03,-8.365359117559678301e-03,3.983081277782474922e-02
3.866666666666666696e+00,1.642706815614979267e+09,-1.220031054804080473e-01,-4.727334646213282587e-02,0.000000000000000000e+00,-1.890933858485313035e-01,5.963415939319240133e-02,-7.705306408014839237e-03,3.937677361713090574e-02
3.883333333333333304e+00,1.642706815630937338e+09,-1.261688472421998997e-01,-4.727334646213282587e-02,0.000000000000000000e+00,-1.890933858485313035e-01,1.229443576082875078e-01,-7.044013869532036662e-03,3.997666459775067738e-02
3.899999999999999911e+00,1.642706815650884628e+09,-1.306992073512942831e-01,-4.727334646213282587e-02,0.000000000000000000e+00,-1.890933858485313035e-01,1.871479077842170824e-01,-6.363938178894454345e-03,4.162783159581449899e-02
3.916666666666666519e+00,1.642706815667839050e+09,-1.355928685297692893e-01,-4.727334646213282587e-02,0.000000000000000000e+00,-1.890933858485313035e-01,2.517154555535012772e-01,-5.647652996383559394e-03,4.431891489815974194e-02
3.933333333333333126e+00,1.642706815682798862e+09,-1.408451547028394535e-01,-4.727334646213282587e-02,0.000000000000000000e+00,-1.890933858485313035e-01,3.161118176376934152e-01,-4.877993661605737816e-03,4.802989674964126127e-02
3.949999999999999734e+00,1.642706815704740286e+09,-1.464480067246504702e-01,-4.727334646213282587e-02,0.000000000000000000e+00,-1.890933858485313035e-01,3.798006344144939650e-01,-4.038200460816127914e-03,5.273222501472434043e-02
3.966666666666666785e+00,1.642706815719700575e+09,-1.523899888100657407e-01,-4.727334646213282587e-02,0.000000000000000000e+00,-1.890933858485313035e-01,4.422490877978558221e-01,-3.112059198660143376e-03,5.838901277483040525e-02
3.983333333333333393e+00,1.642706815737652302e+09,-1.586563259850384822e-01,-4.727334646213282587e-02,0.000000000000000000e+00,-1.890933858485313035e-01,5.029326442563140098e-01,-2.084037815753002430e-03,6.495531302182627753e-02
4.000000000000000000e+00,1.642706815752612352e+09,-1.652289725680128885e-01,-4.727334646213282587e-02,0.000000000000000000e+00,-1.890933858485313035e-01,5.613397820166448060e-01,-9.394178130515038437e-04,7.237846694503330403e-02
4.016666666666666607e+00,1.642706815771561384e+09,-1.720867113908763069e-01,-4.727334646213282587e-02,0.000000000000000000e+00,-1.890933858485313035e-01,6.169766610650121441e-01,3.355807254749923994e-04,8.059852364988813467e-02
4.033333333333333215e+00,1.642706815788515091e+09,-1.792052831634021737e-01,-4.727334646213282587e-02,0.000000000000000000e+00,-1.890933858485313035e-01,6.693716944744617647e-01,1.753681678906881874e-03,8.954872849666173362e-02
4.049999999999999822e+00,1.642706815803474903e+09,-1.865575450829401738e-01,-4.727334646213282587e-02,0.000000000000000000e+00,-1.890933858485313035e-01,7.180799798617124585e-01,3.326444119040718704e-03,9.915607661318755206e-02
4.066666666666666430e+00,1.642706815820428848e+09,-1.941136574944747617e-01,-4.727334646213282587e-02,0.000000000000000000e+00,-1.890933858485313035e-01,7.626875504100621983e-01,5.064163275969705419e-03,1.093419275220573889e-01
4.083333333333333037e+00,1.642706815837383509e+09,-2.018412971181721138e-01,-4.727334646213282587e-02,0.000000000000000000e+00,-1.890933858485313035e-01,8.028154058888827826e-01,6.975782219324589556e-03,1.200226762358150012e-01
4.099999999999999645e+00,1.642706815854338884e+09,-2.097058950852199732e-01,3.624726325854419340e-01,5.463279720634329761e-01,-1.890933858485313035e-01,8.381232854494806706e-01,9.125409471920385707e-03,1.378829809504679149e-01
4.116666666666666252e+00,1.642706815871317863e+09,-2.176708977611100659e-01,3.652483053267118196e-01,5.500288690517928236e-01,-1.890933858485313035e-01,8.683131456760090350e-01,1.157479481142379557e-02,1.559929531276765258e-01
4.133333333333332860e+00,1.642706815892236471e+09,-2.256980480913350628e-01,3.856032387626932012e-01,5.771687802997680361e-01,-1.890933858485313035e-01,8.931323094083000180e-01,1.432975113099533258e-02,1.745502559442882184e-01
4.150000000000000355e+00,1.642706815907196522e+09,-2.337476849805263934e-01,4.068833964457643226e-01,6.055423238771961980e-01,-1.890933858485313035e-01,9.123762532185218932e-01,1.739702989603775576e-02,1.934706380069838860e-01
4.166666666666666963e+00,1.642706815925148487e+09,-2.417790580147985702e-01,4.096590691870342638e-01,6.092432208655561565e-01,-1.890933858485313035e-01,9.258910040993931778e-01,2.077928511095302258e-02,2.123475506801757451e-01
4.183333333333333570e+00,1.642706815942103148e+09,-2.497506546608893319e-01,3.976311539748637602e-01,5.932060005826620408e-01,-1.890933858485313035e-01,9.335751188896739272e-01,2.447294828060899569e-02,2.308406587249287323e-01
4.200000000000000178e+00,1.642706815957099199e+09,-2.576205369265790468e-01,-4.727334646213282587e-02,0.000000000000000000e+00,-1.890933858485313035e-01,9.353812232012644889e-01,2.841107466880066906e-02,2.417043302823892459e-01
4.216666666666666785e+00,1.642706815973020792e+09,-2.653466843467745528e-01,-4.727334646213282587e-02,0.000000000000000000e+00,-1.890933858485313035e-01,9.313170900974443445e-01,3.252820041378832322e-02,2.523212669313234513e-01
4.233333333333333393e+00,1.642706815990972519e+09,-2.728873400699994289e-01,-4.727334646213282587e-02,0.000000000000000000e+00,-1.890933858485313035e-01,9.214462424768670168e-01,3.681944531993876224e-02,2.625995702920852493e-01
4.250000000000000000e+00,1.642706816007954359e+09,-2.802013567621574053e-01,-4.727334646213282587e-02,0.000000000000000000e+00,-1.890933858485313035e-01,9.058880670142638314e-01,4.127842673475515950e-02,2.724508342198043720e-01
4.266666666666666607e+00,1.642706816026907206e+09,-2.872485390192365817e-01,-4.727334646213282587e-02,0.000000000000000000e+00,-1.890933858485313035e-01,8.848174315653443145e-01,4.589732493352916692e-02,2.817910041060838755e-01
4.283333333333333215e+00,1.642706816041862249e+09,-2.939899789887001069e-01,-4.727334646213282587e-02,0.000000000000000000e+00,-1.890933858485313035e-01,8.584638021275668995e-01,5.066696258503501638e-02,2.905412073823352426e-01
4.299999999999999822e+00,1.642706816061815977e+09,-3.003883819409404188e-01,-4.727334646213282587e-02,0.000000000000000000e+00,-1.890933858485313035e-01,8.271098597262590557e-01,5.557689775319992614e-02,2.986285474352390890e-01
4.316666666666666430e+00,1.642706816077742100e+09,-3.064083786072737681e-01,-4.727334646213282587e-02,0.000000000000000000e+00,-1.890933858485313035e-01,7.910896219310763477e-01,6.061552976158578188e-02,3.059868533513356303e-01
4.333333333333333037e+00,1.642706816092702389e+09,-3.120168212090659865e-01,-4.727334646213282587e-02,0.000000000000000000e+00,-1.890933858485313035e-01,7.507860780652055865e-01,6.577021712343279758e-02,3.125573781828731579e-01
4.349999999999999645e+00,1.642706816110654116e+09,-3.171830602429890900e-01,-4.727334646213282587e-02,0.000000000000000000e+00,-1.890933858485313035e-01,7.066283515112955493e-01,7.102740662107881464e-02,3.182894387693798732e-01
4.366666666666666252e+00,1.642706816127609015e+09,-3.218791992589035700e-01,-4.727334646213282587e-02,0.000000000000000000e+00,-1.890933858485313035e-01,6.590884068069461366e-01,7.637277250588131450e-02,3.231409905569909147e-01
4.383333333333332860e+00,1.642706816147554874e+09,-3.260803250680636145e-01,-4.727334646213282587e-02,0.000000000000000000e+00,-1.890933858485313035e-01,6.086773234206174221e-01,8.179136468439930641e-02,3.270791313277809920e-01
4.400000000000000355e+00,1.642706816163512468e+09,-3.297647110484169808e-01,-4.727334646213282587e-02,0.000000000000000000e+00,-1.890933858485313035e-01,5.559411621694047012e-01,8.726776465955633777e-02,3.300805282810784780e-01
4.416666666666666963e+00,1.642706816181464911e+09,-3.329139914686373714e-01,-4.727334646213282587e-02,0.000000000000000000e+00,-1.890933858485313035e-01,5.014564541458081948e-01,9.278624790776501818e-02,3.321317634942643759e-01
4.433333333333333570e+00,1.642706816200414181e+09,-3.355133050308036213e-01,-4.727334646213282587e-02,0.000000000000000000e+00,-1.890933858485313035e-01,4.458253457266518893e-01,9.833095129544246193e-02,3.332295934276622296e-01
4.450000000000000178e+00,1.642706816214376688e+09,-3.375514061306670310e-01,-4.727334646213282587e-02,0.000000000000000000e+00,-1.890933858485313035e-01,3.896704367081435527e-01,1.038860440718050310e-01,3.333811188220665023e-01
4.466666666666666785e+00,1.642706816232329130e+09,-3.390207426513136002e-01,-4.727334646213282587e-02,0.000000000000000000e+00,-1.890933858485313035e-01,3.336293518144521353e-01,1.094359009200361887e-01,3.326038620630406561e-01
4.483333333333333393e+00,1.642706816250280857e+09,-3.399174994376483738e-01,-4.727334646213282587e-02,0.000000000000000000e+00,-1.890933858485313035e-01,2.783490887319613472e-01,1.149652755065214138e-01,3.309257498477192194e-01
4.500000000000000000e+00,1.642706816270227671e+09,-3.402416069421367872e-01,-4.727334646213282587e-02,0.000000000000000000e+00,-1.890933858485313035e-01,2.244801883977769752e-01,1.204594729383879487e-01,3.283849997814467514e-01
4.516666666666666607e+00,1.642706816287183762e+09,-3.399967148832674368e-01,-4.727334646213282587e-02,0.000000000000000000e+00,-1.890933858485313035e-01,1.726707754939824091e-01,1.259045195235218295e-01,3.250299103468436979e-01
4.533333333333333215e+00,1.642706816302142620e+09,-3.391901311135605557e-01,-4.727334646213282587e-02,0.000000000000000000e+00,-1.890933858485313035e-01,1.235605189428293782e-01,1.312873282248996909e-01,3.209185545201441170e-01
4.549999999999999822e+00,1.642706816321092367e+09,-3.378327262500842032e-01,-4.727334646213282587e-02,0.000000000000000000e+00,-1.890933858485313035e-01,7.777456364348565854e-02,1.365958582126922949e-01,3.161183781520406910e-01
4.566666666666666430e+00,1.642706816336051226e+09,-3.359388049735739790e-01,-4.727334646213282587e-02,0.000000000000000000e+00,-1.890933858485313035e-01,3.591748571853382865e-02,1.418192669432831732e-01,3.107057050757231487e-01
4.583333333333333037e+00,1.642706816354003191e+09,-3.335259452486946663e-01,-4.727334646213282587e-02,0.000000000000000000e+00,-1.890933858485313035e-01,-1.432675865385500246e-03,1.469480532340868562e-01,3.047651517461275050e-01
4.599999999999999645e+00,1.642706816367965937e+09,-3.306148070540618766e-01,-4.727334646213282587e-02,0.000000000000000000e+00,-1.890933858485313035e-01,-3.373025828467199339e-02,1.519741898567213423e-01,2.983889550443796224e-01
4.616666666666666252e+00,1.642706816389907360e+09,-3.272289125327243475e-01,-4.727334646213282587e-02,0.000000000000000000e+00,-1.890933858485313035e-01,-6.046763173247236139e-02,1.568912442384348960e-01,2.916762176927559791e-01
4.633333333333332860e+00,1.642706816402873516e+09,-3.233943997784055058e-01,-4.727334646213282587e-02,0.000000000000000000e+00,-1.890933858485313035e-01,-8.118062220809585394e-02,1.616944859423408432e-01,2.847320765110128993e-01
4.650000000000000355e+00,1.642706816419827223e+09,-3.191397527565652537e-01,-4.727334646213282587e-02,0.000000000000000000e+00,-1.890933858485313035e-01,-9.545364945582922311e-02,1.663809796904840710e-01,2.776667994975702825e-01
4.666666666666666963e+00,1.642706816436781883e+09,-3.144955101190845537e-01,-4.727334646213282587e-02,0.000000000000000000e+00,-1.890933858485313035e-01,-1.029245309406817133e-01,1.709496627994446238e-01,2.705948184318961447e-01
4.683333333333333570e+00,1.642706816455731153e+09,-3.094939559041615107e-01,-4.727334646213282587e-02,0.000000000000000000e+00,-1.890933858485313035e-01,-1.032889048447689362e-01,1.754014060153586685e-01,2.636337043608670827e-01
4.700000000000000178e+00,1.642706816473681927e+09,-3.041687953161447133e-01,-4.727334646213282587e-02,0.000000000000000000e+00,-1.890933858485313035e-01,-9.630422759435908198e-02,1.797390568630780894e-01,2.569030939455394513e-01
4.716666666666666785e+00,1.642706816489639044e+09,-2.985548189510822126e-01,-4.727334646213282587e-02,0.000000000000000000e+00,-1.890933858485313035e-01,-8.179330436861546871e-02,1.839674647617674519e-01,2.505235751996709448e-01
4.733333333333333393e+00,1.642706816508588314e+09,-2.926875589706698921e-01,-4.727334646213282587e-02,0.000000000000000000e+00,-1.890933858485313035e-01,-5.964731437766510741e-02,1.880934873055258305e-01,2.446155416419159567e-01
4.750000000000000000e+00,1.642706816525543928e+09,-2.866029408282508295e-01,-4.727334646213282587e-02,0.000000000000000000e+00,-1.890933858485313035e-01,-2.982829640695647613e-02,1.921259772615054873e-01,2.392980243047848066e-01
4.766666666666666607e+00,1.642706816543496609e+09,-2.803369342141588394e-01,-4.727334646213282587e-02,0.000000000000000000e+00,-1.890933858485313035e-01,7.628935819504143248e-03,1.960757499982860586e-01,2.346875113906271015e-01
4.783333333333333215e+00,1.642706816560451984e+09,-2.739252069130173051e-01,-4.727334646213282587e-02,0.000000000000000000e+00,-1.890933858485313035e-01,5.261547453187444962e-02,1.999555312226821702e-01,2.308967656340600305e-01
4.799999999999999822e+00,1.642706816575411081e+09,-2.674027852519160198e-01,-4.727334646213282587e-02,0.000000000000000000e+00,-1.890933858485313035e-01,1.049476164814011347e-01,2.037798850723891442e-01,2.280336496180075112e-01
4.816666666666666430e+00,1.642706816596354008e+09,-2.608037247655509705e-01,-4.727334646213282587e-02,0.000000000000000000e+00,-1.890933858485313035e-01,1.643667956942066466e-01,2.075651227835226542e-01,2.261999693940752176e-01
4.833333333333333037e+00,1.642706816611313820e+09,-2.541607946125475914e-01,-4.727334646213282587e-02,0.000000000000000000e+00,-1.890933858485313035e-01,2.305401618087456472e-01,2.113291923247644644e-01,2.254903467752769619e-01
4.849999999999999645e+00,1.642706816629266024e+09,-2.475051791469435325e-01,-4.727334646213282587e-02,0.000000000000000000e+00,-1.890933858485313035e-01,3.030618101070364223e-01,2.150915495620389917e-01,2.259911305987508112e-01
4.866666666666666252e+00,1.642706816645222902e+09,-2.408661998811850169e-01,4.004068267161339789e-01,5.969068975710224434e-01,-1.890933858485313035e-01,3.814546639355604896e-01,2.189348454968453039e-01,2.351788595081393818e-01
4.883333333333332860e+00,1.642706816664171696e+09,-2.342710608734291100e-01,3.920798084923235449e-01,5.858042066059417907e-01,-1.890933858485313035e-01,4.651730047126978462e-01,2.229404143201959010e-01,2.454608375715391366e-01
4.900000000000000355e+00,1.642706816677170515e+09,-2.277446203342259612e-01,4.512941603060864892e-01,6.647566756909590868e-01,-1.890933858485313035e-01,5.536056391823078737e-01,2.271363223680796795e-01,2.580132595151286012e-01
4.916666666666666963e+00,1.642706816696120501e+09,-2.213091909780520450e-01,4.438923663293661837e-01,6.548876170553320497e-01,-1.890933858485313035e-01,6.460796880421496580e-01,2.315514539238675285e-01,2.717643288655327005e-01
4.933333333333333570e+00,1.642706816713079691e+09,-2.149843713461414008e-01,4.994058211547693360e-01,7.289055568225361048e-01,-1.890933858485313035e-01,7.418649745993100009e-01,2.362147681219221862e-01,2.877888612633793808e-01
4.950000000000000178e+00,1.642706816730993032e+09,-2.087869100016198354e-01,4.873779059425984994e-01,7.128683365396417670e-01,-1.890933858485313035e-01,8.401789867287262625e-01,2.411548624222908666e-01,3.049747151741994400e-01
4.966666666666666785e+00,1.642706816748944998e+09,-2.027306041492152877e-01,4.901535786838687181e-01,7.165692335280020586e-01,-1.890933858485313035e-01,9.401923801812738235e-01,2.463932111795672786e-01,3.235754657313420490e-01
4.983333333333333393e+00,1.642706816763938189e+09,-1.968262338633316177e-01,4.707238694949775759e-01,6.906629546094805727e-01,-1.890933858485313035e-01,1.041034986252494798e+00,2.519502480911212650e-01,3.432144097489125967e-01
5.000000000000000000e+00,1.642706816786845207e+09,-1.910815327237709860e-01,5.706480881807031169e-01,8.238952461904478497e-01,-1.890933858485313035e-01,1.141802282024076964e+00,2.578596078076705878e-01,3.658458895357762364e-01
5.016666666666666607e+00,1.642706816800807238e+09,-1.842706766322928513e-01,5.493679304976319955e-01,7.955217026130197988e-01,-1.890933858485313035e-01,1.241562276873934501e+00,2.641538726569890305e-01,3.894004614759838945e-01
5.033333333333333215e+00,1.642706816816763878e+09,-1.777095621828666261e-01,5.253121000732905443e-01,7.634472620472311233e-01,-1.890933858485313035e-01,1.330478127482617623e+00,2.708464188344326118e-01,4.136377524244720938e-01
5.049999999999999822e+00,1.642706816835714102e+09,-1.713925067923562917e-01,4.883031301896886278e-01,7.141019688690952716e-01,-1.890933858485313035e-01,1.415305248814422434e+00,2.779461768612360717e-01,4.382648007144038238e-01
5.066666666666666430e+00,1.642706816849708080e+09,-1.653112199823990602e-01,4.799761119658781938e-01,7.029992779040147299e-01,-1.890933858485313035e-01,1.495168075984101952e+00,2.854628647542996611e-01,4.636671826205066016e-01
5.083333333333333037e+00,1.642706816866630554e+09,-1.594550356627457699e-01,4.429671420822759997e-01,6.536539847258784341e-01,-1.890933858485313035e-01,1.569217671280484616e+00,2.934045331591318972e-01,4.892619277717203397e-01
5.099999999999999645e+00,1.642706816886577606e+09,-1.538111676310905396e-01,4.364905723526459891e-01,6.450185584197050126e-01,-1.890933858485313035e-01,1.636638916056542881e+00,3.017776631997734493e-01,5.154409558712319539e-01
5.116666666666666252e+00,1.642706816901572466e+09,-1.483649852256109791e-01,4.272383298817453712e-01,6.326822351251709664e-01,-1.890933858485313035e-01,1.696657474298803869e+00,3.105905063838484415e-01,5.420263760901661287e-01
5.133333333333332860e+00,1.642706816919522524e+09,-1.431003058685344220e-01,-4.727334646213282587e-02,0.000000000000000000e+00,-1.890933858485313035e-01,1.748546471213054065e+00,3.197843950580402939e-01,5.611870394951562480e-01
5.150000000000000355e+00,1.642706816936480999e+09,-1.379997010756999765e-01,4.549950572944468918e-01,6.696912050087729940e-01,-1.890933858485313035e-01,1.791632832294148603e+00,3.293703063141609211e-01,5.890449263988455364e-01
5.166666666666666963e+00,1.642706816951436281e+09,-1.330448123798816384e-01,4.577707300357168330e-01,6.733921019971328414e-01,-1.890933858485313035e-01,1.825303230915798824e+00,3.394217018896658056e-01,6.170447635058659008e-01
5.183333333333333570e+00,1.642706816969355822e+09,-1.282166735258151169e-01,5.780498821574233670e-01,8.337643048260749978e-01,-1.890933858485313035e-01,1.849009595461009958e+00,3.499557814168886560e-01,6.469616752722835429e-01
5.200000000000000178e+00,1.642706816989328861e+09,-1.234960352433114722e-01,5.910030216166841655e-01,8.510351574384227291e-01,-1.890933858485313035e-01,1.862274130393522409e+00,3.609879651997064953e-01,6.768174440229691724e-01
5.216666666666666785e+00,1.642706817004262209e+09,-1.188636888919436807e-01,6.178345247822955022e-01,8.868104949925711411e-01,-1.890933858485313035e-01,1.864693809416752890e+00,3.725176616225714943e-01,7.066632198367549522e-01
5.233333333333333393e+00,1.642706817023245811e+09,-1.143007852967277693e-01,6.132084035468451377e-01,8.806423333453040625e-01,-1.890933858485313035e-01,1.855944302952039937e+00,3.845388178805133061e-01,7.357946086871278712e-01
5.250000000000000000e+00,1.642706817036211252e+09,-1.097891451585736033e-01,6.261615430061059362e-01,8.979131859576517938e-01,-1.890933858485313035e-01,1.835783306558867123e+00,3.970404780912014098e-01,7.643253626358560426e-01
5.266666666666666607e+00,1.642706817054130554e+09,-1.053115575254085778e-01,7.038803797616702829e-01,1.001538301631737404e+00,-1.890933858485313035e-01,1.804053241582735501e+00,4.100200621778354870e-01,7.931446722382954340e-01
5.283333333333333215e+00,1.642706817074076891e+09,-1.008520629486632791e-01,7.566181618458029945e-01,1.071855344410581168e+00,-1.890933858485313035e-01,1.760683304214257117e+00,4.234772814451409628e-01,8.216424774053242563e-01
5.299999999999999822e+00,1.642706817092028856e+09,-9.639621812378240673e-02,8.213838591421064317e-01,1.158209607472318936e+00,-1.890933858485313035e-01,1.705690844237407466e+00,4.374068778852427952e-01,8.498307926882142649e-01
5.316666666666666430e+00,1.642706817106988907e+09,-9.193133902079289599e-02,9.055792656273010666e-01,1.270470149452578523e+00,-1.890933858485313035e-01,1.639182059995872187e+00,4.518048290809768552e-01,8.778455302528663795e-01
5.333333333333333037e+00,1.642706817122945786e+09,-8.744671974954025540e-02,9.466037191193222844e-01,1.335852662913608713e+00,-2.211431122635373892e-01,1.561352001472230855e+00,4.666607395513922563e-01,9.047888817923102067e-01
5.349999999999999645e+00,1.642706817139933825e+09,-8.293382467153839754e-02,9.546161507230738197e-01,1.335852662913608713e+00,-1.890933858485313035e-01,1.472483878813418690e+00,4.819508166232465696e-01,9.299504718793973890e-01
5.366666666666666252e+00,1.642706817156853914e+09,-7.838645156369647427e-02,8.667198472495191153e-01,1.218657591615535996e+00,-1.890933858485313035e-01,1.372947679104146834e+00,4.976308899276449260e-01,9.515981906808934632e-01
5.383333333333332860e+00,1.642706817173841953e+09,-7.380086395547340306e-02,7.853001135055948101e-01,1.110097946623636700e+00,-1.890933858485313035e-01,1.263198099645000960e+00,5.136423641507514848e-01,9.697283533436301672e-01
5.400000000000000355e+00,1.642706817191797018e+09,-6.917589109697322436e-02,9.012677310119098228e-01,1.275404678770392319e+00,-2.211431122635373892e-01,1.143771811390369431e+00,5.299530258911273606e-01,9.875016839766255217e-01
5.416666666666666963e+00,1.642706817208748102e+09,-6.451299436772964246e-02,8.694955199907894450e-01,1.222358488603896287e+00,-1.890933858485313035e-01,1.015284071500422991e+00,5.465353197630394844e-01,1.002332383296233642e+00
5.433333333333333570e+00,1.642706817228663206e+09,-5.981629930074770091e-02,7.214596404563813348e-01,1.024977315891351992e+00,-1.890933858485313035e-01,8.784247091194723467e-01,5.633233936603870839e-01,1.012209048558483593e+00
5.450000000000000178e+00,1.642706817247649908e+09,-5.509259277007147459e-02,8.269352046246469801e-01,1.165611401449039741e+00,-1.890933858485313035e-01,7.339535134687530382e-01,5.802693283794266854e-01,1.021277925807667408e+00
5.466666666666666785e+00,1.642706817265563488e+09,-5.035128526885754990e-02,9.148315080982016845e-01,1.282806472747112680e+00,-1.890933858485313035e-01,5.826950580966916426e-01,5.973564068427323903e-01,1.029149623447609851e+00
5.483333333333333393e+00,1.642706817282519579e+09,-4.560433858476566071e-02,9.379621142754529517e-01,1.313647280983447629e+00,-1.890933858485313035e-01,4.255329996241773993e-01,6.145550805328292565e-01,1.034675868322506798e+00
5.500000000000000000e+00,1.642706817295485497e+09,-4.086615955652654619e-02,1.050839472420438847e+00,1.464150425176762083e+00,-1.890933858485313035e-01,2.634038935236715506e-01,6.318382923404719520e-01,1.039296712613932527e+00
5.516666666666666607e+00,1.642706817312470913e+09,-3.615346096592240988e-02,9.462891324992633857e-01,1.324749971948528282e+00,-1.890933858485313035e-01,9.729057334226554055e-02,6.491604957865324543e-01,1.039367504265230835e+00
5.533333333333333215e+00,1.642706817329427719e+09,-3.148509097930280581e-02,9.527657022288936739e-01,1.333385398254702148e+00,-1.890933858485313035e-01,-7.178485670733586455e-02,6.664614110799502722e-01,1.036749603063839009e+00
5.549999999999999822e+00,1.642706817347377539e+09,-2.688183289845443025e-02,1.042512454196628413e+00,1.453047734211681652e+00,-1.890933858485313035e-01,-2.427683627389302656e-01,6.837078358114923038e-01,1.032832246523258668e+00
5.566666666666666430e+00,1.642706817365338802e+09,-2.236617730855780875e-02,1.455477055018849830e+00,2.014350444112978700e+00,-2.211431122635373892e-01,-4.145816000040663529e-01,7.009228202812600728e-01,1.032965519637070617e+00
5.583333333333333037e+00,1.642706817383248091e+09,-1.796206901771321349e-02,2.281387721050205375e+00,3.104881423349784342e+00,-1.890933858485313035e-01,-5.861297514795800190e-01,7.182303884388608894e-01,1.043912250972313549e+00
5.599999999999999645e+00,1.642706817399205923e+09,-1.369463146494568490e-02,2.900362742353447931e+00,3.930181451754108490e+00,-1.890933858485313035e-01,-7.563095263592884976e-01,7.357808779740935279e-01,1.062095981703650160e+00
5.616666666666666252e+00,1.642706817419154167e+09,-9.589871528689689062e-03,3.357423520415933726e+00,4.539595822504089107e+00,-1.890933858485313035e-01,-9.240172572178808608e-01,7.536718837294786866e-01,1.084761747001565801e+00
5.633333333333332860e+00,1.642706817435111046e+09,-5.674367892954763556e-03,4.042089463262570348e+00,5.452483746299604306e+00,-1.890933858485313035e-01,-1.088157033730614121e+00,7.720094169668382245e-01,1.115656420923072156e+00
5.650000000000000355e+00,1.642706817450070858e+09,-1.974946321219275998e-03,4.324282858625035253e+00,5.828741606782890550e+00,-1.890933858485313035e-01,-1.247648810435523004e+00,7.908745418572388219e-01,1.148068530169163548e+00
5.666666666666666963e+00,1.642706817469020367e+09,1.481654653406014408e-03,4.806324691358952350e+00,6.471464050428113346e+00,-1.890933858485313035e-01,-1.401436426115303169e+00,8.103207304279547163e-01,1.185370479352508388e+00
5.683333333333333570e+00,1.642706817485975266e+09,4.669123990723582883e-03,5.125527056605018394e+00,6.897067204089534442e+00,-1.890933858485313035e-01,-1.548495472955091934e+00,8.304072425089253917e-01,1.224901160332369843e+00
5.700000000000000178e+00,1.642706817501932859e+09,7.561920642630998515e-03,5.374412379072242452e+00,7.228914300712500740e+00,-1.890933858485313035e-01,-1.687840954696841811e+00,8.511622689729704261e-01,1.265588990941248104e+00
5.716666666666666785e+00,1.642706817519884348e+09,1.013561452610538607e-02,6.005415315587655734e+00,8.070251549399719337e+00,-1.890933858485313035e-01,-1.818534674549828090e+00,8.726589090823428929e-01,1.313873694849172713e+00
5.733333333333333393e+00,1.642706817536839008e+09,1.236722219932761581e-02,5.904565872654839787e+00,7.935785625489297779e+00,-1.890933858485313035e-01,-1.939692295621953999e+00,8.949229614229955443e-01,1.357690868792401417e+00
5.750000000000000000e+00,1.642706817554790735e+09,1.423553350152153424e-02,5.985985606398765313e+00,8.044345270481198185e+00,-1.890933858485313035e-01,-2.050490019089558302e+00,9.179071902435074204e-01,1.400298233093709710e+00
5.766666666666666607e+00,1.642706817570746660e+09,1.572142548718086230e-02,5.911967666631561258e+00,7.945654684124925815e+00,-1.890933858485313035e-01,-2.150170828207092377e+00,9.415716654940906594e-01,1.439330371816867515e+00
5.783333333333333215e+00,1.642706817590693474e+09,1.680816009371595421e-02,5.553905883007712596e+00,7.468238972626460637e+00,-1.890933858485313035e-01,-2.238050249549284665e+00,9.658196916298417145e-01,1.470346606238756904e+00
5.799999999999999822e+00,1.642706817604655981e+09,1.748166212714507423e-02,5.144956765793909703e+00,6.922973483008057372e+00,-1.890933858485313035e-01,-2.313521586551844589e+00,9.905134626333348402e-01,1.492843421555964945e+00
5.816666666666666430e+00,1.642706817621610641e+09,1.773077433193945285e-02,4.970089383093890589e+00,6.689816972741364332e+00,-1.890933858485313035e-01,-2.376060584443817625e+00,1.015546282599678385e+00,1.511044414900456045e+00
5.833333333333333037e+00,1.642706817638566494e+09,1.754748652673569081e-02,4.537084435455748022e+00,6.112477042557173945e+00,-1.890933858485313035e-01,-2.425229490013866229e+00,1.040813340431618217e+00,1.520974939492547584e+00
5.849999999999999645e+00,1.642706817654524088e+09,1.692713603529715991e-02,4.644410448118192924e+00,6.255578392773768037e+00,-1.890933858485313035e-01,-2.460680474290247055e+00,1.066254462812532111e+00,1.531929316675432862e+00
5.866666666666666252e+00,1.642706817672476053e+09,1.586857691937556408e-02,4.712877042402856986e+00,6.346867185153319824e+00,-1.890933858485313035e-01,-2.482158391103776118e+00,1.091883135222029955e+00,1.543479288454252973e+00
5.883333333333332860e+00,1.642706817691425800e+09,1.437431582435235930e-02,4.709176145414495807e+00,6.341932655835504917e+00,-1.890933858485313035e-01,-2.489502849606386903e+00,1.117701186283297954e+00,1.554655792323120123e+00
5.900000000000000355e+00,1.642706817705387831e+09,1.245061257662775922e-02,4.402926919627690339e+00,5.933600354786430664e+00,-1.890933858485313035e-01,-2.482649584095236506e+00,1.143662615985332698e+00,1.560698984879959728e+00
5.916666666666666963e+00,1.642706817722342491e+09,1.010754402055262513e-02,4.168845185113907448e+00,5.621491375434721327e+00,-1.890933858485313035e-01,-2.461631109902272740e+00,1.169694502470715491e+00,1.563120666314770979e+00
5.933333333333333570e+00,1.642706817740294695e+09,7.359029948689192746e-03,4.079098433146173264e+00,5.501829039477741823e+00,-1.890933858485313035e-01,-2.426576659609468223e+00,1.195758861701499809e+00,1.564598336642931908e+00
5.950000000000000178e+00,1.642706817756283760e+09,4.222820358810781827e-03,4.358516155767367728e+00,5.874386002972667775e+00,-1.890933858485313035e-01,-2.377711399397595571e+00,1.221892987283916376e+00,1.571477623666678314e+00
5.966666666666666785e+00,1.642706817774235725e+09,7.204436604322170257e-04,4.099453366582153535e+00,5.528968950725715814e+00,-1.890933858485313035e-01,-2.315354930887823404e+00,1.248113648304343348e+00,1.574991936574490214e+00
5.983333333333333393e+00,1.642706817790193081e+09,-3.122884151001210917e-03,4.289124337235612927e+00,5.781863578263661374e+00,-1.890933858485313035e-01,-2.239919089347443659e+00,1.274429012493095703e+00,1.582829993183874073e+00
6.000000000000000000e+00,1.642706817811103582e+09,-7.278388936881208249e-03,4.373634330340867571e+00,5.905226811209002946e+00,-2.211431122635373892e-01,-2.151905054559908326e+00,1.300897757467198268e+00,1.593390069472787607e+00
6.016666666666666607e+00,1.642706817825067997e+09,-1.171390566451043641e-02,4.157131856521794511e+00,5.616556846116906421e+00,-2.211431122635373892e-01,-2.051899795963546325e+00,1.327524954496281273e+00,1.601850073453008783e+00
6.033333333333333215e+00,1.642706817844017506e+09,-1.639408226262560608e-02,4.662914933059993494e+00,6.280251039362836352e+00,-1.890933858485313035e-01,-1.940571878799973060e+00,1.354377218770100866e+00,1.620370193416856175e+00
6.049999999999999822e+00,1.642706817858977079e+09,-2.128061850415625261e-02,5.023752389425113485e+00,6.761367647849661822e+00,-1.890933858485313035e-01,-1.818666662943555945e+00,1.381602270360536178e+00,1.646563237267780311e+00
6.066666666666666430e+00,1.642706817873936653e+09,-2.633253797149706296e-02,4.474169186653624841e+00,6.028590044154342742e+00,-1.890933858485313035e-01,-1.687000930767269313e+00,1.409202531915966450e+00,1.665415779977122535e+00
6.083333333333333037e+00,1.642706817892886639e+09,-3.150649081148522435e-02,4.154041597160467170e+00,5.601753258163466143e+00,-1.890933858485313035e-01,-1.546456984802505819e+00,1.437089594411495419e+00,1.680988461020892943e+00
6.099999999999999645e+00,1.642706817908844471e+09,-3.675708466020102122e-02,4.054431965094799750e+00,5.479623657547579185e+00,-2.211431122635373892e-01,-1.397976260035507234e+00,1.465240800784320285e+00,1.697111516399056219e+00
6.116666666666666252e+00,1.642706817928790569e+09,-4.203724081503130983e-02,4.025750013435008157e+00,5.441381055334523431e+00,-2.211431122635373892e-01,-1.242552499419259160e+00,1.493676003464220914e+00,1.715062938952751415e+00
6.133333333333332860e+00,1.642706817942975283e+09,-4.729857245618995787e-02,4.439325251884262080e+00,5.992814706600194441e+00,-2.211431122635373892e-01,-1.081224544538631038e+00,1.522487322976499025e+00,1.742219964562900403e+00
6.150000000000000355e+00,1.642706817960971117e+09,-5.249178147495162094e-02,4.385051607926007122e+00,5.931133090127524099e+00,-2.531928386785423091e-01,-9.150687963198268493e-01,1.551762961852418243e+00,1.770777372547084116e+00
6.166666666666666963e+00,1.642706817977331638e+09,-5.756707025381400944e-02,4.504720122420683204e+00,6.101374351592093959e+00,-2.852425650935483947e-01,-7.451914032029569590e-01,1.581550605389868025e+00,1.803648540996596328e+00
6.183333333333333570e+00,1.642706817993204594e+09,-6.247456456680389875e-02,3.979507336693592912e+00,5.411773879427641987e+00,-3.172922915085532591e-01,-5.727202362751830922e-01,1.611832840704225278e+00,1.830146090689212635e+00
6.200000000000000178e+00,1.642706818009404898e+09,-6.716474362814454924e-02,3.953915644395131324e+00,5.388334865168028287e+00,-3.493420179235594003e-01,-3.987967124791519935e-01,1.642573529658587494e+00,1.858657383933450147e+00
6.216666666666666785e+00,1.642706818026805878e+09,-7.158887321600747311e-02,3.941591678175987656e+00,5.393269394485840529e+00,-4.134414707535703504e-01,-2.245675281514213084e-01,1.673807831269148894e+00,1.889373484823298144e+00
6.233333333333333393e+00,1.642706818044395208e+09,-7.569943773620647909e-02,3.690559856207613620e+00,5.079926782804678354e+00,-4.775409235835813559e-01,-5.117636580157197690e-02,1.705539101604712782e+00,1.918298605994501527e+00
6.250000000000000000e+00,1.642706818064206600e+09,-7.945056706926580115e-02,3.400668615861454303e+00,4.714771613286470320e+00,-5.416403764135924170e-01,1.202443627911405910e-01,1.737732098934764435e+00,1.944787491641993160e+00
6.266666666666666607e+00,1.642706818079169989e+09,-8.279845406359701010e-02,3.407774358831202832e+00,4.745612421522805491e+00,-6.057398292436033671e-01,2.885816744114998444e-01,1.770387151316412444e+00,1.973738373147723602e+00
6.283333333333333215e+00,1.642706818097216368e+09,-8.570175859758952241e-02,3.614432488165431501e+00,5.063889562521784349e+00,-7.339387349036241570e-01,4.527500112332458193e-01,1.803571938416160592e+00,2.008339961037953536e+00
6.299999999999999822e+00,1.642706818116746426e+09,-8.812199423375695340e-02,3.399502947446655376e+00,4.830733052255091309e+00,-8.941873669786521983e-01,6.116990159906334767e-01,1.837320907399268233e+00,2.041444358112133983e+00
6.316666666666666430e+00,1.642706818131315947e+09,-9.002389362785169491e-02,2.735525060269146103e+00,3.988162171238419429e+00,-1.022386272638674320e+00,7.644210266177924318e-01,1.871546429020999103e+00,2.065551271271851785e+00
6.333333333333333037e+00,1.642706818149526119e+09,-9.137574903387336855e-02,2.313641339209169701e+00,3.457700269573456442e+00,-1.118535451883690079e+00,9.099582337005909238e-01,1.906132233751451688e+00,2.084692126089895403e+00
6.349999999999999645e+00,1.642706818164484501e+09,-9.214972446046856835e-02,2.095306952509004894e+00,3.198637480388242249e+00,-1.214684631128707171e+00,1.047409446748301942e+00,1.941023237360150144e+00,2.102179729135485342e+00
6.366666666666666252e+00,1.642706818183222055e+09,-9.232213628346164214e-02,2.028098704704578203e+00,3.151759451869013517e+00,-1.342883536788729293e+00,1.175936418374123438e+00,1.976211754995880421e+00,2.120391796884399938e+00
6.383333333333332860e+00,1.642706818200293541e+09,-9.187369940075401642e-02,2.105836077073229617e+00,3.287459008108887915e+00,-1.439032716033745052e+00,1.294769678949634795e+00,2.011728442068112965e+00,2.141551872412548185e+00
6.400000000000000355e+00,1.642706818216891050e+09,-9.078973632702250218e-02,1.976027167086737535e+00,3.167796672151907522e+00,-1.599281348108773093e+00,1.403213838140691117e+00,2.047591923515584167e+00,2.162009074385534024e+00
6.416666666666666963e+00,1.642706818233634233e+09,-8.906034696353840041e-02,1.388842892417702091e+00,2.427617274479867415e+00,-1.727480253768793883e+00,1.500652313911991609e+00,2.083725888836215123e+00,2.174033362503731137e+00
6.433333333333333570e+00,1.642706818252359152e+09,-8.668053713982631914e-02,1.040366473497899902e+00,2.005715017806804834e+00,-1.855679159428816005e+00,1.586551454070125988e+00,2.120022330853380321e+00,2.181518885946033048e+00
6.450000000000000178e+00,1.642706818266880035e+09,-8.365030440535237144e-02,1.052727510943216593e+00,2.064929369620568167e+00,-1.983878065088837905e+00,1.660464020166525057e+00,2.156454413843520435e+00,2.190306661807722044e+00
6.466666666666666785e+00,1.642706818284759998e+09,-7.997467994727305851e-02,7.193692665969141364e-01,1.673867921183840757e+00,-2.144126697163866169e+00,1.722032008563350036e+00,2.192994206186934303e+00,2.194456890716979025e+00
6.483333333333333393e+00,1.642706818301962852e+09,-7.566372592075193415e-02,9.738244701597649211e-01,2.045191252349313871e+00,-2.240275876408881928e+00,1.770988788639512368e+00,2.229644503195055361e+00,2.203553481355512655e+00
6.500000000000000000e+00,1.642706818317949057e+09,-7.073248789739844389e-02,1.076246846192875584e+00,2.235170631085137138e+00,-2.400524508483909969e+00,1.807160543438421030e+00,2.266464296312018956e+00,2.214790478065737034e+00
6.516666666666666607e+00,1.642706818337465286e+09,-6.520090256106264581e-02,1.091383556379462716e+00,2.298085879887260763e+00,-2.528723414143931869e+00,1.830467003492724398e+00,2.303475130437749652e+00,2.226477153271209541e+00
6.533333333333333215e+00,1.642706818353760481e+09,-5.909366120435071562e-02,1.115143335796832336e+00,2.351132070053757239e+00,-2.592822866973942819e+00,1.840921470061432030e+00,2.340683854002888253e+00,2.238536176470375061e+00
6.549999999999999822e+00,1.642706818370894670e+09,-5.244002999975644341e-02,1.184553689941672872e+00,2.475728935328550318e+00,-2.688972046218959022e+00,1.838630129537758506e+00,2.378101166201363359e+00,2.251505261263223812e+00
6.566666666666666430e+00,1.642706818388129234e+09,-4.527362843207979881e-02,1.371782110087009565e+00,2.768099797409006690e+00,-2.817170951878980922e+00,1.823790666288817253e+00,2.415756648965333486e+00,2.267109324772183854e+00
6.583333333333333037e+00,1.642706818404432774e+09,-3.763216767990461287e-02,1.163625190104835561e+00,2.522606963847779493e+00,-2.913320131123996681e+00,1.796690186627723396e+00,2.453637550343990004e+00,2.278567013005736719e+00
6.599999999999999645e+00,1.642706818424019814e+09,-2.955715111930383790e-02,1.248782892063294403e+00,2.700250019289069048e+00,-3.105618489614029976e+00,1.757702471951421597e+00,2.491714207673270565e+00,2.290598445076701406e+00
6.616666666666666252e+00,1.642706818439298868e+09,-2.109353948897567388e-02,1.522667804815035941e+00,3.097479629373063759e+00,-3.201767668859047067e+00,1.707284584263051297e+00,2.530020592460004991e+00,2.306124600107934963e+00
6.633333333333332860e+00,1.642706818455284595e+09,-1.228938359901504337e-02,1.419671862381069127e+00,2.981518190404444546e+00,-3.265867121689058017e+00,1.645972852293677402e+00,2.568560907759006362e+00,2.318678363386845742e+00
6.649999999999999467e+00,1.642706818472726345e+09,-3.195427782202015649e-03,1.718223243184183291e+00,3.400953182418600562e+00,-3.329966574519068967e+00,1.574378271207298674e+00,2.607340065900363602e+00,2.334775897152013169e+00
6.666666666666666963e+00,1.642706818490367174e+09,6.135312426163611749e-03,1.593021918820054283e+00,3.255384567543099017e+00,-3.394066027349079917e+00,1.493181353376261011e+00,2.646356785043545656e+00,2.347195899212103143e+00
6.683333333333333570e+00,1.642706818506982803e+09,1.564799463895339554e-02,1.554791673682390574e+00,3.225777391636218017e+00,-3.458165480179090867e+00,1.403126471917838458e+00,2.685561069958484648e+00,2.357290250057168191e+00
6.700000000000000178e+00,1.642706818523072243e+09,2.528641203751991196e-02,1.817259308848993227e+00,3.597100722801691575e+00,-3.522264933009101817e+00,1.305015742552896096e+00,2.724954900875237840e+00,2.369934336663779728e+00
6.716666666666666785e+00,1.642706818539755583e+09,3.499346971768552833e-02,2.517968650516220208e+00,4.542063087162995672e+00,-3.554314659424106626e+00,1.199702492854513913e+00,2.764639956566524948e+00,2.392210466695337878e+00
6.733333333333333393e+00,1.642706818557015896e+09,4.471167067339038015e-02,2.410346586846802808e+00,4.419933486547109602e+00,-3.618414112254117576e+00,1.088084371071184941e+00,2.804662922737667152e+00,2.410494683156162221e+00
6.750000000000000000e+00,1.642706818574204206e+09,5.438360702615022135e-02,2.245360619857800888e+00,4.221318681505110249e+00,-3.682513565084128526e+00,9.710961494109000558e-01,2.844949154009088765e+00,2.423816064705885509e+00
6.766666666666666607e+00,1.642706818589312315e+09,6.395245204611769985e-02,1.954840206271525993e+00,3.833958130056744462e+00,-3.682513565084128526e+00,8.497022789387730368e-01,2.885398674544024988e+00,2.430108918924454020e+00
6.783333333333333215e+00,1.642706818605236292e+09,7.336244849019626924e-02,1.919681684882103667e+00,3.787080101537514842e+00,-3.682513565084128526e+00,7.248892550542195279e-01,2.925930111460785188e+00,2.433653664339965772e+00
6.799999999999999822e+00,1.642706818624719143e+09,8.255938880468284558e-02,1.478053668013178168e+00,3.219609229988950716e+00,-3.746613017914139920e+00,5.976578538600448853e-01,2.966441566719130840e+00,2.427737401112840310e+00
6.816666666666666430e+00,1.642706818639957190e+09,9.149108280414564032e-02,1.590931026158164174e+00,3.370112374182265391e+00,-3.746613017914139920e+00,4.690153006053784379e-01,3.006853057250971961e+00,2.421658349360391593e+00
6.833333333333333037e+00,1.642706818657914639e+09,1.001078085440748888e-01,1.690244607216858874e+00,3.513213724398859927e+00,-3.778662744329144729e+00,3.399674317703439419e-01,3.047159962980602543e+00,2.415188310947214312e+00
6.849999999999999645e+00,1.642706818676289320e+09,1.083627422514050753e-01,1.675441019263417486e+00,3.493475607127605187e+00,-3.778662744329144729e+00,2.115109122605978165e-01,3.087340141224088619e+00,2.406457331562461555e+00
6.866666666666666252e+00,1.642706818693413019e+09,1.162123633628758673e-01,1.678216692004687927e+00,3.497176504115965479e+00,-3.778662744329144729e+00,8.462556859534620113e-02,3.127358866982049790e+00,2.395819310147834447e+00
6.883333333333332860e+00,1.642706818713451385e+09,1.236168309446661479e-01,1.681917588993048218e+00,3.502111033433779053e+00,-3.778662744329144729e+00,-3.973310209153124717e-02,3.167185096400018107e+00,2.383362822178224594e+00
6.899999999999999467e+00,1.642706818729556799e+09,1.305403280257429466e-01,9.907750764167809754e-01,2.580587683332089544e+00,-3.778662744329144729e+00,-1.606411889522826320e-01,3.206693277347509419e+00,2.357690206021808343e+00
6.916666666666666963e+00,1.642706818748054504e+09,1.369513706693753496e-01,1.569650868475093386e+00,3.341738830604837673e+00,-3.746613017914139920e+00,-2.772133339355729031e-01,3.245840980884024063e+00,2.340083128060952422e+00
6.933333333333333570e+00,1.642706818763919353e+09,1.428230789296429937e-01,1.752234631771892426e+00,3.595867090472238292e+00,-3.778662744329144729e+00,-3.886093540480672903e-01,3.284707497506193619e+00,2.323943699400846441e+00
6.950000000000000178e+00,1.642706818778288126e+09,1.481334071893117554e-01,2.200043167363476382e+00,4.192945137927683419e+00,-3.778662744329144729e+00,-4.940404683658392582e-01,3.323354542176897297e+00,2.313730033046770274e+00
6.966666666666666785e+00,1.642706818795018911e+09,1.528653317489834795e-01,2.252780949447608538e+00,4.263262180706526294e+00,-3.778662744329144729e+00,-5.927750820488837391e-01,3.361826416686394481e+00,2.302924922993918155e+00
6.983333333333333393e+00,1.642706818813508749e+09,1.570069939312695451e-01,2.571058090446586508e+00,4.687631702038496329e+00,-3.778662744329144729e+00,-6.841440832407259531e-01,3.400151039101027006e+00,2.296048867366049961e+00
7.000000000000000000e+00,1.642706818834131002e+09,1.605517973742117688e-01,2.642300357472520567e+00,4.782621391406409295e+00,-3.778662744329144729e+00,-7.675456127062251221e-01,3.438360330869367321e+00,2.289085488010480951e+00
7.016666666666666607e+00,1.642706818849091053e+09,1.634984586113465421e-01,2.591413023882566780e+00,4.714771613286470320e+00,-3.778662744329144729e+00,-8.424492703450163766e-01,3.476437153786071210e+00,2.280158060986069213e+00
7.033333333333333215e+00,1.642706818864099264e+09,1.658510104676285957e-01,-6.758870289100723738e+00,-7.752272804024583408e+00,-3.778662744329144729e+00,-9.083997272782373678e-01,3.513065844406313420e+00,2.115741536759510932e+00
7.049999999999999822e+00,1.642706818881694555e+09,1.676187582367756335e-01,2.417156278809578396e+00,4.471746044384151020e+00,-3.746613017914139920e+00,-9.650197170092793542e-01,3.548236545902044181e+00,2.104773111293785082e+00
7.066666666666666430e+00,1.642706818900823593e+09,1.688161890423248157e-01,-6.607697324526831117e+00,-7.561392093397728331e+00,-3.746613017914139920e+00,-1.012012384163502032e+00,3.581972947337607405e+00,1.944041548046716139e+00
7.083333333333333037e+00,1.642706818917006016e+09,1.694628352176046904e-01,-1.115218984137321456e+01,-1.363139869133124016e+01,-3.714563291499134667e+00,-1.049162974480132293e+00,3.612419870877366712e+00,1.710238744242734699e+00
7.099999999999999645e+00,1.642706818933046818e+09,1.695830929647961782e-01,2.800495168111830413e+00,4.961498079177150800e+00,-3.682513565084128526e+00,-1.076339855018715541e+00,3.640925772111512693e+00,1.710468764893474214e+00
7.116666666666666252e+00,1.642706818951097965e+09,1.692059979662366986e-01,2.534345171569955646e+00,4.617314659259652565e+00,-3.714563291499134667e+00,-1.093494858911465917e+00,3.669396345024582562e+00,1.706012363858045777e+00
7.133333333333332860e+00,1.642706818967177153e+09,1.683649600181666428e-01,-9.912996826226345704e+00,-1.198982457994042150e+01,-3.682513565084128526e+00,-1.100662954398536453e+00,3.696073036958870794e+00,1.495774675580009649e+00
7.149999999999999467e+00,1.642706818984445333e+09,1.670974591344209781e-01,-9.233838699573471587e+00,-1.107359716893158286e+01,-3.714563291499134667e+00,-1.097961243282864929e+00,3.719368984377287024e+00,1.300282062447321252e+00
7.166666666666666963e+00,1.642706819002743006e+09,1.654447059215869154e-01,-7.794220938268423993e+00,-9.164790062663188408e+00,-3.682513565084128526e+00,-1.085587299291365326e+00,3.739634272932933712e+00,1.132019969932344772e+00
7.183333333333333570e+00,1.642706819020797014e+09,1.634512693544427075e-01,-9.912996826226345704e+00,-1.198982457994042150e+01,-3.682513565084128526e+00,-1.063816862088155402e+00,3.756828794284969852e+00,9.318785537750668979e-01
7.200000000000000178e+00,1.642706819037050962e+09,1.611646753780253682e-01,-5.618180837122457305e+00,-6.263403261135232825e+00,-3.682513565084128526e+00,-1.033000907810968982e+00,3.771312727442368118e+00,8.065415915354450238e-01
7.216666666666666785e+00,1.642706819053388119e+09,1.586349800275696498e-01,-5.847237689874660305e+00,-6.568812398138170749e+00,-3.682513565084128526e+00,-9.935621219529147119e-01,3.783698832690856495e+00,6.801421560898301966e-01
7.233333333333333393e+00,1.642706819071994781e+09,1.559143209873494473e-01,-9.626675760286083516e+00,-1.160806315868673622e+01,-3.682513565084128526e+00,-9.459908051502222692e-01,3.793480291736909038e+00,4.941495876198391812e-01
7.250000000000000000e+00,1.642706819087860107e+09,1.530564517019593063e-01,-5.016906598647909554e+00,-5.461704276502503674e+00,-3.682513565084128526e+00,-8.908402469235053855e-01,3.800831885067525562e+00,3.883355468630325658e-01
7.266666666666666607e+00,1.642706819105795622e+09,1.501162623069912661e-01,2.985540017529840995e+00,5.208224545067830391e+00,-3.682513565084128526e+00,-8.287216066213189958e-01,3.807548407917513256e+00,4.175659975281867387e-01
7.283333333333333215e+00,1.642706819123570919e+09,1.471492917589934113e-01,2.328316215475846107e+00,4.321242900190836345e+00,-3.650463838669123717e+00,-7.602983446958235803e-01,3.814666742196425542e+00,4.365812944289414466e-01
7.299999999999999822e+00,1.642706819139764547e+09,1.442112356159721276e-01,1.996771348397549328e+00,3.868499835281438592e+00,-3.618414112254117576e+00,-6.862802509717118582e-01,3.822063801961620211e+00,4.510257529541772947e-01
7.316666666666666430e+00,1.642706819156873703e+09,1.413574539489403925e-01,2.011574936350990939e+00,3.888237952552693333e+00,-3.618414112254117576e+00,-6.074171197226678753e-01,3.829712544920409911e+00,4.667796402725262750e-01
7.333333333333333037e+00,1.642706819176321983e+09,1.386424838518518499e-01,-4.076641892827825409e+00,-4.240067728490729770e+00,-3.586364385839112767e+00,-5.244921241194162587e-01,3.836792222828540488e+00,3.830143954152749330e-01
7.349999999999999645e+00,1.642706819192504406e+09,1.361195609619361424e-01,2.654291201458516714e+00,4.734509730557726392e+00,-3.586364385839112767e+00,-4.383149449396091524e-01,3.843428965692312627e+00,4.133105901601513144e-01
7.366666666666666252e+00,1.642706819209048510e+09,1.338401543055131038e-01,2.814354996205093773e+00,4.947928123553163360e+00,-3.586364385839112767e+00,-3.497147103117774769e-01,3.850600806209444116e+00,4.472160877412416635e-01
7.383333333333332860e+00,1.642706819225459337e+09,1.318535186468516307e-01,3.008337501473945963e+00,5.195888221773296678e+00,-3.554314659424106626e+00,-2.595328046919522791e-01,3.858372304238905315e+00,4.852580013248137258e-01
7.399999999999999467e+00,1.642706819244338989e+09,1.302062683409337118e-01,3.030857470024166389e+00,5.236598088645258997e+00,-3.586364385839112767e+00,-1.686156062273084788e-01,3.866788247791450139e+00,5.245460888355499840e-01
7.416666666666666963e+00,1.642706819262344837e+09,1.289419764768413579e-01,2.831009032652715529e+00,4.970133505483325109e+00,-3.586364385839112767e+00,-7.780721214322777746e-02,3.875838505647069887e+00,5.613825279884218089e-01
7.433333333333333570e+00,1.642706819279671669e+09,1.281008028490407957e-01,1.994606313283310506e+00,3.854929879657451153e+00,-3.586364385839112767e+00,1.205778820930486495e-02,3.885394504125629922e+00,5.852709312014053866e-01
7.450000000000000178e+00,1.642706819298710585e+09,1.277191540115945600e-01,1.955746894905528555e+00,3.803117321820409291e+00,-3.586364385839112767e+00,1.001614334852027888e-01,3.895352144816758955e+00,6.095784293167886281e-01
7.466666666666666785e+00,1.642706819316330433e+09,1.278293783580043141e-01,2.335088836212449337e+00,4.308906576896302631e+00,-3.586364385839112767e+00,1.857093454486304918e-01,3.905775763931209621e+00,6.411681132300227626e-01
7.483333333333333393e+00,1.642706819332609653e+09,1.284594988301088758e-01,2.505330097677018752e+00,4.535894925515729703e+00,-3.586364385839112767e+00,2.679374622594358213e-01,3.916756385791145156e+00,6.764086173690280201e-01
7.500000000000000000e+00,1.642706819350263119e+09,1.296329854965256601e-01,2.410032000226743243e+00,4.408830795582028728e+00,-3.586364385839112767e+00,3.461184950295194129e-01,3.928317117733200803e+00,7.107837270145768160e-01
7.516666666666666607e+00,1.642706819368484259e+09,1.313685698580896732e-01,2.362845563625150636e+00,4.345915546779904659e+00,-3.586364385839112767e+00,4.195680550506188933e-01,3.940449647737763517e+00,7.450247573212768204e-01
7.533333333333333215e+00,1.642706819383609056e+09,1.336801023383496489e-01,2.050119768108713103e+00,3.928947819424655652e+00,-3.586364385839112767e+00,4.876504018317648903e-01,3.953114341917370655e+00,7.746562326406775112e-01
7.549999999999999822e+00,1.642706819399926901e+09,1.365764540053233389e-01,2.200006096137300471e+00,4.128796256796105624e+00,-3.586364385839112767e+00,5.497837652203858561e-01,3.966298085570381993e+00,8.073023200102944497e-01
7.566666666666666430e+00,1.642706819416350842e+09,1.400614631503804275e-01,2.703013499934230346e+00,4.788789553053675263e+00,-3.554314659424106626e+00,6.054451983910205115e-01,3.980098585204197903e+00,8.486427986818991798e-01
7.583333333333333037e+00,1.642706819434328556e+09,1.441339269254235667e-01,2.421745328818854404e+00,4.413765324899840969e+00,-3.554314659424106626e+00,6.541749223414494718e-01,3.994550264521979699e+00,8.854564568834556448e-01
7.599999999999999645e+00,1.642706819450094223e+09,1.487876378145654988e-01,2.723368433370210617e+00,4.815929464301650142e+00,-3.554314659424106626e+00,6.955801267066235027e-01,4.009657799330136996e+00,9.273313980765792719e-01
7.616666666666666252e+00,1.642706819467148304e+09,1.540114642953625823e-01,2.666929754297718169e+00,4.740677892204993249e+00,-3.554314659424106626e+00,7.293381961527312107e-01,4.025454333379955507e+00,9.681393298676016501e-01
7.633333333333332860e+00,1.642706819485300064e+09,1.597894746314460768e-01,2.517043426269129469e+00,4.540829454833541057e+00,-3.554314659424106626e+00,7.551993363113215230e-01,4.041908232793556266e+00,1.006222809830341625e+00
7.649999999999999467e+00,1.642706819502709627e+09,1.661011023370531081e-01,2.061833096700824708e+00,3.933882348742468782e+00,-3.554314659424106626e+00,7.729885781188274851e-01,4.058931179945045820e+00,1.036446890592513048e+00
7.666666666666666963e+00,1.642706819520191431e+09,1.729213514683488051e-01,2.489897336483458901e+00,4.493951426314312769e+00,-3.522264933009101817e+00,7.826071445008380145e-01,4.076514140178367995e+00,1.073405671708929532e+00
7.683333333333333570e+00,1.642706819536395073e+09,1.802210395302713541e-01,2.511177494166530799e+00,4.522324969891741375e+00,-3.522264933009101817e+00,7.840331685423469477e-01,4.094711111520823899e+00,1.110128878078288306e+00
7.700000000000000178e+00,1.642706819553940058e+09,1.879670754443663050e-01,2.373929718977143555e+00,4.328644694167556928e+00,-3.490215206594095676e+00,7.773217575732866980e-01,4.113495180360557946e+00,1.143865667181061641e+00
7.716666666666666785e+00,1.642706819570003986e+09,1.961227697060256570e-01,2.205853492626813406e+00,4.115226301172118184e+00,-3.522264933009101817e+00,7.626044029304337446e-01,4.132811621735910990e+00,1.174023524064995883e+00
7.733333333333333393e+00,1.642706819587758541e+09,2.046481735716595696e-01,1.875233849795607366e+00,3.663716868592174603e+00,-3.490215206594095676e+00,7.400877404897864276e-01,4.152577753278400507e+00,1.197846085693929918e+00
7.750000000000000000e+00,1.642706819604927540e+09,2.135004438603337329e-01,1.134129227876477408e+00,2.675577372700001622e+00,-3.490215206594095676e+00,7.100516723546619335e-01,4.172631126793718614e+00,1.208529060515797005e+00
7.766666666666666607e+00,1.642706819622094870e+09,2.226342297327066067e-01,1.682472619780817080e+00,3.396018653100786544e+00,-3.458165480179090867e+00,6.728468652921086868e-01,4.192931673067970877e+00,1.227483838992760701e+00
7.783333333333333215e+00,1.642706819638948679e+09,2.320020776246857763e-01,1.361734392660629567e+00,2.979050925745538425e+00,-3.490215206594095676e+00,6.288916465913914067e-01,4.213495142632669221e+00,1.240097470082262676e+00
7.799999999999999822e+00,1.642706819656346798e+09,2.415548503658641877e-01,1.479848509668096668e+00,3.125853172950492365e+00,-3.458165480179090867e+00,5.786683229335574108e-01,4.234276474291426062e+00,1.253624752300200429e+00
7.816666666666666430e+00,1.642706819673161030e+09,2.512421564047018219e-01,1.649164546885575344e+00,3.351607889240464377e+00,-3.458165480179090867e+00,5.227189525696611661e-01,4.255297050519438073e+00,1.268802234396442685e+00
7.833333333333333037e+00,1.642706819691479206e+09,2.610127849946054512e-01,1.669519480321556282e+00,3.378747800488438813e+00,-3.458165480179090867e+00,4.616406055710690626e-01,4.276562863722785934e+00,1.283055755957972055e+00
7.849999999999999645e+00,1.642706819708901405e+09,2.708151431679545751e-01,1.102967654482387205e+00,2.612662123897877553e+00,-3.426115753764084726e+00,3.960801511004903852e-01,4.297976959251753826e+00,1.286625790522052393e+00
7.866666666666666252e+00,1.642706819726123095e+09,2.805976903389234001e-01,1.298504557238447044e+00,2.884061236377625903e+00,-3.458165480179090867e+00,3.267286145260330232e-01,4.319467491047573660e+00,1.292222478255640405e+00
7.883333333333332860e+00,1.642706819743473530e+09,2.903093664303191823e-01,1.191789182203031983e+00,2.731090827525404219e+00,-3.426115753764084726e+00,2.543151507283029078e-01,4.341025786590384961e+00,1.294765921595018243e+00
7.899999999999999467e+00,1.642706819759744883e+09,2.999000095139348065e-01,1.402425723919504374e+00,3.001256307675699286e+00,-3.394066027349079917e+00,1.796006831075788179e-01,4.362644895178551252e+00,1.299513919790636685e+00
7.916666666666666963e+00,1.642706819776862144e+09,3.093207590870237222e-01,1.364176943168753597e+00,2.939574691203029388e+00,-3.362016300934073776e+00,1.033712605559032327e-01,4.384326669487536243e+00,1.302291282210395806e+00
7.933333333333333570e+00,1.642706819793196201e+09,3.185244412779810741e-01,1.243583204426987665e+00,2.768099797409006690e+00,-3.329966574519068967e+00,2.643118699720489739e-02,4.406027066090782540e+00,1.301757792130886493e+00
7.950000000000000178e+00,1.642706819808355331e+09,3.274659324803590454e-01,8.093384459216952376e-01,2.178423543930281259e+00,-3.297916848104062826e+00,-5.040402000186877673e-02,4.427648054258769506e+00,1.292785711061563036e+00
7.966666666666666785e+00,1.642706819828549385e+09,3.361024981537440448e-01,7.831175803831145199e-01,2.132779147740505366e+00,-3.265867121689058017e+00,-1.263147836033405302e-01,4.449106640499004506e+00,1.282273838100991048e+00
7.983333333333333393e+00,1.642706819843805552e+09,3.443941038003511257e-01,7.877437016185649954e-01,2.138947309387772666e+00,-3.265867121689058017e+00,-2.004846761249614306e-01,4.470381875341311151e+00,1.270786253683577671e+00
8.000000000000000000e+00,1.642706819867323399e+09,3.523036954245896690e-01,9.089480779873613248e-01,2.300553144546167772e+00,-3.265867121689058017e+00,-2.721076220921000988e-01,4.491474085326125909e+00,1.260308051297016840e+00
8.016666666666665719e+00,1.642706819878362417e+09,3.597974471063014601e-01,1.192066697596916303e+00,2.678044637358907742e+00,-3.265867121689058017e+00,-3.403950364569507947e-01,4.512422778452303440e+00,1.253553885856505623e+00
8.033333333333333215e+00,1.642706819897649765e+09,3.668449736635703284e-01,1.366008856049846010e+00,2.909967515296147500e+00,-3.265867121689058017e+00,-4.045828389799848712e-01,4.533274994369578259e+00,1.248725436890395057e+00
8.050000000000000711e+00,1.642706819913607836e+09,3.734195067443736860e-01,1.334551231648784420e+00,2.868024016094731454e+00,-3.265867121689058017e+00,-4.639382866964228413e-01,4.554034859898364651e+00,1.242475787110814966e+00
8.066666666666666430e+00,1.642706819933545589e+09,3.794980330643384914e-01,1.233701788715968917e+00,2.733558092184311228e+00,-3.265867121689058017e+00,-5.177665677865137539e-01,4.574670063637815254e+00,1.233772837053521920e+00
8.083333333333333925e+00,1.642706819946612358e+09,3.850613938964883576e-01,1.296617037518092097e+00,2.817445090587141987e+00,-3.265867121689058017e+00,-5.654171020216919308e-01,4.595163528635441530e+00,1.225466037647502393e+00
8.099999999999999645e+00,1.642706819963251114e+09,3.900943453143588258e-01,1.103245169876271525e+00,2.559615933731381077e+00,-3.265867121689058017e+00,-6.062894952551856065e-01,4.615487340381386083e+00,1.213424820478575583e+00
8.116666666666667140e+00,1.642706819980223417e+09,3.945855790881844238e-01,1.039404696827058050e+00,2.474495302999097035e+00,-3.265867121689058017e+00,-6.398390981461039573e-01,4.635598676747555658e+00,1.199972910757088895e+00
8.133333333333332860e+00,1.642706819998270512e+09,3.985277045309664756e-01,1.328685299546184861e+00,2.849519531152930440e+00,-3.233817395274051876e+00,-6.655821224305765726e-01,4.655524072544681147e+00,1.191099234578557375e+00
8.150000000000000355e+00,1.642706820014442444e+09,4.019171919832999484e-01,1.338862766264175663e+00,2.863089486776918324e+00,-3.233817395274051876e+00,-6.831002715557668026e-01,4.675301785476695393e+00,1.182250896558350028e+00
8.166666666666666075e+00,1.642706820031388998e+09,4.047542790087671483e-01,1.254981946399039705e+00,2.761931635761738946e+00,-3.265867121689058017e+00,-6.920448463464329292e-01,4.694920427155407694e+00,1.172014539880514183e+00
8.183333333333333570e+00,1.642706820047873020e+09,4.070428407418869021e-01,1.442802468558320061e+00,3.012358998640779273e+00,-3.265867121689058017e+00,-6.921402905469453692e-01,4.714395805421618846e+00,1.165050197914492491e+00
8.199999999999999289e+00,1.642706820066034317e+09,4.087902261841634410e-01,1.333311420781635448e+00,2.855687692800197741e+00,-3.233817395274051876e+00,-6.831871455429479045e-01,4.733742186894820847e+00,1.156539221028602293e+00
8.216666666666666785e+00,1.642706820081529140e+09,4.100070625773981070e-01,9.771000856519661548e-01,2.380739245960638684e+00,-3.233817395274051876e+00,-6.650643882791134054e-01,4.752901197330560379e+00,1.142580805549076706e+00
8.233333333333332504e+00,1.642706820099626064e+09,4.107070302936894901e-01,8.925900925467121771e-01,2.257376013015298444e+00,-3.201767668859047067e+00,-6.377311313166552642e-01,4.771821598172293122e+00,1.127908054061178111e+00
8.250000000000000000e+00,1.642706820114589453e+09,4.109066109654330723e-01,8.990666622763424654e-01,2.266011439321472309e+00,-3.201767668859047067e+00,-6.012276690761786391e-01,4.790505416187112786e+00,1.114188219266361246e+00
8.266666666666665719e+00,1.642706820133536100e+09,4.106248118334346886e-01,1.034149402351490110e+00,2.446121759421669317e+00,-3.201767668859047067e+00,-5.556758595482296226e-01,4.808987414613235423e+00,1.103680779886959229e+00
8.283333333333333215e+00,1.642706820150946379e+09,4.098828695143267864e-01,1.283034724818713501e+00,2.777968856044633394e+00,-3.201767668859047067e+00,-5.012788360836977208e-01,4.827337629851420786e+00,1.098359829461023951e+00
8.300000000000000711e+00,1.642706820165917397e+09,4.087039365779109867e-01,1.851122412532004491e+00,3.535419106329021677e+00,-3.201767668859047067e+00,-4.383200492562355777e-01,4.845687057968772748e+00,1.103557107398268178e+00
8.316666666666666430e+00,1.642706820184916973e+09,4.071127544787323527e-01,2.017348190388154272e+00,3.746370234665552523e+00,-3.169717942444040926e+00,-3.671616441769884887e-01,4.864155177156251675e+00,1.112592097314308637e+00
8.333333333333333925e+00,1.642706820201113701e+09,4.051353165029485948e-01,1.750272969599188766e+00,3.400953182418600562e+00,-3.201767668859047067e+00,-2.882421839942871378e-01,4.882746643424143329e+00,1.118367810806498719e+00
8.349999999999999645e+00,1.642706820218185425e+09,4.027985244701191569e-01,1.790353663231033288e+00,3.433027622984389460e+00,-3.137668216029035673e+00,-2.020737355859529849e-01,4.901451011433635152e+00,1.126134774924424820e+00
8.366666666666667140e+00,1.642706820235624790e+09,4.001298429692913272e-01,1.777400523771772489e+00,3.415756770372041728e+00,-3.137668216029035673e+00,-1.092383386064086359e-01,4.920294789445400774e+00,1.135093699998748651e+00
8.383333333333332860e+00,1.642706820253854990e+09,3.971569549094345342e-01,1.637691662461174147e+00,3.229478288624577420e+00,-3.137668216029035673e+00,-1.038388404415924171e-02,4.939281002632824880e+00,1.143229283118274653e+00
8.400000000000000355e+00,1.642706820270608187e+09,3.939074221258421216e-01,1.544244013505079227e+00,3.104881423349784342e+00,-3.137668216029035673e+00,9.378056676192292329e-02,4.958403165391460199e+00,1.151407530030756021e+00
8.416666666666666075e+00,1.642706820285921097e+09,3.904083547072697002e-01,1.574776413659051189e+00,3.145591290221746661e+00,-3.137668216029035673e+00,2.024899871467349399e-01,4.977679734831490066e+00,1.161752067270822808e+00
8.433333333333333570e+00,1.642706820304134607e+09,3.866860925939482607e-01,1.669149286862236181e+00,3.271421787825993466e+00,-3.137668216029035673e+00,3.149290744046987500e-01,4.997155849404047778e+00,1.175343925386047372e+00
8.449999999999999289e+00,1.642706820323536873e+09,3.827659028456837920e-01,1.842166221068075371e+00,3.502111033433779053e+00,-3.137668216029035673e+00,4.302383795923749865e-01,5.016896441395019224e+00,1.193476743406083562e+00
8.466666666666666785e+00,1.642706820338461399e+09,3.786716957934870287e-01,1.743777864256471188e+00,3.360243315546638243e+00,-3.105618489614029976e+00,5.475208304770167178e-01,5.036939352167486561e+00,1.211622144212508134e+00
8.483333333333332504e+00,1.642706820357430935e+09,3.744257630696233852e-01,1.604679640572904908e+00,3.164095775163548119e+00,-3.073568763199024723e+00,6.658485970075249671e-01,5.057279311209008199e+00,1.229124322463993835e+00
8.500000000000000000e+00,1.642706820371626377e+09,3.700485402619108077e-01,1.210534111312542738e+00,2.638568402816398706e+00,-3.073568763199024723e+00,7.842702458265848886e-01,5.077870472691849990e+00,1.241779900266804404e+00
8.516666666666665719e+00,1.642706820390502214e+09,3.655583966611468671e-01,1.288863585695138703e+00,2.732324459854857945e+00,-3.041519036784018581e+00,9.018181279079646728e-01,5.098697867154895924e+00,1.257463867697143467e+00
8.533333333333333215e+00,1.642706820404797792e+09,3.609714542685449334e-01,1.286402499573927161e+00,2.739726253831577640e+00,-3.073568763199024723e+00,1.017515941406078595e+00,5.119800135110994077e+00,1.274760240424045232e+00
8.550000000000000711e+00,1.642706820422773361e+09,3.563014379062322545e-01,1.459104847159707452e+00,2.959312808474282797e+00,-3.041519036784018581e+00,1.130386410266881470e+00,5.141227730422142983e+00,1.296490832736673093e+00
8.566666666666666430e+00,1.642706820439979792e+09,3.515595579314660379e-01,1.720018084839101791e+00,3.307197125380142211e+00,-3.041519036784018581e+00,1.239459018078113761e+00,5.163065603461173936e+00,1.323977578079595929e+00
8.583333333333333925e+00,1.642706820457052231e+09,3.467544266978773715e-01,1.769980194181964173e+00,3.373813271170625239e+00,-3.041519036784018581e+00,1.343777736046057214e+00,5.185379101784454825e+00,1.353560045260115530e+00
8.599999999999999645e+00,1.642706820472592592e+09,3.418920095383887192e-01,1.946698025376164098e+00,3.609437046096225288e+00,-3.041519036784018581e+00,1.442408683877212106e+00,5.208219586593033412e+00,1.387204672272426720e+00
8.616666666666667140e+00,1.642706820490540028e+09,3.369756106682872954e-01,1.765354072946514252e+00,3.367645109523358826e+00,-3.041519036784018581e+00,1.534447662719741645e+00,5.231603833324967034e+00,1.418817121134930304e+00
8.633333333333332860e+00,1.642706820508257866e+09,3.320058940271817249e-01,1.477294745481449567e+00,2.972882764098270680e+00,-3.009469310369013773e+00,1.619027500178563894e+00,5.255482483188708365e+00,1.446543842032188998e+00
8.650000000000000355e+00,1.642706820524679661e+09,3.269809386990492617e-01,1.272820186874548565e+00,2.700250019289069048e+00,-3.009469310369013773e+00,1.695325148752365951e+00,5.279801711580108581e+00,1.471693702567903772e+00
8.666666666666666075e+00,1.642706820541110516e+09,3.218963281742940885e-01,1.318156174981961026e+00,2.760698003432286107e+00,-3.009469310369013773e+00,1.762568480842059415e+00,5.304552180114364468e+00,1.498288644964048455e+00
8.683333333333333570e+00,1.642706820556598186e+09,3.167452723504545209e-01,1.392174114749164637e+00,2.859388589788557589e+00,-3.009469310369013773e+00,1.820042725732617495e+00,5.329760386147997409e+00,1.526617386271778232e+00
8.699999999999999289e+00,1.642706820577020645e+09,3.115187608127977237e-01,1.623480176521677532e+00,3.167796672151907522e+00,-3.009469310369013773e+00,1.867096496638366077e+00,5.355475272289191402e+00,1.559078778016585121e+00
8.716666666666666785e+00,1.642706820591164827e+09,3.062057455960092156e-01,1.685470201076710861e+00,3.250450038225285443e+00,-3.009469310369013773e+00,1.903147359003475980e+00,5.381740239498728151e+00,1.592624103475051900e+00
8.733333333333332504e+00,1.642706820609048605e+09,3.007933513072698073e-01,1.479755831602660887e+00,2.965480970121550097e+00,-2.977419583954007631e+00,1.927686894741420298e+00,5.408534638210378276e+00,1.622620416869136273e+00
