# 
# 
# 
# 
# 
# 
# 
# 
# 
# 
# time,realtime,ref,inp,inp0,inp1,dis,state...
0.000000000000000000e+00,1.642706699410054207e+09,-0.000000000000000000e+00,8.012431603754229968e-04,0.000000000000000000e+00,3.204972641501691987e-03,-0.000000000000000000e+00,0.000000000000000000e+00,0.000000000000000000e+00
1.666666666666666644e-02,1.642706699415037155e+09,-1.989867912377870993e-06,8.012431603754229968e-04,0.000000000000000000e+00,3.204972641501691987e-03,0.000000000000000000e+00,1.106681051083093543e-07,1.324338456781540785e-05
3.333333333333333287e-02,1.642706699422056437e+09,-7.919757644119849289e-06,-7.211188443376101778e-03,0.000000000000000000e+00,-2.884475377350440711e-02,-1.142399897115739989e-05,-6.680288360585613101e-07,-1.063547925301387025e-04
5.000000000000000278e-02,1.642706699437024117e+09,-1.774150828134864571e-05,-7.211188443376101778e-03,0.000000000000000000e+00,-2.884475377350440711e-02,-4.964693619178685242e-05,-3.428789140122243891e-06,-2.246079552188731427e-04
6.666666666666666574e-02,1.642706699453924417e+09,-3.142211321506751403e-05,-7.211188443376101778e-03,0.000000000000000000e+00,-2.884475377350440711e-02,-1.197429639344158416e-04,-8.153784001490387668e-06,-3.420651504793469858e-04
8.333333333333332871e-02,1.642706699469987869e+09,-4.894283042971107336e-05,-7.211188443376101778e-03,0.000000000000000000e+00,-2.884475377350440711e-02,-2.255844649751789386e-04,-1.483479441838490671e-05,-4.593303552016404887e-04
1.000000000000000056e-01,1.642706699485011101e+09,-7.029733303044807542e-05,-7.211188443376101778e-03,0.000000000000000000e+00,-2.884475377350440711e-02,-3.697820664146926248e-04,-2.347394483005738991e-05,-5.770407132864812218e-04
1.166666666666666685e-01,1.642706699503938675e+09,-9.548894126235435941e-05,-7.211188443376101778e-03,0.000000000000000000e+00,-2.884475377350440711e-02,-5.536514604261689272e-04,-3.408407246219751852e-05,-6.958445840510456325e-04
1.333333333333333315e-01,1.642706699520762444e+09,-1.245269981336508114e-04,8.012431603754229968e-04,0.000000000000000000e+00,3.204972641501691987e-03,-7.772074323097265649e-04,-4.558205196847250592e-05,-6.839460090770090560e-04
1.499999999999999944e-01,1.642706699538786411e+09,-1.574224704600165367e-04,8.012431603754229968e-04,0.000000000000000000e+00,3.204972641501691987e-03,-1.039185079917799570e-03,-5.691954981236627749e-05,-6.765742098921548623e-04
1.666666666666666574e-01,1.642706699554770947e+09,-1.941828753553875592e-04,-7.211188443376101778e-03,0.000000000000000000e+00,-2.884475377350440711e-02,-1.337087792630724118e-03,-6.928303005550170101e-05,-8.066820002491331514e-04
1.833333333333333204e-01,1.642706699571697235e+09,-2.348066485878080823e-04,8.012431603754229968e-04,0.000000000000000000e+00,3.204972641501691987e-03,-1.667261147978655982e-03,-8.273592557583421081e-05,-8.076627378555211552e-04
2.000000000000000111e-01,1.642706699588651896e+09,-2.792770855060088247e-04,-7.211188443376101778e-03,0.000000000000000000e+00,-2.884475377350440711e-02,-2.024991485035440488e-03,-9.736112220670644301e-05,-9.469738733648413185e-04
2.166666666666666741e-01,1.642706699607634306e+09,-3.275559971653221468e-04,8.012431603754229968e-04,0.000000000000000000e+00,3.204972641501691987e-03,-2.404627531033931131e-03,-1.132346838415366000e-04,-9.578233845743196629e-04
2.333333333333333370e-01,1.642706699622561932e+09,-3.795772336186243115e-04,-7.211188443376101778e-03,0.000000000000000000e+00,-2.884475377350440711e-02,-2.799723096264408826e-03,-1.304488239709832085e-04,-1.107457770105548184e-03
2.500000000000000000e-01,1.642706699640514374e+09,-4.352402329076522983e-04,-7.211188443376101778e-03,0.000000000000000000e+00,-2.884475377350440711e-02,-3.203198516965046275e-03,-1.501919311763872582e-04,-1.261287778905829850e-03
2.666666666666666630e-01,1.642706699657467604e+09,-4.944037579536243732e-04,-7.211188443376101778e-03,0.000000000000000000e+00,-2.884475377350440711e-02,-3.607518221039401288e-03,-1.725334696234943855e-04,-1.419258018198981015e-03
2.833333333333333259e-01,1.642706699672453642e+09,-5.568799842102069644e-04,-1.522362004712732655e-02,0.000000000000000000e+00,-6.089448018850930622e-02,-4.004881521128511070e-03,-1.986475915322440968e-04,-1.713618922427828650e-03
2.999999999999999889e-01,1.642706699690382481e+09,-6.224290985600258903e-04,-7.211188443376101778e-03,0.000000000000000000e+00,-2.884475377350440711e-02,-4.387423507506875604e-03,-2.285732270754582446e-04,-1.877003486065997482e-03
3.166666666666666519e-01,1.642706699706337214e+09,-6.907545645096665717e-04,-7.211188443376101778e-03,0.000000000000000000e+00,-2.884475377350440711e-02,-4.747422722695717780e-03,-2.612490951930857464e-04,-2.043637804049567002e-03
3.333333333333333148e-01,1.642706699725321293e+09,-7.614992003170007340e-04,-7.211188443376101778e-03,0.000000000000000000e+00,-2.884475377350440711e-02,-5.077512153337414985e-03,-2.967247784454924743e-04,-2.212973797409052007e-03
3.499999999999999778e-01,1.642706699740247011e+09,-8.342422053665276161e-04,-7.211188443376101778e-03,0.000000000000000000e+00,-2.884475377350440711e-02,-5.370889974972114546e-03,-3.350398609731052848e-04,-2.384360021853909606e-03
3.666666666666666408e-01,1.642706699758213758e+09,-9.084972560374106462e-04,-7.211188443376101778e-03,0.000000000000000000e+00,-2.884475377350440711e-02,-5.621526433570232621e-03,-3.762223266566839109e-04,-2.557056137452769912e-03
3.833333333333333037e-01,1.642706699775179625e+09,-9.837117756747574583e-04,-7.211188443376101778e-03,0.000000000000000000e+00,-2.884475377350440711e-02,-5.824363245096420526e-03,-4.202872239815376725e-04,-2.730250434935791413e-03
4.000000000000000222e-01,1.642706699793157339e+09,-1.059267464309483894e-03,-7.211188443376101778e-03,0.000000000000000000e+00,-2.884475377350440711e-02,-5.975501941515424034e-03,-4.672356466004843993e-04,-2.903080185398369990e-03
4.166666666666666852e-01,1.642706699810105324e+09,-1.134482152747787100e-03,-7.211188443376101778e-03,0.000000000000000000e+00,-2.884475377350440711e-02,-6.072377688401580861e-03,-5.170540742556013151e-04,-3.074654526606214380e-03
4.333333333333333481e-01,1.642706699827179432e+09,-1.208613022875802039e-03,-7.211188443376101778e-03,0.000000000000000000e+00,-2.884475377350440711e-02,-6.113915244981819701e-03,-5.697141135186049171e-04,-3.244079548815843005e-03
4.500000000000000111e-01,1.642706699844136000e+09,-1.280861211838269257e-03,-7.211188443376101778e-03,0.000000000000000000e+00,-2.884475377350440711e-02,-6.100663930729369536e-03,-6.251726718050265499e-04,-3.410485196764512662e-03
4.666666666666666741e-01,1.642706699862054586e+09,-1.350377792519133697e-03,-7.211188443376101778e-03,0.000000000000000000e+00,-2.884475377350440711e-02,-6.034908701644199625e-03,-6.833725913810819244e-04,-3.573053562938795485e-03
4.833333333333333370e-01,1.642706699878045082e+09,-1.416271096866421331e-03,-7.211188443376101778e-03,0.000000000000000000e+00,-2.884475377350440711e-02,-5.920754721650396853e-03,-7.442437626981794705e-04,-3.731048111038806452e-03
5.000000000000000000e-01,1.642706699893968821e+09,-1.477615322469232571e-03,-7.211188443376101778e-03,0.000000000000000000e+00,-2.884475377350440711e-02,-5.764183137104529966e-03,-8.077047284524099553e-04,-3.883843338292586322e-03
5.166666666666666075e-01,1.642706699912916899e+09,-1.533460336828814134e-03,-7.211188443376101778e-03,0.000000000000000000e+00,-2.884475377350440711e-02,-5.573076121721472036e-03,-8.736647813781864540e-04,-4.030954361451769344e-03
5.333333333333333259e-01,1.642706699929907084e+09,-1.582842568390190052e-03,-1.522362004712732655e-02,0.000000000000000000e+00,-6.089448018850930622e-02,-5.357209651282699575e-03,-9.431332311085010136e-04,-4.304499740028288474e-03
5.500000000000000444e-01,1.642706699948877811e+09,-1.624796849036866820e-03,-1.522362004712732655e-02,0.000000000000000000e+00,-6.089448018850930622e-02,-5.128212887855462809e-03,-1.017091359110349879e-03,-4.569738827609486423e-03
5.666666666666666519e-01,1.642706699965829134e+09,-1.658369049813014640e-03,-1.522362004712732655e-02,0.000000000000000000e+00,-6.089448018850930622e-02,-4.899493497084960424e-03,-1.095401912780384450e-03,-4.826813499676322998e-03
5.833333333333333703e-01,1.642706699982730865e+09,-1.682629330525193959e-03,-1.522362004712732655e-02,0.000000000000000000e+00,-6.089448018850930622e-02,-4.686128684253556935e-03,-1.177932066981809663e-03,-5.076112490997912279e-03
5.999999999999999778e-01,1.642706699999909163e+09,-1.696685804970965612e-03,-7.211188443376101778e-03,0.000000000000000000e+00,-2.884475377350440711e-02,-4.504722209770036477e-03,-1.263451034066998858e-03,-5.185858701465159183e-03
6.166666666666666963e-01,1.642706700016855478e+09,-1.699698407200472047e-03,-7.211188443376101778e-03,0.000000000000000000e+00,-2.884475377350440711e-02,-4.373228126878286361e-03,-1.350765784430284699e-03,-5.291617560606112942e-03
6.333333333333333037e-01,1.642706700034828186e+09,-1.690892730764746938e-03,-7.211188443376101778e-03,0.000000000000000000e+00,-2.884475377350440711e-02,-4.310742467808515235e-03,-1.439819944429115376e-03,-5.394595582460358883e-03
6.500000000000000222e-01,1.642706700052103281e+09,-1.669573602630620686e-03,-1.522362004712732655e-02,0.000000000000000000e+00,-6.089448018850930622e-02,-4.337264583397837381e-03,-1.531686525715343639e-03,-5.628743745016216542e-03
6.666666666666666297e-01,1.642706700067981243e+09,-1.635138146595866695e-03,-1.522362004712732655e-02,0.000000000000000000e+00,-6.089448018850930622e-02,-4.473430309401885650e-03,-1.627442042994475813e-03,-5.861272400345904701e-03
6.833333333333333481e-01,1.642706700082342386e+09,-1.587088087822897129e-03,-1.522362004712732655e-02,0.000000000000000000e+00,-6.089448018850930622e-02,-4.740219584373272371e-03,-1.727077769956316192e-03,-6.094367333909074709e-03
6.999999999999999556e-01,1.642706700099853992e+09,-1.525041050681369241e-03,-7.211188443376101778e-03,0.000000000000000000e+00,-2.884475377350440711e-02,-5.158641573261929514e-03,-1.829517328891814513e-03,-6.198091608584210127e-03
7.166666666666666741e-01,1.642706700116134882e+09,-1.448740606551963614e-03,-7.211188443376101778e-03,0.000000000000000000e+00,-2.884475377350440711e-02,-5.749400752139050691e-03,-1.933752895242549751e-03,-6.309865862158727662e-03
7.333333333333332815e-01,1.642706700135152102e+09,-1.358064836645745494e-03,-1.522362004712732655e-02,0.000000000000000000e+00,-6.089448018850930622e-02,-6.532547777239287347e-03,-2.041050777212808417e-03,-6.565170777261246197e-03
7.500000000000000000e-01,1.642706700153100491e+09,-1.253033187229214522e-03,-1.522362004712732655e-02,0.000000000000000000e+00,-6.089448018850930622e-02,-7.527119290738202260e-03,-2.152705848972885465e-03,-6.832694694465594673e-03
7.666666666666666075e-01,1.642706700170204878e+09,-1.133811410850792166e-03,-1.522362004712732655e-02,0.000000000000000000e+00,-6.089448018850930622e-02,-8.750771101580177500e-03,-2.268951713548118115e-03,-7.116022015702153612e-03
7.833333333333333259e-01,1.642706700186050177e+09,-1.000714407120929187e-03,-1.522362004712732655e-02,0.000000000000000000e+00,-6.089448018850930622e-02,-1.021940941791631315e-02,-2.390083415890039299e-03,-7.418940804444293033e-03
8.000000000000000444e-01,1.642706700203240871e+09,-8.542068001269865173e-04,-1.522362004712732655e-02,0.000000000000000000e+00,-6.089448018850930622e-02,-1.194682499444956782e-02,-2.516460516918108455e-03,-7.745404454109172145e-03
8.166666666666666519e-01,1.642706700222010612e+09,-6.949011164345915079e-04,-1.522362004712732655e-02,0.000000000000000000e+00,-6.089448018850930622e-02,-1.394433518989019426e-02,-2.648509484556632512e-03,-8.099488073754273695e-03
8.333333333333333703e-01,1.642706700236724615e+09,-5.235534575538337496e-04,-1.522362004712732655e-02,0.000000000000000000e+00,-6.089448018850930622e-02,-1.622043900404393502e-02,-2.786725316244206482e-03,-8.485339892919553997e-03
8.499999999999999778e-01,1.642706700254076719e+09,-3.410565933961645169e-04,-1.522362004712732655e-02,0.000000000000000000e+00,-6.089448018850930622e-02,-1.878049017864753811e-02,-2.931672313084371113e-03,-8.907128066508970474e-03
8.666666666666666963e-01,1.642706700269522190e+09,-1.484304382337210270e-04,-1.522362004712732655e-02,0.000000000000000000e+00,-6.089448018850930622e-02,-2.162639339942634339e-02,-3.083983932797573768e-03,-9.368983337571662462e-03
8.833333333333333037e-01,1.642706700287654400e+09,5.319009242649099141e-05,-1.522362004712732655e-02,0.000000000000000000e+00,-6.089448018850930622e-02,-2.475632852815729326e-02,-3.244361656883057790e-03,-9.874938089740922798e-03
9.000000000000000222e-01,1.642706700305648804e+09,2.625698072891397656e-04,-1.522362004712732655e-02,0.000000000000000000e+00,-6.089448018850930622e-02,-2.816450762262243113e-02,-3.413572816845646812e-03,-1.042886239094082887e-02
9.166666666666666297e-01,1.642706700317926645e+09,4.783904709617854451e-04,-1.522362004712732655e-02,0.000000000000000000e+00,-6.089448018850930622e-02,-3.184096926980914399e-02,-3.592447334911185071e-03,-1.103439769482423248e-02
9.333333333333333481e-01,1.642706700336800575e+09,6.992704260665752415e-04,-1.522362004712732655e-02,0.000000000000000000e+00,-6.089448018850930622e-02,-3.577141446480660431e-02,-3.781873346254641544e-03,-1.169488892534634172e-02
9.499999999999999556e-01,1.642706700354791403e+09,9.237864503002698449e-04,-1.522362004712732655e-02,0.000000000000000000e+00,-6.089448018850930622e-02,-3.993708791654358020e-02,-3.982791682290845632e-03,-1.241331572203798611e-02
9.666666666666666741e-01,1.642706700370351791e+09,1.150497653976715554e-03,-1.522362004712732655e-02,0.000000000000000000e+00,-6.089448018850930622e-02,-4.431470825445901762e-02,-4.196189207909655980e-03,-1.319222366811228023e-02
9.833333333333332815e-01,1.642706700387453318e+09,1.377971185803995207e-03,-7.211188443376101778e-03,0.000000000000000000e+00,-2.884475377350440711e-02,-4.887645015075064991e-02,-4.421984338491351599e-03,-1.390122251409936331e-02
1.000000000000000000e+00,1.642706700406182528e+09,1.604809478634099161e-03,-7.211188443376101778e-03,0.000000000000000000e+00,-2.884475377350440711e-02,-5.358998086496338797e-02,-4.660149224445950256e-03,-1.467641044995042325e-02
1.016666666666666607e+00,1.642706700422129631e+09,1.829678733223149027e-03,-1.522362004712732655e-02,0.000000000000000000e+00,-6.089448018850930622e-02,-5.841855316599479930e-02,-4.912900445853523798e-03,-1.565102878209488624e-02
1.033333333333333215e+00,1.642706700439202785e+09,2.051338307186797473e-03,-1.522362004712732655e-02,0.000000000000000000e+00,-6.089448018850930622e-02,-6.332115599625257052e-02,-5.182437841309002306e-03,-1.669057098736240544e-02
1.050000000000000044e+00,1.642706700455832481e+09,2.268670648830854904e-03,-7.211188443376101778e-03,0.000000000000000000e+00,-2.884475377350440711e-02,-6.825272361943372779e-02,-5.468731827627254169e-03,-1.766200886875765250e-02
1.066666666666666652e+00,1.642706700474136591e+09,2.480711391861946998e-03,-1.522362004712732655e-02,0.000000000000000000e+00,-6.089448018850930622e-02,-7.316440334337365181e-02,-5.772867354522535563e-03,-1.883100706503738897e-02
1.083333333333333259e+00,1.642706700490143299e+09,2.686679207568657551e-03,-1.522362004712732655e-02,0.000000000000000000e+00,-6.089448018850930622e-02,-7.800388123924785477e-02,-6.096993153176717174e-03,-2.006067295448946131e-02
1.100000000000000089e+00,1.642706700507118940e+09,2.886004996305586382e-03,-1.522362004712732655e-02,0.000000000000000000e+00,-6.089448018850930622e-02,-8.271576459505128320e-02,-6.442094348935745521e-03,-2.134789483610007726e-02
1.116666666666666696e+00,1.642706700525097370e+09,3.078359990351384797e-03,-1.522362004712732655e-02,0.000000000000000000e+00,-6.089448018850930622e-02,-8.724201915198126489e-02,-6.809096619530916744e-03,-2.268865321882338262e-02
1.133333333333333304e+00,1.642706700541054249e+09,3.263682335731051421e-03,-1.522362004712732655e-02,0.000000000000000000e+00,-6.089448018850930622e-02,-9.152245848455436983e-02,-7.198850893371085136e-03,-2.407800025384457601e-02
1.149999999999999911e+00,1.642706700557982206e+09,3.442201721617364155e-03,-7.211188443376101778e-03,0.000000000000000000e+00,-2.884475377350440711e-02,-9.549528220660638556e-02,-7.611011101166284543e-03,-2.537761455688241838e-02
1.166666666666666741e+00,1.642706700574962139e+09,3.614461632613035109e-03,-7.211188443376101778e-03,0.000000000000000000e+00,-2.884475377350440711e-02,-9.909765902339510990e-02,-8.045149606052858643e-03,-2.671529017644203030e-02
1.183333333333333348e+00,1.642706700590919733e+09,3.781338811653106244e-03,-7.211188443376101778e-03,0.000000000000000000e+00,-2.884475377350440711e-02,-1.022663500124931790e-01,-8.501835605355225270e-03,-2.808322981807081717e-02
1.199999999999999956e+00,1.642706700609437943e+09,3.944059539472236607e-03,-1.522362004712732655e-02,0.000000000000000000e+00,-6.089448018850930622e-02,-1.049383669105438954e-01,-8.982607399537174270e-03,-2.960515780651672146e-02
1.216666666666666563e+00,1.642706700629055977e+09,4.104212360498210588e-03,-1.522362004712732655e-02,0.000000000000000000e+00,-6.089448018850930622e-02,-1.070516596166092710e-01,-9.488826339783092839e-03,-3.113686019399974567e-02
1.233333333333333393e+00,1.642706700644677639e+09,4.263756914528113451e-03,-1.522362004712732655e-02,0.000000000000000000e+00,-6.089448018850930622e-02,-1.085458266028450913e-01,-1.002056846874537985e-02,-3.266794217587033061e-02
1.250000000000000000e+00,1.642706700660451412e+09,4.425028568412996480e-03,-1.522362004712732655e-02,0.000000000000000000e+00,-6.089448018850930622e-02,-1.093628414563285883e-01,-1.057773000343077176e-02,-3.418722166624253711e-02
1.266666666666666607e+00,1.642706700677330971e+09,4.590738581937476095e-03,-1.522362004712732655e-02,0.000000000000000000e+00,-6.089448018850930622e-02,-1.094477883683637742e-01,-1.116001475222428915e-02,-3.568279372437387076e-02
1.283333333333333215e+00,1.642706700697011471e+09,4.763969586785828103e-03,-1.522362004712732655e-02,0.000000000000000000e+00,-6.089448018850930622e-02,-1.087495990453109379e-01,-1.176692269857006895e-02,-3.714210609623539577e-02
1.300000000000000044e+00,1.642706700714387894e+09,4.948166206509855593e-03,-1.522362004712732655e-02,0.000000000000000000e+00,-6.089448018850930622e-02,-1.072217832431982681e-01,-1.239773993414632763e-02,-3.855204558216455968e-02
1.316666666666666652e+00,1.642706700730346680e+09,5.147120698275423414e-03,-1.522362004712732655e-02,0.000000000000000000e+00,-6.089448018850930622e-02,-1.048231449316914116e-01,-1.305153011848898641e-02,-3.989903481413554359e-02
1.333333333333333259e+00,1.642706700746325731e+09,5.364953553313736405e-03,-1.522362004712732655e-02,0.000000000000000000e+00,-6.089448018850930622e-02,-1.015184759753768040e-01,-1.372712763401448544e-02,-4.116913889898511647e-02
1.350000000000000089e+00,1.642706700763229609e+09,5.606089051842358395e-03,-1.522362004712732655e-02,0.000000000000000000e+00,-6.089448018850930622e-02,-9.727921918493460940e-02,-1.442313259528103624e-02,-4.234818125825293156e-02
1.366666666666666696e+00,1.642706700780184269e+09,5.875225829096776022e-03,-1.522362004712732655e-02,0.000000000000000000e+00,-6.089448018850930622e-02,-9.208409264006214845e-02,-1.513790785914581778e-02,-4.342186787250797153e-02
1.383333333333333304e+00,1.642706700798162222e+09,6.177302571337243108e-03,-1.522362004712732655e-02,0.000000000000000000e+00,-6.089448018850930622e-02,-8.591966732152563069e-02,-1.586957816828308415e-02,-4.437591901951492418e-02
1.399999999999999911e+00,1.642706700815115213e+09,6.517459023537463397e-03,-7.211188443376101778e-03,0.000000000000000000e+00,-2.884475377350440711e-02,-7.878089031218968308e-02,-1.661492486335634094e-02,-4.506377363703443356e-02
1.416666666666666741e+00,1.642706700831115723e+09,6.900992553175385597e-03,-7.211188443376101778e-03,0.000000000000000000e+00,-2.884475377350440711e-02,-7.067154613613670089e-02,-1.737052072856800494e-02,-4.560622334814798395e-02
1.433333333333333348e+00,1.642706700848395586e+09,7.333310576356729706e-03,-1.522362004712732655e-02,0.000000000000000000e+00,-6.089448018850930622e-02,-6.160464919997622746e-02,-1.813493685559560212e-02,-4.612227837523878021e-02
1.449999999999999956e+00,1.642706700866396189e+09,7.819879212637719998e-03,-1.522362004712732655e-02,0.000000000000000000e+00,-6.089448018850930622e-02,-5.160276077918824617e-02,-1.890650115614420784e-02,-4.646448708846209752e-02
1.466666666666666563e+00,1.642706700880312204e+09,8.366168592593151848e-03,-1.522362004712732655e-02,0.000000000000000000e+00,-6.089448018850930622e-02,-4.069822455197593530e-02,-1.968221552922356024e-02,-4.662080345870113496e-02
1.483333333333333393e+00,1.642706700899288416e+09,8.977595296640539929e-03,-7.211188443376101778e-03,0.000000000000000000e+00,-2.884475377350440711e-02,-2.893331531987480831e-02,-2.045778192846060481e-02,-4.644764545551827162e-02
1.500000000000000000e+00,1.642706700915946007e+09,9.659462454130100448e-03,-1.522362004712732655e-02,0.000000000000000000e+00,-6.089448018850930622e-02,-1.636029626363007250e-02,-2.122985636703319384e-02,-4.620196962212497205e-02
1.516666666666666607e+00,1.642706700933898449e+09,1.041689807753314045e-02,-7.211188443376101778e-03,0.000000000000000000e+00,-2.884475377350440711e-02,-3.041380859176399509e-03,-2.199492384495875530e-02,-4.560777829924195226e-02
1.533333333333333215e+00,1.642706700950853109e+09,1.125479224703113644e-02,-1.522362004712732655e-02,0.000000000000000000e+00,-6.089448018850930622e-02,1.095140358434164816e-02,-2.274934419485334994e-02,-4.492456155706045506e-02
1.550000000000000044e+00,1.642706700966078520e+09,1.217773379529522165e-02,-7.211188443376101778e-03,0.000000000000000000e+00,-2.884475377350440711e-02,2.553645291168098186e-02,-2.348935078994056000e-02,-4.387913388750149662e-02
1.566666666666666652e+00,1.642706700984622478e+09,1.318994717018429595e-02,-1.522362004712732655e-02,0.000000000000000000e+00,-6.089448018850930622e-02,4.062292484394314229e-02,-2.421110091554656146e-02,-4.273406201528189702e-02
1.583333333333333259e+00,1.642706701000979900e+09,1.429523017397026259e-02,-1.522362004712732655e-02,0.000000000000000000e+00,-6.089448018850930622e-02,5.611117967181913219e-02,-2.491178542236223425e-02,-4.135191818138803099e-02
1.600000000000000089e+00,1.642706701019247293e+09,1.549689329108983743e-02,-1.522362004712732655e-02,0.000000000000000000e+00,-6.089448018850930622e-02,7.189332215149936423e-02,-2.558744526361486638e-02,-3.973176330506252713e-02
1.616666666666666696e+00,1.642706701035317898e+09,1.679770132196987259e-02,-7.211188443376101778e-03,0.000000000000000000e+00,-2.884475377350440711e-02,8.785384281198453660e-02,-2.623301514406678817e-02,-3.774214918513379979e-02
1.633333333333333304e+00,1.642706701053784609e+09,1.819981803790754124e-02,-7.211188443376101778e-03,0.000000000000000000e+00,-2.884475377350440711e-02,1.038703558496494178e-01,-2.684348738690902833e-02,-3.552069081885367297e-02
1.649999999999999911e+00,1.642706701071241617e+09,1.970475456112998763e-02,-7.211188443376101778e-03,0.000000000000000000e+00,-2.884475377350440711e-02,1.198144297533072222e-01,-2.741503994914138570e-02,-3.307241756812246553e-02
1.666666666666666741e+00,1.642706701087249756e+09,2.131332215492496782e-02,-1.522362004712732655e-02,0.000000000000000000e+00,-6.089448018850930622e-02,1.355525057809748024e-01,-2.794505904405519478e-02,-3.053691704431120077e-02
1.683333333333333348e+00,1.642706701105307579e+09,2.302559008113658559e-02,-1.522362004712732655e-02,0.000000000000000000e+00,-6.089448018850930622e-02,1.509468984084321730e-01,-2.843104372031191041e-02,-2.778887772869940639e-02
1.699999999999999956e+00,1.642706701120338678e+09,2.484084914647071568e-02,-1.522362004712732655e-02,0.000000000000000000e+00,-6.089448018850930622e-02,1.658568708998545138e-01,-2.886954792902973049e-02,-2.483981933910280049e-02
1.716666666666666563e+00,1.642706701138688326e+09,2.675758151516238054e-02,-1.522362004712732655e-02,0.000000000000000000e+00,-6.089448018850930622e-02,1.801397782226183131e-01,-2.925733572771769403e-02,-2.170342890415665263e-02
1.733333333333333393e+00,1.642706701156071663e+09,2.877343731393316312e-02,-1.522362004712732655e-02,0.000000000000000000e+00,-6.089448018850930622e-02,1.936522686518676595e-01,-2.959141720038130016e-02,-1.839553662141403881e-02
1.750000000000000000e+00,1.642706701171496868e+09,3.088521849621755910e-02,-1.522362004712732655e-02,0.000000000000000000e+00,-6.089448018850930622e-02,2.062515345954728241e-01,-2.986908380583302991e-02,-1.493407144015655025e-02
1.766666666666666607e+00,1.642706701188518286e+09,3.308887036686657124e-02,-1.522362004712732655e-02,0.000000000000000000e+00,-6.089448018850930622e-02,2.177966024259024858e-01,-3.008794281369907980e-02,-1.133899605931091431e-02
1.783333333333333215e+00,1.642706701208464861e+09,3.537948109653283463e-02,-1.522362004712732655e-02,0.000000000000000000e+00,-6.089448018850930622e-02,2.281496504412748316e-01,-3.024595048399872366e-02,-7.632221215775480613e-03
1.800000000000000044e+00,1.642706701224334717e+09,3.775128947739033597e-02,-7.211188443376101778e-03,0.000000000000000000e+00,-2.884475377350440711e-02,2.371773435016486520e-01,-3.034033696464259744e-02,-3.705065484160397112e-03
1.816666666666666652e+00,1.642706701238695860e+09,4.019770108949238807e-02,-7.211188443376101778e-03,0.000000000000000000e+00,-2.884475377350440711e-02,2.447521724061874904e-01,-3.036876703132082578e-02,2.823809818980208344e-04
1.833333333333333259e+00,1.642706701257932901e+09,4.271131296075925121e-02,-1.522362004712732655e-02,0.000000000000000000e+00,-6.089448018850930622e-02,2.507537856988975022e-01,-3.033156814022205591e-02,4.170684851662086363e-03
1.849999999999999867e+00,1.642706701273387909e+09,4.528394671420041956e-02,-1.522362004712732655e-02,0.000000000000000000e+00,-6.089448018850930622e-02,2.550703013213032055e-01,-3.022950503980627660e-02,8.066066439149238015e-03
1.866666666666666696e+00,1.642706701292887926e+09,4.790669010446956672e-02,-1.522362004712732655e-02,0.000000000000000000e+00,-6.089448018850930622e-02,2.575995853746230191e-01,-3.006270759900544001e-02,1.193886842047332981e-02
1.883333333333333304e+00,1.642706701307648420e+09,5.056994675320485716e-02,-1.522362004712732655e-02,0.000000000000000000e+00,-6.089448018850930622e-02,2.582504852159042130e-01,-2.983180846924708696e-02,1.575841704352792805e-02
1.899999999999999911e+00,1.642706701325109720e+09,5.326349379986069360e-02,-1.522362004712732655e-02,0.000000000000000000e+00,-6.089448018850930622e-02,2.569440041950699638e-01,-2.953795820554331458e-02,1.949323984895653256e-02
1.916666666666666741e+00,1.642706701342986345e+09,5.597654709292822217e-02,-1.522362004712732655e-02,0.000000000000000000e+00,-6.089448018850930622e-02,2.536144055449093271e-01,-2.918283663649878790e-02,2.311129803820837283e-02
1.933333333333333348e+00,1.642706701359300852e+09,5.869783345663372870e-02,-1.522362004712732655e-02,0.000000000000000000e+00,-6.089448018850930622e-02,2.482102332643885412e-01,-2.876866025260771398e-02,2.658023187460498496e-02
1.949999999999999956e+00,1.642706701375845671e+09,6.141566948145652655e-02,-1.522362004712732655e-02,0.000000000000000000e+00,-6.089448018850930622e-02,2.406952382869352314e-01,-2.829818541050512989e-02,2.986761733649919912e-02
1.966666666666666563e+00,1.642706701390698671e+09,6.411804620415832712e-02,-7.211188443376101778e-03,0.000000000000000000e+00,-2.884475377350440711e-02,2.310491987978639805e-01,-2.777360050076085884e-02,3.307366593266305999e-02
1.983333333333333393e+00,1.642706701408843756e+09,6.679271896548939769e-02,-1.522362004712732655e-02,0.000000000000000000e+00,-6.089448018850930622e-02,2.192686242561868448e-01,-2.719875808866396502e-02,3.589957359071715981e-02
2.000000000000000000e+00,1.642706701427881241e+09,6.942730166231093902e-02,-7.211188443376101778e-03,0.000000000000000000e+00,-2.884475377350440711e-02,2.053673334816048801e-01,-2.657802090354232857e-02,3.858143882289933463e-02
2.016666666666666607e+00,1.642706701443856955e+09,7.200936454647370588e-02,-1.522362004712732655e-02,0.000000000000000000e+00,-6.089448018850930622e-02,1.893768980824194481e-01,-2.591627167308221610e-02,4.082224422636075711e-02
2.033333333333333215e+00,1.642706701461857080e+09,7.452653466629477474e-02,-7.211188443376101778e-03,0.000000000000000000e+00,-2.884475377350440711e-02,1.713469435181335654e-01,-2.521886881232793254e-02,4.286043728351909832e-02
2.049999999999999822e+00,1.642706701478796244e+09,7.696659799866785445e-02,-7.211188443376101778e-03,0.000000000000000000e+00,-2.884475377350440711e-02,1.513453012042124679e-01,-2.449054022034637471e-02,4.453434390421814881e-02
2.066666666666666430e+00,1.642706701494766235e+09,7.931760228143977520e-02,-7.211188443376101778e-03,0.000000000000000000e+00,-2.884475377350440711e-02,1.294580062674141330e-01,-2.373756746960197991e-02,4.581881811720771996e-02
2.083333333333333481e+00,1.642706701509910583e+09,8.156795952730760968e-02,-1.522362004712732655e-02,0.000000000000000000e+00,-6.089448018850930622e-02,1.057891368388272357e-01,-2.296774006463361828e-02,4.655841599210102516e-02
2.100000000000000089e+00,1.642706701530013800e+09,8.370654718264997074e-02,-1.522362004712732655e-02,0.000000000000000000e+00,-6.089448018850930622e-02,8.046049211794549516e-02,-2.218918658709166311e-02,4.686714371573937055e-02
2.116666666666666696e+00,1.642706701545629501e+09,8.572280688781355740e-02,-7.211188443376101778e-03,0.000000000000000000e+00,-2.884475377350440711e-02,5.361110784346154179e-02,-2.140813205841828396e-02,4.685942117706741461e-02
2.133333333333333304e+00,1.642706701564833403e+09,8.760683979971817248e-02,-7.211188443376101778e-03,0.000000000000000000e+00,-2.884475377350440711e-02,2.539660925318389106e-02,-2.063110217270538657e-02,4.638548163818465020e-02
2.149999999999999911e+00,1.642706701579007387e+09,8.934949745339294813e-02,-1.522362004712732655e-02,0.000000000000000000e+00,-6.089448018850930622e-02,-4.011596906152642590e-03,-1.986707437570126716e-02,4.530086689195919614e-02
2.166666666666666519e+00,1.642706701597032309e+09,9.094246716625398186e-02,-1.522362004712732655e-02,0.000000000000000000e+00,-6.089448018850930622e-02,-3.442728826147378740e-02,-1.912517471407084932e-02,4.373145209185209242e-02
2.183333333333333126e+00,1.642706701613955021e+09,9.237835102749356042e-02,-7.211188443376101778e-03,0.000000000000000000e+00,-2.884475377350440711e-02,-6.565054602869078992e-02,-1.841242108831149873e-02,4.180433622489162365e-02
2.200000000000000178e+00,1.642706701628960609e+09,9.365073756466030241e-02,-7.211188443376101778e-03,0.000000000000000000e+00,-2.884475377350440711e-02,-9.746902150802334852e-02,-1.773591466983941156e-02,3.938315964056287449e-02
2.216666666666666785e+00,1.642706701648860931e+09,9.475426524002110440e-02,-7.211188443376101778e-03,0.000000000000000000e+00,-2.884475377350440711e-02,-1.296593423363915087e-01,-1.710387292349640001e-02,3.646994238122373833e-02
2.233333333333333393e+00,1.642706701663854122e+09,9.568467700013741362e-02,-7.211188443376101778e-03,0.000000000000000000e+00,-2.884475377350440711e-02,-1.619886495407649729e-01,-1.652444776316336350e-02,3.307051992115501993e-02
2.250000000000000000e+00,1.642706701680521965e+09,9.643886518266328589e-02,-7.211188443376101778e-03,0.000000000000000000e+00,-2.884475377350440711e-02,-1.942162550541791377e-01,-1.600566140685923469e-02,2.919460950655830209e-02
2.266666666666666607e+00,1.642706701698081732e+09,9.701490617396167637e-02,-7.211188443376101778e-03,0.000000000000000000e+00,-2.884475377350440711e-02,-2.260954080387660436e-01,-1.555534137930162861e-02,2.485584620429832914e-02
2.283333333333333215e+00,1.642706701714338541e+09,9.741208430890965775e-02,-7.211188443376101778e-03,0.000000000000000000e+00,-2.884475377350440711e-02,-2.573751571210676214e-01,-1.518105517584707014e-02,2.007178757476971165e-02
2.299999999999999822e+00,1.642706701729718685e+09,9.763090460927884018e-02,-7.211188443376101778e-03,0.000000000000000000e+00,-2.884475377350440711e-02,-2.878022944970516361e-01,-1.489004511771627355e-02,1.486388613429845407e-02
2.316666666666666430e+00,1.642706701748956442e+09,9.767309406830639029e-02,-7.211188443376101778e-03,0.000000000000000000e+00,-2.884475377350440711e-02,-3.171233668200452716e-01,-1.468916394012073634e-02,9.257429035645895268e-03
2.333333333333333481e+00,1.642706701766018867e+09,9.754159130538138378e-02,-7.211188443376101778e-03,0.000000000000000000e+00,-2.884475377350440711e-02,-3.450867368558475090e-01,-1.458481166213974368e-02,3.281444669344509187e-03
2.350000000000000089e+00,1.642706701780994415e+09,9.724052453497127047e-02,8.012431603754229968e-04,0.000000000000000000e+00,3.204972641501691987e-03,-3.714446790864006087e-01,-1.458176760873624439e-02,-2.898989982826075118e-03
2.366666666666666696e+00,1.642706701799956322e+09,9.677517791672807235e-02,8.012431603754229968e-04,0.000000000000000000e+00,3.204972641501691987e-03,-3.959554917763894455e-01,-1.468426260049650323e-02,-9.382399134666048746e-03
2.383333333333333304e+00,1.642706701813709259e+09,9.615194647784106041e-02,8.012431603754229968e-04,0.000000000000000000e+00,3.204972641501691987e-03,-4.183856074947293058e-01,-1.489701697852200725e-02,-1.612938416221310761e-02
2.399999999999999911e+00,1.642706701833970547e+09,9.537827992277940481e-02,8.012431603754229968e-04,0.000000000000000000e+00,3.204972641501691987e-03,-4.385116837127192579e-01,-1.522406903375763364e-02,-2.309750611618321264e-02
2.416666666666666519e+00,1.642706701850711584e+09,9.446261576822752304e-02,8.012431603754229968e-04,0.000000000000000000e+00,3.204972641501691987e-03,-4.561226548889084631e-01,-1.566872645053780932e-02,-3.024153889487858626e-02
2.433333333333333126e+00,1.642706701866915941e+09,9.341430236087440442e-02,8.012431603754229968e-04,0.000000000000000000e+00,3.204972641501691987e-03,-4.710217274024898204e-01,-1.623352221025396724e-02,-3.751375120586433742e-02
2.450000000000000178e+00,1.642706701885963678e+09,9.224351245140080535e-02,8.012431603754229968e-04,0.000000000000000000e+00,3.204972641501691987e-03,-4.830282988157538204e-01,-1.692017542052806633e-02,-4.486421558984654556e-02
2.466666666666666785e+00,1.642706701901678801e+09,9.096114810817391982e-02,8.012431603754229968e-04,0.000000000000000000e+00,3.204972641501691987e-03,-4.919797832339642407e-01,-1.772955750422119253e-02,-5.224114250737989934e-02
2.483333333333333393e+00,1.642706701919514418e+09,8.957873785748800277e-02,8.012431603754229968e-04,0.000000000000000000e+00,3.204972641501691987e-03,-4.977333249884656197e-01,-1.866166414710446891e-02,-5.959123722829812869e-02
2.500000000000000000e+00,1.642706701935845613e+09,8.810832703243764996e-02,8.012431603754229968e-04,0.000000000000000000e+00,3.204972641501691987e-03,-5.001673834949231789e-01,-1.971559336329481438e-02,-6.686007701768358069e-02
2.516666666666666607e+00,1.642706701952073812e+09,8.656236239848925929e-02,8.813674764126647881e-03,0.000000000000000000e+00,3.525469905650659153e-02,-4.991831729308060517e-01,-2.088842331282430784e-02,-7.386007203759874240e-02
2.533333333333333215e+00,1.642706701971313953e+09,8.495357219942631377e-02,8.012431603754229968e-04,0.000000000000000000e+00,3.204972641501691987e-03,-4.947059413304177311e-01,-2.217744128680253571e-02,-8.080279903312122258e-02
2.549999999999999822e+00,1.642706701987577677e+09,8.329484283158376801e-02,8.012431603754229968e-04,0.000000000000000000e+00,3.204972641501691987e-03,-4.866860748063207009e-01,-2.358010473648997074e-02,-8.749821611086620876e-02
2.566666666666666430e+00,1.642706702005089283e+09,8.159909340627176377e-02,8.012431603754229968e-04,0.000000000000000000e+00,3.204972641501691987e-03,-4.751000138656671923e-01,-2.509183342394065777e-02,-9.389146693517037845e-02
2.583333333333333481e+00,1.642706702020406008e+09,7.987914949924018737e-02,8.813674764126647881e-03,0.000000000000000000e+00,3.525469905650659153e-02,-4.599509701901166037e-01,-2.670603417828002618e-02,-9.979622110459751561e-02
2.600000000000000089e+00,1.642706702040345907e+09,7.814761741133349759e-02,8.813674764126647881e-03,0.000000000000000000e+00,3.525469905650659153e-02,-4.412694337785381116e-01,-2.841525163138694868e-02,-1.052945996350641150e-01
2.616666666666666696e+00,1.642706702055531263e+09,7.641676027562251117e-02,8.012431603754229968e-04,0.000000000000000000e+00,3.204972641501691987e-03,-4.191134620011397471e-01,-3.021339577505615173e-02,-1.104683258054076495e-01
2.633333333333333304e+00,1.642706702074586391e+09,7.469837734295167730e-02,8.813674764126647881e-03,0.000000000000000000e+00,3.525469905650659153e-02,-3.935687438692448969e-01,-3.209241916032535419e-02,-1.150018869052237547e-01
2.649999999999999911e+00,1.642706702091129541e+09,7.300368775980986547e-02,8.813674764126647881e-03,0.000000000000000000e+00,3.525469905650659153e-02,-3.647484346728112059e-01,-3.404239504405021793e-02,-1.189841570199769716e-01
2.666666666666666519e+00,1.642706702106693983e+09,7.134322011969730648e-02,8.813674764126647881e-03,0.000000000000000000e+00,3.525469905650659153e-02,-3.327927580628282089e-01,-3.605377832922068010e-02,-1.223724251231182031e-01
2.683333333333333126e+00,1.642706702124605894e+09,6.972670902187293185e-02,8.813674764126647881e-03,0.000000000000000000e+00,3.525469905650659153e-02,-2.978683746421083023e-01,-3.811634098689811040e-02,-1.251274407967404578e-01
2.700000000000000178e+00,1.642706702140153646e+09,6.816299980981127549e-02,8.813674764126647881e-03,0.000000000000000000e+00,3.525469905650659153e-02,-2.601675181588468111e-01,-4.021923278722062262e-02,-1.272137797196632725e-01
2.716666666666666785e+00,1.642706702159074068e+09,6.665996258636537608e-02,8.012431603754229968e-04,0.000000000000000000e+00,3.204972641501691987e-03,-2.199069024551889573e-01,-4.235215460147333244e-02,-1.287326188936574467e-01
2.733333333333333393e+00,1.642706702177453041e+09,6.522441651412867747e-02,8.012431603754229968e-04,0.000000000000000000e+00,3.204972641501691987e-03,-1.773264043899775710e-01,-4.450429937949550163e-02,-1.295225601361286449e-01
2.750000000000000000e+00,1.642706702190933943e+09,6.386206530863208775e-02,8.012431603754229968e-04,0.000000000000000000e+00,3.204972641501691987e-03,-1.326875300123447343e-01,-4.666333519421107107e-02,-1.295616291022792244e-01
2.766666666666666607e+00,1.642706702208303928e+09,6.257744471970112798e-02,8.012431603754229968e-04,0.000000000000000000e+00,3.204972641501691987e-03,-8.627167329239424087e-02,-4.881660578084704577e-02,-1.288328656845102171e-01
2.783333333333333215e+00,1.642706702225977182e+09,6.137388267365123662e-02,8.813674764126647881e-03,0.000000000000000000e+00,3.525469905650659153e-02,-3.837817869806745691e-02,-5.095010921326517672e-02,-1.271921039843244283e-01
2.799999999999999822e+00,1.642706702241956949e+09,6.025347261719024572e-02,8.012431603754229968e-04,0.000000000000000000e+00,3.204972641501691987e-03,1.067777917505761780e-02,-5.305082428784373139e-02,-1.249000718708219854e-01
2.816666666666666430e+00,1.642706702258067846e+09,5.921706046429327241e-02,8.813674764126647881e-03,0.000000000000000000e+00,3.525469905650659153e-02,6.056748388013227097e-02,-5.510565793185795425e-02,-1.216888855827367860e-01
2.833333333333333481e+00,1.642706702277009249e+09,5.826424540132281449e-02,8.012431603754229968e-04,0.000000000000000000e+00,3.204972641501691987e-03,1.109511165278951467e-01,-5.710156300362628085e-02,-1.178304411828306197e-01
2.850000000000000089e+00,1.642706702292990685e+09,5.739339465484268044e-02,8.813674764126647881e-03,0.000000000000000000e+00,3.525469905650659153e-02,1.614803279400517655e-01,-5.902560779805132024e-02,-1.130681630100026092e-01
2.866666666666666696e+00,1.642706702310946941e+09,5.660167217251994842e-02,8.012431603754229968e-04,0.000000000000000000e+00,3.204972641501691987e-03,2.118009236800194039e-01,-6.086509543309231302e-02,-1.076853059276216967e-01
2.883333333333333304e+00,1.642706702329892397e+09,5.588508101188718880e-02,8.813674764126647881e-03,0.000000000000000000e+00,3.525469905650659153e-02,2.615556407650423965e-01,-6.260763343893202548e-02,-1.014366126629624998e-01
2.899999999999999911e+00,1.642706702346823692e+09,5.523851907627169017e-02,8.012431603754229968e-04,0.000000000000000000e+00,3.204972641501691987e-03,3.103869936997646350e-01,-6.424125169987734973e-02,-9.461652378768149740e-02
2.916666666666666519e+00,1.642706702362788200e+09,5.465584768362802270e-02,8.813674764126647881e-03,0.000000000000000000e+00,3.525469905650659153e-02,3.579401664854265919e-01,-6.575446905797591168e-02,-8.699074240875705188e-02
2.933333333333333126e+00,1.642706702380837917e+09,5.412997230406068477e-02,8.813674764126647881e-03,0.000000000000000000e+00,3.525469905650659153e-02,4.038659264626696110e-01,-6.713530004760448477e-02,-7.873191806534854398e-02
2.950000000000000178e+00,1.642706702394660473e+09,5.365293465724626371e-02,8.813674764126647881e-03,0.000000000000000000e+00,3.525469905650659153e-02,4.478235352497616506e-01,-6.837355323092288162e-02,-6.988304471513201443e-02
2.966666666666666785e+00,1.642706702414081573e+09,5.321601522343801655e-02,8.012431603754229968e-04,0.000000000000000000e+00,3.204972641501691987e-03,4.894836316505090656e-01,-6.946089997028916108e-02,-6.062428339558433021e-02
2.983333333333333393e+00,1.642706702428771496e+09,5.280984509290619078e-02,8.813674764126647881e-03,0.000000000000000000e+00,3.525469905650659153e-02,5.285310612340466951e-01,-7.038871291422091336e-02,-5.074072485168301672e-02
3.000000000000000000e+00,1.642706702449947357e+09,5.242452596011181604e-02,8.813674764126647881e-03,0.000000000000000000e+00,3.525469905650659153e-02,5.646676273373125721e-01,-7.114817380391738610e-02,-4.042324226029588713e-02
3.016666666666666607e+00,1.642706702463025093e+09,5.204975696209414304e-02,8.012431603754229968e-04,0.000000000000000000e+00,3.204972641501691987e-03,5.976147385132261070e-01,-7.173365771588352535e-02,-2.986415865376971721e-02
3.033333333333333215e+00,1.642706702482969999e+09,5.167496696685985186e-02,8.813674764126647881e-03,0.000000000000000000e+00,3.525469905650659153e-02,6.271159279449857182e-01,-7.213943392691500589e-02,-1.885955573091969983e-02
3.049999999999999822e+00,1.642706702497970104e+09,5.128945083822307460e-02,8.813674764126647881e-03,0.000000000000000000e+00,3.525469905650659153e-02,6.529392210683988562e-01,-7.235975332434771423e-02,-7.610021402944897734e-03
3.066666666666666430e+00,1.642706702515454292e+09,5.088250813967910152e-02,8.813674764126647881e-03,0.000000000000000000e+00,3.525469905650659153e-02,6.748793285871839132e-01,-7.239110389567744719e-02,3.816212557573339312e-03
3.083333333333333481e+00,1.642706702535418510e+09,5.044358269243404830e-02,8.012431603754229968e-04,0.000000000000000000e+00,3.204972641501691987e-03,6.927596432259217618e-01,-7.223223247453927631e-02,1.521668924287345771e-02
3.100000000000000089e+00,1.642706702549382448e+09,4.996240137244473134e-02,8.813674764126647881e-03,0.000000000000000000e+00,3.525469905650659153e-02,7.064340199348726479e-01,-7.188193235538914427e-02,2.678718403537331399e-02
3.116666666666666696e+00,1.642706702568820715e+09,4.942911051884387591e-02,8.813674764126647881e-03,0.000000000000000000e+00,3.525469905650659153e-02,7.157883208316360157e-01,-7.133909675817071139e-02,3.832104836475092036e-02
3.133333333333333304e+00,1.642706702585885763e+09,4.883440833184742730e-02,8.813674764126647881e-03,0.000000000000000000e+00,3.525469905650659153e-02,7.207417079256930315e-01,-7.060493898759519216e-02,4.974614697233906147e-02
3.149999999999999911e+00,1.642706702601242304e+09,4.816967166236488240e-02,8.813674764126647881e-03,0.000000000000000000e+00,3.525469905650659153e-02,7.212476686108962864e-01,-6.968187106367138006e-02,6.099076810466563109e-02
3.166666666666666519e+00,1.642706702617383957e+09,4.742707563808802596e-02,8.813674764126647881e-03,0.000000000000000000e+00,3.525469905650659153e-02,7.172947610133796337e-01,-6.857349187779342159e-02,7.198419618174611845e-02
3.183333333333333126e+00,1.642706702635323286e+09,4.659970463160476029e-02,8.012431603754229968e-04,0.000000000000000000e+00,3.204972641501691987e-03,7.089070685324146970e-01,-6.728567250172397263e-02,8.252484866722317736e-02
3.200000000000000178e+00,1.642706702650288105e+09,4.568165315468343535e-02,8.012431603754229968e-04,0.000000000000000000e+00,3.204972641501691987e-03,6.961443552915491662e-01,-6.582539425673172850e-02,9.268033039642968596e-02
3.216666666666666785e+00,1.642706702670230389e+09,4.466811535868722011e-02,8.012431603754229968e-04,0.000000000000000000e+00,3.204972641501691987e-03,6.791019167082051888e-01,-6.419961457324392662e-02,1.023862700440849038e-01
3.233333333333333393e+00,1.642706702686164379e+09,4.355546193329927485e-02,8.012431603754229968e-04,0.000000000000000000e+00,3.204972641501691987e-03,6.579101219713597848e-01,-6.241633683945214256e-02,1.115815150624887009e-01
3.250000000000000000e+00,1.642706702702685833e+09,4.234130332336676766e-02,8.813674764126647881e-03,0.000000000000000000e+00,3.525469905650659153e-02,6.327336478675541498e-01,-6.048344577996486726e-02,1.203410793801961143e-01
3.266666666666666607e+00,1.642706702719490051e+09,4.102453832551358065e-02,8.813674764126647881e-03,0.000000000000000000e+00,3.525469905650659153e-02,6.037704060931421424e-01,-5.840977227464917709e-02,1.284771405558348956e-01
3.283333333333333215e+00,1.642706702738172770e+09,3.960538728084932875e-02,8.012431603754229968e-04,0.000000000000000000e+00,3.204972641501691987e-03,5.712501689119678927e-01,-5.620721989900594878e-02,1.358087783813974048e-01
3.299999999999999822e+00,1.642706702755594492e+09,3.808540924611148598e-02,8.813674764126647881e-03,0.000000000000000000e+00,3.525469905650659153e-02,5.354329007392540918e-01,-5.388732662697880843e-02,1.425596613677599378e-01
3.316666666666666430e+00,1.642706702770554304e+09,3.646750270119376164e-02,8.012431603754229968e-04,0.000000000000000000e+00,3.204972641501691987e-03,4.966068059300963178e-01,-5.146232043447809129e-02,1.484247893267670870e-01
3.333333333333333481e+00,1.642706702789768457e+09,3.475588953445702539e-02,8.813674764126647881e-03,0.000000000000000000e+00,3.525469905650659153e-02,4.550861057005289312e-01,-4.894500038250974155e-02,1.536391322825430006e-01
3.350000000000000089e+00,1.642706702804740906e+09,3.295608223654675206e-02,8.813674764126647881e-03,0.000000000000000000e+00,3.525469905650659153e-02,4.112085596865059367e-01,-4.634755521081174168e-02,1.580420576850222192e-01
3.366666666666666696e+00,1.642706702823864698e+09,3.107483442660373407e-02,8.813674764126647881e-03,0.000000000000000000e+00,3.525469905650659153e-02,3.653327501275333566e-01,-4.368367247303293899e-02,1.616139486954377424e-01
3.383333333333333304e+00,1.642706702840201378e+09,2.912007502968845876e-02,8.813674764126647881e-03,0.000000000000000000e+00,3.525469905650659153e-02,3.178351490235544752e-01,-4.096731196214692394e-02,1.643417352476797544e-01
3.399999999999999911e+00,1.642706702855840445e+09,2.710082661874804386e-02,8.012431603754229968e-04,0.000000000000000000e+00,3.204972641501691987e-03,2.691069908336683469e-01,-3.821370214387077163e-02,1.660865959959710036e-01
3.416666666666666519e+00,1.642706702869129181e+09,2.502710862638708386e-02,8.012431603754229968e-04,0.000000000000000000e+00,3.204972641501691987e-03,2.195509753412669962e-01,-3.543809701574712062e-02,1.669835278428747349e-01
3.433333333333333126e+00,1.642706702887797117e+09,2.290982631883364123e-02,8.813674764126647881e-03,0.000000000000000000e+00,3.525469905650659153e-02,1.695778271817931226e-01,-3.265346254329051096e-02,1.671720850695167793e-01
3.449999999999999734e+00,1.642706702903884172e+09,2.076064660468135425e-02,8.813674764126647881e-03,0.000000000000000000e+00,3.525469905650659153e-02,1.196027401971558740e-01,-2.987261407795854459e-02,1.665315101868728442e-01
3.466666666666666785e+00,1.642706702921252012e+09,1.859186192206867955e-02,8.813674764126647881e-03,0.000000000000000000e+00,3.525469905650659153e-02,7.004173622715202663e-02,-2.710919877474607387e-02,1.650823517335150148e-01
3.483333333333333393e+00,1.642706702939282179e+09,1.641624360789543241e-02,8.012431603754229968e-04,0.000000000000000000e+00,3.204972641501691987e-03,2.130796915668822789e-02,-2.437757376720983693e-02,1.627192135979298460e-01
3.500000000000000000e+00,1.642706702954587698e+09,1.424688629946796285e-02,8.012431603754229968e-04,0.000000000000000000e+00,3.204972641501691987e-03,-2.619199400577677112e-02,-2.169156871606137127e-02,1.596100293660246972e-01
3.516666666666666607e+00,1.642706702970923424e+09,1.209704505078356904e-02,8.813674764126647881e-03,0.000000000000000000e+00,3.525469905650659153e-02,-7.206188255093638750e-02,-1.906218285087634898e-02,1.559265067043928421e-01
3.533333333333333215e+00,1.642706702988866568e+09,9.979966960736837145e-03,8.813674764126647881e-03,0.000000000000000000e+00,3.525469905650659153e-02,-1.159193891069148497e-01,-1.649973788075300568e-02,1.515789664952230387e-01
3.549999999999999822e+00,1.642706703005023241e+09,7.908719207334711718e-03,8.012431603754229968e-04,0.000000000000000000e+00,3.204972641501691987e-03,-1.573997612719960359e-01,-1.401598740044487229e-02,1.464852407130545764e-01
3.566666666666666430e+00,1.642706703023352385e+09,5.896015459123629850e-03,8.813674764126647881e-03,0.000000000000000000e+00,3.525469905650659153e-02,-1.961592849728139576e-01,-1.162067560559525148e-02,1.409675020813934976e-01
3.583333333333333481e+00,1.642706703039305210e+09,3.954042691264767276e-03,8.813674764126647881e-03,0.000000000000000000e+00,3.525469905650659153e-02,-2.318786271220577289e-01,-9.321497581820895051e-03,1.349505748516536263e-01
3.600000000000000089e+00,1.642706703059053183e+09,2.094290468064956539e-03,8.012431603754229968e-04,0.000000000000000000e+00,3.204972641501691987e-03,-2.642660058841495574e-01,-7.127350659517029709e-03,1.283653485506202063e-01
3.616666666666666696e+00,1.642706703074165106e+09,3.273847655144174348e-04,8.813674764126647881e-03,0.000000000000000000e+00,3.525469905650659153e-02,-2.930601578811414254e-01,-5.044918335744711345e-03,1.215454748415643049e-01
3.633333333333333304e+00,1.642706703092345715e+09,-1.337071604028440336e-03,8.012431603754229968e-04,0.000000000000000000e+00,3.204972641501691987e-03,-3.180330729797870570e-01,-3.079764561975648768e-03,1.142931239041383856e-01
3.649999999999999911e+00,1.642706703107516766e+09,-2.890649937701489283e-03,8.813674764126647881e-03,0.000000000000000000e+00,3.525469905650659153e-02,-3.389924688870531999e-01,-1.236269846669923967e-03,1.069466492867838792e-01
3.666666666666666519e+00,1.642706703123562813e+09,-4.326235989549420159e-03,8.012431603754229968e-04,0.000000000000000000e+00,3.204972641501691987e-03,-3.557839796357942785e-01,4.823723908588750057e-04,9.931162810799809559e-02
3.683333333333333126e+00,1.642706703141966581e+09,-5.638157831982719241e-03,8.813674764126647881e-03,0.000000000000000000e+00,3.525469905650659153e-02,-3.682930341525944562e-01,2.074197752542345126e-03,9.172848008984016421e-02
3.699999999999999734e+00,1.642706703160031080e+09,-6.822299448043420492e-03,8.813674764126647881e-03,0.000000000000000000e+00,3.525469905650659153e-02,-3.764464034514412583e-01,3.539558554675369811e-03,8.413590714291856176e-02
3.716666666666666785e+00,1.642706703175933599e+09,-7.876198397445938193e-03,8.012431603754229968e-04,0.000000000000000000e+00,3.204972641501691987e-03,-3.802133975728947957e-01,4.877798184164845730e-03,7.647413160655376629e-02
3.733333333333333393e+00,1.642706703193858862e+09,-8.799126046565545686e-03,8.012431603754229968e-04,0.000000000000000000e+00,3.204972641501691987e-03,-3.796066961698068565e-01,6.089483600875517447e-03,6.894902197301923386e-02
3.750000000000000000e+00,1.642706703210857391e+09,-9.592149019461097131e-03,8.813674764126647881e-03,0.000000000000000000e+00,3.525469905650659153e-02,-3.746827996061078414e-01,7.178576667692687478e-03,6.176211015883571048e-02
3.766666666666666607e+00,1.642706703227804184e+09,-1.025817071216785469e-02,8.012431603754229968e-04,0.000000000000000000e+00,3.204972641501691987e-03,-3.655420905616115768e-01,8.149036369029062643e-03,5.471263633414540084e-02
3.783333333333333215e+00,1.642706703243939400e+09,-1.080195191416773171e-02,8.813674764126647881e-03,0.000000000000000000e+00,3.525469905650659153e-02,-3.523284993985331681e-01,9.005910265651811963e-03,4.813051536028254557e-02
3.799999999999999822e+00,1.642706703261283636e+09,-1.123010979720586583e-02,8.012431603754229968e-04,0.000000000000000000e+00,3.204972641501691987e-03,-3.352287699176693669e-01,9.755246413993797980e-03,4.180738709931899194e-02
3.816666666666666430e+00,1.642706703280253410e+09,-1.155109476037671778e-02,8.012431603754229968e-04,0.000000000000000000e+00,3.204972641501691987e-03,-3.144713255867669921e-01,1.040293747351853960e-02,3.593186133268772703e-02
3.833333333333333481e+00,1.642706703295184135e+09,-1.177514485932937109e-02,8.012431603754229968e-04,0.000000000000000000e+00,3.204972641501691987e-03,-2.903247398309955485e-01,1.095684977262306910e-02,3.055255742240619438e-02
3.850000000000000089e+00,1.642706703314735651e+09,-1.191421779414614766e-02,8.012431603754229968e-04,0.000000000000000000e+00,3.204972641501691987e-03,-2.630958175064949112e-01,1.142561087103435499e-02,2.571222008489291999e-02
3.866666666666666696e+00,1.642706703330261469e+09,-1.198190068232971896e-02,8.813674764126647881e-03,0.000000000000000000e+00,3.525469905650659153e-02,-2.331272982018434414e-01,1.181961417818620103e-02,2.157965638711246276e-02
3.883333333333333304e+00,1.642706703348296881e+09,-1.199329809774708072e-02,8.813674764126647881e-03,0.000000000000000000e+00,3.525469905650659153e-02,-2.007951954984692478e-01,1.214977794162651857e-02,1.804980061143310333e-02
3.899999999999999911e+00,1.642706703363955259e+09,-1.196489911058132294e-02,8.813674764126647881e-03,0.000000000000000000e+00,3.525469905650659153e-02,-1.665057897385228691e-01,1.242633439074620171e-02,1.514504224607348196e-02
3.916666666666666519e+00,1.642706703380146980e+09,-1.191442431456089628e-02,8.813674764126647881e-03,0.000000000000000000e+00,3.525469905650659153e-02,-1.306922951667953692e-01,1.265982598485818761e-02,1.288024031191701765e-02
3.933333333333333126e+00,1.642706703396266937e+09,-1.186065407316327230e-02,8.813674764126647881e-03,0.000000000000000000e+00,3.525469905650659153e-02,-9.381122550162286633e-02,1.286097772738552768e-02,1.126246272376473997e-02
3.949999999999999734e+00,1.642706703415219307e+09,-1.182323945334335866e-02,8.012431603754229968e-04,0.000000000000000000e+00,3.204972641501691987e-03,-5.633848501862148694e-02,1.303945903092027826e-02,1.015836072259255519e-02
3.966666666666666785e+00,1.642706703431164265e+09,-1.182249754090597404e-02,8.813674764126647881e-03,0.000000000000000000e+00,3.525469905650659153e-02,-1.876521507202229960e-02,1.320598745339889545e-02,9.825973294982344106e-03
3.983333333333333393e+00,1.642706703447265387e+09,-1.187919304323395431e-02,8.813674764126647881e-03,0.000000000000000000e+00,3.525469905650659153e-02,1.840657139631482822e-02,1.337215618062935311e-02,1.011347533709257805e-02
4.000000000000000000e+00,1.642706703467355967e+09,-1.201430828014943275e-02,8.012431603754229968e-04,0.000000000000000000e+00,3.204972641501691987e-03,5.466853242637562116e-02,1.354697873773619970e-02,1.086314903976491608e-02
4.016666666666666607e+00,1.642706703481595278e+09,-1.224880383984134138e-02,8.813674764126647881e-03,0.000000000000000000e+00,3.525469905650659153e-02,8.951067963616880785e-02,1.374011140705730036e-02,1.230875561044873952e-02
4.033333333333333215e+00,1.642706703501079559e+09,-1.260337233171892474e-02,8.813674764126647881e-03,0.000000000000000000e+00,3.525469905650659153e-02,1.224261619630910986e-01,1.396168415416514444e-02,1.427451347546119034e-02
4.049999999999999822e+00,1.642706703517038345e+09,-1.309818779973583383e-02,8.813674764126647881e-03,0.000000000000000000e+00,3.525469905650659153e-02,1.529161101474350026e-01,1.421995930775618415e-02,1.671173473706284371e-02
4.066666666666666430e+00,1.642706703533994198e+09,-1.375265346629045253e-02,8.012431603754229968e-04,0.000000000000000000e+00,3.204972641501691987e-03,1.804945003599031927e-01,1.452122064545638240e-02,1.943206912470062109e-02
4.083333333333333037e+00,1.642706703551970959e+09,-1.458515055663457162e-02,8.012431603754229968e-04,0.000000000000000000e+00,3.204972641501691987e-03,2.046929945208223467e-01,1.487078746376207898e-02,2.250740626774822006e-02
4.099999999999999645e+00,1.642706703569926023e+09,-1.561279100546241957e-02,8.813674764126647881e-03,0.000000000000000000e+00,3.525469905650659153e-02,2.250657143588998821e-01,1.527510570529838456e-02,2.600107784492902349e-02
4.116666666666666252e+00,1.642706703586877584e+09,-1.685117686993248959e-02,8.012431603754229968e-04,0.000000000000000000e+00,3.204972641501691987e-03,2.411939061205071178e-01,1.573829021163542299e-02,2.957114582660669636e-02
4.133333333333332860e+00,1.642706703604804039e+09,-1.831416926599793021e-02,8.813674764126647881e-03,0.000000000000000000e+00,3.525469905650659153e-02,2.526904530742060673e-01,1.626317734128220407e-02,3.340466082759879080e-02
4.150000000000000355e+00,1.642706703618792772e+09,-2.001366960712294002e-02,8.813674764126647881e-03,0.000000000000000000e+00,3.525469905650659153e-02,2.592041935621859361e-01,1.685232658169380504e-02,3.728247605929239927e-02
4.166666666666666963e+00,1.642706703637764215e+09,-2.195941585607431162e-02,8.813674764126647881e-03,0.000000000000000000e+00,3.525469905650659153e-02,2.604240033314152991e-01,1.750573895092622304e-02,4.111635832498568288e-02
4.183333333333333570e+00,1.642706703653699160e+09,-2.415879640167776371e-02,8.813674764126647881e-03,0.000000000000000000e+00,3.525469905650659153e-02,2.560826022296376903e-01,1.822192018370225042e-02,4.481511504210573121e-02
4.200000000000000178e+00,1.642706703672623158e+09,-2.661668404367338592e-02,8.012431603754229968e-04,0.000000000000000000e+00,3.204972641501691987e-03,2.459600470684795426e-01,1.899673167421946432e-02,4.815299172206943118e-02
4.216666666666666785e+00,1.642706703689577579e+09,-2.933529241095664264e-02,8.012431603754229968e-04,0.000000000000000000e+00,3.204972641501691987e-03,2.298868745291050009e-01,1.982449337893234242e-02,5.117003197884788940e-02
4.233333333333333393e+00,1.642706703706578255e+09,-3.231405695265498340e-02,8.813674764126647881e-03,0.000000000000000000e+00,3.525469905650659153e-02,2.077468604019568621e-01,2.070017106407179286e-02,5.390369654647649694e-02
4.250000000000000000e+00,1.642706703723498344e+09,-3.554954242914194068e-02,8.012431603754229968e-04,0.000000000000000000e+00,3.204972641501691987e-03,1.794793641960360231e-01,2.161602124849257289e-02,5.599252315132924318e-02
4.266666666666666607e+00,1.642706703739444733e+09,-3.903537859296470763e-02,8.813674764126647881e-03,0.000000000000000000e+00,3.525469905650659153e-02,1.450812312059198694e-01,2.256275229364678239e-02,5.761070720567580683e-02
4.283333333333333215e+00,1.642706703759390593e+09,-4.276222548986698818e-02,8.813674764126647881e-03,0.000000000000000000e+00,3.525469905650659153e-02,1.046082274648144073e-01,2.353063941717950525e-02,5.853318511929210544e-02
4.299999999999999822e+00,1.642706703774376631e+09,-4.671776952988689058e-02,8.012431603754229968e-04,0.000000000000000000e+00,3.204972641501691987e-03,5.817598661505821167e-02,2.450625383417051259e-02,5.854052453189165922e-02
4.316666666666666430e+00,1.642706703790307999e+09,-5.088675118052336105e-02,8.813674764126647881e-03,0.000000000000000000e+00,3.525469905650659153e-02,5.960451566733099109e-03,2.547588420627767622e-02,5.781712959863215956e-02
4.333333333333333037e+00,1.642706703808304787e+09,-5.525102482100364282e-02,8.012431603754229968e-04,0.000000000000000000e+00,3.204972641501691987e-03,-5.180220213916267302e-02,2.642447302423013913e-02,5.601852479769990623e-02
4.349999999999999645e+00,1.642706703824243546e+09,-5.978965097176480725e-02,8.813674764126647881e-03,0.000000000000000000e+00,3.525469905650659153e-02,-1.148161701252747025e-01,2.733573668004364229e-02,5.334055288586726784e-02
4.366666666666666252e+00,1.642706703841171980e+09,-6.447902077955017242e-02,8.813674764126647881e-03,0.000000000000000000e+00,3.525469905650659153e-02,-1.827271546298320781e-01,2.819335745441123309e-02,4.958437411373792236e-02
4.383333333333332860e+00,1.642706703859158516e+09,-6.929301229939979767e-02,8.813674764126647881e-03,0.000000000000000000e+00,3.525469905650659153e-02,-2.551240316460013369e-01,2.897889456175213596e-02,4.469366439169910471e-02
4.400000000000000355e+00,1.642706703876105309e+09,-7.420317777371604473e-02,8.813674764126647881e-03,0.000000000000000000e+00,3.525469905650659153e-02,-3.315410452394513263e-01,2.967304059161210775e-02,3.862072885391705512e-02
4.416666666666666963e+00,1.642706703892060757e+09,-7.917896076900120261e-02,8.012431603754229968e-04,0.000000000000000000e+00,3.204972641501691987e-03,-4.114605199628883492e-01,3.025466462728501268e-02,3.119478353820227118e-02
4.433333333333333570e+00,1.642706703910985231e+09,-8.418794169644717995e-02,8.813674764126647881e-03,0.000000000000000000e+00,3.525469905650659153e-02,-4.943160777207079026e-01,3.070321121303937889e-02,2.265453023650488423e-02
4.450000000000000178e+00,1.642706703925979376e+09,-8.919610991677312528e-02,8.813674764126647881e-03,0.000000000000000000e+00,3.525469905650659153e-02,-5.794963409162062762e-01,3.099883468735776734e-02,1.284752899298517020e-02
4.466666666666666785e+00,1.642706703941937447e+09,-9.416816031621415284e-02,8.813674764126647881e-03,0.000000000000000000e+00,3.525469905650659153e-02,-6.663490992769084409e-01,3.112036654253418771e-02,1.767073395929054380e-03
4.483333333333333393e+00,1.642706703959854841e+09,-9.906781194271721547e-02,8.813674764126647881e-03,0.000000000000000000e+00,3.525469905650659153e-02,-7.541859134403987586e-01,3.104662251121526398e-02,-1.058205321735655735e-02
4.500000000000000000e+00,1.642706703979801416e+09,-1.038581460126617728e-01,8.813674764126647881e-03,0.000000000000000000e+00,3.525469905650659153e-02,-8.422871242304277306e-01,3.075659678734364924e-02,-2.418325165125662785e-02
4.516666666666666607e+00,1.642706703995758057e+09,-1.085019603419490331e-01,8.813674764126647881e-03,0.000000000000000000e+00,3.525469905650659153e-02,-9.299072326003947619e-01,3.022966089413335958e-02,-3.900787505531747024e-02
4.533333333333333215e+00,1.642706704011530161e+09,-1.129621370241430112e-01,8.813674764126647881e-03,0.000000000000000000e+00,3.525469905650659153e-02,-1.016280611503196818e+00,2.944576559437846880e-02,-5.501509536788040666e-02
4.549999999999999822e+00,1.642706704028870821e+09,-1.172020199753520536e-01,8.813674764126647881e-03,0.000000000000000000e+00,3.525469905650659153e-02,-1.100627507499333246e+00,2.838564417930924955e-02,-7.215187116506463494e-02
4.566666666666666430e+00,1.642706704046550751e+09,-1.211857987932534186e-01,8.813674764126647881e-03,0.000000000000000000e+00,3.525469905650659153e-02,-1.182160286771056557e+00,2.703101542615530747e-02,-9.035301927869285321e-02
4.583333333333333037e+00,1.642706704065633535e+09,-1.248788952383832335e-01,8.813674764126647881e-03,0.000000000000000000e+00,3.525469905650659153e-02,-1.260089877400568881e+00,2.536478448215782888e-02,-1.095413917119694158e-01
4.599999999999999645e+00,1.642706704080899000e+09,-1.282483485415739088e-01,8.813674764126647881e-03,0.000000000000000000e+00,3.525469905650659153e-02,-1.333632357323911055e+00,2.337123991449141167e-02,-1.296281585202994080e-01
4.616666666666666252e+00,1.642706704097193003e+09,-1.312631956738207206e-01,8.012431603754229968e-04,0.000000000000000000e+00,3.204972641501691987e-03,-1.402015635313762276e+00,2.103513848074545223e-02,-1.506456302891099053e-01
4.633333333333332860e+00,1.642706704114964485e+09,-1.338948426852582529e-01,8.813674764126647881e-03,0.000000000000000000e+00,3.525469905650659153e-02,-1.464486170698586998e+00,1.834412701407320614e-02,-1.722158270880120023e-01
4.650000000000000355e+00,1.642706704129987240e+09,-1.361174232292277630e-01,8.813674764126647881e-03,0.000000000000000000e+00,3.525469905650659153e-02,-1.520315676310353137e+00,1.528888035459161771e-02,-1.943522804543008631e-01
4.666666666666666963e+00,1.642706704147989273e+09,-1.379081404361916507e-01,8.813674764126647881e-03,0.000000000000000000e+00,3.525469905650659153e-02,-1.568807748386520151e+00,1.186105255446497780e-02,-2.169243538812141159e-01
4.683333333333333570e+00,1.642706704163672209e+09,-1.392475883906292289e-01,8.813674764126647881e-03,0.000000000000000000e+00,3.525469905650659153e-02,-1.609304366845235590e+00,8.054547783452825627e-03,-2.397926939782204503e-01
4.700000000000000178e+00,1.642706704184652567e+09,-1.401200495917972744e-01,8.012431603754229968e-04,0.000000000000000000e+00,3.204972641501691987e-03,-1.641192209516508571e+00,3.864551551576790242e-03,-2.629425471856132734e-01
4.716666666666666785e+00,1.642706704202570200e+09,-1.405137649456697224e-01,8.813674764126647881e-03,0.000000000000000000e+00,3.525469905650659153e-02,-1.663908724550349660e+00,-7.101090331532887087e-04,-2.859528040973202678e-01
4.733333333333333393e+00,1.642706704218578100e+09,-1.404211730394538116e-01,8.012431603754229968e-04,0.000000000000000000e+00,3.204972641501691987e-03,-1.676947906337590055e+00,-5.668003370924763577e-03,-3.089306874791690194e-01
4.750000000000000000e+00,1.642706704234485388e+09,-1.398391156902897836e-01,8.813674764126647881e-03,0.000000000000000000e+00,3.525469905650659153e-02,-1.679865721867637829e+00,-1.100498504409488237e-02,-3.314445732577240844e-01
4.766666666666666607e+00,1.642706704252876520e+09,-1.387690070342607884e-01,8.813674764126647881e-03,0.000000000000000000e+00,3.525469905650659153e-02,-1.672285136502573266e+00,-1.671304148353695146e-02,-3.534610411805894636e-01
4.783333333333333215e+00,1.642706704267937899e+09,-1.372169637284102184e-01,8.813674764126647881e-03,0.000000000000000000e+00,3.525469905650659153e-02,-1.653900690658654193e+00,-2.278245886065841802e-02,-3.748097407350434729e-01
4.799999999999999822e+00,1.642706704286969900e+09,-1.351938941744603717e-01,8.813674764126647881e-03,0.000000000000000000e+00,3.525469905650659153e-02,-1.624482581839299389e+00,-2.920067596011701946e-02,-3.953193387535043901e-01
4.816666666666666430e+00,1.642706704303035736e+09,-1.327155450354454425e-01,8.813674764126647881e-03,0.000000000000000000e+00,3.525469905650659153e-02,-1.583880209839574338e+00,-3.595227887742460937e-02,-4.148188447541208967e-01
4.833333333333333037e+00,1.642706704320492744e+09,-1.298025037022434991e-01,8.813674764126647881e-03,0.000000000000000000e+00,3.525469905650659153e-02,-1.532025146718783537e+00,-4.301901803271822311e-02,-4.331389634647382358e-01
4.849999999999999645e+00,1.642706704338335514e+09,-1.264801557724402059e-01,8.813674764126647881e-03,0.000000000000000000e+00,3.525469905650659153e-02,-1.468933497288623435e+00,-5.037984786581772845e-02,-4.501134640070469928e-01
4.866666666666666252e+00,1.642706704354258299e+09,-1.227785970253833653e-01,8.813674764126647881e-03,0.000000000000000000e+00,3.525469905650659153e-02,-1.394707620360252642e+00,-5.801098939964643292e-02,-4.655805548998203647e-01
4.883333333333332860e+00,1.642706704373180389e+09,-1.187324998105704216e-01,8.813674764126647881e-03,0.000000000000000000e+00,3.525469905650659153e-02,-1.309537185801669557e+00,-6.588601567645746560e-02,-4.793842538069683634e-01
4.900000000000000355e+00,1.642706704389175892e+09,-1.143809342075756408e-01,8.813674764126647881e-03,0.000000000000000000e+00,3.525469905650659153e-02,-1.213699547540909807e+00,-7.397595988552345403e-02,-4.913757408108487823e-01
4.916666666666666963e+00,1.642706704405133009e+09,-1.097671447601819006e-01,8.813674764126647881e-03,0.000000000000000000e+00,3.525469905650659153e-02,-1.107559417972489468e+00,-8.224944581349555306e-02,-5.014146839363493591e-01
4.933333333333333570e+00,1.642706704424428701e+09,-1.049382840308353826e-01,8.813674764126647881e-03,0.000000000000000000e+00,3.525469905650659153e-02,-9.915678347429071060e-01,-9.067284006104021910e-02,-5.093705256884509813e-01
4.950000000000000178e+00,1.642706704439388514e+09,-9.994510465957724688e-02,8.813674764126647881e-03,0.000000000000000000e+00,3.525469905650659153e-02,-8.662604165622923569e-01,-9.921042528316348363e-02,-5.151237194962970944e-01
4.966666666666666785e+00,1.642706704457315922e+09,-9.484161203965851827e-02,8.813674764126647881e-03,0.000000000000000000e+00,3.525469905650659153e-02,-7.322549104693749644e-01,-1.078245935273849931e-01,-5.185669051804964180e-01
4.983333333333333393e+00,1.642706704477262497e+09,-8.968468013579063147e-02,8.813674764126647881e-03,0.000000000000000000e+00,3.525469905650659153e-02,-5.902480388174851100e-01,-1.164760585651818392e-01,-5.196060128769222075e-01
5.000000000000000000e+00,1.642706704493253946e+09,-8.453363336601768530e-02,8.813674764126647881e-03,0.000000000000000000e+00,3.525469905650659153e-02,-4.410116601046987217e-01,-1.251240859394197880e-01,-5.181612852583604711e-01
5.016666666666666607e+00,1.642706704508214712e+09,-7.892276912649374976e-02,8.813674764126647881e-03,0.000000000000000000e+00,3.525469905650659153e-02,-2.853882635908926435e-01,-1.337267392853365156e-01,-5.141682083928897917e-01
5.033333333333333215e+00,1.642706704525168419e+09,-7.351259049482168628e-02,8.813674764126647881e-03,0.000000000000000000e+00,3.525469905650659153e-02,-1.234613757503351117e-01,-1.422410274533857655e-01,-5.075647152412773311e-01
5.049999999999999822e+00,1.642706704542135239e+09,-6.836211721476749548e-02,8.813674764126647881e-03,0.000000000000000000e+00,3.525469905650659153e-02,4.078237913069160392e-02,-1.506234840506334716e-01,-4.983556577457826653e-01
5.066666666666666430e+00,1.642706704557546854e+09,-6.352928852552072736e-02,8.813674764126647881e-03,0.000000000000000000e+00,3.525469905650659153e-02,2.062856298388733856e-01,-1.588308689243367600e-01,-4.865632844620293995e-01
5.083333333333333037e+00,1.642706704575897217e+09,-5.907047115876646465e-02,8.813674764126647881e-03,0.000000000000000000e+00,3.525469905650659153e-02,3.719731572496010052e-01,-1.668204581678335574e-01,-4.722272480183037913e-01
5.099999999999999645e+00,1.642706704593124151e+09,-5.503997765416472621e-02,8.012431603754229968e-04,0.000000000000000000e+00,3.204972641501691987e-03,5.367598092656233888e-01,-1.745514398375593024e-01,-4.555369154748113991e-01
5.116666666666666252e+00,1.642706704611822605e+09,-5.148959936160439621e-02,8.813674764126647881e-03,0.000000000000000000e+00,3.525469905650659153e-02,6.995585271713724573e-01,-1.819829620540856507e-01,-4.362991898926933954e-01
5.133333333333332860e+00,1.642706704628804684e+09,-4.846815837420202777e-02,8.813674764126647881e-03,0.000000000000000000e+00,3.525469905650659153e-02,8.592884216330654024e-01,-1.890744506624428556e-01,-4.147393330110496490e-01
5.150000000000000355e+00,1.642706704644761801e+09,-4.602108247138468611e-02,8.813674764126647881e-03,0.000000000000000000e+00,3.525469905650659153e-02,1.014882836062905858e+00,-1.957880954028047293e-01,-3.909640797569038928e-01
5.166666666666666963e+00,1.642706704661692142e+09,-4.419000694812673380e-02,8.813674764126647881e-03,0.000000000000000000e+00,3.525469905650659153e-02,1.165297335042883020e+00,-2.020879944464551714e-01,-3.650956638831366341e-01
5.183333333333333570e+00,1.642706704676914215e+09,-4.301240696635789951e-02,8.012431603754229968e-04,0.000000000000000000e+00,3.204972641501691987e-03,1.309517555967971481e+00,-2.079415130962260772e-01,-3.374034985812265908e-01
5.200000000000000178e+00,1.642706704696004152e+09,-4.252126379003139806e-02,8.813674764126647881e-03,0.000000000000000000e+00,3.525469905650659153e-02,1.446566863018781568e+00,-2.133172845135963280e-01,-3.077713848674745734e-01
5.216666666666666785e+00,1.642706704710244179e+09,-4.274476795890444492e-02,8.813674764126647881e-03,0.000000000000000000e+00,3.525469905650659153e-02,1.575513744001356464e+00,-2.181854699638603179e-01,-2.764977424377858539e-01
5.233333333333333393e+00,1.642706704728663445e+09,-4.370606212063385398e-02,8.012431603754229968e-04,0.000000000000000000e+00,3.204972641501691987e-03,1.695478892486597999e+00,-2.225212846062763483e-01,-2.438905922012535865e-01
5.250000000000000000e+00,1.642706704743183851e+09,-4.542302587955834858e-02,8.813674764126647881e-03,0.000000000000000000e+00,3.525469905650659153e-02,1.805641920029772862e+00,-2.263018280072273403e-01,-2.098691222204042695e-01
5.266666666666666607e+00,1.642706704764035225e+09,-4.790810463690935855e-02,8.813674764126647881e-03,0.000000000000000000e+00,3.525469905650659153e-02,1.905247646031724695e+00,-2.295062883783312302e-01,-1.747636398360361831e-01
5.283333333333333215e+00,1.642706704778372526e+09,-5.116818399485201230e-02,8.813674764126647881e-03,0.000000000000000000e+00,3.525469905650659153e-02,1.993611915999245365e+00,-2.321183012460467376e-01,-1.387778671222644755e-01
5.299999999999999822e+00,1.642706704794392586e+09,-5.520451087953197333e-02,8.813674764126647881e-03,0.000000000000000000e+00,3.525469905650659153e-02,2.070126902544074277e+00,-2.341249533199621369e-01,-1.021222054265457369e-01
5.316666666666666430e+00,1.642706704814341307e+09,-6.001266211015913316e-02,8.813674764126647881e-03,0.000000000000000000e+00,3.525469905650659153e-02,2.134265847404208660e+00,-2.355168816941648480e-01,-6.501228501620411049e-02
5.333333333333333037e+00,1.642706704830298424e+09,-6.558256070620513412e-02,8.813674764126647881e-03,0.000000000000000000e+00,3.525469905650659153e-02,2.185587207043166558e+00,-2.362883485037844955e-01,-2.766747017646289941e-02
5.349999999999999645e+00,1.642706704848250389e+09,-7.189853978714069727e-02,8.813674764126647881e-03,0.000000000000000000e+00,3.525469905650659153e-02,2.223738168952555494e+00,-2.364372903873062925e-01,9.690669102336936513e-03
5.366666666666666252e+00,1.642706704863212347e+09,-7.893945348301062426e-02,8.813674764126647881e-03,0.000000000000000000e+00,3.525469905650659153e-02,2.248457510612451138e+00,-2.359653422932149469e-01,4.683990743118855021e-02
5.383333333333332860e+00,1.642706704881170034e+09,-8.667883384364996613e-02,8.813674764126647881e-03,0.000000000000000000e+00,3.525469905650659153e-02,2.259577778116711233e+00,-2.348778353614140724e-01,8.355892471406831112e-02
5.400000000000000355e+00,1.642706704899116516e+09,-9.508509231362920200e-02,8.813674764126647881e-03,0.000000000000000000e+00,3.525469905650659153e-02,2.257026766706022425e+00,-2.331837688041896450e-01,1.196288655146796887e-01
5.416666666666666963e+00,1.642706704917068958e+09,-1.041217639330629940e-01,8.813674764126647881e-03,0.000000000000000000e+00,3.525469905650659153e-02,2.240828290829635527e+00,-2.308957559067468801e-01,1.548348853771329692e-01
5.433333333333333570e+00,1.642706704934021235e+09,-1.137477920351083471e-01,8.813674764126647881e-03,0.000000000000000000e+00,3.525469905650659153e-02,2.211102236835090551e+00,-2.280299444620369209e-01,1.889676724590766410e-01
5.450000000000000178e+00,1.642706704953005314e+09,-1.239178508430093528e-01,8.813674764126647881e-03,0.000000000000000000e+00,3.525469905650659153e-02,2.168063896921093026e+00,-2.246059121471947473e-01,2.218249330056548119e-01
5.466666666666666785e+00,1.642706704968927622e+09,-1.345827030264229451e-01,8.813674764126647881e-03,0.000000000000000000e+00,3.525469905650659153e-02,2.112022588538551737e+00,-2.206465375379412508e-01,2.532128294514459643e-01
5.483333333333333393e+00,1.642706704986879826e+09,-1.456895889617181306e-01,8.813674764126647881e-03,0.000000000000000000e+00,3.525469905650659153e-02,2.043379568945169478e+00,-2.161778476412937744e-01,2.829473602832867640e-01
5.500000000000000000e+00,1.642706705001839876e+09,-1.571826441569782462e-01,8.813674764126647881e-03,0.000000000000000000e+00,3.525469905650659153e-02,1.962625260066773514e+00,-2.112288430044538257e-01,3.108556712269618383e-01
5.516666666666666607e+00,1.642706705021786213e+09,-1.690033410521900592e-01,8.813674764126647881e-03,0.000000000000000000e+00,3.525469905650659153e-02,1.870335804150939252e+00,-2.058313016274198048e-01,3.367772878318455732e-01
5.533333333333333215e+00,1.642706705037776470e+09,-1.810909511909932768e-01,8.813674764126647881e-03,0.000000000000000000e+00,3.525469905650659153e-02,1.767168975873644410e+00,-2.000195630673896052e-01,3.605652601157782189e-01
5.549999999999999822e+00,1.642706705056693792e+09,-1.933830235842807221e-01,8.813674764126647881e-03,0.000000000000000000e+00,3.525469905650659153e-02,1.653859481537200526e+00,-1.938302942731244816e-01,3.820872105932018870e-01
5.566666666666666430e+00,1.642706705070680618e+09,-2.058158749496424300e-01,8.813674764126647881e-03,0.000000000000000000e+00,3.525469905650659153e-02,1.531213680738452876e+00,-1.873022388259774629e-01,4.012262777377645362e-01
5.583333333333333037e+00,1.642706705086969614e+09,-2.183250874152278254e-01,8.813674764126647881e-03,0.000000000000000000e+00,3.525469905650659153e-02,1.400103770352961741e+00,-1.804759513901674217e-01,4.178819477205726329e-01
5.599999999999999645e+00,1.642706705105135918e+09,-2.308460092230573690e-01,8.813674764126647881e-03,0.000000000000000000e+00,3.525469905650659153e-02,1.261461474838954544e+00,-1.733935192871275399e-01,4.319707681109174469e-01
5.616666666666666252e+00,1.642706705120095968e+09,-2.433142539554479233e-01,8.813674764126647881e-03,0.000000000000000000e+00,3.525469905650659153e-02,1.116271290680958650e+00,-1.660982732064991141e-01,4.434269381210404481e-01
5.633333333333332860e+00,1.642706705138047934e+09,-2.556661938391649458e-01,8.012431603754229968e-04,0.000000000000000000e+00,3.204972641501691987e-03,9.655633362381808027e-01,-1.586355958298710234e-01,4.520703370677216504e-01
5.650000000000000355e+00,1.642706705155002594e+09,-2.678394427547227674e-01,8.813674764126647881e-03,0.000000000000000000e+00,3.525469905650659153e-02,8.104058613091915664e-01,-1.510503793815121398e-01,4.581387795539180741e-01
5.666666666666666963e+00,1.642706705171957254e+09,-2.797733246921865757e-01,8.012431603754229968e-04,0.000000000000000000e+00,3.204972641501691987e-03,6.518974733483661188e-01,-1.433878603400415008e-01,4.613545724542598148e-01
5.683333333333333570e+00,1.642706705188911915e+09,-2.914093235486833744e-01,8.813674764126647881e-03,0.000000000000000000e+00,3.525469905650659153e-02,4.911591394517532683e-01,-1.356932834949823308e-01,4.619928758461319673e-01
5.700000000000000178e+00,1.642706705206891298e+09,-3.026915103550313901e-01,8.813674764126647881e-03,0.000000000000000000e+00,3.525469905650659153e-02,3.293260249502025228e-01,-1.280105088933666257e-01,4.599457629064217512e-01
5.716666666666666785e+00,1.642706705222820997e+09,-3.135669442475428892e-01,8.813674764126647881e-03,0.000000000000000000e+00,3.525469905650659153e-02,1.675392306975040657e-01,-1.203839161652345419e-01,4.552583852693168343e-01
5.733333333333333393e+00,1.642706705239033461e+09,-3.239860437638292234e-01,8.813674764126647881e-03,0.000000000000000000e+00,3.525469905650659153e-02,6.937491904459691661e-03,-1.128569813670805000e-01,4.479939699156392230e-01
5.750000000000000000e+00,1.642706705256032467e+09,-3.339029253357284066e-01,8.813674764126647881e-03,0.000000000000000000e+00,3.525469905650659153e-02,-1.513510983523962961e-01,-1.054719796925487618e-01,4.382333445146363027e-01
5.766666666666666607e+00,1.642706705273272991e+09,-3.432757061754090344e-01,8.813674764126647881e-03,0.000000000000000000e+00,3.525469905650659153e-02,-3.062172780351231083e-01,-9.826969715959461837e-02,4.260743352604988710e-01
5.783333333333333215e+00,1.642706705288804293e+09,-3.520667690990253451e-01,8.813674764126647881e-03,0.000000000000000000e+00,3.525469905650659153e-02,-4.565786552529095821e-01,-9.128915336089823973e-02,4.116310417869894489e-01
5.799999999999999822e+00,1.642706705307922363e+09,-3.602429872026561841e-01,8.813674764126647881e-03,0.000000000000000000e+00,3.525469905650659153e-02,-6.013875365545674478e-01,-8.456733728013318685e-02,3.950329946763836975e-01
5.816666666666666430e+00,1.642706705323163986e+09,-3.677759066939585431e-01,8.813674764126647881e-03,0.000000000000000000e+00,3.525469905650659153e-02,-7.396384850469800432e-01,-7.813895807731838228e-02,3.764242019688546770e-01
5.833333333333333037e+00,1.642706705341917515e+09,-3.746418865862272130e-01,8.813674764126647881e-03,0.000000000000000000e+00,3.525469905650659153e-02,-8.703755511050988991e-01,-7.203621263269301134e-02,3.559620919185464416e-01
5.849999999999999645e+00,1.642706705358346939e+09,-3.808221943754503402e-01,8.813674764126647881e-03,0.000000000000000000e+00,3.525469905650659153e-02,-9.926991210072066973e-01,-6.628857151123344893e-02,3.338163600263688857e-01
5.866666666666666252e+00,1.642706705376220703e+09,-3.863030572413954089e-01,1.682610636787787092e-02,0.000000000000000000e+00,6.730442547151148369e-02,-1.105772331820964904e+00,-6.092147818901793438e-02,3.103001629466018985e-01
5.883333333333332860e+00,1.642706705390888691e+09,-3.910756687367347162e-01,8.813674764126647881e-03,0.000000000000000000e+00,3.525469905650659153e-02,-1.208827004259106497e+00,-5.595841405975352650e-02,2.853368766590878014e-01
5.900000000000000355e+00,1.642706705409866571e+09,-3.951361513495612043e-01,8.813674764126647881e-03,0.000000000000000000e+00,3.525469905650659153e-02,-1.301169048989467392e+00,-5.142071108968387233e-02,2.592599174519291116e-01
5.916666666666666963e+00,1.642706705424830675e+09,-3.984854757402852554e-01,8.813674764126647881e-03,0.000000000000000000e+00,3.525469905650659153e-02,-1.382183305995538847e+00,-4.732521207338431096e-02,2.322749245817726793e-01
5.933333333333333570e+00,1.642706705443796873e+09,-4.011293378598527193e-01,1.682610636787787092e-02,0.000000000000000000e+00,6.730442547151148369e-02,-1.451337781005688443e+00,-4.368418072711747341e-02,2.047253653248756744e-01
5.950000000000000178e+00,1.642706705457712173e+09,-4.030779955485234711e-01,8.813674764126647881e-03,0.000000000000000000e+00,3.525469905650659153e-02,-1.508187247709486201e+00,-4.050746230068637960e-02,1.765590873493552704e-01
5.966666666666666785e+00,1.642706705477683306e+09,-4.043460665893714445e-01,8.813674764126647881e-03,0.000000000000000000e+00,3.525469905650659153e-02,-1.552376189418700925e+00,-3.780239489882370602e-02,1.481279780365830079e-01
5.983333333333333393e+00,1.642706705493641853e+09,-4.049522905445949172e-01,8.813674764126647881e-03,0.000000000000000000e+00,3.525469905650659153e-02,-1.583641058971970716e+00,-3.557157071921895203e-02,1.196500307868475221e-01
6.000000000000000000e+00,1.642706705513589859e+09,-4.049192570322896478e-01,8.813674764126647881e-03,0.000000000000000000e+00,3.525469905650659153e-02,-1.601811840983704993e+00,-3.381395536297079896e-02,9.134244599360641370e-02
6.016666666666666607e+00,1.642706705528547287e+09,-4.042731034034028892e-01,8.813674764126647881e-03,0.000000000000000000e+00,3.525469905650659153e-02,-1.606812905958850513e+00,-3.252491397846344473e-02,6.342008408918699269e-02
6.033333333333333215e+00,1.642706705545524597e+09,-4.030431850503197189e-01,8.813674764126647881e-03,0.000000000000000000e+00,3.525469905650659153e-02,-1.598663151292651463e+00,-3.169626299362340166e-02,3.609394182887153829e-02
6.049999999999999822e+00,1.642706705564038515e+09,-4.012617218173389344e-01,4.333632417651421820e-01,5.660660893346873834e-01,3.525469905650659153e-02,-1.577475429705594845e+00,-3.125770795600814334e-02,1.658685032558206845e-02
6.066666666666666430e+00,1.642706705581508636e+09,-3.989634241870280151e-01,4.352136902593222167e-01,5.685333539935941705e-01,3.525469905650659153e-02,-1.543455271184746014e+00,-3.113662231476314879e-02,-2.004928331086654192e-03
6.083333333333333037e+00,1.642706705595286846e+09,-3.961851030831558540e-01,8.813674764126647881e-03,0.000000000000000000e+00,3.525469905650659153e-02,-1.496898909970243885e+00,-3.137529594044476816e-02,-2.656767529217365226e-02
6.099999999999999645e+00,1.642706705612175226e+09,-3.929652672591591456e-01,8.813674764126647881e-03,0.000000000000000000e+00,3.525469905650659153e-02,-1.438190633497571813e+00,-3.201184724683799054e-02,-4.975407329800450584e-02
6.116666666666666252e+00,1.642706705629009724e+09,-3.893437123297355251e-01,4.342884660122320883e-01,5.672997216641405549e-01,3.525469905650659153e-02,-1.367799475439105183e+00,-3.296314675079210776e-02,-6.436129061783160688e-02
6.133333333333332860e+00,1.642706705645668030e+09,-3.853611055514779005e-01,4.287371205296918730e-01,5.598979276874203048e-01,3.525469905650659153e-02,-1.286275280042856739e+00,-3.414538891266020310e-02,-7.747135111451626532e-02
6.150000000000000355e+00,1.642706705663116217e+09,-3.810585704661422213e-01,8.813674764126647881e-03,0.000000000000000000e+00,3.525469905650659153e-02,-1.194244169801296662e+00,-3.558960996770043489e-02,-9.578430497676219957e-02
6.166666666666666963e+00,1.642706705680634737e+09,-3.764772754872335869e-01,1.682610636787787092e-02,0.000000000000000000e+00,6.730442547151148369e-02,-1.092403453061863594e+00,-3.732134455445695886e-02,-1.119788595015721033e-01
6.183333333333333570e+00,1.642706705696807861e+09,-3.716580304376101984e-01,8.813674764126647881e-03,0.000000000000000000e+00,3.525469905650659153e-02,-9.815160124769957140e-01,-3.930654243576992696e-02,-1.262053672488069600e-01
6.200000000000000178e+00,1.642706705713921309e+09,-3.666408949335944745e-01,8.813674764126647881e-03,0.000000000000000000e+00,3.525469905650659153e-02,-8.624042191519077916e-01,-4.151043202686072880e-02,-1.382279867308458532e-01
6.216666666666666785e+00,1.642706705731031179e+09,-3.614648023609003391e-01,8.813674764126647881e-03,0.000000000000000000e+00,3.525469905650659153e-02,-7.359434209520808734e-01,-4.389557121056938960e-02,-1.479616766502697689e-01
6.233333333333333393e+00,1.642706705750280142e+09,-3.561672030011880929e-01,8.813674764126647881e-03,0.000000000000000000e+00,3.525469905650659153e-02,-6.030550566514474298e-01,-4.642323953030860761e-02,-1.553380313619859010e-01
6.250000000000000000e+00,1.642706705765651226e+09,-3.507837296472151034e-01,8.813674764126647881e-03,0.000000000000000000e+00,3.525469905650659153e-02,-4.646994504115481428e-01,-4.905371852408041411e-02,-1.603056486290044547e-01
6.266666666666666607e+00,1.642706705785030365e+09,-3.453478887916783813e-01,8.813674764126647881e-03,0.000000000000000000e+00,3.525469905650659153e-02,-3.218683434598902382e-01,-5.174657710543280331e-02,-1.628303678592481207e-01
6.283333333333333215e+00,1.642706705799165487e+09,-3.398907801926055461e-01,8.813674764126647881e-03,0.000000000000000000e+00,3.525469905650659153e-02,-1.755772217638817689e-01,-5.446095982241903888e-02,-1.628953775922578062e-01
6.299999999999999822e+00,1.642706705816268682e+09,-3.344408473094184764e-01,8.813674764126647881e-03,0.000000000000000000e+00,3.525469905650659153e-02,-2.685749996018158003e-02,-5.715587581359628938e-02,-1.605011920210148157e-01
6.316666666666666430e+00,1.642706705831369877e+09,-3.290236607718126649e-01,8.813674764126647881e-03,0.000000000000000000e+00,3.525469905650659153e-02,1.232513772120768514e-01,-5.979048628501017898e-02,-1.556654973499975447e-01
6.333333333333333037e+00,1.642706705851514101e+09,-3.236617366916760274e-01,8.813674764126647881e-03,0.000000000000000000e+00,3.525469905650659153e-02,2.737098542214755348e-01,-6.232438835388229986e-02,-1.484228697980320422e-01
6.349999999999999645e+00,1.642706705866166592e+09,-3.183743912600889292e-01,8.813674764126647881e-03,0.000000000000000000e+00,3.525469905650659153e-02,4.234861430254143189e-01,-6.471789314314267683e-02,-1.388243680456126561e-01
6.366666666666666252e+00,1.642706705884359598e+09,-3.131776326906946517e-01,8.813674764126647881e-03,0.000000000000000000e+00,3.525469905650659153e-02,5.715639990178225105e-01,-6.693229606569123247e-02,-1.269370038933649580e-01
6.383333333333332860e+00,1.642706705899615049e+09,-3.080840911812673388e-01,8.813674764126647881e-03,0.000000000000000000e+00,3.525469905650659153e-02,7.169503342879318675e-01,-6.893013730786605453e-02,-1.128430958336558293e-01
6.400000000000000355e+00,1.642706705917220831e+09,-3.031029871710926304e-01,8.813674764126647881e-03,0.000000000000000000e+00,3.525469905650659153e-02,8.586826092578656588e-01,-7.067545060745354657e-02,-9.663951113370179702e-02
6.416666666666666963e+00,1.642706705933321953e+09,-2.982401377767874839e-01,8.813674764126647881e-03,0.000000000000000000e+00,3.525469905650659153e-02,9.958359456521902464e-01,-7.213399852198733309e-02,-7.843680287889606695e-02
6.433333333333333570e+00,1.642706705950274706e+09,-2.934980008973465115e-01,8.813674764126647881e-03,0.000000000000000000e+00,3.525469905650659153e-02,1.127529906084673295e+00,-7.327349249722804603e-02,-5.835824922284202354e-02
6.450000000000000178e+00,1.642706705968219757e+09,-2.888757560945258707e-01,8.813674764126647881e-03,0.000000000000000000e+00,3.525469905650659153e-02,1.252934888307916994e+00,-7.406379617266596604e-02,-3.653880282953669845e-02
6.466666666666666785e+00,1.642706705984917164e+09,-2.843694209809457529e-01,8.813674764126647881e-03,0.000000000000000000e+00,3.525469905650659153e-02,1.371278085337066521e+00,-7.447711049961507068e-02,-1.312395916756770031e-02
6.483333333333333393e+00,1.642706706000666857e+09,-2.799720014892714826e-01,8.813674764126647881e-03,0.000000000000000000e+00,3.525469905650659153e-02,1.481848966205025375e+00,-7.448813939685078322e-02,1.173144707915388385e-02
6.500000000000000000e+00,1.642706706017329693e+09,-2.756736740551076759e-01,1.682610636787787092e-02,0.000000000000000000e+00,6.730442547151148369e-02,1.584004236004874056e+00,-7.407312814653235766e-02,3.799694153504799138e-02
6.516666666666666607e+00,1.642706706035041094e+09,-2.714619974271675340e-01,8.813674764126647881e-03,0.000000000000000000e+00,3.525469905650659153e-02,1.677172238093040502e+00,-7.321222472859685582e-02,6.523580333139861187e-02
6.533333333333333215e+00,1.642706706053982973e+09,-2.673221515240802870e-01,8.813674764126647881e-03,0.000000000000000000e+00,3.525469905650659153e-02,1.760856765832883752e+00,-7.188954397717729761e-02,9.340762992326256953e-02
6.549999999999999822e+00,1.642706706070037127e+09,-2.632372004906897711e-01,8.813674764126647881e-03,0.000000000000000000e+00,3.525469905650659153e-02,1.834640256014133941e+00,-7.009103287682613703e-02,1.223333510025490789e-01
6.566666666666666430e+00,1.642706706085365772e+09,-2.591883768706012003e-01,8.813674764126647881e-03,0.000000000000000000e+00,3.525469905650659153e-02,1.898186341053290427e+00,-6.780564464320883167e-02,1.518312963658887127e-01
6.583333333333333037e+00,1.642706706103460789e+09,-2.551553836083012006e-01,8.813674764126647881e-03,0.000000000000000000e+00,3.525469905650659153e-02,1.951241742222580289e+00,-6.502537021931879824e-02,1.817186122251104596e-01
6.599999999999999645e+00,1.642706706121086597e+09,-2.511167104253768656e-01,8.813674764126647881e-03,0.000000000000000000e+00,3.525469905650659153e-02,1.993637491430277020e+00,-6.174524619338628978e-02,2.118126743024180136e-01
6.616666666666666252e+00,1.642706706136166811e+09,-2.470499609828845089e-01,8.813674764126647881e-03,0.000000000000000000e+00,3.525469905650659153e-02,2.025289474440793214e+00,-5.796333928534867092e-02,2.419324865477957276e-01
6.633333333333332860e+00,1.642706706157118559e+09,-2.429321871469561911e-01,8.813674764126647881e-03,0.000000000000000000e+00,3.525469905650659153e-02,2.046198293836492432e+00,-5.368070773348317115e-02,2.719000544726072333e-01
6.649999999999999467e+00,1.642706706172072411e+09,-2.387402266181951893e-01,8.813674764126647881e-03,0.000000000000000000e+00,3.525469905650659153e-02,2.056448455441285184e+00,-4.890134009420348676e-02,3.015417223367510835e-01
6.666666666666666963e+00,1.642706706189033270e+09,-2.344510401677790956e-01,8.813674764126647881e-03,0.000000000000000000e+00,3.525469905650659153e-02,2.056206887306475828e+00,-4.363207214465512213e-02,3.306894637550460980e-01
6.683333333333333570e+00,1.642706706209943056e+09,-2.300420447445750138e-01,8.813674764126647881e-03,0.000000000000000000e+00,3.525469905650659153e-02,2.045720805658247432e+00,-3.788248274821992556e-02,3.591821156989837838e-01
6.700000000000000178e+00,1.642706706222942352e+09,-2.254914387776233153e-01,8.813674764126647881e-03,0.000000000000000000e+00,3.525469905650659153e-02,2.025314947382980346e+00,-3.166476970601619229e-02,3.868665463592318443e-01
6.716666666666666785e+00,1.642706706239899635e+09,-2.207785160964449711e-01,8.813674764126647881e-03,0.000000000000000000e+00,3.525469905650659153e-02,1.995388193638645502e+00,-2.499360677167793837e-02,4.135987478982731114e-01
6.733333333333333393e+00,1.642706706256852627e+09,-2.158839650266372590e-01,8.813674764126647881e-03,0.000000000000000000e+00,3.525469905650659153e-02,1.956409613990063967e+00,-1.788598315090775270e-02,4.392448457567394438e-01
6.750000000000000000e+00,1.642706706272831202e+09,-2.107901493887456290e-01,8.813674764126647881e-03,0.000000000000000000e+00,3.525469905650659153e-02,1.908913965032615678e+00,-1.036102694039563177e-02,4.636820168761730532e-01
6.766666666666666607e+00,1.642706706292219162e+09,-2.054813683325777962e-01,8.813674764126647881e-03,0.000000000000000000e+00,3.525469905650659153e-02,1.853496681759200015e+00,-2.439814081645431953e-03,4.867993099594782880e-01
6.783333333333333215e+00,1.642706706306401014e+09,-1.999440921748833755e-01,8.813674764126647881e-03,0.000000000000000000e+00,3.525469905650659153e-02,1.790808403902941937e+00,5.854835486887175616e-03,5.084983617020635283e-01
6.799999999999999822e+00,1.642706706325466156e+09,-1.941671716731475650e-01,8.813674764126647881e-03,0.000000000000000000e+00,3.525469905650659153e-02,1.721549083123684820e+00,1.449857270199787773e-02,5.286940037850830221e-01
6.816666666666666430e+00,1.642706706340450764e+09,-1.881420184593885769e-01,8.813674764126647881e-03,0.000000000000000000e+00,3.525469905650659153e-02,1.646461720169685394e+00,2.346574341562638472e-02,5.473147563203514254e-01
6.833333333333333037e+00,1.642706706359280348e+09,-1.818627546723379229e-01,8.813674764126647881e-03,0.000000000000000000e+00,3.525469905650659153e-02,1.566325784012469580e+00,3.272961968172374836e-02,5.643032043671973863e-01
6.849999999999999645e+00,1.642706706377003908e+09,-1.753263301608979918e-01,8.813674764126647881e-03,0.000000000000000000e+00,3.525469905650659153e-02,1.481950367399456292e+00,4.226263632103741119e-02,5.796162550972767669e-01
6.866666666666666252e+00,1.642706706393152714e+09,-1.685326059829398704e-01,8.813674764126647881e-03,0.000000000000000000e+00,3.525469905650659153e-02,1.394167135276759506e+00,5.203663076248936370e-02,5.932252741565062770e-01
6.883333333333332860e+00,1.642706706408139706e+09,-1.614844032875980551e-01,8.813674764126647881e-03,0.000000000000000000e+00,3.525469905650659153e-02,1.303823124087922558e+00,6.202308414385437896e-02,6.051161007560087457e-01
6.899999999999999467e+00,1.642706706425115108e+09,-1.541875170426439956e-01,8.813674764126647881e-03,0.000000000000000000e+00,3.525469905650659153e-02,1.211773451041261218e+00,7.219336165486998913e-02,6.152889420084162175e-01
6.916666666666666963e+00,1.642706706444075584e+09,-1.466506944472626695e-01,8.813674764126647881e-03,0.000000000000000000e+00,3.525469905650659153e-02,1.118873993050355065e+00,8.251895012269079566e-02,6.237581480041700654e-01
6.933333333333333570e+00,1.642706706462027788e+09,-1.388855782508457981e-01,8.813674764126647881e-03,0.000000000000000000e+00,3.525469905650659153e-02,1.025974095185046231e+00,9.297169087256861031e-02,6.305518700867784876e-01
6.950000000000000178e+00,1.642706706478980064e+09,-1.309066155763164430e-01,8.813674764126647881e-03,0.000000000000000000e+00,3.525469905650659153e-02,9.339093681230336008e-01,1.035240059454998612e-01,6.357116057286332778e-01
6.966666666666666785e+00,1.642706706498880625e+09,-1.227309332180638035e-01,8.813674764126647881e-03,0.000000000000000000e+00,3.525469905650659153e-02,8.434946332678605607e-01,1.141491158189080757e-01,6.392916343224248621e-01
6.983333333333333393e+00,1.642706706510886192e+09,-1.143781807460817063e-01,8.813674764126647881e-03,0.000000000000000000e+00,3.525469905650659153e-02,7.555170729048787948e-01,1.248212468556748334e-01,6.413583490801415543e-01
7.000000000000000000e+00,1.642706706531782150e+09,-1.058703430955421215e-01,8.813674764126647881e-03,0.000000000000000000e+00,3.525469905650659153e-02,6.707296410135192843e-01,1.355158268003306410e-01,6.419894910651131603e-01
7.016666666666666607e+00,1.642706706545743704e+09,-9.723152465132137157e-02,8.813674764126647881e-03,0.000000000000000000e+00,3.525469905650659153e-02,5.898447881554790273e-01,1.462096667481874723e-01,6.412732921659164420e-01
7.033333333333333215e+00,1.642706706561865568e+09,-8.848770714643067192e-02,8.813674764126647881e-03,0.000000000000000000e+00,3.525469905650659153e-02,5.135285512328664481e-01,1.568811281327503193e-01,6.393075345479701799e-01
7.049999999999999822e+00,1.642706706578919649e+09,-7.966648397878590970e-02,8.813674764126647881e-03,0.000000000000000000e+00,3.525469905650659153e-02,4.423950558788989351e-01,1.675102734078985911e-01,6.361985347835390492e-01
7.066666666666666430e+00,1.642706706595161915e+09,-7.079677380926277519e-02,8.012431603754229968e-04,0.000000000000000000e+00,3.204972641501691987e-03,3.770014758306194924e-01,1.780778925619482533e-01,6.319276276126726266e-01
7.083333333333333037e+00,1.642706706608286619e+09,-6.190851653289654311e-02,8.813674764126647881e-03,0.000000000000000000e+00,3.525469905650659153e-02,3.178434898664552755e-01,1.885678555801578726e-01,6.268819506716393208e-01
7.099999999999999645e+00,1.642706706626226425e+09,-5.303235491197888507e-02,8.813674764126647881e-03,0.000000000000000000e+00,3.525469905650659153e-02,2.653512728005340549e-01,1.989671706428871034e-01,6.210520514016544258e-01
7.116666666666666252e+00,1.642706706643898249e+09,-4.419930532267345863e-02,8.813674764126647881e-03,0.000000000000000000e+00,3.525469905650659153e-02,2.198860526450077124e-01,2.092638462674856481e-01,6.145670379005414574e-01
7.133333333333332860e+00,1.642706706662110090e+09,-3.544042119387635914e-02,4.851757996021848762e-01,6.351494997840776424e-01,3.525469905650659153e-02,1.817372614142693799e-01,2.195138602913266068e-01,6.154322415603080687e-01
7.149999999999999467e+00,1.642706706675711632e+09,-2.678645280700948927e-02,4.870262480963649665e-01,6.376167644429843184e-01,3.525469905650659153e-02,1.511203021904465871e-01,2.297742016289868183e-01,6.158076760607613664e-01
7.166666666666666963e+00,1.642706706696705341e+09,-1.826750717738669441e-02,4.749983328841943520e-01,6.215795441600903137e-01,3.525469905650659153e-02,1.281749500346716086e-01,2.400359178279812267e-01,6.155988479104147482e-01
7.183333333333333570e+00,1.642706706710237741e+09,-9.912711750992940843e-03,4.558832103153624971e-01,6.067759562066493695e-01,3.204972641501691987e-03,1.129643991555855376e-01,2.502894413221073422e-01,6.148261179074711036e-01
7.200000000000000178e+00,1.642706706726339817e+09,-1.749885624914980509e-03,4.592695206836633903e-01,6.006077945593822909e-01,3.525469905650659153e-02,1.054749634753695542e-01,2.605296259869892550e-01,6.139983413119064481e-01
7.216666666666666785e+00,1.642706706744816303e+09,6.194778064629188896e-03,5.221847694857867372e-01,6.844947929622134941e-01,3.525469905650659153e-02,1.056164324075525851e-01,2.707648381335117649e-01,6.142264825302728992e-01
7.233333333333333393e+00,1.642706706759260893e+09,1.389701504510632013e-02,5.110820785207064176e-01,6.696912050087729940e-01,3.525469905650659153e-02,1.132230783220578019e-01,2.810033382472079677e-01,6.143930683639561297e-01
7.250000000000000000e+00,1.642706706776999235e+09,2.133477469923105579e-02,5.009046118027159489e-01,6.561212493847856653e-01,3.525469905650659153e-02,1.280553068642948933e-01,2.912452347005728415e-01,6.146338372217080570e-01
7.266666666666666607e+00,1.642706706794007778e+09,2.848848351841150317e-02,5.388388059334079383e-01,7.067001748923750215e-01,3.525469905650659153e-02,1.498019360592814930e-01,3.014993538582155796e-01,6.158570637639434464e-01
7.283333333333333215e+00,1.642706706810995817e+09,3.534128420048743280e-02,5.749225515699196709e-01,7.548118357410572576e-01,3.525469905650659153e-02,1.780830850104906382e-01,3.117825812835918753e-01,6.181239302815739745e-01
7.299999999999999822e+00,1.642706706827358961e+09,4.187924761538190654e-02,5.147829755090664872e-01,6.746257343265864570e-01,3.525469905650659153e-02,2.124536480375958103e-01,3.220997174879226543e-01,6.199274044696875263e-01
7.316666666666666430e+00,1.642706706844741344e+09,4.809155513316133029e-02,5.194090967445168516e-01,6.807938959738536466e-01,3.525469905650659153e-02,2.524073253269720762e-01,3.324528198826501857e-01,6.224379091094848215e-01
7.333333333333333037e+00,1.642706706859593630e+09,5.397064910664037957e-02,4.352136902593222167e-01,5.685333539935941705e-01,3.525469905650659153e-02,2.973811766325588080e-01,3.428419999684489961e-01,6.242586434718840893e-01
7.349999999999999645e+00,1.642706706879617214e+09,5.951234962237995918e-02,4.259614477884215988e-01,5.561970306990599022e-01,3.525469905650659153e-02,3.467606602979332875e-01,3.532668165407919503e-01,6.267125287009803758e-01
7.366666666666666252e+00,1.642706706894532204e+09,6.471593597624017424e-02,4.287371205296918730e-01,5.598979276874203048e-01,3.525469905650659153e-02,3.998851159083346429e-01,3.637399132220547338e-01,6.300498026270180407e-01
7.383333333333332860e+00,1.642706706912505388e+09,6.958419168929241838e-02,4.666713146603839180e-01,6.104768531950097721e-01,3.525469905650659153e-02,4.560536452549269759e-01,3.742811677045995156e-01,6.348872974763951627e-01
7.399999999999999467e+00,1.642706706930532217e+09,7.412341225321217308e-02,8.813674764126647881e-03,0.000000000000000000e+00,3.525469905650659153e-02,5.145313430322814297e-01,3.848472163872136420e-01,6.330436657570545078e-01
7.416666666666666963e+00,1.642706706946469307e+09,7.834337517749397073e-02,8.813674764126647881e-03,0.000000000000000000e+00,3.525469905650659153e-02,5.745558258201225454e-01,3.953910831293515615e-01,6.322226240246540119e-01
7.433333333333333570e+00,1.642706706964420319e+09,8.225727230011281588e-02,4.512570890799121881e-01,6.006077945593822909e-01,3.204972641501691987e-03,6.353440054444632334e-01,4.059908858441629853e-01,6.397328395519155109e-01
7.450000000000000178e+00,1.642706706980475664e+09,8.588160471468697654e-02,4.497212272057909965e-01,6.092432208655561565e-01,-2.884475377350440711e-02,6.960990507915453263e-01,4.167230008862160551e-01,6.480977291431513354e-01
7.466666666666666785e+00,1.642706706998695612e+09,8.923604105677808429e-02,3.997591178629283371e-01,5.426270750750725735e-01,-2.884475377350440711e-02,7.560174805766153305e-01,4.275947505640129154e-01,6.564889227726802279e-01
7.483333333333333393e+00,1.642706707014798403e+09,9.234324027573827254e-02,-1.522362004712732655e-02,0.000000000000000000e+00,-6.089448018850930622e-02,8.142963284614067598e-01,4.385559263538422736e-01,6.588456254564222236e-01
7.500000000000000000e+00,1.642706707031773090e+09,9.522864039271050629e-02,-7.211188443376101778e-03,0.000000000000000000e+00,-2.884475377350440711e-02,8.701403212772675921e-01,4.495648748939867212e-01,6.622188291301759344e-01
7.516666666666666607e+00,1.642706707048982382e+09,9.792021510594668687e-02,-1.522362004712732655e-02,0.000000000000000000e+00,-6.089448018850930622e-02,9.227690109527824092e-01,4.606357400066129482e-01,6.662737205326438872e-01
7.533333333333333215e+00,1.642706707065029144e+09,1.004482004481362933e-01,-1.522362004712732655e-02,0.000000000000000000e+00,-6.089448018850930622e-02,9.714238010634486109e-01,4.717803468028772818e-01,6.710657834199849070e-01
7.549999999999999822e+00,1.642706707082449913e+09,1.028447940231746321e-01,-2.323605165087885144e-02,0.000000000000000000e+00,-9.294420660351540575e-02,1.015374809718105675e+00,4.830091232860081463e-01,6.763726529046412139e-01
7.566666666666666430e+00,1.642706707099749327e+09,1.051438296485773805e-01,-2.323605165087885144e-02,0.000000000000000000e+00,-9.294420660351540575e-02,1.053927511761878932e+00,4.943309395248650651e-01,6.822290276676342691e-01
7.583333333333333037e+00,1.642706707115169764e+09,1.073804305014076643e-01,-1.522362004712732655e-02,0.000000000000000000e+00,-6.089448018850930622e-02,1.086429105003299922e+00,5.057551489416943769e-01,6.886582430000744992e-01
7.599999999999999645e+00,1.642706707132116556e+09,1.095906441072918430e-01,-2.323605165087885144e-02,0.000000000000000000e+00,-9.294420660351540575e-02,1.112274547345060371e+00,5.172880870453092639e-01,6.952759464913625953e-01
7.616666666666666252e+00,1.642706707147430420e+09,1.118110627214289610e-01,-2.323605165087885144e-02,0.000000000000000000e+00,-9.294420660351540575e-02,1.130912214301731389e+00,5.289329804104637711e-01,7.020923225037223325e-01
7.633333333333332860e+00,1.642706707165270805e+09,1.140784328250386281e-01,-2.323605165087885144e-02,0.000000000000000000e+00,-9.294420660351540575e-02,1.141849129398360585e+00,5.406920491734052980e-01,7.089768050365722329e-01
7.649999999999999467e+00,1.642706707185234308e+09,1.164292575988333245e-01,-3.124848325463007448e-02,0.000000000000000000e+00,-1.249939330185202979e-01,1.144655723341139186e+00,5.525641893908364022e-01,7.156614521539162999e-01
7.666666666666666963e+00,1.642706707200226307e+09,1.188993963350437749e-01,-3.124848325463007448e-02,0.000000000000000000e+00,-1.249939330185202979e-01,1.138970081605595874e+00,5.645460318030878222e-01,7.221416363808477179e-01
7.683333333333333570e+00,1.642706707217464209e+09,1.215236648103992373e-01,-3.124848325463007448e-02,0.000000000000000000e+00,-1.249939330185202979e-01,1.124501644170748715e+00,5.766329838517113560e-01,7.282755703474927955e-01
7.700000000000000178e+00,1.642706707234740257e+09,1.243354406633055964e-01,-3.124848325463007448e-02,0.000000000000000000e+00,-1.249939330185202979e-01,1.101034325506565992e+00,5.888180795933287692e-01,7.339202386434076075e-01
7.716666666666666785e+00,1.642706707252091646e+09,1.273662777990610950e-01,-3.926091485838159589e-02,0.000000000000000000e+00,-1.570436594335263836e-01,1.068429027561709210e+00,6.010908633544042035e-01,7.388002567607209192e-01
7.733333333333333393e+00,1.642706707269420385e+09,1.306455337872872435e-01,-5.528577806588434729e-02,0.000000000000000000e+00,-2.211431122635373892e-01,1.026625523362512116e+00,6.134363194372699501e-01,7.426437964327989860e-01
7.750000000000000000e+00,1.642706707283823013e+09,1.342000141162458249e-01,3.674133404409510861e-01,5.635988246757805964e-01,-2.211431122635373892e-01,9.756436938835105765e-01,6.258966454204897278e-01,7.525677543549869064e-01
7.766666666666666607e+00,1.642706707303122520e+09,1.380536370303308558e-01,-6.329820966963557727e-02,0.000000000000000000e+00,-2.531928386785423091e-01,9.155841060443959956e-01,6.384532144459383884e-01,7.542159502691175854e-01
7.783333333333333215e+00,1.642706707317829370e+09,1.422271225007836759e-01,-7.131064127338709868e-02,0.000000000000000000e+00,-2.852425650935483947e-01,8.466279249866215384e-01,6.510263948104613174e-01,7.545647246331486091e-01
7.799999999999999822e+00,1.642706707336105347e+09,1.467377086674636621e-01,-7.131064127338709868e-02,0.000000000000000000e+00,-2.852425650935483947e-01,7.690361591431021937e-01,6.635946228947477987e-01,7.536252551800239896e-01
7.816666666666666430e+00,1.642706707354289293e+09,1.515988988429898543e-01,-7.932307287713831478e-02,0.000000000000000000e+00,-3.172922915085532591e-01,6.831482419931297345e-01,6.761343533517817361e-01,7.511492775415898882e-01
7.833333333333333037e+00,1.642706707371032238e+09,1.568202418923253516e-01,-7.932307287713831478e-02,0.000000000000000000e+00,-3.172922915085532591e-01,5.893799597498718956e-01,6.886202081761775284e-01,7.471643708317395882e-01
7.849999999999999645e+00,1.642706707388842821e+09,1.624071484933552745e-01,-7.932307287713831478e-02,0.000000000000000000e+00,-3.172922915085532591e-01,4.882207395157031060e-01,7.010262261240713944e-01,7.415733139944885588e-01
7.866666666666666252e+00,1.642706707403286457e+09,1.683607454502275558e-01,-8.733550448088985008e-02,0.000000000000000000e+00,-3.493420179235594003e-01,3.802303176199770540e-01,7.133238096588970789e-01,7.341573106786476455e-01
7.883333333333332860e+00,1.642706707420263290e+09,1.746777698743898488e-01,-9.534793608464106618e-02,0.000000000000000000e+00,-3.813917443385642647e-01,2.660348128825948955e-01,7.254819380193914258e-01,7.248439635981192009e-01
7.899999999999999467e+00,1.642706707435854673e+09,1.813505046716827884e-01,-1.365060022256697314e+00,-1.682266206091072913e+00,-4.134414707535703504e-01,1.463222343849285290e-01,7.372942222647224098e-01,6.927193828882587390e-01
7.916666666666666963e+00,1.642706707456245661e+09,1.883667563813828383e-01,-1.033603676883925876e-01,0.000000000000000000e+00,-4.134414707535703504e-01,2.183745793853075767e-02,7.487326065810763209e-01,6.799222834094071910e-01
7.933333333333333570e+00,1.642706707474881649e+09,1.957098760082476852e-01,-9.534793608464106618e-02,0.000000000000000000e+00,-3.813917443385642647e-01,-1.066232902152747242e-01,7.599428370662992815e-01,6.653458658191856445e-01
7.950000000000000178e+00,1.642706707489474535e+09,2.033588230756518400e-01,-1.033603676883925876e-01,0.000000000000000000e+00,-4.134414707535703504e-01,-2.382183999002859265e-01,7.708928578971596668e-01,6.487028655285139722e-01
7.966666666666666785e+00,1.642706707509669542e+09,2.112882727105043768e-01,-1.273976624996465690e-01,0.000000000000000000e+00,-5.095906499985862759e-01,-3.720672474123782880e-01,7.815459868165883783e-01,6.297253214438848223e-01
7.983333333333333393e+00,1.642706707526911736e+09,2.194687651531584682e-01,-1.434225257071493065e-01,0.000000000000000000e+00,-5.736901028285972259e-01,-5.072569202109307174e-01,7.918645586953000359e-01,6.085620921332052236e-01
8.000000000000000000e+00,1.642706707544834852e+09,2.278668966719013811e-01,-1.514349573109008418e-01,0.000000000000000000e+00,-6.057398292436033671e-01,-6.428492433138052187e-01,8.018134984009178678e-01,5.853750824171756184e-01
8.016666666666665719e+00,1.642706707559794903e+09,2.364455504558692911e-01,-1.514349573109008418e-01,0.000000000000000000e+00,-6.057398292436033671e-01,-7.778880522737973147e-01,8.113605389182794170e-01,5.603393250734024500e-01
8.033333333333333215e+00,1.642706707578648567e+09,2.451641656665356495e-01,-1.594473889146520718e-01,0.000000000000000000e+00,-6.377895556586082870e-01,-9.114066555105378997e-01,8.204742264273890973e-01,5.333780701572061744e-01
8.050000000000000711e+00,1.642706707594254971e+09,2.539790424498806209e-01,-1.754722521221548093e-01,0.000000000000000000e+00,-7.018890084886192371e-01,-1.042435427117468727e+00,8.291219724684614212e-01,5.044318627954734735e-01
8.066666666666666430e+00,1.642706707609556913e+09,2.628436803530075361e-01,-1.754722521221548093e-01,0.000000000000000000e+00,-7.018890084886192371e-01,-1.170009470077033154e+00,8.372736591943062967e-01,4.738554806996421731e-01
8.083333333333333925e+00,1.642706707628495455e+09,2.717091472535851926e-01,-1.914971153296575745e-01,0.000000000000000000e+00,-7.659884613186302982e-01,-1.293176289104465804e+00,8.449007375524361096e-01,4.414838456009435586e-01
8.099999999999999645e+00,1.642706707645883799e+09,2.805244756015865537e-01,-2.075219785371603121e-01,0.000000000000000000e+00,-8.300879141486412482e-01,-1.411003412110787947e+00,8.519742721421892373e-01,4.074348878337246682e-01
8.116666666666667140e+00,1.642706707660454750e+09,2.892370824934322737e-01,-2.155344101409115420e-01,0.000000000000000000e+00,-8.621376405636461682e-01,-1.522585899528909659e+00,8.584685084516352482e-01,3.719719796964483516e-01
8.133333333333332860e+00,1.642706707676934481e+09,2.977932098514433079e-01,-2.315592733484142796e-01,0.000000000000000000e+00,-9.262370933936571182e-01,-1.627053681483242586e+00,8.643599519424214339e-01,3.351036536251346121e-01
8.150000000000000355e+00,1.642706707696343899e+09,3.061383807693047188e-01,-1.975409928232398915e+00,-2.293084480096973632e+00,-1.022386272638674320e+00,-1.723578663996526483e+00,8.693878220022804859e-01,2.684259736947934849e-01
8.166666666666666075e+00,1.642706707713247776e+09,3.142178679087260784e-01,-2.716214313671713176e-01,0.000000000000000000e+00,-1.086485725468685271e+00,-1.811381547109019330e+00,8.735368076903579082e-01,2.295602716987795722e-01
8.183333333333333570e+00,1.642706707729645967e+09,3.219771696959886076e-01,-2.956587261784252574e-01,0.000000000000000000e+00,-1.182634904713701030e+00,-1.889738299922010256e+00,8.770292571117047631e-01,1.896445385090921310e-01
8.199999999999999289e+00,1.642706707745913267e+09,3.293624899704762909e-01,-3.116835893859280504e-01,0.000000000000000000e+00,-1.246734357543712202e+00,-1.957986240153029689e+00,8.798503176925478453e-01,1.489956474359331318e-01
8.216666666666666785e+00,1.642706707764312267e+09,3.363212166821299420e-01,-3.277084525934307879e-01,0.000000000000000000e+00,-1.310833810373723152e+00,-2.015529668784622253e+00,8.819893499114452862e-01,1.078026465274014856e-01
8.233333333333332504e+00,1.642706707782211542e+09,3.428023952212678194e-01,-3.357208841971823232e-01,0.000000000000000000e+00,-1.342883536788729293e+00,-2.061845013778627500e+00,8.834400179334284120e-01,6.639254687248814790e-02
8.250000000000000000e+00,1.642706707798169136e+09,3.487571919929303710e-01,-3.517457474046850607e-01,0.000000000000000000e+00,-1.406982989618740243e+00,-2.096485440586843829e+00,8.841992392963189396e-01,2.482947237640542593e-02
8.266666666666665719e+00,1.642706707815518379e+09,3.541393439184239433e-01,-3.677706106121877982e-01,0.000000000000000000e+00,-1.471082442448751193e+00,-2.119084891288616213e+00,8.842661486540200899e-01,-1.668502867964244407e-02
8.283333333333333215e+00,1.642706707832058191e+09,3.589055896586370586e-01,-3.677706106121877982e-01,0.000000000000000000e+00,-1.471082442448751193e+00,-2.129361518592160607e+00,8.836454642514965929e-01,-5.768321309719141171e-02
8.300000000000000711e+00,1.642706707848925591e+09,3.630160785058931250e-01,-3.757830422159390005e-01,0.000000000000000000e+00,-1.503132168863756002e+00,-2.127120485617328693e+00,8.823463423165776032e-01,-9.809914995949350902e-02
8.316666666666666430e+00,1.642706707867405176e+09,3.664347530822542054e-01,1.886329787122285884e-02,5.475616043928861476e-01,-1.567231621693767174e+00,-2.112256107293873253e+00,8.804357655280802275e-01,-1.310784533280403563e-01
8.333333333333333925e+00,1.642706707884428024e+09,3.691297022105505810e-01,-3.918079054234417935e-01,0.000000000000000000e+00,-1.567231621693767174e+00,-2.084753314324499840e+00,8.779271653892533056e-01,-1.698458735183457913e-01
8.349999999999999645e+00,1.642706707901486874e+09,3.710734805878119769e-01,-3.998203370271932733e-01,0.000000000000000000e+00,-1.599281348108773093e+00,-2.044688425934721998e+00,8.747822232573330137e-01,-2.074427441024574159e-01
8.366666666666667140e+00,1.642706707917971611e+09,3.722433921868263385e-01,-4.078327686309445310e-01,0.000000000000000000e+00,-1.631331074523778124e+00,-1.992229223020562490e+00,8.710219985244334051e-01,-2.436835525637495725e-01
8.383333333333332860e+00,1.642706707935622931e+09,3.726217346373794648e-01,-4.158452002346960663e-01,0.000000000000000000e+00,-1.663380800938784265e+00,-1.927634318768520316e+00,8.666705811150818839e-01,-2.783901271377850484e-01
8.400000000000000355e+00,1.642706707950987816e+09,3.721960021913593430e-01,8.704366766319502485e-03,5.660660893346873834e-01,-1.663380800938784265e+00,-1.851251829316431285e+00,8.618147034711488574e-01,-3.042433738696872503e-01
8.416666666666666075e+00,1.642706707968950748e+09,3.709590452519098691e-01,1.827119585727907808e-02,5.895051035943017492e-01,-1.695430527353789074e+00,-1.763517352505604263e+00,8.565449485499444515e-01,-3.280610548926216063e-01
8.433333333333333570e+00,1.642706707988974094e+09,3.689091848426878095e-01,5.096863112549010477e-02,6.437849260902515081e-01,-1.727480253768793883e+00,-1.664951268201456447e+00,8.508996521711651440e-01,-3.493154691317750249e-01
8.449999999999999289e+00,1.642706708005748272e+09,3.660502808052524815e-01,1.006521782627544824e-03,5.771687802997680361e-01,-1.727480253768793883e+00,-1.556155378987496229e+00,8.449111773763987587e-01,-3.692461419570898240e-01
8.466666666666666785e+00,1.642706708022359848e+09,3.623917529366742496e-01,-4.398824950459500061e-01,0.000000000000000000e+00,-1.759529980183800024e+00,-1.437808915226172823e+00,8.385487277973168174e-01,-3.941785492158766391e-01
8.483333333333332504e+00,1.642706708041463137e+09,3.579485547117722821e-01,-4.398824950459500061e-01,0.000000000000000000e+00,-1.759529980183800024e+00,-1.310663933485828547e+00,8.317917431021059071e-01,-4.165973383295287213e-01
8.500000000000000000e+00,1.642706708056554794e+09,3.527410996705311330e-01,-1.709594581218006004e+00,-1.682266206091072913e+00,-1.791579706598805055e+00,-1.175540142119507525e+00,8.245074985146007007e-01,-4.573986724643154256e-01
8.516666666666665719e+00,1.642706708075932503e+09,3.467951409873923918e-01,-4.478949266497012638e-01,0.000000000000000000e+00,-1.791579706598805055e+00,-1.033319192307918577e+00,8.167427774065380008e-01,-4.743208533388797443e-01
8.533333333333333215e+00,1.642706708092182875e+09,3.401416051707966126e-01,-4.559073582534527436e-01,0.000000000000000000e+00,-1.823629433013810974e+00,-8.849384771118224968e-01,8.087177449880015301e-01,-4.886432515097645091e-01
8.550000000000000711e+00,1.642706708108140707e+09,3.328163812646606767e-01,-4.639197898572040013e-01,0.000000000000000000e+00,-1.855679159428816005e+00,-7.313844849833467388e-01,8.004760864230261452e-01,-5.003233308587983208e-01
8.566666666666666430e+00,1.642706708125119686e+09,3.248600673342186274e-01,-4.719322214609555366e-01,0.000000000000000000e+00,-1.887728885843822146e+00,-5.736857577317086010e-01,7.920620478731319469e-01,-5.093362586287818461e-01
8.583333333333333925e+00,1.642706708143155575e+09,3.163176764129823071e-01,-4.719322214609555366e-01,0.000000000000000000e+00,-1.887728885843822146e+00,-4.129055060969931690e-01,7.835212457790660112e-01,-5.155427519940150027e-01
8.599999999999999645e+00,1.642706708159709215e+09,3.072383044617472692e-01,-4.799446530647067388e-01,0.000000000000000000e+00,-1.919778612258826955e+00,-2.501339388320658608e-01,7.748992347819111393e-01,-5.190887175284730759e-01
8.616666666666667140e+00,1.642706708176510572e+09,2.976747632408288102e-01,-4.879570846684582741e-01,0.000000000000000000e+00,-1.951828338673833096e+00,-8.648036350537040284e-02,7.662401113621424287e-01,-5.200035515782681639e-01
8.633333333333332860e+00,1.642706708193922758e+09,2.876831813200310672e-01,-4.879570846684582741e-01,0.000000000000000000e+00,-1.951828338673833096e+00,7.693488090389430378e-02,7.575884380606432433e-01,-5.182022483395116730e-01
8.650000000000000355e+00,1.642706708211006403e+09,2.773225767437380584e-01,-4.959695162722094763e-01,0.000000000000000000e+00,-1.983878065088837905e+00,2.389885981529854542e-01,7.489878139421233261e-01,-5.138846395229788033e-01
8.666666666666666075e+00,1.642706708227942705e+09,2.666544051286066086e-01,-5.039819478759610671e-01,0.000000000000000000e+00,-2.015927791503844269e+00,3.985629532479711967e-01,7.404794874287591311e-01,-5.071332962534145228e-01
8.683333333333333570e+00,1.642706708244426489e+09,2.557420871957307162e-01,-5.119943794797122694e-01,0.000000000000000000e+00,-2.047977517918849077e+00,5.545536725146340551e-01,7.321031896392488081e-01,-4.980476769133221904e-01
8.699999999999999289e+00,1.642706708263022900e+09,2.446505199261313490e-01,-5.039819478759610671e-01,0.000000000000000000e+00,-2.015927791503844269e+00,7.058781624852306091e-01,7.238990716235756961e-01,-4.864786219874945861e-01
8.716666666666666785e+00,1.642706708279638290e+09,2.334455756757907452e-01,-5.119943794797122694e-01,0.000000000000000000e+00,-2.047977517918849077e+00,8.514834854086221760e-01,7.159051776651647048e-01,-4.728265762636017500e-01
8.733333333333332504e+00,1.642706708295282602e+09,2.221935936932605271e-01,-5.119943794797122694e-01,0.000000000000000000e+00,-2.047977517918849077e+00,9.903541302299522231e-01,7.081561130575397822e-01,-4.571048491434727690e-01
8.750000000000000000e+00,1.642706708311717987e+09,2.109608685476870304e-01,-5.119943794797122694e-01,0.000000000000000000e+00,-2.047977517918849077e+00,1.121519519399330589e+00,7.006850223714555792e-01,-4.394750061253949736e-01
