# 
# 
# 
# 
# 
# 
# 
# 
# 
# 
# time,realtime,ref,inp,dis,state...
0.000000000000000000e+00,1.685477324616104364e+09,0.000000000000000000e+00,7.387461938658766991e-01,0.000000000000000000e+00,7.387461938658766991e-01
1.666666666666666644e-02,1.685477324617097139e+09,0.000000000000000000e+00,7.387461938658766991e-01,0.000000000000000000e+00,7.387461938658766991e-01
3.333333333333333287e-02,1.685477324619098902e+09,0.000000000000000000e+00,7.387461938658766991e-01,0.000000000000000000e+00,7.387461938658766991e-01
5.000000000000000278e-02,1.685477324637109280e+09,0.000000000000000000e+00,7.387461938658766991e-01,0.000000000000000000e+00,7.387461938658766991e-01
6.666666666666666574e-02,1.685477324652073383e+09,0.000000000000000000e+00,7.387461938658766991e-01,0.000000000000000000e+00,7.387461938658766991e-01
8.333333333333332871e-02,1.685477324669108629e+09,0.000000000000000000e+00,7.387461938658766991e-01,0.000000000000000000e+00,7.387461938658766991e-01
1.000000000000000056e-01,1.685477324686106205e+09,0.000000000000000000e+00,7.387461938658766991e-01,0.000000000000000000e+00,7.387461938658766991e-01
1.166666666666666685e-01,1.685477324705128670e+09,0.000000000000000000e+00,7.387461938658766991e-01,0.000000000000000000e+00,7.387461938658766991e-01
1.333333333333333315e-01,1.685477324721097946e+09,0.000000000000000000e+00,7.387461938658766991e-01,0.000000000000000000e+00,7.387461938658766991e-01
1.499999999999999944e-01,1.685477324739118814e+09,0.000000000000000000e+00,7.387461938658766991e-01,0.000000000000000000e+00,7.387461938658766991e-01
1.666666666666666574e-01,1.685477324756128311e+09,0.000000000000000000e+00,7.387461938658766991e-01,0.000000000000000000e+00,7.387461938658766991e-01
1.833333333333333204e-01,1.685477324772108555e+09,0.000000000000000000e+00,7.387461938658766991e-01,0.000000000000000000e+00,7.387461938658766991e-01
2.000000000000000111e-01,1.685477324791105986e+09,0.000000000000000000e+00,7.387461938658766991e-01,0.000000000000000000e+00,7.387461938658766991e-01
2.166666666666666741e-01,1.685477324804071426e+09,0.000000000000000000e+00,7.387461938658766991e-01,0.000000000000000000e+00,7.387461938658766991e-01
2.333333333333333370e-01,1.685477324824073076e+09,0.000000000000000000e+00,7.387461938658766991e-01,0.000000000000000000e+00,7.387461938658766991e-01
2.500000000000000000e-01,1.685477324841131687e+09,0.000000000000000000e+00,7.387461938658766991e-01,0.000000000000000000e+00,7.387461938658766991e-01
2.666666666666666630e-01,1.685477324860106468e+09,0.000000000000000000e+00,7.387461938658766991e-01,0.000000000000000000e+00,7.387461938658766991e-01
2.833333333333333259e-01,1.685477324876107216e+09,0.000000000000000000e+00,7.387461938658766991e-01,0.000000000000000000e+00,7.387461938658766991e-01
2.999999999999999889e-01,1.685477324894106865e+09,0.000000000000000000e+00,7.387461938658766991e-01,0.000000000000000000e+00,7.387461938658766991e-01
3.166666666666666519e-01,1.685477324912106514e+09,0.000000000000000000e+00,7.387461938658766991e-01,0.000000000000000000e+00,7.387461938658766991e-01
3.333333333333333148e-01,1.685477324928129196e+09,0.000000000000000000e+00,7.387461938658766991e-01,0.000000000000000000e+00,7.387461938658766991e-01
3.499999999999999778e-01,1.685477324946106911e+09,0.000000000000000000e+00,4.617815715919031394e-01,0.000000000000000000e+00,4.617815715919031394e-01
3.666666666666666408e-01,1.685477324964109182e+09,0.000000000000000000e+00,4.341899439279147677e-01,0.000000000000000000e+00,4.341899439279147677e-01
3.833333333333333037e-01,1.685477324980108738e+09,0.000000000000000000e+00,4.053986802785356502e-01,0.000000000000000000e+00,4.053986802785356502e-01
4.000000000000000222e-01,1.685477324998109818e+09,0.000000000000000000e+00,3.274223412281332402e-01,0.000000000000000000e+00,3.274223412281332402e-01
4.166666666666666852e-01,1.685477325014128923e+09,0.000000000000000000e+00,4.337900652661179079e-01,0.000000000000000000e+00,4.337900652661179079e-01
4.333333333333333481e-01,1.685477325034105539e+09,0.000000000000000000e+00,4.077979522493170306e-01,0.000000000000000000e+00,4.077979522493170306e-01
4.500000000000000111e-01,1.685477325052107811e+09,0.000000000000000000e+00,3.970012283807999309e-01,0.000000000000000000e+00,3.970012283807999309e-01
4.666666666666666741e-01,1.685477325068107605e+09,0.000000000000000000e+00,3.794065672617346063e-01,0.000000000000000000e+00,3.794065672617346063e-01
4.833333333333333370e-01,1.685477325087107897e+09,0.000000000000000000e+00,4.261923706919760746e-01,0.000000000000000000e+00,4.261923706919760746e-01
5.000000000000000000e-01,1.685477325103129387e+09,0.000000000000000000e+00,4.065983162639263959e-01,0.000000000000000000e+00,4.065983162639263959e-01
5.166666666666666075e-01,1.685477325122072935e+09,0.000000000000000000e+00,3.746080233201715126e-01,0.000000000000000000e+00,3.746080233201715126e-01
5.333333333333333259e-01,1.685477325139097691e+09,0.000000000000000000e+00,4.313907932953361946e-01,0.000000000000000000e+00,4.313907932953361946e-01
5.500000000000000444e-01,1.685477325158100367e+09,0.000000000000000000e+00,7.387461938658766991e-01,0.000000000000000000e+00,7.387461938658766991e-01
5.666666666666666519e-01,1.685477325176109552e+09,0.000000000000000000e+00,7.387461938658766991e-01,0.000000000000000000e+00,7.387461938658766991e-01
5.833333333333333703e-01,1.685477325191111326e+09,0.000000000000000000e+00,4.617815715919031394e-01,0.000000000000000000e+00,4.617815715919031394e-01
5.999999999999999778e-01,1.685477325208111048e+09,0.000000000000000000e+00,7.387461938658766991e-01,0.000000000000000000e+00,7.387461938658766991e-01
6.166666666666666963e-01,1.685477325223129272e+09,0.000000000000000000e+00,4.665801155334665662e-01,0.000000000000000000e+00,4.665801155334665662e-01
6.333333333333333037e-01,1.685477325239106417e+09,0.000000000000000000e+00,7.387461938658766991e-01,0.000000000000000000e+00,7.387461938658766991e-01
6.500000000000000222e-01,1.685477325257130384e+09,0.000000000000000000e+00,7.387461938658766991e-01,0.000000000000000000e+00,7.387461938658766991e-01
6.666666666666666297e-01,1.685477325276108742e+09,0.000000000000000000e+00,7.387461938658766991e-01,0.000000000000000000e+00,7.387461938658766991e-01
6.833333333333333481e-01,1.685477325293128967e+09,0.000000000000000000e+00,7.387461938658766991e-01,0.000000000000000000e+00,7.387461938658766991e-01
6.999999999999999556e-01,1.685477325309129477e+09,0.000000000000000000e+00,7.387461938658766991e-01,0.000000000000000000e+00,7.387461938658766991e-01
7.166666666666666741e-01,1.685477325327121496e+09,0.000000000000000000e+00,7.387461938658766991e-01,0.000000000000000000e+00,7.387461938658766991e-01
7.333333333333332815e-01,1.685477325343099117e+09,0.000000000000000000e+00,7.387461938658766991e-01,0.000000000000000000e+00,7.387461938658766991e-01
7.500000000000000000e-01,1.685477325361098289e+09,0.000000000000000000e+00,4.661802368716694289e-01,0.000000000000000000e+00,4.661802368716694289e-01
7.666666666666666075e-01,1.685477325380120993e+09,0.000000000000000000e+00,7.387461938658766991e-01,0.000000000000000000e+00,7.387461938658766991e-01
7.833333333333333259e-01,1.685477325394133568e+09,0.000000000000000000e+00,7.387461938658766991e-01,0.000000000000000000e+00,7.387461938658766991e-01
8.000000000000000444e-01,1.685477325411092520e+09,0.000000000000000000e+00,7.387461938658766991e-01,0.000000000000000000e+00,7.387461938658766991e-01
8.166666666666666519e-01,1.685477325430108547e+09,0.000000000000000000e+00,7.387461938658766991e-01,0.000000000000000000e+00,7.387461938658766991e-01
8.333333333333333703e-01,1.685477325446108341e+09,0.000000000000000000e+00,7.387461938658766991e-01,0.000000000000000000e+00,7.387461938658766991e-01
8.499999999999999778e-01,1.685477325465108871e+09,0.000000000000000000e+00,7.387461938658766991e-01,0.000000000000000000e+00,7.387461938658766991e-01
8.666666666666666963e-01,1.685477325481071234e+09,0.000000000000000000e+00,7.387461938658766991e-01,0.000000000000000000e+00,7.387461938658766991e-01
8.833333333333333037e-01,1.685477325498128653e+09,0.000000000000000000e+00,7.387461938658766991e-01,0.000000000000000000e+00,7.387461938658766991e-01
9.000000000000000222e-01,1.685477325514111757e+09,0.000000000000000000e+00,7.387461938658766991e-01,0.000000000000000000e+00,7.387461938658766991e-01
9.166666666666666297e-01,1.685477325531107187e+09,0.000000000000000000e+00,7.387461938658766991e-01,0.000000000000000000e+00,7.387461938658766991e-01
9.333333333333333481e-01,1.685477325549072981e+09,0.000000000000000000e+00,7.547710570733791036e-01,0.000000000000000000e+00,7.547710570733791036e-01
9.499999999999999556e-01,1.685477325565108299e+09,0.000000000000000000e+00,7.387461938658766991e-01,0.000000000000000000e+00,7.387461938658766991e-01
9.666666666666666741e-01,1.685477325584128618e+09,0.000000000000000000e+00,7.387461938658766991e-01,0.000000000000000000e+00,7.387461938658766991e-01
9.833333333333332815e-01,1.685477325602109432e+09,0.000000000000000000e+00,7.387461938658766991e-01,0.000000000000000000e+00,7.387461938658766991e-01
1.000000000000000000e+00,1.685477325621073246e+09,0.000000000000000000e+00,7.387461938658766991e-01,0.000000000000000000e+00,7.387461938658766991e-01
1.016666666666666607e+00,1.685477325638072252e+09,0.000000000000000000e+00,7.387461938658766991e-01,0.000000000000000000e+00,7.387461938658766991e-01
1.033333333333333215e+00,1.685477325653098583e+09,0.000000000000000000e+00,7.387461938658766991e-01,0.000000000000000000e+00,7.387461938658766991e-01
1.050000000000000044e+00,1.685477325670102596e+09,0.000000000000000000e+00,7.387461938658766991e-01,0.000000000000000000e+00,7.387461938658766991e-01
1.066666666666666652e+00,1.685477325688071489e+09,0.000000000000000000e+00,7.387461938658766991e-01,0.000000000000000000e+00,7.387461938658766991e-01
1.083333333333333259e+00,1.685477325703131199e+09,0.000000000000000000e+00,7.387461938658766991e-01,0.000000000000000000e+00,7.387461938658766991e-01
1.100000000000000089e+00,1.685477325723108530e+09,0.000000000000000000e+00,7.387461938658766991e-01,0.000000000000000000e+00,7.387461938658766991e-01
1.116666666666666696e+00,1.685477325739129305e+09,0.000000000000000000e+00,7.387461938658766991e-01,0.000000000000000000e+00,7.387461938658766991e-01
1.133333333333333304e+00,1.685477325755108833e+09,0.000000000000000000e+00,7.387461938658766991e-01,0.000000000000000000e+00,7.387461938658766991e-01
1.149999999999999911e+00,1.685477325772105932e+09,0.000000000000000000e+00,7.387461938658766991e-01,0.000000000000000000e+00,7.387461938658766991e-01
1.166666666666666741e+00,1.685477325791106462e+09,0.000000000000000000e+00,7.387461938658766991e-01,0.000000000000000000e+00,7.387461938658766991e-01
1.183333333333333348e+00,1.685477325809108257e+09,0.000000000000000000e+00,7.387461938658766991e-01,0.000000000000000000e+00,7.387461938658766991e-01
1.199999999999999956e+00,1.685477325825107098e+09,0.000000000000000000e+00,7.387461938658766991e-01,0.000000000000000000e+00,7.387461938658766991e-01
1.216666666666666563e+00,1.685477325842110395e+09,0.000000000000000000e+00,7.387461938658766991e-01,0.000000000000000000e+00,7.387461938658766991e-01
1.233333333333333393e+00,1.685477325859106064e+09,0.000000000000000000e+00,7.387461938658766991e-01,0.000000000000000000e+00,7.387461938658766991e-01
1.250000000000000000e+00,1.685477325874108315e+09,0.000000000000000000e+00,7.387461938658766991e-01,0.000000000000000000e+00,7.387461938658766991e-01
1.266666666666666607e+00,1.685477325889073372e+09,0.000000000000000000e+00,7.387461938658766991e-01,0.000000000000000000e+00,7.387461938658766991e-01
1.283333333333333215e+00,1.685477325907106400e+09,0.000000000000000000e+00,7.387461938658766991e-01,0.000000000000000000e+00,7.387461938658766991e-01
1.300000000000000044e+00,1.685477325924108267e+09,0.000000000000000000e+00,7.387461938658766991e-01,0.000000000000000000e+00,7.387461938658766991e-01
1.316666666666666652e+00,1.685477325945106745e+09,0.000000000000000000e+00,7.387461938658766991e-01,0.000000000000000000e+00,7.387461938658766991e-01
1.333333333333333259e+00,1.685477325959108114e+09,0.000000000000000000e+00,7.387461938658766991e-01,0.000000000000000000e+00,7.387461938658766991e-01
1.350000000000000089e+00,1.685477325977129698e+09,0.000000000000000000e+00,7.387461938658766991e-01,0.000000000000000000e+00,7.387461938658766991e-01
1.366666666666666696e+00,1.685477325994106531e+09,0.000000000000000000e+00,7.387461938658766991e-01,0.000000000000000000e+00,7.387461938658766991e-01
1.383333333333333304e+00,1.685477326010107517e+09,0.000000000000000000e+00,7.387461938658766991e-01,0.000000000000000000e+00,7.387461938658766991e-01
1.399999999999999911e+00,1.685477326027112246e+09,0.000000000000000000e+00,7.387461938658766991e-01,0.000000000000000000e+00,7.387461938658766991e-01
1.416666666666666741e+00,1.685477326044106007e+09,0.000000000000000000e+00,7.387461938658766991e-01,0.000000000000000000e+00,7.387461938658766991e-01
1.433333333333333348e+00,1.685477326061070919e+09,0.000000000000000000e+00,7.387461938658766991e-01,0.000000000000000000e+00,7.387461938658766991e-01
1.449999999999999956e+00,1.685477326079108238e+09,0.000000000000000000e+00,4.665801155334665662e-01,0.000000000000000000e+00,4.665801155334665662e-01
1.466666666666666563e+00,1.685477326094073057e+09,0.000000000000000000e+00,7.387461938658766991e-01,0.000000000000000000e+00,7.387461938658766991e-01
1.483333333333333393e+00,1.685477326112137318e+09,0.000000000000000000e+00,7.387461938658766991e-01,0.000000000000000000e+00,7.387461938658766991e-01
1.500000000000000000e+00,1.685477326129107714e+09,0.000000000000000000e+00,4.497852117379952386e-01,0.000000000000000000e+00,4.497852117379952386e-01
1.516666666666666607e+00,1.685477326145129442e+09,0.000000000000000000e+00,7.387461938658766991e-01,0.000000000000000000e+00,7.387461938658766991e-01
1.533333333333333215e+00,1.685477326163074732e+09,0.000000000000000000e+00,7.227213306583742947e-01,0.000000000000000000e+00,7.227213306583742947e-01
1.550000000000000044e+00,1.685477326182108402e+09,0.000000000000000000e+00,7.387461938658766991e-01,0.000000000000000000e+00,7.387461938658766991e-01
1.566666666666666652e+00,1.685477326197129488e+09,0.000000000000000000e+00,7.387461938658766991e-01,0.000000000000000000e+00,7.387461938658766991e-01
1.583333333333333259e+00,1.685477326214108467e+09,0.000000000000000000e+00,7.227213306583742947e-01,0.000000000000000000e+00,7.227213306583742947e-01
1.600000000000000089e+00,1.685477326233106613e+09,0.000000000000000000e+00,7.387461938658766991e-01,0.000000000000000000e+00,7.387461938658766991e-01
1.616666666666666696e+00,1.685477326249129772e+09,0.000000000000000000e+00,7.227213306583742947e-01,0.000000000000000000e+00,7.227213306583742947e-01
1.633333333333333304e+00,1.685477326267102480e+09,0.000000000000000000e+00,7.227213306583742947e-01,0.000000000000000000e+00,7.227213306583742947e-01
1.649999999999999911e+00,1.685477326284120798e+09,0.000000000000000000e+00,7.066964674508705579e-01,0.000000000000000000e+00,7.066964674508705579e-01
1.666666666666666741e+00,1.685477326300129414e+09,0.000000000000000000e+00,7.066964674508705579e-01,0.000000000000000000e+00,7.066964674508705579e-01
1.683333333333333348e+00,1.685477326318105698e+09,0.000000000000000000e+00,7.066964674508705579e-01,0.000000000000000000e+00,7.066964674508705579e-01
1.699999999999999956e+00,1.685477326335108280e+09,0.000000000000000000e+00,7.066964674508705579e-01,0.000000000000000000e+00,7.066964674508705579e-01
1.716666666666666563e+00,1.685477326355073452e+09,0.000000000000000000e+00,7.066964674508705579e-01,0.000000000000000000e+00,7.066964674508705579e-01
1.733333333333333393e+00,1.685477326372077227e+09,0.000000000000000000e+00,7.066964674508705579e-01,0.000000000000000000e+00,7.066964674508705579e-01
1.750000000000000000e+00,1.685477326388072491e+09,0.000000000000000000e+00,7.066964674508705579e-01,0.000000000000000000e+00,7.066964674508705579e-01
1.766666666666666607e+00,1.685477326405072451e+09,0.000000000000000000e+00,7.066964674508705579e-01,0.000000000000000000e+00,7.066964674508705579e-01
1.783333333333333215e+00,1.685477326424106598e+09,0.000000000000000000e+00,7.066964674508705579e-01,0.000000000000000000e+00,7.066964674508705579e-01
1.800000000000000044e+00,1.685477326441107988e+09,0.000000000000000000e+00,7.066964674508705579e-01,0.000000000000000000e+00,7.066964674508705579e-01
1.816666666666666652e+00,1.685477326458106756e+09,0.000000000000000000e+00,7.066964674508705579e-01,0.000000000000000000e+00,7.066964674508705579e-01
1.833333333333333259e+00,1.685477326474108458e+09,0.000000000000000000e+00,7.066964674508705579e-01,0.000000000000000000e+00,7.066964674508705579e-01
1.849999999999999867e+00,1.685477326493108511e+09,0.000000000000000000e+00,7.066964674508705579e-01,0.000000000000000000e+00,7.066964674508705579e-01
1.866666666666666696e+00,1.685477326511108160e+09,0.000000000000000000e+00,7.066964674508705579e-01,0.000000000000000000e+00,7.066964674508705579e-01
1.883333333333333304e+00,1.685477326526133537e+09,0.000000000000000000e+00,7.066964674508705579e-01,0.000000000000000000e+00,7.066964674508705579e-01
1.899999999999999911e+00,1.685477326543108225e+09,0.000000000000000000e+00,7.066964674508705579e-01,0.000000000000000000e+00,7.066964674508705579e-01
1.916666666666666741e+00,1.685477326558106899e+09,0.000000000000000000e+00,7.066964674508705579e-01,0.000000000000000000e+00,7.066964674508705579e-01
1.933333333333333348e+00,1.685477326577105999e+09,0.000000000000000000e+00,7.066964674508705579e-01,0.000000000000000000e+00,7.066964674508705579e-01
1.949999999999999956e+00,1.685477326593129635e+09,0.000000000000000000e+00,7.066964674508705579e-01,0.000000000000000000e+00,7.066964674508705579e-01
1.966666666666666563e+00,1.685477326610073090e+09,0.000000000000000000e+00,7.066964674508705579e-01,0.000000000000000000e+00,7.066964674508705579e-01
1.983333333333333393e+00,1.685477326628129482e+09,0.000000000000000000e+00,7.066964674508705579e-01,0.000000000000000000e+00,7.066964674508705579e-01
2.000000000000000000e+00,1.685477326648125410e+09,0.000000000000000000e+00,7.066964674508705579e-01,0.000000000000000000e+00,7.066964674508705579e-01
2.016666666666666607e+00,1.685477326664099932e+09,0.000000000000000000e+00,6.906716042433681535e-01,0.000000000000000000e+00,6.906716042433681535e-01
2.033333333333333215e+00,1.685477326680100203e+09,0.000000000000000000e+00,6.746467410358656380e-01,0.000000000000000000e+00,6.746467410358656380e-01
2.049999999999999822e+00,1.685477326698120594e+09,0.000000000000000000e+00,6.586218778283632336e-01,0.000000000000000000e+00,6.586218778283632336e-01
2.066666666666666430e+00,1.685477326714099884e+09,0.000000000000000000e+00,6.425970146208608291e-01,0.000000000000000000e+00,6.425970146208608291e-01
2.083333333333333481e+00,1.685477326731098413e+09,0.000000000000000000e+00,6.265721514133570924e-01,0.000000000000000000e+00,6.265721514133570924e-01
2.100000000000000089e+00,1.685477326750098228e+09,0.000000000000000000e+00,6.265721514133570924e-01,0.000000000000000000e+00,6.265721514133570924e-01
2.116666666666666696e+00,1.685477326767099142e+09,0.000000000000000000e+00,6.265721514133570924e-01,0.000000000000000000e+00,6.265721514133570924e-01
2.133333333333333304e+00,1.685477326781099319e+09,0.000000000000000000e+00,6.105472882058546880e-01,0.000000000000000000e+00,6.105472882058546880e-01
2.149999999999999911e+00,1.685477326800097227e+09,0.000000000000000000e+00,5.784975617908497680e-01,0.000000000000000000e+00,5.784975617908497680e-01
2.166666666666666519e+00,1.685477326816105604e+09,0.000000000000000000e+00,5.784975617908497680e-01,0.000000000000000000e+00,5.784975617908497680e-01
2.183333333333333126e+00,1.685477326833097458e+09,0.000000000000000000e+00,5.624726985833461423e-01,0.000000000000000000e+00,5.624726985833461423e-01
2.200000000000000178e+00,1.685477326851098299e+09,0.000000000000000000e+00,5.624726985833461423e-01,0.000000000000000000e+00,5.624726985833461423e-01
2.216666666666666785e+00,1.685477326867107630e+09,0.000000000000000000e+00,5.464478353758437379e-01,0.000000000000000000e+00,5.464478353758437379e-01
2.233333333333333393e+00,1.685477326886129618e+09,0.000000000000000000e+00,5.464478353758437379e-01,0.000000000000000000e+00,5.464478353758437379e-01
2.250000000000000000e+00,1.685477326902115583e+09,0.000000000000000000e+00,5.304229721683412224e-01,0.000000000000000000e+00,5.304229721683412224e-01
2.266666666666666607e+00,1.685477326918108225e+09,0.000000000000000000e+00,5.304229721683412224e-01,0.000000000000000000e+00,5.304229721683412224e-01
2.283333333333333215e+00,1.685477326935132980e+09,0.000000000000000000e+00,5.304229721683412224e-01,0.000000000000000000e+00,5.304229721683412224e-01
2.299999999999999822e+00,1.685477326953108549e+09,0.000000000000000000e+00,5.143981089608388180e-01,0.000000000000000000e+00,5.143981089608388180e-01
2.316666666666666430e+00,1.685477326971108675e+09,0.000000000000000000e+00,5.143981089608388180e-01,0.000000000000000000e+00,5.143981089608388180e-01
2.333333333333333481e+00,1.685477326989109516e+09,0.000000000000000000e+00,5.143981089608388180e-01,0.000000000000000000e+00,5.143981089608388180e-01
2.350000000000000089e+00,1.685477327006100655e+09,0.000000000000000000e+00,4.983732457533351368e-01,0.000000000000000000e+00,4.983732457533351368e-01
2.366666666666666696e+00,1.685477327023129702e+09,0.000000000000000000e+00,4.983732457533351368e-01,0.000000000000000000e+00,4.983732457533351368e-01
2.383333333333333304e+00,1.685477327042105436e+09,0.000000000000000000e+00,4.823483825458327323e-01,0.000000000000000000e+00,4.823483825458327323e-01
2.399999999999999911e+00,1.685477327060111046e+09,0.000000000000000000e+00,4.663235193383302724e-01,0.000000000000000000e+00,4.663235193383302724e-01
2.416666666666666519e+00,1.685477327075107574e+09,0.000000000000000000e+00,4.823483825458327323e-01,0.000000000000000000e+00,4.823483825458327323e-01
2.433333333333333126e+00,1.685477327091109753e+09,0.000000000000000000e+00,1.917581690351384538e-01,0.000000000000000000e+00,1.917581690351384538e-01
2.450000000000000178e+00,1.685477327107130527e+09,0.000000000000000000e+00,4.663235193383302724e-01,0.000000000000000000e+00,4.663235193383302724e-01
2.466666666666666785e+00,1.685477327124110699e+09,0.000000000000000000e+00,4.502986561308278124e-01,0.000000000000000000e+00,4.502986561308278124e-01
2.483333333333333393e+00,1.685477327143107891e+09,0.000000000000000000e+00,4.502986561308278124e-01,0.000000000000000000e+00,4.502986561308278124e-01
2.500000000000000000e+00,1.685477327160108089e+09,0.000000000000000000e+00,4.502986561308278124e-01,0.000000000000000000e+00,4.502986561308278124e-01
2.516666666666666607e+00,1.685477327178129911e+09,0.000000000000000000e+00,4.342737929233241867e-01,0.000000000000000000e+00,4.342737929233241867e-01
2.533333333333333215e+00,1.685477327193072557e+09,0.000000000000000000e+00,4.182489297158217267e-01,0.000000000000000000e+00,4.182489297158217267e-01
2.549999999999999822e+00,1.685477327209106207e+09,0.000000000000000000e+00,4.022240665083192668e-01,0.000000000000000000e+00,4.022240665083192668e-01
2.566666666666666430e+00,1.685477327228112459e+09,0.000000000000000000e+00,3.701743400933131811e-01,0.000000000000000000e+00,3.701743400933131811e-01
2.583333333333333481e+00,1.685477327242128611e+09,0.000000000000000000e+00,3.541494768858107212e-01,0.000000000000000000e+00,3.541494768858107212e-01
2.600000000000000089e+00,1.685477327261108398e+09,0.000000000000000000e+00,3.220997504708058012e-01,0.000000000000000000e+00,3.220997504708058012e-01
2.616666666666666696e+00,1.685477327279108286e+09,0.000000000000000000e+00,2.740251608482972556e-01,0.000000000000000000e+00,2.740251608482972556e-01
2.633333333333333304e+00,1.685477327295108080e+09,0.000000000000000000e+00,2.419754344332911700e-01,0.000000000000000000e+00,2.419754344332911700e-01
2.649999999999999911e+00,1.685477327314106226e+09,0.000000000000000000e+00,2.259505712257887378e-01,0.000000000000000000e+00,2.259505712257887378e-01
2.666666666666666519e+00,1.685477327329136133e+09,0.000000000000000000e+00,2.259505712257887378e-01,0.000000000000000000e+00,2.259505712257887378e-01
2.683333333333333126e+00,1.685477327348108530e+09,0.000000000000000000e+00,2.099257080182862778e-01,0.000000000000000000e+00,2.099257080182862778e-01
2.700000000000000178e+00,1.685477327362130165e+09,0.000000000000000000e+00,2.099257080182862778e-01,0.000000000000000000e+00,2.099257080182862778e-01
2.716666666666666785e+00,1.685477327379108191e+09,0.000000000000000000e+00,1.939008448107838178e-01,0.000000000000000000e+00,1.939008448107838178e-01
2.733333333333333393e+00,1.685477327397108078e+09,0.000000000000000000e+00,2.099257080182862778e-01,0.000000000000000000e+00,2.099257080182862778e-01
2.750000000000000000e+00,1.685477327415098429e+09,0.000000000000000000e+00,1.939008448107838178e-01,0.000000000000000000e+00,1.939008448107838178e-01
2.766666666666666607e+00,1.685477327433107615e+09,0.000000000000000000e+00,1.939008448107838178e-01,0.000000000000000000e+00,1.939008448107838178e-01
2.783333333333333215e+00,1.685477327448120594e+09,0.000000000000000000e+00,1.939008448107838178e-01,0.000000000000000000e+00,1.939008448107838178e-01
2.799999999999999822e+00,1.685477327468097925e+09,0.000000000000000000e+00,1.939008448107838178e-01,0.000000000000000000e+00,1.939008448107838178e-01
2.816666666666666430e+00,1.685477327485103607e+09,0.000000000000000000e+00,1.939008448107838178e-01,0.000000000000000000e+00,1.939008448107838178e-01
2.833333333333333481e+00,1.685477327503072739e+09,0.000000000000000000e+00,1.939008448107838178e-01,0.000000000000000000e+00,1.939008448107838178e-01
2.850000000000000089e+00,1.685477327516098022e+09,0.000000000000000000e+00,1.939008448107838178e-01,0.000000000000000000e+00,1.939008448107838178e-01
2.866666666666666696e+00,1.685477327535099506e+09,0.000000000000000000e+00,1.939008448107838178e-01,0.000000000000000000e+00,1.939008448107838178e-01
2.883333333333333304e+00,1.685477327551129341e+09,0.000000000000000000e+00,1.939008448107838178e-01,0.000000000000000000e+00,1.939008448107838178e-01
2.899999999999999911e+00,1.685477327567108631e+09,0.000000000000000000e+00,1.939008448107838178e-01,0.000000000000000000e+00,1.939008448107838178e-01
2.916666666666666519e+00,1.685477327584132433e+09,0.000000000000000000e+00,1.939008448107838178e-01,0.000000000000000000e+00,1.939008448107838178e-01
2.933333333333333126e+00,1.685477327602106810e+09,0.000000000000000000e+00,1.939008448107838178e-01,0.000000000000000000e+00,1.939008448107838178e-01
2.950000000000000178e+00,1.685477327621106386e+09,0.000000000000000000e+00,1.939008448107838178e-01,0.000000000000000000e+00,1.939008448107838178e-01
2.966666666666666785e+00,1.685477327636108160e+09,0.000000000000000000e+00,1.939008448107838178e-01,0.000000000000000000e+00,1.939008448107838178e-01
2.983333333333333393e+00,1.685477327653105974e+09,0.000000000000000000e+00,1.778759816032801921e-01,0.000000000000000000e+00,1.778759816032801921e-01
3.000000000000000000e+00,1.685477327671088696e+09,0.000000000000000000e+00,1.939008448107838178e-01,0.000000000000000000e+00,1.939008448107838178e-01
3.016666666666666607e+00,1.685477327687098503e+09,0.000000000000000000e+00,1.778759816032801921e-01,0.000000000000000000e+00,1.778759816032801921e-01
3.033333333333333215e+00,1.685477327706097603e+09,0.000000000000000000e+00,1.778759816032801921e-01,0.000000000000000000e+00,1.778759816032801921e-01
3.049999999999999822e+00,1.685477327721071243e+09,0.000000000000000000e+00,1.778759816032801921e-01,0.000000000000000000e+00,1.778759816032801921e-01
3.066666666666666430e+00,1.685477327739085436e+09,0.000000000000000000e+00,1.618511183957777322e-01,0.000000000000000000e+00,1.618511183957777322e-01
3.083333333333333481e+00,1.685477327755107641e+09,0.000000000000000000e+00,1.778759816032801921e-01,0.000000000000000000e+00,1.778759816032801921e-01
3.100000000000000089e+00,1.685477327773140907e+09,0.000000000000000000e+00,1.778759816032801921e-01,0.000000000000000000e+00,1.778759816032801921e-01
3.116666666666666696e+00,1.685477327790073633e+09,0.000000000000000000e+00,1.618511183957777322e-01,0.000000000000000000e+00,1.618511183957777322e-01
3.133333333333333304e+00,1.685477327808107615e+09,0.000000000000000000e+00,1.618511183957777322e-01,0.000000000000000000e+00,1.618511183957777322e-01
3.149999999999999911e+00,1.685477327825108290e+09,0.000000000000000000e+00,1.458262551882752722e-01,0.000000000000000000e+00,1.458262551882752722e-01
3.166666666666666519e+00,1.685477327840108871e+09,0.000000000000000000e+00,1.458262551882752722e-01,0.000000000000000000e+00,1.458262551882752722e-01
3.183333333333333126e+00,1.685477327857128382e+09,0.000000000000000000e+00,1.458262551882752722e-01,0.000000000000000000e+00,1.458262551882752722e-01
3.200000000000000178e+00,1.685477327873109102e+09,0.000000000000000000e+00,1.137765287732703939e-01,0.000000000000000000e+00,1.137765287732703939e-01
3.216666666666666785e+00,1.685477327894106865e+09,0.000000000000000000e+00,1.137765287732703939e-01,0.000000000000000000e+00,1.137765287732703939e-01
3.233333333333333393e+00,1.685477327908106804e+09,0.000000000000000000e+00,9.775166556576674048e-02,0.000000000000000000e+00,9.775166556576674048e-02
3.250000000000000000e+00,1.685477327928109407e+09,0.000000000000000000e+00,9.775166556576674048e-02,0.000000000000000000e+00,9.775166556576674048e-02
3.266666666666666607e+00,1.685477327943128347e+09,0.000000000000000000e+00,8.172680235826429440e-02,0.000000000000000000e+00,8.172680235826429440e-02
3.283333333333333215e+00,1.685477327958129168e+09,0.000000000000000000e+00,8.172680235826429440e-02,0.000000000000000000e+00,8.172680235826429440e-02
3.299999999999999822e+00,1.685477327976108789e+09,0.000000000000000000e+00,8.172680235826429440e-02,0.000000000000000000e+00,8.172680235826429440e-02
3.316666666666666430e+00,1.685477327995106697e+09,0.000000000000000000e+00,6.570193915076183444e-02,0.000000000000000000e+00,6.570193915076183444e-02
3.333333333333333481e+00,1.685477328011107683e+09,0.000000000000000000e+00,6.570193915076183444e-02,0.000000000000000000e+00,6.570193915076183444e-02
3.350000000000000089e+00,1.685477328029122829e+09,0.000000000000000000e+00,6.570193915076183444e-02,0.000000000000000000e+00,6.570193915076183444e-02
3.366666666666666696e+00,1.685477328045108795e+09,0.000000000000000000e+00,6.570193915076183444e-02,0.000000000000000000e+00,6.570193915076183444e-02
3.383333333333333304e+00,1.685477328063109159e+09,0.000000000000000000e+00,4.967707594325939530e-02,0.000000000000000000e+00,4.967707594325939530e-02
3.399999999999999911e+00,1.685477328081108093e+09,0.000000000000000000e+00,4.967707594325939530e-02,0.000000000000000000e+00,4.967707594325939530e-02
3.416666666666666519e+00,1.685477328098105907e+09,0.000000000000000000e+00,4.967707594325939530e-02,0.000000000000000000e+00,4.967707594325939530e-02
3.433333333333333126e+00,1.685477328114105701e+09,0.000000000000000000e+00,4.967707594325939530e-02,0.000000000000000000e+00,4.967707594325939530e-02
3.449999999999999734e+00,1.685477328132105589e+09,0.000000000000000000e+00,4.967707594325939530e-02,0.000000000000000000e+00,4.967707594325939530e-02
3.466666666666666785e+00,1.685477328147105694e+09,0.000000000000000000e+00,4.967707594325939530e-02,0.000000000000000000e+00,4.967707594325939530e-02
3.483333333333333393e+00,1.685477328165106535e+09,0.000000000000000000e+00,4.967707594325939530e-02,0.000000000000000000e+00,4.967707594325939530e-02
3.500000000000000000e+00,1.685477328181101799e+09,0.000000000000000000e+00,4.967707594325939530e-02,0.000000000000000000e+00,4.967707594325939530e-02
3.516666666666666607e+00,1.685477328198129654e+09,0.000000000000000000e+00,4.967707594325939530e-02,0.000000000000000000e+00,4.967707594325939530e-02
3.533333333333333215e+00,1.685477328216107845e+09,0.000000000000000000e+00,4.967707594325939530e-02,0.000000000000000000e+00,4.967707594325939530e-02
3.549999999999999822e+00,1.685477328232131004e+09,0.000000000000000000e+00,4.967707594325939530e-02,0.000000000000000000e+00,4.967707594325939530e-02
