# 
# 
# 
# 
# 
# 
# 
# 
# 
# 
# time,realtime,ref,inp,dis,state...
0.000000000000000000e+00,1.644608665306316137e+09,0.000000000000000000e+00,6.573664856934553491e-01,0.000000000000000000e+00,2.434045389333177933e+00
1.666666666666666644e-02,1.644608665308294773e+09,0.000000000000000000e+00,2.434045389333177933e+00,1.043784412493711455e+00,2.434045389333177933e+00
3.333333333333333287e-02,1.644608665310297728e+09,0.000000000000000000e+00,6.623225843294361370e-01,0.000000000000000000e+00,6.623225843294361370e-01
5.000000000000000278e-02,1.644608665326251030e+09,0.000000000000000000e+00,6.300254858361244992e-01,0.000000000000000000e+00,6.300254858361244992e-01
6.666666666666666574e-02,1.644608665344204187e+09,0.000000000000000000e+00,6.820645215139242712e-01,0.000000000000000000e+00,6.820645215139242712e-01
8.333333333333332871e-02,1.644608665361156225e+09,0.000000000000000000e+00,6.251518445595790618e-01,0.000000000000000000e+00,6.251518445595790618e-01
1.000000000000000056e-01,1.644608665377112150e+09,0.000000000000000000e+00,6.944547681038762965e-01,0.000000000000000000e+00,6.944547681038762965e-01
1.166666666666666685e-01,1.644608665393044949e+09,0.000000000000000000e+00,6.945372254633117581e-01,0.000000000000000000e+00,6.945372254633117581e-01
1.333333333333333315e-01,1.644608665410025835e+09,0.000000000000000000e+00,5.779864501583250602e-01,0.000000000000000000e+00,5.779864501583250602e-01
1.499999999999999944e-01,1.644608665426111698e+09,0.000000000000000000e+00,3.908937266500453478e-01,0.000000000000000000e+00,3.908937266500453478e-01
1.666666666666666574e-01,1.644608665444612265e+09,0.000000000000000000e+00,4.108005785534044607e-01,0.000000000000000000e+00,4.108005785534044607e-01
1.833333333333333204e-01,1.644608665461928844e+09,0.000000000000000000e+00,4.615181322127734354e-01,0.000000000000000000e+00,4.615181322127734354e-01
2.000000000000000111e-01,1.644608665477885485e+09,0.000000000000000000e+00,3.946932579864665391e-01,0.000000000000000000e+00,3.946932579864665391e-01
2.166666666666666741e-01,1.644608665493872643e+09,0.000000000000000000e+00,3.463712962856526079e-01,0.000000000000000000e+00,3.463712962856526079e-01
2.333333333333333370e-01,1.644608665513171673e+09,0.000000000000000000e+00,3.326595676772695076e-01,0.000000000000000000e+00,3.326595676772695076e-01
2.500000000000000000e-01,1.644608665529151201e+09,0.000000000000000000e+00,4.182347265073758646e-01,0.000000000000000000e+00,4.182347265073758646e-01
2.666666666666666630e-01,1.644608665545865536e+09,0.000000000000000000e+00,3.823030113965143473e-01,0.000000000000000000e+00,3.823030113965143473e-01
2.833333333333333259e-01,1.644608665563791990e+09,0.000000000000000000e+00,2.992059018843984397e-01,0.000000000000000000e+00,2.992059018843984397e-01
2.999999999999999889e-01,1.644608665580772161e+09,0.000000000000000000e+00,2.398151756120630029e-01,0.000000000000000000e+00,2.398151756120630029e-01
3.166666666666666519e-01,1.644608665600712299e+09,0.000000000000000000e+00,-4.647210330175770288e-02,0.000000000000000000e+00,-4.647210330175770288e-02
3.333333333333333148e-01,1.644608665615681410e+09,0.000000000000000000e+00,-6.249696650926014896e-02,0.000000000000000000e+00,-6.249696650926014896e-02
3.499999999999999778e-01,1.644608665632632256e+09,0.000000000000000000e+00,-6.249696650926014896e-02,0.000000000000000000e+00,-6.249696650926014896e-02
3.666666666666666408e-01,1.644608665648566008e+09,0.000000000000000000e+00,-4.647210330175770288e-02,0.000000000000000000e+00,-4.647210330175770288e-02
3.833333333333333037e-01,1.644608665665566444e+09,0.000000000000000000e+00,-4.647210330175770288e-02,0.000000000000000000e+00,-4.647210330175770288e-02
4.000000000000000222e-01,1.644608665682501078e+09,0.000000000000000000e+00,-6.249696650926014896e-02,0.000000000000000000e+00,-6.249696650926014896e-02
4.166666666666666852e-01,1.644608665699455738e+09,0.000000000000000000e+00,-4.647210330175770288e-02,0.000000000000000000e+00,-4.647210330175770288e-02
4.333333333333333481e-01,1.644608665717715025e+09,0.000000000000000000e+00,-4.647210330175770288e-02,0.000000000000000000e+00,-4.647210330175770288e-02
4.500000000000000111e-01,1.644608665733671188e+09,0.000000000000000000e+00,-4.647210330175770288e-02,0.000000000000000000e+00,-4.647210330175770288e-02
4.666666666666666741e-01,1.644608665752797127e+09,0.000000000000000000e+00,-4.647210330175770288e-02,0.000000000000000000e+00,-4.647210330175770288e-02
4.833333333333333370e-01,1.644608665767986774e+09,0.000000000000000000e+00,-6.249696650926014896e-02,0.000000000000000000e+00,-6.249696650926014896e-02
5.000000000000000000e-01,1.644608665784146309e+09,0.000000000000000000e+00,-4.647210330175770288e-02,0.000000000000000000e+00,-4.647210330175770288e-02
5.166666666666666075e-01,1.644608665803548336e+09,0.000000000000000000e+00,-6.249696650926014896e-02,0.000000000000000000e+00,-6.249696650926014896e-02
5.333333333333333259e-01,1.644608665819671154e+09,0.000000000000000000e+00,-4.647210330175770288e-02,0.000000000000000000e+00,-4.647210330175770288e-02
5.500000000000000444e-01,1.644608665836491823e+09,0.000000000000000000e+00,-6.249696650926014896e-02,0.000000000000000000e+00,-6.249696650926014896e-02
5.666666666666666519e-01,1.644608665852603674e+09,0.000000000000000000e+00,-4.647210330175770288e-02,0.000000000000000000e+00,-4.647210330175770288e-02
5.833333333333333703e-01,1.644608665870540619e+09,0.000000000000000000e+00,-6.249696650926014896e-02,0.000000000000000000e+00,-6.249696650926014896e-02
5.999999999999999778e-01,1.644608665887497663e+09,0.000000000000000000e+00,-6.249696650926014896e-02,0.000000000000000000e+00,-6.249696650926014896e-02
6.166666666666666963e-01,1.644608665904140711e+09,0.000000000000000000e+00,-6.249696650926014896e-02,0.000000000000000000e+00,-6.249696650926014896e-02
6.333333333333333037e-01,1.644608665921943426e+09,0.000000000000000000e+00,-6.249696650926014896e-02,0.000000000000000000e+00,-6.249696650926014896e-02
6.500000000000000222e-01,1.644608665939232588e+09,0.000000000000000000e+00,-6.249696650926014896e-02,0.000000000000000000e+00,-6.249696650926014896e-02
6.666666666666666297e-01,1.644608665955876589e+09,0.000000000000000000e+00,-6.249696650926014896e-02,0.000000000000000000e+00,-6.249696650926014896e-02
6.833333333333333481e-01,1.644608665974219561e+09,0.000000000000000000e+00,-4.647210330175770288e-02,0.000000000000000000e+00,-4.647210330175770288e-02
6.999999999999999556e-01,1.644608665989544153e+09,0.000000000000000000e+00,-6.249696650926014896e-02,0.000000000000000000e+00,-6.249696650926014896e-02
7.166666666666666741e-01,1.644608666006841898e+09,0.000000000000000000e+00,-4.647210330175770288e-02,0.000000000000000000e+00,-4.647210330175770288e-02
7.333333333333332815e-01,1.644608666024794102e+09,0.000000000000000000e+00,-6.249696650926014896e-02,0.000000000000000000e+00,-6.249696650926014896e-02
7.500000000000000000e-01,1.644608666040349245e+09,0.000000000000000000e+00,-6.249696650926014896e-02,0.000000000000000000e+00,-6.249696650926014896e-02
7.666666666666666075e-01,1.644608666057648420e+09,0.000000000000000000e+00,-6.249696650926014896e-02,0.000000000000000000e+00,-6.249696650926014896e-02
7.833333333333333259e-01,1.644608666074004412e+09,0.000000000000000000e+00,-6.249696650926014896e-02,0.000000000000000000e+00,-6.249696650926014896e-02
8.000000000000000444e-01,1.644608666089552402e+09,0.000000000000000000e+00,-6.249696650926014896e-02,0.000000000000000000e+00,-6.249696650926014896e-02
8.166666666666666519e-01,1.644608666107851982e+09,0.000000000000000000e+00,-4.647210330175770288e-02,0.000000000000000000e+00,-4.647210330175770288e-02
8.333333333333333703e-01,1.644608666124807119e+09,0.000000000000000000e+00,-4.647210330175770288e-02,0.000000000000000000e+00,-4.647210330175770288e-02
8.499999999999999778e-01,1.644608666140262365e+09,0.000000000000000000e+00,-4.647210330175770288e-02,0.000000000000000000e+00,-4.647210330175770288e-02
8.666666666666666963e-01,1.644608666157856703e+09,0.000000000000000000e+00,-4.647210330175770288e-02,0.000000000000000000e+00,-4.647210330175770288e-02
8.833333333333333037e-01,1.644608666174602985e+09,0.000000000000000000e+00,-6.249696650926014896e-02,0.000000000000000000e+00,-6.249696650926014896e-02
9.000000000000000222e-01,1.644608666192553759e+09,0.000000000000000000e+00,-4.647210330175770288e-02,0.000000000000000000e+00,-4.647210330175770288e-02
9.166666666666666297e-01,1.644608666206885815e+09,0.000000000000000000e+00,-4.647210330175770288e-02,0.000000000000000000e+00,-4.647210330175770288e-02
9.333333333333333481e-01,1.644608666224151611e+09,0.000000000000000000e+00,-4.647210330175770288e-02,0.000000000000000000e+00,-4.647210330175770288e-02
9.499999999999999556e-01,1.644608666241405487e+09,0.000000000000000000e+00,-6.249696650926014896e-02,0.000000000000000000e+00,-6.249696650926014896e-02
9.666666666666666741e-01,1.644608666257372856e+09,0.000000000000000000e+00,-4.647210330175770288e-02,0.000000000000000000e+00,-4.647210330175770288e-02
9.833333333333332815e-01,1.644608666275305271e+09,0.000000000000000000e+00,-4.647210330175770288e-02,0.000000000000000000e+00,-4.647210330175770288e-02
1.000000000000000000e+00,1.644608666294070005e+09,0.000000000000000000e+00,-6.249696650926014896e-02,0.000000000000000000e+00,-6.249696650926014896e-02
1.016666666666666607e+00,1.644608666309056997e+09,0.000000000000000000e+00,-4.647210330175770288e-02,0.000000000000000000e+00,-4.647210330175770288e-02
1.033333333333333215e+00,1.644608666326032639e+09,0.000000000000000000e+00,-4.647210330175770288e-02,0.000000000000000000e+00,-4.647210330175770288e-02
1.050000000000000044e+00,1.644608666344083548e+09,0.000000000000000000e+00,-4.647210330175770288e-02,0.000000000000000000e+00,-4.647210330175770288e-02
1.066666666666666652e+00,1.644608666359341383e+09,0.000000000000000000e+00,-4.647210330175770288e-02,0.000000000000000000e+00,-4.647210330175770288e-02
1.083333333333333259e+00,1.644608666378264666e+09,0.000000000000000000e+00,-4.647210330175770288e-02,0.000000000000000000e+00,-4.647210330175770288e-02
1.100000000000000089e+00,1.644608666394223452e+09,0.000000000000000000e+00,-6.249696650926014896e-02,0.000000000000000000e+00,-6.249696650926014896e-02
1.116666666666666696e+00,1.644608666412175179e+09,0.000000000000000000e+00,-6.249696650926014896e-02,0.000000000000000000e+00,-6.249696650926014896e-02
1.133333333333333304e+00,1.644608666427168369e+09,0.000000000000000000e+00,-4.647210330175770288e-02,0.000000000000000000e+00,-4.647210330175770288e-02
1.149999999999999911e+00,1.644608666444089413e+09,0.000000000000000000e+00,-4.647210330175770288e-02,0.000000000000000000e+00,-4.647210330175770288e-02
1.166666666666666741e+00,1.644608666462041616e+09,0.000000000000000000e+00,-4.647210330175770288e-02,0.000000000000000000e+00,-4.647210330175770288e-02
1.183333333333333348e+00,1.644608666480020285e+09,0.000000000000000000e+00,-4.647210330175770288e-02,0.000000000000000000e+00,-4.647210330175770288e-02
1.199999999999999956e+00,1.644608666495952129e+09,0.000000000000000000e+00,-4.647210330175770288e-02,0.000000000000000000e+00,-4.647210330175770288e-02
1.216666666666666563e+00,1.644608666511907816e+09,0.000000000000000000e+00,-4.647210330175770288e-02,0.000000000000000000e+00,-4.647210330175770288e-02
1.233333333333333393e+00,1.644608666528861761e+09,0.000000000000000000e+00,-4.647210330175770288e-02,0.000000000000000000e+00,-4.647210330175770288e-02
1.250000000000000000e+00,1.644608666547813177e+09,0.000000000000000000e+00,-6.249696650926014896e-02,0.000000000000000000e+00,-6.249696650926014896e-02
1.266666666666666607e+00,1.644608666564767599e+09,0.000000000000000000e+00,-4.647210330175770288e-02,0.000000000000000000e+00,-4.647210330175770288e-02
1.283333333333333215e+00,1.644608666581755400e+09,0.000000000000000000e+00,-4.647210330175770288e-02,0.000000000000000000e+00,-4.647210330175770288e-02
1.300000000000000044e+00,1.644608666598675489e+09,0.000000000000000000e+00,-4.647210330175770288e-02,0.000000000000000000e+00,-4.647210330175770288e-02
1.316666666666666652e+00,1.644608666614633083e+09,0.000000000000000000e+00,-4.647210330175770288e-02,0.000000000000000000e+00,-4.647210330175770288e-02
1.333333333333333259e+00,1.644608666632584810e+09,0.000000000000000000e+00,-4.647210330175770288e-02,0.000000000000000000e+00,-4.647210330175770288e-02
1.350000000000000089e+00,1.644608666649793386e+09,0.000000000000000000e+00,-6.249696650926014896e-02,0.000000000000000000e+00,-6.249696650926014896e-02
1.366666666666666696e+00,1.644608666666785240e+09,0.000000000000000000e+00,-4.647210330175770288e-02,0.000000000000000000e+00,-4.647210330175770288e-02
1.383333333333333304e+00,1.644608666685425043e+09,0.000000000000000000e+00,-4.647210330175770288e-02,0.000000000000000000e+00,-4.647210330175770288e-02
1.399999999999999911e+00,1.644608666700394392e+09,0.000000000000000000e+00,-4.647210330175770288e-02,0.000000000000000000e+00,-4.647210330175770288e-02
1.416666666666666741e+00,1.644608666718314648e+09,0.000000000000000000e+00,-4.647210330175770288e-02,0.000000000000000000e+00,-4.647210330175770288e-02
1.433333333333333348e+00,1.644608666733311653e+09,0.000000000000000000e+00,-4.647210330175770288e-02,0.000000000000000000e+00,-4.647210330175770288e-02
1.449999999999999956e+00,1.644608666750253916e+09,0.000000000000000000e+00,-4.647210330175770288e-02,0.000000000000000000e+00,-4.647210330175770288e-02
1.466666666666666563e+00,1.644608666767209530e+09,0.000000000000000000e+00,-4.647210330175770288e-02,0.000000000000000000e+00,-4.647210330175770288e-02
1.483333333333333393e+00,1.644608666784162521e+09,0.000000000000000000e+00,-4.647210330175770288e-02,0.000000000000000000e+00,-4.647210330175770288e-02
1.500000000000000000e+00,1.644608666803085327e+09,0.000000000000000000e+00,-4.647210330175770288e-02,0.000000000000000000e+00,-4.647210330175770288e-02
1.516666666666666607e+00,1.644608666818073034e+09,0.000000000000000000e+00,-6.249696650926014896e-02,0.000000000000000000e+00,-6.249696650926014896e-02
1.533333333333333215e+00,1.644608666842979670e+09,0.000000000000000000e+00,-4.647210330175770288e-02,0.000000000000000000e+00,-4.647210330175770288e-02
1.550000000000000044e+00,1.644608666857985497e+09,0.000000000000000000e+00,-6.249696650926014896e-02,0.000000000000000000e+00,-6.249696650926014896e-02
1.566666666666666652e+00,1.644608666873943806e+09,0.000000000000000000e+00,-4.647210330175770288e-02,0.000000000000000000e+00,-4.647210330175770288e-02
1.583333333333333259e+00,1.644608666892188072e+09,0.000000000000000000e+00,-4.647210330175770288e-02,0.000000000000000000e+00,-4.647210330175770288e-02
1.600000000000000089e+00,1.644608666906842232e+09,0.000000000000000000e+00,-6.249696650926014896e-02,0.000000000000000000e+00,-6.249696650926014896e-02
1.616666666666666696e+00,1.644608666925738811e+09,0.000000000000000000e+00,-4.647210330175770288e-02,0.000000000000000000e+00,-4.647210330175770288e-02
1.633333333333333304e+00,1.644608666940819025e+09,0.000000000000000000e+00,-6.249696650926014896e-02,0.000000000000000000e+00,-6.249696650926014896e-02
1.649999999999999911e+00,1.644608666959057570e+09,0.000000000000000000e+00,-6.249696650926014896e-02,0.000000000000000000e+00,-6.249696650926014896e-02
1.666666666666666741e+00,1.644608666976011992e+09,0.000000000000000000e+00,-4.647210330175770288e-02,0.000000000000000000e+00,-4.647210330175770288e-02
1.683333333333333348e+00,1.644608666992941380e+09,0.000000000000000000e+00,-4.647210330175770288e-02,0.000000000000000000e+00,-4.647210330175770288e-02
1.699999999999999956e+00,1.644608667010132313e+09,0.000000000000000000e+00,-4.647210330175770288e-02,0.000000000000000000e+00,-4.647210330175770288e-02
1.716666666666666563e+00,1.644608667026659727e+09,0.000000000000000000e+00,-6.249696650926014896e-02,0.000000000000000000e+00,-6.249696650926014896e-02
1.733333333333333393e+00,1.644608667041826487e+09,0.000000000000000000e+00,-4.647210330175770288e-02,0.000000000000000000e+00,-4.647210330175770288e-02
1.750000000000000000e+00,1.644608667059044838e+09,0.000000000000000000e+00,-4.647210330175770288e-02,0.000000000000000000e+00,-4.647210330175770288e-02
1.766666666666666607e+00,1.644608667076267242e+09,0.000000000000000000e+00,-3.598880709098515873e-01,0.000000000000000000e+00,-3.598880709098515873e-01
1.783333333333333215e+00,1.644608667092001677e+09,0.000000000000000000e+00,-4.647210330175770288e-02,0.000000000000000000e+00,-4.647210330175770288e-02
1.800000000000000044e+00,1.644608667109934092e+09,0.000000000000000000e+00,-3.520007337854069163e-01,0.000000000000000000e+00,-3.520007337854069163e-01
1.816666666666666652e+00,1.644608667125892162e+09,0.000000000000000000e+00,-3.601382598684640945e-01,0.000000000000000000e+00,-3.601382598684640945e-01
1.833333333333333259e+00,1.644608667141865492e+09,0.000000000000000000e+00,-6.249696650926014896e-02,0.000000000000000000e+00,-6.249696650926014896e-02
1.849999999999999867e+00,1.644608667160243750e+09,0.000000000000000000e+00,-6.249696650926014896e-02,0.000000000000000000e+00,-6.249696650926014896e-02
1.866666666666666696e+00,1.644608667176681519e+09,0.000000000000000000e+00,-4.647210330175770288e-02,0.000000000000000000e+00,-4.647210330175770288e-02
1.883333333333333304e+00,1.644608667193892241e+09,0.000000000000000000e+00,-4.647210330175770288e-02,0.000000000000000000e+00,-4.647210330175770288e-02
1.899999999999999911e+00,1.644608667209341288e+09,0.000000000000000000e+00,-4.647210330175770288e-02,0.000000000000000000e+00,-4.647210330175770288e-02
1.916666666666666741e+00,1.644608667226699352e+09,0.000000000000000000e+00,-4.647210330175770288e-02,0.000000000000000000e+00,-4.647210330175770288e-02
1.933333333333333348e+00,1.644608667242181301e+09,0.000000000000000000e+00,-4.647210330175770288e-02,0.000000000000000000e+00,-4.647210330175770288e-02
1.949999999999999956e+00,1.644608667260327101e+09,0.000000000000000000e+00,-4.647210330175770288e-02,0.000000000000000000e+00,-4.647210330175770288e-02
1.966666666666666563e+00,1.644608667276611805e+09,0.000000000000000000e+00,-6.249696650926014896e-02,0.000000000000000000e+00,-6.249696650926014896e-02
1.983333333333333393e+00,1.644608667293347836e+09,0.000000000000000000e+00,-4.190430993431877305e-01,0.000000000000000000e+00,-4.190430993431877305e-01
2.000000000000000000e+00,1.644608667313246965e+09,0.000000000000000000e+00,-6.249696650926014896e-02,0.000000000000000000e+00,-6.249696650926014896e-02
2.016666666666666607e+00,1.644608667327234745e+09,0.000000000000000000e+00,-3.677754080342962584e-01,0.000000000000000000e+00,-3.677754080342962584e-01
2.033333333333333215e+00,1.644608667345086336e+09,0.000000000000000000e+00,-5.767898418320832610e-01,0.000000000000000000e+00,-5.767898418320832610e-01
2.049999999999999822e+00,1.644608667361209869e+09,0.000000000000000000e+00,-6.083391903298625003e-01,0.000000000000000000e+00,-6.083391903298625003e-01
2.066666666666666430e+00,1.644608667378210068e+09,0.000000000000000000e+00,-7.858042756298709852e-01,0.000000000000000000e+00,-7.858042756298709852e-01
2.083333333333333481e+00,1.644608667394874334e+09,0.000000000000000000e+00,-7.897479441920932652e-01,0.000000000000000000e+00,-7.897479441920932652e-01
2.100000000000000089e+00,1.644608667412876129e+09,0.000000000000000000e+00,-5.652090251040294833e-01,0.000000000000000000e+00,-5.652090251040294833e-01
2.116666666666666696e+00,1.644608667428787708e+09,0.000000000000000000e+00,-4.468989682373571415e-01,0.000000000000000000e+00,-4.468989682373571415e-01
2.133333333333333304e+00,1.644608667446765900e+09,0.000000000000000000e+00,-3.441133966609616346e-01,0.000000000000000000e+00,-3.441133966609616346e-01
2.149999999999999911e+00,1.644608667463742495e+09,0.000000000000000000e+00,-4.647210330175770288e-02,0.000000000000000000e+00,-4.647210330175770288e-02
2.166666666666666519e+00,1.644608667480632305e+09,0.000000000000000000e+00,-4.647210330175770288e-02,0.000000000000000000e+00,-4.647210330175770288e-02
2.183333333333333126e+00,1.644608667496802568e+09,0.000000000000000000e+00,-4.647210330175770288e-02,0.000000000000000000e+00,-4.647210330175770288e-02
2.200000000000000178e+00,1.644608667513736486e+09,0.000000000000000000e+00,-4.647210330175770288e-02,0.000000000000000000e+00,-4.647210330175770288e-02
2.216666666666666785e+00,1.644608667531861067e+09,0.000000000000000000e+00,-6.249696650926014896e-02,0.000000000000000000e+00,-6.249696650926014896e-02
2.233333333333333393e+00,1.644608667548108578e+09,0.000000000000000000e+00,-4.647210330175770288e-02,0.000000000000000000e+00,-4.647210330175770288e-02
2.250000000000000000e+00,1.644608667564066410e+09,0.000000000000000000e+00,-6.249696650926014896e-02,0.000000000000000000e+00,-6.249696650926014896e-02
2.266666666666666607e+00,1.644608667583102703e+09,0.000000000000000000e+00,-6.249696650926014896e-02,0.000000000000000000e+00,-6.249696650926014896e-02
2.283333333333333215e+00,1.644608667600220442e+09,0.000000000000000000e+00,-6.249696650926014896e-02,0.000000000000000000e+00,-6.249696650926014896e-02
2.299999999999999822e+00,1.644608667616177797e+09,0.000000000000000000e+00,-6.249696650926014896e-02,0.000000000000000000e+00,-6.249696650926014896e-02
2.316666666666666430e+00,1.644608667632837534e+09,0.000000000000000000e+00,-4.647210330175770288e-02,0.000000000000000000e+00,-4.647210330175770288e-02
2.333333333333333481e+00,1.644608667651066542e+09,0.000000000000000000e+00,-6.249696650926014896e-02,0.000000000000000000e+00,-6.249696650926014896e-02
2.350000000000000089e+00,1.644608667668022871e+09,0.000000000000000000e+00,-4.647210330175770288e-02,0.000000000000000000e+00,-4.647210330175770288e-02
2.366666666666666696e+00,1.644608667682981491e+09,0.000000000000000000e+00,-4.647210330175770288e-02,0.000000000000000000e+00,-4.647210330175770288e-02
2.383333333333333304e+00,1.644608667701910257e+09,0.000000000000000000e+00,-4.647210330175770288e-02,0.000000000000000000e+00,-4.647210330175770288e-02
2.399999999999999911e+00,1.644608667718863010e+09,0.000000000000000000e+00,-4.647210330175770288e-02,0.000000000000000000e+00,-4.647210330175770288e-02
2.416666666666666519e+00,1.644608667736822605e+09,0.000000000000000000e+00,-6.249696650926014896e-02,0.000000000000000000e+00,-6.249696650926014896e-02
2.433333333333333126e+00,1.644608667753768921e+09,0.000000000000000000e+00,-4.647210330175770288e-02,0.000000000000000000e+00,-4.647210330175770288e-02
2.450000000000000178e+00,1.644608667769726515e+09,0.000000000000000000e+00,-6.249696650926014896e-02,0.000000000000000000e+00,-6.249696650926014896e-02
2.466666666666666785e+00,1.644608667787682056e+09,0.000000000000000000e+00,-4.647210330175770288e-02,0.000000000000000000e+00,-4.647210330175770288e-02
2.483333333333333393e+00,1.644608667804637194e+09,0.000000000000000000e+00,-4.647210330175770288e-02,0.000000000000000000e+00,-4.647210330175770288e-02
2.500000000000000000e+00,1.644608667820591927e+09,0.000000000000000000e+00,-4.647210330175770288e-02,0.000000000000000000e+00,-4.647210330175770288e-02
2.516666666666666607e+00,1.644608667838925600e+09,0.000000000000000000e+00,-4.647210330175770288e-02,0.000000000000000000e+00,-4.647210330175770288e-02
2.533333333333333215e+00,1.644608667855273485e+09,0.000000000000000000e+00,-4.647210330175770288e-02,0.000000000000000000e+00,-4.647210330175770288e-02
2.549999999999999822e+00,1.644608667872254133e+09,0.000000000000000000e+00,-4.647210330175770288e-02,0.000000000000000000e+00,-4.647210330175770288e-02
2.566666666666666430e+00,1.644608667888614893e+09,0.000000000000000000e+00,-4.647210330175770288e-02,0.000000000000000000e+00,-4.647210330175770288e-02
2.583333333333333481e+00,1.644608667906563044e+09,0.000000000000000000e+00,-6.249696650926014896e-02,0.000000000000000000e+00,-6.249696650926014896e-02
2.600000000000000089e+00,1.644608667924514294e+09,0.000000000000000000e+00,-4.647210330175770288e-02,0.000000000000000000e+00,-4.647210330175770288e-02
2.616666666666666696e+00,1.644608667940491915e+09,0.000000000000000000e+00,-4.647210330175770288e-02,0.000000000000000000e+00,-4.647210330175770288e-02
2.633333333333333304e+00,1.644608667958538055e+09,0.000000000000000000e+00,-4.647210330175770288e-02,0.000000000000000000e+00,-4.647210330175770288e-02
2.649999999999999911e+00,1.644608667973881245e+09,0.000000000000000000e+00,-4.647210330175770288e-02,0.000000000000000000e+00,-4.647210330175770288e-02
2.666666666666666519e+00,1.644608667993626833e+09,0.000000000000000000e+00,-4.647210330175770288e-02,0.000000000000000000e+00,-4.647210330175770288e-02
2.683333333333333126e+00,1.644608668009810209e+09,0.000000000000000000e+00,-4.647210330175770288e-02,0.000000000000000000e+00,-4.647210330175770288e-02
2.700000000000000178e+00,1.644608668027760744e+09,0.000000000000000000e+00,-4.647210330175770288e-02,0.000000000000000000e+00,-4.647210330175770288e-02
2.716666666666666785e+00,1.644608668045398712e+09,0.000000000000000000e+00,-4.647210330175770288e-02,0.000000000000000000e+00,-4.647210330175770288e-02
2.733333333333333393e+00,1.644608668061480522e+09,0.000000000000000000e+00,-4.647210330175770288e-02,0.000000000000000000e+00,-4.647210330175770288e-02
2.750000000000000000e+00,1.644608668076514006e+09,0.000000000000000000e+00,-3.204513852876276769e-01,0.000000000000000000e+00,-3.204513852876276769e-01
2.766666666666666607e+00,1.644608668094889402e+09,0.000000000000000000e+00,-6.249696650926014896e-02,0.000000000000000000e+00,-6.249696650926014896e-02
2.783333333333333215e+00,1.644608668113216400e+09,0.000000000000000000e+00,-3.480570652231839701e-01,0.000000000000000000e+00,-3.480570652231839701e-01
2.799999999999999822e+00,1.644608668128513098e+09,0.000000000000000000e+00,-4.545361164031893608e-01,0.000000000000000000e+00,-4.545361164031893608e-01
2.816666666666666430e+00,1.644608668145869732e+09,0.000000000000000000e+00,-5.097474762743025023e-01,0.000000000000000000e+00,-5.097474762743025023e-01
2.833333333333333481e+00,1.644608668162201166e+09,0.000000000000000000e+00,-3.916876083662433339e-01,0.000000000000000000e+00,-3.916876083662433339e-01
2.850000000000000089e+00,1.644608668180152893e+09,0.000000000000000000e+00,-5.178850023573602357e-01,0.000000000000000000e+00,-5.178850023573602357e-01
2.866666666666666696e+00,1.644608668198103905e+09,0.000000000000000000e+00,-3.598880709098515873e-01,0.000000000000000000e+00,-3.598880709098515873e-01
2.883333333333333304e+00,1.644608668217026949e+09,0.000000000000000000e+00,-3.364762484951301369e-01,0.000000000000000000e+00,-3.364762484951301369e-01
2.899999999999999911e+00,1.644608668233985662e+09,0.000000000000000000e+00,-4.647210330175770288e-02,0.000000000000000000e+00,-4.647210330175770288e-02
2.916666666666666519e+00,1.644608668249318361e+09,0.000000000000000000e+00,-6.249696650926014896e-02,0.000000000000000000e+00,-6.249696650926014896e-02
2.933333333333333126e+00,1.644608668266324282e+09,0.000000000000000000e+00,-4.647210330175770288e-02,0.000000000000000000e+00,-4.647210330175770288e-02
2.950000000000000178e+00,1.644608668283703804e+09,0.000000000000000000e+00,-4.647210330175770288e-02,0.000000000000000000e+00,-4.647210330175770288e-02
2.966666666666666785e+00,1.644608668301105738e+09,0.000000000000000000e+00,-4.647210330175770288e-02,0.000000000000000000e+00,-4.647210330175770288e-02
2.983333333333333393e+00,1.644608668318106174e+09,0.000000000000000000e+00,-4.647210330175770288e-02,0.000000000000000000e+00,-4.647210330175770288e-02
3.000000000000000000e+00,1.644608668337442875e+09,0.000000000000000000e+00,-4.647210330175770288e-02,0.000000000000000000e+00,-4.647210330175770288e-02
