# 
# 
# 
# 
# 
# 
# 
# 
# 
# 
# time,realtime,ref,inp,inp0,inp1,dis,state...
0.000000000000000000e+00,1.644608355241151571e+09,-0.000000000000000000e+00,1.762734952825329576e-02,0.000000000000000000e+00,3.525469905650659153e-02,-0.000000000000000000e+00,0.000000000000000000e+00,0.000000000000000000e+00
1.666666666666666644e-02,1.644608355244146824e+09,-1.989867912377870993e-06,1.762734952825329576e-02,0.000000000000000000e+00,3.525469905650659153e-02,0.000000000000000000e+00,2.434698312381975835e-06,2.913544604918395548e-04
3.333333333333333287e-02,1.644608355248132467e+09,-7.919757644119849289e-06,1.762734952825329576e-02,0.000000000000000000e+00,3.525469905650659153e-02,-1.142399897115739989e-05,9.683484387729185172e-06,5.777044332378613407e-04
5.000000000000000278e-02,1.644608355263818979e+09,-1.774150828134864571e-05,-2.997322866420629173e-01,-6.347192723406324122e-01,3.525469905650659153e-02,-4.964693619178685242e-05,-2.217393146459417265e-05,-4.386803710547393376e-03
6.666666666666666574e-02,1.644608355283308029e+09,-3.142211321506751403e-05,1.602486320750845994e-03,0.000000000000000000e+00,3.204972641501691987e-03,-1.197429639344158416e-04,-9.447662187070485522e-05,-4.289788630861008506e-03
8.333333333333332871e-02,1.644608355298319340e+09,-4.894283042971107336e-05,1.762734952825329576e-02,0.000000000000000000e+00,3.525469905650659153e-02,-2.255844649751789386e-04,-1.629770508320267067e-04,-3.931258784178384529e-03
1.000000000000000056e-01,1.644608355316397905e+09,-7.029733303044807542e-05,1.762734952825329576e-02,0.000000000000000000e+00,3.525469905650659153e-02,-3.697820664146926248e-04,-2.255714193146193076e-04,-3.581038291331815372e-03
1.166666666666666685e-01,1.644608355332355499e+09,-9.548894126235435941e-05,1.602486320750845994e-03,0.000000000000000000e+00,3.204972641501691987e-03,-5.536514604261689272e-04,-2.846159104469361020e-04,-3.504513219194087259e-03
1.333333333333333315e-01,1.644608355350953579e+09,-1.245269981336508114e-04,1.762734952825329576e-02,0.000000000000000000e+00,3.525469905650659153e-02,-7.772074323097265649e-04,-3.402130689516574434e-04,-3.168080359090306303e-03
1.499999999999999944e-01,1.644608355366876364e+09,-1.574224704600165367e-04,1.762734952825329576e-02,0.000000000000000000e+00,3.525469905650659153e-02,-1.039185079917799570e-03,-3.902856658792305334e-04,-2.841538354690475131e-03
1.666666666666666574e-01,1.644608355383366585e+09,-1.941828753553875592e-04,-2.918449495176183017e-01,-6.189445980917431811e-01,3.525469905650659153e-02,-1.337087792630724118e-03,-4.777466130446920804e-04,-7.640444696029162833e-03
1.833333333333333204e-01,1.644608355400227070e+09,-2.348066485878080823e-04,1.762734952825329576e-02,0.000000000000000000e+00,3.525469905650659153e-02,-1.667261147978655982e-03,-6.018276405740262056e-04,-7.250362195495251710e-03
2.000000000000000111e-01,1.644608355417235851e+09,-2.792770855060088247e-04,1.762734952825329576e-02,0.000000000000000000e+00,3.525469905650659153e-02,-2.024991485035440488e-03,-7.195105813767269532e-04,-6.872639953972253454e-03
2.166666666666666741e-01,1.644608355436126709e+09,-3.275559971653221468e-04,1.762734952825329576e-02,0.000000000000000000e+00,3.525469905650659153e-02,-2.404627531033931131e-03,-8.310027581919501513e-04,-6.507435743870040867e-03
2.333333333333333370e-01,1.644608355454105377e+09,-3.795772336186243115e-04,1.762734952825329576e-02,0.000000000000000000e+00,3.525469905650659153e-02,-2.799723096264408826e-03,-9.365132111564730948e-04,-6.154798183705702946e-03
2.500000000000000000e-01,1.644608355468040943e+09,-4.352402329076522983e-04,1.602486320750845994e-03,0.000000000000000000e+00,3.204972641501691987e-03,-3.203198516965046275e-03,-1.038464168255951500e-03,-6.079525763209794528e-03
2.666666666666666630e-01,1.644608355489019394e+09,-4.944037579536243732e-04,1.762734952825329576e-02,0.000000000000000000e+00,3.525469905650659153e-02,-3.607518221039401288e-03,-1.137013464415214271e-03,-5.747312611930299915e-03
2.833333333333333259e-01,1.644608355502948046e+09,-5.568799842102069644e-04,1.762734952825329576e-02,0.000000000000000000e+00,3.525469905650659153e-02,-4.004881521128511070e-03,-1.230126644183319540e-03,-5.427158298710115306e-03
2.999999999999999889e-01,1.644608355519929886e+09,-6.224290985600258903e-04,1.762734952825329576e-02,0.000000000000000000e+00,3.525469905650659153e-02,-4.387423507506875604e-03,-1.318000975494614067e-03,-5.118618533719713516e-03
3.166666666666666519e-01,1.644608355537859440e+09,-6.907545645096665717e-04,1.602486320750845994e-03,0.000000000000000000e+00,3.204972641501691987e-03,-4.747422722695717780e-03,-1.403038678429091449e-03,-5.085996437484317616e-03
3.333333333333333148e-01,1.644608355554809093e+09,-7.614992003170007340e-04,1.762734952825329576e-02,0.000000000000000000e+00,3.525469905650659153e-02,-5.077512153337414985e-03,-1.485369415554555015e-03,-4.794501744110255675e-03
3.499999999999999778e-01,1.644608355571789503e+09,-8.342422053665276161e-04,1.602486320750845994e-03,0.000000000000000000e+00,3.204972641501691987e-03,-5.370889974972114546e-03,-1.565136052776223670e-03,-4.777541834458941782e-03
3.666666666666666408e-01,1.644608355590713501e+09,-9.084972560374106462e-04,1.602486320750845994e-03,0.000000000000000000e+00,3.204972641501691987e-03,-5.621526433570232621e-03,-1.644656985380942623e-03,-4.765004903734546167e-03
3.833333333333333037e-01,1.644608355609662533e+09,-9.837117756747574583e-04,1.762734952825329576e-02,0.000000000000000000e+00,3.525469905650659153e-02,-5.824363245096420526e-03,-1.721785354566834642e-03,-4.491160096496039575e-03
4.000000000000000222e-01,1.644608355624622822e+09,-1.059267464309483894e-03,1.602486320750845994e-03,0.000000000000000000e+00,3.204972641501691987e-03,-5.975501941515424034e-03,-1.796621704667829928e-03,-4.489207340074454107e-03
4.166666666666666852e-01,1.644608355640580177e+09,-1.134482152747787100e-03,1.762734952825329576e-02,0.000000000000000000e+00,3.525469905650659153e-02,-6.072377688401580861e-03,-1.869225796968489433e-03,-4.224020383776266180e-03
4.333333333333333481e-01,1.644608355655540228e+09,-1.208613022875802039e-03,1.762734952825329576e-02,0.000000000000000000e+00,3.525469905650659153e-02,-6.113915244981819701e-03,-1.937452471606944783e-03,-3.963903137749953329e-03
4.500000000000000111e-01,1.644608355672531366e+09,-1.280861211838269257e-03,1.602486320750845994e-03,0.000000000000000000e+00,3.204972641501691987e-03,-6.100663930729369536e-03,-2.003591318159469135e-03,-3.972733918030404293e-03
4.666666666666666741e-01,1.644608355689588070e+09,-1.350377792519133697e-03,1.762734952825329576e-02,0.000000000000000000e+00,3.525469905650659153e-02,-6.034908701644199625e-03,-2.067653680424339294e-03,-3.715464208655382822e-03
4.833333333333333370e-01,1.644608355708617210e+09,-1.416271096866421331e-03,1.762734952825329576e-02,0.000000000000000000e+00,3.525469905650659153e-02,-5.920754721650396853e-03,-2.127447981415578337e-03,-3.460559994220762346e-03
5.000000000000000000e-01,1.644608355724565268e+09,-1.477615322469232571e-03,1.762734952825329576e-02,0.000000000000000000e+00,3.525469905650659153e-02,-5.764183137104529966e-03,-2.183007460584812306e-03,-3.207281075199049005e-03
5.166666666666666075e-01,1.644608355741180897e+09,-1.533460336828814134e-03,1.762734952825329576e-02,0.000000000000000000e+00,3.525469905650659153e-02,-5.573076121721472036e-03,-2.234354211651370502e-03,-2.955029767356960602e-03
5.333333333333333259e-01,1.644608355758135319e+09,-1.582842568390190052e-03,1.762734952825329576e-02,0.000000000000000000e+00,3.525469905650659153e-02,-5.357209651282699575e-03,-2.281501799745790874e-03,-2.703379847979696989e-03
5.500000000000000444e-01,1.644608355775089741e+09,-1.624796849036866820e-03,1.762734952825329576e-02,0.000000000000000000e+00,3.525469905650659153e-02,-5.128212887855462809e-03,-2.324458351382460188e-03,-2.452104352336397126e-03
5.666666666666666519e-01,1.644608355791047096e+09,-1.658369049813014640e-03,1.602486320750845994e-03,0.000000000000000000e+00,3.204972641501691987e-03,-4.899493497084960424e-03,-2.365443455654366294e-03,-2.466069367670059749e-03
5.833333333333333703e-01,1.644608355808999300e+09,-1.682629330525193959e-03,3.447199848294809077e-01,6.541852706024552377e-01,3.525469905650659153e-02,-4.686128684253556935e-03,-2.359238351172762791e-03,3.194956463602125103e-03
5.999999999999999778e-01,1.644608355825990677e+09,-1.696685804970965612e-03,6.247395577624028640e-01,1.214224416468299150e+00,3.525469905650659153e-02,-4.504722209770036477e-03,-2.220763220794492229e-03,1.339372859243440073e-02
6.166666666666666963e-01,1.644608355843940258e+09,-1.699698407200472047e-03,7.560761716158970192e-01,1.476897644175287461e+00,3.525469905650659153e-02,-4.373228126878286361e-03,-1.895558773764039265e-03,2.559690653688759254e-02
6.333333333333333037e-01,1.644608355860894442e+09,-1.690892730764746938e-03,8.713054649024531972e-01,1.707356230748399817e+00,3.525469905650659153e-02,-4.310742467808515235e-03,-1.352729378650842232e-03,3.950398918235180357e-02
6.500000000000000222e-01,1.644608355878387213e+09,-1.669573602630620686e-03,9.767050182764832611e-01,1.950205063911464975e+00,3.204972641501691987e-03,-4.337264583397837381e-03,-5.654819503186105361e-04,5.492287098223766484e-02
6.666666666666666297e-01,1.644608355894345522e+09,-1.635138146595866695e-03,6.784320691638398015e-01,1.001112175121119385e+00,3.557519632065603843e-01,-4.473430309401885650e-03,4.354007618582080973e-04,6.515463225096815303e-02
6.833333333333333481e-01,1.644608355915288687e+09,-1.587088087822897129e-03,5.144663631118273628e-01,9.936780271671481479e-01,3.525469905650659153e-02,-4.740219584373272371e-03,1.582715738340229614e-03,7.250275299994370093e-02
6.999999999999999556e-01,1.644608355930258512e+09,-1.525041050681369241e-03,2.865682832161406957e-01,5.699315937907797336e-01,3.204972641501691987e-03,-5.158641573261929514e-03,2.819949278703839934e-03,7.595568015362806624e-02
7.166666666666666741e-01,1.644608355947204113e+09,-1.448740606551963614e-03,1.602486320750845994e-03,0.000000000000000000e+00,3.204972641501691987e-03,-5.749400752139050691e-03,4.074813470931338243e-03,7.463170072087743634e-02
7.333333333333332815e-01,1.644608355966153383e+09,-1.358064836645745494e-03,1.602486320750845994e-03,0.000000000000000000e+00,3.204972641501691987e-03,-6.532547777239287347e-03,5.307686039321663808e-03,7.331666046154564076e-02
7.500000000000000000e-01,1.644608355981113434e+09,-1.253033187229214522e-03,1.762734952825329576e-02,0.000000000000000000e+00,3.525469905650659153e-02,-7.527119290738202260e-03,6.520898895461703718e-03,7.227178477603085627e-02
7.666666666666666075e-01,1.644608355999076366e+09,-1.133811410850792166e-03,1.762734952825329576e-02,0.000000000000000000e+00,3.525469905650659153e-02,-8.750771101580177500e-03,7.716672464195529178e-03,7.122395418107491105e-02
7.833333333333333259e-01,1.644608356019011021e+09,-1.000714407120929187e-03,1.762734952825329576e-02,0.000000000000000000e+00,3.525469905650659153e-02,-1.021940941791631315e-02,8.894924067507642071e-03,7.016916824626841243e-02
8.000000000000000444e-01,1.644608356037959814e+09,-8.542068001269865173e-04,1.762734952825329576e-02,0.000000000000000000e+00,3.525469905650659153e-02,-1.194682499444956782e-02,1.005550300129790832e-02,6.910326472137487408e-02
8.166666666666666519e-01,1.644608356053917170e+09,-6.949011164345915079e-04,1.762734952825329576e-02,0.000000000000000000e+00,3.525469905650659153e-02,-1.394433518989019426e-02,1.119818820236176751e-02,6.802196309261707152e-02
8.333333333333333703e-01,1.644608356068956614e+09,-5.235534575538337496e-04,1.762734952825329576e-02,0.000000000000000000e+00,3.525469905650659153e-02,-1.622043900404393502e-02,1.232268668293897730e-02,6.692091312077667886e-02
8.499999999999999778e-01,1.644608356085941553e+09,-3.410565933961645169e-04,2.914419244926861330e-01,5.476291499288656883e-01,3.525469905650659153e-02,-1.878049017864753811e-02,1.346645221839772900e-02,7.032150482388523083e-02
8.666666666666666963e-01,1.644608356102285624e+09,-1.484304382337210270e-04,4.587102534570419166e-01,8.821658078575772555e-01,3.525469905650659153e-02,-2.162639339942634339e-02,1.468913469830454913e-02,7.638355334493866777e-02
8.833333333333333037e-01,1.644608356120591164e+09,5.319009242649099141e-05,4.215395136871852300e-01,8.078243283178638823e-01,3.525469905650659153e-02,-2.475632852815729326e-02,1.600644767773654054e-02,8.167929345149047005e-02
9.000000000000000222e-01,1.644608356138514996e+09,2.625698072891397656e-04,3.708219600278161998e-01,7.384389474141307419e-01,3.204972641501691987e-03,-2.816450762262243113e-02,1.740381566879664957e-02,8.599288300051692591e-02
9.166666666666666297e-01,1.644608356154497385e+09,4.783904709617854451e-04,3.595882807374238266e-01,6.839218624183410755e-01,3.525469905650659153e-02,-3.184096926980914399e-02,1.887042162776030388e-02,8.998873223268018251e-02
9.333333333333333481e-01,1.644608356173421621e+09,6.992704260665752415e-04,3.633053547144094453e-01,6.913560103723123129e-01,3.525469905650659153e-02,-3.577141446480660431e-02,2.040304369429781980e-02,9.391500917030271012e-02
9.499999999999999556e-01,1.644608356188736916e+09,9.237864503002698449e-04,3.187004669905811882e-01,6.021462349246557988e-01,3.525469905650659153e-02,-3.993708791654358020e-02,2.199382519622131507e-02,9.697028398627983992e-02
9.666666666666666741e-01,1.644608356204692602e+09,1.150497653976715554e-03,3.460414668479117606e-01,6.888779610543218634e-01,3.204972641501691987e-03,-4.431470825445901762e-02,2.363827766243297226e-02,1.003546108299590567e-01
9.833333333333332815e-01,1.644608356220829248e+09,1.377971185803995207e-03,5.144663631118273628e-01,9.936780271671481479e-01,3.525469905650659153e-02,-4.887645015075064991e-02,2.536130099177119970e-02,1.063914193833054439e-01
1.000000000000000000e+00,1.644608356241001129e+09,1.604809478634099161e-03,6.842951987536092240e-01,1.365385424865716901e+00,3.204972641501691987e-03,-5.358998086496338797e-02,2.720690979829332862e-02,1.150575642082607430e-01
1.016666666666666607e+00,1.644608356254992008e+09,1.829678733223149027e-03,7.982030100217346602e-01,1.561151320986962743e+00,3.525469905650659153e-02,-5.841855316599479930e-02,2.921082345856420084e-02,1.253833914955855278e-01
1.033333333333333215e+00,1.644608356271944046e+09,2.051338307186797473e-03,7.363342344314086629e-01,1.469463496221315557e+00,3.204972641501691987e-03,-6.332115599625257052e-02,3.137618553576882602e-02,1.344349140589668479e-01
1.050000000000000044e+00,1.644608356288269281e+09,2.268670648830854904e-03,7.127103085510636538e-01,1.390165918045620730e+00,3.525469905650659153e-02,-6.825272361943372779e-02,3.368721202253915914e-02,1.428648473210570036e-01
1.066666666666666652e+00,1.644608356308249474e+09,2.480711391861946998e-03,6.211049411448524848e-01,1.239004909648203201e+00,3.204972641501691987e-03,-7.316440334337365181e-02,3.612424206771369661e-02,1.495601595725737643e-01
1.083333333333333259e+00,1.644608356324548960e+09,2.686679207568657551e-03,6.247395577624028640e-01,1.214224416468299150e+00,3.525469905650659153e-02,-7.800388123924785477e-02,3.867176947450361169e-02,1.561248934411697542e-01
1.100000000000000089e+00,1.644608356340506792e+09,2.886004996305586382e-03,5.503980782226889357e-01,1.065541457388871294e+00,3.525469905650659153e-02,-8.271576459505128320e-02,4.131688349819077205e-02,1.612744846446098890e-01
1.116666666666666696e+00,1.644608356356643915e+09,3.078359990351384797e-03,5.244610177432248443e-01,1.045717062844947920e+00,3.204972641501691987e-03,-8.724201915198126489e-02,4.404290516955561285e-02,1.658354462830990972e-01
1.133333333333333304e+00,1.644608356372963190e+09,3.263682335731051421e-03,5.912858919695317406e-01,1.147317084882556903e+00,3.525469905650659153e-02,-9.152245848455436983e-02,4.685295157448669812e-02,1.713547904362509589e-01
1.149999999999999911e+00,1.644608356389441729e+09,3.442201721617364155e-03,6.396078536703452277e-01,1.243961008284183878e+00,3.525469905650659153e-02,-9.549528220660638556e-02,4.976035023913512323e-02,1.775159346293315177e-01
1.166666666666666741e+00,1.644608356408065557e+09,3.614461632613035109e-03,4.996805245633201831e-01,9.961560764851385974e-01,3.204972641501691987e-03,-9.909765902339510990e-02,5.274975926542532778e-02,1.812029066953733947e-01
1.183333333333333348e+00,1.644608356426013708e+09,3.781338811653106244e-03,1.762734952825329576e-02,0.000000000000000000e+00,3.525469905650659153e-02,-1.022663500124931790e-01,5.573308949348111663e-02,1.768089264592469512e-01
1.199999999999999956e+00,1.644608356442726612e+09,3.944059539472236607e-03,1.762734952825329576e-02,0.000000000000000000e+00,3.525469905650659153e-02,-1.049383669105438954e-01,5.864342455603693133e-02,1.724434077736529680e-01
1.216666666666666563e+00,1.644608356459659815e+09,4.104212360498210588e-03,1.762734952825329576e-02,0.000000000000000000e+00,3.525469905650659153e-02,-1.070516596166092710e-01,6.148131205240893460e-02,1.681151151091417051e-01
1.233333333333333393e+00,1.644608356476720095e+09,4.263756914528113451e-03,1.762734952825329576e-02,0.000000000000000000e+00,3.525469905650659153e-02,-1.085458266028450913e-01,6.424745278855857611e-02,1.638336664217488747e-01
1.250000000000000000e+00,1.644608356493078709e+09,4.425028568412996480e-03,1.602486320750845994e-03,0.000000000000000000e+00,3.204972641501691987e-03,-1.093628414563285883e-01,6.694050119381263209e-02,1.593446120975685332e-01
1.266666666666666607e+00,1.644608356511032820e+09,4.590738581937476095e-03,1.602486320750845994e-03,0.000000000000000000e+00,3.204972641501691987e-03,-1.094477883683637742e-01,6.955934032451030480e-02,1.549283512660773188e-01
1.283333333333333215e+00,1.644608356526423693e+09,4.763969586785828103e-03,1.762734952825329576e-02,0.000000000000000000e+00,3.525469905650659153e-02,-1.087495990453109379e-01,7.210749488052593803e-02,1.508614925514440708e-01
1.300000000000000044e+00,1.644608356544733524e+09,4.948166206509855593e-03,1.762734952825329576e-02,0.000000000000000000e+00,3.525469905650659153e-02,-1.072217832431982681e-01,7.458864119720018393e-02,1.468871056728540681e-01
1.316666666666666652e+00,1.644608356561022282e+09,5.147120698275423414e-03,1.762734952825329576e-02,0.000000000000000000e+00,3.525469905650659153e-02,-1.048231449316914116e-01,7.700442797798380534e-02,1.430180556353464749e-01
1.333333333333333259e+00,1.644608356577808619e+09,5.364953553313736405e-03,1.762734952825329576e-02,0.000000000000000000e+00,3.525469905650659153e-02,-1.015184759753768040e-01,7.935672142912253424e-02,1.392675767434223555e-01
1.350000000000000089e+00,1.644608356593965530e+09,5.606089051842358395e-03,1.602486320750845994e-03,0.000000000000000000e+00,3.204972641501691987e-03,-9.727921918493460940e-02,8.164539708290613484e-02,1.353842888752357088e-01
1.366666666666666696e+00,1.644608356611918449e+09,5.875225829096776022e-03,1.762734952825329576e-02,0.000000000000000000e+00,3.525469905650659153e-02,-9.208409264006214845e-02,8.387281854945072279e-02,1.319159216901609755e-01
1.383333333333333304e+00,1.644608356628050089e+09,6.177302571337243108e-03,1.762734952825329576e-02,0.000000000000000000e+00,3.525469905650659153e-02,-8.591966732152563069e-02,8.604376438235114555e-02,1.286067705607060185e-01
1.399999999999999911e+00,1.644608356646030426e+09,6.517459023537463397e-03,1.762734952825329576e-02,0.000000000000000000e+00,3.525469905650659153e-02,-7.878089031218968308e-02,8.816100076947505637e-02,1.254703084938498248e-01
1.416666666666666741e+00,1.644608356662983894e+09,6.900992553175385597e-03,1.602486320750845994e-03,0.000000000000000000e+00,3.204972641501691987e-03,-7.067154613613670089e-02,9.022530270308547207e-02,1.222548555633163059e-01
1.433333333333333348e+00,1.644608356679560184e+09,7.333310576356729706e-03,1.602486320750845994e-03,0.000000000000000000e+00,3.204972641501691987e-03,-6.160464919997622746e-02,9.223771019881245314e-02,1.192424120196022286e-01
1.449999999999999956e+00,1.644608356696509838e+09,7.819879212637719998e-03,1.602486320750845994e-03,0.000000000000000000e+00,3.204972641501691987e-03,-5.160276077918824617e-02,9.420170784816891962e-02,1.164450764626051432e-01
1.466666666666666563e+00,1.644608356712467194e+09,8.366168592593151848e-03,1.602486320750845994e-03,0.000000000000000000e+00,3.204972641501691987e-03,-4.069822455197593530e-02,9.612097574760977703e-02,1.138742129259772001e-01
1.483333333333333393e+00,1.644608356728633404e+09,8.977595296640539929e-03,1.602486320750845994e-03,0.000000000000000000e+00,3.204972641501691987e-03,-2.893331531987480831e-02,9.799937598552811713e-02,1.115402988714067900e-01
1.500000000000000000e+00,1.644608356748560190e+09,9.659462454130100448e-03,1.602486320750845994e-03,0.000000000000000000e+00,3.204972641501691987e-03,-1.636029626363007250e-02,9.984093660890967781e-02,1.094527747489772440e-01
1.516666666666666607e+00,1.644608356765239477e+09,1.041689807753314045e-02,1.602486320750845994e-03,0.000000000000000000e+00,3.204972641501691987e-03,-3.041380859176399509e-03,1.016498331086989060e-01,1.076198966735475854e-01
1.533333333333333215e+00,1.644608356783497810e+09,1.125479224703113644e-02,-3.044724009425465311e-02,0.000000000000000000e+00,-6.089448018850930622e-02,1.095140358434164816e-02,1.034259407647636492e-01,1.055188584089842979e-01
1.550000000000000044e+00,1.644608356798436403e+09,1.217773379529522165e-02,-3.044724009425465311e-02,0.000000000000000000e+00,-6.089448018850930622e-02,2.553645291168098186e-02,1.051693358071630752e-01,1.036936169135419805e-01
1.566666666666666652e+00,1.644608356814791679e+09,1.318994717018429595e-02,-3.083701906423469974e-01,-5.558459010961847024e-01,-6.089448018850930622e-02,4.062292484394314229e-02,1.068462591556636337e-01,9.755423913506802713e-02
1.583333333333333259e+00,1.644608356833779335e+09,1.429523017397026259e-02,-3.202011963290139485e-01,-5.795079124695186046e-01,-6.089448018850930622e-02,5.611117967181913219e-02,1.084222126561880106e-01,9.157678535692373445e-02
1.600000000000000089e+00,1.644608356850728273e+09,1.549689329108983743e-02,-3.044724009425465311e-02,0.000000000000000000e+00,-6.089448018850930622e-02,7.189332215149936423e-02,1.099415683343832051e-01,9.074819771301594062e-02
1.616666666666666696e+00,1.644608356866701603e+09,1.679770132196987259e-02,-3.520007337854069163e-01,-6.110572609672985100e-01,-9.294420660351540575e-02,8.785384281198453660e-02,1.114050200095350052e-01,8.488229785497376778e-02
1.633333333333333304e+00,1.644608356883657217e+09,1.819981803790754124e-02,-3.044724009425465311e-02,0.000000000000000000e+00,-6.089448018850930622e-02,1.038703558496494178e-01,1.128181422258351663e-01,8.469289423459684663e-02
1.649999999999999911e+00,1.644608356901588202e+09,1.970475456112998763e-02,-3.044724009425465311e-02,0.000000000000000000e+00,-6.089448018850930622e-02,1.198144297533072222e-01,1.142303360790948158e-01,8.477015354232141087e-02
1.666666666666666741e+00,1.644608356918544054e+09,2.131332215492496782e-02,-3.044724009425465311e-02,0.000000000000000000e+00,-6.089448018850930622e-02,1.355525057809748024e-01,1.156459806673028612e-01,8.510626338222536391e-02
1.683333333333333348e+00,1.644608356933502197e+09,2.302559008113658559e-02,-3.044724009425465311e-02,0.000000000000000000e+00,-6.089448018850930622e-02,1.509468984084321730e-01,1.170693069437082345e-01,8.569126474438960861e-02
1.699999999999999956e+00,1.644608356952178955e+09,2.484084914647071568e-02,-3.044724009425465311e-02,0.000000000000000000e+00,-6.089448018850930622e-02,1.658568708998545138e-01,1.185043618149764638e-01,8.651303705321471138e-02
1.716666666666666563e+00,1.644608356968735218e+09,2.675758151516238054e-02,-4.030182361356847154e-01,-7.451419920828601384e-01,-6.089448018850930622e-02,1.801397782226183131e-01,1.199035124582011891e-01,8.139924544477221413e-02
1.733333333333333393e+00,1.644608356985407591e+09,2.877343731393316312e-02,-3.044724009425465311e-02,0.000000000000000000e+00,-6.089448018850930622e-02,1.936522686518676595e-01,1.212714656045296713e-01,8.275137610773727892e-02
1.750000000000000000e+00,1.644608357002125740e+09,3.088521849621755910e-02,-3.044724009425465311e-02,0.000000000000000000e+00,-6.089448018850930622e-02,2.062515345954728241e-01,1.226635077218445197e-01,8.428940556544273210e-02
1.766666666666666607e+00,1.644608357021053553e+09,3.308887036686657124e-02,-4.647210330175770288e-02,0.000000000000000000e+00,-9.294420660351540575e-02,2.177966024259024858e-01,1.240803524784855616e-01,8.572796912753744003e-02
1.783333333333333215e+00,1.644608357037010908e+09,3.537948109653283463e-02,-3.044724009425465311e-02,0.000000000000000000e+00,-6.089448018850930622e-02,2.281496504412748316e-01,1.255246179296377607e-01,8.757874384883555796e-02
1.800000000000000044e+00,1.644608357053667545e+09,3.775128947739033597e-02,-4.647210330175770288e-02,0.000000000000000000e+00,-9.294420660351540575e-02,2.371773435016486520e-01,1.269985075435848543e-01,8.928327490488666141e-02
1.816666666666666652e+00,1.644608357069247961e+09,4.019770108949238807e-02,-3.044724009425465311e-02,0.000000000000000000e+00,-6.089448018850930622e-02,2.447521724061874904e-01,1.285038301790362436e-01,9.134970114130083751e-02
1.833333333333333259e+00,1.644608357086530209e+09,4.271131296075925121e-02,-3.044724009425465311e-02,0.000000000000000000e+00,-6.089448018850930622e-02,2.507537856988975022e-01,1.300441367817609384e-01,9.348117029865350702e-02
1.849999999999999867e+00,1.644608357104708433e+09,4.528394671420041956e-02,-3.044724009425465311e-02,0.000000000000000000e+00,-6.089448018850930622e-02,2.550703013213032055e-01,1.316202696701495589e-01,9.564875509738236803e-02
1.866666666666666696e+00,1.644608357120725393e+09,4.790669010446956672e-02,-3.044265220801246619e-01,-5.479585639717400314e-01,-6.089448018850930622e-02,2.575995853746230191e-01,1.331947367747961797e-01,9.329383904764404489e-02
1.883333333333333304e+00,1.644608357139157057e+09,5.056994675320485716e-02,-4.385112531956862902e-01,-8.161280262028632881e-01,-6.089448018850930622e-02,2.582504852159042130e-01,1.347118505934384036e-01,8.877237909600543819e-02
1.899999999999999911e+00,1.644608357155114651e+09,5.326349379986069360e-02,-4.976662816290217117e-01,-9.344380830695340201e-01,-6.089448018850930622e-02,2.569440041950699638e-01,1.361458802786702227e-01,8.332631145354107982e-02
1.916666666666666741e+00,1.644608357171603918e+09,5.597654709292822217e-02,-5.252719615645786710e-01,-9.896494429406480497e-01,-6.089448018850930622e-02,2.536144055449093271e-01,1.374856215873271059e-01,7.745894421122302698e-02
1.933333333333333348e+00,1.644608357190090656e+09,5.869783345663372870e-02,-6.948497097401418188e-01,-1.328804939291774234e+00,-6.089448018850930622e-02,2.482102332643885412e-01,1.387042152554721908e-01,6.879635926848205740e-02
1.949999999999999956e+00,1.644608357206065655e+09,6.141566948145652655e-02,-9.038641435379295430e-01,-1.746833806887349905e+00,-6.089448018850930622e-02,2.406952382869352314e-01,1.397497218357152127e-01,5.669803760072246457e-02
1.966666666666666563e+00,1.644608357223969698e+09,6.411804620415832712e-02,-9.078078121001519341e-01,-1.754721144011794465e+00,-6.089448018850930622e-02,2.310491987978639805e-01,1.405933837304641221e-01,4.457506548426876103e-02
1.983333333333333393e+00,1.644608357241363525e+09,6.679271896548939769e-02,-9.632693609298788040e-01,-1.833594515256242286e+00,-9.294420660351540575e-02,2.192686242561868448e-01,1.412273830052646062e-01,3.154105393157341508e-02
2.000000000000000000e+00,1.644608357259307146e+09,6.942730166231093902e-02,-1.061610886026825629e+00,-2.062327291865142076e+00,-6.089448018850930622e-02,2.053673334816048801e-01,1.416304459846319808e-01,1.686726507645236461e-02
2.016666666666666607e+00,1.644608357274263382e+09,7.200936454647370588e-02,-1.109185097732108050e+00,-2.125425988860700333e+00,-9.294420660351540575e-02,1.893768980824194481e-01,1.417821929866774633e-01,1.385381413578731791e-03
2.033333333333333215e+00,1.644608357292338371e+09,7.452653466629477474e-02,-1.124959771980997392e+00,-2.156975337358479017e+00,-9.294420660351540575e-02,1.713469435181335654e-01,1.416733778476390315e-01,-1.439935058843057683e-02
2.049999999999999822e+00,1.644608357310662985e+09,7.696659799866785445e-02,-1.333974205778784228e+00,-2.575004204954053133e+00,-9.294420660351540575e-02,1.513453012042124679e-01,1.412720322222557334e-01,-3.370848670595680274e-02
2.066666666666666430e+00,1.644608357325597048e+09,7.931760228143977520e-02,-1.878200467365476189e+00,-3.663456728127437056e+00,-9.294420660351540575e-02,1.294580062674141330e-01,1.404733427621941977e-01,-6.205550493086296748e-02
2.083333333333333481e+00,1.644608357343610048e+09,8.156795952730760968e-02,-1.475946274018791193e+00,-2.858948341434067064e+00,-9.294420660351540575e-02,1.057891368388272357e-01,1.392584086965285295e-01,-8.367652315153004117e-02
2.100000000000000089e+00,1.644608357359152555e+09,8.370654718264997074e-02,-1.519326628203237384e+00,-2.945709049802959445e+00,-9.294420660351540575e-02,8.046049211794549516e-02,1.376766205117973818e-01,-1.060758372348870882e-01
2.116666666666666696e+00,1.644608357377130508e+09,8.572280688781355740e-02,-1.322143200092117388e+00,-2.551342193580719453e+00,-9.294420660351540575e-02,5.361110784346154179e-02,1.357481308532412501e-01,-1.252895491138085460e-01
2.133333333333333304e+00,1.644608357395391703e+09,8.760683979971817248e-02,-1.578731845595185979e+00,-3.032469758171851826e+00,-1.249939330185202979e-01,2.539660925318389106e-02,1.334627293184708352e-01,-1.488930681847381587e-01
2.149999999999999911e+00,1.644608357411693335e+09,8.934949745339294813e-02,-1.874506987761866084e+00,-3.624020042505212036e+00,-1.249939330185202979e-01,-4.011596906152642590e-03,1.307422814426885405e-01,-1.774812633867561829e-01
2.166666666666666519e+00,1.644608357428132534e+09,9.094246716625398186e-02,-1.882144135927698247e+00,-3.671344065251881172e+00,-9.294420660351540575e-02,-3.442728826147378740e-02,1.275440563854766951e-01,-2.062258953993638677e-01
2.183333333333333126e+00,1.644608357444115162e+09,9.237835102749356042e-02,-1.755946741936581290e+00,-3.418949277269647258e+00,-9.294420660351540575e-02,-6.565054602869078992e-02,1.238838422260556404e-01,-2.329256360393640035e-01
2.200000000000000178e+00,1.644608357463318348e+09,9.365073756466030241e-02,-1.830876444618807497e+00,-3.568808682634099672e+00,-9.294420660351540575e-02,-9.746902150802334852e-02,1.197675760591689065e-01,-2.609484609745911232e-01
2.216666666666666785e+00,1.644608357481270790e+09,9.475426524002110440e-02,-2.190000472739658477e+00,-4.255007012460796822e+00,-1.249939330185202979e-01,-1.296593423363915087e-01,1.151340848034595604e-01,-2.949759666368159672e-01
2.233333333333333393e+00,1.644608357496262312e+09,9.568467700013741362e-02,-2.272817512546329244e+00,-4.420641092074138356e+00,-1.249939330185202979e-01,-1.619886495407649729e-01,1.099222642785367410e-01,-3.303442488133447319e-01
2.250000000000000000e+00,1.644608357515210867e+09,9.643886518266328589e-02,-2.130845444306322278e+00,-4.136696955594124425e+00,-1.249939330185202979e-01,-1.942162550541791377e-01,1.041410154287382150e-01,-3.633140282862212245e-01
2.266666666666666607e+00,1.644608357531135798e+09,9.701490617396167637e-02,-1.917887341946312940e+00,-3.710780750874105749e+00,-1.249939330185202979e-01,-2.260954080387660436e-01,9.783983477162441766e-02,-3.927458934621920750e-01
2.283333333333333215e+00,1.644608357549120903e+09,9.741208430890965775e-02,-1.894225330572978594e+00,-3.663456728127437056e+00,-1.249939330185202979e-01,-2.573751571210676214e-01,9.105113600641480398e-02,-4.218172028252165640e-01
2.299999999999999822e+00,1.644608357565078735e+09,9.763090460927884018e-02,-2.020422724564095329e+00,-3.915851516109670083e+00,-1.249939330185202979e-01,-2.878022944970516361e-01,8.376029770381952788e-02,-4.529967815069737558e-01
2.316666666666666430e+00,1.644608357581035376e+09,9.767309406830639029e-02,-1.988873376066316201e+00,-3.852752819114112270e+00,-1.249939330185202979e-01,-3.171233668200452716e-01,7.595441406611064261e-02,-4.836241769173709182e-01
2.333333333333333481e+00,1.644608357597988844e+09,9.754159130538138378e-02,-1.547182497097406850e+00,-2.969371061176293569e+00,-1.249939330185202979e-01,-3.450867368558475090e-01,6.769944835933669469e-02,-5.069070317764845512e-01
2.350000000000000089e+00,1.644608357615933895e+09,9.724052453497127047e-02,-1.488027468664071318e+00,-2.851061004309622504e+00,-1.249939330185202979e-01,-3.714446790864006087e-01,5.906418086101926368e-02,-5.292629667406749672e-01
2.366666666666666696e+00,1.644608357632355690e+09,9.677517791672807235e-02,-1.294787709115173602e+00,-2.464581485211826628e+00,-1.249939330185202979e-01,-3.959554917763894455e-01,5.008270718585525194e-02,-5.484605464137036757e-01
2.383333333333333304e+00,1.644608357649309874e+09,9.615194647784106041e-02,-1.282956703428505874e+00,-2.440919473838491616e+00,-1.249939330185202979e-01,-4.183856074947293058e-01,4.078246147439134467e-02,-5.675160058842937394e-01
2.399999999999999911e+00,1.644608357666239977e+09,9.537827992277940481e-02,-1.129153629501832734e+00,-2.133313325985145337e+00,-1.249939330185202979e-01,-4.385116837127192579e-01,3.118572025494563416e-02,-5.840470198850905570e-01
2.416666666666666519e+00,1.644608357683939695e+09,9.446261576822752304e-02,-7.466177789662595821e-01,-1.368241624913998811e+00,-1.249939330185202979e-01,-4.561226548889084631e-01,2.136614901381305234e-02,-5.942731225415440743e-01
2.433333333333333126e+00,1.644608357699034452e+09,9.341430236087440442e-02,-6.243640535373649048e-01,-1.123734174056209456e+00,-1.249939330185202979e-01,-4.710217274024898204e-01,1.139238304103522975e-02,-6.025557862510971807e-01
2.450000000000000178e+00,1.644608357716013193e+09,9.224351245140080535e-02,4.058444799174236173e-01,9.366828928533675880e-01,-1.249939330185202979e-01,-4.830282988157538204e-01,1.422351241793184951e-03,-5.938721514334939222e-01
2.466666666666666785e+00,1.644608357735081911e+09,9.096114810817391982e-02,7.106445460302499573e-01,1.546283025079020268e+00,-1.249939330185202979e-01,-4.919797832339642407e-01,-8.363289944739116244e-03,-5.804420975336901378e-01
2.483333333333333393e+00,1.644608357753109217e+09,8.957873785748800277e-02,1.083590968387813547e+00,2.292175869794147669e+00,-1.249939330185202979e-01,-4.977333249884656197e-01,-1.787623500146630698e-02,-5.611648584203071666e-01
2.500000000000000000e+00,1.644608357771051407e+09,8.810832703243764996e-02,1.784878925379113301e+00,3.694751783776746734e+00,-1.249939330185202979e-01,-5.001673834949231789e-01,-2.697402927235555137e-02,-5.306552051180147833e-01
2.516666666666666607e+00,1.644608357789004087e+09,8.656236239848925929e-02,2.188800964211557787e+00,4.502595861441635705e+00,-1.249939330185202979e-01,-4.991831729308060517e-01,-3.551161747687426457e-02,-4.939573203921502342e-01
2.533333333333333215e+00,1.644608357804254532e+09,8.495357219942631377e-02,2.416781501466680471e+00,4.958556935951881073e+00,-1.249939330185202979e-01,-4.947059413304177311e-01,-4.341053581642070891e-02,-4.540238093836660993e-01
2.549999999999999822e+00,1.644608357821518898e+09,8.329484283158376801e-02,2.388283934309789913e+00,4.901561801638099958e+00,-1.249939330185202979e-01,-4.866860748063207009e-01,-5.065223966585442883e-02,-4.150888078758412369e-01
2.566666666666666430e+00,1.644608357839765787e+09,8.159909340627176377e-02,2.580332756454050802e+00,5.285659445926621736e+00,-1.249939330185202979e-01,-4.751000138656671923e-01,-5.722227839366714197e-02,-3.734315567715554840e-01
2.583333333333333481e+00,1.644608357856718779e+09,7.987914949924018737e-02,2.815747441663144279e+00,5.756488816344808690e+00,-1.249939330185202979e-01,-4.599509701901166037e-01,-6.306917533612575733e-02,-3.283213853045464092e-01
2.600000000000000089e+00,1.644608357874055862e+09,7.814761741133349759e-02,2.943366981539652816e+00,6.011727896097825763e+00,-1.249939330185202979e-01,-4.412694337785381116e-01,-6.815025954920232720e-02,-2.815386752954512906e-01
2.616666666666666696e+00,1.644608357891007900e+09,7.641676027562251117e-02,3.016469436420370354e+00,6.157932805859261727e+00,-1.249939330185202979e-01,-4.191134620011397471e-01,-7.244493643862243148e-02,-2.339547321657106937e-01
2.633333333333333304e+00,1.644608357908972025e+09,7.469837734295167730e-02,3.400567080708891687e+00,6.926128094436303506e+00,-1.249939330185202979e-01,-3.935687438692448969e-01,-7.589653991968436930e-02,-1.803864897373212983e-01
2.649999999999999911e+00,1.644608357925585270e+09,7.300368775980986547e-02,3.582621248221755650e+00,7.258186703047026178e+00,-9.294420660351540575e-02,-3.647484346728112059e-01,-7.843361214470298548e-02,-1.242182039531536109e-01
2.666666666666666519e+00,1.644608357940707207e+09,7.134322011969730648e-02,3.372069513552002018e+00,6.869132960122524167e+00,-1.249939330185202979e-01,-3.327927580628282089e-01,-8.006697204163118475e-02,-7.193023146473918883e-02
2.683333333333333126e+00,1.644608357958961487e+09,6.972670902187293185e-02,2.856635255409985863e+00,5.838264443838492745e+00,-1.249939330185202979e-01,-2.978683746421083023e-01,-8.090245603492653148e-02,-2.844863279197921979e-02
2.700000000000000178e+00,1.644608357973703384e+09,6.816299980981127549e-02,3.315074379238221347e+00,6.755142691494962826e+00,-1.249939330185202979e-01,-2.601675181588468111e-01,-8.095072531547377326e-02,2.251475083989092074e-02
2.716666666666666785e+00,1.644608357992653131e+09,6.665996258636537608e-02,3.231977269726105995e+00,6.556898746055727756e+00,-9.294420660351540575e-02,-2.199069024551889573e-01,-8.016256055469866970e-02,7.192775886696443910e-02
2.733333333333333393e+00,1.644608358010920048e+09,6.522441651412867747e-02,3.756084700481087335e+00,7.605113607565690437e+00,-9.294420660351540575e-02,-1.773264043899775710e-01,-7.847939938997378073e-02,1.298905693037580300e-01
2.750000000000000000e+00,1.644608358024201632e+09,6.386206530863208775e-02,3.783425700338418185e+00,7.691845333695356501e+00,-1.249939330185202979e-01,-1.326875300123447343e-01,-7.582825534078975471e-02,1.880850614266752208e-01
2.766666666666666607e+00,1.644608358042126894e+09,6.257744471970112798e-02,4.007606706257119455e+00,8.108157619117752901e+00,-9.294420660351540575e-02,-8.627167329239424087e-02,-7.217786596815881084e-02,2.497902559367896902e-01
2.783333333333333215e+00,1.644608358060105801e+09,6.137388267365123662e-02,4.021318434865502667e+00,8.167630802749524577e+00,-1.249939330185202979e-01,-3.837817869806745691e-02,-6.749907049511282009e-02,3.114937980665342665e-01
2.799999999999999822e+00,1.644608358078033686e+09,6.025347261719024572e-02,4.167440887267503946e+00,8.427825981138521882e+00,-9.294420660351540575e-02,1.067777917505761780e-02,-6.177344703784939245e-02,3.754034857166468342e-01
2.816666666666666430e+00,1.644608358094038010e+09,5.921706046429327241e-02,3.585181754899181339e+00,7.295357442816882809e+00,-1.249939330185202979e-01,6.056748388013227097e-02,-5.506502048868393978e-02,4.294575464804699649e-01
2.833333333333333481e+00,1.644608358109973431e+09,5.826424540132281449e-02,3.230738245067109826e+00,6.554420696737735419e+00,-9.294420660351540575e-02,1.109511165278951467e-01,-4.750515580258603959e-02,4.775925044876221381e-01
2.850000000000000089e+00,1.644608358125474691e+09,5.739339465484268044e-02,3.225864603790564722e+00,6.576723140599649575e+00,-1.249939330185202979e-01,1.614803279400517655e-01,-3.914338427065889442e-02,5.256864818178719201e-01
2.866666666666666696e+00,1.644608358142666340e+09,5.660167217251994842e-02,3.406679746644432960e+00,6.906303699892381687e+00,-9.294420660351540575e-02,2.118009236800194039e-01,-2.995476463049596277e-02,5.768058733497831714e-01
2.883333333333333304e+00,1.644608358159621716e+09,5.588508101188718880e-02,2.901240143133814620e+00,5.927474219286149371e+00,-1.249939330185202979e-01,2.615556407650423965e-01,-1.998415519122006753e-02,6.195485269754882340e-01
2.899999999999999911e+00,1.644608358177573681e+09,5.523851907627169017e-02,2.828055230893660621e+00,5.749054668390836120e+00,-9.294420660351540575e-02,3.103869936997646350e-01,-9.310435553924880508e-03,6.611821777480835216e-01
2.916666666666666519e+00,1.644608358192580462e+09,5.465584768362802270e-02,2.655830803293323772e+00,5.404605813190163310e+00,-9.294420660351540575e-02,3.579401664854265919e-01,2.034208146372491408e-03,7.000670502107653181e-01
2.933333333333333126e+00,1.644608358210485697e+09,5.412997230406068477e-02,2.352269761839492546e+00,4.797483730282499970e+00,-9.294420660351540575e-02,4.038659264626696110e-01,1.398597754276412024e-02,7.340508756194097373e-01
2.950000000000000178e+00,1.644608358228506088e+09,5.365293465724626371e-02,1.942235057071507232e+00,4.009464047161534594e+00,-1.249939330185202979e-01,4.478235352497616506e-01,2.644888741521862069e-02,7.614222756189763519e-01
2.966666666666666785e+00,1.644608358245392323e+09,5.321601522343801655e-02,1.893913095370693744e+00,3.912820123759908064e+00,-1.249939330185202979e-01,4.894836316505090656e-01,3.936328659608109848e-02,7.882311552218005390e-01
2.983333333333333393e+00,1.644608358261365414e+09,5.280984509290619078e-02,1.771167196770730534e+00,3.635278600144976391e+00,-9.294420660351540575e-02,5.285310612340466951e-01,5.270923710685936764e-02,8.132135090111018982e-01
3.000000000000000000e+00,1.644608358281506300e+09,5.242452596011181604e-02,1.545664708833598633e+00,3.184273624270713032e+00,-9.294420660351540575e-02,5.646676273373125721e-01,6.644195429000997188e-02,8.346529974307997923e-01
3.016666666666666607e+00,1.644608358297461271e+09,5.204975696209414304e-02,1.522205697672124991e+00,3.169405328362770558e+00,-1.249939330185202979e-01,5.976147385132261070e-01,8.053034554842561366e-02,8.558949467754732865e-01
3.033333333333333215e+00,1.644608358314858437e+09,5.167496696685985186e-02,1.406976404385568591e+00,2.938946741789657313e+00,-1.249939330185202979e-01,6.271159279449857182e-01,9.495799453879626151e-02,8.753688366572784929e-01
3.049999999999999822e+00,1.644608358330815554e+09,5.128945083822307460e-02,1.181473916448437134e+00,2.487941765915394399e+00,-1.249939330185202979e-01,6.529392210683988562e-01,1.096799388271210984e-01,8.912204446609008901e-01
3.066666666666666430e+00,1.644608358347826242e+09,5.088250813967910152e-02,9.126055654464723110e-01,1.950205063911464975e+00,-1.249939330185202979e-01,6.748793285871839132e-01,1.246297812979660496e-01,9.027286837572835454e-01
3.083333333333333481e+00,1.644608358364779949e+09,5.044358269243404830e-02,7.800299269339827646e-01,1.685053786886485883e+00,-1.249939330185202979e-01,6.927596432259217618e-01,1.397539964546613278e-01,9.121509614365866936e-01
3.100000000000000089e+00,1.644608358381733894e+09,4.996240137244473134e-02,5.148786499090036717e-01,1.154751232836527697e+00,-1.249939330185202979e-01,7.064340199348726479e-01,1.549992140480324354e-01,9.172609550072802209e-01
3.116666666666666696e+00,1.644608358399034500e+09,4.942911051884387591e-02,4.677957128671850762e-01,1.060585358752890395e+00,-1.249939330185202979e-01,7.157883208316360157e-01,1.703236813080035161e-01,9.216628883089561519e-01
3.133333333333333304e+00,1.644608358415954828e+09,4.883440833184742730e-02,3.846986033550691131e-01,8.623414133136536597e-01,-9.294420660351540575e-02,7.207417079256930315e-01,1.857101128758466280e-01,9.247004619291256944e-01
3.149999999999999911e+00,1.644608358432933331e+09,4.816967166236488240e-02,2.472493235660344346e-01,6.194925801505891672e-01,-1.249939330185202979e-01,7.212476686108962864e-01,2.011278364399430862e-01,9.254243549013113634e-01
3.166666666666666519e+00,1.644608358449890852e+09,4.742707563808802596e-02,-6.249696650926014896e-02,0.000000000000000000e+00,-1.249939330185202979e-01,7.172947610133796337e-01,2.165141966127413498e-01,9.209512913035817760e-01
3.183333333333333126e+00,1.644608358468052626e+09,4.659970463160476029e-02,-6.249696650926014896e-02,0.000000000000000000e+00,-1.249939330185202979e-01,7.089070685324146970e-01,2.318254650350828339e-01,9.164135245816261710e-01
3.200000000000000178e+00,1.644608358486479998e+09,4.568165315468343535e-02,-4.647210330175770288e-02,0.000000000000000000e+00,-9.294420660351540575e-02,6.961443552915491662e-01,2.470621813404433320e-01,9.120046791427621757e-01
3.216666666666666785e+00,1.644608358502514362e+09,4.466811535868722011e-02,-6.249696650926014896e-02,0.000000000000000000e+00,-1.249939330185202979e-01,6.791019167082051888e-01,2.622214585681983401e-01,9.071221510849896141e-01
3.233333333333333393e+00,1.644608358519186258e+09,4.355546193329927485e-02,-5.139413337951379557e-01,-9.028887345717556689e-01,-1.249939330185202979e-01,6.579101219713597848e-01,2.772347539630050095e-01,8.945083354931200326e-01
3.250000000000000000e+00,1.644608358537268400e+09,4.234130332336676766e-02,-6.007020421640310026e-01,-1.076410151309541874e+00,-1.249939330185202979e-01,6.327336478675541498e-01,2.920241005049540872e-01,8.802528490462296906e-01
3.266666666666666607e+00,1.644608358555613518e+09,4.102453832551358065e-02,-5.573216879795841461e-01,-9.896494429406480497e-01,-1.249939330185202979e-01,6.037704060931421424e-01,3.065798158797825579e-01,8.664712789732937903e-01
3.283333333333333215e+00,1.644608358570910215e+09,3.960538728084932875e-02,-6.440823963484771930e-01,-1.163170859678434255e+00,-1.249939330185202979e-01,5.712501689119678927e-01,3.208912667936800744e-01,8.509459576021211058e-01
3.299999999999999822e+00,1.644608358587840796e+09,3.808540924611148598e-02,-6.911562301365332672e-01,-1.289368253669551212e+00,-9.294420660351540575e-02,5.354329007392540918e-01,3.349346577561627680e-01,8.343071778163504426e-01
3.316666666666666430e+00,1.644608358604820967e+09,3.646750270119376164e-02,-1.133097298064055014e+00,-2.141200663109589897e+00,-1.249939330185202979e-01,4.966068059300963178e-01,3.486366300783760863e-01,8.099970306252378682e-01
3.333333333333333481e+00,1.644608358621871233e+09,3.475588953445702539e-02,-9.911252298240488257e-01,-1.857256526629577520e+00,-1.249939330185202979e-01,4.550861057005289312e-01,3.619506654034695403e-01,7.877490098980857169e-01
3.350000000000000089e+00,1.644608358637035608e+09,3.295608223654675206e-02,-9.438012070773795781e-01,-1.762608481136238803e+00,-1.249939330185202979e-01,4.112085596865059367e-01,3.748974493199204172e-01,7.659256818584535553e-01
3.366666666666666696e+00,1.644608358654659986e+09,3.107483442660373407e-02,-9.714068870129365374e-01,-1.817819841007352943e+00,-1.249939330185202979e-01,3.653327501275333566e-01,3.874733760513413561e-01,7.432485195122758848e-01
3.383333333333333304e+00,1.644608358672966957e+09,2.912007502968845876e-02,-9.990125669484936077e-01,-1.873031200878466862e+00,-1.249939330185202979e-01,3.178351490235544752e-01,3.996641089553196191e-01,7.197048296428819603e-01
3.399999999999999911e+00,1.644608358694527149e+09,2.710082661874804386e-02,-9.043645214551557787e-01,-1.683735109891791204e+00,-1.249939330185202979e-01,2.691069908336683469e-01,4.114720413720807657e-01,6.973092717157627352e-01
3.416666666666666519e+00,1.644608358708652258e+09,2.502710862638708386e-02,-9.198890067454326136e-01,-1.746833806887349905e+00,-9.294420660351540575e-02,2.195509753412669962e-01,4.229008188244507971e-01,6.742081937399899694e-01
3.433333333333333126e+00,1.644608358724635363e+09,2.290982631883364123e-02,-9.004208528929333877e-01,-1.675847772767346422e+00,-1.249939330185202979e-01,1.695778271817931226e-01,4.339435556779399628e-01,6.509847397913151035e-01
3.449999999999999734e+00,1.644608358740820408e+09,2.076064660468135425e-02,-8.767588415195989304e-01,-1.628523750020677507e+00,-1.249939330185202979e-01,1.196027401971558740e-01,4.445988082255322160e-01,6.277102188883487699e-01
3.466666666666666785e+00,1.644608358757779121e+09,1.859186192206867955e-02,-7.976352813165379363e-01,-1.502326356029560550e+00,-9.294420660351540575e-02,7.004173622715202663e-02,4.548734499748665616e-01,6.053090180541913501e-01
3.483333333333333393e+00,1.644608358774729490e+09,1.641624360789543241e-02,-7.939418017129288296e-01,-1.462889670407337528e+00,-1.249939330185202979e-01,2.130796915668822789e-02,4.647716114550229927e-01,5.825336260314308845e-01
3.500000000000000000e+00,1.644608358794048548e+09,1.424688629946796285e-02,-7.268994361551472938e-01,-1.328804939291774234e+00,-1.249939330185202979e-01,-2.619199400577677112e-02,4.742960280230137937e-01,5.604576856274247065e-01
3.516666666666666607e+00,1.644608358808202505e+09,1.209704505078356904e-02,-4.229867679054100660e-01,-7.530293292073048095e-01,-9.294420660351540575e-02,-7.206188255093638750e-02,4.834912023883303767e-01,5.430117004211689746e-01
3.533333333333333215e+00,1.644608358825297594e+09,9.979966960736837145e-03,-3.798566026795763828e-01,-6.347192723406324122e-01,-1.249939330185202979e-01,-1.159193891069148497e-01,4.923979195209770010e-01,5.258420500920808482e-01
3.549999999999999822e+00,1.644608358842611313e+09,7.908719207334711718e-03,-6.249696650926014896e-02,0.000000000000000000e+00,-1.249939330185202979e-01,-1.573997612719960359e-01,5.010589518770762751e-01,5.135160722729605887e-01
3.566666666666666430e+00,1.644608358859563589e+09,5.896015459123629850e-03,-6.249696650926014896e-02,0.000000000000000000e+00,-1.249939330185202979e-01,-1.961592849728139576e-01,5.095109002549768062e-01,5.007531863703588160e-01
3.583333333333333481e+00,1.644608358875496626e+09,3.954042691264767276e-03,-4.647210330175770288e-02,0.000000000000000000e+00,-9.294420660351540575e-02,-2.318786271220577289e-01,5.177491764727447654e-01,4.878757313121939165e-01
3.600000000000000089e+00,1.644608358894614220e+09,2.094290468064956539e-03,-6.249696650926014896e-02,0.000000000000000000e+00,-1.249939330185202979e-01,-2.642660058841495574e-01,5.257679203570442272e-01,4.744109378880042582e-01
3.616666666666666696e+00,1.644608358909579992e+09,3.273847655144174348e-04,-6.249696650926014896e-02,0.000000000000000000e+00,-1.249939330185202979e-01,-2.930601578811414254e-01,5.335601337189522786e-01,4.606927724529228940e-01
3.633333333333333304e+00,1.644608358926649809e+09,-1.337071604028440336e-03,-4.647210330175770288e-02,0.000000000000000000e+00,-9.294420660351540575e-02,-3.180330729797870570e-01,5.411243698407384173e-01,4.470534500597776462e-01
3.649999999999999911e+00,1.644608358943603754e+09,-2.890649937701489283e-03,-6.249696650926014896e-02,0.000000000000000000e+00,-1.249939330185202979e-01,-3.389924688870531999e-01,5.484580595083303756e-01,4.330282698022471233e-01
3.666666666666666519e+00,1.644608358961853981e+09,-4.326235989549420159e-03,-6.249696650926014896e-02,0.000000000000000000e+00,-1.249939330185202979e-01,-3.557839796357942785e-01,5.555576140846824051e-01,4.189573661234775037e-01
3.683333333333333126e+00,1.644608358978096247e+09,-5.638157831982719241e-03,-4.647210330175770288e-02,0.000000000000000000e+00,-9.294420660351540575e-02,-3.682930341525944562e-01,5.624250826852092988e-01,4.051771452320446776e-01
3.699999999999999734e+00,1.644608358994229794e+09,-6.822299448043420492e-03,-6.249696650926014896e-02,0.000000000000000000e+00,-1.249939330185202979e-01,-3.764464034514412583e-01,5.690614447589931180e-01,3.912250603255824632e-01
3.716666666666666785e+00,1.644608359011303902e+09,-7.876198397445938193e-03,-6.249696650926014896e-02,0.000000000000000000e+00,-1.249939330185202979e-01,-3.802133975728947957e-01,5.754666788541572542e-01,3.774413201623824654e-01
3.733333333333333393e+00,1.644608359028079987e+09,-8.799126046565545686e-03,-6.249696650926014896e-02,0.000000000000000000e+00,-1.249939330185202979e-01,-3.796066961698068565e-01,5.816441715615708885e-01,3.638954330769843537e-01
3.750000000000000000e+00,1.644608359044282913e+09,-9.592149019461097131e-03,-6.249696650926014896e-02,0.000000000000000000e+00,-1.249939330185202979e-01,-3.746827996061078414e-01,5.875984505399614033e-01,3.506548246633376942e-01
3.766666666666666607e+00,1.644608359061215878e+09,-1.025817071216785469e-02,-6.249696650926014896e-02,0.000000000000000000e+00,-1.249939330185202979e-01,-3.655420905616115768e-01,5.933351440301927182e-01,3.377841468885918186e-01
3.783333333333333215e+00,1.644608359079168081e+09,-1.080195191416773171e-02,2.831810386768959797e-01,6.913560103723123129e-01,-1.249939330185202979e-01,-3.523284993985331681e-01,5.989086742149789533e-01,3.310581590251115980e-01
3.799999999999999822e+00,1.644608359096502304e+09,-1.123010979720586583e-02,4.653176635491946822e-01,1.055629260116909718e+00,-1.249939330185202979e-01,-3.352287699176693669e-01,6.043985522235167940e-01,3.277364292437658366e-01
3.816666666666666430e+00,1.644608359112433434e+09,-1.155109476037671778e-02,4.677957128671850762e-01,1.060585358752890395e+00,-1.249939330185202979e-01,-3.144713255867669921e-01,6.098367361659836616e-01,3.248536517559725834e-01
3.833333333333333481e+00,1.644608359130455256e+09,-1.177514485932937109e-02,4.777079101391467075e-01,1.080409753296813768e+00,-1.249939330185202979e-01,-2.903247398309955485e-01,6.152319762037584683e-01,3.225814645566669192e-01
3.850000000000000089e+00,1.644608359148405790e+09,-1.191421779414614766e-02,4.814249841161325483e-01,1.087843901250785450e+00,-1.249939330185202979e-01,-2.630958175064949112e-01,6.205939345669582163e-01,3.208583256369610948e-01
3.866666666666666696e+00,1.644608359164386034e+09,-1.198190068232971896e-02,4.826640087751279395e-01,1.090321950568776233e+00,-1.249939330185202979e-01,-2.331272982018434414e-01,6.259317223505141969e-01,3.196794830296265100e-01
3.883333333333333304e+00,1.644608359180837631e+09,-1.199329809774708072e-02,4.702737621851754701e-01,1.065541457388871294e+00,-1.249939330185202979e-01,-2.007951954984692478e-01,6.312527799587271948e-01,3.188497348661919473e-01
3.899999999999999911e+00,1.644608359197762012e+09,-1.196489911058132294e-02,4.169957018483806954e-01,9.589853367152817443e-01,-1.249939330185202979e-01,-1.665057897385228691e-01,6.365575003136684229e-01,3.177198463797483718e-01
3.916666666666666519e+00,1.644608359214048624e+09,-1.191442431456089628e-02,3.525664195806287871e-01,8.301267721797779275e-01,-1.249939330185202979e-01,-1.306922951667953692e-01,6.418395928277220719e-01,3.161356559392586307e-01
3.933333333333333126e+00,1.644608359231758833e+09,-1.186065407316327230e-02,-6.249696650926014896e-02,0.000000000000000000e+00,-1.249939330185202979e-01,-9.381122550162286633e-02,6.470432662466949481e-01,3.083268459867710143e-01
3.949999999999999734e+00,1.644608359247219563e+09,-1.182323945334335866e-02,-6.249696650926014896e-02,0.000000000000000000e+00,-1.249939330185202979e-01,-5.633848501862148694e-02,6.521230471434666942e-01,3.012664742312012311e-01
3.966666666666666785e+00,1.644608359264566422e+09,-1.182249754090597404e-02,-6.249696650926014896e-02,0.000000000000000000e+00,-1.249939330185202979e-01,-1.876521507202229960e-02,6.570913199985084496e-01,2.949438316831380913e-01
3.983333333333333393e+00,1.644608359280500889e+09,-1.187919304323395431e-02,-4.705609796106917653e-01,-8.161280262028632881e-01,-1.249939330185202979e-01,1.840657139631482822e-02,6.619038609448856247e-01,2.825953839331880046e-01
4.000000000000000000e+00,1.644608359302742243e+09,-1.201430828014943275e-02,-4.547863053618018125e-01,-7.845786777050833827e-01,-1.249939330185202979e-01,5.466853242637562116e-02,6.665194873285578137e-01,2.713111280005919834e-01
4.016666666666666607e+00,1.644608359315707922e+09,-1.224880383984134138e-02,-5.967583736018087226e-01,-1.068522814185097092e+00,-1.249939330185202979e-01,8.951067963616880785e-02,6.709338045289325869e-01,2.584426825674565054e-01
4.033333333333333215e+00,1.644608359332663298e+09,-1.260337233171892474e-02,-8.060229963582088430e-01,-1.455002333282891192e+00,-1.570436594335263836e-01,1.224261619630910986e-01,6.751110676035900759e-01,2.428721389195470648e-01
4.049999999999999822e+00,1.644608359349617958e+09,-1.309818779973583383e-02,-1.164646646561834364e+00,-2.204299360105148597e+00,-1.249939330185202979e-01,1.529161101474350026e-01,6.789856502380547942e-01,2.221353806781756757e-01
4.066666666666666430e+00,1.644608359366706133e+09,-1.375265346629045253e-02,-1.153065829833780365e+00,-2.149088000234034457e+00,-1.570436594335263836e-01,1.804945003599031927e-01,6.825228930957606410e-01,2.023886156625719079e-01
4.083333333333333037e+00,1.644608359383880615e+09,-1.458515055663457162e-02,-1.393629612129346551e+00,-2.630215564825166830e+00,-1.570436594335263836e-01,2.046929945208223467e-01,6.857038661546862590e-01,1.793920323101709235e-01
4.099999999999999645e+00,1.644608359400127649e+09,-1.561279100546241957e-02,-1.681517417171582318e+00,-3.205991174909638364e+00,-1.570436594335263836e-01,2.250657143588998821e-01,6.884677898069216928e-01,1.523539136110574344e-01
4.116666666666666252e+00,1.644608359416412115e+09,-1.685117686993248959e-02,-1.795883805476032213e+00,-3.434723951518537710e+00,-1.570436594335263836e-01,2.411939061205071178e-01,6.907712439572266661e-01,1.241389611381603642e-01
4.133333333333332860e+00,1.644608359434764147e+09,-1.831416926599793021e-02,-1.630249725862690457e+00,-3.103455792291854642e+00,-1.570436594335263836e-01,2.526904530742060673e-01,6.926328113334885295e-01,9.931807254875706092e-02
4.150000000000000355e+00,1.644608359452139139e+09,-2.001366960712294002e-02,-1.594756708802689049e+00,-3.032469758171851826e+00,-1.570436594335263836e-01,2.592041935621859361e-01,6.940899275010898872e-01,7.560174779381392818e-02
4.166666666666666963e+00,1.644608359469175577e+09,-2.195941585607431162e-02,-1.728841439918250789e+00,-3.300639220402974860e+00,-1.570436594335263836e-01,2.604240033314152991e-01,6.951366959308190596e-01,5.008135542097086335e-02
4.183333333333333570e+00,1.644608359485479832e+09,-2.415879640167776371e-02,-1.811658479724921555e+00,-3.466273300016316394e+00,-1.570436594335263836e-01,2.560826022296376903e-01,6.957496110096481612e-01,2.354217571722038577e-02
4.200000000000000178e+00,1.644608359502431870e+09,-2.661668404367338592e-02,-1.674130457964363883e+00,-3.127117803665190099e+00,-2.211431122635373892e-01,2.459600470684795426e-01,6.959414693381094086e-01,-4.525227928389267962e-04
4.216666666666666785e+00,1.644608359519098282e+09,-2.933529241095664264e-02,-1.598950566323524614e+00,-3.008807746798517702e+00,-1.890933858485313035e-01,2.298868745291050009e-01,6.957448940340020815e-01,-2.307367568530522065e-02
4.233333333333333393e+00,1.644608359538137674e+09,-3.231405695265498340e-02,-1.303175424156844509e+00,-2.417257462465157491e+00,-1.890933858485313035e-01,2.077468604019568621e-01,6.952122185803659704e-01,-4.079814296091723025e-02
4.250000000000000000e+00,1.644608359552519798e+09,-3.554954242914194068e-02,-1.331031293051014419e+00,-2.440919473838491616e+00,-2.211431122635373892e-01,1.794793641960360231e-01,6.943788316638754843e-01,-5.915728819200975069e-02
4.266666666666666607e+00,1.644608359568795681e+09,-3.903537859296470763e-02,-1.406211184691853244e+00,-2.559229530705164013e+00,-2.531928386785423091e-01,1.450812312059198694e-01,6.932268597963952006e-01,-7.902414888262834780e-02
4.283333333333333215e+00,1.644608359585835457e+09,-4.276222548986698818e-02,-1.638637440904362252e+00,-3.056131769545187282e+00,-2.211431122635373892e-01,1.046082274648144073e-01,6.917088246228292325e-01,-1.030732672663881300e-01
4.299999999999999822e+00,1.644608359603006601e+09,-4.671776952988689058e-02,-1.907057092094097905e+00,-3.560921345509653335e+00,-2.531928386785423091e-01,5.817598661505821167e-02,6.897498049853343360e-01,-1.319289327202105844e-01
4.316666666666666430e+00,1.644608359620555639e+09,-5.088675118052336105e-02,-2.009842663670494023e+00,-3.734442762247439873e+00,-2.852425650935483947e-01,5.960451566733099109e-03,6.872924343189982244e-01,-1.628695989222705420e-01
4.333333333333333037e+00,1.644608359637506962e+09,-5.525102482100364282e-02,-2.021923858315774147e+00,-3.726555425122994869e+00,-3.172922915085532591e-01,-5.180220213916267302e-02,6.843140125556977926e-01,-1.944532781665524179e-01
4.349999999999999645e+00,1.644608359653467417e+09,-5.978965097176480725e-02,-1.947244344592161891e+00,-3.545146671260764659e+00,-3.493420179235594003e-01,-1.148161701252747025e-01,6.808151697428606042e-01,-2.253221105990058648e-01
4.366666666666666252e+00,1.644608359669397831e+09,-6.447902077955017242e-02,-2.239576196113845619e+00,-4.065710921474121164e+00,-4.134414707535703504e-01,-1.827271546298320781e-01,6.767563530877580558e-01,-2.616350164562979419e-01
4.383333333333332860e+00,1.644608359686710596e+09,-6.929301229939979767e-02,-2.681267075082754747e+00,-4.949092679411938533e+00,-4.134414707535703504e-01,-2.551240316460013369e-01,6.720263308343383812e-01,-3.058448459816909271e-01
4.400000000000000355e+00,1.644608359704660654e+09,-7.420317777371604473e-02,-2.866869686465820077e+00,-5.288248175763064829e+00,-4.454911971685752703e-01,-3.315410452394513263e-01,6.665293940912003778e-01,-3.536547547669740554e-01
4.416666666666666963e+00,1.644608359720156193e+09,-7.917896076900120261e-02,-3.261236542688060069e+00,-6.076981888207544813e+00,-4.454911971685752703e-01,-4.114605199628883492e-01,6.601767203987460864e-01,-4.085136987853688617e-01
4.433333333333333570e+00,1.644608359738908768e+09,-8.418794169644717995e-02,-3.687402936366694473e+00,-6.897264949149807478e+00,-4.775409235835813559e-01,-4.943160777207079026e-01,6.528470017514530488e-01,-4.708792970395324629e-01
4.450000000000000178e+00,1.644608359755655766e+09,-8.919610991677312528e-02,-3.888780221998648923e+00,-7.267969793998712014e+00,-5.095906499985862759e-01,-5.794963409162062762e-01,6.444468909625120645e-01,-5.369504622991724263e-01
4.466666666666666785e+00,1.644608359773852825e+09,-9.416816031621415284e-02,-4.239516535077830106e+00,-8.001492146572077857e+00,-4.775409235835813559e-01,-6.663490992769084409e-01,6.348942798473320437e-01,-6.091622784232380017e-01
4.483333333333333393e+00,1.644608359788238764e+09,-9.906781194271721547e-02,-3.943991581869762619e+00,-7.378392513740939407e+00,-5.095906499985862759e-01,-7.541859134403987586e-01,6.241767983848874879e-01,-6.767477552159628651e-01
4.500000000000000000e+00,1.644608359804749012e+09,-1.038581460126617728e-01,-3.841456199251979786e+00,-7.173321748505373741e+00,-5.095906499985862759e-01,-8.422871242304277306e-01,6.123442209040237394e-01,-7.429775664598059493e-01
4.516666666666666607e+00,1.644608359822776794e+09,-1.085019603419490331e-01,-4.772412168895080242e+00,-9.003183961376567623e+00,-5.416403764135924170e-01,-9.299072326003947619e-01,5.992762746942030816e-01,-8.249482769415765748e-01
4.533333333333333215e+00,1.644608359840052843e+09,-1.129621370241430112e-01,-4.823679860203970549e+00,-9.105719343994350012e+00,-5.416403764135924170e-01,-1.016280611503196818e+00,5.848344607584892163e-01,-9.078391375343154435e-01
4.549999999999999822e+00,1.644608359857106686e+09,-1.172020199753520536e-01,-4.374351833069230366e+00,-8.175013563309862619e+00,-5.736901028285972259e-01,-1.100627507499333246e+00,5.690729927825360912e-01,-9.833273252345050564e-01
4.566666666666666430e+00,1.644608359873655319e+09,-1.211857987932534186e-01,-3.960516822994491370e+00,-7.315293816745379374e+00,-6.057398292436033671e-01,-1.182160286771056557e+00,5.521097125609925049e-01,-1.052075330175720635e+00
4.583333333333333037e+00,1.644608359891610146e+09,-1.248788952383832335e-01,-3.814601086192263679e+00,-7.023462343140923991e+00,-6.057398292436033671e-01,-1.260089877400568881e+00,5.340195180462735669e-01,-1.118563318387548966e+00
4.599999999999999645e+00,1.644608359906840563e+09,-1.282483485415739088e-01,-3.207526316568625635e+00,-5.777263077478642650e+00,-6.377895556586082870e-01,-1.333632357323911055e+00,5.149040654948688900e-01,-1.175133843734353256e+00
4.616666666666666252e+00,1.644608359926181555e+09,-1.312631956738207206e-01,-2.639387854649987819e+00,-4.673035880056372271e+00,-6.057398292436033671e-01,-1.402015635313762276e+00,4.949226108389064849e-01,-1.222509113911119938e+00
4.633333333333332860e+00,1.644608359943112373e+09,-1.338948426852582529e-01,-2.189809638556633686e+00,-3.773879447869664006e+00,-6.057398292436033671e-01,-1.464486170698586998e+00,4.742115793486353925e-01,-1.262703012575102424e+00
4.650000000000000355e+00,1.644608359961090088e+09,-1.361174232292277630e-01,-1.712625742527722927e+00,-2.819511655811842488e+00,-6.057398292436033671e-01,-1.520315676310353137e+00,4.528943988272851051e-01,-1.295268189034386674e+00
4.666666666666666963e+00,1.644608359977364063e+09,-1.379081404361916507e-01,-1.586428348536605970e+00,-2.567116867829608573e+00,-6.057398292436033671e-01,-1.568807748386520151e+00,4.310496959812040174e-01,-1.326010754470357655e+00
4.683333333333333570e+00,1.644608359994346380e+09,-1.392475883906292289e-01,-1.578541011412161188e+00,-2.551342193580719453e+00,-6.057398292436033671e-01,-1.609304366845235590e+00,4.086923592127920668e-01,-1.356784174006235633e+00
4.700000000000000178e+00,1.644608360012639761e+09,-1.401200495917972744e-01,-8.016383046543479329e-01,-9.975367800650926098e-01,-6.057398292436033671e-01,-1.641192209516508571e+00,3.859292843836120701e-01,-1.374734941079903239e+00
4.716666666666666785e+00,1.644608360028599024e+09,-1.405137649456697224e-01,8.493492897019221111e-02,7.756096871839878171e-01,-6.057398292436033671e-01,-1.663908724550349660e+00,3.629888257931208062e-01,-1.378110712415747896e+00
4.733333333333333393e+00,1.644608360046243668e+09,-1.404211730394538116e-01,2.050378635332944510e-01,9.837658298951861280e-01,-5.736901028285972259e-01,-1.676947906337590055e+00,3.400073583092085849e-01,-1.379661078978573929e+00
4.750000000000000000e+00,1.644608360062514544e+09,-1.398391156902897836e-01,2.843354417089889452e-01,1.142360986246575116e+00,-5.736901028285972259e-01,-1.679865721867637829e+00,3.170108151309137812e-01,-1.379923373802923292e+00
4.766666666666666607e+00,1.644608360079478025e+09,-1.387690070342607884e-01,5.617945079644850459e-01,1.665229392342562509e+00,-5.416403764135924170e-01,-1.672285136502573266e+00,2.940493064194135697e-01,-1.375470042233724488e+00
4.783333333333333215e+00,1.644608360097432613e+09,-1.372169637284102184e-01,9.260677577090821178e-01,2.393775891831756653e+00,-5.416403764135924170e-01,-1.653900690658654193e+00,2.712142576762047730e-01,-1.364765542373008511e+00
4.799999999999999822e+00,1.644608360114385366e+09,-1.351938941744603717e-01,1.023950705769705039e+00,2.589541787953002494e+00,-5.416403764135924170e-01,-1.624482581839299389e+00,2.485737216386417203e-01,-1.352133870936605309e+00
4.816666666666666430e+00,1.644608360131455183e+09,-1.327155450354454425e-01,1.118116579853342785e+00,2.777873536120277986e+00,-5.416403764135924170e-01,-1.583880209839574338e+00,2.261605830229849179e-01,-1.337483459487385673e+00
4.833333333333333037e+00,1.644608360148490906e+09,-1.298025037022434991e-01,1.452570780422619556e+00,3.414732210843825388e+00,-5.095906499985862759e-01,-1.532025146718783537e+00,2.040429516376003338e-01,-1.316690067540270404e+00
4.849999999999999645e+00,1.644608360165444374e+09,-1.264801557724402059e-01,2.000219679698510777e+00,4.510030009395608275e+00,-5.095906499985862759e-01,-1.468933497288623435e+00,1.823533605803258628e-01,-1.286145706776164577e+00
4.866666666666666252e+00,1.644608360181682110e+09,-1.227785970253833653e-01,1.972961137200615944e+00,4.455512924399817720e+00,-5.095906499985862759e-01,-1.394707620360252642e+00,1.611751105517705285e-01,-1.255329898133603184e+00
4.883333333333332860e+00,1.644608360198802948e+09,-1.187324998105704216e-01,2.031195296173391451e+00,4.571981242345368734e+00,-5.095906499985862759e-01,-1.309537185801669557e+00,1.405260081530719796e-01,-1.222653160562042540e+00
4.900000000000000355e+00,1.644608360215926647e+09,-1.143809342075756408e-01,1.881273312434968759e+00,4.272137274868523349e+00,-5.095906499985862759e-01,-1.213699547540909807e+00,1.204095345631507191e-01,-1.191410457557220193e+00
4.916666666666666963e+00,1.644608360233212233e+09,-1.097671447601819006e-01,1.811887931531235507e+00,4.133366513061057290e+00,-5.095906499985862759e-01,-1.107559417972489468e+00,1.008145340164733894e-01,-1.160076648451230374e+00
4.933333333333333570e+00,1.644608360250490189e+09,-1.049382840308353826e-01,2.017566024924443813e+00,4.544722699847474345e+00,-5.095906499985862759e-01,-9.915678347429071060e-01,8.178186495645321796e-02,-1.123944009554851187e+00
4.950000000000000178e+00,1.644608360267719030e+09,-9.994510465957724688e-02,2.072083109920233923e+00,4.653756869839053678e+00,-5.095906499985862759e-01,-8.662604165622923569e-01,6.337125333669849092e-02,-1.085436353045797331e+00
4.966666666666666785e+00,1.644608360285128355e+09,-9.484161203965851827e-02,1.702853761539655730e+00,3.915298173077897737e+00,-5.095906499985862759e-01,-7.322549104693749644e-01,4.556462806089672107e-02,-1.051453080252157557e+00
4.983333333333333393e+00,1.644608360300088644e+09,-8.968468013579063147e-02,1.608605430096582634e+00,3.694751783776746734e+00,-4.775409235835813559e-01,-5.902480388174851100e-01,2.832629331179779483e-02,-1.017242122315073605e+00
5.000000000000000000e+00,1.644608360322126389e+09,-8.453363336601768530e-02,1.712601044092747049e+00,3.870693285354069424e+00,-4.454911971685752703e-01,-4.410116601046987217e-01,1.168839248959147731e-02,-9.794110650930665241e-01
5.016666666666666607e+00,1.644608360335092545e+09,-7.892276912649374976e-02,1.865001077149160302e+00,4.175493351466895930e+00,-4.454911971685752703e-01,-2.853882635908926435e-01,-4.281671606961110627e-03,-9.371141207705427911e-01
5.033333333333333215e+00,1.644608360352279902e+09,-7.351259049482168628e-02,1.410279027297911103e+00,3.266049251764397532e+00,-4.454911971685752703e-01,-1.234613757503351117e-01,-1.959306972039968897e-02,-9.003557617979779382e-01
5.049999999999999822e+00,1.644608360369232655e+09,-6.836211721476749548e-02,1.058396024143266168e+00,2.562283245455107661e+00,-4.454911971685752703e-01,4.078237913069160392e-02,-3.432282242710963521e-02,-8.673063690367019962e-01
5.066666666666666430e+00,1.644608360388203382e+09,-6.352928852552072736e-02,1.020068717073848941e+00,2.517678357731279348e+00,-4.775409235835813559e-01,2.062856298388733856e-01,-4.848875111495801193e-02,-8.327012012336415525e-01
5.083333333333333037e+00,1.644608360403164387e+09,-5.907047115876646465e-02,1.239376081716004441e+00,2.956293087015590348e+00,-4.775409235835813559e-01,3.719731572496010052e-01,-6.202953100254095242e-02,-7.923046006966318888e-01
5.099999999999999645e+00,1.644608360420415401e+09,-5.503997765416472621e-02,1.504444901381548627e+00,3.454380999931672580e+00,-4.454911971685752703e-01,5.367598092656233888e-01,-7.484324196089582604e-02,-7.454708112274908149e-01
5.116666666666666252e+00,1.644608360436372280e+09,-5.148959936160439621e-02,1.273986314808436271e+00,2.993463826785447868e+00,-4.454911971685752703e-01,6.995585271713724573e-01,-8.689220368262252914e-02,-7.005294354727673589e-01
5.133333333333332860e+00,1.644608360455618143e+09,-4.846815837420202777e-02,1.129020429705994255e+00,2.703532056580563836e+00,-4.454911971685752703e-01,8.592884216330654024e-01,-9.819631058800802614e-02,-6.560868477117308695e-01
5.150000000000000355e+00,1.644608360472573996e+09,-4.602108247138468611e-02,1.200883859927717845e+00,2.847258917024010572e+00,-4.454911971685752703e-01,1.014882836062905858e+00,-1.087344295387751847e-01,-6.086192838277866279e-01
5.166666666666666963e+00,1.644608360488561392e+09,-4.419000694812673380e-02,1.228142402425612678e+00,2.901776002019800682e+00,-4.454911971685752703e-01,1.165297335042883020e+00,-1.184634383792758788e-01,-5.589996126961442879e-01
5.183333333333333570e+00,1.644608360504774809e+09,-4.301240696635789951e-02,1.140171651636951333e+00,2.725834500442477992e+00,-4.454911971685752703e-01,1.309517555967971481e+00,-1.273645369897692392e-01,-5.092703606255688520e-01
5.200000000000000178e+00,1.644608360522732496e+09,-4.252126379003139806e-02,1.036093580281352011e+00,2.517678357731279348e+00,-4.454911971685752703e-01,1.446566863018781568e+00,-1.354391293580032296e-01,-4.598180942023326612e-01
5.216666666666666785e+00,1.644608360538685560e+09,-4.274476795890444492e-02,1.088215073318586690e+00,2.653971070220754847e+00,-4.775409235835813559e-01,1.575513744001356464e+00,-1.426713384033960474e-01,-4.081904048682741259e-01
5.233333333333333393e+00,1.644608360554642916e+09,-4.370606212063385398e-02,1.072025295392213584e+00,2.589541787953002494e+00,-4.454911971685752703e-01,1.695478892486597999e+00,-1.490358832961369284e-01,-3.557007901775530723e-01
5.250000000000000000e+00,1.644608360572728634e+09,-4.542302587955834858e-02,1.049722851530299428e+00,2.544936900229174181e+00,-4.454911971685752703e-01,1.805641920029772862e+00,-1.545207158214797205e-01,-3.026265447928757069e-01
5.266666666666666607e+00,1.644608360589404583e+09,-4.790810463690935855e-02,8.675862266580010029e-01,2.180663650484577332e+00,-4.454911971685752703e-01,1.905247646031724695e+00,-1.591397074405987988e-01,-2.517936552955945539e-01
5.283333333333333215e+00,1.644608360606740236e+09,-5.116818399485201230e-02,7.424447360994831380e-01,1.930380669367541602e+00,-4.454911971685752703e-01,1.993611915999245365e+00,-1.629235849868835018e-01,-2.024088335476643685e-01
5.299999999999999822e+00,1.644608360625025272e+09,-5.520451087953197333e-02,5.070300508903893277e-01,1.459551298949353981e+00,-4.454911971685752703e-01,2.070126902544074277e+00,-1.659131505325900091e-01,-1.564666521113834696e-01
5.316666666666666430e+00,1.644608360640292645e+09,-6.001266211015913316e-02,4.388836946456516896e-01,1.323258586459878705e+00,-4.454911971685752703e-01,2.134265847404208660e+00,-1.681439121170423268e-01,-1.113500648261001452e-01
5.333333333333333037e+00,1.644608360658587217e+09,-6.558256070620513412e-02,3.224153767001004534e-01,1.090321950568776233e+00,-4.454911971685752703e-01,2.185587207043166558e+00,-1.696379602360087446e-01,-6.805597364474594291e-02
5.349999999999999645e+00,1.644608360674543858e+09,-7.189853978714069727e-02,2.864836615892387695e-01,1.018458520347052865e+00,-4.454911971685752703e-01,2.223738168952555494e+00,-1.704161134466205818e-01,-2.544078992510420689e-02
5.366666666666666252e+00,1.644608360691525698e+09,-7.893945348301062426e-02,1.687763189846918643e-01,7.830438351379590545e-01,-4.454911971685752703e-01,2.248457510612451138e+00,-1.705027431747662969e-01,1.493307029632722632e-02
5.383333333333332860e+00,1.644608360711447477e+09,-8.667883384364996613e-02,9.939093808095916804e-02,6.442730733304935509e-01,-4.454911971685752703e-01,2.259577778116711233e+00,-1.699300992968093560e-01,5.367657168833145365e-02
5.400000000000000355e+00,1.644608360727402449e+09,-9.508509231362920200e-02,-2.227455985842876351e-01,0.000000000000000000e+00,-4.454911971685752703e-01,2.257026766706022425e+00,-1.687619276735464746e-01,8.641308620043082478e-02
5.416666666666666963e+00,1.644608360744331598e+09,-1.041217639330629940e-01,-2.227455985842876351e-01,0.000000000000000000e+00,-4.454911971685752703e-01,2.240828290829635527e+00,-1.670549064003715445e-01,1.183407764646783600e-01
5.433333333333333570e+00,1.644608360760289431e+09,-1.137477920351083471e-01,-2.227455985842876351e-01,0.000000000000000000e+00,-4.454911971685752703e-01,2.211102236835090551e+00,-1.648242726020462956e-01,1.492494199705331481e-01
5.450000000000000178e+00,1.644608360780236721e+09,-1.239178508430093528e-01,-2.227455985842876351e-01,0.000000000000000000e+00,-4.454911971685752703e-01,2.168063896921093026e+00,-1.620887083395375072e-01,1.789358273469711103e-01
5.466666666666666785e+00,1.644608360794198275e+09,-1.345827030264229451e-01,-2.227455985842876351e-01,0.000000000000000000e+00,-4.454911971685752703e-01,2.112022588538551737e+00,-1.588702113756310375e-01,2.072052802156356954e-01
5.483333333333333393e+00,1.644608360813172102e+09,-1.456895889617181306e-01,-2.227455985842876351e-01,0.000000000000000000e+00,-4.454911971685752703e-01,2.043379568945169478e+00,-1.551939424629664721e-01,2.338729108089858399e-01
5.500000000000000000e+00,1.644608360831101418e+09,-1.571826441569782462e-01,-2.227455985842876351e-01,0.000000000000000000e+00,-4.454911971685752703e-01,1.962625260066773514e+00,-1.510880502122930458e-01,2.587650129163538426e-01
5.516666666666666607e+00,1.644608360846060753e+09,-1.690033410521900592e-01,-2.227455985842876351e-01,0.000000000000000000e+00,-4.454911971685752703e-01,1.870335804150939252e+00,-1.465834747684278683e-01,2.817202742319328546e-01
5.533333333333333215e+00,1.644608360862052202e+09,-1.810909511909932768e-01,-2.227455985842876351e-01,0.000000000000000000e+00,-4.454911971685752703e-01,1.767168975873644410e+00,-1.417137316819155612e-01,3.025909207669097989e-01
5.549999999999999822e+00,1.644608360880967617e+09,-1.933830235842807221e-01,-2.227455985842876351e-01,0.000000000000000000e+00,-4.454911971685752703e-01,1.653859481537200526e+00,-1.365146775144961411e-01,3.212437646487055765e-01
5.566666666666666430e+00,1.644608360897920132e+09,-2.058158749496424300e-01,-2.387704617917906780e-01,0.000000000000000000e+00,-4.775409235835813559e-01,1.531213680738452876e+00,-1.310264722171228524e-01,3.372962796671100105e-01
5.583333333333333037e+00,1.644608360914875746e+09,-2.183250874152278254e-01,-2.227455985842876351e-01,0.000000000000000000e+00,-4.454911971685752703e-01,1.400103770352961741e+00,-1.252888377883006055e-01,3.511812814344323352e-01
5.599999999999999645e+00,1.644608360931830645e+09,-2.308460092230573690e-01,-2.387704617917906780e-01,0.000000000000000000e+00,-4.775409235835813559e-01,1.261461474838954544e+00,-1.193430671718656993e-01,3.622803610354501380e-01
5.616666666666666252e+00,1.644608360948224306e+09,-2.433142539554479233e-01,-2.227455985842876351e-01,0.000000000000000000e+00,-4.454911971685752703e-01,1.116271290680958650e+00,-1.132316852844059002e-01,3.710610740162681997e-01
5.633333333333332860e+00,1.644608360965213537e+09,-2.556661938391649458e-01,-2.387704617917906780e-01,0.000000000000000000e+00,-4.775409235835813559e-01,9.655633362381808027e-01,-1.069982001970261054e-01,3.769408035029949144e-01
5.650000000000000355e+00,1.644608360982144833e+09,-2.678394427547227674e-01,-6.110912688746069632e-01,-7.766913405806387116e-01,-4.454911971685752703e-01,8.104058613091915664e-01,-1.007403872928793187e-01,3.740049004727578619e-01
5.666666666666666963e+00,1.644608360997023106e+09,-2.797733246921865757e-01,1.985129108005773135e-01,8.425170187697299529e-01,-4.454911971685752703e-01,6.518974733483661188e-01,-9.444117092188204776e-02,3.818791905042430157e-01
5.683333333333333570e+00,1.644608361016960621e+09,-2.914093235486833744e-01,4.153422261247426417e-01,1.276175649418060498e+00,-4.454911971685752703e-01,4.911591394517532683e-01,-8.800405667021900247e-02,3.905504323455215587e-01
5.700000000000000178e+00,1.644608361032893181e+09,-3.026915103550313901e-01,4.735763850975182043e-01,1.392643967363611734e+00,-4.454911971685752703e-01,3.293260249502025228e-01,-8.143792853688165689e-02,3.973660110463129169e-01
5.716666666666666785e+00,1.644608361050845146e+09,-3.135669442475428892e-01,5.454398153192412391e-01,1.536370827807057804e+00,-4.454911971685752703e-01,1.675392306975040657e-01,-7.477156905623784378e-02,4.025826356659482075e-01
5.733333333333333393e+00,1.644608361067799807e+09,-3.239860437638292234e-01,8.390886595011106674e-01,2.123668516170796661e+00,-4.454911971685752703e-01,6.937491904459691661e-03,-6.800060982214586880e-02,4.099121122886157376e-01
5.750000000000000000e+00,1.644608361083756924e+09,-3.339029253357284066e-01,9.109520897228341463e-01,2.267395376614243396e+00,-4.454911971685752703e-01,-1.513510983523962961e-01,-6.112044208153881442e-02,4.156919610708493251e-01
5.766666666666666607e+00,1.644608361101734161e+09,-3.432757061754090344e-01,9.828155199445571810e-01,2.411122237057689688e+00,-4.454911971685752703e-01,-3.062172780351231083e-01,-5.415620622466384843e-02,4.200043625791315960e-01
5.783333333333333215e+00,1.644608361118690729e+09,-3.520667690990253451e-01,9.183862376768053837e-01,2.282263672522185871e+00,-4.454911971685752703e-01,-4.565786552529095821e-01,-4.715035963342809056e-02,4.206953090282941066e-01
5.799999999999999822e+00,1.644608361135646105e+09,-3.602429872026561841e-01,7.449227854174735874e-01,1.935336768003522501e+00,-4.454911971685752703e-01,-6.013875365545674478e-01,-4.017705263542811767e-02,4.161142561780092342e-01
5.816666666666666430e+00,1.644608361151911497e+09,-3.677759066939585431e-01,7.425271934589180445e-01,1.962595310501417334e+00,-4.775409235835813559e-01,-7.396384850469800432e-01,-3.329888995130639295e-02,4.092842386340864724e-01
5.833333333333333037e+00,1.644608361168673515e+09,-3.746418865862272130e-01,-1.920389231532444452e+00,-3.395287265896313578e+00,-4.454911971685752703e-01,-8.703755511050988991e-01,-2.691947834162193576e-02,3.563920806471096436e-01
5.849999999999999645e+00,1.644608361186616898e+09,-3.808221943754503402e-01,-2.153566054620791981e+00,-3.797541459242998130e+00,-5.095906499985862759e-01,-9.926991210072066973e-01,-2.146339909879856414e-02,2.984982484771529498e-01
5.866666666666666252e+00,1.644608361202574492e+09,-3.863030572413954089e-01,-2.189059071680794055e+00,-3.868527493363001390e+00,-5.095906499985862759e-01,-1.105772331820964904e+00,-1.698474077534532778e-02,2.391057334286703917e-01
5.883333333333332860e+00,1.644608361220524788e+09,-3.910756687367347162e-01,-2.528464756990533857e+00,-4.515289137567475741e+00,-5.416403764135924170e-01,-1.208827004259106497e+00,-1.354886722427359365e-02,1.733816638567713397e-01
5.900000000000000355e+00,1.644608361236481905e+09,-3.951361513495612043e-01,-2.658856008502486379e+00,-4.744021914176375532e+00,-5.736901028285972259e-01,-1.301169048989467392e+00,-1.123008102546430888e-02,1.050624600330961611e-01
5.916666666666666963e+00,1.644608361253437996e+09,-3.984854757402852554e-01,-2.824239899157213074e+00,-5.106839421900834175e+00,-5.416403764135924170e-01,-1.382183305995538847e+00,-1.007454457629532348e-02,3.379987016471465433e-02
5.933333333333333570e+00,1.644608361270392656e+09,-4.011293378598527193e-01,-2.974349493480278994e+00,-5.375008884131960762e+00,-5.736901028285972259e-01,-1.451337781005688443e+00,-1.012715999645818696e-02,-3.990896898988859076e-02
5.950000000000000178e+00,1.644608361288044453e+09,-4.030779955485234711e-01,-2.832377425240270696e+00,-5.091064747651945055e+00,-5.736901028285972259e-01,-1.508187247709486201e+00,-1.138631819135724199e-02,-1.109925553441521440e-01
5.966666666666666785e+00,1.644608361303217649e+09,-4.043460665893714445e-01,-2.867870442300272327e+00,-5.162050781771947428e+00,-5.736901028285972259e-01,-1.552376189418700925e+00,-1.383139043698231735e-02,-1.822182602938432761e-01
5.983333333333333393e+00,1.644608361320629358e+09,-4.049522905445949172e-01,-3.092659550346949615e+00,-5.611628997865302004e+00,-5.736901028285972259e-01,-1.583641058971970716e+00,-1.748908633834468304e-02,-2.564989078811295564e-01
6.000000000000000000e+00,1.644608361339550495e+09,-4.049192570322896478e-01,-3.621111137684751569e+00,-6.668532172540905911e+00,-5.736901028285972259e-01,-1.601811840983704993e+00,-2.245003310712320038e-02,-3.385866774234919663e-01
6.016666666666666607e+00,1.644608361354630709e+09,-4.042731034034028892e-01,-3.195194932964732448e+00,-5.816699763100867671e+00,-5.736901028285972259e-01,-1.606812905958850513e+00,-2.870963435545970804e-02,-4.123605401572151830e-01
6.033333333333333215e+00,1.644608361371559143e+09,-4.030431850503197189e-01,-2.785053402493603336e+00,-4.996416702158609446e+00,-5.736901028285972259e-01,-1.598663151292651463e+00,-3.613083569894132152e-02,-4.780012813768378388e-01
6.049999999999999822e+00,1.644608361388572454e+09,-4.012617218173389344e-01,-3.076884876098060495e+00,-5.580079649367523764e+00,-5.736901028285972259e-01,-1.577475429705594845e+00,-4.467436451422529542e-02,-5.470304243249480836e-01
6.066666666666666430e+00,1.644608361405060530e+09,-3.989634241870280151e-01,-2.840264762364715700e+00,-5.106839421900834175e+00,-5.736901028285972259e-01,-1.543455271184746014e+00,-5.432146373619810981e-02,-6.104453256621329427e-01
6.083333333333333037e+00,1.644608361422039032e+09,-3.961851030831558540e-01,-3.132096235969174192e+00,-5.690502369109750269e+00,-5.736901028285972259e-01,-1.496898909970243885e+00,-6.505059660355096141e-02,-6.768661118937704391e-01
6.099999999999999645e+00,1.644608361440990686e+09,-3.929652672591591456e-01,-3.175476590153620382e+00,-5.777263077478642650e+00,-5.736901028285972259e-01,-1.438190633497571813e+00,-7.687545140235341190e-02,-7.419357108224878816e-01
6.116666666666666252e+00,1.644608361456951380e+09,-3.893437123297355251e-01,-2.938856476420275587e+00,-5.304022850011954837e+00,-5.736901028285972259e-01,-1.367799475439105183e+00,-8.973340752111294560e-02,-8.008553539013847367e-01
6.133333333333332860e+00,1.644608361472366095e+09,-3.853611055514779005e-01,-2.879701447986940721e+00,-5.185712793145283328e+00,-5.736901028285972259e-01,-1.286275280042856739e+00,-1.035457889960959277e-01,-8.564759178935650308e-01
6.150000000000000355e+00,1.644608361490428686e+09,-3.810585704661422213e-01,-2.930969139295831027e+00,-5.288248175763064829e+00,-5.736901028285972259e-01,-1.194244169801296662e+00,-1.182718672671341786e-01,-9.105033947741455469e-01
6.166666666666666963e+00,1.644608361507692337e+09,-3.764772754872335869e-01,-2.678574351313598889e+00,-4.783458599798600552e+00,-5.736901028285972259e-01,-1.092403453061863594e+00,-1.338420139994517255e-01,-9.577828781147523785e-01
6.183333333333333570e+00,1.644608361525205851e+09,-3.716580304376101984e-01,-2.071249392731348227e+00,-3.568808682634099672e+00,-5.736901028285972259e-01,-9.815160124769957140e-01,-1.500944220000090257e-01,-9.924098935343341754e-01
6.200000000000000178e+00,1.644608361542344093e+09,-3.666408949335944745e-01,-1.803079930500224526e+00,-3.032469758171851826e+00,-5.736901028285972259e-01,-8.624042191519077916e-01,-1.668656727433187881e-01,-1.020063378618560002e+00
6.216666666666666785e+00,1.644608361558510780e+09,-3.614648023609003391e-01,-1.645333188011329106e+00,-2.716976273194060987e+00,-5.736901028285972259e-01,-7.359434209520808734e-01,-1.840547405042095297e-01,-1.042562254340392736e+00
6.233333333333333393e+00,1.644608361575676441e+09,-3.561672030011880929e-01,-1.211529646166864316e+00,-1.849369189505131184e+00,-5.736901028285972259e-01,-6.030550566514474298e-01,-2.015374102023501368e-01,-1.055322663022557395e+00
6.250000000000000000e+00,1.644608361590612888e+09,-3.507837296472151034e-01,-8.092754528201795416e-01,-1.044860802811761857e+00,-5.736901028285972259e-01,-4.646994504115481428e-01,-2.191563216092449473e-01,-1.058936666669524795e+00
6.266666666666666607e+00,1.644608361609889984e+09,-3.453478887916783813e-01,-7.737824357601779113e-01,-9.738747686917587076e-01,-5.736901028285972259e-01,-3.218683434598902382e-01,-2.368103370252817863e-01,-1.059543497573822490e+00
6.283333333333333215e+00,1.644608361625847101e+09,-3.398907801926055461e-01,-5.765990076490579153e-01,-5.795079124695186046e-01,-5.736901028285972259e-01,-1.755772217638817689e-01,-2.544269415977330473e-01,-1.054463163491586863e+00
6.299999999999999822e+00,1.644608361643774986e+09,-3.344408473094184764e-01,-2.868450514142986130e-01,0.000000000000000000e+00,-5.736901028285972259e-01,-2.685749996018158003e-02,-2.718990134305623307e-01,-1.042219467514998943e+00
6.316666666666666430e+00,1.644608361660244942e+09,-3.290236607718126649e-01,-2.868450514142986130e-01,0.000000000000000000e+00,-5.736901028285972259e-01,1.232513772120768514e-01,-2.891479816561643434e-01,-1.027697060526100659e+00
6.333333333333333037e+00,1.644608361676720619e+09,-3.236617366916760274e-01,-2.868450514142986130e-01,0.000000000000000000e+00,-5.736901028285972259e-01,2.737098542214755348e-01,-3.061361342074652714e-01,-1.010927827928013389e+00
6.349999999999999645e+00,1.644608361694786072e+09,-3.183743912600889292e-01,-2.868450514142986130e-01,0.000000000000000000e+00,-5.736901028285972259e-01,4.234861430254143189e-01,-3.228264285478282258e-01,-9.919601820607985010e-01
6.366666666666666252e+00,1.644608361711019754e+09,-3.131776326906946517e-01,-2.708201882067962085e-01,0.000000000000000000e+00,-5.416403764135924170e-01,5.715639990178225105e-01,-3.391805493283240325e-01,-9.705936644334522967e-01
6.383333333333332860e+00,1.644608361727972507e+09,-3.080840911812673388e-01,9.189510052612859942e-03,5.600193965188180467e-01,-5.416403764135924170e-01,7.169503342879318675e-01,-3.551227567233619098e-01,-9.425491262994053487e-01
6.400000000000000355e+00,1.644608361746141911e+09,-3.031029871710926304e-01,1.837819458077061393e-03,5.773657417447514151e-01,-5.736901028285972259e-01,8.586826092578656588e-01,-3.705828679617335086e-01,-9.127470079157680161e-01
6.416666666666666963e+00,1.644608361763122559e+09,-2.982401377767874839e-01,2.186671347822421452e-01,1.011024372393081627e+00,-5.736901028285972259e-01,9.958359456521902464e-01,-3.855015012500235261e-01,-8.775866566202374930e-01
6.433333333333333570e+00,1.644608361780586481e+09,-2.934980008973465115e-01,4.032818089725310196e-01,1.380253720773659376e+00,-5.736901028285972259e-01,1.127529906084673295e+00,-3.997952963422100048e-01,-8.377793329437642766e-01
6.450000000000000178e+00,1.644608361797539711e+09,-2.888757560945258707e-01,5.036428063511448894e-01,1.580975715530887005e+00,-5.736901028285972259e-01,1.252934888307916994e+00,-4.133999513374441714e-01,-7.948983830375457860e-01
6.466666666666666785e+00,1.644608361814381599e+09,-2.843694209809457529e-01,8.083604151045354902e-01,2.158361206622663175e+00,-5.416403764135924170e-01,1.371278085337066521e+00,-4.262374132028489138e-01,-7.457336128314476786e-01
6.483333333333333393e+00,1.644608361832309246e+09,-2.799720014892714826e-01,1.667086961147664415e+00,3.907864025123926055e+00,-5.736901028285972259e-01,1.481848966205025375e+00,-4.381283730498215512e-01,-6.813603875285968448e-01
6.500000000000000000e+00,1.644608361849610090e+09,-2.756736740551076759e-01,2.079599715233640733e+00,4.700839806880873439e+00,-5.416403764135924170e-01,1.584004236004874056e+00,-4.488842508661489150e-01,-6.095444438582942048e-01
6.516666666666666607e+00,1.644608361865877390e+09,-2.714619974271675340e-01,2.402985151231395555e+00,5.347610678876383083e+00,-5.416403764135924170e-01,1.677172238093040502e+00,-4.583955809732285225e-01,-5.320304905958073149e-01
6.533333333333333215e+00,1.644608361881834269e+09,-2.673221515240802870e-01,2.540516888379865890e+00,5.622674153173324640e+00,-5.416403764135924170e-01,1.760856765832883752e+00,-4.665951636242816059e-01,-4.521413470412084523e-01
6.549999999999999822e+00,1.644608361898097515e+09,-2.632372004906897711e-01,2.727609611888144769e+00,5.996859600189881512e+00,-5.416403764135924170e-01,1.834640256014133941e+00,-4.734382625249903276e-01,-3.692607503421284632e-01
6.566666666666666430e+00,1.644608361915497780e+09,-2.591883768706012003e-01,3.226854092103787597e+00,6.963298834206161025e+00,-5.095906499985862759e-01,1.898186341053290427e+00,-4.788337327430628454e-01,-2.784479395714379302e-01
6.583333333333333037e+00,1.644608361931771755e+09,-2.551553836083012006e-01,3.482093171856804670e+00,7.473776993712196060e+00,-5.095906499985862759e-01,1.951241742222580289e+00,-4.826856174381587983e-01,-1.840404729750189095e-01
6.599999999999999645e+00,1.644608361949715853e+09,-2.511167104253768656e-01,3.634410747553782350e+00,7.746362418691146168e+00,-4.775409235835813559e-01,1.993637491430277020e+00,-4.849501900614484606e-01,-8.797509636866160387e-02
6.616666666666666252e+00,1.644608361966671228e+09,-2.470499609828845089e-01,3.597157550424490591e+00,7.639806298017556507e+00,-4.454911971685752703e-01,2.025289474440793214e+00,-4.856277153148718662e-01,6.409879299183171564e-03
6.633333333333332860e+00,1.644608361982696533e+09,-2.429321871469561911e-01,3.821421013702627434e+00,8.088333224573830194e+00,-4.454911971685752703e-01,2.046198293836492432e+00,-4.847113308224156314e-01,1.032871499323789327e-01
6.649999999999999467e+00,1.644608362000649929e+09,-2.387402266181951893e-01,3.639201931470892770e+00,7.691845333695356501e+00,-4.134414707535703504e-01,2.056448455441285184e+00,-4.822174583228228673e-01,1.957207838813224132e-01
6.666666666666666963e+00,1.644608362016578436e+09,-2.344510401677790956e-01,3.540079958751273903e+00,7.493601388256117879e+00,-4.134414707535703504e-01,2.056206887306475828e+00,-4.782095163788994685e-01,2.849842893716948433e-01
6.683333333333333570e+00,1.644608362033557892e+09,-2.300420447445750138e-01,2.558772428827053247e+00,5.530986328407677455e+00,-4.134414707535703504e-01,2.045720805658247432e+00,-4.728631654918949434e-01,3.563794923927786629e-01
6.700000000000000178e+00,1.644608362050648451e+09,-2.254914387776233153e-01,2.471958245337952054e+00,5.325308235014468039e+00,-3.813917443385642647e-01,2.025314947382980346e+00,-4.663515649812726149e-01,4.248224450941718855e-01
6.716666666666666785e+00,1.644608362070065498e+09,-2.207785160964449711e-01,2.494260689199866210e+00,5.369913122738296352e+00,-3.813917443385642647e-01,1.995388193638645502e+00,-4.587097550405572211e-01,4.920081165340983165e-01
6.733333333333333393e+00,1.644608362086260796e+09,-2.158839650266372590e-01,2.756933916906854964e+00,5.895259578152274749e+00,-3.813917443385642647e-01,1.956409613990063967e+00,-4.499265668112323313e-01,5.617806538197220867e-01
6.750000000000000000e+00,1.644608362103215218e+09,-2.107901493887456290e-01,2.806494903266664398e+00,5.994381550871892728e+00,-3.813917443385642647e-01,1.908913965032615678e+00,-4.399898547127122361e-01,6.304340895261899558e-01
6.766666666666666607e+00,1.644608362119197845e+09,-2.054813683325777962e-01,2.277431373875700604e+00,4.936254492089966028e+00,-3.813917443385642647e-01,1.853496681759200015e+00,-4.289991299140311631e-01,6.882921656547572598e-01
6.783333333333333215e+00,1.644608362137591362e+09,-1.999440921748833755e-01,2.445938727499052057e+00,5.273269199336668933e+00,-3.813917443385642647e-01,1.790808403902941937e+00,-4.170374794493393877e-01,7.469429673800986880e-01
6.799999999999999822e+00,1.644608362155909300e+09,-1.941671716731475650e-01,3.233958410620018764e+00,6.849308565578601460e+00,-3.813917443385642647e-01,1.721549083123684820e+00,-4.040071409606705855e-01,8.165044204538249861e-01
6.816666666666666430e+00,1.644608362171612024e+09,-1.881420184593885769e-01,3.253782805163941916e+00,6.888957354666447763e+00,-3.813917443385642647e-01,1.646461720169685394e+00,-3.898346857321521863e-01,8.840027073142002756e-01
6.833333333333333037e+00,1.644608362187916994e+09,-1.818627546723379229e-01,3.232719385961022596e+00,6.846830516260609123e+00,-3.813917443385642647e-01,1.566325784012469580e+00,-3.745605596584796193e-01,9.487126674067525300e-01
6.849999999999999645e+00,1.644608362205164433e+09,-1.753263301608979918e-01,3.225202780647616230e+00,6.799747579218792026e+00,-3.493420179235594003e-01,1.481950367399456292e+00,-3.582295641938275099e-01,1.010834224409551618e+00
6.866666666666666252e+00,1.644608362222119331e+09,-1.685326059829398704e-01,3.268568643712449262e+00,6.886479305348458091e+00,-3.493420179235594003e-01,1.394167135276759506e+00,-3.408779246554227704e-01,1.071194847854300303e+00
6.883333333333332860e+00,1.644608362238076448e+09,-1.614844032875980551e-01,3.864457047329719064e+00,8.046206386167991553e+00,-3.172922915085532591e-01,1.303823124087922558e+00,-3.224587857219662901e-01,1.138913711777804538e+00
6.899999999999999467e+00,1.644608362256881952e+09,-1.541875170426439956e-01,3.693389187028941922e+00,7.672020939151432906e+00,-2.852425650935483947e-01,1.211773451041261218e+00,-3.029566943447203342e-01,1.201164331035061927e+00
6.916666666666666963e+00,1.644608362274048090e+09,-1.466506944472626695e-01,3.599140855585869936e+00,7.451474549850281903e+00,-2.531928386785423091e-01,1.118873993050355065e+00,-2.824515396791711375e-01,1.259292757180116462e+00
6.933333333333333570e+00,1.644608362293536186e+09,-1.388855782508457981e-01,3.325233948588488531e+00,6.871611009440513840e+00,-2.211431122635373892e-01,1.025974095185046231e+00,-2.610362701773416005e-01,1.310397621741179242e+00
6.950000000000000178e+00,1.644608362308523893e+09,-1.309066155763164430e-01,3.232307099163846065e+00,6.685757310591229796e+00,-2.211431122635373892e-01,9.339093681230336008e-01,-2.388018626910705100e-01,1.357600155376356144e+00
6.966666666666666785e+00,1.644608362326498270e+09,-1.227309332180638035e-01,3.233463666463406661e+00,6.656020718775344847e+00,-1.890933858485313035e-01,8.434946332678605607e-01,-2.157995943310182241e-01,1.402547192011824873e+00
6.983333333333333393e+00,1.644608362342433214e+09,-1.143781807460817063e-01,2.929902625009574990e+00,6.048898635867681506e+00,-1.890933858485313035e-01,7.555170729048787948e-01,-1.921084963078849295e-01,1.440279755620599067e+00
7.000000000000000000e+00,1.644608362360595226e+09,-1.058703430955421215e-01,2.395882996982631408e+00,4.980859379813794341e+00,-1.890933858485313035e-01,6.707296410135192843e-01,-1.678792038050013202e-01,1.467160673750984579e+00
7.016666666666666607e+00,1.644608362375705242e+09,-9.723152465132137157e-02,2.372423985821157544e+00,4.965991083905852754e+00,-2.211431122635373892e-01,5.898447881554790273e-01,-1.432200208323325397e-01,1.491872637011259828e+00
7.033333333333333215e+00,1.644608362395859718e+09,-8.848770714643067192e-02,2.175336607681480849e+00,4.539766601211493224e+00,-1.890933858485313035e-01,5.135285512328664481e-01,-1.181901476777548338e-01,1.511657183171921215e+00
7.049999999999999822e+00,1.644608362410218000e+09,-7.966648397878590970e-02,2.185331262312877776e+00,4.591805636889292330e+00,-2.211431122635373892e-01,4.423950558788989351e-01,-9.284170926574085436e-02,1.530104183396436834e+00
7.066666666666666430e+00,1.644608362426177740e+09,-7.079677380926277519e-02,1.940004379831822501e+00,4.101151871927182668e+00,-2.211431122635373892e-01,3.770014758306194924e-01,-6.723128562418559384e-02,1.543110524015922191e+00
7.083333333333333037e+00,1.644608362444154263e+09,-6.190851653289654311e-02,1.482721823303148057e+00,3.154537032454827195e+00,-1.890933858485313035e-01,3.178434898664552755e-01,-4.147721710664646622e-02,1.547365877384543120e+00
7.099999999999999645e+00,1.644608362460500002e+09,-5.303235491197888507e-02,1.114813956940999828e+00,2.450771026145536879e+00,-2.211431122635373892e-01,2.653512728005340549e-01,-1.571087965378483928e-02,1.544602293760707123e+00
7.116666666666666252e+00,1.644608362480420113e+09,-4.419930532267345863e-02,9.722436637971135776e-01,2.133580713442758459e+00,-1.890933858485313035e-01,2.198860526450077124e-01,9.983808220640703890e-03,1.538776434493650314e+00
7.133333333333332860e+00,1.644608362495356560e+09,-3.544042119387635914e-02,8.694046171005096468e-01,1.927902620049550597e+00,-1.890933858485313035e-01,1.817372614142693799e-01,3.556272980068081457e-02,1.530716544222189945e+00
7.149999999999999467e+00,1.644608362513334274e+09,-2.678645280700948927e-02,7.852333976482690492e-01,1.791609907560075543e+00,-2.211431122635373892e-01,1.511203021904465871e-01,6.099257851174779560e-02,1.520892590508434949e+00
7.166666666666666963e+00,1.644608362532302618e+09,-1.826750717738669441e-02,6.960236222006126461e-01,1.613190356664762515e+00,-2.211431122635373892e-01,1.281749500346716086e-01,8.624456062812091428e-02,1.509377251262649988e+00
7.183333333333333570e+00,1.644608362549319267e+09,-9.912711750992940843e-03,-1.105715561317686946e-01,0.000000000000000000e+00,-2.211431122635373892e-01,1.129643991555855376e-01,1.111927027107573185e-01,1.484468989897077096e+00
7.200000000000000178e+00,1.644608362565510273e+09,-1.749885624914980509e-03,-1.105715561317686946e-01,0.000000000000000000e+00,-2.211431122635373892e-01,1.054749634753695542e-01,1.357281130008626546e-01,1.459848636396031685e+00
7.216666666666666785e+00,1.644608362583542109e+09,6.194778064629188896e-03,-4.634242093620864478e-01,-7.057053064606354509e-01,-2.211431122635373892e-01,1.056164324075525851e-01,1.598078679966929982e-01,1.429805418450958987e+00
7.233333333333333393e+00,1.644608362598913193e+09,1.389701504510632013e-02,-1.105715561317686946e-01,0.000000000000000000e+00,-2.211431122635373892e-01,1.132230783220578019e-01,1.834408390959487711e-01,1.406216639388208067e+00
7.250000000000000000e+00,1.644608362615869999e+09,2.133477469923105579e-02,-1.105715561317686946e-01,0.000000000000000000e+00,-2.211431122635373892e-01,1.280553068642948933e-01,2.066859706062333935e-01,1.383262903723465609e+00
7.266666666666666607e+00,1.644608362633141041e+09,2.848848351841150317e-02,-1.105715561317686946e-01,0.000000000000000000e+00,-2.211431122635373892e-01,1.498019360592814930e-01,2.295547138921376074e-01,1.361048000103019850e+00
7.283333333333333215e+00,1.644608362650089741e+09,3.534128420048743280e-02,-1.265964193392711545e-01,0.000000000000000000e+00,-2.531928386785423091e-01,1.780830850104906382e-01,2.520579699622428338e-01,1.339402855127434844e+00
7.299999999999999822e+00,1.644608362664424419e+09,4.187924761538190654e-02,-4.005757013251411980e-01,-5.479585639717400314e-01,-2.531928386785423091e-01,2.124536480375958103e-01,2.741703683784921797e-01,1.314155089156393119e+00
7.316666666666666430e+00,1.644608362681730986e+09,4.809155513316133029e-02,-1.105715561317686946e-01,0.000000000000000000e+00,-2.211431122635373892e-01,2.524073253269720762e-01,2.959110318683387808e-01,1.294778355153133331e+00
7.333333333333333037e+00,1.644608362698917150e+09,5.397064910664037957e-02,-4.557870611962543395e-01,-6.583812837139663143e-01,-2.531928386785423091e-01,2.973811766325588080e-01,3.172899565886042605e-01,1.270759332356806270e+00
7.349999999999999645e+00,1.644608362714872837e+09,5.951234962237995918e-02,-8.504041063771082820e-01,-1.415565647660668169e+00,-2.852425650935483947e-01,3.467606602979332875e-01,3.382241973974176030e-01,1.241431034113340104e+00
7.366666666666666252e+00,1.644608362732460976e+09,6.471593597624017424e-02,-1.019731665594057590e+00,-1.786270492509572927e+00,-2.531928386785423091e-01,3.998851159083346429e-01,3.586576340440417177e-01,1.210666821638620716e+00
7.383333333333332860e+00,1.644608362750379562e+09,6.958419168929241838e-02,-9.253338090593336007e-01,-1.565425053025118807e+00,-2.852425650935483947e-01,4.560536452549269759e-01,3.786033792888108263e-01,1.182899740330444871e+00
7.399999999999999467e+00,1.644608362767685413e+09,7.412341225321217308e-02,-8.191049468379415499e-01,-1.320917602167329674e+00,-3.172922915085532591e-01,5.145313430322814297e-01,3.981129244004864565e-01,1.158313968488674961e+00
7.416666666666666963e+00,1.644608362782608271e+09,7.834337517749397073e-02,-8.740661177504428503e-01,-1.462889670407337528e+00,-2.852425650935483947e-01,5.745558258201225454e-01,4.172168017943696516e-01,1.134218252895953016e+00
7.433333333333333570e+00,1.644608362800984621e+09,8.225727230011281588e-02,-1.205584465935736871e+00,-2.093876640362920760e+00,-3.172922915085532591e-01,6.353440054444632334e-01,4.358850186546666672e-01,1.106046028360801348e+00
7.450000000000000178e+00,1.644608362817291260e+09,8.588160471468697654e-02,-1.256852157244628510e+00,-2.196412022980703593e+00,-3.172922915085532591e-01,6.960990507915453263e-01,4.540888999991614661e-01,1.078496261908755249e+00
7.466666666666666785e+00,1.644608362835250854e+09,8.923604105677808429e-02,-1.450342105752139288e+00,-2.551342193580719453e+00,-3.493420179235594003e-01,7.560174805766153305e-01,4.718189747921300858e-01,1.049194110029527893e+00
7.483333333333333393e+00,1.644608362852171659e+09,9.234324027573827254e-02,-1.403268271964083214e+00,-2.425144799589602052e+00,-3.813917443385642647e-01,8.142963284614067598e-01,4.890792789799106588e-01,1.022117606783369270e+00
7.500000000000000000e+00,1.644608362867366791e+09,9.522864039271050629e-02,-1.525521997392977891e+00,-2.669652250447391406e+00,-3.813917443385642647e-01,8.701403212772675921e-01,5.058828753883223284e-01,9.943909824396958141e-01
7.516666666666666607e+00,1.644608362886343241e+09,9.792021510594668687e-02,-1.419042946212973000e+00,-2.456694148087382068e+00,-3.813917443385642647e-01,9.227690109527824092e-01,5.222501670467523116e-01,9.697524585269292619e-01
7.533333333333333215e+00,1.644608362901421309e+09,1.004482004481362933e-01,-1.423236803733808564e+00,-2.433032136714047056e+00,-4.134414707535703504e-01,9.714238010634486109e-01,5.382163606913803466e-01,9.462560481711285165e-01
7.549999999999999822e+00,1.644608362918429852e+09,1.028447940231746321e-01,-1.119574324442683899e+00,-1.825707178131797503e+00,-4.134414707535703504e-01,1.015374809718105675e+00,5.538422053810716505e-01,9.288935449026942681e-01
7.566666666666666430e+00,1.644608362934689999e+09,1.051438296485773805e-01,-1.308870415429359335e+00,-2.204299360105148597e+00,-4.134414707535703504e-01,1.053927511761878932e+00,5.691602523818064530e-01,9.093264495075015219e-01
7.583333333333333037e+00,1.644608362951788902e+09,1.073804305014076643e-01,-1.304926746867137055e+00,-2.196412022980703593e+00,-4.134414707535703504e-01,1.086429105003299922e+00,5.841599175806795330e-01,8.906851569442311156e-01
7.599999999999999645e+00,1.644608362968278408e+09,1.095906441072918430e-01,-1.312814083991581615e+00,-2.212186697229592713e+00,-4.134414707535703504e-01,1.112274547345060371e+00,5.988539496972482556e-01,8.726487992168869834e-01
7.616666666666666252e+00,1.644608362986223936e+09,1.118110627214289610e-01,-1.320951610074639460e+00,-2.196412022980703593e+00,-4.454911971685752703e-01,1.130912214301731389e+00,6.132513173271202378e-01,8.550841083241331742e-01
7.633333333333332860e+00,1.644608363001340151e+09,1.140784328250386281e-01,-1.229997044184911070e+00,-2.046552617616251624e+00,-4.134414707535703504e-01,1.141849129398360585e+00,6.273724394548447769e-01,8.394938542832994788e-01
7.649999999999999467e+00,1.644608363019607067e+09,1.164292575988333245e-01,-1.731093140545768794e+00,-3.016695083922962262e+00,-4.454911971685752703e-01,1.144655723341139186e+00,6.411670533541832251e-01,8.159252834305504853e-01
7.666666666666666963e+00,1.644608363035570383e+09,1.188993963350437749e-01,-1.770529826167992704e+00,-3.095568455167410082e+00,-4.454911971685752703e-01,1.138970081605595874e+00,6.545658807237060284e-01,7.920004603183210534e-01
7.683333333333333570e+00,1.644608363051672220e+09,1.215236648103992373e-01,-1.715318466296879674e+00,-2.985145735425184021e+00,-4.454911971685752703e-01,1.124501644170748715e+00,6.675748929826408329e-01,7.691445010239507107e-01
7.700000000000000178e+00,1.644608363070434809e+09,1.243354406633055964e-01,-1.821547328518271058e+00,-3.229653186282972044e+00,-4.134414707535703504e-01,1.101034325506565992e+00,6.801882157619530966e-01,7.445226281944433699e-01
7.716666666666666785e+00,1.644608363085538149e+09,1.273662777990610950e-01,-2.551126012529416176e+00,-4.688810554305261391e+00,-4.134414707535703504e-01,1.068429027561709210e+00,6.922893015475720668e-01,7.077099259926958874e-01
7.733333333333333393e+00,1.644608363102503777e+09,1.306455337872872435e-01,-2.511939515865804662e+00,-4.578387834563033998e+00,-4.454911971685752703e-01,1.026625523362512116e+00,7.037815654229052642e-01,6.714624289089745623e-01
7.750000000000000000e+00,1.644608363121453762e+09,1.342000141162458249e-01,-2.476196309847189969e+00,-4.538951148940808977e+00,-4.134414707535703504e-01,9.756436938835105765e-01,7.146726061029508026e-01,6.355621779628677359e-01
7.766666666666666607e+00,1.644608363136547089e+09,1.380536370303308558e-01,-2.460671824556913023e+00,-4.475852451945250721e+00,-4.454911971685752703e-01,9.155841060443959956e-01,7.249641166172159368e-01,5.995192054733939901e-01
7.783333333333333215e+00,1.644608363153688192e+09,1.422271225007836759e-01,-2.870813355028043468e+00,-5.296135512887511609e+00,-4.454911971685752703e-01,8.466279249866215384e-01,7.345937159816955386e-01,5.561531822748907450e-01
7.799999999999999822e+00,1.644608363171926737e+09,1.467377086674636621e-01,-3.320391571121397156e+00,-6.195291945074218987e+00,-4.454911971685752703e-01,7.690361591431021937e-01,7.434337250486815485e-01,5.047905830082665135e-01
7.816666666666666430e+00,1.644608363188159704e+09,1.515988988429898543e-01,-3.371409073471674844e+00,-6.329376676189779616e+00,-4.134414707535703504e-01,6.831482419931297345e-01,7.514058755775430143e-01,4.520140852880959459e-01
7.833333333333333037e+00,1.644608363203873158e+09,1.568202418923253516e-01,-3.111126948364995926e+00,-5.808812425976421778e+00,-4.134414707535703504e-01,5.893799597498718956e-01,7.585287063023292697e-01,4.028621380863909307e-01
7.849999999999999645e+00,1.644608363221821308e+09,1.624071484933552745e-01,-2.815601995156929771e+00,-5.185712793145283328e+00,-4.454911971685752703e-01,4.882207395157031060e-01,7.648659726905813194e-01,3.577351841041184199e-01
7.866666666666666252e+00,1.644608363238278866e+09,1.683607454502275558e-01,-2.649717726584976063e+00,-4.885993982416382053e+00,-4.134414707535703504e-01,3.802303176199770540e-01,7.704653524635202144e-01,3.143110141817628822e-01
7.883333333333332860e+00,1.644608363254237175e+09,1.746777698743898488e-01,-2.705179275414701490e+00,-4.964867353660827654e+00,-4.454911971685752703e-01,2.660348128825948955e-01,7.753235607222108694e-01,2.688003982142037618e-01
7.899999999999999467e+00,1.644608363269863605e+09,1.813505046716827884e-01,-2.433066144621356841e+00,-4.420641092074138356e+00,-4.454911971685752703e-01,1.463222343849285290e-01,7.794505943040880291e-01,2.265609661283860821e-01
7.916666666666666963e+00,1.644608363287826777e+09,1.883667563813828383e-01,-1.849153008453827907e+00,-3.284864546154085740e+00,-4.134414707535703504e-01,2.183745793853075767e-02,7.829429279569237732e-01,1.926133733002954040e-01
7.933333333333333570e+00,1.644608363305635691e+09,1.957098760082476852e-01,-1.809966511790217281e+00,-3.174441826411859680e+00,-4.454911971685752703e-01,-1.066232902152747242e-01,7.858618266502571670e-01,1.577513112402038065e-01
7.950000000000000178e+00,1.644608363327023983e+09,2.033588230756518400e-01,-1.865177871661330533e+00,-3.284864546154085740e+00,-4.454911971685752703e-01,-2.382183999002859265e-01,7.881787043385430902e-01,1.203778290258909062e-01
7.966666666666666785e+00,1.644608363340209246e+09,2.112882727105043768e-01,-1.896727220159109661e+00,-3.347963243149644441e+00,-4.454911971685752703e-01,-3.720672474123782880e-01,7.898550078192404511e-01,8.088828441900211552e-02
7.983333333333333393e+00,1.644608363357621431e+09,2.194687651531584682e-01,-1.726899283024934117e+00,-3.040357095296297718e+00,-4.134414707535703504e-01,-5.072569202109307174e-01,7.908833907931150931e-01,4.262396472452972818e-02
8.000000000000000000e+00,1.644608363377559900e+09,2.278668966719013811e-01,-1.695600123485767163e+00,-2.945709049802959445e+00,-4.454911971685752703e-01,-6.428492433138052187e-01,7.912649151685534621e-01,3.268284235765139822e-03
8.016666666666665719e+00,1.644608363391530037e+09,2.364455504558692911e-01,-1.837822380684387413e+00,-3.198103837785193360e+00,-4.775409235835813559e-01,-7.778880522737973147e-01,7.909576519252691229e-01,-4.001962640358692341e-02
8.033333333333333215e+00,1.644608363410634995e+09,2.451641656665356495e-01,-1.904864746242168172e+00,-3.332188568900754877e+00,-4.775409235835813559e-01,-9.114066555105378997e-01,7.899072008713950988e-01,-8.590703204559135830e-02
8.050000000000000711e+00,1.644608363426773787e+09,2.539790424498806209e-01,-2.015537654943008405e+00,-3.521484659887430091e+00,-5.095906499985862759e-01,-1.042435427117468727e+00,7.880649137581652308e-01,-1.350309629667027222e-01
8.066666666666666430e+00,1.644608363442836523e+09,2.628436803530075361e-01,-2.315506654630523631e+00,-4.089372932847455289e+00,-5.416403764135924170e-01,-1.170009470077033154e+00,7.853516270263849464e-01,-1.904096116467150490e-01
8.083333333333333925e+00,1.644608363458267689e+09,2.717091472535851926e-01,-2.717760847977208627e+00,-4.893881319540825281e+00,-5.416403764135924170e-01,-1.293176289104465804e+00,7.816504403307934501e-01,-2.535573772358181155e-01
8.099999999999999645e+00,1.644608363476486444e+09,2.805244756015865537e-01,-3.336916812246125463e+00,-6.132193248078658954e+00,-5.416403764135924170e-01,-1.411003412110787947e+00,7.768037204045278310e-01,-3.278426610488344162e-01
8.116666666666667140e+00,1.644608363494626999e+09,2.892370824934322737e-01,-3.486776217610577877e+00,-6.431912058807562893e+00,-5.416403764135924170e-01,-1.522585899528909659e+00,7.706930622504953865e-01,-4.052213715137933381e-01
8.133333333333332860e+00,1.644608363511912584e+09,2.977932098514433079e-01,-3.774664022652811646e+00,-7.007687668892031319e+00,-5.416403764135924170e-01,-1.627053681483242586e+00,7.632492541586959334e-01,-4.878061918242614925e-01
8.150000000000000355e+00,1.644608363530435085e+09,3.061383807693047188e-01,-3.956072776515042744e+00,-7.370505176616493515e+00,-5.416403764135924170e-01,-1.723578663996526483e+00,7.544020507052949798e-01,-5.736198457127200667e-01
8.166666666666666075e+00,1.644608363545130730e+09,3.142178679087260784e-01,-4.145368867501717958e+00,-7.749097358589843942e+00,-5.416403764135924170e-01,-1.811381547109019330e+00,7.440981992632130781e-01,-6.625951678474837347e-01
8.183333333333333570e+00,1.644608363561717987e+09,3.219771696959886076e-01,-4.314946615677281549e+00,-8.088252854940970238e+00,-5.416403764135924170e-01,-1.889738299922010256e+00,7.322894702644523468e-01,-7.541978541087112076e-01
8.199999999999999289e+00,1.644608363580425024e+09,3.293624899704762909e-01,-4.098295033713662328e+00,-7.622899964598727429e+00,-5.736901028285972259e-01,-1.957986240153029689e+00,7.189871796217832678e-01,-8.418335846971536363e-01
8.216666666666666785e+00,1.644608363596741676e+09,3.363212166821299420e-01,-5.005088614066202091e+00,-9.468536851718811320e+00,-5.416403764135924170e-01,-2.015529668784622253e+00,7.041032030512861528e-01,-9.439599128408369122e-01
8.233333333333332504e+00,1.644608363613694668e+09,3.428023952212678194e-01,-4.985370271255089136e+00,-9.429100166096585411e+00,-5.416403764135924170e-01,-2.061845013778627500e+00,6.875275531599163159e-01,-1.044837851033362242e+00
8.250000000000000000e+00,1.644608363628757715e+09,3.487571919929303710e-01,-4.827873717724807001e+00,-9.082057332621015888e+00,-5.736901028285972259e-01,-2.096485440586843829e+00,6.693015065593539425e-01,-1.142017790404660671e+00
8.266666666666665719e+00,1.644608363646735430e+09,3.541393439184239433e-01,-4.323084141760339172e+00,-8.072478180692080230e+00,-5.736901028285972259e-01,-2.119084891288616213e+00,6.495358171850194040e-01,-1.229621584914475374e+00
8.283333333333333215e+00,1.644608363663448811e+09,3.589055896586370586e-01,-3.853787582855872973e+00,-7.133885062883148720e+00,-5.736901028285972259e-01,-2.129361518592160607e+00,6.283855645106545262e-01,-1.308190483930911086e+00
8.300000000000000711e+00,1.644608363680376768e+09,3.630160785058931250e-01,-3.581674452062528324e+00,-6.589658801296459423e+00,-5.736901028285972259e-01,-2.127120485617328693e+00,6.059745760955460581e-01,-1.380926077810466834e+00
8.316666666666666430e+00,1.644608363696966171e+09,3.664347530822542054e-01,-3.365022870098909991e+00,-6.124305910954216614e+00,-6.057398292436033671e-01,-2.112256107293873253e+00,5.823933511589192147e-01,-1.448632835830386378e+00
8.333333333333333925e+00,1.644608363712262869e+09,3.691297022105505810e-01,-2.844458619885552597e+00,-5.083177410527501827e+00,-6.057398292436033671e-01,-2.084753314324499840e+00,5.577687312399691733e-01,-1.506161748148270529e+00
8.349999999999999645e+00,1.644608363730549812e+09,3.710734805878119769e-01,-2.430123231893586144e+00,-4.286556360958575063e+00,-5.736901028285972259e-01,-2.044688425934721998e+00,5.322560040307021678e-01,-1.555229215236141993e+00
8.366666666666667140e+00,1.644608363746057510e+09,3.722433921868263385e-01,-1.826992130832172823e+00,-3.048244432420742278e+00,-6.057398292436033671e-01,-1.992229223020562490e+00,5.060228133862472166e-01,-1.592649713822565927e+00
8.383333333333332860e+00,1.644608363765340805e+09,3.726217346373794648e-01,-1.566459816766880841e+00,-2.559229530705164013e+00,-5.736901028285972259e-01,-1.927634318768520316e+00,4.792160230369114648e-01,-1.624077825732153535e+00
8.400000000000000355e+00,1.644608363782293558e+09,3.721960021913593430e-01,-1.144487280609083557e+00,-1.715284458389569888e+00,-5.736901028285972259e-01,-1.851251829316431285e+00,4.519586047337166290e-01,-1.646749392594383909e+00
8.416666666666666075e+00,1.644608363798398495e+09,3.709590452519098691e-01,9.782717081057521469e-01,2.562283245455107661e+00,-6.057398292436033671e-01,-1.763517352505604263e+00,4.246317728513764322e-01,-1.632509988118707955e+00
8.433333333333333570e+00,1.644608363815424681e+09,3.689091848426878095e-01,1.652218665239721940e+00,3.878127433308041105e+00,-5.736901028285972259e-01,-1.664951268201456447e+00,3.976469975100581089e-01,-1.605737422826751803e+00
8.449999999999999289e+00,1.644608363832470655e+09,3.660502808052524815e-01,2.083481703929496831e+00,4.772703237102597029e+00,-6.057398292436033671e-01,-1.556155378987496229e+00,3.711793269587914113e-01,-1.570480980193118548e+00
8.466666666666666785e+00,1.644608363851469040e+09,3.623917529366742496e-01,2.302706611212217425e+00,5.179103325253032075e+00,-5.736901028285972259e-01,-1.437808915226172823e+00,3.453410196735104409e-01,-1.530227711308070226e+00
8.483333333333332504e+00,1.644608363866791248e+09,3.579485547117722821e-01,2.628570096527961919e+00,5.830830295884521064e+00,-5.736901028285972259e-01,-1.310663933485828547e+00,3.202306101569046271e-01,-1.483152199074095456e+00
8.500000000000000000e+00,1.644608363884741545e+09,3.527410996705311330e-01,2.680609132205761913e+00,5.934908367240121052e+00,-5.736901028285972259e-01,-1.175540142119507525e+00,2.959241414406861281e-01,-1.433761247189772714e+00
8.516666666666665719e+00,1.644608363901436329e+09,3.467951409873923918e-01,2.702911576067676069e+00,5.979513254963949365e+00,-5.736901028285972259e-01,-1.033319192307918577e+00,2.724567574061807496e-01,-1.382467323425937922e+00
8.533333333333333215e+00,1.644608363917416096e+09,3.401416051707966126e-01,2.615023282638450297e+00,5.835786394520503961e+00,-6.057398292436033671e-01,-8.849384771118224968e-01,2.498455426022065662e-01,-1.331021361863186536e+00
8.550000000000000711e+00,1.644608363934417486e+09,3.328163812646606767e-01,2.529530581167779069e+00,5.664800991579161504e+00,-6.057398292436033671e-01,-7.313844849833467388e-01,2.280940554084900929e-01,-1.279300773066396113e+00
8.566666666666666430e+00,1.644608363950447321e+09,3.248600673342186274e-01,2.307662709848198102e+00,5.189015522524993429e+00,-5.736901028285972259e-01,-5.736857577317086010e-01,2.071885712803245294e-01,-1.229495673069622486e+00
8.583333333333333925e+00,1.644608363969696999e+09,3.163176764129823071e-01,1.864091881927905758e+00,4.301873866684408299e+00,-5.736901028285972259e-01,-4.129055060969931690e-01,1.870672338713414151e-01,-1.185187896063457424e+00
8.599999999999999645e+00,1.644608363986048937e+09,3.072383044617472692e-01,-2.071249392731348227e+00,-3.568808682634099672e+00,-5.736901028285972259e-01,-2.501339388320658608e-01,1.671571703898037387e-01,-1.203967554774643345e+00
8.616666666666667140e+00,1.644608364002532482e+09,2.976747632408288102e-01,-2.370968203460250834e+00,-4.168246304091904442e+00,-5.736901028285972259e-01,-8.648036350537040284e-02,1.469179130540382849e-01,-1.224685773554971657e+00
8.633333333333332860e+00,1.644608364020641804e+09,2.876831813200310672e-01,-2.410404889082474966e+00,-4.247119675336351818e+00,-5.736901028285972259e-01,7.693488090389430378e-02,1.263533376630511518e-01,-1.243012364966960881e+00
8.650000000000000355e+00,1.644608364036597013e+09,2.773225767437380584e-01,-2.453785243266921157e+00,-4.333880383705244199e+00,-5.736901028285972259e-01,2.389885981529854542e-01,1.055022415839355354e-01,-1.259074546306410802e+00
8.666666666666666075e+00,1.644608364053154945e+09,2.666544051286066086e-01,-2.520827608824701915e+00,-4.467965114820806605e+00,-5.736901028285972259e-01,3.985629532479711967e-01,8.439844156356260396e-02,-1.273341823878983314e+00
8.683333333333333570e+00,1.644608364070596933e+09,2.557420871957307162e-01,-2.666743345626930939e+00,-4.759796588425264652e+00,-5.736901028285972259e-01,5.545536725146340551e-01,6.306021574874920432e-02,-1.287206759282708113e+00
8.699999999999999289e+00,1.644608364086318254e+09,2.446505199261313490e-01,-2.560264294446925604e+00,-4.546838486065253981e+00,-5.736901028285972259e-01,7.058781624852306091e-01,4.152843066274347628e-02,-1.296581409729397283e+00
8.716666666666666785e+00,1.644608364103400707e+09,2.334455756757907452e-01,-2.686461688438043449e+00,-4.799233274047489672e+00,-5.736901028285972259e-01,8.514834854086221760e-01,1.984437686685176436e-02,-1.305480325983995993e+00
