# 
# 
# 
# 
# 
# 
# 
# 
# 
# 
# time,realtime,ref,inp,dis,state...
0.000000000000000000e+00,1.644608353135925531e+09,0.000000000000000000e+00,8.989948259409035192e-01,0.000000000000000000e+00,5.784975617908497680e-01
1.666666666666666644e-02,1.644608353137923479e+09,0.000000000000000000e+00,5.784975617908497680e-01,0.000000000000000000e+00,5.784975617908497680e-01
3.333333333333333287e-02,1.644608353139915466e+09,0.000000000000000000e+00,9.310445523559096603e-01,0.000000000000000000e+00,9.310445523559096603e-01
5.000000000000000278e-02,1.644608353157221079e+09,0.000000000000000000e+00,9.951440051859207214e-01,0.000000000000000000e+00,9.951440051859207214e-01
6.666666666666666574e-02,1.644608353172500610e+09,0.000000000000000000e+00,1.043218594808429156e+00,0.000000000000000000e+00,1.043218594808429156e+00
8.333333333333332871e-02,1.644608353189383030e+09,0.000000000000000000e+00,1.075268321223434187e+00,0.000000000000000000e+00,1.075268321223434187e+00
1.000000000000000056e-01,1.644608353207394838e+09,0.000000000000000000e+00,1.091293184430936591e+00,0.000000000000000000e+00,1.091293184430936591e+00
1.166666666666666685e-01,1.644608353223344088e+09,0.000000000000000000e+00,1.075268321223434187e+00,0.000000000000000000e+00,1.075268321223434187e+00
1.333333333333333315e-01,1.644608353240327597e+09,0.000000000000000000e+00,1.091293184430936591e+00,0.000000000000000000e+00,1.091293184430936591e+00
1.499999999999999944e-01,1.644608353257524967e+09,0.000000000000000000e+00,1.075268321223434187e+00,0.000000000000000000e+00,1.075268321223434187e+00
1.666666666666666574e-01,1.644608353273482084e+09,0.000000000000000000e+00,1.075268321223434187e+00,0.000000000000000000e+00,1.075268321223434187e+00
1.833333333333333204e-01,1.644608353290975332e+09,0.000000000000000000e+00,1.075268321223434187e+00,0.000000000000000000e+00,1.075268321223434187e+00
2.000000000000000111e-01,1.644608353310232639e+09,0.000000000000000000e+00,1.091293184430936591e+00,0.000000000000000000e+00,1.091293184430936591e+00
2.166666666666666741e-01,1.644608353326052666e+09,0.000000000000000000e+00,1.107318047638440106e+00,0.000000000000000000e+00,1.107318047638440106e+00
2.333333333333333370e-01,1.644608353343041182e+09,0.000000000000000000e+00,1.107318047638440106e+00,0.000000000000000000e+00,1.107318047638440106e+00
2.500000000000000000e-01,1.644608353359394550e+09,0.000000000000000000e+00,1.107318047638440106e+00,0.000000000000000000e+00,1.107318047638440106e+00
2.666666666666666630e-01,1.644608353375348806e+09,0.000000000000000000e+00,1.107318047638440106e+00,0.000000000000000000e+00,1.107318047638440106e+00
2.833333333333333259e-01,1.644608353393301249e+09,0.000000000000000000e+00,1.107318047638440106e+00,0.000000000000000000e+00,1.107318047638440106e+00
2.999999999999999889e-01,1.644608353411255598e+09,0.000000000000000000e+00,1.107318047638440106e+00,0.000000000000000000e+00,1.107318047638440106e+00
3.166666666666666519e-01,1.644608353428210735e+09,0.000000000000000000e+00,1.107318047638440106e+00,0.000000000000000000e+00,1.107318047638440106e+00
3.333333333333333148e-01,1.644608353443560839e+09,0.000000000000000000e+00,1.107318047638440106e+00,0.000000000000000000e+00,1.107318047638440106e+00
3.499999999999999778e-01,1.644608353459490061e+09,0.000000000000000000e+00,1.107318047638440106e+00,0.000000000000000000e+00,1.107318047638440106e+00
3.666666666666666408e-01,1.644608353476468563e+09,0.000000000000000000e+00,1.107318047638440106e+00,0.000000000000000000e+00,1.107318047638440106e+00
3.833333333333333037e-01,1.644608353494809628e+09,0.000000000000000000e+00,1.107318047638440106e+00,0.000000000000000000e+00,1.107318047638440106e+00
4.000000000000000222e-01,1.644608353512958527e+09,0.000000000000000000e+00,1.107318047638440106e+00,0.000000000000000000e+00,1.107318047638440106e+00
4.166666666666666852e-01,1.644608353529913187e+09,0.000000000000000000e+00,8.057330857170139637e-01,0.000000000000000000e+00,8.057330857170139637e-01
4.333333333333333481e-01,1.644608353545509338e+09,0.000000000000000000e+00,7.031977030992307975e-01,0.000000000000000000e+00,7.031977030992307975e-01
4.500000000000000111e-01,1.644608353563487291e+09,0.000000000000000000e+00,7.386907201592332051e-01,0.000000000000000000e+00,7.386907201592332051e-01
4.666666666666666741e-01,1.644608353580782652e+09,0.000000000000000000e+00,5.885811258361672849e-01,0.000000000000000000e+00,5.885811258361672849e-01
4.833333333333333370e-01,1.644608353597795963e+09,0.000000000000000000e+00,6.361553375414501499e-01,0.000000000000000000e+00,6.361553375414501499e-01
5.000000000000000000e-01,1.644608353612087965e+09,0.000000000000000000e+00,5.651693034214470002e-01,0.000000000000000000e+00,5.651693034214470002e-01
5.166666666666666075e-01,1.644608353631532431e+09,0.000000000000000000e+00,4.429155779925531000e-01,0.000000000000000000e+00,4.429155779925531000e-01
5.333333333333333259e-01,1.644608353647515059e+09,0.000000000000000000e+00,5.572819662970023291e-01,0.000000000000000000e+00,5.572819662970023291e-01
5.500000000000000444e-01,1.644608353664490700e+09,0.000000000000000000e+00,4.899894117806071758e-01,0.000000000000000000e+00,4.899894117806071758e-01
5.666666666666666519e-01,1.644608353681423187e+09,0.000000000000000000e+00,5.055138970708840107e-01,0.000000000000000000e+00,5.055138970708840107e-01
5.833333333333333703e-01,1.644608353698916674e+09,0.000000000000000000e+00,4.889886559461546489e-01,0.000000000000000000e+00,4.889886559461546489e-01
5.999999999999999778e-01,1.644608353716854811e+09,0.000000000000000000e+00,4.682695573005905554e-01,0.000000000000000000e+00,4.682695573005905554e-01
6.166666666666666963e-01,1.644608353733782291e+09,0.000000000000000000e+00,5.217295944614130931e-01,0.000000000000000000e+00,5.217295944614130931e-01
6.333333333333333037e-01,1.644608353749759912e+09,0.000000000000000000e+00,4.103061188847328400e-01,0.000000000000000000e+00,4.103061188847328400e-01
6.500000000000000222e-01,1.644608353766978264e+09,0.000000000000000000e+00,7.707959202808816190e-01,0.000000000000000000e+00,7.707959202808816190e-01
6.666666666666666297e-01,1.644608353785354853e+09,0.000000000000000000e+00,7.387461938658766991e-01,0.000000000000000000e+00,7.387461938658766991e-01
6.833333333333333481e-01,1.644608353801455021e+09,0.000000000000000000e+00,7.387461938658766991e-01,0.000000000000000000e+00,7.387461938658766991e-01
6.999999999999999556e-01,1.644608353817722797e+09,0.000000000000000000e+00,7.227213306583742947e-01,0.000000000000000000e+00,7.227213306583742947e-01
7.166666666666666741e-01,1.644608353836114407e+09,0.000000000000000000e+00,7.066964674508705579e-01,0.000000000000000000e+00,7.066964674508705579e-01
7.333333333333332815e-01,1.644608353853063345e+09,0.000000000000000000e+00,6.906716042433681535e-01,0.000000000000000000e+00,6.906716042433681535e-01
7.500000000000000000e-01,1.644608353869184971e+09,0.000000000000000000e+00,7.066964674508705579e-01,0.000000000000000000e+00,7.066964674508705579e-01
7.666666666666666075e-01,1.644608353887314796e+09,0.000000000000000000e+00,4.090551740916666401e-01,0.000000000000000000e+00,4.090551740916666401e-01
7.833333333333333259e-01,1.644608353903203011e+09,0.000000000000000000e+00,7.066964674508705579e-01,0.000000000000000000e+00,7.066964674508705579e-01
8.000000000000000444e-01,1.644608353921424389e+09,0.000000000000000000e+00,3.811993051974965629e-01,0.000000000000000000e+00,3.811993051974965629e-01
8.166666666666666519e-01,1.644608353939004183e+09,0.000000000000000000e+00,6.746467410358656380e-01,0.000000000000000000e+00,6.746467410358656380e-01
8.333333333333333703e-01,1.644608353955272675e+09,0.000000000000000000e+00,6.425970146208608291e-01,0.000000000000000000e+00,6.425970146208608291e-01
8.499999999999999778e-01,1.644608353972390652e+09,0.000000000000000000e+00,6.105472882058546880e-01,0.000000000000000000e+00,6.105472882058546880e-01
8.666666666666666963e-01,1.644608353990384817e+09,0.000000000000000000e+00,5.945224249983522835e-01,0.000000000000000000e+00,5.945224249983522835e-01
8.833333333333333037e-01,1.644608354007435799e+09,0.000000000000000000e+00,5.784975617908497680e-01,0.000000000000000000e+00,5.784975617908497680e-01
9.000000000000000222e-01,1.644608354023675919e+09,0.000000000000000000e+00,5.624726985833461423e-01,0.000000000000000000e+00,5.624726985833461423e-01
9.166666666666666297e-01,1.644608354041198730e+09,0.000000000000000000e+00,5.464478353758437379e-01,0.000000000000000000e+00,5.464478353758437379e-01
9.333333333333333481e-01,1.644608354055538654e+09,0.000000000000000000e+00,5.304229721683412224e-01,0.000000000000000000e+00,5.304229721683412224e-01
9.499999999999999556e-01,1.644608354074611425e+09,0.000000000000000000e+00,5.143981089608388180e-01,0.000000000000000000e+00,5.143981089608388180e-01
9.666666666666666741e-01,1.644608354091579676e+09,0.000000000000000000e+00,4.823483825458327323e-01,0.000000000000000000e+00,4.823483825458327323e-01
9.833333333333332815e-01,1.644608354107516766e+09,0.000000000000000000e+00,4.342737929233241867e-01,0.000000000000000000e+00,4.342737929233241867e-01
1.000000000000000000e+00,1.644608354127461910e+09,0.000000000000000000e+00,3.701743400933131811e-01,0.000000000000000000e+00,3.701743400933131811e-01
1.016666666666666607e+00,1.644608354143529415e+09,0.000000000000000000e+00,3.381246136783082612e-01,0.000000000000000000e+00,3.381246136783082612e-01
1.033333333333333215e+00,1.644608354159124136e+09,0.000000000000000000e+00,3.220997504708058012e-01,0.000000000000000000e+00,3.220997504708058012e-01
1.050000000000000044e+00,1.644608354175438166e+09,0.000000000000000000e+00,3.060748872633021755e-01,0.000000000000000000e+00,3.060748872633021755e-01
1.066666666666666652e+00,1.644608354192393780e+09,0.000000000000000000e+00,3.060748872633021755e-01,0.000000000000000000e+00,3.060748872633021755e-01
1.083333333333333259e+00,1.644608354210344315e+09,0.000000000000000000e+00,2.900500240557997156e-01,0.000000000000000000e+00,2.900500240557997156e-01
1.100000000000000089e+00,1.644608354226590157e+09,0.000000000000000000e+00,2.740251608482972556e-01,0.000000000000000000e+00,2.740251608482972556e-01
1.116666666666666696e+00,1.644608354242566824e+09,0.000000000000000000e+00,2.740251608482972556e-01,0.000000000000000000e+00,2.740251608482972556e-01
1.133333333333333304e+00,1.644608354258521080e+09,0.000000000000000000e+00,2.419754344332911700e-01,0.000000000000000000e+00,2.419754344332911700e-01
1.149999999999999911e+00,1.644608354275829792e+09,0.000000000000000000e+00,2.419754344332911700e-01,0.000000000000000000e+00,2.419754344332911700e-01
1.166666666666666741e+00,1.644608354292761803e+09,0.000000000000000000e+00,2.259505712257887378e-01,0.000000000000000000e+00,2.259505712257887378e-01
1.183333333333333348e+00,1.644608354309718609e+09,0.000000000000000000e+00,2.099257080182862778e-01,0.000000000000000000e+00,2.099257080182862778e-01
1.199999999999999956e+00,1.644608354325542927e+09,0.000000000000000000e+00,1.939008448107838178e-01,0.000000000000000000e+00,1.939008448107838178e-01
1.216666666666666563e+00,1.644608354342976809e+09,0.000000000000000000e+00,1.778759816032801921e-01,0.000000000000000000e+00,1.778759816032801921e-01
1.233333333333333393e+00,1.644608354361953497e+09,0.000000000000000000e+00,1.778759816032801921e-01,0.000000000000000000e+00,1.778759816032801921e-01
1.250000000000000000e+00,1.644608354377882242e+09,0.000000000000000000e+00,1.458262551882752722e-01,0.000000000000000000e+00,1.458262551882752722e-01
1.266666666666666607e+00,1.644608354394845009e+09,0.000000000000000000e+00,1.458262551882752722e-01,0.000000000000000000e+00,1.458262551882752722e-01
1.283333333333333215e+00,1.644608354409907818e+09,0.000000000000000000e+00,1.298013919807728400e-01,0.000000000000000000e+00,1.298013919807728400e-01
1.300000000000000044e+00,1.644608354426313162e+09,0.000000000000000000e+00,1.137765287732703939e-01,0.000000000000000000e+00,1.137765287732703939e-01
1.316666666666666652e+00,1.644608354443897247e+09,0.000000000000000000e+00,1.137765287732703939e-01,0.000000000000000000e+00,1.137765287732703939e-01
1.333333333333333259e+00,1.644608354462432146e+09,0.000000000000000000e+00,1.298013919807728400e-01,0.000000000000000000e+00,1.298013919807728400e-01
1.350000000000000089e+00,1.644608354479080915e+09,0.000000000000000000e+00,1.137765287732703939e-01,0.000000000000000000e+00,1.137765287732703939e-01
1.366666666666666696e+00,1.644608354496858358e+09,0.000000000000000000e+00,1.298013919807728400e-01,0.000000000000000000e+00,1.298013919807728400e-01
1.383333333333333304e+00,1.644608354512953758e+09,0.000000000000000000e+00,1.137765287732703939e-01,0.000000000000000000e+00,1.137765287732703939e-01
1.399999999999999911e+00,1.644608354529280424e+09,0.000000000000000000e+00,1.137765287732703939e-01,0.000000000000000000e+00,1.137765287732703939e-01
1.416666666666666741e+00,1.644608354548364162e+09,0.000000000000000000e+00,1.137765287732703939e-01,0.000000000000000000e+00,1.137765287732703939e-01
1.433333333333333348e+00,1.644608354567521572e+09,0.000000000000000000e+00,1.137765287732703939e-01,0.000000000000000000e+00,1.137765287732703939e-01
1.449999999999999956e+00,1.644608354582479715e+09,0.000000000000000000e+00,1.137765287732703939e-01,0.000000000000000000e+00,1.137765287732703939e-01
1.466666666666666563e+00,1.644608354598437071e+09,0.000000000000000000e+00,1.137765287732703939e-01,0.000000000000000000e+00,1.137765287732703939e-01
1.483333333333333393e+00,1.644608354616369486e+09,0.000000000000000000e+00,9.775166556576674048e-02,0.000000000000000000e+00,9.775166556576674048e-02
1.500000000000000000e+00,1.644608354633437395e+09,0.000000000000000000e+00,9.775166556576674048e-02,0.000000000000000000e+00,9.775166556576674048e-02
1.516666666666666607e+00,1.644608354650712729e+09,0.000000000000000000e+00,8.172680235826429440e-02,0.000000000000000000e+00,8.172680235826429440e-02
1.533333333333333215e+00,1.644608354668668270e+09,0.000000000000000000e+00,4.967707594325939530e-02,0.000000000000000000e+00,4.967707594325939530e-02
1.550000000000000044e+00,1.644608354685228109e+09,0.000000000000000000e+00,4.967707594325939530e-02,0.000000000000000000e+00,4.967707594325939530e-02
1.566666666666666652e+00,1.644608354701584101e+09,0.000000000000000000e+00,6.570193915076183444e-02,0.000000000000000000e+00,6.570193915076183444e-02
1.583333333333333259e+00,1.644608354717541695e+09,0.000000000000000000e+00,4.967707594325939530e-02,0.000000000000000000e+00,4.967707594325939530e-02
1.600000000000000089e+00,1.644608354733826876e+09,0.000000000000000000e+00,4.967707594325939530e-02,0.000000000000000000e+00,4.967707594325939530e-02
1.616666666666666696e+00,1.644608354753286600e+09,0.000000000000000000e+00,3.365221273575574185e-02,0.000000000000000000e+00,3.365221273575574185e-02
1.633333333333333304e+00,1.644608354769219875e+09,0.000000000000000000e+00,4.967707594325939530e-02,0.000000000000000000e+00,4.967707594325939530e-02
1.649999999999999911e+00,1.644608354786559343e+09,0.000000000000000000e+00,3.365221273575574185e-02,0.000000000000000000e+00,3.365221273575574185e-02
1.666666666666666741e+00,1.644608354803208113e+09,0.000000000000000000e+00,4.967707594325939530e-02,0.000000000000000000e+00,4.967707594325939530e-02
1.683333333333333348e+00,1.644608354819312572e+09,0.000000000000000000e+00,4.967707594325939530e-02,0.000000000000000000e+00,4.967707594325939530e-02
1.699999999999999956e+00,1.644608354837723732e+09,0.000000000000000000e+00,3.365221273575574185e-02,0.000000000000000000e+00,3.365221273575574185e-02
1.716666666666666563e+00,1.644608354854713202e+09,0.000000000000000000e+00,1.762734952825329576e-02,0.000000000000000000e+00,1.762734952825329576e-02
1.733333333333333393e+00,1.644608354872999668e+09,0.000000000000000000e+00,1.762734952825329576e-02,0.000000000000000000e+00,1.762734952825329576e-02
1.750000000000000000e+00,1.644608354889924288e+09,0.000000000000000000e+00,1.762734952825329576e-02,0.000000000000000000e+00,1.762734952825329576e-02
1.766666666666666607e+00,1.644608354905927896e+09,0.000000000000000000e+00,1.762734952825329576e-02,0.000000000000000000e+00,1.762734952825329576e-02
1.783333333333333215e+00,1.644608354923271179e+09,0.000000000000000000e+00,1.762734952825329576e-02,0.000000000000000000e+00,1.762734952825329576e-02
1.800000000000000044e+00,1.644608354938643694e+09,0.000000000000000000e+00,1.762734952825329576e-02,0.000000000000000000e+00,1.762734952825329576e-02
1.816666666666666652e+00,1.644608354954965115e+09,0.000000000000000000e+00,1.762734952825329576e-02,0.000000000000000000e+00,1.762734952825329576e-02
1.833333333333333259e+00,1.644608354972970963e+09,0.000000000000000000e+00,1.762734952825329576e-02,0.000000000000000000e+00,1.762734952825329576e-02
1.849999999999999867e+00,1.644608354989301682e+09,0.000000000000000000e+00,1.762734952825329576e-02,0.000000000000000000e+00,1.762734952825329576e-02
1.866666666666666696e+00,1.644608355007651806e+09,0.000000000000000000e+00,1.762734952825329576e-02,0.000000000000000000e+00,1.762734952825329576e-02
1.883333333333333304e+00,1.644608355022608995e+09,0.000000000000000000e+00,1.762734952825329576e-02,0.000000000000000000e+00,1.762734952825329576e-02
1.899999999999999911e+00,1.644608355042203426e+09,0.000000000000000000e+00,1.762734952825329576e-02,0.000000000000000000e+00,1.762734952825329576e-02
1.916666666666666741e+00,1.644608355059150457e+09,0.000000000000000000e+00,1.762734952825329576e-02,0.000000000000000000e+00,1.762734952825329576e-02
1.933333333333333348e+00,1.644608355076108217e+09,0.000000000000000000e+00,1.602486320750845994e-03,0.000000000000000000e+00,1.602486320750845994e-03
1.949999999999999956e+00,1.644608355093037128e+09,0.000000000000000000e+00,1.602486320750845994e-03,0.000000000000000000e+00,1.602486320750845994e-03
1.966666666666666563e+00,1.644608355110988617e+09,0.000000000000000000e+00,1.762734952825329576e-02,0.000000000000000000e+00,1.762734952825329576e-02
1.983333333333333393e+00,1.644608355126968145e+09,0.000000000000000000e+00,1.762734952825329576e-02,0.000000000000000000e+00,1.762734952825329576e-02
