# 
# 
# 
# 
# 
# 
# 
# 
# 
# 
# time,realtime,ref,inp,inp0,inp1,dis,state...
0.000000000000000000e+00,1.644456134716286659e+09,-0.000000000000000000e+00,7.451561391488908948e-02,0.000000000000000000e+00,9.935415188651879059e-02,-0.000000000000000000e+00,0.000000000000000000e+00,0.000000000000000000e+00
1.666666666666666644e-02,1.644456134719319582e+09,-2.775066791840610147e-06,2.403729481126268882e-03,0.000000000000000000e+00,3.204972641501691987e-03,0.000000000000000000e+00,3.320043153249280762e-07,3.973015370344621847e-05
3.333333333333333287e-02,1.644456134720310688e+09,-1.102979831570291005e-05,7.451561391488908948e-02,0.000000000000000000e+00,9.935415188651879059e-02,-2.206953967052913926e-05,1.127777151429990265e-05,1.270343459424780504e-03
5.000000000000000278e-02,1.644456134738260508e+09,-2.465770011267145130e-05,7.451561391488908948e-02,0.000000000000000000e+00,9.935415188651879059e-02,-9.410389500094621545e-05,4.255383813036898527e-05,2.479425893140180248e-03
6.666666666666666574e-02,1.644456134754221916e+09,-4.354858521338314151e-05,7.451561391488908948e-02,0.000000000000000000e+00,9.935415188651879059e-02,-2.241069114426098472e-04,9.379632349115397017e-05,3.666375191170169901e-03
8.333333333333332871e-02,1.644456134772197008e+09,-6.758497937871917798e-05,7.451561391488908948e-02,0.000000000000000000e+00,9.935415188651879059e-02,-4.189368712703131275e-04,1.646304451118754458e-04,4.830485686943095103e-03
1.000000000000000056e-01,1.644456134788127184e+09,-9.663828845901796213e-05,7.451561391488908948e-02,0.000000000000000000e+00,9.935415188651879059e-02,-6.841128928631049150e-04,2.546689945618609767e-04,5.970972154526875408e-03
1.166666666666666685e-01,1.644456134805083990e+09,-1.305648725077065248e-04,7.451561391488908948e-02,0.000000000000000000e+00,9.935415188651879059e-02,-1.023640574077647105e-03,3.635112315121930525e-04,7.086996139923400911e-03
1.333333333333333315e-01,1.644456134823033571e+09,-1.692021748001812170e-04,7.451561391488908948e-02,0.000000000000000000e+00,9.935415188651879059e-02,-1.439859857052283457e-03,4.907422340143612321e-04,8.177694371718512850e-03
1.499999999999999944e-01,1.644456134838990450e+09,-2.123650544980587118e-04,7.451561391488908948e-02,0.000000000000000000e+00,9.935415188651879059e-02,-1.933317807446571779e-03,6.359327359374489707e-04,9.242208804919466170e-03
1.666666666666666574e-01,1.644456134856942892e+09,-2.598424693387369660e-04,7.451561391488908948e-02,0.000000000000000000e+00,9.935415188651879059e-02,-2.502668679339375979e-03,7.986394747893613318e-04,1.027971781999338294e-02
1.833333333333333204e-01,1.644456134873897791e+09,-3.113946494440260034e-04,7.451561391488908948e-02,0.000000000000000000e+00,9.935415188651879059e-02,-3.144603281600389429e-03,9.784060649687519734e-04,1.128946807370213683e-02
2.000000000000000111e-01,1.644456134890852928e+09,-3.667508951999933950e-04,7.451561391488908948e-02,0.000000000000000000e+00,9.935415188651879059e-02,-3.853809276753450159e-03,1.174764402948486009e-03,1.227080647969133048e-02
2.166666666666666741e-01,1.644456134907812119e+09,-4.256081212798666917e-04,7.451561391488908948e-02,0.000000000000000000e+00,9.935415188651879059e-02,-4.622963633772314909e-03,1.387236602094167950e-03,1.322321178523092750e-02
2.333333333333333370e-01,1.644456134924763441e+09,-4.876302554243204935e-04,7.451561391488908948e-02,0.000000000000000000e+00,9.935415188651879059e-02,-5.442758026815340544e-03,1.615337445892198274e-03,1.414632520623412652e-02
2.500000000000000000e-01,1.644456134941717386e+09,-5.524485847625858811e-04,7.451561391488908948e-02,0.000000000000000000e+00,9.935415188651879059e-02,-6.301957527800925753e-03,1.858577339423507458e-03,1.503997958582095271e-02
2.666666666666666630e-01,1.644456134957674503e+09,-6.196631244971581402e-04,7.451561391488908948e-02,0.000000000000000000e+00,9.935415188651879059e-02,-7.187492487340453769e-03,2.116465730095312865e-03,1.590422655227495888e-02
2.833333333333333259e-01,1.644456134975628138e+09,-6.888450639642092503e-04,7.451561391488908948e-02,0.000000000000000000e+00,9.935415188651879059e-02,-8.084583041411646034e-03,2.388514960057493142e-03,1.673936117020407080e-02
2.999999999999999889e-01,1.644456134992580891e+09,-7.595403237332122841e-04,7.451561391488908948e-02,0.000000000000000000e+00,9.935415188651879059e-02,-8.976895225884335902e-03,2.674244504504198067e-03,1.754594360390744623e-02
3.166666666666666519e-01,1.644456135008562326e+09,-8.312742348628023937e-04,7.451561391488908948e-02,0.000000000000000000e+00,9.935415188651879059e-02,-9.846727233229598392e-03,2.973185542313545784e-03,1.832481734412575586e-02
3.333333333333333148e-01,1.644456135026491404e+09,-9.035573280484666828e-04,7.451561391488908948e-02,0.000000000000000000e+00,9.935415188651879059e-02,-1.067522391103068943e-02,3.284885798322363486e-03,1.907712358818124468e-02
3.499999999999999778e-01,1.644456135042448759e+09,-9.758921965621116532e-04,7.451561391488908948e-02,0.000000000000000000e+00,9.935415188651879059e-02,-1.144261718573518112e-02,3.608914590076288571e-03,1.980431140857988326e-02
3.666666666666666408e-01,1.644456135060400963e+09,-1.047781372987092183e-03,7.451561391488908948e-02,0.000000000000000000e+00,9.935415188651879059e-02,-1.212848970273189622e-02,3.944868006237980430e-03,2.050814339595414398e-02
3.833333333333333037e-01,1.644456135076359510e+09,-1.118736136194422226e-03,7.451561391488908948e-02,0.000000000000000000e+00,9.935415188651879059e-02,-1.271205861035543810e-02,4.292374139068583748e-03,2.119069651819910360e-02
4.000000000000000222e-01,1.644456135093318462e+09,-1.188286142187209692e-03,7.451561391488908948e-02,0.000000000000000000e+00,9.935415188651879059e-02,-1.317247608556980538e-02,4.651098289600705607e-03,2.185435799815563587e-02
4.166666666666666852e-01,1.644456135111270666e+09,-1.255989750755865135e-03,9.855290872614276554e-02,0.000000000000000000e+00,1.314038783015236689e-01,-1.348914290726376669e-02,5.024068104517838418e-03,2.289911761355315281e-02
4.333333333333333481e-01,1.644456135128199816e+09,-1.321444899720450230e-03,7.451561391488908948e-02,0.000000000000000000e+00,9.935415188651879059e-02,-1.364203113329895412e-02,5.410965116820897793e-03,2.352678031427659494e-02
4.500000000000000111e-01,1.644456135146169901e+09,-1.384300360255700689e-03,7.451561391488908948e-02,0.000000000000000000e+00,9.935415188651879059e-02,-1.361201173323067087e-02,5.808240627345121268e-03,2.414456484011334378e-02
4.666666666666666741e-01,1.644456135162127733e+09,-1.444267190743270301e-03,7.451561391488908948e-02,0.000000000000000000e+00,9.935415188651879059e-02,-1.338118287301418019e-02,6.215759100123675364e-03,2.475595355136603684e-02
4.833333333333333370e-01,1.644456135178084373e+09,-1.501130193091192817e-03,7.451561391488908948e-02,0.000000000000000000e+00,9.935415188651879059e-02,-1.293319444352332079e-02,6.633444815827992461e-03,2.536464149351781716e-02
5.000000000000000000e-01,1.644456135196037531e+09,-1.554759164786111147e-03,7.451561391488908948e-02,0.000000000000000000e+00,9.935415188651879059e-02,-1.225356437328242384e-02,7.061285129130301548e-03,2.597450200590895042e-02
5.166666666666666075e-01,1.644456135211997986e+09,-1.605119732345322309e-03,7.451561391488908948e-02,0.000000000000000000e+00,9.935415188651879059e-02,-1.132998226878763337e-02,7.499333115688636142e-03,2.658954788011897233e-02
5.333333333333333259e-01,1.644456135229946852e+09,-1.652283547517746903e-03,9.855290872614276554e-02,0.000000000000000000e+00,1.314038783015236689e-01,-1.015259598389558864e-02,7.951029580708500466e-03,2.761118996080322643e-02
5.500000000000000444e-01,1.644456135246905565e+09,-1.696437626704120098e-03,9.855290872614276554e-02,0.000000000000000000e+00,1.314038783015236689e-01,-8.714276833080399770e-03,8.419810965384605383e-03,2.863971910767815904e-02
5.666666666666666519e-01,1.644456135262859821e+09,-1.737892616738030216e-03,7.451561391488908948e-02,0.000000000000000000e+00,9.935415188651879059e-02,-7.010859331360999765e-03,8.902507675271698409e-03,2.928210164084986758e-02
5.833333333333333703e-01,1.644456135280809164e+09,-1.777089776450523810e-03,9.855290872614276554e-02,0.000000000000000000e+00,1.314038783015236689e-01,-5.041351565199092728e-03,9.399414107064279350e-03,3.034372116173968126e-02
5.999999999999999778e-01,1.644456135296770096e+09,-1.814606473339355850e-03,9.855290872614276554e-02,0.000000000000000000e+00,1.314038783015236689e-01,-2.808112571853206042e-03,9.914176022204497160e-03,3.142470584917095300e-02
6.166666666666666963e-01,1.644456135313724041e+09,-1.851160008133711284e-03,7.451561391488908948e-02,0.000000000000000000e+00,9.935415188651879059e-02,-3.169934271174617386e-04,1.044382907412351458e-02,3.213169647204813101e-02
6.333333333333333037e-01,1.644456135331674814e+09,-1.887609596986521360e-03,9.855290872614276554e-02,0.000000000000000000e+00,1.314038783015236689e-01,2.422560889949788160e-03,1.098886608495536557e-02,3.326958395481782044e-02
6.500000000000000222e-01,1.644456135349624634e+09,-1.924956361286600266e-03,7.451561391488908948e-02,0.000000000000000000e+00,9.935415188651879059e-02,5.397451375381627850e-03,1.154980157178480196e-02,3.404053288949289435e-02
6.666666666666666297e-01,1.644456135366581440e+09,-1.964341198456624488e-03,7.451561391488908948e-02,0.000000000000000000e+00,9.935415188651879059e-02,8.590908691985178758e-03,1.212392080559196450e-02,3.485152236580030261e-02
6.833333333333333481e-01,1.644456135382539988e+09,-2.007040433335713532e-03,7.451561391488908948e-02,0.000000000000000000e+00,9.935415188651879059e-02,1.198252226086451988e-02,1.271191296775823869e-02,3.570516580656325767e-02
6.999999999999999556e-01,1.644456135399493217e+09,-2.054459178534273536e-03,7.451561391488908948e-02,0.000000000000000000e+00,9.935415188651879059e-02,1.554831582675072522e-02,1.331450712413246272e-02,3.660363714588302925e-02
7.166666666666666741e-01,1.644456135417446136e+09,-2.108122363147907612e-03,7.451561391488908948e-02,0.000000000000000000e+00,9.935415188651879059e-02,1.926087003519805912e-02,1.393246448535871360e-02,3.754862118382489705e-02
7.333333333333332815e-01,1.644456135433367968e+09,-2.169663422039451190e-03,9.855290872614276554e-02,0.000000000000000000e+00,1.314038783015236689e-01,2.308949200625955503e-02,1.456988991321408501e-02,3.893856910150956391e-02
7.500000000000000000e-01,1.644456135451354980e+09,-2.240810672122219623e-03,7.451561391488908948e-02,0.000000000000000000e+00,9.935415188651879059e-02,2.700043132434727308e-02,1.522750929713441101e-02,3.997288380490984089e-02
7.666666666666666075e-01,1.644456135468308687e+09,-2.323371437250668688e-03,9.855290872614276554e-02,0.000000000000000000e+00,1.314038783015236689e-01,3.095714129393443981e-02,1.590609094529034720e-02,4.145280299042185951e-02
7.833333333333333259e-01,1.644456135484266281e+09,-2.419214018970387587e-03,9.855290872614276554e-02,0.000000000000000000e+00,1.314038783015236689e-01,3.492058374201655047e-02,1.660968093867705095e-02,4.297377120483781426e-02
8.000000000000000444e-01,1.644456135501220465e+09,-2.530247646002247146e-03,7.451561391488908948e-02,0.000000000000000000e+00,9.935415188651879059e-02,3.884957508736318343e-02,1.733563295650715139e-02,4.413723900371192138e-02
8.166666666666666519e-01,1.644456135518175364e+09,-2.658400570428119235e-03,9.855290872614276554e-02,0.000000000000000000e+00,1.314038783015236689e-01,4.270117085010933372e-02,1.808466743304740221e-02,4.574243918677587534e-02
8.333333333333333703e-01,1.644456135535132408e+09,-2.805596512595356831e-03,7.451561391488908948e-02,0.000000000000000000e+00,9.935415188651879059e-02,4.643108524964364298e-02,1.885742866940655349e-02,4.698545626982560119e-02
8.499999999999999778e-01,1.644456135552083731e+09,-2.973729689252517516e-03,7.451561391488908948e-02,0.000000000000000000e+00,9.935415188651879059e-02,4.999414204040918824e-02,1.965122730219193148e-02,4.826682023629519369e-02
8.666666666666666963e-01,1.644456135569040298e+09,-3.164638689867453961e-03,7.451561391488908948e-02,0.000000000000000000e+00,9.935415188651879059e-02,5.334475227028782907e-02,2.046666780641153219e-02,4.958238583516187681e-02
8.833333333333333037e-01,1.644456135585995436e+09,-3.380079493972990359e-03,9.855290872614276554e-02,0.000000000000000000e+00,1.314038783015236689e-01,5.643741422057667323e-02,2.130759990053360253e-02,5.132462579015179688e-02
9.000000000000000222e-01,1.644456135605907202e+09,-3.621697947270645281e-03,9.855290872614276554e-02,0.000000000000000000e+00,1.314038783015236689e-01,5.922723040570912478e-02,2.217771401899045619e-02,5.308418065722581014e-02
9.166666666666666297e-01,1.644456135621894121e+09,-3.891002035663203903e-03,7.451561391488908948e-02,0.000000000000000000e+00,9.935415188651879059e-02,6.167043617996430249e-02,2.307392843494971563e-02,5.445773374284743756e-02
9.333333333333333481e-01,1.644456135639816284e+09,-4.189334313982327404e-03,9.855290872614276554e-02,0.000000000000000000e+00,1.314038783015236689e-01,6.372493422209542235e-02,2.399644949794641630e-02,5.623984339565470808e-02
9.499999999999999556e-01,1.644456135655816078e+09,-4.517844859569566593e-03,9.855290872614276554e-02,0.000000000000000000e+00,1.314038783015236689e-01,6.535082895123695002e-02,2.494865081200670076e-02,5.801937104288408531e-02
9.666666666666666741e-01,1.644456135672729015e+09,-4.877465129746866995e-03,7.451561391488908948e-02,0.000000000000000000e+00,9.935415188651879059e-02,6.651095477216839580e-02,2.592710532494491710e-02,5.939135934139682521e-02
9.833333333333332815e-01,1.644456135689683676e+09,-5.268883106317183602e-03,7.451561391488908948e-02,0.000000000000000000e+00,9.935415188651879059e-02,6.717139195796177631e-02,2.692832802973027864e-02,6.075158673449231050e-02
1.000000000000000000e+00,1.644456135709630251e+09,-5.692520109366613380e-03,9.855290872614276554e-02,0.000000000000000000e+00,1.314038783015236689e-01,6.730196395548598831e-02,2.795537139360368059e-02,6.248879124864605006e-02
1.016666666666666607e+00,1.644456135725622654e+09,-6.148509656654247389e-03,7.451561391488908948e-02,0.000000000000000000e+00,9.935415188651879059e-02,6.687670994575153904e-02,2.900774944304274072e-02,6.379295193021766730e-02
1.033333333333333215e+00,1.644456135740585089e+09,-6.636678733700478866e-03,7.451561391488908948e-02,0.000000000000000000e+00,9.935415188651879059e-02,6.587432660750719426e-02,3.008154492283041104e-02,6.505898879246993505e-02
1.050000000000000044e+00,1.644456135758532286e+09,-7.156531823306951090e-03,9.855290872614276554e-02,0.000000000000000000e+00,1.314038783015236689e-01,6.427857321893279408e-02,3.117936578824480678e-02,6.667502595947347177e-02
1.066666666666666652e+00,1.644456135775454283e+09,-7.707238021721001670e-03,9.855290872614276554e-02,0.000000000000000000e+00,1.314038783015236689e-01,6.207863448806283380e-02,3.230359354194752008e-02,6.822799059267418975e-02
1.083333333333333259e+00,1.644456135794403076e+09,-8.287621542121228341e-03,9.855290872614276554e-02,0.000000000000000000e+00,1.314038783015236689e-01,5.926943582629633223e-02,3.345310153536601439e-02,6.970885500846300820e-02
1.100000000000000089e+00,1.644456135811358452e+09,-8.896155874743334399e-03,9.855290872614276554e-02,0.000000000000000000e+00,1.314038783015236689e-01,5.585190616881790387e-02,3.462661403374742847e-02,7.110875609166426858e-02
1.116666666666666696e+00,1.644456135828347206e+09,-9.530961837051602631e-03,9.855290872614276554e-02,0.000000000000000000e+00,1.314038783015236689e-01,5.183318389805906257e-02,3.582270979388747778e-02,7.241909520859424187e-02
1.133333333333333304e+00,1.644456135843272448e+09,-1.018980970721857816e-02,9.855290872614276554e-02,0.000000000000000000e+00,1.314038783015236689e-01,4.722676193779771353e-02,3.703982731331741801e-02,7.363163886689663706e-02
1.149999999999999911e+00,1.644456135859230518e+09,-1.087012559019621266e-02,7.451561391488908948e-02,0.000000000000000000e+00,9.935415188651879059e-02,4.205256865178843423e-02,3.827295171127227669e-02,7.434131751171974001e-02
1.166666666666666741e+00,1.644456135876184464e+09,-1.156900211829725578e-02,9.855290872614276554e-02,0.000000000000000000e+00,1.314038783015236689e-01,3.633698179691077085e-02,3.952033666891725805e-02,7.534209739612565682e-02
1.183333333333333348e+00,1.644456135895163536e+09,-1.228321353796124789e-02,9.855290872614276554e-02,0.000000000000000000e+00,1.314038783015236689e-01,3.011277344107996315e-02,4.078340337232153751e-02,7.622345872884175866e-02
1.199999999999999956e+00,1.644456135910146713e+09,-1.300923518181063172e-02,7.451561391488908948e-02,0.000000000000000000e+00,9.935415188651879059e-02,2.341898445437431975e-02,4.205679310457593328e-02,7.658231230274174794e-02
1.216666666666666563e+00,1.644456135927101612e+09,-1.374326727080802182e-02,9.855290872614276554e-02,0.000000000000000000e+00,1.314038783015236689e-01,1.630072791126111267e-02,4.333845103070168431e-02,7.721488165390605340e-02
1.233333333333333393e+00,1.644456135946032524e+09,-1.448126293594162624e-02,7.451561391488908948e-02,0.000000000000000000e+00,9.935415188651879059e-02,8.808921495277287003e-03,4.462620959335880655e-02,7.731586534808503053e-02
1.250000000000000000e+00,1.644456135961990118e+09,-1.521896029305660515e-02,7.451561391488908948e-02,0.000000000000000000e+00,9.935415188651879059e-02,9.999497674626689134e-04,4.591455869059585249e-02,7.728610897888718578e-02
1.266666666666666607e+00,1.644456135977912426e+09,-1.595191834890418228e-02,9.855290872614276554e-02,0.000000000000000000e+00,1.314038783015236689e-01,-7.064742061618820013e-03,4.720462210220459365e-02,7.752084834502050159e-02
1.283333333333333215e+00,1.644456135995864868e+09,-1.667555646189766705e-02,5.047831910363361624e-02,0.000000000000000000e+00,6.730442547151148369e-02,-1.531912043742033810e-02,4.849078522909738842e-02,7.682067186256459623e-02
1.300000000000000044e+00,1.644456136012858391e+09,-1.738519702815128840e-02,5.047831910363361624e-02,0.000000000000000000e+00,6.730442547151148369e-02,-2.369309865444102492e-02,4.976421883862466866e-02,7.599365859385719124e-02
1.316666666666666652e+00,1.644456136030804873e+09,-1.807611101283846528e-02,2.403729481126268882e-03,0.000000000000000000e+00,3.204972641501691987e-03,-3.211313099158139006e-02,5.101618005578456572e-02,7.424654068485637970e-02
1.333333333333333259e+00,1.644456136046765566e+09,-1.874356589942741819e-02,2.644102429237994017e-02,0.000000000000000000e+00,3.525469905650659153e-02,-4.050286111402932182e-02,5.224142520336763629e-02,7.278693159024582360e-02
1.350000000000000089e+00,1.644456136064680815e+09,-1.938287558560824672e-02,2.403729481126268882e-03,0.000000000000000000e+00,3.204972641501691987e-03,-4.878381936793578511e-02,5.343808132140440842e-02,7.081727397409555425e-02
1.366666666666666696e+00,1.644456136080670595e+09,-1.998945171535092269e-02,2.403729481126268882e-03,0.000000000000000000e+00,3.204972641501691987e-03,-5.687616293690881536e-02,5.460106414406649955e-02,6.874641726050376156e-02
1.383333333333333304e+00,1.644456136096628189e+09,-2.055885590213318848e-02,2.403729481126268882e-03,0.000000000000000000e+00,3.204972641501691987e-03,-6.469945222061088130e-02,5.572873815931184138e-02,6.658048119960033318e-02
1.399999999999999911e+00,1.644456136113584042e+09,-2.108685226950226047e-02,-2.163356533012830360e-02,0.000000000000000000e+00,-2.884475377350440711e-02,-7.217345624288531991e-02,5.681626004406015173e-02,6.392950895530179201e-02
1.416666666666666741e+00,1.644456136131534815e+09,-2.156945971228598630e-02,-2.163356533012830360e-02,0.000000000000000000e+00,-2.884475377350440711e-02,-7.921897940682212647e-02,5.785899208050437892e-02,6.120590117324172658e-02
1.433333333333333348e+00,1.644456136148491859e+09,-2.200300326538470741e-02,-4.567086014138197619e-02,0.000000000000000000e+00,-6.089448018850930622e-02,-8.575870149345442284e-02,5.885248352714914089e-02,5.802191703268302220e-02
1.449999999999999956e+00,1.644456136167440653e+09,-2.238416395752416618e-02,-4.567086014138197619e-02,0.000000000000000000e+00,-6.089448018850930622e-02,-9.171802245518292929e-02,5.979252524054470830e-02,5.479206060934471018e-02
1.466666666666666563e+00,1.644456136182402372e+09,-2.271002652492693993e-02,-6.970815495263654737e-02,0.000000000000000000e+00,-9.294420660351540575e-02,-9.702590328975606304e-02,6.067512895262949790e-02,5.113055592655337683e-02
1.483333333333333393e+00,1.644456136199354172e+09,-2.297812436478096146e-02,-6.970815495263654737e-02,0.000000000000000000e+00,-9.294420660351540575e-02,-1.016156941001235686e-01,6.149657937132464031e-02,4.745370802364556884e-02
1.500000000000000000e+00,1.644456136215312719e+09,-2.318648112077969364e-02,-6.970815495263654737e-02,0.000000000000000000e+00,-9.294420660351540575e-02,-1.054259403534030526e-01,6.225673056659127014e-02,4.377465523994494845e-02
1.516666666666666607e+00,1.644456136232232809e+09,-2.333364831292410874e-02,-9.374544976389022344e-02,0.000000000000000000e+00,-1.249939330185202979e-01,-1.084011583513749544e-01,6.295234138632144205e-02,3.970993428496036315e-02
1.533333333333333215e+00,1.644456136250217199e+09,-2.341873845116557856e-02,-1.418200393863984776e-01,0.000000000000000000e+00,-1.890933858485313035e-01,-1.104925710172923181e-01,6.357383932482088551e-02,3.488322617306607865e-02
1.550000000000000044e+00,1.644456136266175508e+09,-2.344145310719608979e-02,-1.658573341976530557e-01,0.000000000000000000e+00,-2.211431122635373892e-01,-1.116587952903860675e-01,6.411207767282313397e-02,2.971971900026318392e-02
1.566666666666666652e+00,1.644456136284127951e+09,-2.340210546052978041e-02,-2.139319238201612960e-01,0.000000000000000000e+00,-2.852425650935483947e-01,-1.118664727003461645e-01,6.455830198331849457e-02,2.384352141442603462e-02
1.583333333333333259e+00,1.644456136301080942e+09,-2.330163688365085445e-02,-1.898946290089067179e-01,0.000000000000000000e+00,-2.531928386785423091e-01,-1.110908350683878359e-01,6.491082846533584305e-02,1.847457053112044889e-02
1.600000000000000089e+00,1.644456136317037582e+09,-2.314162718601961780e-02,-1.898946290089067179e-01,0.000000000000000000e+00,-2.531928386785423091e-01,-1.093161977474286367e-01,6.517485910859864562e-02,1.322369277525205743e-02
1.616666666666666696e+00,1.644456136333997011e+09,-2.292429819764445209e-02,-1.898946290089067179e-01,0.000000000000000000e+00,-2.531928386785423091e-01,-1.065363733685759651e-01,6.535248432718290812e-02,8.105550850376414679e-03
1.633333333333333304e+00,1.644456136349954128e+09,-2.265251043916410162e-02,-2.379692186314149582e-01,0.000000000000000000e+00,-3.172922915085532591e-01,-1.027549997008384425e-01,6.543939629958034354e-02,2.339901905774762619e-03
1.649999999999999911e+00,1.644456136367925167e+09,-2.232975269630193410e-02,-2.620065134426695641e-01,0.000000000000000000e+00,-3.493420179235594003e-01,-9.798577595094613846e-02,6.542834916162099113e-02,-3.648922446159480644e-03
1.666666666666666741e+00,1.644456136384858847e+09,-2.196012439142830050e-02,-2.860438082539232263e-01,0.000000000000000000e+00,-3.813917443385642647e-01,-9.225260262490767027e-02,6.531578728947770585e-02,-9.841300755330045780e-03
1.683333333333333348e+00,1.644456136401842117e+09,-2.154831072302029749e-02,-2.860438082539232263e-01,0.000000000000000000e+00,-3.813917443385642647e-01,-8.558962093584063235e-02,6.510179470091899401e-02,-1.582119865326739316e-02
1.699999999999999956e+00,1.644456136418767452e+09,-2.109955062421072641e-02,-3.100811030651777767e-01,0.000000000000000000e+00,-4.134414707535703504e-01,-7.804114866655960381e-02,6.478668564947917541e-02,-2.197479379735652744e-02
1.716666666666666563e+00,1.644456136437719345e+09,-2.061959767348235315e-02,-3.100811030651777767e-01,0.000000000000000000e+00,-4.134414707535703504e-01,-6.966151037222020892e-02,6.437102401642538774e-02,-2.788817572159269995e-02
1.733333333333333393e+00,1.644456136453673601e+09,-2.011467417297924803e-02,-3.100811030651777767e-01,0.000000000000000000e+00,-4.134414707535703504e-01,-6.051476082940999285e-02,6.385888613084045318e-02,-3.355263556758423388e-02
1.750000000000000000e+00,1.644456136469631195e+09,-1.959141869193315941e-02,-3.341183978764314388e-01,0.000000000000000000e+00,-4.454911971685752703e-01,-5.067430169397606210e-02,6.325116208514863780e-02,-3.935812318139920996e-02
1.766666666666666607e+00,1.644456136487590075e+09,-1.905682745337463138e-02,-3.341183978764314388e-01,0.000000000000000000e+00,-4.454911971685752703e-01,-4.022239241087574579e-02,6.254892539233128379e-02,-4.489489966003697152e-02
1.783333333333333215e+00,1.644456136504539013e+09,-1.851819002066708297e-02,-3.341183978764314388e-01,0.000000000000000000e+00,-4.454911971685752703e-01,-2.924955751497740689e-02,6.175668940729750478e-02,-5.015879626486000747e-02
1.800000000000000044e+00,1.644456136521493673e+09,-1.798301981549930290e-02,-3.100811030651777767e-01,0.000000000000000000e+00,-4.134414707535703504e-01,-1.785389356148495144e-02,6.088234288215354367e-02,-5.475003301682709184e-02
1.816666666666666652e+00,1.644456136539447546e+09,-1.745898006987137152e-02,-3.341183978764314388e-01,0.000000000000000000e+00,-4.454911971685752703e-01,-6.140280017537954292e-03,5.993040773538207272e-02,-5.946907583495510824e-02
1.833333333333333259e+00,1.644456136556423426e+09,-1.695380588040078240e-02,-3.100811030651777767e-01,0.000000000000000000e+00,-4.134414707535703504e-01,5.780500478467196467e-03,5.890544021882732073e-02,-6.351578502817886718e-02
1.849999999999999867e+00,1.644456136572355747e+09,-1.647522309309052899e-02,-3.341183978764314388e-01,0.000000000000000000e+00,-4.454911971685752703e-01,1.779272603727974356e-02,5.781192557397982212e-02,-6.769436491398389544e-02
1.866666666666666696e+00,1.644456136589310408e+09,-1.603086479973080472e-02,-3.341183978764314388e-01,0.000000000000000000e+00,-4.454911971685752703e-01,2.977677616033552396e-02,5.665100032155708648e-02,-7.160580002349609119e-02
1.883333333333333304e+00,1.644456136606265545e+09,-1.562818627259500437e-02,-3.100811030651777767e-01,0.000000000000000000e+00,-4.134414707535703504e-01,4.161024068867811426e-02,5.543037922052329591e-02,-7.485969329540395623e-02
1.899999999999999911e+00,1.644456136623219013e+09,-1.527437920135556182e-02,-3.341183978764314388e-01,0.000000000000000000e+00,-4.454911971685752703e-01,5.316908775170856721e-02,5.415425246489064676e-02,-7.826605504185002449e-02
1.916666666666666741e+00,1.644456136641171455e+09,-1.497628612459786686e-02,-3.100811030651777767e-01,0.000000000000000000e+00,-4.134414707535703504e-01,6.432888058594833647e-02,5.282668494117592067e-02,-8.103435789278912171e-02
1.933333333333333348e+00,1.644456136657128096e+09,-1.474031596742839470e-02,-3.341183978764314388e-01,0.000000000000000000e+00,-4.454911971685752703e-01,7.496603235292652323e-02,5.145151056153972335e-02,-8.397838960521133989e-02
1.949999999999999956e+00,1.644456136674084902e+09,-1.457236160605612091e-02,-3.341183978764314388e-01,0.000000000000000000e+00,-4.454911971685752703e-01,8.495908743446498046e-02,5.002905586357971057e-02,-8.670859008128409262e-02
1.966666666666666563e+00,1.644456136691039801e+09,-1.447772037956122394e-02,-3.341183978764314388e-01,0.000000000000000000e+00,-4.454911971685752703e-01,9.419001713136351817e-02,4.856274990161956601e-02,-8.924109046507508469e-02
1.983333333333333393e+00,1.644456136709990025e+09,-1.446101845815474934e-02,-3.100811030651777767e-01,0.000000000000000000e+00,-4.134414707535703504e-01,1.025455172452941766e-01,4.705905949914436504e-02,-9.119632649293127336e-02
2.000000000000000000e+00,1.644456136729936123e+09,-1.452613995599506824e-02,-2.860438082539232263e-01,0.000000000000000000e+00,-3.813917443385642647e-01,1.099182946902995950e-01,4.552739026256675398e-02,-9.260008248241405338e-02
2.016666666666666607e+00,1.644456136743865013e+09,-1.467616164509295135e-02,-2.620065134426695641e-01,0.000000000000000000e+00,-3.493420179235594003e-01,1.162083300652738682e-01,4.397670780628658294e-02,-9.347936974909047680e-02
2.033333333333333215e+00,1.644456136760851860e+09,-1.491329408515494961e-02,-2.620065134426695641e-01,0.000000000000000000e+00,-3.493420179235594003e-01,1.213241030268710774e-01,4.241219860293856531e-02,-9.425956738600577145e-02
2.049999999999999822e+00,1.644456136776848793e+09,-1.523882993266377495e-02,-2.620065134426695641e-01,0.000000000000000000e+00,-3.493420179235594003e-01,1.251837673369402826e-01,4.083532696568923509e-02,-9.496307485051859454e-02
2.066666666666666430e+00,1.644456136794767380e+09,-1.565310013144902840e-02,-2.620065134426695641e-01,0.000000000000000000e+00,-3.493420179235594003e-01,1.277162626222132502e-01,3.924717716234583237e-02,-9.561309589418279242e-02
2.083333333333333481e+00,1.644456136811756134e+09,-1.615543861697873312e-02,-2.139319238201612960e-01,0.000000000000000000e+00,-2.852425650935483947e-01,1.288623501777467761e-01,3.765508184066378161e-02,-9.543882679987431006e-02
2.100000000000000089e+00,1.644456136828721523e+09,-1.674415608820681300e-02,-2.139319238201612960e-01,0.000000000000000000e+00,-2.852425650935483947e-01,1.285755605694732240e-01,3.606582732222881477e-02,-9.527217833561747728e-02
2.116666666666666696e+00,1.644456136845631599e+09,-1.741652331477152454e-02,-1.898946290089067179e-01,0.000000000000000000e+00,-2.531928386785423091e-01,1.268230413438272142e-01,3.448240524495244097e-02,-9.473994938609242578e-02
2.133333333333333304e+00,1.644456136862619400e+09,-1.816876435447557434e-02,-1.658573341976530557e-01,0.000000000000000000e+00,-2.211431122635373892e-01,1.235862938312062009e-01,3.291065312041183133e-02,-9.387271460099259890e-02
2.149999999999999911e+00,1.644456136878575802e+09,-1.899605995720383966e-02,-1.418200393863984776e-01,0.000000000000000000e+00,-1.890933858485313035e-01,1.188617888311344073e-01,3.135590261822022301e-02,-9.270060160805539129e-02
2.166666666666666519e+00,1.644456136895533085e+09,-1.989256132774734273e-02,-1.177827445751448016e-01,0.000000000000000000e+00,-1.570436594335263836e-01,1.126614518853250452e-01,2.982298908926664036e-02,-9.125304295726546777e-02
2.183333333333333126e+00,1.644456136912487030e+09,-2.085141431248070665e-02,-6.970815495263654737e-02,0.000000000000000000e+00,-9.294420660351540575e-02,1.050130098740655882e-01,2.831958527998263211e-02,-8.916122489929097228e-02
2.200000000000000178e+00,1.644456136930438519e+09,-2.186479396460556945e-02,-6.970815495263654737e-02,0.000000000000000000e+00,-9.294420660351540575e-02,9.596019180394922687e-02,2.684950580229533701e-02,-8.725361147408179641e-02
2.216666666666666785e+00,1.644456136949392557e+09,-2.292394933092796114e-02,-6.970815495263654737e-02,0.000000000000000000e+00,-9.294420660351540575e-02,8.556277788230698400e-02,2.540952030517786009e-02,-8.554938226146981128e-02
2.233333333333333393e+00,1.644456136965690613e+09,-2.401925819109162336e-02,-6.970815495263654737e-02,0.000000000000000000e+00,-9.294420660351540575e-02,7.389649228604563969e-02,2.399609188609367824e-02,-8.406614822016214572e-02
2.250000000000000000e+00,1.644456136981648445e+09,-2.514029136909530157e-02,-6.970815495263654737e-02,0.000000000000000000e+00,-9.294420660351540575e-02,6.105273641921653283e-02,2.260540518336975543e-02,-8.281971849299522848e-02
2.266666666666666607e+00,1.644456136999602079e+09,-2.627588612804671042e-02,-6.970815495263654737e-02,0.000000000000000000e+00,-9.294420660351540575e-02,4.713816090292590605e-02,2.123339826382281831e-02,-8.182387814094346790e-02
2.283333333333333215e+00,1.644456137015559196e+09,-2.741422805368931570e-02,-9.374544976389022344e-02,0.000000000000000000e+00,-1.249939330185202979e-01,3.227407604065674063e-02,1.987247805953924751e-02,-8.148748083204712667e-02
2.299999999999999822e+00,1.644456137033510923e+09,-2.854294073153364197e-02,-9.374544976389022344e-02,0.000000000000000000e+00,-1.249939330185202979e-01,1.659570203854403986e-02,1.851495250886623159e-02,-8.141578441012987943e-02
2.316666666666666430e+00,1.644456137050432920e+09,-2.964918242763198153e-02,-6.970815495263654737e-02,0.000000000000000000e+00,-9.294420660351540575e-02,2.512618198383564016e-04,1.715967453672776616e-02,-8.121812132353804781e-02
2.333333333333333481e+00,1.644456137067420006e+09,-3.071974889530962316e-02,-9.374544976389022344e-02,0.000000000000000000e+00,-1.249939330185202979e-01,-1.659907915858498118e-02,1.580201622738466177e-02,-8.169953849623619313e-02
2.350000000000000089e+00,1.644456137083344936e+09,-3.174118135061903406e-02,-6.970815495263654737e-02,0.000000000000000000e+00,-9.294420660351540575e-02,-3.378442011686573487e-02,1.443734718736179416e-02,-8.205974570737169238e-02
2.366666666666666696e+00,1.644456137100332975e+09,-3.269987858892808158e-02,-9.374544976389022344e-02,0.000000000000000000e+00,-1.249939330185202979e-01,-5.112447167676800047e-02,1.306100938609285056e-02,-8.309790659678038816e-02
2.383333333333333304e+00,1.644456137118283510e+09,-3.358221215483619265e-02,-6.970815495263654737e-02,0.000000000000000000e+00,-9.294420660351540575e-02,-6.843103308024285625e-02,1.166844194689054329e-02,-8.400765895812606354e-02
2.399999999999999911e+00,1.644456137135238886e+09,-3.437464342837426995e-02,-6.970815495263654737e-02,0.000000000000000000e+00,-9.294420660351540575e-02,-8.550958942550693220e-02,1.025847872505844874e-02,-8.518465814259636171e-02
2.416666666666666519e+00,1.644456137151196480e+09,-3.506384145291015220e-02,-6.970815495263654737e-02,0.000000000000000000e+00,-9.294420660351540575e-02,-1.021610170529894390e-01,8.826761514374005871e-03,-8.661742713200568100e-02
2.433333333333333126e+00,1.644456137169147491e+09,-3.563680030496622214e-02,-6.970815495263654737e-02,0.000000000000000000e+00,-9.294420660351540575e-02,-1.181833839018484045e-01,7.369149697996605144e-03,-8.829134096320302716e-02
2.450000000000000178e+00,1.644456137186102152e+09,-3.608095479374263254e-02,-4.567086014138197619e-02,0.000000000000000000e+00,-6.089448018850930622e-02,-1.333738304396588914e-01,5.885092450677364972e-03,-8.979136189223446696e-02
2.466666666666666785e+00,1.644456137202065706e+09,-3.638429327886508191e-02,-4.567086014138197619e-02,0.000000000000000000e+00,-6.089448018850930622e-02,-1.475305156566284193e-01,4.374286709754173635e-03,-9.150057908127812167e-02
2.483333333333333393e+00,1.644456137219053030e+09,-3.653546640895775910e-02,-4.567086014138197619e-02,0.000000000000000000e+00,-6.089448018850930622e-02,-1.604546116238810549e-01,2.833445011027507007e-03,-9.339516191197250183e-02
2.500000000000000000e+00,1.644456137238003016e+09,-3.652389061111703528e-02,-4.567086014138197619e-02,0.000000000000000000e+00,-6.089448018850930622e-02,-1.719523292548207349e-01,1.259700542018969737e-03,-9.544847059956734769e-02
2.516666666666666607e+00,1.644456137254957199e+09,-3.633984520215304687e-02,-2.163356533012830360e-02,0.000000000000000000e+00,-2.884475377350440711e-02,-1.818369571897850978e-01,-3.460273610182828131e-04,-9.723391807186199109e-02
2.533333333333333215e+00,1.644456137272909403e+09,-3.597456204631589022e-02,-2.163356533012830360e-02,0.000000000000000000e+00,-2.884475377350440711e-02,-1.899308951571572757e-01,-1.982384053782047621e-03,-9.912363572055298000e-02
2.549999999999999822e+00,1.644456137289896250e+09,-3.542030675074171742e-02,-2.163356533012830360e-02,0.000000000000000000e+00,-2.884475377350440711e-02,-1.960676627567785879e-01,-3.650822645349040881e-03,-1.010835509304344321e-01
2.566666666666666430e+00,1.644456137306818485e+09,-3.467045046848957895e-02,-2.163356533012830360e-02,0.000000000000000000e+00,-2.884475377350440711e-02,-2.000938643713069121e-01,-5.352211886923285630e-03,-1.030776188505507784e-01
2.583333333333333481e+00,1.644456137323773384e+09,-3.371953146910856847e-02,2.403729481126268882e-03,0.000000000000000000e+00,3.204972641501691987e-03,-2.018710908435867590e-01,-7.083485600430581598e-03,-1.046708011597511506e-01
2.600000000000000089e+00,1.644456137340728283e+09,-3.256330573733608180e-02,-2.163356533012830360e-02,0.000000000000000000e+00,-2.884475377350440711e-02,-2.012777386673415270e-01,-8.844330390343650705e-03,-1.066251447697959126e-01
2.616666666666666696e+00,1.644456137357682467e+09,-3.119878597083377766e-02,-2.163356533012830360e-02,0.000000000000000000e+00,-2.884475377350440711e-02,-1.982107277272257273e-01,-1.063705402176148666e-02,-1.084964926893339787e-01
2.633333333333333304e+00,1.644456137374637365e+09,-2.962426846671248337e-02,-2.163356533012830360e-02,0.000000000000000000e+00,-2.884475377350440711e-02,-1.925870990934941407e-01,-1.245993157527030930e-02,-1.102439595428855307e-01
2.649999999999999911e+00,1.644456137389939070e+09,-2.783934751279749931e-02,-2.163356533012830360e-02,0.000000000000000000e+00,-2.884475377350440711e-02,-1.843454750256042773e-01,-1.431055387811598634e-02,-1.118263212459687239e-01
2.666666666666666519e+00,1.644456137406926394e+09,-2.584491703183161224e-02,-2.163356533012830360e-02,0.000000000000000000e+00,-2.884475377350440711e-02,-1.734473641657560128e-01,-1.618582506691526243e-02,-1.132023988821008603e-01
2.683333333333333126e+00,1.644456137423881769e+09,-2.364315936371456234e-02,-2.163356533012830360e-02,0.000000000000000000e+00,-2.884475377350440711e-02,-1.598782959036369744e-01,-1.808196665197474295e-02,-1.143314549842708028e-01
2.700000000000000178e+00,1.644456137440835714e+09,-2.123752121097420217e-02,2.403729481126268882e-03,0.000000000000000000e+00,3.204972641501691987e-03,-1.436487690619931701e-01,-1.999120821944617640e-02,-1.147762974098138211e-01
2.716666666666666785e+00,1.644456137459784746e+09,-1.863267691442930044e-02,2.403729481126268882e-03,0.000000000000000000e+00,3.204972641501691987e-03,-1.247950013817042819e-01,-2.190519829368605884e-02,-1.149021618672502465e-01
2.733333333333333393e+00,1.644456137474746466e+09,-1.583447936787157548e-02,2.403729481126268882e-03,0.000000000000000000e+00,3.204972641501691987e-03,-1.033794677660145878e-01,-2.381831080023281630e-02,-1.146719783321182989e-01
2.750000000000000000e+00,1.644456137492699385e+09,-1.284989902098238393e-02,2.403729481126268882e-03,0.000000000000000000e+00,3.204972641501691987e-03,-7.949121686604766757e-02,-2.572431925045825032e-02,-1.140507613383082292e-01
2.766666666666666607e+00,1.644456137509651661e+09,-9.686951556987974041e-03,2.644102429237994017e-02,0.000000000000000000e+00,3.525469905650659153e-02,-5.324595734178355633e-02,-2.761311483542696829e-02,-1.126087146374962350e-01
2.783333333333333215e+00,1.644456137525607824e+09,-6.354614964181909409e-03,2.644102429237994017e-02,0.000000000000000000e+00,3.525469905650659153e-02,-2.478590700103745770e-02,-2.947414456857153434e-02,-1.107200996161626233e-01
2.799999999999999822e+00,1.644456137542563200e+09,-2.862736846826398340e-03,5.047831910363361624e-02,0.000000000000000000e+00,6.730442547151148369e-02,5.720600010951540186e-03,-3.129642462401937414e-02,-1.079611709088050264e-01
2.816666666666666430e+00,1.644456137559518814e+09,7.780670604333757680e-04,7.451561391488908948e-02,0.000000000000000000e+00,9.935415188651879059e-02,3.807975074272630656e-02,-3.306531409375566832e-02,-1.043156920281084754e-01
2.833333333333333481e+00,1.644456137577473879e+09,4.556522101076414082e-03,1.225902035373964277e-01,0.000000000000000000e+00,1.634536047165285888e-01,7.207313633497104688e-02,-3.476261382782279419e-02,-9.937400329616856431e-02
2.850000000000000089e+00,1.644456137593427658e+09,8.460810455725931850e-03,1.466274983486501038e-01,0.000000000000000000e+00,1.955033311315334810e-01,1.074588787560096376e-01,-3.637002709198475930e-02,-9.353181708026227226e-02
2.866666666666666696e+00,1.644456137611346245e+09,1.247869219228277607e-02,1.706647931599055701e-01,0.000000000000000000e+00,2.275530575465407879e-01,1.439729976354465202e-01,-3.787251412008447310e-02,-8.678536687224001900e-02
2.883333333333333304e+00,1.644456137627335072e+09,1.659763027377295780e-02,1.947020879711592600e-01,0.000000000000000000e+00,2.596027839615456800e-01,1.813310112343826663e-01,-3.925501218382072832e-02,-7.913565048841139649e-02
2.899999999999999911e+00,1.644456137645655155e+09,2.080491813058055542e-02,2.427766775936666122e-01,0.000000000000000000e+00,3.237022367915554644e-01,2.192297633743010843e-01,-4.049919687627465126e-02,-7.019135844649135314e-02
2.916666666666666519e+00,1.644456137662585258e+09,2.508780835871403034e-02,2.668139724049202743e-01,0.000000000000000000e+00,3.557519632065603843e-01,2.573494659565481180e-01,-4.158696026928180439e-02,-6.036753774745973189e-02
2.933333333333333126e+00,1.644456137680536985e+09,2.943364107641289334e-02,2.908512672161757684e-01,0.000000000000000000e+00,3.878016896215676357e-01,2.953559445604487799e-01,-4.250378067137969285e-02,-4.968059714908476532e-02
2.950000000000000178e+00,1.644456137696740627e+09,3.382997045829656824e-02,3.148885620274294306e-01,0.000000000000000000e+00,4.198514160365725556e-01,3.329030725305029415e-01,-4.323545541120251551e-02,-3.815239516662973646e-02
2.966666666666666785e+00,1.644456137713694334e+09,3.826468796977892245e-02,3.629631516499367549e-01,0.000000000000000000e+00,4.839508688665823399e-01,3.696353769717133364e-01,-4.376487216180353218e-02,-2.541300293900122104e-02
2.983333333333333393e+00,1.644456137729621410e+09,4.272614084486277969e-02,3.629631516499367549e-01,0.000000000000000000e+00,4.839508688665823399e-01,4.051907981862154506e-01,-4.407881434730253484e-02,-1.229649492289968532e-02
3.000000000000000000e+00,1.644456137747572899e+09,4.720324438768445235e-02,3.870004464611922490e-01,0.000000000000000000e+00,5.160005952815897023e-01,4.392035823228601643e-01,-4.416794181862885443e-02,1.562699694827503552e-03
3.016666666666666607e+00,1.644456137764563084e+09,5.168558673216411270e-02,4.110377412724459112e-01,0.000000000000000000e+00,5.480503216965945112e-01,4.713072853923114813e-01,-4.402024272922896997e-02,1.612075104984023871e-02
3.033333333333333215e+00,1.644456137783508539e+09,5.616352476448665393e-02,4.591123308949532356e-01,0.000000000000000000e+00,6.121497745266043511e-01,5.011378653404645611e-01,-4.362115991500253864e-02,3.172583817287076557e-02
3.049999999999999822e+00,1.644456137800468683e+09,6.062826999931909822e-02,5.071869205174623918e-01,0.000000000000000000e+00,6.762492273566165224e-01,5.283368375888232160e-01,-4.295375087588724355e-02,4.831715843552689821e-02
3.066666666666666430e+00,1.644456137818404913e+09,6.507196330198229683e-02,5.312242153287161095e-01,0.000000000000000000e+00,7.082989537716214423e-01,5.525544683562387815e-01,-4.200544643942887013e-02,6.543183206048444611e-02
3.083333333333333481e+00,1.644456137833343506e+09,6.948773746429279252e-02,5.552615101399697162e-01,0.000000000000000000e+00,7.403486801866263622e-01,5.734529791855811354e-01,-4.076805477391859389e-02,8.300634855040001092e-02
3.100000000000000089e+00,1.644456137850330830e+09,7.386976677041671990e-02,5.552615101399697162e-01,0.000000000000000000e+00,7.403486801866263622e-01,5.907097354230977926e-01,-3.923779838944767284e-02,1.005756129253135428e-01
3.116666666666666696e+00,1.644456137867257357e+09,7.821330282957125735e-02,5.792988049512252102e-01,0.000000000000000000e+00,7.723984066016336136e-01,6.040203909472834365e-01,-3.741198909008766615e-02,1.184717902242620052e-01
3.133333333333333304e+00,1.644456137885238171e+09,8.251469610338388327e-02,6.033360997624789279e-01,0.000000000000000000e+00,8.044481330166385336e-01,6.131019612263356455e-01,-3.528580760384509435e-02,1.366195764211663444e-01
3.149999999999999911e+00,1.644456137902191639e+09,8.677140271562275298e-02,6.033360997624789279e-01,0.000000000000000000e+00,8.044481330166385336e-01,6.176957968047953607e-01,-3.285903509274323148e-02,1.545433355195190428e-01
3.166666666666666519e+00,1.644456137919149160e+09,9.098197629919380081e-02,6.273733945737325346e-01,0.000000000000000000e+00,8.364978594316434535e-01,6.175704295850097392e-01,-3.013270617451529673e-02,1.725660703372701443e-01
3.183333333333333126e+00,1.644456137935102940e+09,9.514604480796962083e-02,6.273733945737325346e-01,0.000000000000000000e+00,8.364978594316434535e-01,6.125242647798474493e-01,-2.710918463058481151e-02,1.902075097825659811e-01
3.200000000000000178e+00,1.644456137953056812e+09,9.926427239732993346e-02,6.514106893849862523e-01,0.000000000000000000e+00,8.685475858466483734e-01,6.023880921693797186e-01,-2.379215571038351823e-02,2.077871272216041121e-01
3.216666666666666785e+00,1.644456137971007347e+09,1.033383066552995000e-01,6.754479841962417463e-01,0.000000000000000000e+00,9.005973122616556248e-01,5.870273912942186589e-01,-2.018336285624683368e-02,2.252195906256417579e-01
3.233333333333333393e+00,1.644456137987965107e+09,1.073707116438958054e-01,6.994852790074953530e-01,0.000000000000000000e+00,9.326470386766605447e-01,5.663444064571596659e-01,-1.628597342695251027e-02,2.424193626207583607e-01
3.250000000000000000e+00,1.644456138004916906e+09,1.113648873857206317e-01,7.235225738187490707e-01,0.000000000000000000e+00,9.646967650916654646e-01,5.402799688764224895e-01,-1.210457676213387568e-02,2.593013416675259419e-01
3.266666666666666607e+00,1.644456138019845009e+09,1.153249766019367045e-01,7.235225738187490707e-01,0.000000000000000000e+00,9.646967650916654646e-01,5.088150450294138816e-01,-7.648491478220515588e-03,2.753842166977486516e-01
3.283333333333333215e+00,1.644456138038829565e+09,1.192557596725398184e-01,7.235225738187490707e-01,0.000000000000000000e+00,9.646967650916654646e-01,4.719719921346104408e-01,-2.931668432710294800e-03,2.905923030847944455e-01
3.299999999999999822e+00,1.644456138054782867e+09,1.231625389463207182e-01,7.475598686300027884e-01,0.000000000000000000e+00,9.967464915066702735e-01,4.298155038282342466e-01,2.034019538724011339e-03,3.052495379876640769e-01
3.316666666666666430e+00,1.644456138072703600e+09,1.270510136741749563e-01,7.235225738187490707e-01,0.000000000000000000e+00,9.646967650916654646e-01,3.824532313869779543e-01,7.232108550085911830e-03,3.184843790630643157e-01
3.333333333333333481e+00,1.644456138090327501e+09,1.309271469736631166e-01,7.235225738187490707e-01,0.000000000000000000e+00,9.646967650916654646e-01,3.300360683113324756e-01,1.264171035846601426e-02,3.306340879568522295e-01
3.350000000000000089e+00,1.644456138106285095e+09,1.347970263532003721e-01,7.235225738187490707e-01,0.000000000000000000e+00,9.646967650916654646e-01,2.727580886979370511e-01,1.824421792809688761e-02,3.416362580958328121e-01
3.366666666666666696e+00,1.644456138123203993e+09,1.386667194293883520e-01,7.235225738187490707e-01,0.000000000000000000e+00,9.646967650916654646e-01,2.108561325734362168e-01,2.402002544574753304e-02,3.514334290180519127e-01
3.383333333333333304e+00,1.644456138141190052e+09,1.425421265593139752e-01,7.235225738187490707e-01,0.000000000000000000e+00,9.646967650916654646e-01,1.446090342153169284e-01,2.994861587301826319e-02,3.599736987246822673e-01
3.399999999999999911e+00,1.644456138157147408e+09,1.464288321798700165e-01,7.235225738187490707e-01,0.000000000000000000e+00,9.646967650916654646e-01,7.433649242423158443e-02,3.600865846388344449e-02,3.672113072378667686e-01
3.416666666666666519e+00,1.644456138175099134e+09,1.503319566971564880e-01,7.235225738187490707e-01,0.000000000000000000e+00,9.646967650916654646e-01,3.975847133579232221e-04,4.217811572237609163e-02,3.731071859549092151e-01
3.433333333333333126e+00,1.644456138192255735e+09,1.542560107999169650e-01,7.235225738187490707e-01,0.000000000000000000e+00,9.646967650916654646e-01,-7.681106958124711559e-02,4.843435918658644396e-02,3.776294675613238727e-01
3.449999999999999734e+00,1.644456138211205244e+09,1.582047540810033459e-01,7.235225738187490707e-01,0.000000000000000000e+00,9.646967650916654646e-01,-1.568574892153526135e-01,5.475429333969102086e-02,3.807539514849425655e-01
3.466666666666666785e+00,1.644456138227162600e+09,1.621810598396093428e-01,7.235225738187490707e-01,0.000000000000000000e+00,9.646967650916654646e-01,-2.392768428867925179e-01,6.111448686732336849e-02,3.824645201395094896e-01
3.483333333333333393e+00,1.644456138243160009e+09,1.661867879041468432e-01,7.235225738187490707e-01,0.000000000000000000e+00,9.646967650916654646e-01,-3.235742789368969974e-01,6.749131040400650761e-02,3.827535015175239086e-01
3.500000000000000000e+00,1.644456138261106014e+09,1.702226672611981406e-01,7.235225738187490707e-01,0.000000000000000000e+00,9.646967650916654646e-01,-4.092280558912463340e-01,7.386107984032605489e-02,3.816219740466627597e-01
3.516666666666666607e+00,1.644456138277299166e+09,1.742881902001095773e-01,7.235225738187490707e-01,0.000000000000000000e+00,9.646967650916654646e-01,-4.956929539939647911e-01,8.020020419773402076e-02,3.790800100196678457e-01
3.533333333333333215e+00,1.644456138296250343e+09,1.783815195860249947e-01,7.235225738187490707e-01,0.000000000000000000e+00,9.646967650916654646e-01,-5.824039451750048224e-01,8.648533701999697176e-02,3.751468543414673285e-01
3.549999999999999822e+00,1.644456138313168287e+09,1.824994107571145385e-01,6.514106893849862523e-01,0.000000000000000000e+00,8.685475858466483734e-01,-6.687800963201795401e-01,9.268357005049292219e-02,3.686591311953848482e-01
3.566666666666666430e+00,1.644456138329127073e+09,1.866371494054211433e-01,5.552615101399697162e-01,0.000000000000000000e+00,7.403486801866263622e-01,-7.542286783126596061e-01,9.874948807605143930e-02,3.592770937002814913e-01
3.583333333333333481e+00,1.644456138347110271e+09,1.907885066462512991e-01,4.350750360836995734e-01,0.000000000000000000e+00,5.801000481115994312e-01,-8.381494511063342090e-01,1.046321432669465451e-01,3.466765315923424629e-01
3.600000000000000089e+00,1.644456138363068819e+09,1.949457123097724787e-01,3.870004464611922490e-01,0.000000000000000000e+00,5.160005952815897023e-01,-9.199390930972877189e-01,1.102885925728327027e-01,3.321377715091880511e-01
3.616666666666666696e+00,1.644456138382017374e+09,1.990994473020344657e-01,3.629631516499367549e-01,0.000000000000000000e+00,4.839508688665823399e-01,-9.989957413004467712e-01,1.156904979246133336e-01,3.161353229965656042e-01
3.633333333333333304e+00,1.644456138397974014e+09,2.032388556827821324e-01,3.148885620274294306e-01,0.000000000000000000e+00,4.198514160365725556e-01,-1.074723607333093467e+00,1.208108064104079782e-01,2.983510970890099201e-01
3.649999999999999911e+00,1.644456138415929079e+09,2.073515768961495809e-01,2.908512672161757684e-01,0.000000000000000000e+00,3.878016896215676357e-01,-1.146537632971823317e+00,1.256239284650252641e-01,2.792765356051318260e-01
3.666666666666666519e+00,1.644456138433880806e+09,2.114237983697313250e-01,2.427766775936666122e-01,0.000000000000000000e+00,3.237022367915554644e-01,-1.213868148100180511e+00,1.301058359388757024e-01,2.586097702895061579e-01
3.683333333333333126e+00,1.644456138450801611e+09,2.154403284698832299e-01,1.706647931599055701e-01,0.000000000000000000e+00,2.275530575465407879e-01,-1.276165493212554347e+00,1.342275871582186419e-01,2.360630074026190683e-01
3.699999999999999734e+00,1.644456138468787193e+09,2.193846895687897036e-01,1.466274983486501038e-01,0.000000000000000000e+00,1.955033311315334810e-01,-1.332904568296514602e+00,1.379655162937385993e-01,2.125537937679680689e-01
3.716666666666666785e+00,1.644456138485740185e+09,2.232392307443237800e-01,1.706647931599055701e-01,0.000000000000000000e+00,2.275530575465407879e-01,-1.383589269888380935e+00,1.413111917532111628e-01,1.889927103630208993e-01
3.733333333333333393e+00,1.644456138500702620e+09,2.269852593995562162e-01,1.466274983486501038e-01,0.000000000000000000e+00,1.955033311315334810e-01,-1.427756778390216752e+00,1.442580162763983098e-01,1.646937311724743225e-01
3.750000000000000000e+00,1.644456138517654657e+09,2.306031908575191802e-01,1.466274983486501038e-01,0.000000000000000000e+00,1.955033311315334810e-01,-1.464981658353468941e+00,1.467980724812119608e-01,1.401811056342470163e-01
3.766666666666666607e+00,1.644456138535611153e+09,2.340727147611021408e-01,1.225902035373964277e-01,0.000000000000000000e+00,1.634536047165285888e-01,-1.494879735374556429e+00,1.489255210426559117e-01,1.151821648755170652e-01
3.783333333333333215e+00,1.644456138551531315e+09,2.373729768903275195e-01,9.855290872614276554e-02,0.000000000000000000e+00,1.314038783015236689e-01,-1.517111714507818565e+00,1.506333827224214661e-01,8.983165643272358891e-02
3.799999999999999822e+00,1.644456138569517612e+09,2.404827748022474454e-01,7.451561391488908948e-02,0.000000000000000000e+00,9.935415188651879059e-02,-1.531386506675610937e+00,1.519169456684455743e-01,6.426691194068745450e-02
3.816666666666666430e+00,1.644456138587467432e+09,2.433807655048201846e-01,7.451561391488908948e-02,0.000000000000000000e+00,9.935415188651879059e-02,-1.537464231435187623e+00,1.527771210964913307e-01,3.902425955397006291e-02
3.833333333333333481e+00,1.644456138603431463e+09,2.460456831976881309e-01,7.451561391488908948e-02,0.000000000000000000e+00,9.935415188651879059e-02,-1.535158866636026742e+00,1.532203905973044955e-01,1.423693584113792932e-02
3.850000000000000089e+00,1.644456138620385408e+09,2.484565649520713571e-01,7.451561391488908948e-02,0.000000000000000000e+00,9.935415188651879059e-02,-1.524340517955436791e+00,1.532554559094743141e-01,-9.961877871707689597e-03
3.866666666666666696e+00,1.644456138638337374e+09,2.505929820610793279e-01,7.451561391488908948e-02,0.000000000000000000e+00,9.935415188651879059e-02,-1.504937284017765942e+00,1.528932299963410291e-01,-3.344001312695568662e-02
3.883333333333333304e+00,1.644456138655292034e+09,2.524352746725423424e-01,5.047831910363361624e-02,0.000000000000000000e+00,6.730442547151148369e-02,-1.476936695764447638e+00,1.521434920527777734e-01,-5.646458146107265902e-02
3.899999999999999911e+00,1.644456138671249390e+09,2.539647872206881041e-01,5.047831910363361624e-02,0.000000000000000000e+00,6.730442547151148369e-02,-1.440386711926665120e+00,1.510182397705178703e-01,-7.850446905919661322e-02
3.916666666666666519e+00,1.644456138689201832e+09,2.551641021021386346e-01,2.403729481126268882e-03,0.000000000000000000e+00,3.204972641501691987e-03,-1.395396255836143018e+00,1.495282742064992232e-01,-1.002310456010949147e-01
3.933333333333333126e+00,1.644456138706156015e+09,2.560172689969869575e-01,-2.163356533012830360e-02,0.000000000000000000e+00,-2.884475377350440711e-02,-1.342135282366484050e+00,1.476832363081199140e-01,-1.211154884976591295e-01
3.949999999999999734e+00,1.644456138722114563e+09,2.565100272181723429e-01,-2.163356533012830360e-02,0.000000000000000000e+00,-2.884475377350440711e-02,-1.280834367500214510e+00,1.455014758440868472e-01,-1.406415269141317870e-01
3.966666666666666785e+00,1.644456138740065336e+09,2.566300184826620367e-01,-2.163356533012830360e-02,0.000000000000000000e+00,-2.884475377350440711e-02,-1.211783816835859451e+00,1.430065156491269196e-01,-1.587035230886049975e-01
3.983333333333333393e+00,1.644456138757019997e+09,2.563669875365425233e-01,-2.163356533012830360e-02,0.000000000000000000e+00,-2.884475377350440711e-02,-1.135332293254424307e+00,1.402235764391006612e-01,-1.752033481883212840e-01
4.000000000000000000e+00,1.644456138775987387e+09,2.557129681331141713e-01,-2.163356533012830360e-02,0.000000000000000000e+00,-2.884475377350440711e-02,-1.051884967923981895e+00,1.371794448943672862e-01,-1.900511921978230712e-01
4.016666666666666607e+00,1.644456138791926861e+09,2.546624519583221558e-01,-2.163356533012830360e-02,0.000000000000000000e+00,-2.884475377350440711e-02,-9.619012028014712890e-01,1.339023286769701615e-01,-2.031663221159525912e-01
4.033333333333333215e+00,1.644456138808881998e+09,2.532125382208495479e-01,-2.163356533012830360e-02,0.000000000000000000e+00,-2.884475377350440711e-02,-8.658917767599029203e-01,1.304216992990566981e-01,-2.144777817728729663e-01
4.049999999999999822e+00,1.644456138826834440e+09,2.513630617741796081e-01,-2.163356533012830360e-02,0.000000000000000000e+00,-2.884475377350440711e-02,-7.644156713922555246e-01,1.267681238682868416e-01,-2.239250269541428195e-01
4.066666666666666430e+00,1.644456138843787909e+09,2.491166978137948629e-01,-2.163356533012830360e-02,0.000000000000000000e+00,-2.884475377350440711e-02,-6.580764363874962442e-01,1.229730868375798897e-01,-2.314584899520629457e-01
4.083333333333333037e+00,1.644456138859745741e+09,2.464790413930750268e-01,-2.163356533012830360e-02,0.000000000000000000e+00,-2.884475377350440711e-02,-5.475181581055559299e-01,1.190688029804708864e-01,-2.370400681522153441e-01
4.099999999999999645e+00,1.644456138877697706e+09,2.434586602246785192e-01,-2.163356533012830360e-02,0.000000000000000000e+00,-2.884475377350440711e-02,-4.334210585636781854e-01,1.150880228987119502e-01,-2.406435318020198610e-01
4.116666666666666252e+00,1.644456138896646738e+09,2.400671194783517981e-01,2.403729481126268882e-03,0.000000000000000000e+00,3.204972641501691987e-03,-3.164967554542771344e-01,1.110671524878941857e-01,-2.418575451574212776e-01
4.133333333333332860e+00,1.644456138911607265e+09,2.363189775489783206e-01,-2.163356533012830360e-02,0.000000000000000000e+00,-2.884475377350440711e-02,-1.974832170131433640e-01,1.070393343674440334e-01,-2.414816734093589989e-01
4.150000000000000355e+00,1.644456138928561926e+09,2.322317520478521802e-01,2.403729481126268882e-03,0.000000000000000000e+00,3.204972641501691987e-03,-7.713944851676737824e-02,1.030376708450409101e-01,-2.387256052042165677e-01
4.166666666666666963e+00,1.644456138946513414e+09,2.278258555629950055e-01,-2.163356533012830360e-02,0.000000000000000000e+00,-2.884475377350440711e-02,4.376005011976831505e-02,9.909493977913159946e-02,-2.344140993918132632e-01
4.183333333333333570e+00,1.644456138962470770e+09,2.231245010379714067e-01,-2.163356533012830360e-02,0.000000000000000000e+00,-2.884475377350440711e-02,1.644310137725265020e-01,9.524013876980592930e-02,-2.281793409084476310e-01
4.200000000000000178e+00,1.644456138980423212e+09,2.181535769301662375e-01,2.403729481126268882e-03,0.000000000000000000e+00,3.204972641501691987e-03,2.840852846124803377e-01,9.150823600466270746e-02,-2.196726212417443036e-01
4.216666666666666785e+00,1.644456138997377396e+09,2.129414926256590068e-01,2.403729481126268882e-03,0.000000000000000000e+00,3.204972641501691987e-03,4.019367819852965318e-01,8.793321465588786745e-02,-2.093585913685290789e-01
4.233333333333333393e+00,1.644456139013334513e+09,2.075189949055041005e-01,2.644102429237994017e-02,0.000000000000000000e+00,3.525469905650659153e-02,5.172075225842804880e-01,8.454791052140901708e-02,-1.969124781194392104e-01
4.250000000000000000e+00,1.644456139031505108e+09,2.019189565740796832e-01,5.047831910363361624e-02,0.000000000000000000e+00,6.730442547151148369e-02,6.291336428219956867e-01,8.138710187910450089e-02,-1.824248034450408618e-01
4.266666666666666607e+00,1.644456139048458099e+09,1.961761386708396337e-01,9.855290872614276554e-02,0.000000000000000000e+00,1.314038783015236689e-01,7.369713746829797962e-01,7.848728812415738110e-02,-1.655995849666083708e-01
4.283333333333333215e+00,1.644456139065414190e+09,1.903269279890146826e-01,1.466274983486501038e-01,0.000000000000000000e+00,1.955033311315334810e-01,8.400029261147042847e-01,7.588644162521263059e-02,-1.465548980599410411e-01
4.299999999999999822e+00,1.644456139083992004e+09,1.844090519151898311e-01,2.668139724049202743e-01,0.000000000000000000e+00,3.557519632065603843e-01,9.375422171932957793e-01,7.363044850437333588e-02,-1.242263017791314927e-01
4.316666666666666430e+00,1.644456139098947525e+09,1.784612728790643255e-01,3.629631516499367549e-01,0.000000000000000000e+00,4.839508688665823399e-01,1.028940423889450395e+00,7.176941875654817282e-02,-9.916687910564989106e-02
4.333333333333333037e+00,1.644456139117899179e+09,1.725230649598947785e-01,4.110377412724459112e-01,0.000000000000000000e+00,5.480503216965945112e-01,1.113591282257056170e+00,7.034091693842002557e-02,-7.232789356203003783e-02
4.349999999999999645e+00,1.644456139133822203e+09,1.666342754321725184e-01,4.350750360836995734e-01,0.000000000000000000e+00,5.801000481115994312e-01,1.190936107270413435e+00,6.937002748092063742e-02,-4.425681838196210416e-02
4.366666666666666252e+00,1.644456139154768229e+09,1.608347742451681772e-01,4.350750360836995734e-01,0.000000000000000000e+00,5.801000481115994312e-01,1.260468482338204188e+00,6.887271593185087526e-02,-1.550044819252727191e-02
4.383333333333332860e+00,1.644456139169728279e+09,1.551640946164492829e-01,4.350750360836995734e-01,0.000000000000000000e+00,5.801000481115994312e-01,1.321738577713794882e+00,6.885916803121781837e-02,1.379332660473069419e-02
4.400000000000000355e+00,1.644456139184720755e+09,1.496610680759952738e-01,4.591123308949532356e-01,0.000000000000000000e+00,6.121497745266043511e-01,1.374357058588008051e+00,6.934039137373400330e-02,4.386992642026385503e-02
4.416666666666666963e+00,1.644456139201676130e+09,1.443634574229543666e-01,4.350750360836995734e-01,0.000000000000000000e+00,5.801000481115994312e-01,1.417998546576003660e+00,7.032144492581203499e-02,7.377343257918088371e-02
4.433333333333333570e+00,1.644456139218595505e+09,1.393075911495779418e-01,4.591123308949532356e-01,0.000000000000000000e+00,6.121497745266043511e-01,1.452404601573367815e+00,7.180483218465080753e-02,1.041486608614807935e-01
4.450000000000000178e+00,1.644456139235549927e+09,1.345280029449336667e-01,4.591123308949532356e-01,0.000000000000000000e+00,6.121497745266043511e-01,1.477386194535554198e+00,7.379372827659289036e-02,1.344347401933805031e-01
4.466666666666666785e+00,1.644456139253501892e+09,1.300570799134312672e-01,4.350750360836995734e-01,0.000000000000000000e+00,5.801000481115994312e-01,1.492825645602354756e+00,7.628202169054271176e-02,1.640781248075315890e-01
4.483333333333333393e+00,1.644456139269459248e+09,1.259247231291727998e-01,4.350750360836995734e-01,0.000000000000000000e+00,5.801000481115994312e-01,1.498678006117041273e+00,7.926108548660872055e-02,1.933282783814779249e-01
4.500000000000000000e+00,1.644456139287411451e+09,1.221580240961842589e-01,4.350750360836995734e-01,0.000000000000000000e+00,5.801000481115994312e-01,1.494971867445896718e+00,8.272309990271137226e-02,2.220337123575352178e-01
4.516666666666666607e+00,1.644456139305363178e+09,1.187809605966223120e-01,4.350750360836995734e-01,0.000000000000000000e+00,5.801000481115994312e-01,1.481809584054734508e+00,8.665775542840144230e-02,2.500471338341523908e-01
4.533333333333333215e+00,1.644456139321320295e+09,1.158141152843196464e-01,4.350750360836995734e-01,0.000000000000000000e+00,5.801000481115994312e-01,1.459366903008611605e+00,9.105233228997854089e-02,2.772265892907804785e-01
4.549999999999999822e+00,1.644456139337277651e+09,1.132744202202585759e-01,4.350750360836995734e-01,0.000000000000000000e+00,5.801000481115994312e-01,1.427891996891501147e+00,9.589179870614537859e-02,3.034365734242003287e-01
4.566666666666666430e+00,1.644456139355265617e+09,1.111749303507482689e-01,4.350750360836995734e-01,0.000000000000000000e+00,5.801000481115994312e-01,1.387703902055380745e+00,1.011589272554045404e-01,3.285490938439258324e-01
4.583333333333333037e+00,1.644456139371187210e+09,1.095246286996802848e-01,4.350750360836995734e-01,0.000000000000000000e+00,5.801000481115994312e-01,1.339190369062194019e+00,1.068344285444244590e-01,3.524446826406708033e-01
4.599999999999999645e+00,1.644456139388176918e+09,1.083282657850264674e-01,4.350750360836995734e-01,0.000000000000000000e+00,5.801000481115994312e-01,1.282805137137000173e+00,1.128971012197075297e-01,3.750133461857327322e-01
4.616666666666666252e+00,1.644456139406128407e+09,1.075862354788884867e-01,4.350750360836995734e-01,0.000000000000000000e+00,5.801000481115994312e-01,1.219064649363761577e+00,1.193239972243624325e-01,3.961554449385354948e-01
4.633333333333332860e+00,1.644456139423049688e+09,1.072944892123617044e-01,4.350750360836995734e-01,0.000000000000000000e+00,5.801000481115994312e-01,1.148544230186090642e+00,1.260906010688505330e-01,4.157824955318772386e-01
4.650000000000000355e+00,1.644456139439038277e+09,1.074444900840881151e-01,4.350750360836995734e-01,0.000000000000000000e+00,5.801000481115994312e-01,1.071873751480673098e+00,1.331710217604312185e-01,4.338178879663694421e-01
4.666666666666666963e+00,1.644456139456959724e+09,1.080232080676469669e-01,4.350750360836995734e-01,0.000000000000000000e+00,5.801000481115994312e-01,9.897328180118524221e-01,1.405381959218012511e-01,4.501975113732585854e-01
4.683333333333333570e+00,1.644456139474911213e+09,1.090131571313527198e-01,4.350750360836995734e-01,0.000000000000000000e+00,5.801000481115994312e-01,9.028455074099270838e-01,1.481641005261669086e-01,4.648702824937867017e-01
4.700000000000000178e+00,1.644456139491898775e+09,1.103924746880101670e-01,4.350750360836995734e-01,0.000000000000000000e+00,5.801000481115994312e-01,8.119747039059140858e-01,1.560199735846843627e-01,4.777985717684294920e-01
4.716666666666666785e+00,1.644456139508853912e+09,1.121350433856814627e-01,4.350750360836995734e-01,0.000000000000000000e+00,5.801000481115994312e-01,7.179160688635126686e-01,1.640765410437424743e-01,4.889585227251582733e-01
4.733333333333333393e+00,1.644456139524810791e+09,1.142106548373348351e-01,4.350750360836995734e-01,0.000000000000000000e+00,5.801000481115994312e-01,6.214916946396209507e-01,1.723042480847372937e-01,4.983402611962187700e-01
4.750000000000000000e+00,1.644456139541765928e+09,1.165852144715621985e-01,3.870004464611922490e-01,0.000000000000000000e+00,5.160005952815897023e-01,5.235434914457365307e-01,1.806668528821793185e-01,5.051533886972255916e-01
4.766666666666666607e+00,1.644456139558717728e+09,1.192209862724269154e-01,2.668139724049202743e-01,0.000000000000000000e+00,3.557519632065603843e-01,4.249263596419045608e-01,1.891118475088500450e-01,5.082373996046686271e-01
4.783333333333333215e+00,1.644456139576671600e+09,1.220768757682030581e-01,1.706647931599055701e-01,0.000000000000000000e+00,2.275530575465407879e-01,3.265012022468491981e-01,1.975809416477223857e-01,5.080544053892421807e-01
4.799999999999999822e+00,1.644456139593593597e+09,1.251087492304446269e-01,9.855290872614276554e-02,0.000000000000000000e+00,1.314038783015236689e-01,2.291278343659078065e-01,2.060236017706386646e-01,5.050730909845266847e-01
4.816666666666666430e+00,1.644456139609582186e+09,1.282697866606140324e-01,5.047831910363361624e-02,0.000000000000000000e+00,6.730442547151148369e-02,1.336578477034261470e-01,2.143971586522750994e-01,4.997684702163412429e-01
4.833333333333333037e+00,1.644456139626505136e+09,1.315108657755278687e-01,5.047831910363361624e-02,0.000000000000000000e+00,6.730442547151148369e-02,4.092748931863303408e-02,2.226702299012725816e-01,4.930188291077148843e-01
4.849999999999999645e+00,1.644456139645488977e+09,1.347809738589871853e-01,-2.163356533012830360e-02,0.000000000000000000e+00,-2.884475377350440711e-02,-4.824938570815127947e-02,2.308094621116556222e-01,4.837148810466938564e-01
4.866666666666666252e+00,1.644456139662446260e+09,1.380276440289910922e-01,-1.898946290089067179e-01,0.000000000000000000e+00,-2.531928386785423091e-01,-1.330882280201301504e-01,2.387599553016652443e-01,4.703813402395336518e-01
4.883333333333332860e+00,1.644456139681390047e+09,1.411974121813801830e-01,-4.302675771214479750e-01,0.000000000000000000e+00,-5.736901028285972259e-01,-2.128405149494121684e-01,2.464458485896676154e-01,4.519769787503502556e-01
4.900000000000000355e+00,1.644456139697422981e+09,1.442362906149251556e-01,-6.225659356114808807e-01,0.000000000000000000e+00,-8.300879141486412482e-01,-2.868002205047578967e-01,2.537907688424480002e-01,4.294759558956325329e-01
4.916666666666666963e+00,1.644456139713347197e+09,1.470902541227989690e-01,-7.427524096677511345e-01,0.000000000000000000e+00,-9.903365462236681793e-01,-3.543099776748580565e-01,2.607378552030418239e-01,4.042444964126619134e-01
4.933333333333333570e+00,1.644456139729304552e+09,1.497057341536903452e-01,-7.908269992902593470e-01,0.000000000000000000e+00,-1.054435999053679129e+00,-4.147668783253633529e-01,2.672529117971024215e-01,3.776362085250075662e-01
4.950000000000000178e+00,1.644456139747256279e+09,1.520301165048877634e-01,-8.148642941015139529e-01,0.000000000000000000e+00,-1.086485725468685271e+00,-4.676278584351420409e-01,2.733175508482664773e-01,3.501967002648992411e-01
4.966666666666666785e+00,1.644456139762216091e+09,1.540122379114224338e-01,-7.908269992902593470e-01,0.000000000000000000e+00,-1.054435999053679129e+00,-5.124146193512563174e-01,2.789257887937227065e-01,3.228677686754177767e-01
4.983333333333333393e+00,1.644456139779172421e+09,1.556028768413465491e-01,-8.148642941015139529e-01,0.000000000000000000e+00,-1.086485725468685271e+00,-5.487180391240660260e-01,2.840739849420817476e-01,2.949932003066323971e-01
5.000000000000000000e+00,1.644456139797157049e+09,1.567552337985471944e-01,-8.148642941015139529e-01,0.000000000000000000e+00,-1.086485725468685271e+00,-5.762020317897357247e-01,2.887576588974720138e-01,2.671250875863879770e-01
5.016666666666666607e+00,1.644456139814078808e+09,1.563811181163894948e-01,-8.389015889127675596e-01,0.000000000000000000e+00,-1.118535451883690079e+00,-5.946068166706546254e-01,2.929748513439347501e-01,2.390160883802015523e-01
5.033333333333333215e+00,1.644456139831032276e+09,1.554926391793735874e-01,-8.389015889127675596e-01,0.000000000000000000e+00,-1.118535451883690079e+00,-5.997465898830081077e-01,2.967267329912496310e-01,2.112867370862904215e-01
5.049999999999999822e+00,1.644456139846988916e+09,1.540638897871275392e-01,-8.389015889127675596e-01,0.000000000000000000e+00,-1.118535451883690079e+00,-5.955690009971408294e-01,3.000208657861642703e-01,1.840847611262106664e-01
5.066666666666666430e+00,1.644456139865937233e+09,1.520737483962354974e-01,-8.629388837240221655e-01,0.000000000000000000e+00,-1.150585178298696221e+00,-5.822406395049054550e-01,3.028639103423567125e-01,1.571553911828694472e-01
5.083333333333333037e+00,1.644456139882896423e+09,1.495060766015011700e-01,-8.629388837240221655e-01,0.000000000000000000e+00,-1.150585178298696221e+00,-5.600056517290837865e-01,3.052649226717799036e-01,1.310386365958944865e-01
5.099999999999999645e+00,1.644456139898816586e+09,1.463498724600973688e-01,-8.629388837240221655e-01,0.000000000000000000e+00,-1.150585178298696221e+00,-5.291830900684406647e-01,3.072385202448580377e-01,1.058630061262753053e-01
5.116666666666666252e+00,1.644456139915885687e+09,1.425993782462126880e-01,-8.629388837240221655e-01,0.000000000000000000e+00,-1.150585178298696221e+00,-4.901636574371852628e-01,3.088013906309228229e-01,8.174842672085705364e-02
5.133333333333332860e+00,1.644456139933370352e+09,1.382541416449269978e-01,-8.629388837240221655e-01,0.000000000000000000e+00,-1.150585178298696221e+00,-4.434058752503580170e-01,3.099721402861770336e-01,5.880526441602984544e-02
5.150000000000000355e+00,1.644456139952321529e+09,1.333190298245928163e-01,-8.629388837240221655e-01,0.000000000000000000e+00,-1.150585178298696221e+00,-3.894317078998236203e-01,3.107711277629690017e-01,3.713343374550712866e-02
5.166666666666666963e+00,1.644456139968332291e+09,1.278041962628155837e-01,-8.629388837240221655e-01,0.000000000000000000e+00,-1.150585178298696221e+00,-3.288216809885085579e-01,3.112202828731444049e-01,1.682160255678956384e-02
5.183333333333333570e+00,1.644456139984295607e+09,1.217250006380763694e-01,-8.629388837240221655e-01,0.000000000000000000e+00,-1.150585178298696221e+00,-2.622095346104897917e-01,3.113429134466619286e-01,-2.053501655636474910e-03
5.200000000000000178e+00,1.644456140002421618e+09,1.151018825329707673e-01,-8.869761785352758832e-01,0.000000000000000000e+00,-1.182634904713701030e+00,-1.902764566479786534e-01,3.111601813782517434e-01,-1.982498017361387921e-02
5.216666666666666785e+00,1.644456140019380093e+09,1.079601901217473181e-01,-8.629388837240221655e-01,0.000000000000000000e+00,-1.150585178298696221e+00,-1.137449443751787914e-01,3.106976032205043814e-01,-3.564046581751984660e-02
5.233333333333333393e+00,1.644456140036334991e+09,1.003299654303083099e-01,-8.869761785352758832e-01,0.000000000000000000e+00,-1.182634904713701030e+00,-3.337234558669804896e-02,3.099813991384222089e-01,-5.026340380413723413e-02
5.250000000000000000e+00,1.644456140053288937e+09,9.224568815706495062e-02,-8.869761785352758832e-01,0.000000000000000000e+00,-1.182634904713701030e+00,5.005586701861758359e-02,3.090350222970741911e-01,-6.326569882140019307e-02
5.266666666666666607e+00,1.644456140070245743e+09,8.374598042427185141e-02,-8.869761785352758832e-01,0.000000000000000000e+00,-1.182634904713701030e+00,1.357330323880175937e-01,3.078855701950786172e-01,-7.463696582185891382e-02
5.283333333333333215e+00,1.644456140086312532e+09,7.487327518798718440e-02,-8.869761785352758832e-01,0.000000000000000000e+00,-1.182634904713701030e+00,2.228383911605719137e-01,3.065601986170974902e-01,-8.438055736678952423e-02
5.299999999999999822e+00,1.644456140104714394e+09,6.567345136726643329e-02,-8.869761785352758832e-01,0.000000000000000000e+00,-1.182634904713701030e+00,3.105442706036601885e-01,3.050858936162582080e-01,-9.251345083147716197e-02
5.316666666666666430e+00,1.644456140120524406e+09,5.619543905646436077e-02,-8.869761785352758832e-01,0.000000000000000000e+00,-1.182634904713701030e+00,3.980233051424951207e-01,3.034892463582108957e-01,-9.906601812997620216e-02
5.333333333333333037e+00,1.644456140142432690e+09,4.649079845561077118e-02,-8.869761785352758832e-01,0.000000000000000000e+00,-1.182634904713701030e+00,4.844556329693782137e-01,3.017962327653000987e-01,-1.040816802964970450e-01
5.349999999999999645e+00,1.644456140155493736e+09,3.661327639032803394e-02,-8.869761785352758832e-01,0.000000000000000000e+00,-1.182634904713701030e+00,5.690360094825986925e-01,3.000319998525156073e-01,-1.076164502012571522e-01
5.366666666666666252e+00,1.644456140172999859e+09,2.661834449232793401e-02,-8.869761785352758832e-01,0.000000000000000000e+00,-1.182634904713701030e+00,6.509807790453563392e-01,2.982206605846281500e-01,-1.097383675915350465e-01
5.383333333333332860e+00,1.644456140190465212e+09,1.656272327237977640e-02,-8.869761785352758832e-01,0.000000000000000000e+00,-1.182634904713701030e+00,7.295346477654970352e-01,2.963850990067352087e-01,-1.105268315264717610e-01
5.400000000000000355e+00,1.644456140206535816e+09,6.503896438232968473e-03,-8.869761785352758832e-01,0.000000000000000000e+00,-1.182634904713701030e+00,8.039772016687875000e-01,2.945467873089819277e-01,-1.100718361098266124e-01
5.416666666666666963e+00,1.644456140223173857e+09,-3.500380110743663356e-03,-8.869761785352758832e-01,0.000000000000000000e+00,-1.182634904713701030e+00,8.736291167566593296e-01,2.927256163812450018e-01,-1.084731162117332781e-01
5.433333333333333570e+00,1.644456140241700172e+09,-1.339257014320978552e-02,-8.869761785352758832e-01,0.000000000000000000e+00,-1.182634904713701030e+00,9.378580099884816779e-01,2.909397412959344731e-01,-1.058392106022026380e-01
5.450000000000000178e+00,1.644456140255227804e+09,-2.311584534585796324e-02,-9.110134733465303780e-01,0.000000000000000000e+00,-1.214684631128707171e+00,9.960838831863656484e-01,2.892021229845982977e-01,-1.026837521268691988e-01
5.466666666666666785e+00,1.644456140272912741e+09,-3.261456554715736617e-02,-9.590880629690387016e-01,0.000000000000000000e+00,-1.278784083958718121e+00,1.047784115204599242e+00,2.875171605898886873e-01,-9.952052219490024887e-02
5.483333333333333393e+00,1.644456140289943695e+09,-4.183474658712650618e-02,-9.590880629690387016e-01,0.000000000000000000e+00,-1.278784083958718121e+00,1.092497961408448237e+00,2.858906576858972759e-01,-9.567052098358533319e-02
5.500000000000000000e+00,1.644456140306895971e+09,-5.072451163516093070e-02,-9.590880629690387016e-01,0.000000000000000000e+00,-1.278784083958718121e+00,1.129830523538939424e+00,2.843329460967821132e-01,-9.126710171830514085e-02
5.516666666666666607e+00,1.644456140324810982e+09,-5.923452192703394792e-02,-9.590880629690387016e-01,0.000000000000000000e+00,-1.278784083958718121e+00,1.159456157368875751e+00,2.828521085336157537e-01,-8.644679591514151107e-02
5.533333333333333215e+00,1.644456140340768814e+09,-6.731838309901445883e-02,-9.590880629690387016e-01,0.000000000000000000e+00,-1.278784083958718121e+00,1.181121290145600078e+00,2.814539360164087789e-01,-8.134806961165853834e-02
5.549999999999999822e+00,1.644456140356757879e+09,-7.493302353952743800e-02,-1.031199947402800632e+00,0.000000000000000000e+00,-1.374933263203734102e+00,1.194646624632195397e+00,2.801319460287937102e-01,-7.730196833688686431e-02
5.566666666666666430e+00,1.644456140374678135e+09,-8.203904145448702445e-02,-1.127349126647817057e+00,0.000000000000000000e+00,-1.503132168863756002e+00,1.199928711560701799e+00,2.788642816047670059e-01,-7.482464416431210130e-02
5.583333333333333037e+00,1.644456140392663956e+09,-8.860101764866032403e-02,-1.223498305892833482e+00,0.000000000000000000e+00,-1.631331074523778124e+00,1.196940877460048069e+00,2.776238708939492428e-01,-7.402685726070744321e-02
5.599999999999999645e+00,1.644456140408588171e+09,-9.458779135911810076e-02,-1.271572895515341806e+00,0.000000000000000000e+00,-1.695430527353789074e+00,1.185733500075278002e+00,2.763884583859366750e-01,-7.422210134336260090e-02
5.616666666666666252e+00,1.644456140424544096e+09,-9.997269683476593671e-02,-1.271572895515341806e+00,0.000000000000000000e+00,-1.695430527353789074e+00,1.166433628911865972e+00,2.751471530692548018e-01,-7.473311713673864987e-02
5.633333333333332860e+00,1.644456140444504261e+09,-1.047337587345653215e-01,-1.271572895515341806e+00,0.000000000000000000e+00,-1.695430527353789074e+00,1.139243953776637008e+00,2.738936459529431322e-01,-7.568509238273873896e-02
5.650000000000000355e+00,1.644456140460450172e+09,-1.088538448126614711e-01,-1.271572895515341806e+00,0.000000000000000000e+00,-1.695430527353789074e+00,1.104441129502190533e+00,2.726195970863730667e-01,-7.719657294972119554e-02
5.666666666666666963e+00,1.644456140478402376e+09,-1.123207747673939522e-01,-1.271572895515341806e+00,0.000000000000000000e+00,-1.695430527353789074e+00,1.062373470292383271e+00,2.713147552373894600e-01,-7.937838818778689132e-02
5.683333333333333570e+00,1.644456140493361950e+09,-1.151273845490638909e-01,-1.271572895515341806e+00,0.000000000000000000e+00,-1.695430527353789074e+00,1.013458032270062148e+00,2.699670949298070277e-01,-8.233264226762580795e-02
5.700000000000000178e+00,1.644456140512395859e+09,-1.172715458442906977e-01,-1.271572895515341806e+00,0.000000000000000000e+00,-1.695430527353789074e+00,9.581771078037324418e-01,2.685629696684040391e-01,-8.615178013474962537e-02
5.716666666666666785e+00,1.644456140528410196e+09,-1.187561408787723150e-01,-1.295610190326595523e+00,0.000000000000000000e+00,-1.727480253768793883e+00,8.970741599971820968e-01,2.670839599976505552e-01,-9.131503763615306246e-02
5.733333333333333393e+00,1.644456140544833422e+09,-1.195889931010737928e-01,-1.271572895515341806e+00,0.000000000000000000e+00,-1.695430527353789074e+00,8.307492303065382444e-01,2.655137683976795948e-01,-9.709190712299549386e-02
5.750000000000000000e+00,1.644456140560828209e+09,-1.197827547237058782e-01,-1.295610190326595523e+00,0.000000000000000000e+00,-1.727480253768793883e+00,7.598538565661249189e-01,2.638349813961415880e-01,-1.043423923507986600e-01
5.766666666666666607e+00,1.644456140578762054e+09,-1.193547525001899534e-01,-1.295610190326595523e+00,0.000000000000000000e+00,-1.727480253768793883e+00,6.850855427234601169e-01,2.620260273779624338e-01,-1.127088491260051228e-01
5.783333333333333215e+00,1.644456140594743252e+09,-1.183267935042064956e-01,-1.295610190326595523e+00,0.000000000000000000e+00,-1.727480253768793883e+00,6.071818252715582842e-01,2.600680278923880873e-01,-1.222246557246814136e-01
5.799999999999999822e+00,1.644456140611908197e+09,-1.167249330455203959e-01,-1.295610190326595523e+00,0.000000000000000000e+00,-1.727480253768793883e+00,5.269139846952286543e-01,2.579416593239329258e-01,-1.329098905834157074e-01
5.816666666666666430e+00,1.644456140628890991e+09,-1.145792072037077058e-01,-1.271572895515341806e+00,0.000000000000000000e+00,-1.695430527353789074e+00,4.450804531887539994e-01,2.556306965127514985e-01,-1.443738018110107546e-01
5.833333333333333037e+00,1.644456140646844149e+09,-1.119233327814405238e-01,-1.271572895515341806e+00,0.000000000000000000e+00,-1.695430527353789074e+00,3.624999724330233430e-01,2.531188458583751855e-01,-1.570131665413397326e-01
5.849999999999999645e+00,1.644456140662940741e+09,-1.087943777711583987e-01,-1.271572895515341806e+00,0.000000000000000000e+00,-1.695430527353789074e+00,2.800045573191960457e-01,2.503866905726249148e-01,-1.708071502255252283e-01
5.866666666666666252e+00,1.644456140680893183e+09,-1.052324056897010335e-01,-1.295610190326595523e+00,0.000000000000000000e+00,-1.727480253768793883e+00,1.984323231572025503e-01,2.474119539498762510e-01,-1.861187113889331002e-01
5.883333333333332860e+00,1.644456140697249889e+09,-1.012800973623529943e-01,-1.271572895515341806e+00,0.000000000000000000e+00,-1.695430527353789074e+00,1.186202350967879016e-01,2.441764358392650991e-01,-2.020990709519645268e-01
5.900000000000000355e+00,1.644456140714283228e+09,-9.698235392873497118e-02,-1.295610190326595523e+00,0.000000000000000000e+00,-1.727480253768793883e+00,4.139683920677833529e-02,2.406627994407141979e-01,-2.194889904054105612e-01
5.916666666666666963e+00,1.644456140729207754e+09,-9.238588499630499828e-02,-1.271572895515341806e+00,0.000000000000000000e+00,-1.695430527353789074e+00,-3.242496510108910934e-02,2.368548566943317890e-01,-2.374143453359686684e-01
5.933333333333333570e+00,1.644456140747169733e+09,-8.753878598151111634e-02,-1.271572895515341806e+00,0.000000000000000000e+00,-1.695430527353789074e+00,-1.020550518565362941e-01,2.327410165490812477e-01,-2.561943043135827547e-01
5.950000000000000178e+00,1.644456140762983084e+09,-8.249010875295824385e-02,-1.271572895515341806e+00,0.000000000000000000e+00,-1.695430527353789074e+00,-1.667330357931020579e-01,2.283078376294280232e-01,-2.757328909157369390e-01
5.966666666666666785e+00,1.644456140780521154e+09,-7.728942972461673444e-02,-1.271572895515341806e+00,0.000000000000000000e+00,-1.695430527353789074e+00,-2.257350225484219264e-01,2.235435648952186494e-01,-2.959237501492569811e-01
5.983333333333333393e+00,1.644456140797776699e+09,-7.198641954006305965e-02,-1.271572895515341806e+00,0.000000000000000000e+00,-1.695430527353789074e+00,-2.783800859149413442e-01,2.184382952495820263e-01,-3.166510301941251049e-01
6.000000000000000000e+00,1.644456140815728664e+09,-6.663041844110720313e-02,-1.271572895515341806e+00,0.000000000000000000e+00,-1.695430527353789074e+00,-3.240364183583587243e-01,2.129841277233747721e-01,-3.377903512324795243e-01
6.016666666666666607e+00,1.644456140830781698e+09,-6.127002132661639455e-02,-1.271572895515341806e+00,0.000000000000000000e+00,-1.695430527353789074e+00,-3.621271035581705711e-01,2.071752968489853908e-01,-3.592098536759820160e-01
6.033333333333333215e+00,1.644456140847730398e+09,-5.595267638086542927e-02,-1.271572895515341806e+00,0.000000000000000000e+00,-1.695430527353789074e+00,-3.921354626778720265e-01,2.010082879700345881e-01,-3.807713174335847772e-01
6.049999999999999822e+00,1.644456140863655567e+09,-5.072430098675837634e-02,-1.271572895515341806e+00,0.000000000000000000e+00,-1.695430527353789074e+00,-4.136099294146600158e-01,1.944819333778623482e-01,-4.023313432569125547e-01
6.066666666666666430e+00,1.644456140881764889e+09,-4.562891843950359072e-02,-1.295610190326595523e+00,0.000000000000000000e+00,-1.727480253768793883e+00,-4.261684125871335604e-01,1.875941682763771767e-01,-4.241398882039895124e-01
6.083333333333333037e+00,1.644456140898226500e+09,-4.070831874289752156e-02,-1.295610190326595523e+00,0.000000000000000000e+00,-1.727480253768793883e+00,-4.295021090621422566e-01,1.803454791810634172e-01,-4.456430707651547474e-01
6.099999999999999645e+00,1.644456140915182590e+09,-3.600174650576439678e-02,-1.295610190326595523e+00,0.000000000000000000e+00,-1.727480253768793883e+00,-4.233787341686005012e-01,1.727422195036307506e-01,-4.666896264959753404e-01
6.116666666666666252e+00,1.644456140933134317e+09,-3.154561866297814904e-02,-1.295610190326595523e+00,0.000000000000000000e+00,-1.727480253768793883e+00,-4.076451413617874220e-01,1.647932639898193330e-01,-4.871282598436369460e-01
6.133333333333332860e+00,1.644456140948748589e+09,-2.737327442694405949e-02,-1.295610190326595523e+00,0.000000000000000000e+00,-1.727480253768793883e+00,-3.822293077493224001e-01,1.565099980287368020e-01,-5.068089855171530322e-01
6.150000000000000355e+00,1.644456140966039658e+09,-2.351475953467655616e-02,-1.271572895515341806e+00,0.000000000000000000e+00,-1.695430527353789074e+00,-3.471416671322082870e-01,1.479096046503288187e-01,-5.251871681828709226e-01
6.166666666666666963e+00,1.644456140984410524e+09,-1.999664649613278056e-02,-1.295610190326595523e+00,0.000000000000000000e+00,-1.727480253768793883e+00,-3.024757774101680674e-01,1.390082958630743382e-01,-5.429206255245624391e-01
6.183333333333333570e+00,1.644456140999838352e+09,-1.684189217492283036e-02,-1.295610190326595523e+00,0.000000000000000000e+00,-1.727480253768793883e+00,-2.484083145092523814e-01,1.298213466323888121e-01,-5.594673180411410263e-01
6.200000000000000178e+00,1.644456141015792608e+09,-1.406973364673511778e-02,-1.271572895515341806e+00,0.000000000000000000e+00,-1.695430527353789074e+00,-1.851983903692093758e-01,1.203729552599357711e-01,-5.742984481000971142e-01
6.216666666666666785e+00,1.644456141032747269e+09,-1.169562288762039659e-02,-1.271572895515341806e+00,0.000000000000000000e+00,-1.695430527353789074e+00,-1.131861979351049818e-01,1.106893732295351762e-01,-5.876941842938706584e-01
6.233333333333333393e+00,1.644456141049701691e+09,-9.731200447677210152e-03,-1.247535600704088088e+00,0.000000000000000000e+00,-1.663380800938784265e+00,-3.279099149011255321e-02,1.007988034241878578e-01,-5.991423910250933682e-01
6.250000000000000000e+00,1.644456141067653656e+09,-8.184307869671988978e-03,-1.175423716270325381e+00,0.000000000000000000e+00,-1.567231621693767174e+00,5.549158399979603473e-02,9.074116516818306333e-02,-6.077502883069307860e-01
6.266666666666666607e+00,1.644456141084644318e+09,-7.059038220632550542e-03,-1.079274537025308733e+00,0.000000000000000000e+00,-1.439032716033745052e+00,1.510927956246856940e-01,8.056773554421352290e-02,-6.130465543729716194e-01
6.283333333333333215e+00,1.644456141100565910e+09,-6.355823721410962246e-03,-9.831253577802923083e-01,0.000000000000000000e+00,-1.310833810373723152e+00,2.533747333571412241e-01,7.033417374694336810e-02,-6.149755029827539410e-01
6.299999999999999822e+00,1.644456141117572784e+09,-6.071559088466869925e-03,-8.148642941015139529e-01,0.000000000000000000e+00,-1.086485725468685271e+00,3.616348000618868630e-01,6.010692247002596272e-02,-6.123020766064969367e-01
6.316666666666666430e+00,1.644456141136508465e+09,-6.199758847324907812e-03,-7.187151148564974168e-01,0.000000000000000000e+00,-9.582868198086632594e-01,4.751107470972791846e-01,4.995281257143320552e-02,-6.062080395038911274e-01
6.333333333333333037e+00,1.644456141154422045e+09,-6.730746541849387532e-03,-6.466032304227345984e-01,0.000000000000000000e+00,-8.621376405636461682e-01,5.929862174901827654e-01,3.992566939468539244e-02,-5.970745132093525642e-01
6.349999999999999645e+00,1.644456141171376467e+09,-7.651873450986935304e-03,-5.985286408002263858e-01,0.000000000000000000e+00,-7.980381877336351071e-01,7.143967545333952396e-01,3.007289949923398417e-02,-5.852906080850149850e-01
6.366666666666666252e+00,1.644456141187366724e+09,-8.947764137998255596e-03,-5.504540511777180622e-01,0.000000000000000000e+00,-7.339387349036241570e-01,8.384362298498807542e-01,2.043867290419526528e-02,-5.708566785121068632e-01
6.383333333333332860e+00,1.644456141211270809e+09,-1.060058589932478049e-02,-5.264167563664644556e-01,0.000000000000000000e+00,-7.018890084886192371e-01,9.641636415225498524e-01,1.106370375647145951e-02,-5.541859279451150089e-01
6.400000000000000355e+00,1.644456141223240376e+09,-1.259033895350508692e-02,-5.264167563664644556e-01,0.000000000000000000e+00,-7.018890084886192371e-01,1.090610229827529976e+00,1.981742745014202986e-03,-5.357007423759733156e-01
6.416666666666666963e+00,1.644456141238198280e+09,-1.489516401735762122e-02,-4.783421667439561875e-01,0.000000000000000000e+00,-6.377895556586082870e-01,1.216786855460534555e+00,-6.770617358547647777e-03,-5.146409707938017775e-01
6.433333333333333570e+00,1.644456141258144855e+09,-1.749166375865356809e-02,-4.062302823101942573e-01,0.000000000000000000e+00,-5.416403764135924170e-01,1.341691582927897031e+00,-1.514767802249105885e-02,-4.906728884528966383e-01
6.450000000000000178e+00,1.644456141272107124e+09,-2.035523449335263635e-02,-3.581556926876860447e-01,0.000000000000000000e+00,-4.775409235835813559e-01,1.464317410008237008e+00,-2.310500390418210315e-02,-4.642795339491964102e-01
6.466666666666666785e+00,1.644456141288818359e+09,-2.346040441224056528e-02,-3.100811030651777767e-01,0.000000000000000000e+00,-4.134414707535703504e-01,1.583660082887222931e+00,-3.060296225160528960e-02,-4.355552592714058147e-01
6.483333333333333393e+00,1.644456141306770563e+09,-2.678117457725891909e-02,-2.379692186314149582e-01,0.000000000000000000e+00,-3.172922915085532591e-01,1.698725935742416482e+00,-3.760029701641239702e-02,-4.042119792214153295e-01
6.500000000000000000e+00,1.644456141324689388e+09,-3.029135892226969204e-02,-1.898946290089067179e-01,0.000000000000000000e+00,-2.531928386785423091e-01,1.808539693210222454e+00,-4.405776531258438072e-02,-3.707770931885547849e-01
6.516666666666666607e+00,1.644456141339683294e+09,-3.396491952647218149e-02,-1.418200393863984776e-01,0.000000000000000000e+00,-1.890933858485313035e-01,1.912152174308852093e+00,-4.994165245745510462e-02,-3.353876704616431947e-01
6.533333333333333215e+00,1.644456141356638908e+09,-3.777629350070338399e-02,-1.177827445751448016e-01,0.000000000000000000e+00,-1.570436594335263836e-01,2.008647837017716320e+00,-5.522395582270082925e-02,-2.985909488890212682e-01
6.549999999999999822e+00,1.644456141374589682e+09,-4.170070793660360375e-02,-6.970815495263654737e-02,0.000000000000000000e+00,-9.294420660351540575e-02,2.097152103821020130e+00,-5.987919853681519106e-02,-2.601449736937672119e-01
6.566666666666666430e+00,1.644456141391546726e+09,-4.571447951492152439e-02,-4.567086014138197619e-02,0.000000000000000000e+00,-6.089448018850930622e-02,2.176838410102963639e+00,-6.388465881941463032e-02,-2.206200542451414170e-01
6.583333333333333037e+00,1.644456141408465624e+09,-4.979529555047502998e-02,-4.567086014138197619e-02,0.000000000000000000e+00,-6.089448018850930622e-02,2.246934919322044699e+00,-6.722714788130354502e-02,-1.805898308635748017e-01
6.599999999999999645e+00,1.644456141427415848e+09,-5.392247346558926707e-02,-2.163356533012830360e-02,0.000000000000000000e+00,-2.884475377350440711e-02,2.306730851376812552e+00,-6.989641646080196891e-02,-1.398356075166316548e-01
6.616666666666666252e+00,1.644456141443419933e+09,-5.807719592889593052e-02,-2.163356533012830360e-02,0.000000000000000000e+00,-2.884475377350440711e-02,2.355582373485738401e+00,-7.188532958157269059e-02,-9.894754759326744586e-02
6.633333333333332860e+00,1.644456141460265160e+09,-6.224271916970319091e-02,2.403729481126268882e-03,0.000000000000000000e+00,3.204972641501691987e-03,2.392918006217593430e+00,-7.318994565681700981e-02,-5.772090258971113858e-02
6.649999999999999467e+00,1.644456141474223375e+09,-6.640455227682096062e-02,2.403729481126268882e-03,0.000000000000000000e+00,3.204972641501691987e-03,2.418243500999037288e+00,-7.380964725680494443e-02,-1.675708048172047659e-02
6.666666666666666963e+00,1.644456141493085146e+09,-7.055060561168441380e-02,2.403729481126268882e-03,0.000000000000000000e+00,3.204972641501691987e-03,2.431146149465964967e+00,-7.375049431163138713e-02,2.374293122222415064e-02
6.683333333333333570e+00,1.644456141509891748e+09,-7.467130680555507383e-02,2.403729481126268882e-03,0.000000000000000000e+00,3.204972641501691987e-03,2.431298489381276795e+00,-7.302191401195186338e-02,6.357605457025133910e-02
6.700000000000000178e+00,1.644456141527923584e+09,-7.875968316591992757e-02,-2.163356533012830360e-02,0.000000000000000000e+00,-2.884475377350440711e-02,2.418461376481243263e+00,-7.164004320560331263e-02,1.021413139497547029e-01
6.716666666666666785e+00,1.644456141545080900e+09,-8.281140968435618532e-02,2.403729481126268882e-03,0.000000000000000000e+00,3.204972641501691987e-03,2.392486396499021950e+00,-6.962101236317415343e-02,1.400371185403280205e-01
6.733333333333333393e+00,1.644456141561323404e+09,-8.682482221324211435e-02,2.403729481126268882e-03,0.000000000000000000e+00,3.204972641501691987e-03,2.353317596708427217e+00,-6.698102897917891652e-02,1.766591572594919946e-01
6.750000000000000000e+00,1.644456141578246832e+09,-9.080089575795460832e-02,-2.163356533012830360e-02,0.000000000000000000e+00,-2.884475377350440711e-02,2.300992521594732665e+00,-6.374628374609550563e-02,2.114137279641519762e-01
6.766666666666666607e+00,1.644456141595258713e+09,-9.474318821064836582e-02,-2.163356533012830360e-02,0.000000000000000000e+00,-2.884475377350440711e-02,2.235642542649780129e+00,-5.994612215828131613e-02,2.445137159983319930e-01
6.783333333333333215e+00,1.644456141613665104e+09,-9.865775022751177570e-02,2.403729481126268882e-03,0.000000000000000000e+00,3.204972641501691987e-03,2.157492477764603400e+00,-5.560633997289733677e-02,2.761722039337101697e-01
6.799999999999999822e+00,1.644456141628617764e+09,-1.025530023196244700e-01,2.403729481126268882e-03,0.000000000000000000e+00,3.204972641501691987e-03,2.066859501210736028e+00,-5.075580728001889697e-02,3.058093917523627692e-01
6.816666666666666430e+00,1.644456141647569895e+09,-1.064395805844383924e-01,2.403729481126268882e-03,0.000000000000000000e+00,3.204972641501691987e-03,1.964151350717902034e+00,-4.542960106099366846e-02,3.332591035366546661e-01
6.833333333333333037e+00,1.644456141662571669e+09,-1.103301528467933307e-01,2.403729481126268882e-03,0.000000000000000000e+00,3.204972641501691987e-03,1.849863843627890247e+00,-3.966547646095728435e-02,3.583661051551019217e-01
6.849999999999999645e+00,1.644456141679498911e+09,-1.142392073017333975e-01,2.403729481126268882e-03,0.000000000000000000e+00,3.204972641501691987e-03,1.724577719488970651e+00,-3.350367420751822894e-02,3.809873270511645038e-01
6.866666666666666252e+00,1.644456141695931911e+09,-1.181828160528741456e-01,2.403729481126268882e-03,0.000000000000000000e+00,3.204972641501691987e-03,1.588954831709383120e+00,-2.698670834453244932e-02,4.009930038746872261e-01
6.883333333333332860e+00,1.644456141713823080e+09,-1.221783762165820075e-01,-2.163356533012830360e-02,0.000000000000000000e+00,-2.884475377350440711e-02,1.443733715972077114e+00,-2.016245578467311741e-02,4.178704204921936949e-01
6.899999999999999467e+00,1.644456141731156588e+09,-1.262443315109153807e-01,2.403729481126268882e-03,0.000000000000000000e+00,3.204972641501691987e-03,1.289724567984199766e+00,-1.307719584227286409e-02,4.323206321742155689e-01
6.916666666666666963e+00,1.644456141750317097e+09,-1.303998774665195426e-01,2.403729481126268882e-03,0.000000000000000000e+00,3.204972641501691987e-03,1.127803667757330874e+00,-5.775459504486539497e-03,4.438556857904035202e-01
6.933333333333333570e+00,1.644456141767591238e+09,-1.346646535822739188e-01,2.403729481126268882e-03,0.000000000000000000e+00,3.204972641501691987e-03,9.589072919506119730e-01,1.693606447840939090e-03,4.524084701952716947e-01
6.950000000000000178e+00,1.644456141783402443e+09,-1.390584258994462530e-01,2.403729481126268882e-03,0.000000000000000000e+00,3.204972641501691987e-03,7.840251598242363729e-01,9.279882684716186242e-03,4.579293421134858488e-01
6.966666666666666785e+00,1.644456141800102234e+09,-1.436007635828583096e-01,-4.567086014138197619e-02,0.000000000000000000e+00,-6.089448018850930622e-02,6.041934620151179214e-01,1.692593237783884125e-02,4.595920024515921520e-01
6.983333333333333393e+00,1.644456141817820549e+09,-1.483107131749152041e-01,-2.620065134426695641e-01,0.000000000000000000e+00,-3.493420179235594003e-01,4.204875246291970292e-01,2.454420948500613681e-02,4.546150755308669966e-01
7.000000000000000000e+00,1.644456141834956169e+09,-1.532064742273988034e-01,-4.302675771214479750e-01,0.000000000000000000e+00,-5.736901028285972259e-01,2.340141640211341745e-01,3.203122913010621881e-02,4.438571656674283328e-01
7.016666666666666607e+00,1.644456141851962805e+09,-1.583050800162610072e-01,-4.543048719327025253e-01,0.000000000000000000e+00,-6.057398292436033671e-01,4.590379007874738349e-02,3.931113422349671871e-02,4.297705758764718831e-01
7.033333333333333215e+00,1.644456141867957115e+09,-1.636220870062047583e-01,-4.543048719327025253e-01,0.000000000000000000e+00,-6.057398292436033671e-01,-1.426976821726882727e-01,4.633215873772793952e-02,4.127995087938174934e-01
7.049999999999999822e+00,1.644456141885583401e+09,-1.691712766549235969e-01,-5.023794615552107379e-01,0.000000000000000000e+00,-6.698392820736143172e-01,-3.306370512982388377e-01,5.304007782042199914e-02,3.922079811635659219e-01
7.066666666666666430e+00,1.644456141902850151e+09,-1.749643730322291701e-01,-5.504540511777180622e-01,0.000000000000000000e+00,-7.339387349036241570e-01,-5.167621161087071480e-01,5.937530111488691087e-02,3.680858217476605798e-01
7.083333333333333037e+00,1.644456141918641090e+09,-1.810107795780233619e-01,-6.466032304227345984e-01,0.000000000000000000e+00,-8.621376405636461682e-01,-6.999299672690042495e-01,6.527324077617079057e-02,3.397456621248476916e-01
7.099999999999999645e+00,1.644456141936333418e+09,-1.873173381366136370e-01,-7.427524096677511345e-01,0.000000000000000000e+00,-9.903365462236681793e-01,-8.790152208035122428e-01,7.066474328353958279e-02,3.073246991096245107e-01
7.116666666666666252e+00,1.644456141953409433e+09,-1.938881131851636352e-01,-7.908269992902593470e-01,0.000000000000000000e+00,-1.054435999053679129e+00,-1.052918130852799949e+00,7.548971476389507163e-02,2.717706421268847317e-01
7.133333333333332860e+00,1.644456141971252203e+09,-2.007242039231267317e-01,-9.765618439066361400e-01,-7.429393784655068389e-01,-1.054435999053679129e+00,-1.220572519933721400e+00,7.967821907467315112e-02,2.309632317521007061e-01
7.149999999999999467e+00,1.644456141986893415e+09,-2.078235866099985008e-01,-1.038432410508735915e+00,-9.904216448739060485e-01,-1.054435999053679129e+00,-1.380953466333244561e+00,8.316153872921462631e-02,1.871568141501928906e-01
7.166666666666666963e+00,1.644456142004975557e+09,-2.151809892332839369e-01,-1.084013920476078585e+00,-1.076598505498258529e+00,-1.086485725468685271e+00,-1.533084690115037008e+00,8.589349380654323629e-02,1.408065488963456957e-01
7.183333333333333570e+00,1.644456142021206379e+09,-2.227878002603715935e-01,-1.089269078997409101e+00,-1.001469960338565945e+00,-1.118535451883690079e+00,-1.676045581522037864e+00,8.783887470996705471e-02,9.277259031759776953e-02
7.200000000000000178e+00,1.644456142038600206e+09,-2.306320128802480940e-01,-1.101705642570770083e+00,-9.550670353869918916e-01,-1.150585178298696221e+00,-1.808977818299935647e+00,8.897024570016551226e-02,4.312982831288755814e-02
7.216666666666666785e+00,1.644456142055426598e+09,-2.386982057771964705e-01,-1.157230636456306749e+00,-1.081017831684123465e+00,-1.182634904713701030e+00,-1.931091521625265539e+00,8.925655846118182857e-02,-8.628520416154972228e-03
7.233333333333333393e+00,1.644456142073027372e+09,-2.469675611024846063e-01,-1.051719223768797340e+00,-6.589721809340860492e-01,-1.182634904713701030e+00,-2.041670903870746123e+00,8.868668097518236926e-02,-5.961514505748123638e-02
7.250000000000000000e+00,1.644456142088985443e+09,-2.554179199253030497e-01,-1.055033718408195487e+00,-6.722301594916786360e-01,-1.182634904713701030e+00,-2.140079365355252783e+00,8.726001868440713682e-02,-1.114403674960968149e-01
7.266666666666666607e+00,1.644456142105278015e+09,-2.640238750547782565e-01,-9.350507681577840957e-01,0.000000000000000000e+00,-1.246734357543712202e+00,-2.225764001471622677e+00,8.498149811216622329e-02,-1.618420930843459948e-01
7.283333333333333215e+00,1.644456142122015238e+09,-2.727569007347003249e-01,-9.831253577802923083e-01,0.000000000000000000e+00,-1.310833810373723152e+00,-2.298259486133265472e+00,8.185325709278729045e-02,-2.134035994635263556e-01
7.299999999999999822e+00,1.644456142137183189e+09,-2.815855183256091299e-01,-9.831253577802923083e-01,0.000000000000000000e+00,-1.310833810373723152e+00,-2.357191302291071100e+00,7.786463964289115636e-02,-2.650869263481529514e-01
7.316666666666666430e+00,1.644456142155211926e+09,-2.904754967090219520e-01,-1.007162652591546914e+00,0.000000000000000000e+00,-1.342883536788729293e+00,-2.402278295310530165e+00,7.301222445735616740e-02,-3.170585269609859091e-01
7.333333333333333037e+00,1.644456142172076702e+09,-2.993900857797282544e-01,-9.831253577802923083e-01,0.000000000000000000e+00,-1.310833810373723152e+00,-2.433334530223866032e+00,6.729982481217379464e-02,-3.682871254492061652e-01
7.349999999999999645e+00,1.644456142189768553e+09,-3.082902810379646863e-01,-9.831253577802923083e-01,0.000000000000000000e+00,-1.310833810373723152e+00,-2.450270439243618981e+00,6.073835171556819790e-02,-4.189489156363324085e-01
7.366666666666666252e+00,1.644456142205424309e+09,-3.171351169575941653e-01,-1.007162652591546914e+00,0.000000000000000000e+00,-1.342883536788729293e+00,-2.453093251399818264e+00,5.333580294953981643e-02,-4.692172986034934823e-01
7.383333333333332860e+00,1.644456142223036766e+09,-3.258819864925387999e-01,-9.831253577802923083e-01,0.000000000000000000e+00,-1.310833810373723152e+00,-2.441906701700019333e+00,4.510725602984286264e-02,-5.180726193418017100e-01
7.399999999999999467e+00,1.644456142239416122e+09,-3.344869837949294156e-01,-1.007162652591546914e+00,0.000000000000000000e+00,-1.342883536788729293e+00,-2.416910022766624699e+00,3.607133419639887290e-02,-5.661045754309939060e-01
7.416666666666666963e+00,1.644456142256408691e+09,-3.429052669577505319e-01,-1.007162652591546914e+00,0.000000000000000000e+00,-1.342883536788729293e+00,-2.378396227435629395e+00,2.624683350383833630e-02,-6.127060560722196181e-01
7.433333333333333570e+00,1.644456142273830175e+09,-3.510914373648073572e-01,-1.007162652591546914e+00,0.000000000000000000e+00,-1.342883536788729293e+00,-2.326749696261700251e+00,1.565921153167221247e-02,-6.576836399142742540e-01
7.450000000000000178e+00,1.644456142290809870e+09,-3.589999320342097677e-01,-1.007162652591546914e+00,0.000000000000000000e+00,-1.342883536788729293e+00,-2.262443089224183801e+00,4.337057549112458693e-03,-7.008549149619767160e-01
7.466666666666666785e+00,1.644456142307825089e+09,-3.665854251801404784e-01,-1.031199947402800632e+00,0.000000000000000000e+00,-1.374933263203734102e+00,-2.186033606124401896e+00,-7.691421173412902462e-03,-7.424469954649047798e-01
7.483333333333333393e+00,1.644456142324585199e+09,-3.738032350933847558e-01,-1.031199947402800632e+00,0.000000000000000000e+00,-1.374933263203734102e+00,-2.098158625167036551e+00,-2.039521918252450161e-02,-7.818991736652904923e-01
7.500000000000000000e+00,1.644456142342800140e+09,-3.806097323552172784e-01,-1.007162652591546914e+00,0.000000000000000000e+00,-1.342883536788729293e+00,-1.999530753987239340e+00,-3.373416176650425452e-02,-8.186717878576238450e-01
7.516666666666666607e+00,1.644456142360508204e+09,-3.869627453527976768e-01,-1.007162652591546914e+00,0.000000000000000000e+00,-1.342883536788729293e+00,-1.890932331883959261e+00,-4.766590253362044949e-02,-8.530416301650993738e-01
7.533333333333333215e+00,1.644456142379628658e+09,-3.928219590578525544e-01,-9.831253577802923083e-01,0.000000000000000000e+00,-1.310833810373723152e+00,-1.773209426213303797e+00,-6.214614683646735305e-02,-8.845002989288124340e-01
7.549999999999999822e+00,1.644456142395929813e+09,-3.981493030642920816e-01,-1.007162652591546914e+00,0.000000000000000000e+00,-1.342883536788729293e+00,-1.647265369750890551e+00,-7.713228178558173553e-02,-9.137546310187386611e-01
7.566666666666666430e+00,1.644456142412206650e+09,-4.029093249543763688e-01,-9.831253577802923083e-01,0.000000000000000000e+00,-1.310833810373723152e+00,-1.514053889319243451e+00,-9.258022903395039804e-02,-9.399263378886956177e-01
7.583333333333333037e+00,1.644456142429341793e+09,-4.070695451765071193e-01,-9.831253577802923083e-01,0.000000000000000000e+00,-1.310833810373723152e+00,-1.374571879068018809e+00,-1.084414912227531225e-01,-9.633600296473647795e-01
7.599999999999999645e+00,1.644456142446241617e+09,-4.106007897696670739e-01,-9.831253577802923083e-01,0.000000000000000000e+00,-1.310833810373723152e+00,-1.229851874467344341e+00,-1.246700894684220073e-01,-9.840143852724898554e-01
7.616666666666666252e+00,1.644456142462883711e+09,-4.134774974586764018e-01,-9.831253577802923083e-01,0.000000000000000000e+00,-1.310833810373723152e+00,-1.080954285306986007e+00,-1.412195083752943447e-01,-1.001866293750405479e+00
7.633333333333332860e+00,1.644456142479915380e+09,-4.156779978689493782e-01,-9.831253577802923083e-01,0.000000000000000000e+00,-1.310833810373723152e+00,-9.289594477694446129e-01,-1.580429997728236557e-01,-1.016910882445371866e+00
7.649999999999999467e+00,1.644456142496769905e+09,-4.171847578673076318e-01,-9.590880629690387016e-01,0.000000000000000000e+00,-1.278784083958718121e+00,-7.749595569495314473e-01,-1.750905657642568836e-01,-1.028764110119248176e+00
7.666666666666666963e+00,1.644456142513910532e+09,-4.179845933241574385e-01,-9.831253577802923083e-01,0.000000000000000000e+00,-1.310833810373723152e+00,-6.200505420165939308e-01,-1.923159723092495721e-01,-1.038258301904203540e+00
7.683333333333333570e+00,1.644456142530224085e+09,-4.180688439092607456e-01,-9.590880629690387016e-01,0.000000000000000000e+00,-1.278784083958718121e+00,-4.653239465527032048e-01,-2.096736130837620060e-01,-1.044640861288386846e+00
7.700000000000000178e+00,1.644456142547620773e+09,-4.174335088753854395e-01,-8.389015889127675596e-01,0.000000000000000000e+00,-1.118535451883690079e+00,-3.118588764476110109e-01,-2.270989513979001784e-01,-1.046394864063588281e+00
7.716666666666666785e+00,1.644456142564116716e+09,-4.160793421480408760e-01,-7.187151148564974168e-01,0.000000000000000000e+00,-9.582868198086632594e-01,-1.607140770918158434e-01,-2.445158044170163691e-01,-1.043635164243610580e+00
7.733333333333333393e+00,1.644456142582125187e+09,-4.140119054217625827e-01,-5.744913459889726681e-01,0.000000000000000000e+00,-7.659884613186302982e-01,-1.292020048670783350e-02,-2.618467099873479920e-01,-1.036094451114540238e+00
7.750000000000000000e+00,1.644456142599410295e+09,-4.112415783603626251e-01,-4.783421667439561875e-01,0.000000000000000000e+00,-6.377895556586082870e-01,1.305276787035851704e-01,-2.790198852673252961e-01,-1.024718183968569063e+00
7.766666666666666607e+00,1.644456142614439249e+09,-4.077835254062992520e-01,-4.783421667439561875e-01,0.000000000000000000e+00,-6.377895556586082870e-01,2.686772411891830137e-01,-2.959859461040612594e-01,-1.011246538557746044e+00
7.783333333333333215e+00,1.644456142632570744e+09,-4.036576191189326646e-01,-4.062302823101942573e-01,0.000000000000000000e+00,-5.416403764135924170e-01,4.006257407094206968e-01,-3.127011553056175952e-01,-9.946247383828692445e-01
7.799999999999999822e+00,1.644456142648736000e+09,-3.988883203788495813e-01,-3.341183978764314388e-01,0.000000000000000000e+00,-4.454911971685752703e-01,5.255264097559202430e-01,-3.291144188434029783e-01,-9.750213413137590601e-01
7.816666666666666430e+00,1.644456142664932966e+09,-3.935045162116080353e-01,-3.100811030651777767e-01,0.000000000000000000e+00,-4.134414707535703504e-01,6.425944051368026599e-01,-3.451841771945990955e-01,-9.534096945947024837e-01
7.833333333333333037e+00,1.644456142683221817e+09,-3.875393163950747732e-01,-1.898946290089067179e-01,0.000000000000000000e+00,-2.531928386785423091e-01,7.511122488494506033e-01,-3.608651376907522912e-01,-9.283751071012068534e-01
7.849999999999999645e+00,1.644456142701534510e+09,-3.810298104159839938e-01,-9.374544976389022344e-02,0.000000000000000000e+00,-1.249939330185202979e-01,8.504347237697198469e-01,-3.761053142093219726e-01,-9.005234426825400318e-01
7.866666666666666252e+00,1.644456142718857050e+09,-3.740167867294992843e-01,2.900004311662146561e-01,7.657900897602876178e-01,1.314038783015236689e-01,9.399931880164164033e-01,-3.908197701743795216e-01,-8.653090930644385947e-01
7.883333333333332860e+00,1.644456142733829975e+09,-3.665444166465574027e-01,3.972189118676217601e-01,8.100672955858501112e-01,2.596027839615456800e-01,1.019299276479415317e+00,-4.049264212694455578e-01,-8.275938054969219637e-01
7.899999999999999467e+00,1.644456142753005743e+09,-3.586599055239725886e-01,4.849033311753983555e-01,7.762082558368906815e-01,3.878016896215676357e-01,1.087947962869071361e+00,-4.183881006861593366e-01,-7.879179378461337313e-01
7.916666666666666963e+00,1.644456142768073559e+09,-3.504131142581878855e-01,5.882149995980793244e-01,8.048582125475484128e-01,5.160005952815897023e-01,1.145619960717093155e+00,-4.311717605483521565e-01,-7.462370286453546830e-01
7.933333333333333570e+00,1.644456142786248446e+09,-3.418561543819562121e-01,6.863175849824588726e-01,8.126718371050009049e-01,6.441995009416116025e-01,1.192083446992128204e+00,-4.432465280405564756e-01,-7.028555772869072849e-01
7.950000000000000178e+00,1.644456142802305937e+09,-3.330429603310953723e-01,7.870247118859891033e-01,8.309036277390553504e-01,7.723984066016336136e-01,1.227195097348175779e+00,-4.545855038538763049e-01,-6.579462713196847501e-01
7.966666666666666785e+00,1.644456142819531918e+09,-3.240288426832011459e-01,8.500207010027227561e-01,7.944400464709457932e-01,8.685475858466483734e-01,1.250900427456019370e+00,-4.651702189006849397e-01,-6.123462041318971094e-01
7.983333333333333393e+00,1.644456142834723949e+09,-3.148700263692753576e-01,9.331471726519855459e-01,7.423492160879312518e-01,9.967464915066702735e-01,1.263233440335604696e+00,-4.749880462200955500e-01,-5.659220332626933025e-01
8.000000000000000000e+00,1.644456142853060484e+09,-3.056231780208033544e-01,1.000049974047446888e+00,7.215128839347254575e-01,1.092895670751687476e+00,1.264315585066730252e+00,-4.840291593733160314e-01,-5.191414941242364911e-01
8.016666666666665719e+00,1.644456142868021488e+09,-2.963449267370928952e-01,8.677463426862747076e-01,0.000000000000000000e+00,1.156995123581699536e+00,1.254354037663860888e+00,-4.923167079631139420e-01,-4.754856058619363335e-01
8.033333333333333215e+00,1.644456142885081291e+09,-2.870913826394132506e-01,9.158209323087820319e-01,0.000000000000000000e+00,1.221094576411709376e+00,1.233639320215642377e+00,-4.998789092290801817e-01,-4.320990670538963352e-01
8.050000000000000711e+00,1.644456142902787924e+09,-2.779176576188028824e-01,9.398582271200357496e-01,0.000000000000000000e+00,1.253144302826714185e+00,1.202542279568259875e+00,-5.067249691809186940e-01,-3.895463319905861921e-01
8.066666666666666430e+00,1.644456142917534828e+09,-2.688773926827817684e-01,9.638955219312912437e-01,0.000000000000000000e+00,1.285194029241721658e+00,1.161510451834448343e+00,-5.128700415800686585e-01,-3.479778266953406085e-01
8.083333333333333925e+00,1.644456142935193062e+09,-2.600222962625641232e-01,1.036007406365052175e+00,0.000000000000000000e+00,1.381343208486736307e+00,1.111063843796362693e+00,-5.183250546015378823e-01,-3.067382928378477591e-01
8.099999999999999645e+00,1.644456142951570988e+09,-2.514016977570824318e-01,1.084081995987561386e+00,0.000000000000000000e+00,1.445442661316748589e+00,1.051790166803376003e+00,-5.230999849072449637e-01,-2.663654931522917435e-01
8.116666666666667140e+00,1.644456142968550205e+09,-2.430621204638080124e-01,1.132156585610068600e+00,0.000000000000000000e+00,1.509542114146758207e+00,9.843395630097362403e-01,-5.272102877541756660e-01,-2.269802544950310086e-01
8.133333333333332860e+00,1.644456142986637831e+09,-2.350468778802839998e-01,1.180231175232577812e+00,0.000000000000000000e+00,1.573641566976770489e+00,9.094188677184922298e-01,-5.306733178631444225e-01,-1.886897236702110292e-01
8.150000000000000355e+00,1.644456143002561569e+09,-2.273956971558225848e-01,1.204268470043831529e+00,0.000000000000000000e+00,1.605691293391775298e+00,8.277854551660860372e-01,-5.335114163701107914e-01,-1.519840597430793250e-01
8.166666666666666075e+00,1.644456143020379782e+09,-2.201443732319980362e-01,1.228305764855085247e+00,0.000000000000000000e+00,1.637741019806780329e+00,7.402407182692034571e-01,-5.357515952958309402e-01,-1.169347727652876867e-01
8.183333333333333570e+00,1.644456143037372828e+09,-2.133244569355098041e-01,1.228305764855085247e+00,0.000000000000000000e+00,1.637741019806780329e+00,6.476232356369717724e-01,-5.374252528365084380e-01,-8.399563188307586359e-02
8.199999999999999289e+00,1.644456143054832220e+09,-2.069629799803683889e-01,1.228305764855085247e+00,0.000000000000000000e+00,1.637741019806780329e+00,5.508016815045998493e-01,-5.385678473077580852e-01,-5.320124663916483976e-02
8.216666666666666785e+00,1.644456143071409702e+09,-2.010822195009973057e-01,1.228305764855085247e+00,0.000000000000000000e+00,1.637741019806780329e+00,4.506675361533216684e-01,-5.392152859389178765e-01,-2.457091965786493276e-02
8.233333333333332504e+00,1.644456143087888002e+09,-1.956995043770032860e-01,1.252343059666338965e+00,0.000000000000000000e+00,1.669790746221785138e+00,3.481276558277879851e-01,-5.394003497050527951e-01,2.288656033172103976e-03
8.250000000000000000e+00,1.644456143104961395e+09,-1.908270652272966161e-01,1.252343059666338965e+00,0.000000000000000000e+00,1.669790746221785138e+00,2.440967621393521636e-01,-5.391558325332783674e-01,2.698480255815919465e-02
8.266666666666665719e+00,1.644456143121855021e+09,-1.864719295498350471e-01,1.252343059666338965e+00,0.000000000000000000e+00,1.669790746221785138e+00,1.394899114391278672e-01,-5.385175723139160597e-01,4.954375852388798185e-02
8.283333333333333215e+00,1.644456143138831377e+09,-1.826358630670870120e-01,1.252343059666338965e+00,0.000000000000000000e+00,1.669790746221785138e+00,3.521500466166127552e-02,-5.375208478515334232e-01,7.000633513363871407e-02
8.300000000000000711e+00,1.644456143156280994e+09,-1.793153579105091766e-01,1.252343059666338965e+00,0.000000000000000000e+00,1.669790746221785138e+00,-6.783460232903626430e-02,-5.362001400100828707e-01,8.842743491447654924e-02
8.316666666666666430e+00,1.644456143173087597e+09,-1.765016678438828257e-01,1.276380354477594237e+00,0.000000000000000000e+00,1.701840472636792390e+00,-1.687873288019181572e-01,-5.345855817682446665e-01,1.052727604338996592e-01
8.333333333333333925e+00,1.644456143190764904e+09,-1.741808902894502187e-01,1.252343059666338965e+00,0.000000000000000000e+00,1.669790746221785138e+00,-2.668003819565986090e-01,-5.327094524408095833e-01,1.198223424016268690e-01
8.349999999999999645e+00,1.644456143206473351e+09,-1.723340944865965896e-01,1.252343059666338965e+00,0.000000000000000000e+00,1.669790746221785138e+00,-3.610664966543117860e-01,-5.306058597588982906e-01,1.325733591032494108e-01
8.366666666666667140e+00,1.644456143223159790e+09,-1.709374946844225973e-01,1.276380354477594237e+00,0.000000000000000000e+00,1.701840472636792390e+00,-4.508203485956050471e-01,-5.283005881124106518e-01,1.440274208881282825e-01
8.383333333333332860e+00,1.644456143241569757e+09,-1.699626668511669547e-01,1.276380354477594237e+00,0.000000000000000000e+00,1.701840472636792390e+00,-5.353445901971962684e-01,-5.258176720073292065e-01,1.538951008543867904e-01
8.400000000000000355e+00,1.644456143257441759e+09,-1.693768069789876596e-01,1.276380354477594237e+00,0.000000000000000000e+00,1.701840472636792390e+00,-6.139754615602981414e-01,-5.231825180335446523e-01,1.623000284292238082e-01
8.416666666666666075e+00,1.644456143274905443e+09,-1.691430286759512402e-01,1.433968837168707156e+00,6.303539307644506762e-01,1.701840472636792390e+00,-6.861079324402112878e-01,-5.203966395993118166e-01,1.719784984071325296e-01
8.433333333333333570e+00,1.644456143290721416e+09,-1.692206973720258578e-01,1.276380354477594237e+00,0.000000000000000000e+00,1.701840472636792390e+00,-7.512003349908185079e-01,-5.174815469221973885e-01,1.778164060547976766e-01
8.449999999999999289e+00,1.644456143308770180e+09,-1.695657981257831515e-01,1.276380354477594237e+00,0.000000000000000000e+00,1.701840472636792390e+00,-8.087784512398255021e-01,-5.144779148371518840e-01,1.826061390237150028e-01
8.466666666666666785e+00,1.644456143325704098e+09,-1.701313337067426601e-01,1.413783640395289032e+00,5.496131436707789586e-01,1.701840472636792390e+00,-8.584390237144696734e-01,-5.113829963622368302e-01,1.887669641601469883e-01
8.483333333333332504e+00,1.644456143342524767e+09,-1.708677493477900600e-01,1.276380354477594237e+00,0.000000000000000000e+00,1.701840472636792390e+00,-8.998526623501303945e-01,-5.082109466874670245e-01,1.918703760208348985e-01
8.500000000000000000e+00,1.644456143359747887e+09,-1.717233803155149841e-01,1.276380354477594237e+00,0.000000000000000000e+00,1.701840472636792390e+00,-9.327661257352244384e-01,-5.049921481504661136e-01,1.943784812962067732e-01
8.516666666666665719e+00,1.644456143375203133e+09,-1.726449182360762502e-01,1.276380354477594237e+00,0.000000000000000000e+00,1.701840472636792390e+00,-9.570039598379814771e-01,-5.017352420213679887e-01,1.964445150777688609e-01
8.533333333333333215e+00,1.644456143392343998e+09,-1.735778919422258371e-01,1.276380354477594237e+00,0.000000000000000000e+00,1.701840472636792390e+00,-9.724694825812987276e-01,-4.984463234632454665e-01,1.982207777179179065e-01
8.550000000000000711e+00,1.644456143410298586e+09,-1.744671584751024407e-01,1.451549492422974375e+00,7.006765517815197741e-01,1.701840472636792390e+00,-9.791451079409250191e-01,-4.951047734580374948e-01,2.027526341207441241e-01
8.566666666666666430e+00,1.644456143425786018e+09,-1.752573997836113229e-01,1.276380354477594237e+00,0.000000000000000000e+00,1.701840472636792390e+00,-9.770920085955407952e-01,-4.917122293286814161e-01,2.043482290894222675e-01
8.583333333333333925e+00,1.644456143444794655e+09,-1.758936206153378645e-01,1.463269929259152446e+00,7.475582991262330612e-01,1.701840472636792390e+00,-9.664491215137547275e-01,-4.882660290520250412e-01,2.091823756085225139e-01
8.599999999999999645e+00,1.644456143461498976e+09,-1.763216430866963724e-01,1.492571021349597959e+00,8.647626674880147801e-01,1.701840472636792390e+00,-9.474315061782310199e-01,-4.847332535574669921e-01,2.147352587001538915e-01
8.616666666666667140e+00,1.644456143478401184e+09,-1.764885934561639114e-01,1.508849405844290059e+00,9.298762054667826238e-01,1.701840472636792390e+00,-9.203280703799461282e-01,-4.811027050596999310e-01,2.209133991267925590e-01
8.633333333333332860e+00,1.644456143494519472e+09,-1.763433767027970667e-01,1.501686916666625571e+00,9.012262487561250035e-01,1.701840472636792390e+00,-8.854986836234146619e-01,-4.773662195169621203e-01,2.274467174681082393e-01
8.650000000000000355e+00,1.644456143513757944e+09,-1.758371346319136941e-01,1.515360759642166766e+00,9.559216206582897835e-01,1.701840472636792390e+00,-8.433707031258168563e-01,-4.735140403446899682e-01,2.347943725711086060e-01
8.666666666666666075e+00,1.644456143530745506e+09,-1.749236833896570809e-01,1.508849405844290059e+00,9.298762054667826238e-01,1.701840472636792390e+00,-7.944349421306788894e-01,-4.695345554355329631e-01,2.427217953905117798e-01
8.683333333333333570e+00,1.644456143546289682e+09,-1.735599264666603248e-01,1.472385824576179836e+00,7.840218803943427295e-01,1.701840472636792390e+00,-7.392411147508283209e-01,-4.654214547213758046e-01,2.508277731734437910e-01
8.699999999999999289e+00,1.644456143563436508e+09,-1.717062395060707236e-01,1.276380354477594237e+00,0.000000000000000000e+00,1.701840472636792390e+00,-6.783927957718571822e-01,-4.611930419523512792e-01,2.565658197161815313e-01
8.716666666666666785e+00,1.644456143579921007e+09,-1.693268235007601152e-01,1.276380354477594237e+00,0.000000000000000000e+00,1.701840472636792390e+00,-6.125419377505694207e-01,-4.568606922627651556e-01,2.632974436387124917e-01
8.733333333333332504e+00,1.644456143599421501e+09,-1.663900232657081757e-01,1.276380354477594237e+00,0.000000000000000000e+00,1.701840472636792390e+00,-5.423829913035299599e-01,-4.524073882277013792e-01,2.710774289898830736e-01
8.750000000000000000e+00,1.644456143615344524e+09,-1.628686084016232882e-01,1.276380354477594237e+00,0.000000000000000000e+00,1.701840472636792390e+00,-4.686466776693810621e-01,-4.478153078491453054e-01,2.799475765581305731e-01
