2022-02-09-17:17:45.412888,3.0,12.0,378.0
2022-02-09-17:17:45.412888,5.0,12.0,377.0
2022-02-09-17:17:45.413886,4.0,11.0,377.0
2022-02-09-17:17:45.414883,3.0,12.0,377.0
2022-02-09-17:17:45.415880,5.0,5.0,377.0
2022-02-09-17:17:45.416877,7.0,12.0,377.0
2022-02-09-17:17:45.417875,8.0,4.0,377.0
2022-02-09-17:17:45.418872,0.0,10.0,378.0
2022-02-09-17:17:45.419870,2.0,9.0,378.0
2022-02-09-17:17:45.420868,5.0,11.0,378.0
2022-02-09-17:17:45.421865,5.0,11.0,378.0
2022-02-09-17:17:45.422862,6.0,13.0,377.0
2022-02-09-17:17:45.423859,6.0,13.0,377.0
2022-02-09-17:17:45.425854,6.0,11.0,378.0
2022-02-09-17:17:45.425854,1.0,2.0,378.0
2022-02-09-17:17:45.426851,9.0,12.0,378.0
2022-02-09-17:17:45.427848,6.0,4.0,377.0
2022-02-09-17:17:45.428846,4.0,10.0,377.0
2022-02-09-17:17:45.429843,6.0,7.0,377.0
2022-02-09-17:17:45.430840,5.0,0.0,377.0
2022-02-09-17:17:45.431838,5.0,0.0,377.0
2022-02-09-17:17:45.432835,5.0,10.0,378.0
2022-02-09-17:17:45.433832,7.0,3.0,377.0
2022-02-09-17:17:45.434830,1.0,12.0,378.0
2022-02-09-17:17:45.435828,4.0,7.0,377.0
2022-02-09-17:17:45.436824,8.0,13.0,377.0
2022-02-09-17:17:45.437822,3.0,5.0,378.0
2022-02-09-17:17:45.438819,2.0,13.0,377.0
2022-02-09-17:17:45.439817,2.0,9.0,377.0
2022-02-09-17:17:45.440814,6.0,8.0,377.0
2022-02-09-17:17:45.441811,3.0,12.0,378.0
2022-02-09-17:17:45.442809,7.0,9.0,377.0
2022-02-09-17:17:45.443806,7.0,9.0,377.0
2022-02-09-17:17:45.444803,4.0,8.0,377.0
2022-02-09-17:17:45.445800,5.0,7.0,378.0
2022-02-09-17:17:45.446800,5.0,4.0,377.0
2022-02-09-17:17:45.447795,6.0,2.0,377.0
2022-02-09-17:17:45.448792,9.0,9.0,378.0
2022-02-09-17:17:45.449789,7.0,14.0,377.0
2022-02-09-17:17:45.450787,3.0,8.0,378.0
2022-02-09-17:17:45.451784,4.0,12.0,377.0
2022-02-09-17:17:45.452781,5.0,7.0,377.0
2022-02-09-17:17:45.453779,9.0,7.0,377.0
2022-02-09-17:17:45.454776,5.0,8.0,378.0
2022-02-09-17:17:45.455773,4.0,12.0,378.0
2022-02-09-17:17:45.456771,3.0,8.0,378.0
2022-02-09-17:17:45.457768,7.0,9.0,377.0
2022-02-09-17:17:45.458765,6.0,11.0,378.0
2022-02-09-17:17:45.459763,6.0,11.0,378.0
2022-02-09-17:17:45.461758,10.0,5.0,377.0
2022-02-09-17:17:45.461758,5.0,6.0,377.0
2022-02-09-17:17:45.462754,1.0,13.0,378.0
2022-02-09-17:17:45.463753,5.0,13.0,377.0
2022-02-09-17:17:45.464751,6.0,9.0,377.0
2022-02-09-17:17:45.465748,5.0,7.0,377.0
2022-02-09-17:17:45.466745,4.0,10.0,377.0
2022-02-09-17:17:45.467742,6.0,12.0,377.0
2022-02-09-17:17:45.468740,3.0,8.0,377.0
2022-02-09-17:17:45.469737,6.0,0.0,377.0
2022-02-09-17:17:45.470735,8.0,7.0,377.0
2022-02-09-17:17:45.471731,5.0,6.0,377.0
2022-02-09-17:17:45.472729,5.0,8.0,377.0
2022-02-09-17:17:45.473726,6.0,0.0,378.0
2022-02-09-17:17:45.474724,7.0,2.0,377.0
2022-02-09-17:17:45.475721,7.0,2.0,377.0
2022-02-09-17:17:45.476718,1.0,11.0,377.0
2022-02-09-17:17:45.477716,1.0,11.0,378.0
2022-02-09-17:17:45.478712,5.0,11.0,378.0
2022-02-09-17:17:45.479709,5.0,8.0,378.0
2022-02-09-17:17:45.480707,5.0,9.0,378.0
2022-02-09-17:17:45.481703,4.0,9.0,377.0
2022-02-09-17:17:45.482701,6.0,9.0,377.0
2022-02-09-17:17:45.483698,6.0,9.0,378.0
2022-02-09-17:17:45.484695,4.0,5.0,378.0
2022-02-09-17:17:45.485693,5.0,2.0,378.0
2022-02-09-17:17:45.486690,5.0,2.0,378.0
2022-02-09-17:17:45.487687,8.0,11.0,377.0
2022-02-09-17:17:45.488685,8.0,8.0,377.0
2022-02-09-17:17:45.489682,8.0,10.0,377.0
2022-02-09-17:17:45.490679,8.0,8.0,377.0
2022-02-09-17:17:45.491677,6.0,4.0,377.0
2022-02-09-17:17:45.492674,1.0,9.0,378.0
2022-02-09-17:17:45.493673,4.0,14.0,377.0
2022-02-09-17:17:45.495667,5.0,14.0,377.0
2022-02-09-17:17:45.495667,6.0,11.0,377.0
2022-02-09-17:17:45.496664,6.0,14.0,378.0
2022-02-09-17:17:45.497662,6.0,8.0,377.0
2022-02-09-17:17:45.498659,2.0,9.0,378.0
2022-02-09-17:17:45.499656,5.0,2.0,377.0
2022-02-09-17:17:45.500653,6.0,5.0,377.0
2022-02-09-17:17:45.501651,7.0,8.0,378.0
2022-02-09-17:17:45.502648,6.0,0.0,377.0
2022-02-09-17:17:45.503645,5.0,5.0,378.0
2022-02-09-17:17:45.504643,3.0,12.0,377.0
2022-02-09-17:17:45.505640,8.0,9.0,377.0
2022-02-09-17:17:45.506637,7.0,13.0,378.0
2022-02-09-17:17:45.507635,2.0,8.0,378.0
2022-02-09-17:17:45.508632,6.0,9.0,377.0
2022-02-09-17:17:45.509629,1.0,8.0,377.0
2022-02-09-17:17:45.510627,2.0,0.0,377.0
2022-02-09-17:17:45.511624,6.0,4.0,377.0
2022-02-09-17:17:45.512622,5.0,9.0,377.0
2022-02-09-17:17:45.513619,5.0,7.0,378.0
2022-02-09-17:17:45.514616,6.0,4.0,377.0
2022-02-09-17:17:45.515613,4.0,12.0,377.0
2022-02-09-17:17:45.516611,4.0,12.0,378.0
2022-02-09-17:17:45.517608,2.0,11.0,378.0
2022-02-09-17:17:45.518605,4.0,10.0,378.0
2022-02-09-17:17:45.519603,4.0,2.0,378.0
2022-02-09-17:17:45.520600,4.0,2.0,378.0
2022-02-09-17:17:45.521597,8.0,9.0,377.0
2022-02-09-17:17:45.522595,6.0,4.0,377.0
2022-02-09-17:17:45.523624,3.0,1.0,378.0
2022-02-09-17:17:45.524590,1.0,8.0,377.0
2022-02-09-17:17:45.525614,2.0,15.0,378.0
2022-02-09-17:17:45.526584,2.0,10.0,378.0
2022-02-09-17:17:45.527581,3.0,11.0,377.0
2022-02-09-17:17:45.528579,4.0,11.0,378.0
2022-02-09-17:17:45.529576,3.0,8.0,378.0
2022-02-09-17:17:45.531571,3.0,8.0,378.0
2022-02-09-17:17:45.531571,7.0,4.0,377.0
2022-02-09-17:17:45.532568,6.0,13.0,377.0
2022-02-09-17:17:45.533565,4.0,7.0,377.0
2022-02-09-17:17:45.534563,5.0,5.0,377.0
2022-02-09-17:17:45.535560,6.0,8.0,377.0
2022-02-09-17:17:45.536557,5.0,3.0,377.0
2022-02-09-17:17:45.537555,5.0,9.0,378.0
2022-02-09-17:17:45.538552,2.0,8.0,377.0
2022-02-09-17:17:45.539550,8.0,5.0,378.0
2022-02-09-17:17:45.540547,2.0,7.0,377.0
2022-02-09-17:17:45.541544,6.0,8.0,378.0
2022-02-09-17:17:45.542542,4.0,7.0,377.0
2022-02-09-17:17:45.543539,6.0,8.0,377.0
2022-02-09-17:17:45.544536,6.0,8.0,377.0
2022-02-09-17:17:45.545533,2.0,6.0,378.0
2022-02-09-17:17:45.546531,3.0,4.0,377.0
2022-02-09-17:17:45.547528,8.0,2.0,378.0
2022-02-09-17:17:45.548525,7.0,10.0,377.0
2022-02-09-17:17:45.549523,6.0,8.0,378.0
2022-02-09-17:17:45.550520,2.0,14.0,378.0
2022-02-09-17:17:45.551518,6.0,13.0,378.0
2022-02-09-17:17:45.552515,3.0,12.0,377.0
2022-02-09-17:17:45.553512,6.0,12.0,378.0
2022-02-09-17:17:45.554509,3.0,12.0,377.0
2022-02-09-17:17:45.555507,5.0,13.0,378.0
2022-02-09-17:17:45.556504,3.0,11.0,377.0
2022-02-09-17:17:45.557501,4.0,8.0,377.0
2022-02-09-17:17:45.558499,6.0,8.0,377.0
2022-02-09-17:17:45.559496,1.0,16.0,377.0
2022-02-09-17:17:45.560493,3.0,10.0,377.0
2022-02-09-17:17:45.561491,4.0,10.0,378.0
2022-02-09-17:17:45.563518,5.0,10.0,377.0
2022-02-09-17:17:45.563518,5.0,13.0,377.0
2022-02-09-17:17:45.564483,10.0,12.0,377.0
2022-02-09-17:17:45.565514,3.0,7.0,378.0
2022-02-09-17:17:45.566509,8.0,10.0,378.0
2022-02-09-17:17:45.567507,7.0,2.0,377.0
2022-02-09-17:17:45.568501,3.0,10.0,378.0
2022-02-09-17:17:45.569470,5.0,4.0,377.0
2022-02-09-17:17:45.570499,8.0,9.0,377.0
2022-02-09-17:17:45.571497,8.0,8.0,378.0
2022-02-09-17:17:45.572461,4.0,8.0,378.0
2022-02-09-17:17:45.573459,3.0,10.0,378.0
2022-02-09-17:17:45.574481,5.0,9.0,377.0
2022-02-09-17:17:45.575454,8.0,7.0,377.0
2022-02-09-17:17:45.576451,10.0,15.0,377.0
2022-02-09-17:17:45.577448,9.0,7.0,377.0
2022-02-09-17:17:45.578445,8.0,2.0,377.0
2022-02-09-17:17:45.579443,6.0,10.0,377.0
2022-02-09-17:17:45.580440,4.0,8.0,377.0
2022-02-09-17:17:45.581437,2.0,8.0,377.0
2022-02-09-17:17:45.582435,7.0,8.0,377.0
2022-02-09-17:17:45.583432,6.0,12.0,378.0
2022-02-09-17:17:45.584429,3.0,10.0,377.0
2022-02-09-17:17:45.585427,4.0,10.0,378.0
2022-02-09-17:17:45.586424,3.0,14.0,378.0
2022-02-09-17:17:45.587422,5.0,12.0,377.0
2022-02-09-17:17:45.588419,3.0,16.0,377.0
2022-02-09-17:17:45.589416,5.0,9.0,378.0
2022-02-09-17:17:45.590413,8.0,16.0,377.0
2022-02-09-17:17:45.591411,5.0,7.0,378.0
2022-02-09-17:17:45.592408,7.0,6.0,377.0
2022-02-09-17:17:45.593405,3.0,16.0,377.0
2022-02-09-17:17:45.594403,3.0,13.0,377.0
2022-02-09-17:17:45.595400,3.0,11.0,377.0
2022-02-09-17:17:45.596398,4.0,14.0,377.0
2022-02-09-17:17:45.597395,4.0,7.0,377.0
2022-02-09-17:17:45.598392,0.0,9.0,377.0
2022-02-09-17:17:45.600387,2.0,12.0,377.0
2022-02-09-17:17:45.600387,3.0,3.0,378.0
2022-02-09-17:17:45.601384,3.0,3.0,378.0
2022-02-09-17:17:45.602381,7.0,6.0,377.0
2022-02-09-17:17:45.603379,5.0,12.0,378.0
2022-02-09-17:17:45.604376,8.0,6.0,377.0
2022-02-09-17:17:45.605373,8.0,5.0,377.0
2022-02-09-17:17:45.606371,5.0,13.0,377.0
2022-02-09-17:17:45.607368,7.0,11.0,377.0
2022-02-09-17:17:45.608365,5.0,10.0,377.0
2022-02-09-17:17:45.609363,5.0,10.0,377.0
2022-02-09-17:17:45.610360,1.0,14.0,377.0
2022-02-09-17:17:45.611357,4.0,8.0,378.0
2022-02-09-17:17:45.612355,2.0,4.0,377.0
2022-02-09-17:17:45.613352,7.0,8.0,378.0
2022-02-09-17:17:45.614349,9.0,4.0,377.0
2022-02-09-17:17:45.615347,9.0,4.0,377.0
2022-02-09-17:17:45.616344,1.0,12.0,378.0
2022-02-09-17:17:45.617341,2.0,16.0,378.0
2022-02-09-17:17:45.618339,5.0,18.0,377.0
2022-02-09-17:17:45.619336,6.0,14.0,377.0
2022-02-09-17:17:45.620333,6.0,14.0,377.0
2022-02-09-17:17:45.621331,4.0,15.0,377.0
2022-02-09-17:17:45.622328,3.0,13.0,378.0
2022-02-09-17:17:45.623325,1.0,10.0,377.0
2022-02-09-17:17:45.624323,1.0,10.0,377.0
2022-02-09-17:17:45.625320,4.0,2.0,377.0
2022-02-09-17:17:45.626317,7.0,3.0,377.0
2022-02-09-17:17:45.627315,5.0,6.0,377.0
2022-02-09-17:17:45.628312,5.0,6.0,377.0
2022-02-09-17:17:45.629309,8.0,5.0,377.0
2022-02-09-17:17:45.630308,3.0,2.0,377.0
2022-02-09-17:17:45.631304,2.0,9.0,377.0
2022-02-09-17:17:45.633299,7.0,14.0,377.0
2022-02-09-17:17:45.633299,4.0,15.0,377.0
2022-02-09-17:17:45.634296,7.0,13.0,377.0
2022-02-09-17:17:45.635294,7.0,13.0,377.0
2022-02-09-17:17:45.636292,7.0,13.0,377.0
2022-02-09-17:17:45.637288,7.0,13.0,377.0
2022-02-09-17:17:45.638286,4.0,11.0,377.0
2022-02-09-17:17:45.639283,5.0,12.0,377.0
2022-02-09-17:17:45.640280,3.0,10.0,377.0
2022-02-09-17:17:45.641277,3.0,10.0,377.0
2022-02-09-17:17:45.642275,6.0,2.0,377.0
2022-02-09-17:17:45.643272,6.0,7.0,378.0
2022-02-09-17:17:45.644269,7.0,7.0,377.0
2022-02-09-17:17:45.645267,7.0,7.0,377.0
2022-02-09-17:17:45.646264,6.0,3.0,377.0
2022-02-09-17:17:45.647261,4.0,13.0,377.0
2022-02-09-17:17:45.648259,4.0,13.0,377.0
2022-02-09-17:17:45.649257,4.0,13.0,377.0
2022-02-09-17:17:45.650254,4.0,12.0,377.0
2022-02-09-17:17:45.651251,2.0,14.0,378.0
2022-02-09-17:17:45.652249,2.0,14.0,378.0
2022-02-09-17:17:45.653246,2.0,14.0,378.0
2022-02-09-17:17:45.654244,5.0,13.0,378.0
2022-02-09-17:17:45.655241,6.0,8.0,378.0
2022-02-09-17:17:45.656238,6.0,8.0,378.0
2022-02-09-17:17:45.657236,6.0,9.0,378.0
2022-02-09-17:17:45.658233,4.0,12.0,378.0
2022-02-09-17:17:45.659230,4.0,9.0,377.0
2022-02-09-17:17:45.660227,8.0,3.0,377.0
2022-02-09-17:17:45.661225,7.0,9.0,377.0
2022-02-09-17:17:45.662222,4.0,1.0,378.0
2022-02-09-17:17:45.663219,3.0,10.0,377.0
2022-02-09-17:17:45.664217,3.0,10.0,377.0
2022-02-09-17:17:45.665214,3.0,10.0,377.0
2022-02-09-17:17:45.666211,3.0,10.0,377.0
2022-02-09-17:17:45.667208,2.0,14.0,378.0
2022-02-09-17:17:45.669203,1.0,15.0,378.0
2022-02-09-17:17:45.669203,5.0,11.0,378.0
2022-02-09-17:17:45.670200,6.0,10.0,377.0
2022-02-09-17:17:45.671197,6.0,13.0,377.0
2022-02-09-17:17:45.672195,2.0,6.0,378.0
2022-02-09-17:17:45.673192,2.0,6.0,378.0
2022-02-09-17:17:45.674189,2.0,6.0,378.0
2022-02-09-17:17:45.675219,2.0,3.0,377.0
2022-02-09-17:17:45.676218,7.0,8.0,377.0
2022-02-09-17:17:45.677216,7.0,8.0,377.0
2022-02-09-17:17:45.678223,7.0,8.0,377.0
2022-02-09-17:17:45.679176,7.0,9.0,377.0
2022-02-09-17:17:45.680207,6.0,5.0,377.0
2022-02-09-17:17:45.681172,6.0,5.0,377.0
2022-02-09-17:17:45.682169,3.0,13.0,378.0
2022-02-09-17:17:45.683166,4.0,16.0,377.0
2022-02-09-17:17:45.684164,4.0,16.0,377.0
2022-02-09-17:17:45.685161,4.0,16.0,377.0
2022-02-09-17:17:45.686159,3.0,15.0,378.0
2022-02-09-17:17:45.687156,2.0,13.0,377.0
2022-02-09-17:17:45.688153,5.0,14.0,377.0
2022-02-09-17:17:45.689150,1.0,8.0,377.0
2022-02-09-17:17:45.690147,6.0,11.0,378.0
2022-02-09-17:17:45.691145,2.0,12.0,377.0
2022-02-09-17:17:45.692142,7.0,9.0,377.0
2022-02-09-17:17:45.693140,5.0,4.0,377.0
2022-02-09-17:17:45.694137,8.0,3.0,378.0
2022-02-09-17:17:45.695134,4.0,10.0,377.0
2022-02-09-17:17:45.696132,5.0,12.0,377.0
2022-02-09-17:17:45.697161,5.0,4.0,378.0
2022-02-09-17:17:45.698126,5.0,4.0,377.0
2022-02-09-17:17:45.699156,4.0,12.0,378.0
2022-02-09-17:17:45.700121,4.0,13.0,377.0
2022-02-09-17:17:45.701117,8.0,11.0,377.0
2022-02-09-17:17:45.703112,8.0,11.0,377.0
2022-02-09-17:17:45.703112,6.0,11.0,377.0
2022-02-09-17:17:45.704109,6.0,11.0,377.0
2022-02-09-17:17:45.705107,4.0,10.0,377.0
2022-02-09-17:17:45.706104,4.0,10.0,377.0
2022-02-09-17:17:45.707101,3.0,8.0,377.0
2022-02-09-17:17:45.708099,8.0,12.0,377.0
2022-02-09-17:17:45.709096,8.0,12.0,377.0
2022-02-09-17:17:45.710093,8.0,12.0,377.0
2022-02-09-17:17:45.711091,8.0,12.0,377.0
2022-02-09-17:17:45.712088,5.0,10.0,377.0
2022-02-09-17:17:45.713086,9.0,14.0,377.0
2022-02-09-17:17:45.714083,7.0,3.0,377.0
2022-02-09-17:17:45.715080,7.0,3.0,377.0
2022-02-09-17:17:45.716077,3.0,9.0,377.0
2022-02-09-17:17:45.717075,3.0,13.0,378.0
2022-02-09-17:17:45.718072,3.0,13.0,378.0
2022-02-09-17:17:45.719070,2.0,9.0,378.0
2022-02-09-17:17:45.720067,4.0,11.0,378.0
2022-02-09-17:17:45.721064,5.0,11.0,377.0
2022-02-09-17:17:45.722061,6.0,10.0,377.0
2022-02-09-17:17:45.723091,1.0,11.0,377.0
2022-02-09-17:17:45.724088,1.0,12.0,378.0
2022-02-09-17:17:45.725088,2.0,10.0,377.0
2022-02-09-17:17:45.726082,4.0,8.0,377.0
2022-02-09-17:17:45.727084,4.0,8.0,377.0
2022-02-09-17:17:45.728078,7.0,14.0,377.0
2022-02-09-17:17:45.729043,6.0,4.0,378.0
2022-02-09-17:17:45.730076,6.0,4.0,378.0
2022-02-09-17:17:45.731038,6.0,4.0,378.0
2022-02-09-17:17:45.732035,4.0,12.0,378.0
2022-02-09-17:17:45.733061,3.0,8.0,378.0
2022-02-09-17:17:45.734030,3.0,8.0,378.0
2022-02-09-17:17:45.735027,3.0,8.0,378.0
2022-02-09-17:17:45.736024,0.0,10.0,378.0
2022-02-09-17:17:45.737021,0.0,10.0,378.0
2022-02-09-17:17:45.738019,5.0,11.0,377.0
2022-02-09-17:17:45.739016,6.0,7.0,377.0
2022-02-09-17:17:45.741011,4.0,8.0,377.0
2022-02-09-17:17:45.741011,4.0,7.0,377.0
2022-02-09-17:17:45.742009,10.0,10.0,377.0
2022-02-09-17:17:45.743005,10.0,10.0,377.0
2022-02-09-17:17:45.744002,5.0,14.0,378.0
2022-02-09-17:17:45.744999,8.0,9.0,377.0
2022-02-09-17:17:45.746034,8.0,9.0,377.0
2022-02-09-17:17:45.746996,8.0,9.0,377.0
2022-02-09-17:17:45.747992,10.0,2.0,377.0
2022-02-09-17:17:45.748990,0.0,11.0,377.0
2022-02-09-17:17:45.749987,1.0,14.0,378.0
2022-02-09-17:17:45.750985,1.0,14.0,378.0
2022-02-09-17:17:45.751982,5.0,7.0,377.0
2022-02-09-17:17:45.752979,4.0,10.0,378.0
2022-02-09-17:17:45.753976,7.0,6.0,377.0
2022-02-09-17:17:45.754973,7.0,6.0,377.0
2022-02-09-17:17:45.755971,7.0,6.0,377.0
2022-02-09-17:17:45.756968,4.0,7.0,377.0
2022-02-09-17:17:45.757965,7.0,9.0,377.0
2022-02-09-17:17:45.758963,0.0,3.0,378.0
2022-02-09-17:17:45.759960,3.0,7.0,377.0
2022-02-09-17:17:45.760957,8.0,13.0,377.0
2022-02-09-17:17:45.761955,9.0,12.0,377.0
2022-02-09-17:17:45.762952,6.0,12.0,377.0
2022-02-09-17:17:45.763950,8.0,12.0,377.0
2022-02-09-17:17:45.764948,8.0,3.0,377.0
2022-02-09-17:17:45.765943,2.0,5.0,378.0
2022-02-09-17:17:45.766942,2.0,10.0,377.0
2022-02-09-17:17:45.767939,3.0,12.0,377.0
2022-02-09-17:17:45.768937,4.0,6.0,377.0
2022-02-09-17:17:45.770931,4.0,6.0,377.0
2022-02-09-17:17:45.770931,5.0,9.0,377.0
2022-02-09-17:17:45.771930,2.0,10.0,378.0
2022-02-09-17:17:45.772927,4.0,10.0,377.0
2022-02-09-17:17:45.773923,6.0,5.0,377.0
2022-02-09-17:17:45.774920,5.0,9.0,378.0
2022-02-09-17:17:45.775918,2.0,1.0,378.0
2022-02-09-17:17:45.776915,5.0,9.0,377.0
2022-02-09-17:17:45.777913,8.0,14.0,378.0
2022-02-09-17:17:45.778909,6.0,12.0,378.0
2022-02-09-17:17:45.779907,9.0,8.0,377.0
2022-02-09-17:17:45.780904,6.0,5.0,378.0
2022-02-09-17:17:45.781901,5.0,4.0,378.0
2022-02-09-17:17:45.782899,6.0,13.0,377.0
2022-02-09-17:17:45.783896,6.0,13.0,377.0
2022-02-09-17:17:45.784894,4.0,16.0,377.0
2022-02-09-17:17:45.785891,3.0,15.0,377.0
2022-02-09-17:17:45.786888,4.0,11.0,377.0
2022-02-09-17:17:45.787885,1.0,9.0,378.0
2022-02-09-17:17:45.788883,6.0,8.0,378.0
2022-02-09-17:17:45.789880,5.0,11.0,378.0
2022-02-09-17:17:45.790877,5.0,7.0,377.0
2022-02-09-17:17:45.791875,4.0,6.0,378.0
2022-02-09-17:17:45.792872,2.0,2.0,377.0
2022-02-09-17:17:45.793869,4.0,5.0,377.0
2022-02-09-17:17:45.794867,8.0,13.0,377.0
2022-02-09-17:17:45.795864,9.0,10.0,378.0
2022-02-09-17:17:45.796862,6.0,11.0,378.0
2022-02-09-17:17:45.797859,5.0,2.0,378.0
2022-02-09-17:17:45.798856,3.0,12.0,377.0
2022-02-09-17:17:45.799853,0.0,10.0,378.0
2022-02-09-17:17:45.800851,5.0,8.0,378.0
2022-02-09-17:17:45.801848,5.0,8.0,377.0
2022-02-09-17:17:45.802845,4.0,9.0,377.0
2022-02-09-17:17:45.803843,5.0,8.0,377.0
2022-02-09-17:17:45.804840,5.0,7.0,377.0
2022-02-09-17:17:45.806834,4.0,5.0,378.0
2022-02-09-17:17:45.806834,2.0,4.0,377.0
2022-02-09-17:17:45.807832,5.0,2.0,377.0
2022-02-09-17:17:45.808829,3.0,5.0,378.0
2022-02-09-17:17:45.809827,5.0,14.0,378.0
2022-02-09-17:17:45.810824,6.0,13.0,377.0
2022-02-09-17:17:45.811821,8.0,15.0,377.0
2022-02-09-17:17:45.812819,5.0,8.0,378.0
2022-02-09-17:17:45.813816,7.0,2.0,378.0
2022-02-09-17:17:45.814813,2.0,7.0,377.0
2022-02-09-17:17:45.815811,2.0,7.0,377.0
2022-02-09-17:17:45.816808,1.0,12.0,377.0
2022-02-09-17:17:45.817805,5.0,9.0,378.0
2022-02-09-17:17:45.818803,1.0,11.0,378.0
2022-02-09-17:17:45.819800,4.0,11.0,378.0
2022-02-09-17:17:45.820798,7.0,10.0,378.0
2022-02-09-17:17:45.821795,0.0,12.0,378.0
2022-02-09-17:17:45.822792,3.0,10.0,377.0
2022-02-09-17:17:45.823790,3.0,10.0,377.0
2022-02-09-17:17:45.824787,3.0,6.0,378.0
2022-02-09-17:17:45.825784,5.0,2.0,377.0
2022-02-09-17:17:45.826781,9.0,9.0,377.0
2022-02-09-17:17:45.827779,7.0,10.0,377.0
2022-02-09-17:17:45.828776,7.0,16.0,378.0
2022-02-09-17:17:45.829773,8.0,10.0,377.0
2022-02-09-17:17:45.830771,5.0,2.0,378.0
2022-02-09-17:17:45.831768,1.0,14.0,378.0
2022-02-09-17:17:45.832765,1.0,14.0,378.0
2022-02-09-17:17:45.833763,1.0,14.0,378.0
2022-02-09-17:17:45.834760,5.0,14.0,378.0
2022-02-09-17:17:45.835757,5.0,10.0,377.0
2022-02-09-17:17:45.836755,7.0,14.0,377.0
2022-02-09-17:17:45.837752,5.0,13.0,377.0
2022-02-09-17:17:45.839747,4.0,10.0,377.0
2022-02-09-17:17:45.839747,7.0,8.0,377.0
2022-02-09-17:17:45.840744,6.0,7.0,377.0
2022-02-09-17:17:45.841742,5.0,1.0,377.0
2022-02-09-17:17:45.842739,6.0,7.0,377.0
2022-02-09-17:17:45.843736,7.0,12.0,377.0
2022-02-09-17:17:45.844733,7.0,10.0,378.0
2022-02-09-17:17:45.845731,3.0,9.0,378.0
2022-02-09-17:17:45.846728,8.0,8.0,377.0
2022-02-09-17:17:45.847726,1.0,13.0,378.0
2022-02-09-17:17:45.848723,1.0,13.0,378.0
2022-02-09-17:17:45.849720,1.0,13.0,378.0
2022-02-09-17:17:45.850717,3.0,12.0,377.0
2022-02-09-17:17:45.851715,5.0,7.0,377.0
2022-02-09-17:17:45.852712,2.0,8.0,378.0
2022-02-09-17:17:45.853709,4.0,7.0,377.0
2022-02-09-17:17:45.854707,4.0,7.0,377.0
2022-02-09-17:17:45.855704,4.0,9.0,378.0
2022-02-09-17:17:45.856737,4.0,4.0,377.0
2022-02-09-17:17:45.857704,4.0,4.0,377.0
2022-02-09-17:17:45.858697,5.0,15.0,378.0
2022-02-09-17:17:45.859725,6.0,14.0,377.0
2022-02-09-17:17:45.860725,6.0,14.0,377.0
2022-02-09-17:17:45.861725,6.0,14.0,377.0
2022-02-09-17:17:45.862717,10.0,5.0,377.0
2022-02-09-17:17:45.863716,2.0,14.0,377.0
2022-02-09-17:17:45.864711,2.0,14.0,377.0
2022-02-09-17:17:45.865717,2.0,14.0,377.0
2022-02-09-17:17:45.866709,5.0,10.0,377.0
2022-02-09-17:17:45.867673,4.0,13.0,377.0
2022-02-09-17:17:45.868704,2.0,14.0,377.0
2022-02-09-17:17:45.870696,2.0,14.0,377.0
2022-02-09-17:17:45.871661,4.0,11.0,377.0
2022-02-09-17:17:45.871661,5.0,6.0,377.0
2022-02-09-17:17:45.872699,5.0,6.0,377.0
2022-02-09-17:17:45.873691,5.0,6.0,377.0
2022-02-09-17:17:45.874686,5.0,6.0,377.0
2022-02-09-17:17:45.875684,5.0,6.0,378.0
2022-02-09-17:17:45.876676,9.0,11.0,378.0
2022-02-09-17:17:45.877669,9.0,11.0,378.0
2022-02-09-17:17:45.878643,9.0,11.0,378.0
2022-02-09-17:17:45.879639,5.0,7.0,377.0
2022-02-09-17:17:45.880638,2.0,3.0,378.0
2022-02-09-17:17:45.881663,2.0,13.0,378.0
2022-02-09-17:17:45.882632,2.0,13.0,378.0
2022-02-09-17:17:45.883629,2.0,13.0,378.0
2022-02-09-17:17:45.884627,6.0,16.0,377.0
2022-02-09-17:17:45.885624,6.0,16.0,377.0
2022-02-09-17:17:45.886622,6.0,16.0,377.0
2022-02-09-17:17:45.887619,2.0,9.0,377.0
2022-02-09-17:17:45.888616,7.0,11.0,377.0
2022-02-09-17:17:45.889614,5.0,7.0,377.0
2022-02-09-17:17:45.890611,5.0,7.0,377.0
2022-02-09-17:17:45.891608,6.0,5.0,378.0
2022-02-09-17:17:45.892605,7.0,14.0,377.0
2022-02-09-17:17:45.893603,7.0,14.0,377.0
2022-02-09-17:17:45.894600,7.0,14.0,377.0
2022-02-09-17:17:45.895597,5.0,6.0,378.0
2022-02-09-17:17:45.896595,5.0,6.0,378.0
2022-02-09-17:17:45.897592,4.0,12.0,377.0
2022-02-09-17:17:45.898589,4.0,12.0,377.0
2022-02-09-17:17:45.899586,4.0,12.0,377.0
2022-02-09-17:17:45.900583,1.0,16.0,378.0
2022-02-09-17:17:45.901581,4.0,18.0,377.0
2022-02-09-17:17:45.902578,3.0,16.0,377.0
2022-02-09-17:17:45.903575,2.0,11.0,377.0
2022-02-09-17:17:45.904573,4.0,12.0,377.0
2022-02-09-17:17:45.905570,4.0,12.0,377.0
2022-02-09-17:17:45.906567,4.0,9.0,377.0
2022-02-09-17:17:45.908562,4.0,9.0,377.0
2022-02-09-17:17:45.908562,1.0,9.0,378.0
2022-02-09-17:17:45.909559,4.0,3.0,377.0
2022-02-09-17:17:45.910557,6.0,9.0,377.0
2022-02-09-17:17:45.911554,7.0,16.0,377.0
2022-02-09-17:17:45.912551,3.0,11.0,378.0
2022-02-09-17:17:45.913549,7.0,11.0,377.0
2022-02-09-17:17:45.914546,5.0,0.0,378.0
2022-02-09-17:17:45.915543,5.0,0.0,378.0
2022-02-09-17:17:45.916541,6.0,6.0,378.0
2022-02-09-17:17:45.917538,8.0,16.0,377.0
2022-02-09-17:17:45.918535,8.0,19.0,377.0
2022-02-09-17:17:45.919533,5.0,18.0,378.0
2022-02-09-17:17:45.920530,6.0,16.0,377.0
2022-02-09-17:17:45.921527,1.0,17.0,377.0
2022-02-09-17:17:45.922525,0.0,13.0,377.0
2022-02-09-17:17:45.923522,1.0,12.0,378.0
2022-02-09-17:17:45.924519,3.0,2.0,377.0
2022-02-09-17:17:45.925517,2.0,6.0,377.0
2022-02-09-17:17:45.926514,7.0,10.0,377.0
2022-02-09-17:17:45.927511,7.0,10.0,377.0
2022-02-09-17:17:45.928509,6.0,9.0,377.0
2022-02-09-17:17:45.929506,11.0,7.0,377.0
2022-02-09-17:17:45.930537,11.0,7.0,377.0
2022-02-09-17:17:45.931502,9.0,0.0,378.0
2022-02-09-17:17:45.932533,8.0,8.0,377.0
2022-02-09-17:17:45.933528,5.0,16.0,377.0
2022-02-09-17:17:45.934525,1.0,16.0,378.0
2022-02-09-17:17:45.935528,8.0,15.0,377.0
2022-02-09-17:17:45.936521,5.0,10.0,377.0
2022-02-09-17:17:45.937517,3.0,11.0,378.0
2022-02-09-17:17:45.938521,5.0,9.0,377.0
2022-02-09-17:17:45.939512,2.0,11.0,378.0
2022-02-09-17:17:45.941507,2.0,11.0,378.0
2022-02-09-17:17:45.941507,2.0,9.0,377.0
2022-02-09-17:17:45.942506,5.0,7.0,377.0
2022-02-09-17:17:45.943502,2.0,1.0,377.0
2022-02-09-17:17:45.944491,5.0,6.0,378.0
2022-02-09-17:17:45.945465,6.0,12.0,377.0
2022-02-09-17:17:45.946462,9.0,12.0,377.0
2022-02-09-17:17:45.947460,6.0,11.0,378.0
2022-02-09-17:17:45.948457,7.0,9.0,377.0
2022-02-09-17:17:45.949454,5.0,9.0,377.0
2022-02-09-17:17:45.950451,2.0,9.0,378.0
2022-02-09-17:17:45.951449,2.0,9.0,378.0
2022-02-09-17:17:45.952446,2.0,9.0,378.0
2022-02-09-17:17:45.953443,5.0,7.0,377.0
2022-02-09-17:17:45.954441,0.0,5.0,377.0
2022-02-09-17:17:45.955438,0.0,5.0,377.0
2022-02-09-17:17:45.956436,0.0,5.0,377.0
2022-02-09-17:17:45.957433,6.0,6.0,377.0
2022-02-09-17:17:45.958430,6.0,6.0,377.0
2022-02-09-17:17:45.959428,3.0,2.0,377.0
2022-02-09-17:17:45.960425,4.0,7.0,377.0
2022-02-09-17:17:45.961421,7.0,15.0,378.0
2022-02-09-17:17:45.962419,5.0,17.0,378.0
2022-02-09-17:17:45.963450,7.0,15.0,377.0
2022-02-09-17:17:45.964413,8.0,9.0,377.0
2022-02-09-17:17:45.965411,1.0,9.0,377.0
2022-02-09-17:17:45.966409,3.0,7.0,377.0
2022-02-09-17:17:45.967405,3.0,7.0,377.0
2022-02-09-17:17:45.968403,3.0,7.0,377.0
2022-02-09-17:17:45.969400,6.0,6.0,377.0
2022-02-09-17:17:45.970397,5.0,4.0,377.0
2022-02-09-17:17:45.971395,5.0,4.0,377.0
2022-02-09-17:17:45.972392,5.0,4.0,377.0
2022-02-09-17:17:45.973389,3.0,2.0,377.0
2022-02-09-17:17:45.974387,6.0,5.0,377.0
2022-02-09-17:17:45.975384,6.0,12.0,377.0
2022-02-09-17:17:45.977379,6.0,12.0,377.0
2022-02-09-17:17:45.977379,9.0,18.0,377.0
2022-02-09-17:17:45.978376,9.0,14.0,377.0
2022-02-09-17:17:45.979373,9.0,14.0,377.0
2022-02-09-17:17:45.980371,9.0,14.0,377.0
2022-02-09-17:17:45.981368,9.0,14.0,377.0
2022-02-09-17:17:45.982365,3.0,5.0,377.0
2022-02-09-17:17:45.983363,3.0,5.0,377.0
2022-02-09-17:17:45.984360,3.0,5.0,377.0
2022-02-09-17:17:45.985357,3.0,5.0,377.0
2022-02-09-17:17:45.986355,5.0,2.0,377.0
2022-02-09-17:17:45.987352,5.0,4.0,377.0
2022-02-09-17:17:45.988349,5.0,4.0,377.0
2022-02-09-17:17:45.989347,5.0,4.0,377.0
2022-02-09-17:17:45.990344,4.0,2.0,377.0
2022-02-09-17:17:45.991341,4.0,2.0,377.0
2022-02-09-17:17:45.992339,2.0,5.0,377.0
2022-02-09-17:17:45.993336,7.0,11.0,378.0
2022-02-09-17:17:45.994333,7.0,11.0,377.0
2022-02-09-17:17:45.995331,7.0,11.0,377.0
2022-02-09-17:17:45.996328,7.0,11.0,377.0
2022-02-09-17:17:45.997325,7.0,11.0,377.0
2022-02-09-17:17:45.998323,5.0,2.0,378.0
2022-02-09-17:17:45.999320,5.0,5.0,378.0
2022-02-09-17:17:46.000318,3.0,7.0,377.0
2022-02-09-17:17:46.001315,2.0,6.0,378.0
2022-02-09-17:17:46.002312,6.0,7.0,378.0
2022-02-09-17:17:46.003309,2.0,4.0,377.0
2022-02-09-17:17:46.004307,5.0,3.0,377.0
2022-02-09-17:17:46.005304,5.0,3.0,377.0
2022-02-09-17:17:46.006301,2.0,0.0,377.0
2022-02-09-17:17:46.007299,3.0,8.0,377.0
2022-02-09-17:17:46.008296,3.0,8.0,377.0
2022-02-09-17:17:46.009294,3.0,8.0,377.0
2022-02-09-17:17:46.010291,5.0,17.0,377.0
2022-02-09-17:17:46.012285,8.0,20.0,377.0
2022-02-09-17:17:46.012285,5.0,17.0,377.0
2022-02-09-17:17:46.013283,7.0,17.0,377.0
2022-02-09-17:17:46.014280,7.0,17.0,377.0
2022-02-09-17:17:46.015277,4.0,7.0,378.0
2022-02-09-17:17:46.016275,4.0,4.0,378.0
2022-02-09-17:17:46.017272,4.0,3.0,378.0
2022-02-09-17:17:46.018270,5.0,1.0,377.0
2022-02-09-17:17:46.019267,2.0,2.0,377.0
2022-02-09-17:17:46.020264,0.0,2.0,377.0
2022-02-09-17:17:46.021261,4.0,4.0,378.0
2022-02-09-17:17:46.022258,4.0,1.0,378.0
2022-02-09-17:17:46.023257,3.0,1.0,378.0
2022-02-09-17:17:46.024254,3.0,5.0,378.0
2022-02-09-17:17:46.025251,4.0,3.0,377.0
2022-02-09-17:17:46.026282,6.0,6.0,377.0
2022-02-09-17:17:46.027270,2.0,11.0,378.0
2022-02-09-17:17:46.028244,5.0,9.0,377.0
2022-02-09-17:17:46.029241,7.0,8.0,377.0
2022-02-09-17:17:46.030238,8.0,3.0,378.0
2022-02-09-17:17:46.031235,4.0,6.0,378.0
2022-02-09-17:17:46.032258,3.0,10.0,377.0
2022-02-09-17:17:46.033261,5.0,8.0,377.0
2022-02-09-17:17:46.034253,3.0,10.0,377.0
2022-02-09-17:17:46.035249,3.0,12.0,378.0
2022-02-09-17:17:46.036221,2.0,6.0,378.0
2022-02-09-17:17:46.037243,2.0,6.0,378.0
2022-02-09-17:17:46.038216,2.0,6.0,378.0
2022-02-09-17:17:46.039213,3.0,6.0,377.0
2022-02-09-17:17:46.040211,4.0,2.0,377.0
2022-02-09-17:17:46.041208,6.0,14.0,378.0
2022-02-09-17:17:46.042205,6.0,14.0,378.0
2022-02-09-17:17:46.043203,8.0,23.0,377.0
2022-02-09-17:17:46.044200,7.0,24.0,378.0
2022-02-09-17:17:46.045197,7.0,24.0,378.0
2022-02-09-17:17:46.047193,7.0,24.0,377.0
2022-02-09-17:17:46.047193,7.0,22.0,378.0
2022-02-09-17:17:46.048190,3.0,7.0,377.0
2022-02-09-17:17:46.049219,4.0,0.0,378.0
2022-02-09-17:17:46.050216,1.0,4.0,378.0
2022-02-09-17:17:46.051214,1.0,6.0,378.0
2022-02-09-17:17:46.052214,3.0,1.0,378.0
2022-02-09-17:17:46.053208,4.0,4.0,378.0
2022-02-09-17:17:46.054185,7.0,1.0,377.0
2022-02-09-17:17:46.055171,4.0,7.0,378.0
2022-02-09-17:17:46.056169,6.0,6.0,377.0
2022-02-09-17:17:46.057166,6.0,6.0,377.0
2022-02-09-17:17:46.058195,6.0,6.0,377.0
2022-02-09-17:17:46.059161,6.0,6.0,377.0
2022-02-09-17:17:46.060158,8.0,16.0,377.0
2022-02-09-17:17:46.061155,4.0,12.0,378.0
2022-02-09-17:17:46.062152,8.0,9.0,377.0
2022-02-09-17:17:46.063149,8.0,9.0,377.0
2022-02-09-17:17:46.064147,8.0,2.0,377.0
2022-02-09-17:17:46.065144,4.0,18.0,378.0
2022-02-09-17:17:46.066141,3.0,14.0,377.0
2022-02-09-17:17:46.067139,3.0,14.0,377.0
2022-02-09-17:17:46.068136,6.0,18.0,377.0
2022-02-09-17:17:46.069133,3.0,17.0,377.0
2022-02-09-17:17:46.070135,3.0,16.0,377.0
2022-02-09-17:17:46.071128,3.0,16.0,377.0
2022-02-09-17:17:46.072126,9.0,15.0,378.0
2022-02-09-17:17:46.073124,3.0,20.0,377.0
2022-02-09-17:17:46.074121,5.0,20.0,378.0
2022-02-09-17:17:46.075117,1.0,11.0,378.0
2022-02-09-17:17:46.076115,9.0,4.0,377.0
2022-02-09-17:17:46.077112,6.0,3.0,377.0
2022-02-09-17:17:46.078109,4.0,2.0,377.0
2022-02-09-17:17:46.079107,7.0,2.0,378.0
2022-02-09-17:17:46.080104,8.0,4.0,377.0
2022-02-09-17:17:46.082098,2.0,17.0,378.0
2022-02-09-17:17:46.082098,2.0,23.0,377.0
2022-02-09-17:17:46.083096,3.0,22.0,377.0
2022-02-09-17:17:46.084093,5.0,23.0,377.0
2022-02-09-17:17:46.085091,0.0,23.0,378.0
2022-02-09-17:17:46.086088,6.0,18.0,377.0
2022-02-09-17:17:46.087085,6.0,18.0,377.0
2022-02-09-17:17:46.088083,4.0,18.0,377.0
2022-02-09-17:17:46.089080,5.0,20.0,377.0
2022-02-09-17:17:46.090077,3.0,20.0,378.0
2022-02-09-17:17:46.091075,0.0,14.0,377.0
2022-02-09-17:17:46.092072,0.0,14.0,377.0
2022-02-09-17:17:46.093070,4.0,8.0,378.0
2022-02-09-17:17:46.094067,6.0,1.0,377.0
2022-02-09-17:17:46.095064,6.0,5.0,377.0
2022-02-09-17:17:46.096061,9.0,3.0,377.0
2022-02-09-17:17:46.097059,9.0,3.0,377.0
2022-02-09-17:17:46.098056,7.0,0.0,377.0
2022-02-09-17:17:46.099053,9.0,9.0,378.0
2022-02-09-17:17:46.100051,6.0,16.0,377.0
2022-02-09-17:17:46.101048,2.0,19.0,377.0
2022-02-09-17:17:46.102050,5.0,23.0,377.0
2022-02-09-17:17:46.103042,8.0,19.0,377.0
2022-02-09-17:17:46.104039,2.0,17.0,378.0
2022-02-09-17:17:46.105036,7.0,16.0,377.0
2022-02-09-17:17:46.106034,4.0,15.0,378.0
2022-02-09-17:17:46.107031,7.0,14.0,377.0
2022-02-09-17:17:46.108029,5.0,13.0,377.0
2022-02-09-17:17:46.109026,3.0,10.0,378.0
2022-02-09-17:17:46.110023,4.0,5.0,378.0
2022-02-09-17:17:46.111021,4.0,5.0,378.0
2022-02-09-17:17:46.112018,5.0,2.0,377.0
2022-02-09-17:17:46.113015,5.0,5.0,377.0
2022-02-09-17:17:46.115010,5.0,7.0,377.0
2022-02-09-17:17:46.115010,7.0,3.0,377.0
2022-02-09-17:17:46.116007,5.0,3.0,378.0
2022-02-09-17:17:46.117004,6.0,9.0,378.0
2022-02-09-17:17:46.118002,3.0,19.0,378.0
2022-02-09-17:17:46.118999,1.0,17.0,378.0
2022-02-09-17:17:46.119997,5.0,15.0,378.0
2022-02-09-17:17:46.120994,2.0,15.0,378.0
2022-02-09-17:17:46.121991,3.0,11.0,378.0
2022-02-09-17:17:46.122989,5.0,12.0,377.0
2022-02-09-17:17:46.123986,5.0,12.0,377.0
2022-02-09-17:17:46.124983,3.0,1.0,377.0
2022-02-09-17:17:46.125981,7.0,2.0,377.0
2022-02-09-17:17:46.126978,5.0,8.0,378.0
2022-02-09-17:17:46.127975,6.0,7.0,378.0
2022-02-09-17:17:46.128973,8.0,6.0,377.0
2022-02-09-17:17:46.129970,8.0,6.0,377.0
2022-02-09-17:17:46.130968,7.0,9.0,377.0
2022-02-09-17:17:46.131965,5.0,16.0,377.0
2022-02-09-17:17:46.132962,5.0,16.0,377.0
2022-02-09-17:17:46.133959,0.0,16.0,378.0
2022-02-09-17:17:46.134957,3.0,19.0,378.0
2022-02-09-17:17:46.135954,4.0,18.0,377.0
2022-02-09-17:17:46.136951,5.0,17.0,378.0
2022-02-09-17:17:46.137949,2.0,18.0,377.0
2022-02-09-17:17:46.138946,5.0,16.0,377.0
2022-02-09-17:17:46.139943,4.0,17.0,377.0
2022-02-09-17:17:46.140941,7.0,15.0,377.0
2022-02-09-17:17:46.141938,2.0,9.0,377.0
2022-02-09-17:17:46.142935,9.0,1.0,377.0
2022-02-09-17:17:46.143933,6.0,7.0,378.0
2022-02-09-17:17:46.144930,12.0,10.0,378.0
2022-02-09-17:17:46.145927,6.0,6.0,377.0
2022-02-09-17:17:46.146925,7.0,3.0,378.0
2022-02-09-17:17:46.147922,7.0,3.0,378.0
2022-02-09-17:17:46.149917,6.0,4.0,378.0
2022-02-09-17:17:46.149917,0.0,12.0,378.0
2022-02-09-17:17:46.150914,5.0,16.0,377.0
2022-02-09-17:17:46.151911,5.0,16.0,377.0
2022-02-09-17:17:46.152909,6.0,16.0,377.0
2022-02-09-17:17:46.153906,5.0,17.0,377.0
2022-02-09-17:17:46.154903,6.0,16.0,377.0
2022-02-09-17:17:46.155901,7.0,12.0,377.0
2022-02-09-17:17:46.156898,3.0,12.0,377.0
2022-02-09-17:17:46.157895,0.0,3.0,378.0
2022-02-09-17:17:46.158893,7.0,11.0,378.0
2022-02-09-17:17:46.159890,7.0,11.0,378.0
2022-02-09-17:17:46.160887,7.0,11.0,378.0
2022-02-09-17:17:46.161884,5.0,9.0,378.0
2022-02-09-17:17:46.162882,4.0,11.0,378.0
2022-02-09-17:17:46.163879,4.0,11.0,378.0
2022-02-09-17:17:46.164877,4.0,11.0,378.0
2022-02-09-17:17:46.165874,2.0,15.0,377.0
2022-02-09-17:17:46.166871,5.0,17.0,377.0
2022-02-09-17:17:46.167868,5.0,17.0,377.0
2022-02-09-17:17:46.168866,5.0,17.0,377.0
2022-02-09-17:17:46.169863,3.0,13.0,377.0
2022-02-09-17:17:46.170861,6.0,12.0,377.0
2022-02-09-17:17:46.171858,6.0,12.0,377.0
2022-02-09-17:17:46.172855,6.0,12.0,377.0
2022-02-09-17:17:46.173853,6.0,12.0,377.0
2022-02-09-17:17:46.174850,6.0,0.0,377.0
2022-02-09-17:17:46.175848,9.0,8.0,378.0
2022-02-09-17:17:46.176845,9.0,8.0,378.0
2022-02-09-17:17:46.177842,9.0,8.0,378.0
2022-02-09-17:17:46.178839,6.0,9.0,377.0
2022-02-09-17:17:46.179837,6.0,8.0,377.0
2022-02-09-17:17:46.181832,7.0,5.0,377.0
2022-02-09-17:17:46.181832,7.0,5.0,377.0
2022-02-09-17:17:46.182862,6.0,3.0,378.0
2022-02-09-17:17:46.183859,3.0,15.0,377.0
2022-02-09-17:17:46.184860,3.0,18.0,378.0
2022-02-09-17:17:46.185821,7.0,13.0,377.0
2022-02-09-17:17:46.186851,2.0,15.0,377.0
2022-02-09-17:17:46.187850,2.0,8.0,378.0
2022-02-09-17:17:46.188846,0.0,13.0,378.0
2022-02-09-17:17:46.189843,0.0,13.0,378.0
2022-02-09-17:17:46.190841,1.0,7.0,377.0
2022-02-09-17:17:46.191838,4.0,10.0,378.0
2022-02-09-17:17:46.192803,4.0,10.0,378.0
2022-02-09-17:17:46.193799,4.0,10.0,378.0
2022-02-09-17:17:46.194798,6.0,13.0,377.0
2022-02-09-17:17:46.195795,6.0,11.0,378.0
2022-02-09-17:17:46.196793,6.0,0.0,377.0
2022-02-09-17:17:46.197789,6.0,0.0,377.0
2022-02-09-17:17:46.198787,4.0,13.0,377.0
2022-02-09-17:17:46.199784,2.0,17.0,378.0
2022-02-09-17:17:46.200781,2.0,19.0,378.0
2022-02-09-17:17:46.201778,5.0,14.0,377.0
2022-02-09-17:17:46.202776,7.0,15.0,377.0
2022-02-09-17:17:46.203773,4.0,10.0,377.0
2022-02-09-17:17:46.204771,6.0,11.0,377.0
2022-02-09-17:17:46.205768,6.0,11.0,377.0
2022-02-09-17:17:46.206765,6.0,11.0,377.0
2022-02-09-17:17:46.207763,4.0,2.0,377.0
2022-02-09-17:17:46.208760,8.0,7.0,377.0
2022-02-09-17:17:46.209757,8.0,7.0,377.0
2022-02-09-17:17:46.210755,8.0,7.0,377.0
2022-02-09-17:17:46.211752,8.0,9.0,377.0
2022-02-09-17:17:46.212749,5.0,0.0,378.0
2022-02-09-17:17:46.213747,5.0,0.0,378.0
2022-02-09-17:17:46.214744,5.0,0.0,378.0
2022-02-09-17:17:46.215741,1.0,9.0,378.0
2022-02-09-17:17:46.217736,3.0,13.0,377.0
2022-02-09-17:17:46.217736,2.0,15.0,377.0
2022-02-09-17:17:46.218733,5.0,13.0,377.0
2022-02-09-17:17:46.219731,3.0,11.0,377.0
2022-02-09-17:17:46.220728,3.0,11.0,377.0
2022-02-09-17:17:46.221725,3.0,11.0,377.0
2022-02-09-17:17:46.222723,3.0,11.0,377.0
2022-02-09-17:17:46.223720,3.0,11.0,378.0
2022-02-09-17:17:46.224717,5.0,3.0,377.0
2022-02-09-17:17:46.225714,5.0,3.0,377.0
2022-02-09-17:17:46.226712,5.0,3.0,377.0
2022-02-09-17:17:46.227710,6.0,8.0,378.0
2022-02-09-17:17:46.228707,9.0,11.0,377.0
2022-02-09-17:17:46.229704,3.0,11.0,377.0
2022-02-09-17:17:46.230702,7.0,5.0,377.0
2022-02-09-17:17:46.231699,9.0,6.0,377.0
2022-02-09-17:17:46.232696,4.0,10.0,377.0
2022-02-09-17:17:46.233693,4.0,10.0,377.0
2022-02-09-17:17:46.234691,4.0,10.0,377.0
2022-02-09-17:17:46.235688,6.0,9.0,377.0
2022-02-09-17:17:46.236685,3.0,11.0,378.0
2022-02-09-17:17:46.237683,3.0,11.0,378.0
2022-02-09-17:17:46.238680,3.0,11.0,378.0
2022-02-09-17:17:46.239677,4.0,8.0,377.0
2022-02-09-17:17:46.240675,8.0,6.0,377.0
2022-02-09-17:17:46.241672,6.0,12.0,377.0
2022-02-09-17:17:46.242669,6.0,12.0,377.0
2022-02-09-17:17:46.243667,8.0,14.0,377.0
2022-02-09-17:17:46.244664,9.0,0.0,378.0
2022-02-09-17:17:46.245661,9.0,0.0,378.0
2022-02-09-17:17:46.246659,9.0,0.0,378.0
2022-02-09-17:17:46.247656,9.0,0.0,378.0
2022-02-09-17:17:46.248653,4.0,12.0,377.0
2022-02-09-17:17:46.250648,4.0,12.0,377.0
2022-02-09-17:17:46.250648,4.0,12.0,377.0
2022-02-09-17:17:46.251691,3.0,14.0,377.0
2022-02-09-17:17:46.252678,5.0,8.0,377.0
2022-02-09-17:17:46.253640,5.0,8.0,377.0
2022-02-09-17:17:46.254675,5.0,8.0,377.0
2022-02-09-17:17:46.255635,5.0,8.0,377.0
2022-02-09-17:17:46.256668,7.0,8.0,377.0
2022-02-09-17:17:46.257630,5.0,0.0,378.0
2022-02-09-17:17:46.258627,7.0,11.0,377.0
2022-02-09-17:17:46.259624,7.0,11.0,377.0
2022-02-09-17:17:46.260621,6.0,12.0,377.0
2022-02-09-17:17:46.261619,5.0,4.0,377.0
2022-02-09-17:17:46.262616,5.0,4.0,377.0
2022-02-09-17:17:46.263613,5.0,4.0,377.0
2022-02-09-17:17:46.264611,5.0,8.0,377.0
2022-02-09-17:17:46.265608,4.0,17.0,377.0
2022-02-09-17:17:46.266605,3.0,12.0,377.0
2022-02-09-17:17:46.267603,3.0,12.0,377.0
2022-02-09-17:17:46.268600,2.0,12.0,377.0
2022-02-09-17:17:46.269597,2.0,15.0,378.0
2022-02-09-17:17:46.270595,2.0,15.0,378.0
2022-02-09-17:17:46.271592,2.0,15.0,378.0
2022-02-09-17:17:46.272589,3.0,8.0,377.0
2022-02-09-17:17:46.273587,1.0,5.0,377.0
2022-02-09-17:17:46.274584,7.0,7.0,378.0
2022-02-09-17:17:46.275581,7.0,7.0,378.0
2022-02-09-17:17:46.276579,5.0,12.0,378.0
2022-02-09-17:17:46.277576,7.0,3.0,377.0
2022-02-09-17:17:46.278606,7.0,3.0,377.0
2022-02-09-17:17:46.279603,7.0,3.0,377.0
2022-02-09-17:17:46.280603,6.0,6.0,377.0
2022-02-09-17:17:46.281566,1.0,16.0,377.0
2022-02-09-17:17:46.283596,1.0,16.0,377.0
2022-02-09-17:17:46.283596,1.0,16.0,377.0
2022-02-09-17:17:46.284589,6.0,12.0,377.0
2022-02-09-17:17:46.285587,4.0,14.0,377.0
2022-02-09-17:17:46.286584,4.0,14.0,377.0
2022-02-09-17:17:46.287582,4.0,14.0,377.0
2022-02-09-17:17:46.288579,4.0,14.0,377.0
2022-02-09-17:17:46.289543,4.0,14.0,377.0
2022-02-09-17:17:46.290541,1.0,7.0,378.0
2022-02-09-17:17:46.291576,5.0,2.0,378.0
2022-02-09-17:17:46.292570,5.0,2.0,378.0
2022-02-09-17:17:46.293558,9.0,14.0,377.0
2022-02-09-17:17:46.294531,3.0,8.0,377.0
2022-02-09-17:17:46.295528,9.0,9.0,378.0
2022-02-09-17:17:46.296525,9.0,9.0,378.0
2022-02-09-17:17:46.297523,6.0,1.0,377.0
2022-02-09-17:17:46.298520,1.0,16.0,378.0
2022-02-09-17:17:46.299518,3.0,16.0,378.0
2022-02-09-17:17:46.300515,3.0,16.0,378.0
2022-02-09-17:17:46.301512,2.0,12.0,377.0
2022-02-09-17:17:46.302509,4.0,12.0,377.0
2022-02-09-17:17:46.303507,4.0,12.0,377.0
2022-02-09-17:17:46.304504,2.0,11.0,378.0
2022-02-09-17:17:46.305502,7.0,10.0,378.0
2022-02-09-17:17:46.306498,2.0,7.0,378.0
2022-02-09-17:17:46.307496,6.0,3.0,378.0
2022-02-09-17:17:46.308493,6.0,3.0,378.0
2022-02-09-17:17:46.309491,9.0,10.0,377.0
2022-02-09-17:17:46.310488,5.0,6.0,378.0
2022-02-09-17:17:46.311485,5.0,6.0,378.0
2022-02-09-17:17:46.312483,5.0,6.0,378.0
2022-02-09-17:17:46.313481,2.0,7.0,377.0
2022-02-09-17:17:46.314478,2.0,7.0,377.0
2022-02-09-17:17:46.315474,2.0,15.0,378.0
2022-02-09-17:17:46.316472,2.0,15.0,378.0
2022-02-09-17:17:46.317469,5.0,15.0,378.0
2022-02-09-17:17:46.319464,5.0,8.0,378.0
2022-02-09-17:17:46.319464,3.0,11.0,378.0
2022-02-09-17:17:46.320461,3.0,11.0,378.0
2022-02-09-17:17:46.321459,3.0,11.0,378.0
2022-02-09-17:17:46.322456,4.0,13.0,378.0
2022-02-09-17:17:46.323453,2.0,10.0,377.0
2022-02-09-17:17:46.324451,4.0,2.0,377.0
2022-02-09-17:17:46.325448,4.0,2.0,377.0
2022-02-09-17:17:46.326445,4.0,5.0,378.0
2022-02-09-17:17:46.327443,10.0,13.0,377.0
2022-02-09-17:17:46.328440,8.0,12.0,377.0
2022-02-09-17:17:46.329437,8.0,12.0,377.0
2022-02-09-17:17:46.330435,5.0,5.0,377.0
2022-02-09-17:17:46.331432,1.0,17.0,377.0
2022-02-09-17:17:46.332429,1.0,17.0,377.0
2022-02-09-17:17:46.333427,1.0,17.0,377.0
2022-02-09-17:17:46.334424,5.0,12.0,377.0
2022-02-09-17:17:46.335422,2.0,8.0,377.0
2022-02-09-17:17:46.336419,2.0,8.0,377.0
2022-02-09-17:17:46.337416,2.0,8.0,377.0
2022-02-09-17:17:46.338413,2.0,10.0,378.0
2022-02-09-17:17:46.339411,5.0,3.0,378.0
2022-02-09-17:17:46.340408,5.0,3.0,378.0
2022-02-09-17:17:46.341405,5.0,3.0,378.0
2022-02-09-17:17:46.342403,6.0,11.0,377.0
2022-02-09-17:17:46.343400,9.0,14.0,377.0
2022-02-09-17:17:46.344397,9.0,14.0,377.0
2022-02-09-17:17:46.345395,9.0,14.0,377.0
2022-02-09-17:17:46.346392,8.0,1.0,377.0
2022-02-09-17:17:46.347389,6.0,5.0,377.0
2022-02-09-17:17:46.348387,1.0,16.0,378.0
2022-02-09-17:17:46.349384,1.0,16.0,378.0
2022-02-09-17:17:46.350381,4.0,14.0,378.0
2022-02-09-17:17:46.351379,4.0,10.0,378.0
2022-02-09-17:17:46.352376,4.0,10.0,378.0
2022-02-09-17:17:46.354403,4.0,10.0,378.0
2022-02-09-17:17:46.354403,5.0,9.0,377.0
2022-02-09-17:17:46.355368,5.0,8.0,378.0
2022-02-09-17:17:46.356398,5.0,5.0,377.0
2022-02-09-17:17:46.357407,5.0,5.0,377.0
2022-02-09-17:17:46.358392,6.0,6.0,378.0
2022-02-09-17:17:46.359390,10.0,12.0,377.0
2022-02-09-17:17:46.360394,10.0,12.0,377.0
2022-02-09-17:17:46.361384,10.0,12.0,377.0
2022-02-09-17:17:46.362381,10.0,12.0,377.0
2022-02-09-17:17:46.363347,8.0,11.0,377.0
2022-02-09-17:17:46.364344,5.0,2.0,377.0
2022-02-09-17:17:46.365341,5.0,13.0,377.0
2022-02-09-17:17:46.366339,5.0,13.0,377.0
2022-02-09-17:17:46.367336,4.0,13.0,377.0
2022-02-09-17:17:46.368334,0.0,17.0,377.0
2022-02-09-17:17:46.369331,5.0,16.0,377.0
2022-02-09-17:17:46.370328,5.0,12.0,377.0
2022-02-09-17:17:46.371325,6.0,16.0,378.0
2022-02-09-17:17:46.372323,6.0,15.0,377.0
2022-02-09-17:17:46.373320,2.0,12.0,378.0
2022-02-09-17:17:46.374317,2.0,12.0,378.0
2022-02-09-17:17:46.375315,4.0,0.0,377.0
2022-02-09-17:17:46.376312,10.0,9.0,377.0
2022-02-09-17:17:46.377309,7.0,10.0,377.0
2022-02-09-17:17:46.378307,7.0,10.0,377.0
2022-02-09-17:17:46.379304,9.0,11.0,377.0
2022-02-09-17:17:46.380302,9.0,11.0,377.0
2022-02-09-17:17:46.381299,6.0,15.0,378.0
2022-02-09-17:17:46.382296,6.0,15.0,378.0
2022-02-09-17:17:46.383293,6.0,15.0,378.0
2022-02-09-17:17:46.384291,1.0,17.0,378.0
2022-02-09-17:17:46.386285,1.0,17.0,378.0
2022-02-09-17:17:46.386285,6.0,15.0,378.0
2022-02-09-17:17:46.387283,4.0,14.0,377.0
2022-02-09-17:17:46.388280,4.0,14.0,377.0
2022-02-09-17:17:46.389277,6.0,10.0,377.0
2022-02-09-17:17:46.390275,3.0,11.0,378.0
2022-02-09-17:17:46.391272,3.0,6.0,377.0
2022-02-09-17:17:46.392270,6.0,3.0,377.0
2022-02-09-17:17:46.393267,7.0,6.0,378.0
2022-02-09-17:17:46.394264,8.0,11.0,378.0
2022-02-09-17:17:46.395261,5.0,7.0,378.0
2022-02-09-17:17:46.396259,9.0,8.0,377.0
2022-02-09-17:17:46.397256,9.0,8.0,377.0
2022-02-09-17:17:46.398254,3.0,9.0,377.0
2022-02-09-17:17:46.399256,3.0,9.0,377.0
2022-02-09-17:17:46.400248,0.0,16.0,378.0
2022-02-09-17:17:46.401245,4.0,12.0,377.0
2022-02-09-17:17:46.402243,7.0,11.0,377.0
2022-02-09-17:17:46.403240,7.0,11.0,377.0
2022-02-09-17:17:46.404238,3.0,12.0,377.0
2022-02-09-17:17:46.405235,5.0,10.0,378.0
2022-02-09-17:17:46.406232,3.0,7.0,378.0
2022-02-09-17:17:46.407230,3.0,7.0,378.0
2022-02-09-17:17:46.408227,4.0,7.0,378.0
2022-02-09-17:17:46.409224,3.0,0.0,378.0
2022-02-09-17:17:46.410221,6.0,13.0,378.0
2022-02-09-17:17:46.411219,6.0,13.0,378.0
2022-02-09-17:17:46.412216,5.0,4.0,378.0
2022-02-09-17:17:46.413214,4.0,3.0,377.0
2022-02-09-17:17:46.414211,4.0,3.0,377.0
2022-02-09-17:17:46.415208,4.0,3.0,377.0
2022-02-09-17:17:46.416205,4.0,15.0,377.0
2022-02-09-17:17:46.417202,2.0,17.0,377.0
2022-02-09-17:17:46.418199,6.0,13.0,377.0
2022-02-09-17:17:46.419197,1.0,11.0,377.0
2022-02-09-17:17:46.420194,6.0,10.0,377.0
2022-02-09-17:17:46.421191,2.0,11.0,377.0
2022-02-09-17:17:46.423186,8.0,9.0,378.0
2022-02-09-17:17:46.423186,2.0,9.0,378.0
2022-02-09-17:17:46.424184,2.0,8.0,377.0
2022-02-09-17:17:46.425182,7.0,13.0,378.0
2022-02-09-17:17:46.426178,7.0,13.0,378.0
2022-02-09-17:17:46.427175,7.0,13.0,378.0
2022-02-09-17:17:46.428173,4.0,12.0,378.0
2022-02-09-17:17:46.429170,4.0,12.0,378.0
2022-02-09-17:17:46.430168,2.0,16.0,378.0
2022-02-09-17:17:46.431179,3.0,2.0,377.0
2022-02-09-17:17:46.432164,6.0,6.0,378.0
2022-02-09-17:17:46.433160,1.0,14.0,377.0
2022-02-09-17:17:46.434158,6.0,11.0,377.0
2022-02-09-17:17:46.435155,6.0,9.0,377.0
2022-02-09-17:17:46.436152,5.0,11.0,378.0
2022-02-09-17:17:46.437150,3.0,8.0,377.0
2022-02-09-17:17:46.438147,3.0,8.0,377.0
2022-02-09-17:17:46.439144,3.0,8.0,377.0
2022-02-09-17:17:46.440142,5.0,10.0,378.0
2022-02-09-17:17:46.441139,7.0,6.0,377.0
2022-02-09-17:17:46.442136,8.0,8.0,378.0
2022-02-09-17:17:46.443133,8.0,8.0,378.0
2022-02-09-17:17:46.444131,8.0,8.0,378.0
2022-02-09-17:17:46.445127,7.0,15.0,377.0
2022-02-09-17:17:46.446158,3.0,11.0,377.0
2022-02-09-17:17:46.447123,5.0,4.0,377.0
2022-02-09-17:17:46.448120,5.0,4.0,377.0
2022-02-09-17:17:46.449117,4.0,15.0,378.0
2022-02-09-17:17:46.450115,3.0,13.0,377.0
2022-02-09-17:17:46.451112,3.0,13.0,377.0
2022-02-09-17:17:46.452109,3.0,13.0,377.0
2022-02-09-17:17:46.453107,5.0,8.0,378.0
2022-02-09-17:17:46.454104,4.0,8.0,378.0
2022-02-09-17:17:46.455101,4.0,9.0,378.0
2022-02-09-17:17:46.456099,3.0,8.0,377.0
2022-02-09-17:17:46.457096,6.0,12.0,377.0
2022-02-09-17:17:46.459091,2.0,7.0,377.0
2022-02-09-17:17:46.459091,9.0,8.0,378.0
2022-02-09-17:17:46.460088,9.0,8.0,378.0
2022-02-09-17:17:46.461086,6.0,15.0,378.0
2022-02-09-17:17:46.462084,4.0,8.0,378.0
2022-02-09-17:17:46.463081,4.0,8.0,378.0
2022-02-09-17:17:46.464079,4.0,8.0,378.0
2022-02-09-17:17:46.465114,5.0,14.0,377.0
2022-02-09-17:17:46.466106,4.0,16.0,377.0
2022-02-09-17:17:46.467104,0.0,9.0,377.0
2022-02-09-17:17:46.468066,0.0,9.0,377.0
2022-02-09-17:17:46.469099,6.0,11.0,377.0
2022-02-09-17:17:46.470094,0.0,9.0,378.0
2022-02-09-17:17:46.471092,0.0,9.0,378.0
2022-02-09-17:17:46.472088,0.0,9.0,378.0
2022-02-09-17:17:46.473086,3.0,5.0,377.0
2022-02-09-17:17:46.474051,8.0,10.0,378.0
2022-02-09-17:17:46.475048,8.0,10.0,378.0
2022-02-09-17:17:46.476045,8.0,10.0,378.0
2022-02-09-17:17:46.477043,8.0,10.0,378.0
2022-02-09-17:17:46.478040,9.0,13.0,377.0
2022-02-09-17:17:46.479038,8.0,9.0,377.0
2022-02-09-17:17:46.480035,8.0,1.0,377.0
2022-02-09-17:17:46.481035,8.0,1.0,377.0
2022-02-09-17:17:46.482031,0.0,16.0,378.0
2022-02-09-17:17:46.483028,1.0,11.0,378.0
2022-02-09-17:17:46.484024,5.0,11.0,378.0
2022-02-09-17:17:46.485022,5.0,11.0,378.0
2022-02-09-17:17:46.486019,5.0,12.0,377.0
2022-02-09-17:17:46.487018,5.0,10.0,377.0
2022-02-09-17:17:46.488049,6.0,13.0,378.0
2022-02-09-17:17:46.489035,3.0,14.0,378.0
2022-02-09-17:17:46.491006,2.0,6.0,378.0
2022-02-09-17:17:46.491006,0.0,1.0,377.0
2022-02-09-17:17:46.492004,7.0,4.0,378.0
2022-02-09-17:17:46.493002,7.0,4.0,378.0
2022-02-09-17:17:46.493999,4.0,15.0,377.0
2022-02-09-17:17:46.494996,4.0,15.0,377.0
2022-02-09-17:17:46.495994,5.0,9.0,377.0
2022-02-09-17:17:46.496991,5.0,1.0,377.0
2022-02-09-17:17:46.497989,7.0,8.0,377.0
2022-02-09-17:17:46.498985,1.0,15.0,378.0
2022-02-09-17:17:46.499982,1.0,15.0,378.0
2022-02-09-17:17:46.500979,1.0,15.0,378.0
2022-02-09-17:17:46.501977,7.0,13.0,377.0
2022-02-09-17:17:46.502974,1.0,16.0,377.0
2022-02-09-17:17:46.503972,3.0,13.0,377.0
2022-02-09-17:17:46.504968,4.0,9.0,377.0
2022-02-09-17:17:46.505966,3.0,11.0,377.0
2022-02-09-17:17:46.506963,5.0,10.0,378.0
2022-02-09-17:17:46.507961,5.0,10.0,378.0
2022-02-09-17:17:46.508958,2.0,3.0,378.0
2022-02-09-17:17:46.509956,8.0,8.0,377.0
2022-02-09-17:17:46.510953,9.0,13.0,377.0
2022-02-09-17:17:46.511950,4.0,13.0,377.0
2022-02-09-17:17:46.512947,5.0,8.0,377.0
2022-02-09-17:17:46.513945,4.0,7.0,377.0
2022-02-09-17:17:46.514943,8.0,6.0,378.0
2022-02-09-17:17:46.515939,2.0,11.0,377.0
2022-02-09-17:17:46.516936,4.0,16.0,378.0
2022-02-09-17:17:46.517934,5.0,13.0,377.0
2022-02-09-17:17:46.518931,5.0,13.0,378.0
2022-02-09-17:17:46.519929,7.0,10.0,377.0
2022-02-09-17:17:46.520926,7.0,10.0,377.0
2022-02-09-17:17:46.521923,5.0,14.0,377.0
2022-02-09-17:17:46.522920,4.0,9.0,377.0
2022-02-09-17:17:46.524915,2.0,1.0,377.0
2022-02-09-17:17:46.524915,2.0,1.0,377.0
2022-02-09-17:17:46.525912,6.0,7.0,377.0
2022-02-09-17:17:46.526910,8.0,14.0,377.0
2022-02-09-17:17:46.527907,7.0,13.0,377.0
2022-02-09-17:17:46.528905,5.0,12.0,378.0
2022-02-09-17:17:46.529902,4.0,5.0,378.0
2022-02-09-17:17:46.530899,6.0,5.0,378.0
2022-02-09-17:17:46.531895,3.0,10.0,377.0
2022-02-09-17:17:46.532892,1.0,14.0,378.0
2022-02-09-17:17:46.533891,1.0,15.0,378.0
2022-02-09-17:17:46.534889,3.0,13.0,377.0
2022-02-09-17:17:46.535886,0.0,13.0,377.0
2022-02-09-17:17:46.536883,7.0,9.0,378.0
2022-02-09-17:17:46.537881,6.0,13.0,377.0
2022-02-09-17:17:46.538877,6.0,13.0,377.0
2022-02-09-17:17:46.539874,2.0,11.0,378.0
2022-02-09-17:17:46.540871,2.0,11.0,378.0
2022-02-09-17:17:46.541869,1.0,6.0,378.0
2022-02-09-17:17:46.542867,3.0,4.0,378.0
2022-02-09-17:17:46.543863,7.0,12.0,378.0
2022-02-09-17:17:46.544861,8.0,10.0,377.0
2022-02-09-17:17:46.545858,8.0,10.0,377.0
2022-02-09-17:17:46.546856,8.0,0.0,377.0
2022-02-09-17:17:46.547853,2.0,4.0,377.0
2022-02-09-17:17:46.548852,1.0,16.0,377.0
2022-02-09-17:17:46.549848,3.0,13.0,377.0
2022-02-09-17:17:46.550846,5.0,14.0,377.0
2022-02-09-17:17:46.551843,4.0,9.0,377.0
2022-02-09-17:17:46.552840,4.0,9.0,377.0
2022-02-09-17:17:46.553837,4.0,9.0,377.0
2022-02-09-17:17:46.554836,4.0,9.0,377.0
2022-02-09-17:17:46.555832,2.0,13.0,377.0
2022-02-09-17:17:46.556830,6.0,1.0,377.0
2022-02-09-17:17:46.558824,6.0,1.0,377.0
2022-02-09-17:17:46.558824,5.0,9.0,378.0
2022-02-09-17:17:46.559822,8.0,13.0,377.0
2022-02-09-17:17:46.560819,7.0,13.0,377.0
2022-02-09-17:17:46.561816,6.0,11.0,377.0
2022-02-09-17:17:46.562814,6.0,11.0,377.0
2022-02-09-17:17:46.563811,5.0,6.0,377.0
2022-02-09-17:17:46.564809,7.0,0.0,377.0
2022-02-09-17:17:46.565806,3.0,13.0,377.0
2022-02-09-17:17:46.566803,3.0,13.0,377.0
2022-02-09-17:17:46.567799,5.0,9.0,377.0
2022-02-09-17:17:46.568796,4.0,11.0,377.0
2022-02-09-17:17:46.569795,3.0,14.0,378.0
2022-02-09-17:17:46.570792,3.0,14.0,378.0
2022-02-09-17:17:46.571790,5.0,10.0,377.0
2022-02-09-17:17:46.572788,6.0,8.0,378.0
2022-02-09-17:17:46.573785,2.0,5.0,377.0
2022-02-09-17:17:46.574784,2.0,5.0,377.0
2022-02-09-17:17:46.575779,4.0,5.0,377.0
2022-02-09-17:17:46.576801,7.0,11.0,378.0
2022-02-09-17:17:46.577774,6.0,13.0,378.0
2022-02-09-17:17:46.578772,6.0,13.0,378.0
2022-02-09-17:17:46.579768,8.0,8.0,377.0
2022-02-09-17:17:46.580766,8.0,8.0,377.0
2022-02-09-17:17:46.581763,3.0,7.0,378.0
2022-02-09-17:17:46.582760,0.0,11.0,377.0
2022-02-09-17:17:46.583758,4.0,9.0,377.0
2022-02-09-17:17:46.584755,2.0,11.0,377.0
2022-02-09-17:17:46.585752,3.0,9.0,378.0
2022-02-09-17:17:46.586750,3.0,9.0,378.0
2022-02-09-17:17:46.587747,3.0,9.0,378.0
2022-02-09-17:17:46.588744,3.0,12.0,377.0
2022-02-09-17:17:46.589742,4.0,10.0,377.0
2022-02-09-17:17:46.590740,2.0,10.0,378.0
2022-02-09-17:17:46.591737,11.0,14.0,377.0
2022-02-09-17:17:46.593732,9.0,13.0,377.0
2022-02-09-17:17:46.593732,9.0,13.0,377.0
2022-02-09-17:17:46.594729,9.0,13.0,377.0
2022-02-09-17:17:46.595725,9.0,13.0,377.0
2022-02-09-17:17:46.596723,7.0,5.0,378.0
2022-02-09-17:17:46.597720,2.0,5.0,377.0
2022-02-09-17:17:46.598718,5.0,13.0,378.0
2022-02-09-17:17:46.599729,5.0,13.0,378.0
2022-02-09-17:17:46.600738,6.0,11.0,377.0
2022-02-09-17:17:46.601711,6.0,10.0,377.0
2022-02-09-17:17:46.602708,5.0,9.0,378.0
2022-02-09-17:17:46.603706,5.0,9.0,378.0
2022-02-09-17:17:46.604702,4.0,10.0,378.0
2022-02-09-17:17:46.605699,4.0,10.0,377.0
2022-02-09-17:17:46.606696,5.0,5.0,377.0
2022-02-09-17:17:46.607694,5.0,5.0,377.0
2022-02-09-17:17:46.608690,5.0,5.0,377.0
2022-02-09-17:17:46.609688,6.0,5.0,378.0
2022-02-09-17:17:46.610686,7.0,10.0,377.0
2022-02-09-17:17:46.611683,7.0,10.0,377.0
2022-02-09-17:17:46.612680,9.0,12.0,377.0
2022-02-09-17:17:46.613679,4.0,7.0,377.0
2022-02-09-17:17:46.614675,6.0,4.0,378.0
2022-02-09-17:17:46.615672,7.0,12.0,377.0
2022-02-09-17:17:46.616669,5.0,16.0,377.0
2022-02-09-17:17:46.617667,5.0,14.0,377.0
2022-02-09-17:17:46.618664,5.0,14.0,377.0
2022-02-09-17:17:46.619662,6.0,9.0,377.0
2022-02-09-17:17:46.620660,6.0,8.0,378.0
2022-02-09-17:17:46.621656,3.0,9.0,377.0
2022-02-09-17:17:46.622653,5.0,11.0,378.0
2022-02-09-17:17:46.623651,8.0,11.0,377.0
2022-02-09-17:17:46.624648,4.0,8.0,377.0
2022-02-09-17:17:46.625646,1.0,4.0,378.0
2022-02-09-17:17:46.627641,9.0,8.0,377.0
2022-02-09-17:17:46.627641,9.0,15.0,377.0
2022-02-09-17:17:46.628639,4.0,12.0,378.0
2022-02-09-17:17:46.629634,3.0,7.0,377.0
2022-02-09-17:17:46.630634,2.0,9.0,377.0
2022-02-09-17:17:46.631630,2.0,9.0,377.0
2022-02-09-17:17:46.632628,2.0,9.0,377.0
2022-02-09-17:17:46.633626,0.0,16.0,377.0
2022-02-09-17:17:46.634622,1.0,16.0,377.0
2022-02-09-17:17:46.635620,3.0,16.0,378.0
2022-02-09-17:17:46.636618,3.0,14.0,378.0
2022-02-09-17:17:46.637616,5.0,12.0,377.0
2022-02-09-17:17:46.638613,7.0,8.0,377.0
2022-02-09-17:17:46.639609,1.0,10.0,377.0
2022-02-09-17:17:46.640639,1.0,10.0,377.0
2022-02-09-17:17:46.641635,5.0,6.0,377.0
2022-02-09-17:17:46.642635,4.0,2.0,378.0
2022-02-09-17:17:46.643598,4.0,8.0,377.0
2022-02-09-17:17:46.644595,7.0,13.0,378.0
2022-02-09-17:17:46.645592,9.0,16.0,377.0
2022-02-09-17:17:46.646590,7.0,11.0,377.0
2022-02-09-17:17:46.647587,5.0,6.0,377.0
2022-02-09-17:17:46.648584,5.0,6.0,377.0
2022-02-09-17:17:46.649580,4.0,15.0,377.0
2022-02-09-17:17:46.650578,2.0,16.0,378.0
2022-02-09-17:17:46.651575,5.0,12.0,377.0
2022-02-09-17:17:46.652573,5.0,12.0,377.0
2022-02-09-17:17:46.653570,5.0,12.0,377.0
2022-02-09-17:17:46.654567,2.0,10.0,377.0
2022-02-09-17:17:46.655564,6.0,10.0,377.0
2022-02-09-17:17:46.656562,6.0,10.0,377.0
2022-02-09-17:17:46.657560,7.0,10.0,377.0
2022-02-09-17:17:46.658557,7.0,10.0,377.0
2022-02-09-17:17:46.660551,6.0,12.0,377.0
2022-02-09-17:17:46.660551,6.0,12.0,377.0
2022-02-09-17:17:46.661549,6.0,12.0,378.0
2022-02-09-17:17:46.662547,7.0,8.0,377.0
2022-02-09-17:17:46.663545,6.0,2.0,377.0
2022-02-09-17:17:46.664541,6.0,2.0,377.0
2022-02-09-17:17:46.665539,6.0,2.0,377.0
2022-02-09-17:17:46.666536,4.0,14.0,377.0
2022-02-09-17:17:46.667534,7.0,13.0,378.0
2022-02-09-17:17:46.668531,4.0,11.0,377.0
2022-02-09-17:17:46.669528,4.0,11.0,377.0
2022-02-09-17:17:46.670525,4.0,8.0,377.0
2022-02-09-17:17:46.671523,4.0,8.0,377.0
2022-02-09-17:17:46.672520,3.0,13.0,377.0
2022-02-09-17:17:46.673517,7.0,9.0,378.0
2022-02-09-17:17:46.674515,7.0,5.0,377.0
2022-02-09-17:17:46.675512,7.0,6.0,378.0
2022-02-09-17:17:46.676510,6.0,3.0,377.0
2022-02-09-17:17:46.677507,5.0,9.0,377.0
2022-02-09-17:17:46.678505,7.0,9.0,377.0
2022-02-09-17:17:46.679502,8.0,1.0,377.0
2022-02-09-17:17:46.680500,8.0,1.0,377.0
2022-02-09-17:17:46.681498,8.0,1.0,377.0
2022-02-09-17:17:46.682494,4.0,10.0,378.0
2022-02-09-17:17:46.683491,4.0,15.0,378.0
2022-02-09-17:17:46.684489,4.0,15.0,378.0
2022-02-09-17:17:46.685486,4.0,15.0,378.0
2022-02-09-17:17:46.686483,4.0,15.0,378.0
2022-02-09-17:17:46.687481,3.0,13.0,378.0
2022-02-09-17:17:46.688478,3.0,13.0,377.0
2022-02-09-17:17:46.689476,6.0,8.0,377.0
2022-02-09-17:17:46.690473,5.0,11.0,378.0
2022-02-09-17:17:46.691469,4.0,12.0,377.0
2022-02-09-17:17:46.692467,5.0,6.0,378.0
2022-02-09-17:17:46.693463,5.0,3.0,378.0
2022-02-09-17:17:46.694462,6.0,7.0,377.0
2022-02-09-17:17:46.696456,3.0,10.0,377.0
2022-02-09-17:17:46.696456,6.0,5.0,378.0
2022-02-09-17:17:46.697454,5.0,5.0,377.0
2022-02-09-17:17:46.698452,2.0,16.0,377.0
2022-02-09-17:17:46.699449,2.0,13.0,377.0
2022-02-09-17:17:46.700446,2.0,13.0,377.0
2022-02-09-17:17:46.701444,2.0,13.0,377.0
2022-02-09-17:17:46.702441,2.0,13.0,377.0
2022-02-09-17:17:46.703439,6.0,14.0,377.0
2022-02-09-17:17:46.704435,3.0,11.0,377.0
2022-02-09-17:17:46.705432,2.0,10.0,377.0
2022-02-09-17:17:46.706429,2.0,11.0,377.0
2022-02-09-17:17:46.707427,5.0,8.0,377.0
2022-02-09-17:17:46.708425,3.0,0.0,377.0
2022-02-09-17:17:46.709423,4.0,4.0,377.0
2022-02-09-17:17:46.710420,8.0,14.0,377.0
2022-02-09-17:17:46.711418,6.0,12.0,377.0
2022-02-09-17:17:46.712415,5.0,5.0,377.0
2022-02-09-17:17:46.713412,5.0,5.0,377.0
2022-02-09-17:17:46.714409,5.0,5.0,377.0
2022-02-09-17:17:46.715407,4.0,13.0,377.0
2022-02-09-17:17:46.716404,4.0,12.0,377.0
2022-02-09-17:17:46.717402,4.0,12.0,377.0
2022-02-09-17:17:46.718398,4.0,12.0,377.0
2022-02-09-17:17:46.719396,3.0,9.0,377.0
2022-02-09-17:17:46.720392,4.0,10.0,378.0
2022-02-09-17:17:46.721389,1.0,12.0,377.0
2022-02-09-17:17:46.722388,1.0,12.0,377.0
2022-02-09-17:17:46.723384,5.0,11.0,377.0
2022-02-09-17:17:46.724381,3.0,5.0,377.0
2022-02-09-17:17:46.725378,4.0,4.0,377.0
2022-02-09-17:17:46.726375,6.0,7.0,377.0
2022-02-09-17:17:46.727373,6.0,10.0,378.0
2022-02-09-17:17:46.728371,6.0,10.0,378.0
2022-02-09-17:17:46.729368,7.0,9.0,377.0
2022-02-09-17:17:46.731365,7.0,4.0,377.0
2022-02-09-17:17:46.731365,6.0,11.0,377.0
2022-02-09-17:17:46.732360,3.0,14.0,377.0
2022-02-09-17:17:46.733358,3.0,14.0,377.0
2022-02-09-17:17:46.734355,3.0,14.0,377.0
2022-02-09-17:17:46.735352,2.0,11.0,377.0
2022-02-09-17:17:46.736350,3.0,9.0,377.0
2022-02-09-17:17:46.737347,3.0,9.0,377.0
2022-02-09-17:17:46.738344,3.0,9.0,377.0
2022-02-09-17:17:46.739342,3.0,9.0,377.0
2022-02-09-17:17:46.740339,7.0,8.0,377.0
2022-02-09-17:17:46.741337,4.0,13.0,377.0
2022-02-09-17:17:46.742334,8.0,8.0,377.0
2022-02-09-17:17:46.743331,8.0,8.0,377.0
2022-02-09-17:17:46.744328,10.0,13.0,378.0
2022-02-09-17:17:46.745327,10.0,7.0,378.0
2022-02-09-17:17:46.746323,8.0,0.0,377.0
2022-02-09-17:17:46.747320,8.0,0.0,377.0
2022-02-09-17:17:46.748318,2.0,15.0,378.0
2022-02-09-17:17:46.749316,2.0,15.0,378.0
2022-02-09-17:17:46.750313,2.0,15.0,378.0
2022-02-09-17:17:46.751309,2.0,15.0,378.0
2022-02-09-17:17:46.752307,3.0,13.0,377.0
2022-02-09-17:17:46.753304,7.0,11.0,378.0
2022-02-09-17:17:46.754303,7.0,11.0,378.0
2022-02-09-17:17:46.755300,7.0,11.0,378.0
2022-02-09-17:17:46.756297,5.0,11.0,377.0
2022-02-09-17:17:46.757294,6.0,10.0,377.0
2022-02-09-17:17:46.758291,5.0,2.0,377.0
2022-02-09-17:17:46.759287,6.0,6.0,378.0
2022-02-09-17:17:46.760286,8.0,8.0,377.0
2022-02-09-17:17:46.761284,5.0,8.0,378.0
2022-02-09-17:17:46.762281,7.0,11.0,378.0
2022-02-09-17:17:46.764275,9.0,5.0,377.0
2022-02-09-17:17:46.765272,6.0,13.0,377.0
2022-02-09-17:17:46.765272,2.0,15.0,378.0
2022-02-09-17:17:46.766271,2.0,15.0,378.0
2022-02-09-17:17:46.767267,2.0,15.0,378.0
2022-02-09-17:17:46.768265,4.0,14.0,377.0
2022-02-09-17:17:46.769261,6.0,10.0,377.0
2022-02-09-17:17:46.770259,6.0,10.0,377.0
2022-02-09-17:17:46.771256,6.0,10.0,377.0
2022-02-09-17:17:46.772253,6.0,10.0,377.0
2022-02-09-17:17:46.773252,6.0,10.0,377.0
2022-02-09-17:17:46.774249,5.0,11.0,377.0
2022-02-09-17:17:46.775247,3.0,6.0,378.0
2022-02-09-17:17:46.776244,10.0,12.0,378.0
2022-02-09-17:17:46.777241,4.0,8.0,377.0
2022-02-09-17:17:46.778238,4.0,8.0,377.0
2022-02-09-17:17:46.779235,4.0,8.0,377.0
2022-02-09-17:17:46.780233,4.0,8.0,377.0
2022-02-09-17:17:46.781232,5.0,12.0,377.0
2022-02-09-17:17:46.782227,5.0,12.0,377.0
2022-02-09-17:17:46.783224,3.0,16.0,378.0
2022-02-09-17:17:46.784222,1.0,15.0,377.0
2022-02-09-17:17:46.785219,3.0,14.0,377.0
2022-02-09-17:17:46.786216,4.0,14.0,378.0
2022-02-09-17:17:46.787213,4.0,11.0,378.0
2022-02-09-17:17:46.788211,4.0,11.0,378.0
2022-02-09-17:17:46.789208,0.0,12.0,377.0
2022-02-09-17:17:46.790206,2.0,14.0,378.0
2022-02-09-17:17:46.791204,4.0,11.0,377.0
2022-02-09-17:17:46.792200,4.0,4.0,377.0
2022-02-09-17:17:46.793197,6.0,7.0,377.0
2022-02-09-17:17:46.794195,6.0,11.0,378.0
2022-02-09-17:17:46.795193,10.0,13.0,377.0
2022-02-09-17:17:46.796189,8.0,12.0,377.0
2022-02-09-17:17:46.797187,9.0,2.0,377.0
2022-02-09-17:17:46.798185,7.0,9.0,377.0
2022-02-09-17:17:46.799183,3.0,13.0,377.0
2022-02-09-17:17:46.800180,3.0,13.0,377.0
2022-02-09-17:17:46.802177,3.0,17.0,377.0
2022-02-09-17:17:46.802177,7.0,16.0,377.0
2022-02-09-17:17:46.803170,5.0,15.0,377.0
2022-02-09-17:17:46.804168,2.0,15.0,377.0
2022-02-09-17:17:46.805166,3.0,16.0,377.0
2022-02-09-17:17:46.806163,4.0,10.0,377.0
2022-02-09-17:17:46.807160,6.0,2.0,377.0
2022-02-09-17:17:46.808157,6.0,2.0,377.0
2022-02-09-17:17:46.809155,6.0,9.0,377.0
2022-02-09-17:17:46.810154,6.0,7.0,377.0
2022-02-09-17:17:46.811149,6.0,7.0,377.0
2022-02-09-17:17:46.812147,6.0,7.0,377.0
2022-02-09-17:17:46.813176,4.0,5.0,377.0
2022-02-09-17:17:46.814174,1.0,17.0,377.0
2022-02-09-17:17:46.815175,1.0,17.0,377.0
2022-02-09-17:17:46.816169,1.0,17.0,377.0
2022-02-09-17:17:46.817166,6.0,14.0,378.0
2022-02-09-17:17:46.818165,1.0,12.0,377.0
2022-02-09-17:17:46.819129,1.0,12.0,377.0
2022-02-09-17:17:46.820126,1.0,12.0,377.0
2022-02-09-17:17:46.821124,1.0,12.0,377.0
2022-02-09-17:17:46.822121,3.0,8.0,377.0
2022-02-09-17:17:46.823118,3.0,8.0,377.0
2022-02-09-17:17:46.824115,3.0,8.0,377.0
2022-02-09-17:17:46.825113,3.0,8.0,377.0
2022-02-09-17:17:46.826110,5.0,9.0,377.0
2022-02-09-17:17:46.827108,6.0,11.0,377.0
2022-02-09-17:17:46.828105,6.0,11.0,377.0
2022-02-09-17:17:46.829102,6.0,11.0,377.0
2022-02-09-17:17:46.830099,7.0,6.0,378.0
2022-02-09-17:17:46.831097,6.0,2.0,377.0
2022-02-09-17:17:46.832094,6.0,2.0,377.0
2022-02-09-17:17:46.833092,3.0,7.0,377.0
2022-02-09-17:17:46.835087,0.0,19.0,378.0
2022-02-09-17:17:46.835087,7.0,21.0,377.0
2022-02-09-17:17:46.836084,6.0,20.0,377.0
2022-02-09-17:17:46.837081,6.0,20.0,377.0
2022-02-09-17:17:46.838078,3.0,18.0,377.0
2022-02-09-17:17:46.839076,3.0,14.0,377.0
2022-02-09-17:17:46.840073,3.0,19.0,378.0
2022-02-09-17:17:46.841071,4.0,15.0,377.0
2022-02-09-17:17:46.842068,5.0,2.0,378.0
2022-02-09-17:17:46.843077,7.0,13.0,377.0
2022-02-09-17:17:46.844062,7.0,13.0,377.0
2022-02-09-17:17:46.845060,7.0,13.0,377.0
2022-02-09-17:17:46.846057,10.0,10.0,377.0
2022-02-09-17:17:46.847054,5.0,3.0,377.0
2022-02-09-17:17:46.848052,4.0,2.0,378.0
2022-02-09-17:17:46.849054,3.0,13.0,378.0
2022-02-09-17:17:46.850046,2.0,14.0,377.0
2022-02-09-17:17:46.851043,2.0,14.0,377.0
2022-02-09-17:17:46.852041,2.0,14.0,377.0
2022-02-09-17:17:46.853037,8.0,13.0,377.0
2022-02-09-17:17:46.854035,8.0,12.0,377.0
2022-02-09-17:17:46.855032,5.0,11.0,377.0
2022-02-09-17:17:46.856029,6.0,7.0,378.0
2022-02-09-17:17:46.857027,5.0,8.0,377.0
2022-02-09-17:17:46.858024,3.0,10.0,377.0
2022-02-09-17:17:46.859021,5.0,5.0,377.0
2022-02-09-17:17:46.860019,4.0,2.0,377.0
2022-02-09-17:17:46.861016,5.0,10.0,377.0
2022-02-09-17:17:46.862013,7.0,12.0,378.0
2022-02-09-17:17:46.863010,5.0,9.0,378.0
2022-02-09-17:17:46.864008,5.0,2.0,377.0
2022-02-09-17:17:46.865005,6.0,2.0,377.0
2022-02-09-17:17:46.866003,1.0,16.0,377.0
2022-02-09-17:17:46.867000,2.0,15.0,378.0
2022-02-09-17:17:46.868996,6.0,16.0,377.0
2022-02-09-17:17:46.868996,5.0,12.0,377.0
2022-02-09-17:17:46.869993,5.0,12.0,377.0
2022-02-09-17:17:46.870990,1.0,15.0,377.0
2022-02-09-17:17:46.871987,2.0,10.0,377.0
2022-02-09-17:17:46.872985,2.0,10.0,377.0
2022-02-09-17:17:46.873982,2.0,10.0,377.0
2022-02-09-17:17:46.874979,4.0,5.0,378.0
2022-02-09-17:17:46.875977,5.0,3.0,377.0
2022-02-09-17:17:46.876974,5.0,10.0,378.0
2022-02-09-17:17:46.877972,9.0,14.0,378.0
2022-02-09-17:17:46.878969,9.0,14.0,378.0
2022-02-09-17:17:46.879967,7.0,8.0,378.0
2022-02-09-17:17:46.880964,7.0,7.0,377.0
2022-02-09-17:17:46.881959,7.0,4.0,378.0
2022-02-09-17:17:46.882958,3.0,6.0,377.0
2022-02-09-17:17:46.883956,3.0,6.0,377.0
2022-02-09-17:17:46.884954,0.0,13.0,378.0
2022-02-09-17:17:46.885950,2.0,13.0,378.0
2022-02-09-17:17:46.886949,0.0,8.0,378.0
2022-02-09-17:17:46.887945,6.0,10.0,377.0
2022-02-09-17:17:46.888941,3.0,9.0,377.0
2022-02-09-17:17:46.889939,6.0,10.0,377.0
2022-02-09-17:17:46.890936,6.0,9.0,378.0
2022-02-09-17:17:46.891934,5.0,5.0,377.0
2022-02-09-17:17:46.892931,2.0,2.0,377.0
2022-02-09-17:17:46.893929,7.0,9.0,377.0
2022-02-09-17:17:46.894926,7.0,14.0,378.0
2022-02-09-17:17:46.895925,8.0,12.0,378.0
2022-02-09-17:17:46.896921,4.0,9.0,377.0
2022-02-09-17:17:46.897917,8.0,8.0,377.0
2022-02-09-17:17:46.898914,5.0,2.0,377.0
2022-02-09-17:17:46.899912,5.0,14.0,377.0
2022-02-09-17:17:46.900909,1.0,9.0,377.0
2022-02-09-17:17:46.902904,1.0,9.0,377.0
2022-02-09-17:17:46.902904,3.0,10.0,377.0
2022-02-09-17:17:46.903902,5.0,8.0,378.0
2022-02-09-17:17:46.904898,7.0,11.0,377.0
2022-02-09-17:17:46.905896,5.0,9.0,378.0
2022-02-09-17:17:46.906893,5.0,9.0,378.0
2022-02-09-17:17:46.907890,3.0,8.0,378.0
2022-02-09-17:17:46.908888,7.0,15.0,378.0
2022-02-09-17:17:46.909886,7.0,15.0,378.0
2022-02-09-17:17:46.910884,7.0,15.0,378.0
2022-02-09-17:17:46.911881,5.0,13.0,377.0
2022-02-09-17:17:46.912910,8.0,17.0,377.0
2022-02-09-17:17:46.913876,1.0,6.0,378.0
2022-02-09-17:17:46.914873,1.0,6.0,378.0
2022-02-09-17:17:46.915870,2.0,12.0,378.0
2022-02-09-17:17:46.916867,1.0,11.0,378.0
2022-02-09-17:17:46.917865,4.0,9.0,377.0
2022-02-09-17:17:46.918862,4.0,9.0,377.0
2022-02-09-17:17:46.919859,4.0,9.0,377.0
2022-02-09-17:17:46.920856,5.0,7.0,377.0
2022-02-09-17:17:46.921853,8.0,8.0,378.0
2022-02-09-17:17:46.922852,2.0,8.0,377.0
2022-02-09-17:17:46.923849,3.0,7.0,377.0
2022-02-09-17:17:46.924847,1.0,2.0,378.0
2022-02-09-17:17:46.925844,8.0,17.0,377.0
2022-02-09-17:17:46.926841,8.0,17.0,377.0
2022-02-09-17:17:46.927839,5.0,9.0,378.0
2022-02-09-17:17:46.928836,8.0,4.0,377.0
2022-02-09-17:17:46.929833,6.0,3.0,377.0
2022-02-09-17:17:46.930830,6.0,3.0,377.0
2022-02-09-17:17:46.931827,6.0,3.0,377.0
2022-02-09-17:17:46.932825,5.0,8.0,378.0
2022-02-09-17:17:46.933822,3.0,6.0,378.0
2022-02-09-17:17:46.934820,3.0,6.0,378.0
2022-02-09-17:17:46.935817,3.0,6.0,378.0
2022-02-09-17:17:46.937812,4.0,5.0,378.0
2022-02-09-17:17:46.937812,2.0,6.0,377.0
2022-02-09-17:17:46.938809,4.0,6.0,377.0
2022-02-09-17:17:46.939806,2.0,3.0,377.0
2022-02-09-17:17:46.940803,6.0,4.0,377.0
2022-02-09-17:17:46.941801,6.0,8.0,377.0
2022-02-09-17:17:46.942799,5.0,12.0,378.0
2022-02-09-17:17:46.943796,5.0,16.0,377.0
2022-02-09-17:17:46.944825,7.0,16.0,377.0
2022-02-09-17:17:46.945790,5.0,6.0,377.0
2022-02-09-17:17:46.946787,5.0,6.0,377.0
2022-02-09-17:17:46.947818,5.0,6.0,377.0
2022-02-09-17:17:46.948781,1.0,17.0,378.0
2022-02-09-17:17:46.949811,3.0,9.0,377.0
2022-02-09-17:17:46.950777,3.0,9.0,377.0
2022-02-09-17:17:46.951773,3.0,9.0,377.0
2022-02-09-17:17:46.952771,6.0,9.0,378.0
2022-02-09-17:17:46.953768,4.0,4.0,377.0
2022-02-09-17:17:46.954766,5.0,8.0,377.0
2022-02-09-17:17:46.955763,5.0,8.0,377.0
2022-02-09-17:17:46.956760,3.0,6.0,377.0
2022-02-09-17:17:46.957758,0.0,5.0,377.0
2022-02-09-17:17:46.958755,8.0,13.0,377.0
2022-02-09-17:17:46.959753,8.0,13.0,377.0
2022-02-09-17:17:46.960749,4.0,14.0,377.0
2022-02-09-17:17:46.961748,4.0,14.0,378.0
2022-02-09-17:17:46.962744,6.0,14.0,378.0
2022-02-09-17:17:46.963742,4.0,4.0,378.0
2022-02-09-17:17:46.964739,4.0,6.0,378.0
2022-02-09-17:17:46.965737,0.0,13.0,377.0
2022-02-09-17:17:46.966734,7.0,13.0,377.0
2022-02-09-17:17:46.967731,5.0,7.0,378.0
2022-02-09-17:17:46.968729,5.0,7.0,378.0
2022-02-09-17:17:46.969727,8.0,9.0,378.0
2022-02-09-17:17:46.971720,8.0,8.0,377.0
2022-02-09-17:17:46.971720,2.0,9.0,378.0
2022-02-09-17:17:46.972717,4.0,10.0,378.0
2022-02-09-17:17:46.973715,4.0,8.0,377.0
2022-02-09-17:17:46.974713,6.0,11.0,378.0
2022-02-09-17:17:46.975710,6.0,11.0,378.0
2022-02-09-17:17:46.976707,6.0,11.0,378.0
2022-02-09-17:17:46.977704,10.0,11.0,377.0
2022-02-09-17:17:46.978701,6.0,2.0,377.0
2022-02-09-17:17:46.979699,6.0,2.0,377.0
2022-02-09-17:17:46.980696,6.0,2.0,377.0
2022-02-09-17:17:46.981694,1.0,8.0,378.0
2022-02-09-17:17:46.982692,2.0,16.0,377.0
2022-02-09-17:17:46.983688,4.0,11.0,378.0
2022-02-09-17:17:46.984686,5.0,11.0,377.0
2022-02-09-17:17:46.985683,3.0,10.0,378.0
2022-02-09-17:17:46.986680,5.0,7.0,378.0
2022-02-09-17:17:46.987677,5.0,7.0,378.0
2022-02-09-17:17:46.988675,5.0,7.0,378.0
2022-02-09-17:17:46.989672,7.0,9.0,377.0
2022-02-09-17:17:46.990669,7.0,9.0,377.0
2022-02-09-17:17:46.991667,4.0,8.0,377.0
2022-02-09-17:17:46.992696,7.0,5.0,377.0
2022-02-09-17:17:46.993696,9.0,13.0,378.0
2022-02-09-17:17:46.994691,6.0,7.0,377.0
2022-02-09-17:17:46.995691,6.0,7.0,377.0
2022-02-09-17:17:46.996653,6.0,7.0,377.0
2022-02-09-17:17:46.997677,3.0,16.0,378.0
2022-02-09-17:17:46.998673,5.0,15.0,377.0
2022-02-09-17:17:46.999670,5.0,15.0,377.0
2022-02-09-17:17:47.000643,5.0,15.0,377.0
2022-02-09-17:17:47.001666,7.0,9.0,377.0
2022-02-09-17:17:47.002651,7.0,9.0,377.0
2022-02-09-17:17:47.004631,7.0,9.0,377.0
2022-02-09-17:17:47.004631,3.0,12.0,378.0
2022-02-09-17:17:47.005629,1.0,9.0,377.0
2022-02-09-17:17:47.006626,3.0,5.0,377.0
2022-02-09-17:17:47.007623,4.0,3.0,377.0
2022-02-09-17:17:47.008621,4.0,3.0,377.0
2022-02-09-17:17:47.009618,5.0,13.0,378.0
2022-02-09-17:17:47.010615,7.0,13.0,377.0
2022-02-09-17:17:47.011612,9.0,11.0,378.0
2022-02-09-17:17:47.012610,8.0,10.0,377.0
2022-02-09-17:17:47.013607,8.0,10.0,377.0
2022-02-09-17:17:47.014605,7.0,2.0,378.0
2022-02-09-17:17:47.015602,5.0,8.0,377.0
2022-02-09-17:17:47.016599,3.0,9.0,378.0
2022-02-09-17:17:47.017596,3.0,11.0,377.0
2022-02-09-17:17:47.018594,4.0,11.0,378.0
2022-02-09-17:17:47.019591,6.0,8.0,377.0
2022-02-09-17:17:47.020590,6.0,8.0,377.0
2022-02-09-17:17:47.021588,6.0,8.0,377.0
2022-02-09-17:17:47.022583,7.0,6.0,378.0
2022-02-09-17:17:47.023580,3.0,2.0,377.0
2022-02-09-17:17:47.024577,3.0,2.0,377.0
2022-02-09-17:17:47.025575,3.0,2.0,377.0
2022-02-09-17:17:47.026572,4.0,14.0,377.0
2022-02-09-17:17:47.027569,8.0,15.0,377.0
2022-02-09-17:17:47.028567,7.0,14.0,377.0
2022-02-09-17:17:47.029564,7.0,14.0,377.0
2022-02-09-17:17:47.030561,5.0,6.0,377.0
2022-02-09-17:17:47.031560,1.0,3.0,377.0
2022-02-09-17:17:47.032557,6.0,9.0,377.0
2022-02-09-17:17:47.033555,3.0,9.0,377.0
2022-02-09-17:17:47.034587,1.0,6.0,377.0
2022-02-09-17:17:47.035582,2.0,8.0,377.0
2022-02-09-17:17:47.037544,7.0,10.0,377.0
2022-02-09-17:17:47.037544,7.0,11.0,377.0
2022-02-09-17:17:47.038542,4.0,6.0,378.0
2022-02-09-17:17:47.039571,5.0,8.0,377.0
2022-02-09-17:17:47.040537,3.0,5.0,378.0
2022-02-09-17:17:47.041534,3.0,2.0,377.0
2022-02-09-17:17:47.042565,6.0,8.0,377.0
2022-02-09-17:17:47.043553,3.0,12.0,377.0
2022-02-09-17:17:47.044551,6.0,14.0,378.0
2022-02-09-17:17:47.045524,7.0,12.0,378.0
2022-02-09-17:17:47.046556,7.0,12.0,378.0
2022-02-09-17:17:47.047518,6.0,7.0,378.0
2022-02-09-17:17:47.048540,8.0,3.0,377.0
2022-02-09-17:17:47.049538,4.0,12.0,378.0
2022-02-09-17:17:47.050534,1.0,14.0,377.0
2022-02-09-17:17:47.051507,7.0,10.0,378.0
2022-02-09-17:17:47.052529,6.0,10.0,378.0
2022-02-09-17:17:47.053532,9.0,11.0,377.0
2022-02-09-17:17:47.054523,9.0,11.0,377.0
2022-02-09-17:17:47.055520,7.0,7.0,377.0
2022-02-09-17:17:47.056519,7.0,7.0,377.0
2022-02-09-17:17:47.057518,5.0,9.0,377.0
2022-02-09-17:17:47.058520,4.0,4.0,377.0
2022-02-09-17:17:47.059511,7.0,2.0,377.0
2022-02-09-17:17:47.060508,6.0,14.0,377.0
2022-02-09-17:17:47.061504,7.0,12.0,378.0
2022-02-09-17:17:47.062505,7.0,12.0,378.0
2022-02-09-17:17:47.063475,7.0,11.0,378.0
2022-02-09-17:17:47.064472,8.0,2.0,378.0
2022-02-09-17:17:47.065470,4.0,10.0,378.0
2022-02-09-17:17:47.066491,0.0,15.0,377.0
2022-02-09-17:17:47.067489,5.0,13.0,377.0
2022-02-09-17:17:47.068462,7.0,12.0,377.0
2022-02-09-17:17:47.069459,7.0,12.0,377.0
2022-02-09-17:17:47.070456,7.0,12.0,377.0
2022-02-09-17:17:47.071453,5.0,12.0,377.0
2022-02-09-17:17:47.072450,7.0,11.0,377.0
2022-02-09-17:17:47.073447,6.0,7.0,377.0
2022-02-09-17:17:47.075443,5.0,10.0,377.0
2022-02-09-17:17:47.075443,7.0,11.0,377.0
2022-02-09-17:17:47.076441,4.0,12.0,378.0
2022-02-09-17:17:47.077438,4.0,12.0,378.0
2022-02-09-17:17:47.078437,4.0,12.0,378.0
2022-02-09-17:17:47.079433,3.0,8.0,377.0
2022-02-09-17:17:47.080430,7.0,3.0,377.0
2022-02-09-17:17:47.081427,1.0,14.0,378.0
2022-02-09-17:17:47.082425,1.0,14.0,378.0
2022-02-09-17:17:47.083421,3.0,13.0,377.0
2022-02-09-17:17:47.084422,1.0,13.0,378.0
2022-02-09-17:17:47.085416,1.0,13.0,378.0
2022-02-09-17:17:47.086415,4.0,12.0,377.0
2022-02-09-17:17:47.087411,2.0,11.0,377.0
2022-02-09-17:17:47.088408,2.0,10.0,377.0
2022-02-09-17:17:47.089405,5.0,8.0,378.0
2022-02-09-17:17:47.090403,5.0,8.0,378.0
2022-02-09-17:17:47.091400,5.0,8.0,378.0
2022-02-09-17:17:47.092397,9.0,6.0,378.0
2022-02-09-17:17:47.093395,8.0,13.0,377.0
2022-02-09-17:17:47.094393,8.0,13.0,377.0
2022-02-09-17:17:47.095391,8.0,13.0,377.0
2022-02-09-17:17:47.096387,11.0,13.0,377.0
2022-02-09-17:17:47.097385,7.0,7.0,378.0
2022-02-09-17:17:47.098383,6.0,2.0,377.0
2022-02-09-17:17:47.099380,4.0,10.0,377.0
2022-02-09-17:17:47.100409,4.0,12.0,377.0
2022-02-09-17:17:47.101407,4.0,11.0,377.0
2022-02-09-17:17:47.102406,8.0,12.0,377.0
2022-02-09-17:17:47.104401,3.0,8.0,377.0
2022-02-09-17:17:47.105363,4.0,9.0,378.0
2022-02-09-17:17:47.105363,7.0,5.0,377.0
2022-02-09-17:17:47.106360,7.0,5.0,377.0
2022-02-09-17:17:47.107357,7.0,5.0,377.0
2022-02-09-17:17:47.108388,2.0,3.0,377.0
2022-02-09-17:17:47.109352,5.0,4.0,377.0
2022-02-09-17:17:47.110351,6.0,14.0,377.0
2022-02-09-17:17:47.111347,6.0,14.0,377.0
2022-02-09-17:17:47.112344,7.0,11.0,377.0
2022-02-09-17:17:47.113341,5.0,7.0,378.0
2022-02-09-17:17:47.114339,5.0,1.0,378.0
2022-02-09-17:17:47.115336,3.0,11.0,378.0
2022-02-09-17:17:47.116333,4.0,13.0,377.0
2022-02-09-17:17:47.117331,3.0,12.0,377.0
2022-02-09-17:17:47.118328,5.0,12.0,378.0
2022-02-09-17:17:47.119326,5.0,12.0,378.0
2022-02-09-17:17:47.120323,3.0,12.0,378.0
2022-02-09-17:17:47.121322,4.0,9.0,378.0
2022-02-09-17:17:47.122318,4.0,9.0,378.0
2022-02-09-17:17:47.123315,4.0,9.0,378.0
2022-02-09-17:17:47.124312,4.0,9.0,378.0
2022-02-09-17:17:47.125309,2.0,8.0,377.0
2022-02-09-17:17:47.126307,7.0,5.0,378.0
2022-02-09-17:17:47.127304,7.0,9.0,377.0
2022-02-09-17:17:47.128302,7.0,9.0,377.0
2022-02-09-17:17:47.129299,8.0,9.0,377.0
2022-02-09-17:17:47.130297,5.0,3.0,378.0
2022-02-09-17:17:47.131294,3.0,12.0,378.0
2022-02-09-17:17:47.132291,3.0,12.0,378.0
2022-02-09-17:17:47.133288,4.0,17.0,377.0
2022-02-09-17:17:47.134287,3.0,12.0,377.0
2022-02-09-17:17:47.135283,3.0,12.0,377.0
2022-02-09-17:17:47.136280,3.0,12.0,377.0
2022-02-09-17:17:47.137278,0.0,15.0,377.0
2022-02-09-17:17:47.138275,0.0,15.0,378.0
2022-02-09-17:17:47.139272,6.0,17.0,377.0
2022-02-09-17:17:47.141266,2.0,18.0,378.0
2022-02-09-17:17:47.141266,7.0,4.0,377.0
2022-02-09-17:17:47.142264,10.0,0.0,378.0
2022-02-09-17:17:47.143262,10.0,0.0,378.0
2022-02-09-17:17:47.144259,10.0,0.0,378.0
2022-02-09-17:17:47.145256,10.0,1.0,378.0
2022-02-09-17:17:47.146253,8.0,5.0,378.0
2022-02-09-17:17:47.147251,2.0,15.0,378.0
2022-02-09-17:17:47.148249,4.0,17.0,378.0
2022-02-09-17:17:47.149246,3.0,16.0,377.0
2022-02-09-17:17:47.150243,6.0,10.0,377.0
2022-02-09-17:17:47.151240,6.0,10.0,377.0
2022-02-09-17:17:47.152237,6.0,10.0,377.0
2022-02-09-17:17:47.153236,5.0,12.0,378.0
2022-02-09-17:17:47.154232,5.0,12.0,378.0
2022-02-09-17:17:47.155229,5.0,12.0,378.0
2022-02-09-17:17:47.156227,5.0,12.0,378.0
2022-02-09-17:17:47.157224,0.0,4.0,377.0
2022-02-09-17:17:47.158222,6.0,14.0,378.0
2022-02-09-17:17:47.159219,5.0,9.0,378.0
2022-02-09-17:17:47.160216,5.0,9.0,378.0
2022-02-09-17:17:47.161213,5.0,9.0,378.0
2022-02-09-17:17:47.162211,6.0,13.0,378.0
2022-02-09-17:17:47.163208,3.0,9.0,377.0
2022-02-09-17:17:47.164205,3.0,9.0,377.0
2022-02-09-17:17:47.165203,3.0,9.0,377.0
2022-02-09-17:17:47.166200,1.0,11.0,377.0
2022-02-09-17:17:47.167198,5.0,11.0,377.0
2022-02-09-17:17:47.168195,3.0,11.0,377.0
2022-02-09-17:17:47.169193,5.0,8.0,377.0
2022-02-09-17:17:47.170190,3.0,8.0,378.0
2022-02-09-17:17:47.171187,4.0,6.0,378.0
2022-02-09-17:17:47.172184,7.0,8.0,377.0
2022-02-09-17:17:47.173182,2.0,5.0,377.0
2022-02-09-17:17:47.175176,5.0,1.0,378.0
2022-02-09-17:17:47.175176,1.0,6.0,377.0
2022-02-09-17:17:47.176174,7.0,11.0,377.0
2022-02-09-17:17:47.177171,9.0,14.0,377.0
2022-02-09-17:17:47.178168,8.0,13.0,378.0
2022-02-09-17:17:47.179165,9.0,14.0,377.0
2022-02-09-17:17:47.180164,6.0,5.0,378.0
2022-02-09-17:17:47.181161,3.0,0.0,378.0
2022-02-09-17:17:47.182157,3.0,0.0,378.0
2022-02-09-17:17:47.183157,2.0,8.0,377.0
2022-02-09-17:17:47.184152,1.0,8.0,377.0
2022-02-09-17:17:47.185149,1.0,8.0,377.0
2022-02-09-17:17:47.186147,1.0,8.0,377.0
2022-02-09-17:17:47.187144,2.0,3.0,377.0
2022-02-09-17:17:47.188141,2.0,3.0,377.0
2022-02-09-17:17:47.189139,2.0,3.0,377.0
2022-02-09-17:17:47.190136,3.0,6.0,378.0
2022-02-09-17:17:47.191133,1.0,1.0,378.0
2022-02-09-17:17:47.192131,1.0,1.0,378.0
2022-02-09-17:17:47.193128,8.0,8.0,377.0
2022-02-09-17:17:47.194125,6.0,14.0,377.0
2022-02-09-17:17:47.195124,9.0,15.0,377.0
2022-02-09-17:17:47.196120,9.0,12.0,378.0
2022-02-09-17:17:47.197118,4.0,10.0,377.0
2022-02-09-17:17:47.198115,6.0,1.0,378.0
2022-02-09-17:17:47.199113,3.0,5.0,378.0
2022-02-09-17:17:47.200110,2.0,10.0,378.0
2022-02-09-17:17:47.201107,3.0,8.0,378.0
2022-02-09-17:17:47.202104,7.0,8.0,377.0
2022-02-09-17:17:47.203101,1.0,9.0,378.0
2022-02-09-17:17:47.204099,2.0,7.0,377.0
2022-02-09-17:17:47.205096,4.0,6.0,377.0
2022-02-09-17:17:47.206094,2.0,7.0,377.0
2022-02-09-17:17:47.207092,1.0,7.0,378.0
2022-02-09-17:17:47.208088,2.0,2.0,377.0
2022-02-09-17:17:47.210084,2.0,9.0,378.0
2022-02-09-17:17:47.210084,8.0,14.0,378.0
2022-02-09-17:17:47.211081,4.0,13.0,377.0
2022-02-09-17:17:47.212078,5.0,10.0,377.0
2022-02-09-17:17:47.213075,8.0,0.0,377.0
2022-02-09-17:17:47.214071,8.0,0.0,377.0
2022-02-09-17:17:47.215071,5.0,6.0,377.0
2022-02-09-17:17:47.216068,2.0,14.0,378.0
2022-02-09-17:17:47.217065,2.0,14.0,378.0
2022-02-09-17:17:47.218062,3.0,13.0,378.0
2022-02-09-17:17:47.219060,3.0,5.0,377.0
2022-02-09-17:17:47.220057,3.0,10.0,378.0
2022-02-09-17:17:47.221055,3.0,3.0,378.0
2022-02-09-17:17:47.222052,3.0,3.0,378.0
2022-02-09-17:17:47.223049,5.0,5.0,377.0
2022-02-09-17:17:47.224046,3.0,2.0,377.0
2022-02-09-17:17:47.225043,3.0,2.0,377.0
2022-02-09-17:17:47.226041,7.0,8.0,377.0
2022-02-09-17:17:47.227040,5.0,13.0,378.0
2022-02-09-17:17:47.228037,6.0,13.0,378.0
2022-02-09-17:17:47.229033,9.0,13.0,377.0
2022-02-09-17:17:47.230030,9.0,7.0,377.0
2022-02-09-17:17:47.231027,3.0,3.0,377.0
2022-02-09-17:17:47.232025,5.0,9.0,378.0
2022-02-09-17:17:47.233022,6.0,12.0,377.0
2022-02-09-17:17:47.234019,6.0,12.0,377.0
2022-02-09-17:17:47.235016,2.0,9.0,378.0
2022-02-09-17:17:47.236014,6.0,8.0,378.0
2022-02-09-17:17:47.237013,3.0,11.0,377.0
2022-02-09-17:17:47.238009,3.0,11.0,377.0
2022-02-09-17:17:47.239006,3.0,11.0,377.0
2022-02-09-17:17:47.240003,3.0,5.0,377.0
2022-02-09-17:17:47.241001,1.0,6.0,378.0
2022-02-09-17:17:47.241997,3.0,2.0,378.0
2022-02-09-17:17:47.242995,3.0,2.0,378.0
2022-02-09-17:17:47.243993,5.0,11.0,377.0
2022-02-09-17:17:47.245987,6.0,15.0,377.0
2022-02-09-17:17:47.245987,8.0,16.0,378.0
2022-02-09-17:17:47.246985,7.0,13.0,377.0
2022-02-09-17:17:47.247982,10.0,1.0,377.0
2022-02-09-17:17:47.248979,4.0,9.0,377.0
2022-02-09-17:17:47.249977,4.0,9.0,377.0
2022-02-09-17:17:47.250974,4.0,9.0,377.0
2022-02-09-17:17:47.251971,6.0,11.0,377.0
2022-02-09-17:17:47.252969,6.0,11.0,377.0
2022-02-09-17:17:47.253966,6.0,11.0,377.0
2022-02-09-17:17:47.254962,6.0,11.0,377.0
2022-02-09-17:17:47.255960,5.0,10.0,378.0
2022-02-09-17:17:47.256957,3.0,10.0,378.0
2022-02-09-17:17:47.257955,5.0,3.0,378.0
2022-02-09-17:17:47.258952,5.0,3.0,378.0
2022-02-09-17:17:47.259950,6.0,13.0,378.0
2022-02-09-17:17:47.260946,6.0,8.0,378.0
2022-02-09-17:17:47.261944,6.0,8.0,378.0
2022-02-09-17:17:47.262942,6.0,8.0,378.0
2022-02-09-17:17:47.263939,2.0,7.0,378.0
2022-02-09-17:17:47.264937,3.0,15.0,378.0
2022-02-09-17:17:47.265934,3.0,15.0,378.0
2022-02-09-17:17:47.266931,3.0,15.0,378.0
2022-02-09-17:17:47.267929,5.0,11.0,378.0
2022-02-09-17:17:47.268926,5.0,10.0,377.0
2022-02-09-17:17:47.269923,4.0,9.0,377.0
2022-02-09-17:17:47.270920,4.0,9.0,377.0
2022-02-09-17:17:47.271917,4.0,13.0,377.0
2022-02-09-17:17:47.272916,4.0,10.0,378.0
2022-02-09-17:17:47.273911,8.0,11.0,377.0
2022-02-09-17:17:47.274909,8.0,11.0,377.0
2022-02-09-17:17:47.275906,5.0,10.0,377.0
2022-02-09-17:17:47.276904,5.0,10.0,377.0
2022-02-09-17:17:47.278898,5.0,10.0,377.0
2022-02-09-17:17:47.278898,5.0,10.0,377.0
2022-02-09-17:17:47.279895,7.0,8.0,377.0
2022-02-09-17:17:47.280893,8.0,7.0,377.0
2022-02-09-17:17:47.281892,7.0,1.0,378.0
2022-02-09-17:17:47.282888,5.0,5.0,377.0
2022-02-09-17:17:47.283885,3.0,12.0,378.0
2022-02-09-17:17:47.284882,6.0,16.0,377.0
2022-02-09-17:17:47.285880,6.0,16.0,377.0
2022-02-09-17:17:47.286877,2.0,15.0,378.0
2022-02-09-17:17:47.287874,7.0,16.0,377.0
2022-02-09-17:17:47.288872,6.0,12.0,377.0
2022-02-09-17:17:47.289869,4.0,14.0,378.0
2022-02-09-17:17:47.290867,2.0,9.0,377.0
2022-02-09-17:17:47.291864,5.0,12.0,377.0
2022-02-09-17:17:47.292861,6.0,3.0,377.0
2022-02-09-17:17:47.293859,8.0,4.0,377.0
2022-02-09-17:17:47.294856,9.0,6.0,377.0
2022-02-09-17:17:47.295853,7.0,5.0,378.0
2022-02-09-17:17:47.296851,6.0,6.0,378.0
2022-02-09-17:17:47.297848,6.0,6.0,378.0
2022-02-09-17:17:47.298846,5.0,7.0,378.0
2022-02-09-17:17:47.299842,4.0,8.0,377.0
2022-02-09-17:17:47.300840,5.0,15.0,378.0
2022-02-09-17:17:47.301837,1.0,17.0,377.0
2022-02-09-17:17:47.302834,4.0,15.0,377.0
2022-02-09-17:17:47.303832,2.0,16.0,378.0
2022-02-09-17:17:47.304854,2.0,16.0,377.0
2022-02-09-17:17:47.305827,4.0,12.0,378.0
2022-02-09-17:17:47.306824,5.0,11.0,377.0
2022-02-09-17:17:47.307821,5.0,13.0,377.0
2022-02-09-17:17:47.308819,5.0,13.0,377.0
2022-02-09-17:17:47.309816,6.0,9.0,377.0
2022-02-09-17:17:47.310813,4.0,9.0,377.0
2022-02-09-17:17:47.312808,7.0,8.0,377.0
2022-02-09-17:17:47.313805,9.0,9.0,377.0
2022-02-09-17:17:47.313805,5.0,4.0,378.0
2022-02-09-17:17:47.314802,5.0,4.0,378.0
2022-02-09-17:17:47.315800,7.0,1.0,378.0
2022-02-09-17:17:47.316798,1.0,14.0,378.0
2022-02-09-17:17:47.317795,4.0,13.0,377.0
2022-02-09-17:17:47.318792,2.0,16.0,377.0
2022-02-09-17:17:47.319793,2.0,16.0,377.0
2022-02-09-17:17:47.320788,2.0,16.0,377.0
2022-02-09-17:17:47.321785,4.0,12.0,377.0
2022-02-09-17:17:47.322782,6.0,11.0,377.0
2022-02-09-17:17:47.323780,2.0,8.0,378.0
2022-02-09-17:17:47.324778,5.0,8.0,378.0
2022-02-09-17:17:47.325775,2.0,0.0,377.0
2022-02-09-17:17:47.326772,7.0,11.0,378.0
2022-02-09-17:17:47.327769,8.0,11.0,377.0
2022-02-09-17:17:47.328767,8.0,11.0,377.0
2022-02-09-17:17:47.329763,10.0,7.0,377.0
2022-02-09-17:17:47.330761,10.0,1.0,377.0
2022-02-09-17:17:47.331758,3.0,7.0,378.0
2022-02-09-17:17:47.332757,1.0,18.0,377.0
2022-02-09-17:17:47.333753,2.0,18.0,377.0
2022-02-09-17:17:47.334750,3.0,18.0,378.0
2022-02-09-17:17:47.335746,3.0,15.0,377.0
2022-02-09-17:17:47.336743,4.0,15.0,378.0
2022-02-09-17:17:47.337741,2.0,11.0,377.0
2022-02-09-17:17:47.338738,1.0,14.0,377.0
2022-02-09-17:17:47.339735,5.0,11.0,377.0
2022-02-09-17:17:47.340733,3.0,7.0,378.0
2022-02-09-17:17:47.341730,4.0,3.0,377.0
2022-02-09-17:17:47.342727,4.0,2.0,377.0
2022-02-09-17:17:47.343725,7.0,14.0,378.0
2022-02-09-17:17:47.344722,7.0,14.0,378.0
2022-02-09-17:17:47.345719,7.0,14.0,378.0
2022-02-09-17:17:47.347714,7.0,10.0,377.0
2022-02-09-17:17:47.347714,6.0,7.0,378.0
2022-02-09-17:17:47.348712,3.0,9.0,378.0
2022-02-09-17:17:47.349709,3.0,14.0,377.0
2022-02-09-17:17:47.350706,7.0,16.0,377.0
2022-02-09-17:17:47.351705,2.0,10.0,378.0
2022-02-09-17:17:47.352702,2.0,10.0,378.0
2022-02-09-17:17:47.353699,2.0,10.0,378.0
2022-02-09-17:17:47.354696,5.0,9.0,377.0
2022-02-09-17:17:47.355694,5.0,9.0,377.0
2022-02-09-17:17:47.356691,7.0,11.0,377.0
2022-02-09-17:17:47.357688,7.0,11.0,377.0
2022-02-09-17:17:47.358687,5.0,7.0,377.0
2022-02-09-17:17:47.359684,3.0,1.0,378.0
2022-02-09-17:17:47.360681,7.0,12.0,377.0
2022-02-09-17:17:47.361679,7.0,12.0,377.0
2022-02-09-17:17:47.362675,8.0,11.0,378.0
2022-02-09-17:17:47.363674,7.0,10.0,377.0
2022-02-09-17:17:47.364670,8.0,7.0,377.0
2022-02-09-17:17:47.365668,11.0,1.0,377.0
2022-02-09-17:17:47.366666,6.0,6.0,377.0
2022-02-09-17:17:47.367662,2.0,17.0,377.0
2022-02-09-17:17:47.368659,5.0,11.0,377.0
2022-02-09-17:17:47.369658,4.0,14.0,377.0
2022-02-09-17:17:47.370654,4.0,16.0,378.0
2022-02-09-17:17:47.371652,3.0,7.0,377.0
2022-02-09-17:17:47.372648,5.0,6.0,378.0
2022-02-09-17:17:47.373645,4.0,10.0,377.0
2022-02-09-17:17:47.374643,2.0,1.0,377.0
2022-02-09-17:17:47.375641,6.0,2.0,377.0
2022-02-09-17:17:47.376638,7.0,12.0,378.0
2022-02-09-17:17:47.377636,5.0,11.0,378.0
2022-02-09-17:17:47.378633,5.0,11.0,378.0
2022-02-09-17:17:47.380627,7.0,6.0,378.0
2022-02-09-17:17:47.380627,7.0,2.0,377.0
2022-02-09-17:17:47.381625,5.0,8.0,377.0
2022-02-09-17:17:47.382622,5.0,14.0,377.0
2022-02-09-17:17:47.383619,3.0,14.0,377.0
2022-02-09-17:17:47.384618,2.0,15.0,377.0
2022-02-09-17:17:47.385615,3.0,12.0,378.0
2022-02-09-17:17:47.386612,7.0,13.0,377.0
2022-02-09-17:17:47.387609,3.0,12.0,378.0
2022-02-09-17:17:47.388606,6.0,11.0,378.0
2022-02-09-17:17:47.389604,4.0,11.0,377.0
2022-02-09-17:17:47.390601,4.0,11.0,377.0
2022-02-09-17:17:47.391600,0.0,8.0,377.0
2022-02-09-17:17:47.392595,4.0,3.0,378.0
2022-02-09-17:17:47.393593,5.0,10.0,378.0
2022-02-09-17:17:47.394590,6.0,10.0,377.0
2022-02-09-17:17:47.395587,7.0,2.0,377.0
2022-02-09-17:17:47.396585,3.0,8.0,377.0
2022-02-09-17:17:47.397582,3.0,8.0,377.0
2022-02-09-17:17:47.398581,3.0,8.0,377.0
2022-02-09-17:17:47.399576,2.0,14.0,377.0
2022-02-09-17:17:47.400573,4.0,13.0,377.0
2022-02-09-17:17:47.401571,5.0,13.0,377.0
2022-02-09-17:17:47.402570,4.0,16.0,378.0
2022-02-09-17:17:47.403565,9.0,13.0,377.0
2022-02-09-17:17:47.404564,3.0,7.0,377.0
2022-02-09-17:17:47.405561,3.0,9.0,378.0
2022-02-09-17:17:47.406558,7.0,6.0,377.0
2022-02-09-17:17:47.407556,4.0,5.0,378.0
2022-02-09-17:17:47.408553,2.0,1.0,377.0
2022-02-09-17:17:47.409549,4.0,7.0,377.0
2022-02-09-17:17:47.410546,7.0,12.0,377.0
2022-02-09-17:17:47.411544,7.0,9.0,377.0
2022-02-09-17:17:47.412542,6.0,7.0,377.0
2022-02-09-17:17:47.413543,4.0,1.0,378.0
2022-02-09-17:17:47.415533,6.0,7.0,378.0
2022-02-09-17:17:47.415533,6.0,7.0,378.0
2022-02-09-17:17:47.416530,0.0,14.0,377.0
2022-02-09-17:17:47.417527,2.0,12.0,377.0
2022-02-09-17:17:47.418526,7.0,15.0,377.0
2022-02-09-17:17:47.419522,5.0,15.0,377.0
2022-02-09-17:17:47.420519,5.0,12.0,378.0
2022-02-09-17:17:47.421517,4.0,8.0,377.0
2022-02-09-17:17:47.422514,4.0,8.0,377.0
2022-02-09-17:17:47.423511,2.0,11.0,378.0
2022-02-09-17:17:47.424509,6.0,3.0,378.0
2022-02-09-17:17:47.425506,7.0,11.0,377.0
2022-02-09-17:17:47.426504,7.0,11.0,377.0
2022-02-09-17:17:47.427501,7.0,11.0,377.0
2022-02-09-17:17:47.428498,10.0,10.0,377.0
2022-02-09-17:17:47.429497,8.0,2.0,377.0
2022-02-09-17:17:47.430493,4.0,7.0,377.0
2022-02-09-17:17:47.431490,5.0,11.0,377.0
2022-02-09-17:17:47.432487,2.0,15.0,378.0
2022-02-09-17:17:47.433485,2.0,13.0,377.0
2022-02-09-17:17:47.434482,2.0,13.0,377.0
2022-02-09-17:17:47.435480,2.0,13.0,377.0
2022-02-09-17:17:47.436477,3.0,12.0,378.0
2022-02-09-17:17:47.437474,3.0,12.0,378.0
2022-02-09-17:17:47.438471,6.0,10.0,378.0
2022-02-09-17:17:47.439469,6.0,10.0,378.0
2022-02-09-17:17:47.440466,1.0,11.0,377.0
2022-02-09-17:17:47.441463,2.0,2.0,377.0
2022-02-09-17:17:47.442460,6.0,5.0,378.0
2022-02-09-17:17:47.443458,9.0,13.0,378.0
2022-02-09-17:17:47.444456,8.0,11.0,378.0
2022-02-09-17:17:47.445454,4.0,10.0,377.0
2022-02-09-17:17:47.446485,5.0,6.0,378.0
2022-02-09-17:17:47.447449,9.0,2.0,377.0
2022-02-09-17:17:47.449443,5.0,11.0,378.0
2022-02-09-17:17:47.449443,0.0,17.0,378.0
2022-02-09-17:17:47.450440,5.0,14.0,377.0
2022-02-09-17:17:47.451437,1.0,15.0,377.0
2022-02-09-17:17:47.452435,2.0,13.0,378.0
2022-02-09-17:17:47.453432,6.0,14.0,377.0
2022-02-09-17:17:47.454429,6.0,14.0,377.0
2022-02-09-17:17:47.455427,6.0,14.0,377.0
2022-02-09-17:17:47.456459,3.0,7.0,377.0
2022-02-09-17:17:47.457453,5.0,6.0,378.0
2022-02-09-17:17:47.458450,5.0,6.0,378.0
2022-02-09-17:17:47.459416,5.0,6.0,378.0
2022-02-09-17:17:47.460413,6.0,9.0,378.0
2022-02-09-17:17:47.461410,6.0,10.0,377.0
2022-02-09-17:17:47.462407,5.0,1.0,378.0
2022-02-09-17:17:47.463405,5.0,1.0,378.0
2022-02-09-17:17:47.464402,1.0,17.0,377.0
2022-02-09-17:17:47.465399,4.0,13.0,377.0
2022-02-09-17:17:47.466397,4.0,13.0,377.0
2022-02-09-17:17:47.467394,4.0,13.0,377.0
2022-02-09-17:17:47.468391,3.0,16.0,378.0
2022-02-09-17:17:47.469389,4.0,12.0,377.0
2022-02-09-17:17:47.470386,4.0,12.0,377.0
2022-02-09-17:17:47.471383,4.0,12.0,377.0
2022-02-09-17:17:47.472381,4.0,12.0,377.0
2022-02-09-17:17:47.473378,2.0,4.0,378.0
2022-02-09-17:17:47.474375,5.0,2.0,378.0
2022-02-09-17:17:47.475372,5.0,2.0,378.0
2022-02-09-17:17:47.476372,5.0,2.0,378.0
2022-02-09-17:17:47.477370,9.0,7.0,378.0
2022-02-09-17:17:47.478369,9.0,7.0,378.0
2022-02-09-17:17:47.480360,9.0,4.0,377.0
2022-02-09-17:17:47.480360,9.0,4.0,377.0
2022-02-09-17:17:47.481358,6.0,13.0,378.0
2022-02-09-17:17:47.482355,2.0,14.0,378.0
2022-02-09-17:17:47.483352,2.0,14.0,378.0
2022-02-09-17:17:47.484349,2.0,14.0,378.0
2022-02-09-17:17:47.485347,0.0,13.0,377.0
2022-02-09-17:17:47.486344,5.0,14.0,377.0
2022-02-09-17:17:47.487342,8.0,12.0,377.0
2022-02-09-17:17:47.488376,8.0,12.0,377.0
2022-02-09-17:17:47.489370,1.0,9.0,377.0
2022-02-09-17:17:47.490367,6.0,2.0,377.0
2022-02-09-17:17:47.491332,6.0,2.0,377.0
2022-02-09-17:17:47.492330,6.0,2.0,377.0
2022-02-09-17:17:47.493329,9.0,10.0,378.0
2022-02-09-17:17:47.494325,8.0,12.0,378.0
2022-02-09-17:17:47.495321,4.0,8.0,377.0
2022-02-09-17:17:47.496319,2.0,10.0,377.0
2022-02-09-17:17:47.497316,7.0,3.0,378.0
2022-02-09-17:17:47.498314,3.0,9.0,377.0
2022-02-09-17:17:47.499311,3.0,9.0,377.0
2022-02-09-17:17:47.500307,2.0,12.0,377.0
2022-02-09-17:17:47.501304,4.0,10.0,377.0
2022-02-09-17:17:47.502303,4.0,8.0,378.0
2022-02-09-17:17:47.503299,1.0,5.0,377.0
2022-02-09-17:17:47.504296,1.0,5.0,377.0
2022-02-09-17:17:47.505294,1.0,5.0,377.0
2022-02-09-17:17:47.506291,3.0,7.0,378.0
2022-02-09-17:17:47.507288,3.0,7.0,378.0
2022-02-09-17:17:47.508286,5.0,5.0,377.0
2022-02-09-17:17:47.509283,5.0,5.0,377.0
2022-02-09-17:17:47.510280,5.0,7.0,378.0
2022-02-09-17:17:47.511278,5.0,11.0,377.0
2022-02-09-17:17:47.512275,5.0,11.0,377.0
2022-02-09-17:17:47.513274,5.0,11.0,377.0
2022-02-09-17:17:47.513868,2.0,5.0,377.0
2022-02-09-17:17:47.514269,4.0,16.0,378.0
2022-02-09-17:17:47.516266,3.0,15.0,377.0
2022-02-09-17:17:47.516266,3.0,15.0,377.0
2022-02-09-17:17:47.517261,0.0,11.0,377.0
2022-02-09-17:17:47.518259,3.0,11.0,377.0
2022-02-09-17:17:47.519256,3.0,11.0,377.0
2022-02-09-17:17:47.520253,3.0,11.0,377.0
2022-02-09-17:17:47.521251,3.0,11.0,377.0
2022-02-09-17:17:47.522248,6.0,10.0,377.0
2022-02-09-17:17:47.523245,6.0,6.0,378.0
2022-02-09-17:17:47.524242,6.0,6.0,378.0
2022-02-09-17:17:47.525240,6.0,6.0,378.0
2022-02-09-17:17:47.526238,4.0,8.0,377.0
2022-02-09-17:17:47.527235,8.0,15.0,377.0
2022-02-09-17:17:47.528232,7.0,14.0,378.0
2022-02-09-17:17:47.529229,7.0,14.0,378.0
2022-02-09-17:17:47.530227,5.0,11.0,377.0
2022-02-09-17:17:47.531224,8.0,0.0,378.0
2022-02-09-17:17:47.532221,4.0,11.0,378.0
2022-02-09-17:17:47.533219,4.0,11.0,378.0
2022-02-09-17:17:47.534216,4.0,10.0,378.0
2022-02-09-17:17:47.535213,2.0,5.0,377.0
2022-02-09-17:17:47.536211,2.0,5.0,377.0
2022-02-09-17:17:47.537208,2.0,5.0,377.0
2022-02-09-17:17:47.538205,1.0,7.0,378.0
2022-02-09-17:17:47.539202,2.0,4.0,377.0
2022-02-09-17:17:47.540200,2.0,4.0,377.0
2022-02-09-17:17:47.541197,2.0,4.0,377.0
2022-02-09-17:17:47.542195,5.0,17.0,377.0
2022-02-09-17:17:47.543192,6.0,15.0,377.0
2022-02-09-17:17:47.544189,8.0,14.0,377.0
2022-02-09-17:17:47.545186,8.0,14.0,377.0
2022-02-09-17:17:47.546215,8.0,14.0,377.0
2022-02-09-17:17:47.547214,4.0,10.0,378.0
2022-02-09-17:17:47.548226,4.0,11.0,377.0
2022-02-09-17:17:47.550217,4.0,11.0,377.0
2022-02-09-17:17:47.550217,4.0,11.0,377.0
2022-02-09-17:17:47.551204,4.0,5.0,377.0
2022-02-09-17:17:47.552168,5.0,8.0,378.0
2022-02-09-17:17:47.553165,5.0,6.0,377.0
2022-02-09-17:17:47.554163,5.0,6.0,377.0
2022-02-09-17:17:47.555160,3.0,5.0,378.0
2022-02-09-17:17:47.556157,4.0,2.0,377.0
2022-02-09-17:17:47.557154,4.0,2.0,377.0
2022-02-09-17:17:47.558152,4.0,2.0,377.0
2022-02-09-17:17:47.559149,7.0,16.0,377.0
2022-02-09-17:17:47.560147,7.0,16.0,378.0
2022-02-09-17:17:47.561144,7.0,16.0,378.0
2022-02-09-17:17:47.562141,7.0,16.0,378.0
2022-02-09-17:17:47.563138,5.0,4.0,377.0
2022-02-09-17:17:47.564136,2.0,2.0,378.0
2022-02-09-17:17:47.565134,4.0,13.0,377.0
2022-02-09-17:17:47.566131,4.0,13.0,377.0
2022-02-09-17:17:47.567128,5.0,11.0,378.0
2022-02-09-17:17:47.568125,5.0,7.0,377.0
2022-02-09-17:17:47.569123,5.0,7.0,377.0
2022-02-09-17:17:47.570121,6.0,7.0,377.0
2022-02-09-17:17:47.571119,6.0,5.0,377.0
2022-02-09-17:17:47.572116,2.0,7.0,378.0
2022-02-09-17:17:47.573113,2.0,7.0,378.0
2022-02-09-17:17:47.574111,2.0,7.0,378.0
2022-02-09-17:17:47.575108,6.0,12.0,377.0
2022-02-09-17:17:47.576106,6.0,12.0,378.0
2022-02-09-17:17:47.577103,6.0,12.0,378.0
2022-02-09-17:17:47.578100,6.0,12.0,378.0
2022-02-09-17:17:47.579097,6.0,5.0,377.0
2022-02-09-17:17:47.580095,2.0,13.0,378.0
2022-02-09-17:17:47.581090,2.0,13.0,378.0
2022-02-09-17:17:47.582089,2.0,13.0,378.0
2022-02-09-17:17:47.583086,2.0,13.0,378.0
2022-02-09-17:17:47.584085,2.0,12.0,378.0
2022-02-09-17:17:47.586079,2.0,12.0,378.0
2022-02-09-17:17:47.586079,2.0,12.0,378.0
2022-02-09-17:17:47.587076,2.0,15.0,378.0
2022-02-09-17:17:47.588073,3.0,15.0,377.0
2022-02-09-17:17:47.589071,7.0,11.0,377.0
2022-02-09-17:17:47.590068,6.0,9.0,377.0
2022-02-09-17:17:47.591065,5.0,4.0,377.0
2022-02-09-17:17:47.592063,7.0,3.0,377.0
2022-02-09-17:17:47.593060,10.0,9.0,377.0
2022-02-09-17:17:47.594057,12.0,9.0,377.0
2022-02-09-17:17:47.595055,12.0,9.0,377.0
2022-02-09-17:17:47.596053,9.0,3.0,377.0
2022-02-09-17:17:47.597050,4.0,9.0,377.0
2022-02-09-17:17:47.598047,4.0,17.0,377.0
2022-02-09-17:17:47.599045,3.0,21.0,377.0
2022-02-09-17:17:47.600041,3.0,19.0,377.0
2022-02-09-17:17:47.601070,1.0,20.0,378.0
2022-02-09-17:17:47.602067,1.0,20.0,378.0
2022-02-09-17:17:47.603032,6.0,15.0,377.0
2022-02-09-17:17:47.604062,2.0,16.0,378.0
2022-02-09-17:17:47.605059,2.0,16.0,377.0
2022-02-09-17:17:47.606058,8.0,17.0,378.0
2022-02-09-17:17:47.607021,2.0,14.0,377.0
2022-02-09-17:17:47.608053,8.0,4.0,377.0
2022-02-09-17:17:47.609051,8.0,7.0,377.0
2022-02-09-17:17:47.610047,5.0,4.0,377.0
2022-02-09-17:17:47.611011,5.0,4.0,377.0
2022-02-09-17:17:47.612041,6.0,5.0,378.0
2022-02-09-17:17:47.613035,7.0,2.0,378.0
2022-02-09-17:17:47.614010,3.0,8.0,378.0
2022-02-09-17:17:47.615001,4.0,19.0,378.0
2022-02-09-17:17:47.616029,1.0,16.0,377.0
2022-02-09-17:17:47.616996,2.0,19.0,378.0
2022-02-09-17:17:47.617992,6.0,13.0,377.0
2022-02-09-17:17:47.619987,6.0,13.0,377.0
2022-02-09-17:17:47.619987,4.0,14.0,378.0
2022-02-09-17:17:47.620984,5.0,10.0,377.0
2022-02-09-17:17:47.621981,5.0,10.0,377.0
2022-02-09-17:17:47.622978,5.0,10.0,377.0
2022-02-09-17:17:47.623976,5.0,10.0,377.0
2022-02-09-17:17:47.624973,6.0,3.0,377.0
2022-02-09-17:17:47.625971,4.0,10.0,377.0
2022-02-09-17:17:47.626968,6.0,10.0,377.0
2022-02-09-17:17:47.627965,6.0,10.0,377.0
2022-02-09-17:17:47.628963,5.0,3.0,377.0
2022-02-09-17:17:47.629960,5.0,13.0,377.0
2022-02-09-17:17:47.630958,5.0,13.0,377.0
2022-02-09-17:17:47.631954,5.0,13.0,377.0
2022-02-09-17:17:47.632952,6.0,16.0,377.0
2022-02-09-17:17:47.633949,1.0,13.0,377.0
2022-02-09-17:17:47.634947,6.0,10.0,377.0
2022-02-09-17:17:47.635944,6.0,10.0,377.0
2022-02-09-17:17:47.636941,4.0,7.0,378.0
2022-02-09-17:17:47.637939,4.0,11.0,378.0
2022-02-09-17:17:47.638936,4.0,11.0,378.0
2022-02-09-17:17:47.639933,4.0,11.0,378.0
2022-02-09-17:17:47.640931,4.0,3.0,377.0
2022-02-09-17:17:47.641928,8.0,14.0,378.0
2022-02-09-17:17:47.642925,8.0,14.0,378.0
2022-02-09-17:17:47.643923,8.0,14.0,378.0
2022-02-09-17:17:47.644920,7.0,8.0,377.0
2022-02-09-17:17:47.645917,4.0,9.0,378.0
2022-02-09-17:17:47.646915,4.0,9.0,378.0
2022-02-09-17:17:47.647912,4.0,9.0,378.0
2022-02-09-17:17:47.648910,2.0,13.0,377.0
2022-02-09-17:17:47.649907,3.0,7.0,377.0
2022-02-09-17:17:47.651903,3.0,7.0,377.0
2022-02-09-17:17:47.651903,3.0,7.0,377.0
2022-02-09-17:17:47.652899,4.0,2.0,378.0
2022-02-09-17:17:47.653896,6.0,3.0,377.0
2022-02-09-17:17:47.654893,6.0,3.0,377.0
2022-02-09-17:17:47.655890,6.0,3.0,377.0
2022-02-09-17:17:47.656888,6.0,3.0,377.0
2022-02-09-17:17:47.657885,7.0,13.0,378.0
2022-02-09-17:17:47.658883,5.0,18.0,377.0
2022-02-09-17:17:47.659880,5.0,18.0,377.0
2022-02-09-17:17:47.660877,5.0,18.0,377.0
2022-02-09-17:17:47.661874,5.0,7.0,377.0
2022-02-09-17:17:47.662872,5.0,7.0,377.0
2022-02-09-17:17:47.663868,4.0,0.0,377.0
2022-02-09-17:17:47.664866,4.0,0.0,377.0
2022-02-09-17:17:47.665863,4.0,8.0,377.0
2022-02-09-17:17:47.666861,4.0,7.0,377.0
2022-02-09-17:17:47.667858,1.0,7.0,377.0
2022-02-09-17:17:47.668855,1.0,7.0,377.0
2022-02-09-17:17:47.669853,3.0,5.0,378.0
2022-02-09-17:17:47.670850,6.0,4.0,378.0
2022-02-09-17:17:47.671847,6.0,7.0,377.0
2022-02-09-17:17:47.672845,4.0,3.0,378.0
2022-02-09-17:17:47.673842,5.0,7.0,377.0
2022-02-09-17:17:47.674839,1.0,2.0,378.0
2022-02-09-17:17:47.675836,6.0,11.0,378.0
2022-02-09-17:17:47.676834,7.0,20.0,378.0
2022-02-09-17:17:47.677831,9.0,16.0,377.0
2022-02-09-17:17:47.678829,10.0,10.0,377.0
2022-02-09-17:17:47.679826,7.0,2.0,378.0
2022-02-09-17:17:47.680823,7.0,2.0,378.0
2022-02-09-17:17:47.681821,4.0,9.0,378.0
2022-02-09-17:17:47.682818,1.0,11.0,378.0
2022-02-09-17:17:47.683816,3.0,6.0,378.0
2022-02-09-17:17:47.684813,3.0,6.0,378.0
2022-02-09-17:17:47.685810,1.0,8.0,378.0
2022-02-09-17:17:47.686807,5.0,6.0,377.0
2022-02-09-17:17:47.687805,3.0,4.0,377.0
2022-02-09-17:17:47.689799,5.0,3.0,377.0
2022-02-09-17:17:47.689799,0.0,7.0,377.0
2022-02-09-17:17:47.690796,2.0,1.0,377.0
2022-02-09-17:17:47.691794,5.0,10.0,377.0
2022-02-09-17:17:47.692791,7.0,14.0,378.0
2022-02-09-17:17:47.693788,6.0,16.0,378.0
2022-02-09-17:17:47.694787,9.0,10.0,378.0
2022-02-09-17:17:47.695784,9.0,4.0,377.0
2022-02-09-17:17:47.696781,9.0,4.0,377.0
2022-02-09-17:17:47.697779,9.0,4.0,377.0
2022-02-09-17:17:47.698776,3.0,5.0,378.0
2022-02-09-17:17:47.699806,2.0,6.0,377.0
2022-02-09-17:17:47.700803,0.0,9.0,377.0
2022-02-09-17:17:47.701801,1.0,11.0,378.0
2022-02-09-17:17:47.702802,3.0,8.0,377.0
2022-02-09-17:17:47.703764,6.0,6.0,377.0
2022-02-09-17:17:47.704761,6.0,6.0,377.0
2022-02-09-17:17:47.705759,6.0,6.0,377.0
2022-02-09-17:17:47.706756,6.0,6.0,377.0
2022-02-09-17:17:47.707753,4.0,6.0,377.0
2022-02-09-17:17:47.708750,6.0,5.0,377.0
2022-02-09-17:17:47.709749,2.0,2.0,377.0
2022-02-09-17:17:47.710745,3.0,7.0,378.0
2022-02-09-17:17:47.711743,9.0,13.0,378.0
2022-02-09-17:17:47.712740,10.0,14.0,377.0
2022-02-09-17:17:47.713737,8.0,0.0,377.0
2022-02-09-17:17:47.714735,5.0,3.0,377.0
2022-02-09-17:17:47.715732,5.0,16.0,378.0
2022-02-09-17:17:47.716729,3.0,16.0,377.0
2022-02-09-17:17:47.717727,6.0,13.0,377.0
2022-02-09-17:17:47.718724,3.0,12.0,377.0
2022-02-09-17:17:47.719721,4.0,15.0,377.0
2022-02-09-17:17:47.721716,4.0,15.0,377.0
2022-02-09-17:17:47.721716,4.0,14.0,377.0
2022-02-09-17:17:47.722713,2.0,4.0,377.0
2022-02-09-17:17:47.723713,5.0,0.0,377.0
2022-02-09-17:17:47.724708,5.0,0.0,377.0
2022-02-09-17:17:47.725705,5.0,0.0,377.0
2022-02-09-17:17:47.726734,7.0,11.0,378.0
2022-02-09-17:17:47.727733,4.0,10.0,378.0
2022-02-09-17:17:47.728728,10.0,3.0,378.0
2022-02-09-17:17:47.729706,8.0,1.0,377.0
2022-02-09-17:17:47.730691,6.0,12.0,378.0
2022-02-09-17:17:47.731714,4.0,19.0,378.0
2022-02-09-17:17:47.732686,4.0,21.0,377.0
2022-02-09-17:17:47.733707,4.0,21.0,377.0
2022-02-09-17:17:47.734704,4.0,21.0,377.0
2022-02-09-17:17:47.735704,1.0,17.0,378.0
2022-02-09-17:17:47.736675,1.0,16.0,377.0
2022-02-09-17:17:47.737672,2.0,16.0,377.0
2022-02-09-17:17:47.738669,2.0,17.0,378.0
2022-02-09-17:17:47.739666,1.0,8.0,378.0
2022-02-09-17:17:47.740664,1.0,8.0,378.0
2022-02-09-17:17:47.741661,1.0,8.0,378.0
2022-02-09-17:17:47.742659,1.0,8.0,378.0
2022-02-09-17:17:47.743656,10.0,5.0,377.0
2022-02-09-17:17:47.744653,5.0,3.0,377.0
2022-02-09-17:17:47.745650,5.0,3.0,377.0
2022-02-09-17:17:47.746648,5.0,3.0,377.0
2022-02-09-17:17:47.747645,4.0,10.0,377.0
2022-02-09-17:17:47.748643,6.0,10.0,377.0
2022-02-09-17:17:47.749640,6.0,10.0,377.0
2022-02-09-17:17:47.750637,6.0,10.0,377.0
2022-02-09-17:17:47.751634,10.0,11.0,378.0
2022-02-09-17:17:47.752632,8.0,17.0,377.0
2022-02-09-17:17:47.753629,8.0,17.0,377.0
2022-02-09-17:17:47.754626,8.0,17.0,377.0
2022-02-09-17:17:47.755624,5.0,16.0,377.0
2022-02-09-17:17:47.757618,6.0,6.0,378.0
2022-02-09-17:17:47.757618,6.0,6.0,378.0
2022-02-09-17:17:47.758617,6.0,6.0,378.0
2022-02-09-17:17:47.759612,10.0,11.0,377.0
2022-02-09-17:17:47.760610,5.0,3.0,378.0
2022-02-09-17:17:47.761607,5.0,3.0,378.0
2022-02-09-17:17:47.762604,5.0,3.0,378.0
2022-02-09-17:17:47.763602,2.0,17.0,378.0
2022-02-09-17:17:47.764599,4.0,21.0,377.0
2022-02-09-17:17:47.765596,4.0,21.0,377.0
2022-02-09-17:17:47.766594,4.0,21.0,377.0
2022-02-09-17:17:47.767591,7.0,17.0,377.0
2022-02-09-17:17:47.768589,1.0,16.0,377.0
2022-02-09-17:17:47.769587,1.0,16.0,377.0
2022-02-09-17:17:47.770583,1.0,16.0,377.0
2022-02-09-17:17:47.771581,4.0,14.0,378.0
2022-02-09-17:17:47.772578,4.0,6.0,377.0
2022-02-09-17:17:47.773575,4.0,6.0,377.0
2022-02-09-17:17:47.774573,4.0,6.0,377.0
2022-02-09-17:17:47.775570,4.0,6.0,377.0
2022-02-09-17:17:47.776567,6.0,4.0,377.0
2022-02-09-17:17:47.777565,8.0,4.0,377.0
2022-02-09-17:17:47.778562,8.0,4.0,377.0
2022-02-09-17:17:47.779559,8.0,4.0,377.0
2022-02-09-17:17:47.780556,3.0,3.0,377.0
2022-02-09-17:17:47.781565,3.0,17.0,377.0
2022-02-09-17:17:47.782551,0.0,21.0,378.0
2022-02-09-17:17:47.783549,0.0,21.0,378.0
2022-02-09-17:17:47.784546,4.0,18.0,377.0
2022-02-09-17:17:47.785543,6.0,10.0,378.0
2022-02-09-17:17:47.786541,4.0,16.0,378.0
2022-02-09-17:17:47.787538,4.0,14.0,377.0
2022-02-09-17:17:47.789566,4.0,9.0,378.0
2022-02-09-17:17:47.789566,4.0,10.0,377.0
2022-02-09-17:17:47.790531,2.0,8.0,377.0
2022-02-09-17:17:47.791563,2.0,8.0,377.0
2022-02-09-17:17:47.792526,4.0,5.0,377.0
2022-02-09-17:17:47.793523,5.0,13.0,378.0
2022-02-09-17:17:47.794520,6.0,15.0,377.0
2022-02-09-17:17:47.795517,6.0,15.0,377.0
2022-02-09-17:17:47.796514,8.0,10.0,377.0
2022-02-09-17:17:47.797512,5.0,4.0,378.0
2022-02-09-17:17:47.798509,3.0,11.0,377.0
2022-02-09-17:17:47.799507,3.0,11.0,377.0
2022-02-09-17:17:47.800504,7.0,7.0,377.0
2022-02-09-17:17:47.801501,4.0,6.0,377.0
2022-02-09-17:17:47.802499,4.0,6.0,377.0
2022-02-09-17:17:47.803496,4.0,6.0,377.0
2022-02-09-17:17:47.804494,1.0,8.0,377.0
2022-02-09-17:17:47.805491,2.0,9.0,377.0
2022-02-09-17:17:47.806489,3.0,10.0,377.0
2022-02-09-17:17:47.807487,0.0,10.0,377.0
2022-02-09-17:17:47.808484,4.0,4.0,377.0
2022-02-09-17:17:47.809481,14.0,19.0,377.0
2022-02-09-17:17:47.810478,14.0,19.0,377.0
2022-02-09-17:17:47.811476,14.0,19.0,377.0
2022-02-09-17:17:47.812473,14.0,19.0,377.0
2022-02-09-17:17:47.813470,12.0,17.0,377.0
2022-02-09-17:17:47.814468,8.0,10.0,378.0
2022-02-09-17:17:47.815465,4.0,8.0,377.0
2022-02-09-17:17:47.816461,4.0,8.0,377.0
2022-02-09-17:17:47.817458,1.0,9.0,378.0
2022-02-09-17:17:47.818455,2.0,8.0,377.0
2022-02-09-17:17:47.819452,1.0,4.0,377.0
2022-02-09-17:17:47.820451,1.0,4.0,377.0
2022-02-09-17:17:47.821448,0.0,4.0,378.0
2022-02-09-17:17:47.822444,3.0,6.0,378.0
2022-02-09-17:17:47.823442,1.0,2.0,377.0
2022-02-09-17:17:47.825438,1.0,2.0,378.0
2022-02-09-17:17:47.825438,8.0,9.0,377.0
2022-02-09-17:17:47.826435,5.0,17.0,377.0
2022-02-09-17:17:47.827432,3.0,15.0,378.0
2022-02-09-17:17:47.828429,3.0,15.0,378.0
2022-02-09-17:17:47.829427,4.0,13.0,377.0
2022-02-09-17:17:47.830424,6.0,6.0,378.0
2022-02-09-17:17:47.831421,3.0,9.0,377.0
2022-02-09-17:17:47.832419,3.0,9.0,377.0
2022-02-09-17:17:47.833416,2.0,6.0,377.0
2022-02-09-17:17:47.834413,2.0,9.0,377.0
2022-02-09-17:17:47.835411,3.0,10.0,378.0
2022-02-09-17:17:47.836408,2.0,4.0,377.0
2022-02-09-17:17:47.837405,7.0,5.0,377.0
2022-02-09-17:17:47.838402,10.0,2.0,377.0
2022-02-09-17:17:47.839400,10.0,2.0,377.0
2022-02-09-17:17:47.840397,10.0,2.0,377.0
2022-02-09-17:17:47.841394,13.0,15.0,377.0
2022-02-09-17:17:47.842392,11.0,16.0,377.0
2022-02-09-17:17:47.843389,8.0,17.0,377.0
2022-02-09-17:17:47.844386,8.0,17.0,377.0
2022-02-09-17:17:47.845384,5.0,2.0,377.0
2022-02-09-17:17:47.846381,3.0,12.0,377.0
2022-02-09-17:17:47.847379,3.0,12.0,377.0
2022-02-09-17:17:47.848376,3.0,12.0,377.0
2022-02-09-17:17:47.849373,3.0,12.0,377.0
2022-02-09-17:17:47.850370,3.0,16.0,377.0
2022-02-09-17:17:47.851367,3.0,16.0,377.0
2022-02-09-17:17:47.852365,3.0,16.0,377.0
2022-02-09-17:17:47.853363,3.0,16.0,377.0
2022-02-09-17:17:47.854360,4.0,10.0,377.0
2022-02-09-17:17:47.855357,7.0,10.0,377.0
2022-02-09-17:17:47.856355,7.0,10.0,377.0
2022-02-09-17:17:47.857352,7.0,10.0,377.0
2022-02-09-17:17:47.858349,5.0,1.0,377.0
2022-02-09-17:17:47.860344,7.0,10.0,377.0
2022-02-09-17:17:47.860344,4.0,5.0,378.0
2022-02-09-17:17:47.861341,4.0,5.0,378.0
2022-02-09-17:17:47.862338,4.0,16.0,377.0
2022-02-09-17:17:47.863336,4.0,16.0,377.0
2022-02-09-17:17:47.864333,4.0,16.0,377.0
2022-02-09-17:17:47.865331,4.0,16.0,377.0
2022-02-09-17:17:47.866328,6.0,17.0,377.0
2022-02-09-17:17:47.867325,6.0,16.0,377.0
2022-02-09-17:17:47.868322,6.0,13.0,378.0
2022-02-09-17:17:47.869320,6.0,13.0,378.0
2022-02-09-17:17:47.870317,5.0,14.0,377.0
2022-02-09-17:17:47.871314,4.0,13.0,377.0
2022-02-09-17:17:47.872312,5.0,15.0,378.0
2022-02-09-17:17:47.873309,5.0,15.0,378.0
2022-02-09-17:17:47.874307,1.0,8.0,377.0
2022-02-09-17:17:47.875303,2.0,10.0,377.0
2022-02-09-17:17:47.876302,2.0,10.0,377.0
2022-02-09-17:17:47.877299,2.0,10.0,377.0
2022-02-09-17:17:47.878296,5.0,4.0,378.0
2022-02-09-17:17:47.879293,8.0,4.0,378.0
2022-02-09-17:17:47.880290,2.0,16.0,378.0
2022-02-09-17:17:47.881289,2.0,16.0,378.0
2022-02-09-17:17:47.882286,6.0,16.0,377.0
2022-02-09-17:17:47.883282,6.0,16.0,377.0
2022-02-09-17:17:47.884279,6.0,16.0,377.0
2022-02-09-17:17:47.885277,6.0,16.0,377.0
2022-02-09-17:17:47.886275,6.0,16.0,377.0
2022-02-09-17:17:47.887272,4.0,15.0,377.0
2022-02-09-17:17:47.888269,4.0,14.0,378.0
2022-02-09-17:17:47.889266,7.0,11.0,377.0
2022-02-09-17:17:47.890264,7.0,11.0,377.0
2022-02-09-17:17:47.891261,2.0,12.0,377.0
2022-02-09-17:17:47.893256,3.0,8.0,378.0
2022-02-09-17:17:47.893256,8.0,12.0,378.0
2022-02-09-17:17:47.894253,8.0,7.0,377.0
2022-02-09-17:17:47.895250,6.0,5.0,378.0
2022-02-09-17:17:47.896248,4.0,8.0,377.0
2022-02-09-17:17:47.897245,4.0,8.0,377.0
2022-02-09-17:17:47.898246,4.0,8.0,377.0
2022-02-09-17:17:47.899240,0.0,13.0,378.0
2022-02-09-17:17:47.900237,6.0,11.0,378.0
2022-02-09-17:17:47.901234,5.0,12.0,378.0
2022-02-09-17:17:47.902232,5.0,12.0,378.0
2022-02-09-17:17:47.903229,3.0,11.0,378.0
2022-02-09-17:17:47.904226,2.0,5.0,378.0
2022-02-09-17:17:47.905224,3.0,4.0,377.0
2022-02-09-17:17:47.906221,2.0,11.0,378.0
2022-02-09-17:17:47.907218,4.0,12.0,377.0
2022-02-09-17:17:47.908216,9.0,16.0,377.0
2022-02-09-17:17:47.909214,9.0,16.0,377.0
2022-02-09-17:17:47.910211,9.0,16.0,377.0
2022-02-09-17:17:47.911208,8.0,12.0,378.0
2022-02-09-17:17:47.912205,5.0,8.0,378.0
2022-02-09-17:17:47.913202,5.0,3.0,378.0
2022-02-09-17:17:47.914200,5.0,3.0,378.0
2022-02-09-17:17:47.915197,1.0,9.0,378.0
2022-02-09-17:17:47.916195,2.0,15.0,377.0
2022-02-09-17:17:47.917192,5.0,14.0,378.0
2022-02-09-17:17:47.918189,5.0,14.0,378.0
2022-02-09-17:17:47.919186,2.0,13.0,377.0
2022-02-09-17:17:47.920184,8.0,11.0,378.0
2022-02-09-17:17:47.921181,4.0,8.0,377.0
2022-02-09-17:17:47.922178,4.0,8.0,377.0
2022-02-09-17:17:47.923176,2.0,6.0,377.0
2022-02-09-17:17:47.924205,9.0,6.0,377.0
2022-02-09-17:17:47.925171,5.0,8.0,377.0
2022-02-09-17:17:47.927200,5.0,8.0,377.0
2022-02-09-17:17:47.927200,4.0,11.0,378.0
2022-02-09-17:17:47.928195,5.0,5.0,378.0
2022-02-09-17:17:47.929193,5.0,5.0,378.0
2022-02-09-17:17:47.930158,5.0,5.0,378.0
2022-02-09-17:17:47.931180,5.0,5.0,378.0
2022-02-09-17:17:47.932152,2.0,21.0,377.0
2022-02-09-17:17:47.933149,5.0,14.0,378.0
2022-02-09-17:17:47.934147,5.0,14.0,378.0
2022-02-09-17:17:47.935144,5.0,14.0,378.0
2022-02-09-17:17:47.936141,2.0,15.0,377.0
2022-02-09-17:17:47.937139,4.0,14.0,377.0
2022-02-09-17:17:47.938136,4.0,14.0,377.0
2022-02-09-17:17:47.939133,4.0,14.0,377.0
2022-02-09-17:17:47.940131,0.0,12.0,377.0
2022-02-09-17:17:47.941128,2.0,2.0,378.0
2022-02-09-17:17:47.942126,8.0,5.0,377.0
2022-02-09-17:17:47.943123,8.0,5.0,377.0
2022-02-09-17:17:47.944120,7.0,9.0,378.0
2022-02-09-17:17:47.945117,7.0,2.0,377.0
2022-02-09-17:17:47.946115,7.0,2.0,377.0
2022-02-09-17:17:47.947112,7.0,2.0,377.0
2022-02-09-17:17:47.948109,5.0,18.0,377.0
2022-02-09-17:17:47.949107,5.0,18.0,377.0
2022-02-09-17:17:47.950104,5.0,18.0,377.0
2022-02-09-17:17:47.951101,5.0,18.0,377.0
2022-02-09-17:17:47.952099,3.0,11.0,378.0
2022-02-09-17:17:47.953096,6.0,16.0,378.0
2022-02-09-17:17:47.954093,6.0,16.0,378.0
2022-02-09-17:17:47.955091,6.0,16.0,378.0
2022-02-09-17:17:47.956088,5.0,10.0,377.0
2022-02-09-17:17:47.957085,2.0,2.0,377.0
2022-02-09-17:17:47.958083,8.0,5.0,377.0
2022-02-09-17:17:47.959080,8.0,5.0,377.0
2022-02-09-17:17:47.960077,6.0,10.0,377.0
2022-02-09-17:17:47.962072,6.0,10.0,377.0
2022-02-09-17:17:47.962072,4.0,0.0,378.0
2022-02-09-17:17:47.963069,4.0,0.0,378.0
2022-02-09-17:17:47.964066,4.0,0.0,378.0
2022-02-09-17:17:47.965064,5.0,17.0,377.0
2022-02-09-17:17:47.966061,3.0,19.0,377.0
2022-02-09-17:17:47.967058,3.0,19.0,377.0
2022-02-09-17:17:47.968056,3.0,19.0,377.0
2022-02-09-17:17:47.969053,5.0,13.0,377.0
2022-02-09-17:17:47.970050,5.0,11.0,378.0
2022-02-09-17:17:47.971048,5.0,11.0,378.0
2022-02-09-17:17:47.972045,5.0,11.0,378.0
2022-02-09-17:17:47.973042,1.0,15.0,378.0
2022-02-09-17:17:47.974040,2.0,1.0,378.0
2022-02-09-17:17:47.975037,2.0,1.0,378.0
2022-02-09-17:17:47.976035,2.0,1.0,378.0
2022-02-09-17:17:47.977032,7.0,11.0,377.0
2022-02-09-17:17:47.978029,9.0,5.0,377.0
2022-02-09-17:17:47.979026,9.0,5.0,377.0
2022-02-09-17:17:47.980024,9.0,5.0,377.0
2022-02-09-17:17:47.981021,5.0,14.0,378.0
2022-02-09-17:17:47.982019,4.0,16.0,377.0
2022-02-09-17:17:47.983016,4.0,16.0,377.0
2022-02-09-17:17:47.984013,4.0,16.0,377.0
2022-02-09-17:17:47.985010,4.0,11.0,377.0
2022-02-09-17:17:47.986008,3.0,10.0,377.0
2022-02-09-17:17:47.987006,3.0,10.0,377.0
2022-02-09-17:17:47.988003,3.0,10.0,377.0
2022-02-09-17:17:47.989000,5.0,12.0,377.0
2022-02-09-17:17:47.989997,3.0,1.0,377.0
2022-02-09-17:17:47.990995,3.0,1.0,377.0
2022-02-09-17:17:47.991992,3.0,1.0,377.0
2022-02-09-17:17:47.992989,9.0,5.0,377.0
2022-02-09-17:17:47.993987,8.0,9.0,377.0
2022-02-09-17:17:47.994984,6.0,9.0,378.0
2022-02-09-17:17:47.995981,6.0,9.0,378.0
2022-02-09-17:17:47.997976,8.0,0.0,377.0
2022-02-09-17:17:47.997976,4.0,12.0,377.0
2022-02-09-17:17:47.998973,4.0,12.0,377.0
2022-02-09-17:17:47.999970,4.0,12.0,377.0
2022-02-09-17:17:48.000968,4.0,12.0,377.0
2022-02-09-17:17:48.001965,5.0,9.0,377.0
2022-02-09-17:17:48.002963,5.0,11.0,378.0
2022-02-09-17:17:48.003960,5.0,11.0,378.0
2022-02-09-17:17:48.004957,3.0,7.0,378.0
2022-02-09-17:17:48.005954,3.0,1.0,377.0
2022-02-09-17:17:48.006952,3.0,1.0,377.0
2022-02-09-17:17:48.007950,3.0,1.0,377.0
2022-02-09-17:17:48.008947,3.0,1.0,377.0
2022-02-09-17:17:48.009943,5.0,10.0,377.0
2022-02-09-17:17:48.010941,7.0,15.0,377.0
2022-02-09-17:17:48.011938,8.0,10.0,378.0
2022-02-09-17:17:48.012936,7.0,14.0,378.0
2022-02-09-17:17:48.013933,4.0,4.0,377.0
2022-02-09-17:17:48.014931,8.0,13.0,377.0
2022-02-09-17:17:48.015928,3.0,10.0,378.0
2022-02-09-17:17:48.016925,3.0,10.0,378.0
2022-02-09-17:17:48.017923,2.0,8.0,377.0
2022-02-09-17:17:48.018920,5.0,5.0,377.0
2022-02-09-17:17:48.019917,5.0,5.0,377.0
2022-02-09-17:17:48.020914,5.0,5.0,377.0
2022-02-09-17:17:48.021911,8.0,5.0,378.0
2022-02-09-17:17:48.022910,8.0,5.0,378.0
2022-02-09-17:17:48.023907,4.0,3.0,377.0
2022-02-09-17:17:48.024904,4.0,3.0,377.0
2022-02-09-17:17:48.025903,6.0,13.0,378.0
2022-02-09-17:17:48.026899,6.0,12.0,377.0
2022-02-09-17:17:48.027896,8.0,14.0,377.0
2022-02-09-17:17:48.028893,8.0,14.0,377.0
2022-02-09-17:17:48.029890,7.0,12.0,378.0
2022-02-09-17:17:48.030888,6.0,2.0,377.0
2022-02-09-17:17:48.032882,0.0,13.0,378.0
2022-02-09-17:17:48.032882,3.0,9.0,377.0
2022-02-09-17:17:48.033880,2.0,11.0,377.0
2022-02-09-17:17:48.034877,2.0,11.0,377.0
2022-02-09-17:17:48.035874,2.0,11.0,377.0
2022-02-09-17:17:48.036872,2.0,11.0,377.0
2022-02-09-17:17:48.037869,4.0,6.0,377.0
2022-02-09-17:17:48.038867,4.0,2.0,377.0
2022-02-09-17:17:48.039863,4.0,2.0,377.0
2022-02-09-17:17:48.040861,4.0,2.0,377.0
2022-02-09-17:17:48.041859,6.0,10.0,377.0
2022-02-09-17:17:48.042856,6.0,13.0,378.0
2022-02-09-17:17:48.043853,6.0,11.0,377.0
2022-02-09-17:17:48.044850,6.0,11.0,377.0
2022-02-09-17:17:48.045848,6.0,11.0,377.0
2022-02-09-17:17:48.046845,3.0,13.0,378.0
2022-02-09-17:17:48.047843,3.0,13.0,378.0
2022-02-09-17:17:48.048840,3.0,13.0,378.0
2022-02-09-17:17:48.049837,3.0,13.0,378.0
2022-02-09-17:17:48.050835,5.0,13.0,378.0
2022-02-09-17:17:48.051832,8.0,12.0,378.0
2022-02-09-17:17:48.052829,8.0,12.0,378.0
2022-02-09-17:17:48.053827,8.0,12.0,378.0
2022-02-09-17:17:48.054824,2.0,12.0,377.0
2022-02-09-17:17:48.055821,4.0,6.0,377.0
2022-02-09-17:17:48.056818,4.0,6.0,377.0
2022-02-09-17:17:48.057849,4.0,6.0,377.0
2022-02-09-17:17:48.058845,9.0,9.0,378.0
2022-02-09-17:17:48.059842,6.0,9.0,377.0
2022-02-09-17:17:48.060840,6.0,9.0,377.0
2022-02-09-17:17:48.061837,6.0,9.0,377.0
2022-02-09-17:17:48.063831,3.0,9.0,378.0
2022-02-09-17:17:48.063831,3.0,11.0,377.0
2022-02-09-17:17:48.064797,3.0,11.0,377.0
2022-02-09-17:17:48.065795,3.0,11.0,377.0
2022-02-09-17:17:48.066824,7.0,13.0,377.0
2022-02-09-17:17:48.067825,5.0,12.0,378.0
2022-02-09-17:17:48.068823,5.0,12.0,378.0
2022-02-09-17:17:48.069784,5.0,12.0,378.0
2022-02-09-17:17:48.070815,2.0,10.0,378.0
2022-02-09-17:17:48.071779,1.0,6.0,377.0
2022-02-09-17:17:48.072808,1.0,6.0,377.0
2022-02-09-17:17:48.073776,1.0,6.0,377.0
2022-02-09-17:17:48.074803,9.0,11.0,378.0
2022-02-09-17:17:48.075803,9.0,9.0,377.0
2022-02-09-17:17:48.076801,6.0,9.0,378.0
2022-02-09-17:17:48.077794,6.0,9.0,378.0
2022-02-09-17:17:48.078760,3.0,5.0,378.0
2022-02-09-17:17:48.079790,5.0,0.0,377.0
2022-02-09-17:17:48.080788,5.0,0.0,377.0
2022-02-09-17:17:48.081752,3.0,12.0,377.0
2022-02-09-17:17:48.082749,3.0,12.0,377.0
2022-02-09-17:17:48.083775,7.0,11.0,378.0
2022-02-09-17:17:48.084769,5.0,12.0,377.0
2022-02-09-17:17:48.085751,5.0,12.0,377.0
2022-02-09-17:17:48.086773,5.0,12.0,377.0
2022-02-09-17:17:48.087770,6.0,10.0,378.0
2022-02-09-17:17:48.088765,1.0,7.0,377.0
2022-02-09-17:17:48.089756,1.0,7.0,377.0
2022-02-09-17:17:48.090753,1.0,7.0,377.0
2022-02-09-17:17:48.091725,5.0,2.0,378.0
2022-02-09-17:17:48.092722,7.0,9.0,377.0
2022-02-09-17:17:48.093720,6.0,13.0,377.0
2022-02-09-17:17:48.094717,6.0,13.0,377.0
2022-02-09-17:17:48.095715,5.0,8.0,378.0
2022-02-09-17:17:48.096712,4.0,3.0,377.0
2022-02-09-17:17:48.097709,5.0,0.0,377.0
2022-02-09-17:17:48.098707,5.0,10.0,377.0
2022-02-09-17:17:48.099704,5.0,9.0,377.0
2022-02-09-17:17:48.101699,2.0,9.0,378.0
2022-02-09-17:17:48.101699,0.0,7.0,377.0
2022-02-09-17:17:48.102696,0.0,7.0,377.0
2022-02-09-17:17:48.103693,1.0,8.0,377.0
2022-02-09-17:17:48.104690,2.0,11.0,378.0
2022-02-09-17:17:48.105688,2.0,11.0,378.0
2022-02-09-17:17:48.106685,2.0,11.0,378.0
2022-02-09-17:17:48.107683,1.0,1.0,377.0
2022-02-09-17:17:48.108680,8.0,10.0,377.0
2022-02-09-17:17:48.109677,9.0,11.0,378.0
2022-02-09-17:17:48.110675,9.0,11.0,378.0
2022-02-09-17:17:48.111672,3.0,4.0,378.0
2022-02-09-17:17:48.112669,3.0,14.0,378.0
2022-02-09-17:17:48.113666,3.0,14.0,378.0
2022-02-09-17:17:48.114664,3.0,14.0,378.0
2022-02-09-17:17:48.115661,3.0,14.0,378.0
2022-02-09-17:17:48.116658,1.0,11.0,378.0
2022-02-09-17:17:48.117655,1.0,11.0,378.0
2022-02-09-17:17:48.118652,3.0,13.0,378.0
2022-02-09-17:17:48.119650,3.0,13.0,378.0
2022-02-09-17:17:48.120647,2.0,8.0,378.0
2022-02-09-17:17:48.121644,5.0,12.0,377.0
2022-02-09-17:17:48.122642,3.0,7.0,378.0
2022-02-09-17:17:48.123639,3.0,7.0,378.0
2022-02-09-17:17:48.124636,5.0,4.0,378.0
2022-02-09-17:17:48.125634,8.0,10.0,377.0
2022-02-09-17:17:48.126631,8.0,10.0,377.0
2022-02-09-17:17:48.127629,8.0,10.0,377.0
2022-02-09-17:17:48.128626,6.0,8.0,377.0
2022-02-09-17:17:48.129623,6.0,3.0,377.0
2022-02-09-17:17:48.130620,6.0,7.0,377.0
2022-02-09-17:17:48.131618,0.0,12.0,377.0
2022-02-09-17:17:48.132616,0.0,12.0,377.0
2022-02-09-17:17:48.134646,2.0,14.0,377.0
2022-02-09-17:17:48.134646,0.0,13.0,378.0
2022-02-09-17:17:48.135640,2.0,10.0,378.0
2022-02-09-17:17:48.136606,1.0,11.0,378.0
2022-02-09-17:17:48.137602,6.0,7.0,377.0
2022-02-09-17:17:48.138600,7.0,9.0,377.0
2022-02-09-17:17:48.139597,4.0,10.0,378.0
2022-02-09-17:17:48.140595,5.0,2.0,377.0
2022-02-09-17:17:48.141592,8.0,7.0,377.0
2022-02-09-17:17:48.142589,8.0,7.0,377.0
2022-02-09-17:17:48.143587,8.0,7.0,377.0
2022-02-09-17:17:48.144584,3.0,7.0,377.0
2022-02-09-17:17:48.145581,4.0,5.0,377.0
2022-02-09-17:17:48.146578,4.0,5.0,377.0
2022-02-09-17:17:48.147576,4.0,5.0,377.0
2022-02-09-17:17:48.148574,3.0,17.0,378.0
2022-02-09-17:17:48.149603,5.0,13.0,377.0
2022-02-09-17:17:48.150602,5.0,13.0,377.0
2022-02-09-17:17:48.151599,5.0,13.0,377.0
2022-02-09-17:17:48.152595,1.0,7.0,378.0
2022-02-09-17:17:48.153593,3.0,10.0,377.0
2022-02-09-17:17:48.154595,3.0,10.0,377.0
2022-02-09-17:17:48.155590,3.0,10.0,377.0
2022-02-09-17:17:48.156587,3.0,10.0,377.0
2022-02-09-17:17:48.157582,6.0,4.0,377.0
2022-02-09-17:17:48.158547,6.0,13.0,377.0
2022-02-09-17:17:48.159544,6.0,13.0,377.0
2022-02-09-17:17:48.160542,6.0,13.0,377.0
2022-02-09-17:17:48.161538,7.0,8.0,377.0
2022-02-09-17:17:48.162536,4.0,1.0,378.0
2022-02-09-17:17:48.163534,4.0,1.0,378.0
2022-02-09-17:17:48.164531,4.0,1.0,378.0
2022-02-09-17:17:48.165528,2.0,10.0,377.0
2022-02-09-17:17:48.166525,2.0,9.0,377.0
2022-02-09-17:17:48.167523,2.0,9.0,377.0
2022-02-09-17:17:48.169517,2.0,9.0,377.0
2022-02-09-17:17:48.169517,3.0,13.0,378.0
2022-02-09-17:17:48.170515,7.0,9.0,377.0
2022-02-09-17:17:48.171512,6.0,9.0,377.0
2022-02-09-17:17:48.172509,6.0,9.0,377.0
2022-02-09-17:17:48.173506,3.0,5.0,377.0
2022-02-09-17:17:48.174504,3.0,10.0,378.0
2022-02-09-17:17:48.175501,3.0,10.0,378.0
2022-02-09-17:17:48.176499,3.0,10.0,378.0
2022-02-09-17:17:48.177496,7.0,12.0,377.0
2022-02-09-17:17:48.178493,6.0,2.0,377.0
2022-02-09-17:17:48.179490,6.0,2.0,377.0
2022-02-09-17:17:48.180488,6.0,2.0,377.0
2022-02-09-17:17:48.181485,3.0,9.0,377.0
2022-02-09-17:17:48.182484,5.0,8.0,377.0
2022-02-09-17:17:48.183480,5.0,8.0,377.0
2022-02-09-17:17:48.184477,5.0,8.0,377.0
2022-02-09-17:17:48.185475,7.0,6.0,377.0
2022-02-09-17:17:48.186472,7.0,6.0,377.0
2022-02-09-17:17:48.187469,7.0,6.0,377.0
2022-02-09-17:17:48.188467,7.0,6.0,377.0
2022-02-09-17:17:48.189464,5.0,3.0,377.0
2022-02-09-17:17:48.190461,4.0,3.0,377.0
2022-02-09-17:17:48.191458,6.0,11.0,377.0
2022-02-09-17:17:48.192456,6.0,11.0,377.0
2022-02-09-17:17:48.193453,6.0,11.0,377.0
2022-02-09-17:17:48.194451,5.0,13.0,377.0
2022-02-09-17:17:48.195448,4.0,15.0,377.0
2022-02-09-17:17:48.196445,5.0,4.0,378.0
2022-02-09-17:17:48.197475,4.0,1.0,378.0
2022-02-09-17:17:48.198440,2.0,7.0,378.0
2022-02-09-17:17:48.199469,5.0,5.0,377.0
2022-02-09-17:17:48.200435,5.0,5.0,377.0
2022-02-09-17:17:48.201431,5.0,5.0,377.0
2022-02-09-17:17:48.203427,5.0,5.0,377.0
2022-02-09-17:17:48.203427,7.0,3.0,377.0
2022-02-09-17:17:48.204425,9.0,5.0,377.0
2022-02-09-17:17:48.205421,9.0,5.0,377.0
2022-02-09-17:17:48.206419,3.0,6.0,377.0
2022-02-09-17:17:48.207416,1.0,2.0,378.0
2022-02-09-17:17:48.208413,6.0,6.0,377.0
2022-02-09-17:17:48.209411,6.0,6.0,377.0
2022-02-09-17:17:48.210409,6.0,14.0,377.0
2022-02-09-17:17:48.211405,8.0,13.0,377.0
2022-02-09-17:17:48.212403,6.0,7.0,378.0
2022-02-09-17:17:48.213451,6.0,7.0,378.0
2022-02-09-17:17:48.214432,3.0,10.0,377.0
2022-02-09-17:17:48.215394,6.0,6.0,377.0
2022-02-09-17:17:48.216392,6.0,6.0,377.0
2022-02-09-17:17:48.217389,6.0,6.0,377.0
2022-02-09-17:17:48.218387,8.0,7.0,377.0
2022-02-09-17:17:48.219384,4.0,4.0,378.0
2022-02-09-17:17:48.220381,3.0,7.0,377.0
2022-02-09-17:17:48.221379,3.0,7.0,377.0
2022-02-09-17:17:48.222376,4.0,4.0,377.0
2022-02-09-17:17:48.223373,4.0,8.0,378.0
2022-02-09-17:17:48.224370,4.0,8.0,378.0
2022-02-09-17:17:48.225368,4.0,8.0,378.0
2022-02-09-17:17:48.226365,4.0,9.0,378.0
2022-02-09-17:17:48.227362,7.0,5.0,377.0
2022-02-09-17:17:48.228360,7.0,5.0,377.0
2022-02-09-17:17:48.229357,7.0,5.0,377.0
2022-02-09-17:17:48.230355,7.0,5.0,377.0
2022-02-09-17:17:48.231352,0.0,15.0,377.0
2022-02-09-17:17:48.232349,0.0,15.0,377.0
2022-02-09-17:17:48.233347,5.0,10.0,377.0
2022-02-09-17:17:48.234344,5.0,10.0,377.0
2022-02-09-17:17:48.235341,5.0,9.0,377.0
2022-02-09-17:17:48.237336,5.0,9.0,377.0
2022-02-09-17:17:48.237336,5.0,9.0,377.0
2022-02-09-17:17:48.238333,3.0,1.0,378.0
2022-02-09-17:17:48.239330,3.0,1.0,378.0
2022-02-09-17:17:48.240328,3.0,1.0,378.0
2022-02-09-17:17:48.241326,3.0,1.0,378.0
2022-02-09-17:17:48.242322,3.0,1.0,378.0
2022-02-09-17:17:48.243320,7.0,6.0,377.0
2022-02-09-17:17:48.244317,7.0,5.0,377.0
2022-02-09-17:17:48.245314,8.0,9.0,377.0
2022-02-09-17:17:48.246312,8.0,9.0,377.0
2022-02-09-17:17:48.247309,8.0,5.0,378.0
2022-02-09-17:17:48.248307,1.0,14.0,378.0
2022-02-09-17:17:48.249304,0.0,14.0,378.0
2022-02-09-17:17:48.250302,0.0,14.0,378.0
2022-02-09-17:17:48.251298,5.0,15.0,378.0
2022-02-09-17:17:48.252296,6.0,14.0,378.0
2022-02-09-17:17:48.253293,4.0,11.0,378.0
2022-02-09-17:17:48.254291,4.0,11.0,378.0
2022-02-09-17:17:48.255288,2.0,12.0,377.0
2022-02-09-17:17:48.256286,6.0,2.0,377.0
2022-02-09-17:17:48.257283,6.0,2.0,377.0
2022-02-09-17:17:48.258280,6.0,2.0,377.0
2022-02-09-17:17:48.259278,7.0,7.0,378.0
2022-02-09-17:17:48.260274,8.0,8.0,378.0
2022-02-09-17:17:48.261272,5.0,4.0,377.0
2022-02-09-17:17:48.262269,5.0,4.0,377.0
2022-02-09-17:17:48.263266,4.0,13.0,377.0
2022-02-09-17:17:48.264264,4.0,17.0,378.0
2022-02-09-17:17:48.265262,4.0,17.0,378.0
2022-02-09-17:17:48.266258,4.0,17.0,378.0
2022-02-09-17:17:48.267256,7.0,11.0,377.0
2022-02-09-17:17:48.268253,3.0,9.0,377.0
2022-02-09-17:17:48.269251,3.0,9.0,377.0
2022-02-09-17:17:48.270248,3.0,9.0,377.0
2022-02-09-17:17:48.271245,6.0,7.0,377.0
2022-02-09-17:17:48.272242,6.0,7.0,377.0
2022-02-09-17:17:48.274237,4.0,10.0,377.0
2022-02-09-17:17:48.274237,7.0,3.0,377.0
2022-02-09-17:17:48.275235,8.0,8.0,377.0
2022-02-09-17:17:48.276232,10.0,7.0,377.0
2022-02-09-17:17:48.277229,10.0,7.0,377.0
2022-02-09-17:17:48.278226,10.0,7.0,377.0
2022-02-09-17:17:48.279225,10.0,7.0,377.0
2022-02-09-17:17:48.280221,3.0,9.0,377.0
2022-02-09-17:17:48.281218,5.0,13.0,377.0
2022-02-09-17:17:48.282216,5.0,13.0,377.0
2022-02-09-17:17:48.283213,5.0,13.0,377.0
2022-02-09-17:17:48.284210,4.0,9.0,377.0
2022-02-09-17:17:48.285208,4.0,8.0,378.0
2022-02-09-17:17:48.286205,4.0,8.0,378.0
2022-02-09-17:17:48.287203,4.0,8.0,378.0
2022-02-09-17:17:48.288200,5.0,12.0,378.0
2022-02-09-17:17:48.289197,9.0,0.0,377.0
2022-02-09-17:17:48.290194,9.0,0.0,377.0
2022-02-09-17:17:48.291192,9.0,0.0,377.0
