# 
# 
# 
# 
# 
# 
# 
# 
# 
# 
# time,realtime,ref,inp,inp0,inp1,dis,state...
0.000000000000000000e+00,1.644455923222844362e+09,0.000000000000000000e+00,-4.567086014138197619e-02,0.000000000000000000e+00,-6.089448018850930622e-02,-0.000000000000000000e+00,0.000000000000000000e+00,0.000000000000000000e+00
1.666666666666666644e-02,1.644455923225843668e+09,1.294841934427322557e-06,-4.567086014138197619e-02,0.000000000000000000e+00,-6.089448018850930622e-02,0.000000000000000000e+00,-6.308081991171266891e-06,-7.548729203651949370e-04
3.333333333333333287e-02,1.644455923226833582e+09,5.112353979204503813e-06,-4.567086014138197619e-02,0.000000000000000000e+00,-6.089448018850930622e-02,-1.773857567846165578e-05,-2.509556595826551210e-05,-1.497562081682441218e-03
5.000000000000000278e-02,1.644455923243787050e+09,1.139638837297105511e-05,-4.567086014138197619e-02,0.000000000000000000e+00,-6.089448018850930622e-02,-7.210426321789717137e-05,-5.616613103232874949e-05,-2.228874256685042625e-03
6.666666666666666574e-02,1.644455923260116816e+09,2.015514073703772877e-05,-4.567086014138197619e-02,0.000000000000000000e+00,-6.089448018850930622e-02,-1.636304361569794062e-04,-9.933686479459555231e-05,-2.949611699215091629e-03
8.333333333333332871e-02,1.644455923278320551e+09,3.146635026744819741e-05,-2.163356533012830360e-02,0.000000000000000000e+00,-2.884475377350440711e-02,-2.912779262733523953e-04,-1.511179282322862923e-04,-3.263244690050761971e-03
1.000000000000000056e-01,1.644455923293314457e+09,4.548088089552672071e-05,-2.163356533012830360e-02,0.000000000000000000e+00,-2.884475377350440711e-02,-4.524798169929855141e-04,-2.081051543242981193e-04,-3.574358216410771817e-03
1.166666666666666685e-01,1.644455923311412811e+09,6.242460143184579721e-05,-4.567086014138197619e-02,0.000000000000000000e+00,-6.089448018850930622e-02,-6.432148309123226961e-04,-2.735810222686877705e-04,-4.280783598004620459e-03
1.333333333333333315e-01,1.644455923330152512e+09,8.259851020780753224e-05,-4.567086014138197619e-02,0.000000000000000000e+00,-6.089448018850930622e-02,-8.581079780549758645e-04,-3.507627558954920467e-04,-4.979084666368431729e-03
1.499999999999999944e-01,1.644455923345107794e+09,1.063770782995606572e-04,-2.163356533012830360e-02,0.000000000000000000e+00,-2.884475377350440711e-02,-1.090556739527486678e-03,-4.361984537553704631e-04,-5.272384336336149654e-03
1.666666666666666574e-01,1.644455923363060236e+09,1.342048146412924030e-04,-4.567086014138197619e-02,0.000000000000000000e+00,-6.089448018850930622e-02,-1.332880692822974601e-03,-5.298354818098699806e-04,-5.962142988851732404e-03
1.833333333333333204e-01,1.644455923379017830e+09,1.665910857778818454e-04,-2.163356533012830360e-02,0.000000000000000000e+00,-2.884475377350440711e-02,-1.576492144805931002e-03,-6.315868221790957001e-04,-6.247225939731410223e-03
2.000000000000000111e-01,1.644455923397966862e+09,2.041032522336636099e-04,-2.163356533012830360e-02,0.000000000000000000e+00,-2.884475377350440711e-02,-1.812085030718162777e-03,-7.380827094705152535e-04,-6.531490891787431266e-03
2.166666666666666741e-01,1.644455923414922237e+09,2.473582120482537244e-04,-2.163356533012830360e-02,0.000000000000000000e+00,-2.884475377350440711e-02,-2.029839066310110476e-03,-8.493071594418994535e-04,-6.814656515090020648e-03
2.333333333333333370e-01,1.644455923432910442e+09,2.970124695222229488e-04,-2.163356533012830360e-02,0.000000000000000000e+00,-2.884475377350440711e-02,-2.219635908925613344e-03,-9.652381403257500334e-04,-7.096278888190402437e-03
2.500000000000000000e-01,1.644455923447834253e+09,3.537508732076704568e-04,-2.163356533012830360e-02,0.000000000000000000e+00,-2.884475377350440711e-02,-2.371283895079259046e-03,-1.085844875300761648e-03,-7.375752973635517004e-03
2.666666666666666630e-01,1.644455923464825153e+09,4.182741912728124762e-04,-4.567086014138197619e-02,0.000000000000000000e+00,-6.089448018850930622e-02,-2.474747779280995867e-03,-1.214405244236286792e-03,-8.049619403377707150e-03
2.833333333333333259e-01,1.644455923482740402e+09,4.912857141911033346e-04,-2.163356533012830360e-02,0.000000000000000000e+00,-2.884475377350440711e-02,-2.520379803558496327e-03,-1.350789905131380246e-03,-8.315800494710727173e-03
2.999999999999999889e-01,1.644455923499695539e+09,5.734770939093145406e-04,-4.567086014138197619e-02,0.000000000000000000e+00,-6.089448018850930622e-02,-2.499148380714649124e-03,-1.494891263142069911e-03,-8.974532612068314777e-03
3.166666666666666519e-01,1.644455923517647028e+09,6.655136449252004385e-04,-2.163356533012830360e-02,0.000000000000000000e+00,-2.884475377350440711e-02,-2.402860677662065503e-03,-1.646547162907809796e-03,-9.223483812432414081e-03
3.333333333333333148e-01,1.644455923533639908e+09,7.680193457827739351e-04,-2.163356533012830360e-02,0.000000000000000000e+00,-2.884475377350440711e-02,-2.224375438430150047e-03,-1.802293211611969218e-03,-9.465370109870896095e-03
3.499999999999999778e-01,1.644455923552555323e+09,8.815617891439951571e-04,-2.163356533012830360e-02,0.000000000000000000e+00,-2.884475377350440711e-02,-1.957802489273826989e-03,-1.962000469961923746e-03,-9.698852315177643527e-03
3.666666666666666408e-01,1.644455923566517115e+09,1.006637334638675390e-03,-2.163356533012830360e-02,0.000000000000000000e+00,-2.884475377350440711e-02,-1.598685519758251492e-03,-2.125517248306607859e-03,-9.922539717664401182e-03
3.833333333333333037e-01,1.644455923586462736e+09,1.143656720998047997e-03,-2.163356533012830360e-02,0.000000000000000000e+00,-2.884475377350440711e-02,-1.144164932192232075e-03,-2.292668475600078727e-03,-1.013501732807627238e-02
4.000000000000000222e-01,1.644455923602455139e+09,1.292931392462056545e-03,-4.567086014138197619e-02,0.000000000000000000e+00,-6.089448018850930622e-02,-5.931177952002184917e-04,-2.466575581134573987e-03,-1.073217652148481319e-02
4.166666666666666852e-01,1.644455923619377136e+09,1.454660789089377371e-03,-4.567086014138197619e-02,0.000000000000000000e+00,-6.089448018850930622e-02,5.372777712964165321e-05,-2.650263517333578678e-03,-1.130877412469001413e-02
4.333333333333333481e-01,1.644455923636384010e+09,1.628920841420459847e-03,-2.163356533012830360e-02,0.000000000000000000e+00,-2.884475377350440711e-02,7.937061744208063910e-04,-2.840059524298633401e-03,-1.146630910365341836e-02
4.500000000000000111e-01,1.644455923651980162e+09,1.815653897029068185e-03,-4.567086014138197619e-02,0.000000000000000000e+00,-6.089448018850930622e-02,1.622157761434403532e-03,-3.035664972443188024e-03,-1.200484869517465594e-02
4.666666666666666741e-01,1.644455923669812679e+09,2.014660289982761910e-03,-4.567086014138197619e-02,0.000000000000000000e+00,-6.089448018850930622e-02,2.532403874553463847e-03,-3.240045973442002344e-03,-1.251944196528964950e-02
4.833333333333333370e-01,1.644455923684871435e+09,2.225591744304879303e-03,-2.163356533012830360e-02,0.000000000000000000e+00,-2.884475377350440711e-02,3.515754528432448681e-03,-3.449476589027272201e-03,-1.261197486306597781e-02
5.000000000000000000e-01,1.644455923703822851e+09,2.447946779427969538e-03,-2.163356533012830360e-02,0.000000000000000000e+00,-2.884475377350440711e-02,4.561549578565910271e-03,-3.660292193151322947e-03,-1.268569285480130107e-02
5.166666666666666075e-01,1.644455923720776796e+09,2.681068259636125092e-03,-2.163356533012830360e-02,0.000000000000000000e+00,-2.884475377350440711e-02,5.657233629755206543e-03,-3.872174912077295562e-03,-1.274008233088154592e-02
5.333333333333333259e-01,1.644455923737722635e+09,2.924143200940586360e-03,-4.567086014138197619e-02,0.000000000000000000e+00,-6.089448018850930622e-02,6.788464513734176857e-03,-4.088120406948798219e-03,-1.317217676313750703e-02
5.500000000000000444e-01,1.644455923754685163e+09,3.176204918087828163e-03,-2.163356533012830360e-02,0.000000000000000000e+00,-2.884475377350440711e-02,7.939254687218472856e-03,-4.307728803726427677e-03,-1.318080687707504257e-02
5.666666666666666519e-01,1.644455923772637129e+09,3.436137561866301014e-03,-4.567086014138197619e-02,0.000000000000000000e+00,-6.089448018850930622e-02,9.092144430155305393e-03,-4.530640649187400726e-03,-1.356754029346784671e-02
5.833333333333333703e-01,1.644455923788595915e+09,3.702683062990949278e-03,-2.163356533012830360e-02,0.000000000000000000e+00,-2.884475377350440711e-02,1.022840525881789191e-02,-4.756467651709948494e-03,-1.353179929213380560e-02
5.999999999999999778e-01,1.644455923804665565e+09,3.974450464061697087e-03,-2.163356533012830360e-02,0.000000000000000000e+00,-2.884475377350440711e-02,1.132827151544544241e-02,-4.981551993365699454e-03,-1.347846984738943453e-02
6.166666666666666963e-01,1.644455923822445393e+09,4.249927585890580541e-03,-2.163356533012830360e-02,0.000000000000000000e+00,-2.884475377350440711e-02,1.237119766113842223e-02,-5.205610827352262493e-03,-1.340878380788603635e-02
6.333333333333333037e-01,1.644455923839479923e+09,4.527494939360237128e-03,-4.567086014138197619e-02,0.000000000000000000e+00,-6.089448018850930622e-02,1.333613838729895938e-02,-5.431704617476323417e-03,-1.372160204699669241e-02
6.500000000000000222e-01,1.644455923856414557e+09,4.805441759409132506e-03,-2.163356533012830360e-02,0.000000000000000000e+00,-2.884475377350440711e-02,1.420184827846728871e-02,-5.659529222872241444e-03,-1.361763939246179132e-02
6.666666666666666297e-01,1.644455923873698950e+09,5.081984004229236213e-03,-2.163356533012830360e-02,0.000000000000000000e+00,-2.884475377350440711e-02,1.494719741109188683e-02,-5.885532528738857128e-03,-1.350307555191244957e-02
6.833333333333333481e-01,1.644455923889151812e+09,5.355284130795683398e-03,-2.163356533012830360e-02,0.000000000000000000e+00,-2.884475377350440711e-02,1.555149896338672323e-02,-6.109558794445872111e-03,-1.338041705898446003e-02
6.999999999999999556e-01,1.644455923905777454e+09,5.623472427896261845e-03,-2.163356533012830360e-02,0.000000000000000000e+00,-2.884475377350440711e-02,1.599484464539767045e-02,-6.331496458462850842e-03,-1.325245807304632414e-02
7.166666666666666741e-01,1.644455923923610210e+09,5.884669660341878758e-03,-4.567086014138197619e-02,0.000000000000000000e+00,-6.089448018850930622e-02,1.625844353968821168e-02,-6.554602781215620490e-03,-1.351955869365511695e-02
7.333333333333332815e-01,1.644455923939819098e+09,6.137010753440037825e-03,-2.163356533012830360e-02,0.000000000000000000e+00,-2.884475377350440711e-02,1.632495977514480251e-02,-6.778794658498663028e-03,-1.338384357562179966e-02
7.500000000000000000e-01,1.644455923958061218e+09,6.378669225491497008e-03,-4.567086014138197619e-02,0.000000000000000000e+00,-6.089448018850930622e-02,1.617884434222936069e-02,-7.004083586877387323e-03,-1.365008824389561844e-02
7.666666666666666075e-01,1.644455923976072311e+09,6.607882058376124065e-03,-2.163356533012830360e-02,0.000000000000000000e+00,-2.884475377350440711e-02,1.580665629992789381e-02,-7.230504516192444268e-03,-1.352078246508390223e-02
7.833333333333333259e-01,1.644455923994022608e+09,6.822974682533628453e-03,-4.567086014138197619e-02,0.000000000000000000e+00,-6.089448018850930622e-02,1.519736862440420298e-02,-7.458192407243669983e-03,-1.380098609931563851e-02
8.000000000000000444e-01,1.644455924009804010e+09,7.022385743075621779e-03,-2.163356533012830360e-02,0.000000000000000000e+00,-2.884475377350440711e-02,1.434265400806787431e-02,-7.687309667455689485e-03,-1.369338402780462607e-02
8.166666666666666519e-01,1.644455924025021553e+09,7.204691308591752892e-03,-2.163356533012830360e-02,0.000000000000000000e+00,-2.884475377350440711e-02,1.323714603584705968e-02,-7.914801115173739424e-03,-1.360583290165793061e-02
8.333333333333333703e-01,1.644455924041876078e+09,7.368628183581546996e-03,-2.163356533012830360e-02,0.000000000000000000e+00,-2.884475377350440711e-02,1.187867134268193701e-02,-8.141033103263700318e-03,-1.354218248002540988e-02
8.499999999999999778e-01,1.644455924060323238e+09,7.513115989444577383e-03,-2.163356533012830360e-02,0.000000000000000000e+00,-2.884475377350440711e-02,1.026844859170880295e-02,-8.366435447190933780e-03,-1.350619874840516821e-02
8.666666666666666963e-01,1.644455924075588226e+09,7.637277687620939830e-03,-2.163356533012830360e-02,0.000000000000000000e+00,-2.884475377350440711e-02,8.411250404687717688e-03,-8.591499549489074739e-03,-1.350150656153103687e-02
8.833333333333333037e-01,1.644455924093648195e+09,7.740458231757168552e-03,-2.163356533012830360e-02,0.000000000000000000e+00,-2.884475377350440711e-02,6.315524722663866559e-03,-8.816775559436747581e-03,-1.353153122837443857e-02
9.000000000000000222e-01,1.644455924110625029e+09,7.822241053581769840e-03,-2.163356533012830360e-02,0.000000000000000000e+00,-2.884475377350440711e-02,3.993472472719301718e-03,-9.042868556491910625e-03,-1.359943977894275888e-02
9.166666666666666297e-01,1.644455924126549482e+09,7.882462109348679219e-03,-4.567086014138197619e-02,0.000000000000000000e+00,-6.089448018850930622e-02,1.461078862399322080e-03,-9.273753801782620362e-03,-1.410538422163509255e-02
9.333333333333333481e-01,1.644455924143471956e+09,7.921221240024999000e-03,-2.163356533012830360e-02,0.000000000000000000e+00,-2.884475377350440711e-02,-1.261903887181382812e-03,-9.510057629735474416e-03,-1.425067154730406786e-02
9.499999999999999556e-01,1.644455924160188437e+09,7.938890628580982933e-03,-2.163356533012830360e-02,0.000000000000000000e+00,-2.884475377350440711e-02,-4.152024030170101479e-03,-9.749162030794464653e-03,-1.444132696891671855e-02
9.666666666666666741e-01,1.644455924178992033e+09,7.936120171447555438e-03,-2.163356533012830360e-02,0.000000000000000000e+00,-2.884475377350440711e-02,-7.182249105287106215e-03,-9.991836224991071380e-03,-1.467891634864370264e-02
9.833333333333332815e-01,1.644455924197009087e+09,7.913839618051613997e-03,-2.163356533012830360e-02,0.000000000000000000e+00,-2.884475377350440711e-02,-1.032213657412323939e-02,-1.023887110904335776e-02,-1.496447649632894061e-02
1.000000000000000000e+00,1.644455924213967562e+09,7.873257371883216754e-03,-4.567086014138197619e-02,0.000000000000000000e+00,-6.089448018850930622e-02,-1.353805618508928908e-02,-1.049439011475488022e-02,-1.569577276272527203e-02
1.016666666666666607e+00,1.644455924231884241e+09,7.815855888311089641e-03,-4.567086014138197619e-02,0.000000000000000000e+00,-6.089448018850930622e-02,-1.679346333254165546e-02,-1.076244602302735796e-02,-1.646878891235152229e-02
1.033333333333333215e+00,1.644455924249781609e+09,7.743383647825321549e-03,-2.163356533012830360e-02,0.000000000000000000e+00,-2.884475377350440711e-02,-2.004922204498419541e-02,-1.104040840828195147e-02,-1.688553965001547003e-02
1.050000000000000044e+00,1.644455924266846895e+09,7.657843727999146324e-03,-2.163356533012830360e-02,0.000000000000000000e+00,-2.884475377350440711e-02,-2.326397559915155400e-02,-1.132570310070941597e-02,-1.734853730640933608e-02
1.066666666666666652e+00,1.644455924283890009e+09,7.561479042650872708e-03,-2.163356533012830360e-02,0.000000000000000000e+00,-2.884475377350440711e-02,-2.639456212540913435e-02,-1.161908286944920120e-02,-1.785562632859517482e-02
1.083333333333333259e+00,1.644455924299329281e+09,7.456754361861665965e-03,-2.163356533012830360e-02,0.000000000000000000e+00,-2.884475377350440711e-02,-2.939647195150327935e-02,-1.192125870778636305e-02,-1.840395111161853905e-02
1.100000000000000089e+00,1.644455924317227125e+09,7.346335271062598427e-03,-2.163356533012830360e-02,0.000000000000000000e+00,-2.884475377350440711e-02,-3.222434283352134526e-02,-1.223288814455186779e-02,-1.898995347758052760e-02
1.116666666666666696e+00,1.644455924333184719e+09,7.233064270743057300e-03,-2.163356533012830360e-02,0.000000000000000000e+00,-2.884475377350440711e-02,-3.483248865214345902e-02,-1.255456358687941261e-02,-1.960937893495751094e-02
1.133333333333333304e+00,1.644455924351136684e+09,7.119934259853185482e-03,2.403729481126268882e-03,0.000000000000000000e+00,3.204972641501691987e-03,-3.717545661590827138e-02,-1.288348080022763860e-02,-1.985999050718898276e-02
1.149999999999999911e+00,1.644455924368091345e+09,7.010059685092456631e-03,-2.163356533012830360e-02,0.000000000000000000e+00,-2.884475377350440711e-02,-3.920860751804733368e-02,-1.322014112148798756e-02,-2.053736640006489575e-02
1.166666666666666741e+00,1.644455924385044098e+09,6.906645674431309730e-03,-2.163356533012830360e-02,0.000000000000000000e+00,-2.884475377350440711e-02,-4.088871314593170436e-02,-1.356822953849426763e-02,-2.123131595765961541e-02
1.183333333333333348e+00,1.644455924401039600e+09,6.812955505869581346e-03,2.403729481126268882e-03,0.000000000000000000e+00,3.204972641501691987e-03,-4.217456454840705360e-02,-1.392464549208536836e-02,-2.153774725518986174e-02
1.199999999999999956e+00,1.644455924418987274e+09,6.732276791097135428e-03,2.644102429237994017e-02,0.000000000000000000e+00,3.525469905650659153e-02,-4.302758453188065824e-02,-1.428292408591742661e-02,-2.145591133201614834e-02
1.216666666666666563e+00,1.644455924435943127e+09,6.667886777934948703e-03,5.047831910363361624e-02,0.000000000000000000e+00,6.730442547151148369e-02,-4.341243748606286867e-02,-1.463658316384394524e-02,-2.098448756046344954e-02
1.233333333333333393e+00,1.644455924452395439e+09,6.623017194795275536e-03,7.451561391488908948e-02,0.000000000000000000e+00,9.935415188651879059e-02,-4.329762943926326185e-02,-1.497911439169984787e-02,-2.012165659134711529e-02
1.250000000000000000e+00,1.644455924469492197e+09,6.600819074560342233e-03,9.855290872614276554e-02,0.000000000000000000e+00,1.314038783015236689e-01,-4.265609111494836347e-02,-1.530397562530108266e-02,-1.886518173089263978e-02
1.266666666666666607e+00,1.644455924486741304e+09,6.604328003954243638e-03,1.225902035373964277e-01,0.000000000000000000e+00,1.634536047165285888e-01,-4.146573670904381281e-02,-1.560458470066500292e-02,-1.721249820838951020e-02
1.283333333333333215e+00,1.644455924503748178e+09,6.636430247453273604e-03,1.225902035373964277e-01,0.000000000000000000e+00,1.634536047165285888e-01,-3.970999113361607658e-02,-1.587763481567169496e-02,-1.555811121998647815e-02
1.300000000000000044e+00,1.644455924520483494e+09,6.699830191896155585e-03,1.225902035373964277e-01,0.000000000000000000e+00,1.634536047165285888e-01,-3.737827857873005089e-02,-1.612301826165979390e-02,-1.389252902468727027e-02
1.316666666666666652e+00,1.644455924536522388e+09,6.797019549142609487e-03,1.466274983486501038e-01,0.000000000000000000e+00,1.955033311315334810e-01,-3.446646543124522177e-02,-1.633714983119870928e-02,-1.180904690652493857e-02
1.333333333333333259e+00,1.644455924553695202e+09,6.930248739385055749e-03,1.466274983486501038e-01,0.000000000000000000e+00,1.955033311315334810e-01,-3.097725085707740342e-02,-1.651636253830000844e-02,-9.702330074564093076e-03
1.350000000000000089e+00,1.644455924571613550e+09,7.101500857121821608e-03,1.706647931599055701e-01,0.000000000000000000e+00,2.275530575465407879e-01,-2.692049870110825582e-02,-1.665687391519675084e-02,-7.166080456687396252e-03
1.366666666666666696e+00,1.644455924587603807e+09,7.312468595504489390e-03,1.466274983486501038e-01,0.000000000000000000e+00,1.955033311315334810e-01,-2.231350478475406171e-02,-1.675814849604638154e-02,-4.992905983106164791e-03
1.383333333333333304e+00,1.644455924604675293e+09,7.564534473007348062e-03,1.466274983486501038e-01,0.000000000000000000e+00,1.955033311315334810e-01,-1.718119418258897552e-02,-1.682279478497772027e-02,-2.770821291407139439e-03
1.399999999999999911e+00,1.644455924621757030e+09,7.858754669439317261e-03,1.466274983486501038e-01,0.000000000000000000e+00,1.955033311315334810e-01,-1.155624363291357475e-02,-1.684993632351717424e-02,-4.924921742720769942e-04
1.416666666666666741e+00,1.644455924637841702e+09,8.195846736606072699e-03,1.706647931599055701e-01,0.000000000000000000e+00,2.275530575465407879e-01,-5.479124878511943894e-03,-1.683526097623094450e-02,2.245926949798252286e-03
1.433333333333333348e+00,1.644455924654798985e+09,8.576181402879235610e-03,1.706647931599055701e-01,0.000000000000000000e+00,2.275530575465407879e-01,1.001934562052757098e-03,-1.677442837486222207e-02,5.046206477128837437e-03
1.449999999999999956e+00,1.644455924671179056e+09,8.999778641051199915e-03,1.466274983486501038e-01,0.000000000000000000e+00,1.955033311315334810e-01,7.831075931186894795e-03,-1.666968802278336395e-02,7.515775696380596130e-03
1.466666666666666563e+00,1.644455924690755606e+09,9.466308115720328820e-03,1.706647931599055701e-01,0.000000000000000000e+00,2.275530575465407879e-01,1.494502100420496207e-02,-1.651982665705339567e-02,1.045941123338580379e-02
1.483333333333333393e+00,1.644455924705471277e+09,9.975094070682690925e-03,1.706647931599055701e-01,0.000000000000000000e+00,2.275530575465407879e-01,2.227337216893728045e-02,-1.632029907992966003e-02,1.347551974507611369e-02
1.500000000000000000e+00,1.644455924722832203e+09,1.052512465907475339e-02,1.706647931599055701e-01,0.000000000000000000e+00,2.275530575465407879e-01,2.973900099547741038e-02,-1.606988845764501656e-02,1.656517235871451943e-02
1.516666666666666607e+00,1.644455924739910126e+09,1.111506566002220739e-02,1.706647931599055701e-01,0.000000000000000000e+00,2.275530575465407879e-01,3.725852456144459340e-02,-1.576737176914675201e-02,1.972804429890542485e-02
1.533333333333333215e+00,1.644455924759800434e+09,1.174327846604107488e-02,1.706647931599055701e-01,0.000000000000000000e+00,2.275530575465407879e-01,4.474286786280898959e-02,-1.541154366453127700e-02,2.296234387800185836e-02
1.550000000000000044e+00,1.644455924775624752e+09,1.240784216616831401e-02,1.466274983486501038e-01,0.000000000000000000e+00,1.955033311315334810e-01,5.209790969589250115e-02,-1.500456145110785726e-02,2.586745179865414940e-02
1.566666666666666652e+00,1.644455924792751074e+09,1.310657949153853745e-02,1.706647931599055701e-01,0.000000000000000000e+00,2.275530575465407879e-01,5.922520845210126755e-02,-1.454525755808202571e-02,2.923964793249509905e-02
1.583333333333333259e+00,1.644455924808761597e+09,1.383708633364772941e-02,1.706647931599055701e-01,0.000000000000000000e+00,2.275530575465407879e-01,6.602280333289624326e-02,-1.402927727837474138e-02,3.266846092766784171e-02
1.600000000000000089e+00,1.644455924825837374e+09,1.459676449161622855e-02,1.706647931599055701e-01,0.000000000000000000e+00,2.275530575465407879e-01,7.238608557825833290e-02,-1.345574480505752624e-02,3.614577643332002321e-02
1.616666666666666696e+00,1.644455924842789412e+09,1.538285725413508602e-02,1.706647931599055701e-01,0.000000000000000000e+00,2.275530575465407879e-01,7.820873341718784233e-02,-1.282393313484064823e-02,3.966185687272136967e-02
1.633333333333333304e+00,1.644455924860709906e+09,1.619248737517213835e-02,1.466274983486501038e-01,0.000000000000000000e+00,1.955033311315334810e-01,8.338370360331409659e-02,-1.213661104044077427e-02,4.280805481085422914e-02
1.649999999999999911e+00,1.644455924876396418e+09,1.702269696061374168e-02,1.466274983486501038e-01,0.000000000000000000e+00,1.955033311315334810e-01,8.780427160193046698e-02,-1.139667629711005672e-02,4.597531623336652273e-02
1.666666666666666741e+00,1.644455924893415689e+09,1.787048874646741600e-02,1.706647931599055701e-01,0.000000000000000000e+00,2.275530575465407879e-01,9.136511175597158974e-02,-1.060057945896010316e-02,4.954638447714785482e-02
1.683333333333333348e+00,1.644455924910927296e+09,1.873286821863524160e-02,1.466274983486501038e-01,0.000000000000000000e+00,1.955033311315334810e-01,9.396340808638205255e-02,-9.748419219642435671e-03,5.270407267841405868e-02
1.699999999999999956e+00,1.644455924927925348e+09,1.960688600011227870e-02,1.466274983486501038e-01,0.000000000000000000e+00,1.955033311315334810e-01,9.549998578538318461e-02,-8.843854752228458294e-03,5.583496627990063715e-02
1.716666666666666563e+00,1.644455924945089340e+09,2.048967991422212878e-02,1.706647931599055701e-01,0.000000000000000000e+00,2.275530575465407879e-01,9.588045294705743737e-02,-7.884168571908708317e-03,5.931770086803027364e-02
1.733333333333333393e+00,1.644455924961749554e+09,2.137851612254988015e-02,1.466274983486501038e-01,0.000000000000000000e+00,1.955033311315334810e-01,9.501634165559738610e-02,-6.870357246795218489e-03,6.233128687632091131e-02
1.750000000000000000e+00,1.644455924977594137e+09,2.227082873386224127e-02,1.706647931599055701e-01,0.000000000000000000e+00,2.275530575465407879e-01,9.282623722383892551e-02,-5.803718181377041235e-03,6.565616498396514844e-02
1.766666666666666607e+00,1.644455924994671583e+09,2.316425728572224854e-02,1.466274983486501038e-01,0.000000000000000000e+00,1.955033311315334810e-01,8.923688414890308673e-02,-4.685939521045647677e-03,6.846945936525963838e-02
1.783333333333333215e+00,1.644455925013032198e+09,2.405668151381772438e-02,1.706647931599055701e-01,0.000000000000000000e+00,2.275530575465407879e-01,8.418425723255779092e-02,-3.519039022847262992e-03,7.155004304026897632e-02
1.800000000000000044e+00,1.644455925030898094e+09,2.494625284524922340e-02,1.706647931599055701e-01,0.000000000000000000e+00,2.275530575465407879e-01,7.761458630499463995e-02,-2.302128361379628552e-03,7.447112203654968066e-02
1.816666666666666652e+00,1.644455925046145678e+09,2.583142208107288770e-02,1.706647931599055701e-01,0.000000000000000000e+00,2.275530575465407879e-01,6.948532309480985603e-02,-1.038059328753342071e-03,7.720955494150198717e-02
1.833333333333333259e+00,1.644455925062848091e+09,2.671096277009086389e-02,1.706647931599055701e-01,0.000000000000000000e+00,2.275530575465407879e-01,5.976603900673240627e-02,2.699295862016971252e-04,7.974207989599091384e-02
1.849999999999999867e+00,1.644455925079961300e+09,2.758398981993685772e-02,1.466274983486501038e-01,0.000000000000000000e+00,1.955033311315334810e-01,4.843924290262479476e-02,1.614892950904954754e-03,8.164822888547557111e-02
1.866666666666666696e+00,1.644455925098669052e+09,2.844997294254300590e-02,1.466274983486501038e-01,0.000000000000000000e+00,1.955033311315334810e-01,3.550110842994882998e-02,2.989575165594293010e-03,8.330902345042955071e-02
1.883333333333333304e+00,1.644455925115993023e+09,2.930874458861695148e-02,1.466274983486501038e-01,0.000000000000000000e+00,1.955033311315334810e-01,2.096210100356106151e-02,4.389699764965252111e-03,8.470205884026210663e-02
1.899999999999999911e+00,1.644455925133392096e+09,3.016050208924236919e-02,1.706647931599055701e-01,0.000000000000000000e+00,2.275530575465407879e-01,4.847495218571596862e-03,5.813943499851793872e-03,8.620301991168351219e-02
1.916666666666666741e+00,1.644455925150007010e+09,3.100580379148725613e-02,1.466274983486501038e-01,0.000000000000000000e+00,1.955033311315334810e-01,-1.280222574988201280e-02,7.257238107683124627e-03,8.699014651383164820e-02
1.933333333333333348e+00,1.644455925166059971e+09,3.184555904823360012e-02,1.706647931599055701e-01,0.000000000000000000e+00,2.275530575465407879e-01,-3.193109632475545773e-02,8.714220727902573238e-03,8.784539217419803925e-02
1.949999999999999956e+00,1.644455925183026314e+09,3.268101199952348074e-02,1.466274983486501038e-01,0.000000000000000000e+00,1.955033311315334810e-01,-5.246752687353661154e-02,1.017918277031637682e-02,8.794976298970279271e-02
1.966666666666666563e+00,1.644455925201788902e+09,3.351371916268259393e-02,1.706647931599055701e-01,0.000000000000000000e+00,2.275530575465407879e-01,-7.432429975113333254e-02,1.164617108535030525e-02,8.808844956481506894e-02
1.983333333333333393e+00,1.644455925217833757e+09,3.434552093041181448e-02,1.706647931599055701e-01,0.000000000000000000e+00,2.275530575465407879e-01,-9.739870742533890402e-02,1.311226463914239027e-02,8.784345743993242361e-02
2.000000000000000000e+00,1.644455925235755444e+09,3.517850715895994712e-02,1.947020879711592600e-01,0.000000000000000000e+00,2.596027839615456800e-01,-1.215728358583933466e-01,1.457428992975951139e-02,8.760025301786139584e-02
2.016666666666666607e+00,1.644455925252707720e+09,3.601497711140843466e-02,1.947020879711592600e-01,0.000000000000000000e+00,2.596027839615456800e-01,-1.467139950449250774e-01,1.602882289540668442e-02,8.694552160098478755e-02
2.033333333333333215e+00,1.644455925269654512e+09,3.685739410298301960e-02,2.427766775936666122e-01,0.000000000000000000e+00,3.237022367915554644e-01,-1.726752972834353639e-01,1.747558840088994300e-02,8.666711243400537779e-02
2.049999999999999822e+00,1.644455925285901546e+09,3.770833527512800626e-02,2.668139724049202743e-01,0.000000000000000000e+00,3.557519632065603843e-01,-1.992963823969681747e-01,1.891739533319748701e-02,8.635059866849703614e-02
2.066666666666666430e+00,1.644455925302857161e+09,3.857043700180028817e-02,3.148885620274294306e-01,0.000000000000000000e+00,4.198514160365725556e-01,-2.264042877307006485e-01,2.035686668201485208e-02,8.638586522462515793e-02
2.083333333333333481e+00,1.644455925318640232e+09,3.944633650404195946e-02,3.148885620274294306e-01,0.000000000000000000e+00,4.198514160365725556e-01,-2.538144593525085146e-01,2.179313502915206438e-02,8.596749858873663219e-02
2.100000000000000089e+00,1.644455925334968567e+09,4.033861031638242417e-02,3.389258568386830928e-01,0.000000000000000000e+00,4.519011424515774755e-01,-2.813318994799711703e-01,2.322200770462540254e-02,8.549852520257515687e-02
2.116666666666666696e+00,1.644455925351675272e+09,4.124971031004949495e-02,3.389258568386830928e-01,0.000000000000000000e+00,4.519011424515774755e-01,-3.087524437670445265e-01,2.463934159257516118e-02,8.458408153248604677e-02
2.133333333333333304e+00,1.644455925367450237e+09,4.218189803242708424e-02,3.148885620274294306e-01,0.000000000000000000e+00,4.198514160365725556e-01,-3.358641607191005241e-01,2.603449632907946232e-02,8.283933348445389477e-02
2.149999999999999911e+00,1.644455925385422707e+09,4.313717816885278417e-02,3.389258568386830928e-01,0.000000000000000000e+00,4.519011424515774755e-01,-3.624488641795261534e-01,2.740046106756716116e-02,8.108131862361880882e-02
2.166666666666666519e+00,1.644455925402408123e+09,4.411723197092816406e-02,3.389258568386830928e-01,0.000000000000000000e+00,4.519011424515774755e-01,-3.882837285579787689e-01,2.873380005190524777e-02,7.892534844395912574e-02
2.183333333333333126e+00,1.644455925420544386e+09,4.512335152434688440e-02,3.389258568386830928e-01,0.000000000000000000e+00,4.519011424515774755e-01,-4.131429952626705093e-01,3.002807040927134297e-02,7.639412577952657546e-02
2.200000000000000178e+00,1.644455925436560631e+09,4.615637574823531347e-02,3.389258568386830928e-01,0.000000000000000000e+00,4.519011424515774755e-01,-4.367997576694352957e-01,3.127723585213998403e-02,7.351372865614540231e-02
2.216666666666666785e+00,1.644455925452348232e+09,4.721662902667636552e-02,3.389258568386830928e-01,0.000000000000000000e+00,4.519011424515774755e-01,-4.590278109210351176e-01,3.247572236836725190e-02,7.031354290521227290e-02
2.233333333333333393e+00,1.644455925470787287e+09,4.830386337106976763e-02,3.389258568386830928e-01,0.000000000000000000e+00,4.519011424515774755e-01,-4.796035519127901936e-01,3.361847253505253347e-02,6.682616448729186698e-02
2.250000000000000000e+00,1.644455925486938715e+09,4.941720499902875485e-02,3.389258568386830928e-01,0.000000000000000000e+00,4.519011424515774755e-01,-4.983079139960616688e-01,3.470099795072911775e-02,6.308727145232563560e-02
2.266666666666666607e+00,1.644455925504810810e+09,5.055510619148655821e-02,3.389258568386830928e-01,0.000000000000000000e+00,4.519011424515774755e-01,-5.149283202293828410e-01,3.571942928145913770e-02,5.913546573175062354e-02
2.283333333333333215e+00,1.644455925521765471e+09,5.171530325459770816e-02,3.389258568386830928e-01,0.000000000000000000e+00,4.519011424515774755e-01,-5.292606384373007566e-01,3.667056342194857654e-02,5.501208523128422317e-02
2.299999999999999822e+00,1.644455925539819956e+09,5.289478136698723409e-02,3.148885620274294306e-01,0.000000000000000000e+00,4.198514160365725556e-01,-5.411111209071899353e-01,3.754858723976404328e-02,5.036368543213941285e-02
2.316666666666666430e+00,1.644455925555683613e+09,5.408974703619922469e-02,3.148885620274294306e-01,0.000000000000000000e+00,4.198514160365725556e-01,-5.502983112714296965e-01,3.834851082757618351e-02,4.564026602359393114e-02
2.333333333333333481e+00,1.644455925572316885e+09,5.529560882121184462e-02,3.389258568386830928e-01,0.000000000000000000e+00,4.519011424515774755e-01,-5.566549009919864455e-01,3.907280522743408063e-02,4.128715422118097583e-02
2.350000000000000089e+00,1.644455925589852095e+09,5.650696690114316578e-02,3.389258568386830928e-01,0.000000000000000000e+00,4.519011424515774755e-01,-5.600295178910201788e-01,3.972468291412272617e-02,3.695021551695337747e-02
2.366666666666666696e+00,1.644455925606909752e+09,5.771761198442632718e-02,3.389258568386830928e-01,0.000000000000000000e+00,4.519011424515774755e-01,-5.602884293576170238e-01,4.030484154823112813e-02,3.268068067419607758e-02
2.383333333333333304e+00,1.644455925623691082e+09,5.892053395854571912e-02,3.148885620274294306e-01,0.000000000000000000e+00,4.198514160365725556e-01,-5.573171432087068444e-01,4.081152133094865381e-02,2.813352453845726145e-02
2.399999999999999911e+00,1.644455925641610146e+09,6.010794057879381008e-02,3.148885620274294306e-01,0.000000000000000000e+00,4.198514160365725556e-01,-5.510218896917608022e-01,4.124391273710181077e-02,2.376557767123191334e-02
2.416666666666666519e+00,1.644455925658055544e+09,6.127128638641659436e-02,3.148885620274294306e-01,0.000000000000000000e+00,4.198514160365725556e-01,-5.413309687866396658e-01,4.160544684663289999e-02,1.963000344904732020e-02
2.433333333333333126e+00,1.644455925675009012e+09,6.240131193306097668e-02,3.389258568386830928e-01,0.000000000000000000e+00,4.519011424515774755e-01,-5.281959477910481704e-01,4.190376018550983489e-02,1.617718859429763401e-02
2.450000000000000178e+00,1.644455925691964149e+09,6.348809327079235620e-02,3.389258568386830928e-01,0.000000000000000000e+00,4.519011424515774755e-01,-5.115926951541309720e-01,4.214729676419029514e-02,1.305587137702637901e-02
2.466666666666666785e+00,1.644455925709915876e+09,6.452110154637549777e-02,2.908512672161757684e-01,0.000000000000000000e+00,3.878016896215676357e-01,-4.915222376498961654e-01,4.233537456243963160e-02,9.523277404881704683e-03
2.483333333333333393e+00,1.644455925725369215e+09,6.548927241631666285e-02,2.427766775936666122e-01,0.000000000000000000e+00,3.237022367915554644e-01,-4.680114292491365791e-01,4.246167095640968059e-02,5.643068483320487147e-03
2.500000000000000000e+00,1.644455925741311550e+09,6.638108487671898206e-02,1.706647931599055701e-01,0.000000000000000000e+00,2.275530575465407879e-01,-4.411134214465157743e-01,4.251758817487868991e-02,1.079674126741308506e-03
2.516666666666666607e+00,1.644455925760537863e+09,6.718464898070271307e-02,7.451561391488908948e-02,0.000000000000000000e+00,9.935415188651879059e-02,-4.109079263184832742e-01,4.248897094448934181e-02,-4.498247182929245892e-03
2.533333333333333215e+00,1.644455925775509119e+09,6.788780179740803999e-02,5.047831910363361624e-02,0.000000000000000000e+00,6.730442547151148369e-02,-3.775012652162605953e-01,4.236945288576048074e-02,-9.829111559410838583e-03
2.549999999999999822e+00,1.644455925792864561e+09,6.847821085184944978e-02,7.451561391488908948e-02,0.000000000000000000e+00,9.935415188651879059e-02,-3.410261977237161735e-01,4.217018138674655248e-02,-1.407168312387735779e-02
2.566666666666666430e+00,1.644455925809794903e+09,6.894348417553364250e-02,7.451561391488908948e-02,0.000000000000000000e+00,9.935415188651879059e-02,-3.016415273188194912e-01,4.190622617808772293e-02,-1.759315980528403794e-02
2.583333333333333481e+00,1.644455925827546835e+09,6.927128599517304308e-02,5.047831910363361624e-02,0.000000000000000000e+00,6.730442547151148369e-02,-2.595314820548715873e-01,4.158656229683210803e-02,-2.075771530654905647e-02
2.600000000000000089e+00,1.644455925845170021e+09,6.944945699234449099e-02,2.644102429237994017e-02,0.000000000000000000e+00,3.525469905650659153e-02,-2.149048705081801625e-01,4.121743672057457536e-02,-2.352965383388819567e-02
2.616666666666666696e+00,1.644455925861163139e+09,6.946613798184210486e-02,-2.163356533012830360e-02,0.000000000000000000e+00,-2.884475377350440711e-02,-1.679940152060061809e-01,4.080233429482891389e-02,-2.627501108374477243e-02
2.633333333333333304e+00,1.644455925878843069e+09,6.930989578193806622e-02,-6.970815495263654737e-02,0.000000000000000000e+00,-9.294420660351540575e-02,-1.190534677354188192e-01,4.034197471156224235e-02,-2.896067854527902344e-02
2.649999999999999911e+00,1.644455925895837784e+09,6.896984998689857649e-02,-4.567086014138197619e-02,0.000000000000000000e+00,-6.089448018850930622e-02,-6.835851172275177190e-02,3.984754700543956252e-02,-3.036674037022524253e-02
2.666666666666666519e+00,1.644455925913526058e+09,6.843579930190203664e-02,-6.970815495263654737e-02,0.000000000000000000e+00,-9.294420660351540575e-02,-1.620346184683183963e-02,3.933376277988810676e-02,-3.128481642466492824e-02
2.683333333333333126e+00,1.644455925929968596e+09,6.769834606383944020e-02,-4.567086014138197619e-02,0.000000000000000000e+00,-6.089448018850930622e-02,3.710023101095237530e-02,3.881548646769316518e-02,-3.090938393131047873e-02
2.700000000000000178e+00,1.644455925948616266e+09,6.674901754909055851e-02,-4.567086014138197619e-02,0.000000000000000000e+00,-6.089448018850930622e-02,9.122605648814850754e-02,3.831089139481962114e-02,-2.964553558599082594e-02
2.716666666666666785e+00,1.644455925965110064e+09,6.558038266185650667e-02,-4.567086014138197619e-02,0.000000000000000000e+00,-6.089448018850930622e-02,1.458346895236955765e-01,3.783472846931366235e-02,-2.749997550411297648e-02
2.733333333333333393e+00,1.644455925980988979e+09,6.418616260443796295e-02,-6.970815495263654737e-02,0.000000000000000000e+00,-9.294420660351540575e-02,2.005763876583435967e-01,3.739826944018422722e-02,-2.488237926322175650e-02
2.750000000000000000e+00,1.644455925998702765e+09,6.256133415425689515e-02,-4.567086014138197619e-02,0.000000000000000000e+00,-6.089448018850930622e-02,2.550935236817416518e-01,3.701592544855402539e-02,-2.100965754591889792e-02
2.766666666666666607e+00,1.644455926014101267e+09,6.070222421155117148e-02,-4.567086014138197619e-02,0.000000000000000000e+00,-6.089448018850930622e-02,3.090232349466111583e-01,3.670504071525217821e-02,-1.630956656586323578e-02
2.783333333333333215e+00,1.644455926032128096e+09,5.860659433646047550e-02,-4.567086014138197619e-02,0.000000000000000000e+00,-6.089448018850930622e-02,3.620001692982193764e-01,3.647915885331316083e-02,-1.081152955131026161e-02
2.799999999999999822e+00,1.644455926049707651e+09,5.627371406444506285e-02,-4.567086014138197619e-02,0.000000000000000000e+00,-6.089448018850930622e-02,4.136593063454935271e-01,3.635128673578626873e-02,-4.550516663714847081e-03
2.816666666666666430e+00,1.644455926064795017e+09,5.370442187422248825e-02,-9.374544976389022344e-02,0.000000000000000000e+00,-1.249939330185202979e-01,4.636388317423075778e-01,3.632716316950819480e-02,1.638496602203520260e-03
2.833333333333333481e+00,1.644455926083003044e+09,5.090117278209484869e-02,-6.970815495263654737e-02,0.000000000000000000e+00,-9.294420660351540575e-02,5.115830412660712367e-01,3.641527711602377676e-02,8.914964094245180284e-03
2.850000000000000089e+00,1.644455926100352764e+09,4.786807164990992264e-02,-9.374544976389022344e-02,0.000000000000000000e+00,-1.249939330185202979e-01,5.571452507864651515e-01,3.662663352337924838e-02,1.642693770393262656e-02
2.866666666666666696e+00,1.644455926119153976e+09,4.461089142004031477e-02,-6.970815495263654737e-02,0.000000000000000000e+00,-9.294420660351540575e-02,5.999906877197265231e-01,3.697138980963405458e-02,2.492022363046265260e-02
2.883333333333333304e+00,1.644455926135426998e+09,4.113707562858851668e-02,-1.177827445751448016e-01,0.000000000000000000e+00,-1.570436594335263836e-01,6.397993392709186988e-01,3.745538606895007505e-02,3.313650394940952787e-02
2.899999999999999911e+00,1.644455926151975632e+09,3.745572469630235879e-02,-1.658573341976530557e-01,0.000000000000000000e+00,-2.211431122635373892e-01,6.762687326842818925e-01,3.807358258135347395e-02,4.102516407844994384e-02
2.916666666666666519e+00,1.644455926168690920e+09,3.357756565405004695e-02,-2.139319238201612960e-01,0.000000000000000000e+00,-2.852425650935483947e-01,7.091166228546101902e-01,3.882006405757495310e-02,4.853176091946927867e-02
2.933333333333333126e+00,1.644455926184761047e+09,2.951490512464110400e-02,-2.139319238201612960e-01,0.000000000000000000e+00,-2.852425650935483947e-01,7.380835630029074501e-01,3.969461959447245086e-02,5.639306603561754921e-02
2.950000000000000178e+00,1.644455926202641964e+09,2.528156555369326028e-02,-2.379692186314149582e-01,0.000000000000000000e+00,-3.172922915085532591e-01,7.629353346881196929e-01,4.069922357187277795e-02,6.413789732582897418e-02
2.966666666666666785e+00,1.644455926219590664e+09,2.089280485741177446e-02,-2.139319238201612960e-01,0.000000000000000000e+00,-2.852425650935483947e-01,7.834652142122219276e-01,4.183799399117130863e-02,7.249134841306478783e-02
2.983333333333333393e+00,1.644455926235766172e+09,1.636521983277174422e-02,-2.379692186314149582e-01,0.000000000000000000e+00,-3.172922915085532591e-01,7.994960534749948611e-01,4.311372895678945716e-02,8.057439402817297147e-02
3.000000000000000000e+00,1.644455926253572941e+09,1.171663385383574923e-02,-2.379692186314149582e-01,0.000000000000000000e+00,-3.172922915085532591e-01,8.108821545423807731e-01,4.452463756899327496e-02,8.871203434781858854e-02
3.016666666666666607e+00,1.644455926271525860e+09,6.965969554869355998e-03,-1.898946290089067179e-01,0.000000000000000000e+00,-2.531928386785423091e-01,8.175109186011036977e-01,4.607760519942230570e-02,9.761933821059284866e-02
3.033333333333333215e+00,1.644455926287481785e+09,2.133107374638968257e-03,-2.139319238201612960e-01,0.000000000000000000e+00,-2.852425650935483947e-01,8.193042515733333087e-01,4.777472526586858809e-02,1.060117569400327586e-01
3.049999999999999822e+00,1.644455926303788662e+09,-2.761268995159380565e-03,-2.139319238201612960e-01,0.000000000000000000e+00,-2.852425650935483947e-01,8.162197104475840126e-01,4.961013377438366900e-02,1.142144782086413901e-01
3.066666666666666430e+00,1.644455926322534800e+09,-7.695839052887365819e-03,-2.139319238201612960e-01,0.000000000000000000e+00,-2.852425650935483947e-01,8.082513763331621304e-01,5.158002074980382740e-02,1.221499154417712424e-01
3.083333333333333481e+00,1.644455926339458227e+09,-1.264882246434654439e-02,-2.139319238201612960e-01,0.000000000000000000e+00,-2.852425650935483947e-01,7.954304423508904431e-01,5.367929813209371820e-02,1.297422800349934957e-01
3.100000000000000089e+00,1.644455926357466698e+09,-1.759816507571760821e-02,-1.898946290089067179e-01,0.000000000000000000e+00,-2.531928386785423091e-01,7.778255067166076620e-01,5.590495470374374359e-02,1.373154714251384745e-01
3.116666666666666696e+00,1.644455926373405457e+09,-2.252173233388536644e-02,-2.139319238201612960e-01,0.000000000000000000e+00,-2.852425650935483947e-01,7.555425637386098403e-01,5.824938734456665962e-02,1.439978827829563601e-01
3.133333333333333304e+00,1.644455926391976357e+09,-2.739750837076374360e-02,-2.139319238201612960e-01,0.000000000000000000e+00,-2.852425650935483947e-01,7.287246879170103941e-01,6.070056643163897203e-02,1.501265830974982118e-01
3.149999999999999911e+00,1.644455926409928083e+09,-3.220379890865111144e-02,-2.139319238201612960e-01,0.000000000000000000e+00,-2.852425650935483947e-01,6.975514088818989267e-01,6.324873835595326566e-02,1.556387359242128732e-01
3.166666666666666519e+00,1.644455926426065683e+09,-3.691943606107227216e-02,-2.139319238201612960e-01,0.000000000000000000e+00,-2.852425650935483947e-01,6.622377775172612058e-01,6.588314061636273145e-02,1.604760978920884151e-01
3.183333333333333126e+00,1.644455926442084312e+09,-4.152398303921336215e-02,-1.898946290089067179e-01,0.000000000000000000e+00,-2.531928386785423091e-01,6.230331262668689085e-01,6.859540251454863957e-02,1.649828109482018856e-01
3.200000000000000178e+00,1.644455926459012985e+09,-4.599793672898209312e-02,-1.898946290089067179e-01,0.000000000000000000e+00,-2.531928386785423091e-01,5.802195292843445040e-01,7.137624039216909633e-02,1.687073880751720489e-01
3.216666666666666785e+00,1.644455926476573944e+09,-5.032292607879135238e-02,-2.139319238201612960e-01,0.000000000000000000e+00,-2.852425650935483947e-01,5.341099707490911674e-01,7.420895139640233673e-02,1.712109778530876425e-01
3.233333333333333393e+00,1.644455926491958380e+09,-5.448190423402351351e-02,-1.898946290089067179e-01,0.000000000000000000e+00,-2.531928386785423091e-01,4.850462322995954811e-01,7.707958643498204199e-02,1.732595362026860819e-01
3.250000000000000000e+00,1.644455926510128498e+09,-5.845933237125241350e-02,-1.898946290089067179e-01,0.000000000000000000e+00,-2.531928386785423091e-01,4.333965131120795511e-01,7.997694727983439833e-02,1.744205400928866001e-01
3.266666666666666607e+00,1.644455926528163671e+09,-6.224135322391341485e-02,-1.898946290089067179e-01,0.000000000000000000e+00,-2.531928386785423091e-01,3.795527986525246700e-01,8.288606091037920010e-02,1.746723959564021045e-01
3.283333333333333215e+00,1.644455926544495583e+09,-6.581595235121677490e-02,-1.898946290089067179e-01,0.000000000000000000e+00,-2.531928386785423091e-01,3.239279965302843123e-01,8.579165442676742193e-02,1.740006918987035134e-01
3.299999999999999822e+00,1.644455926562433481e+09,-6.917310528351175436e-02,-2.139319238201612960e-01,0.000000000000000000e+00,-2.852425650935483947e-01,2.669528601597839224e-01,8.867495617420924348e-02,1.720010724235887245e-01
3.316666666666666430e+00,1.644455926579186916e+09,-7.230490877954943996e-02,-2.139319238201612960e-01,0.000000000000000000e+00,-2.852425650935483947e-01,2.090727230710471285e-01,9.151721268542359344e-02,1.690778292332224819e-01
3.333333333333333481e+00,1.644455926597359419e+09,-7.520569455351357180e-02,-2.379692186314149582e-01,0.000000000000000000e+00,-3.172922915085532591e-01,1.507440686793028173e-01,9.429977581060441927e-02,1.648415136088397792e-01
3.350000000000000089e+00,1.644455926612589598e+09,-7.787212397138225384e-02,-2.620065134426695641e-01,0.000000000000000000e+00,-3.493420179235594003e-01,9.243096210900718368e-02,9.700094451887740499e-02,1.593140857116724096e-01
3.366666666666666696e+00,1.644455926630858183e+09,-8.030326237602646022e-02,-3.341183978764314388e-01,0.000000000000000000e+00,-4.454911971685752703e-01,3.460137224981820608e-02,9.959280529869705967e-02,1.517302745047425239e-01
3.383333333333333304e+00,1.644455926646906137e+09,-8.250063187712765311e-02,-5.504540511777180622e-01,0.000000000000000000e+00,-7.339387349036241570e-01,-2.227658641545130630e-02,1.020215803044453445e-01,1.397559888724414223e-01
3.399999999999999911e+00,1.644455926664015055e+09,-8.446824163397124996e-02,-7.908269992902593470e-01,0.000000000000000000e+00,-1.054435999053679129e+00,-7.773846154332070268e-02,1.042115769238959461e-01,1.230899012390978264e-01
3.416666666666666519e+00,1.644455926680036783e+09,-8.621259486471333222e-02,-9.590880629690387016e-01,0.000000000000000000e+00,-1.278784083958718121e+00,-1.313272886756964020e-01,1.060954653268484371e-01,1.030324236420664258e-01
3.433333333333333126e+00,1.644455926695476294e+09,-8.774267203297649032e-02,-1.031199947402800632e+00,0.000000000000000000e+00,-1.374933263203734102e+00,-1.825974028331756038e-01,1.076307912021213786e-01,8.126714192952720628e-02
3.449999999999999734e+00,1.644455926713050842e+09,-8.906988988950328978e-02,-1.079274537025308733e+00,0.000000000000000000e+00,-1.439032716033745052e+00,-2.311182034386056738e-01,1.087930268102591247e-01,5.826502731365755527e-02
3.466666666666666785e+00,1.644455926729157925e+09,-9.020803628097091853e-02,-1.103311831836563339e+00,0.000000000000000000e+00,-1.471082442448751193e+00,-2.764778399794788344e-01,1.095654857662284182e-01,3.449607382742089778e-02
3.483333333333333393e+00,1.644455926746138096e+09,-9.117318087758798095e-02,-1.151386421459071663e+00,0.000000000000000000e+00,-1.535181895278762143e+00,-3.182867860240539692e-01,1.099326637183470068e-01,9.634342417250210677e-03
3.500000000000000000e+00,1.644455926764886618e+09,-9.198356221342250671e-02,-1.319647485137850129e+00,0.000000000000000000e+00,-1.759529980183800024e+00,-3.561812696956171420e-01,1.098604390879780457e-01,-1.822391219960527858e-02
3.516666666666666607e+00,1.644455926781860590e+09,-9.265945167605267596e-02,-1.439833959194120272e+00,0.000000000000000000e+00,-1.919778612258826955e+00,-3.898265294819561744e-01,1.093065106941870229e-01,-4.816432528374886557e-02
3.533333333333333215e+00,1.644455926798699617e+09,-9.322299532262250110e-02,-1.511945843627882979e+00,0.000000000000000000e+00,-2.015927791503844269e+00,-4.189198653103334835e-01,1.082437322849337663e-01,-7.928264202346588241e-02
3.549999999999999822e+00,1.644455926814580202e+09,-9.369803463517563380e-02,-1.511945843627882979e+00,0.000000000000000000e+00,-2.015927791503844269e+00,-4.431934561471038703e-01,1.066632606603089284e-01,-1.102878253950908272e-01
3.566666666666666430e+00,1.644455926831373692e+09,-9.410990755675846531e-02,-1.511945843627882979e+00,0.000000000000000000e+00,-2.015927791503844269e+00,-4.624169169778795663e-01,1.045676632768864217e-01,-1.410982740217643638e-01
3.583333333333333481e+00,1.644455926848588228e+09,-9.448523136872342965e-02,-1.511945843627882979e+00,0.000000000000000000e+00,-2.015927791503844269e+00,-4.763995698791646527e-01,1.019608826798948653e-01,-1.716305836498902559e-01
3.600000000000000089e+00,1.644455926866081953e+09,-9.485166917654148933e-02,-1.560020433250391303e+00,0.000000000000000000e+00,-2.080027244333855219e+00,-4.849924059929861531e-01,9.884162046049034533e-02,-2.025948687512086899e-01
3.616666666666666696e+00,1.644455926882458448e+09,-9.523768196390385021e-02,-1.584057728061645021e+00,0.000000000000000000e+00,-2.112076970748860028e+00,-4.880897175477958427e-01,9.520681577986832289e-02,-2.334958548307440318e-01
3.633333333333333304e+00,1.644455926899230242e+09,-9.567226835077655145e-02,-1.608095022872899627e+00,0.000000000000000000e+00,-2.144126697163866169e+00,-4.856303816148379027e-01,9.105828236575634616e-02,-2.642427448247610111e-01
3.649999999999999911e+00,1.644455926917018652e+09,-9.618469434826162900e-02,-1.608095022872899627e+00,0.000000000000000000e+00,-2.144126697163866169e+00,-4.775987800301454977e-01,8.640265688968361280e-02,-2.943486827304057085e-01
3.666666666666666519e+00,1.644455926933482885e+09,-9.680421553975346316e-02,-1.608095022872899627e+00,0.000000000000000000e+00,-2.144126697163866169e+00,-4.640253428276255865e-01,8.125129879893482066e-02,-3.237326640679989986e-01
3.683333333333333126e+00,1.644455926950966120e+09,-9.755979423219510172e-02,-1.608095022872899627e+00,0.000000000000000000e+00,-2.144126697163866169e+00,-4.449867055952069772e-01,7.561689584213118764e-02,-3.523162899189971609e-01
3.699999999999999734e+00,1.644455926967854023e+09,-9.847981421175691641e-02,-1.608095022872899627e+00,0.000000000000000000e+00,-2.144126697163866169e+00,-4.206054743596296386e-01,6.951341465363299055e-02,-3.800244836843744700e-01
3.716666666666666785e+00,1.644455926985806942e+09,-9.959179580366758766e-02,-1.608095022872899627e+00,0.000000000000000000e+00,-2.144126697163866169e+00,-3.910495948999064275e-01,6.295603957807881235e-02,-4.067861855717003761e-01
3.733333333333333393e+00,1.644455927001258612e+09,-1.009221139751912272e-01,-1.608095022872899627e+00,0.000000000000000000e+00,-2.144126697163866169e+00,-3.565313267581275425e-01,5.596110015777323171e-02,-4.325350186452452395e-01
3.750000000000000000e+00,1.644455927019657850e+09,-1.024957222330638434e-01,-1.608095022872899627e+00,0.000000000000000000e+00,-2.144126697163866169e+00,-3.173058256304027713e-01,4.854598780703543726e-02,-4.572099204362291558e-01
3.766666666666666607e+00,1.644455927036461115e+09,-1.043358850515670178e-01,-1.632132317684153122e+00,0.000000000000000000e+00,-2.176176423578870978e+00,-2.736693412517536284e-01,4.072574225270449155e-02,-4.811530358641633032e-01
3.783333333333333215e+00,1.644455927053007841e+09,-1.064639215245702097e-01,-1.608095022872899627e+00,0.000000000000000000e+00,-2.144126697163866169e+00,-2.259570413072060080e-01,3.251966189945312835e-02,-5.035144899139136765e-01
3.799999999999999822e+00,1.644455927068966627e+09,-1.088989628643604185e-01,-1.608095022872899627e+00,0.000000000000000000e+00,-2.144126697163866169e+00,-1.745404752769506573e-01,2.395108090231914955e-02,-5.246565005526104830e-01
3.816666666666666430e+00,1.644455927087918043e+09,-1.116577262722343450e-01,-1.608095022872899627e+00,0.000000000000000000e+00,-2.144126697163866169e+00,-1.198246954269543418e-01,1.504061057708004287e-02,-5.445446921990355627e-01
3.833333333333333481e+00,1.644455927104869366e+09,-1.147543075812509500e-01,-1.511945843627882979e+00,0.000000000000000000e+00,-2.015927791503844269e+00,-6.224505535764950082e-02,5.822650459250969246e-03,-5.615632470642987206e-01
3.850000000000000089e+00,1.644455927121826649e+09,-1.181999949211490625e-01,-1.463871254005374878e+00,0.000000000000000000e+00,-1.951828338673833096e+00,-2.263709593522642526e-03,-3.661676888663662616e-03,-5.765145024430323728e-01
3.866666666666666696e+00,1.644455927137784004e+09,-1.220031054804080473e-01,-1.415796664382866554e+00,0.000000000000000000e+00,-1.887728885843822146e+00,5.963415939319240133e-02,-1.337793730051450337e-02,-5.894009504476761530e-01
3.883333333333333304e+00,1.644455927154824495e+09,-1.261688472421998997e-01,-1.367722074760358231e+00,0.000000000000000000e+00,-1.823629433013810974e+00,1.229443576082875078e-01,-2.329180744067377989e-02,-6.002333755933847437e-01
3.899999999999999911e+00,1.644455927171897888e+09,-1.306992073512942831e-01,-1.343684779949103625e+00,0.000000000000000000e+00,-1.791579706598805055e+00,1.871479077842170824e-01,-3.337253395042273640e-02,-6.094282636197172476e-01
3.916666666666666519e+00,1.644455927188840389e+09,-1.355928685297692893e-01,-1.295610190326595523e+00,0.000000000000000000e+00,-1.727480253768793883e+00,2.517154555535012772e-01,-4.358968040319997905e-02,-6.166093627464915850e-01
3.933333333333333126e+00,1.644455927205924034e+09,-1.408451547028394535e-01,-1.247535600704088088e+00,0.000000000000000000e+00,-1.663380800938784265e+00,3.161118176376934152e-01,-5.390998544045941254e-02,-6.218127874270054090e-01
3.949999999999999734e+00,1.644455927225409269e+09,-1.464480067246504702e-01,-1.199461011081579986e+00,0.000000000000000000e+00,-1.599281348108773093e+00,3.798006344144939650e-01,-6.430085870532226133e-02,-6.250829204399273031e-01
3.966666666666666785e+00,1.644455927240041971e+09,-1.523899888100657407e-01,-1.103311831836563339e+00,0.000000000000000000e+00,-1.471082442448751193e+00,4.422490877978558221e-01,-7.472387693050941415e-02,-6.256776146153852913e-01
3.983333333333333393e+00,1.644455927258841991e+09,-1.586563259850384822e-01,-9.831253577802923083e-01,0.000000000000000000e+00,-1.310833810373723152e+00,5.029326442563140098e-01,-8.513174272696764910e-02,-6.232729607109933623e-01
4.000000000000000000e+00,1.644455927278732777e+09,-1.652289725680128885e-01,-9.110134733465303780e-01,0.000000000000000000e+00,-1.214684631128707171e+00,5.613397820166448060e-01,-9.548183573787913381e-02,-6.187507625555799251e-01
4.016666666666666607e+00,1.644455927295866966e+09,-1.720867113908763069e-01,-9.350507681577840957e-01,0.000000000000000000e+00,-1.246734357543712202e+00,6.169766610650121441e-01,-1.057528188374572825e-01,-6.137810145742146339e-01
4.033333333333333215e+00,1.644455927310828686e+09,-1.792052831634021737e-01,-9.110134733465303780e-01,0.000000000000000000e+00,-1.214684631128707171e+00,6.693716944744617647e-01,-1.159311023567722587e-01,-6.076300940361007985e-01
4.049999999999999822e+00,1.644455927328833103e+09,-1.865575450829401738e-01,-9.110134733465303780e-01,0.000000000000000000e+00,-1.214684631128707171e+00,7.180799798617124585e-01,-1.260009924893174815e-01,-6.007757621283025262e-01
4.066666666666666430e+00,1.644455927345784664e+09,-1.941136574944747617e-01,-8.629388837240221655e-01,0.000000000000000000e+00,-1.150585178298696221e+00,7.626875504100621983e-01,-1.359447891742674164e-01,-5.925028209985853112e-01
4.083333333333333037e+00,1.644455927361709595e+09,-2.018412971181721138e-01,-8.148642941015139529e-01,0.000000000000000000e+00,-1.086485725468685271e+00,8.028154058888827826e-01,-1.457396636040843296e-01,-5.829087613723122896e-01
4.099999999999999645e+00,1.644455927380658865e+09,-2.097058950852199732e-01,-7.667897044790056293e-01,0.000000000000000000e+00,-1.022386272638674320e+00,8.381232854494806706e-01,-1.553644453481837218e-01,-5.720950866120383393e-01
4.116666666666666252e+00,1.644455927396649837e+09,-2.176708977611100659e-01,-6.706405252339892042e-01,0.000000000000000000e+00,-8.941873669786521983e-01,8.683131456760090350e-01,-1.647930427585941326e-01,-5.593719455275942831e-01
4.133333333333332860e+00,1.644455927413846254e+09,-2.256980480913350628e-01,-5.264167563664644556e-01,0.000000000000000000e+00,-7.018890084886192371e-01,8.931323094083000180e-01,-1.739879968499939700e-01,-5.440650655521638290e-01
4.150000000000000355e+00,1.644455927429803610e+09,-2.337476849805263934e-01,-4.062302823101942573e-01,0.000000000000000000e+00,-5.416403764135924170e-01,9.123762532185218932e-01,-1.829106922701490556e-01,-5.267066039502033004e-01
4.166666666666666963e+00,1.644455927446736813e+09,-2.417790580147985702e-01,-3.100811030651777767e-01,0.000000000000000000e+00,-4.134414707535703504e-01,9.258910040993931778e-01,-1.915313307195678494e-01,-5.078224671502142851e-01
4.183333333333333570e+00,1.644455927463694572e+09,-2.497506546608893319e-01,-3.100811030651777767e-01,0.000000000000000000e+00,-4.134414707535703504e-01,9.335751188896739272e-01,-1.998387805082819657e-01,-4.891234504310918996e-01
4.200000000000000178e+00,1.644455927480823517e+09,-2.576205369265790468e-01,-2.860438082539232263e-01,0.000000000000000000e+00,-3.813917443385642647e-01,9.353812232012644889e-01,-2.078335932326815794e-01,-4.703063474575699399e-01
4.216666666666666785e+00,1.644455927498436689e+09,-2.653466843467745528e-01,-2.860438082539232263e-01,0.000000000000000000e+00,-3.813917443385642647e-01,9.313170900974443445e-01,-2.155179479419332411e-01,-4.518674380509262734e-01
4.233333333333333393e+00,1.644455927513963938e+09,-2.728873400699994289e-01,-2.620065134426695641e-01,0.000000000000000000e+00,-3.493420179235594003e-01,9.214462424768670168e-01,-2.228955776090206231e-01,-4.334991462332689616e-01
4.250000000000000000e+00,1.644455927530969620e+09,-2.802013567621574053e-01,-2.620065134426695641e-01,0.000000000000000000e+00,-3.493420179235594003e-01,9.058880670142638314e-01,-2.299717550197361293e-01,-4.156916095963602009e-01
4.266666666666666607e+00,1.644455927547645092e+09,-2.872485390192365817e-01,-2.139319238201612960e-01,0.000000000000000000e+00,-2.852425650935483947e-01,8.848174315653443145e-01,-2.367498699393909001e-01,-3.977320695476190271e-01
4.283333333333333215e+00,1.644455927567088604e+09,-2.939899789887001069e-01,-1.658573341976530557e-01,0.000000000000000000e+00,-2.211431122635373892e-01,8.584638021275668995e-01,-2.432281396623406367e-01,-3.797103586925040797e-01
4.299999999999999822e+00,1.644455927582420349e+09,-3.003883819409404188e-01,-9.374544976389022344e-02,0.000000000000000000e+00,-1.249939330185202979e-01,8.271098597262590557e-01,-2.494029071981101742e-01,-3.613128509906950447e-01
4.316666666666666430e+00,1.644455927600828886e+09,-3.064083786072737681e-01,-4.567086014138197619e-02,0.000000000000000000e+00,-6.089448018850930622e-02,7.910896219310763477e-01,-2.552719257253706631e-01,-3.430201864336063222e-01
4.333333333333333037e+00,1.644455927618062496e+09,-3.120168212090659865e-01,2.403729481126268882e-03,0.000000000000000000e+00,3.204972641501691987e-03,7.507860780652055865e-01,-2.608375197612516905e-01,-3.249014289386197296e-01
4.349999999999999645e+00,1.644455927633898497e+09,-3.171830602429890900e-01,7.451561391488908948e-02,0.000000000000000000e+00,9.935415188651879059e-02,7.066283515112955493e-01,-2.660997760351409003e-01,-3.066201065742941156e-01
4.366666666666666252e+00,1.644455927650841713e+09,-3.218791992589035700e-01,9.855290872614276554e-02,0.000000000000000000e+00,1.314038783015236689e-01,6.590884068069461366e-01,-2.710631148260552181e-01,-2.890294125244949885e-01
4.383333333333332860e+00,1.644455927669135332e+09,-3.260803250680636145e-01,1.706647931599055701e-01,0.000000000000000000e+00,2.275530575465407879e-01,6.086773234206174221e-01,-2.757327076927768572e-01,-2.713707843814313070e-01
4.400000000000000355e+00,1.644455927684858084e+09,-3.297647110484169808e-01,1.947020879711592600e-01,0.000000000000000000e+00,2.596027839615456800e-01,5.559411621694047012e-01,-2.801143930107303226e-01,-2.544783782278017825e-01
4.416666666666666963e+00,1.644455927703036070e+09,-3.329139914686373714e-01,2.187393827824129222e-01,0.000000000000000000e+00,2.916525103765505444e-01,5.014564541458081948e-01,-2.842210768255953313e-01,-2.383684304641331131e-01
4.433333333333333570e+00,1.644455927720214128e+09,-3.355133050308036213e-01,2.668139724049202743e-01,0.000000000000000000e+00,3.557519632065603843e-01,4.458253457266518893e-01,-2.880625303352360445e-01,-2.226496549856328833e-01
4.450000000000000178e+00,1.644455927738185883e+09,-3.375514061306670310e-01,2.908512672161757684e-01,0.000000000000000000e+00,3.878016896215676357e-01,3.896704367081435527e-01,-2.916486114395808182e-01,-2.077215454825494800e-01
4.466666666666666785e+00,1.644455927753999233e+09,-3.390207426513136002e-01,3.389258568386830928e-01,0.000000000000000000e+00,4.519011424515774755e-01,3.336293518144521353e-01,-2.949890529331093414e-01,-1.931718505114687068e-01
4.483333333333333393e+00,1.644455927772312164e+09,-3.399174994376483738e-01,3.389258568386830928e-01,0.000000000000000000e+00,4.519011424515774755e-01,2.783490887319613472e-01,-2.980966444591026665e-01,-1.797763432259646132e-01
4.500000000000000000e+00,1.644455927789256811e+09,-3.402416069421367872e-01,3.629631516499367549e-01,0.000000000000000000e+00,4.839508688665823399e-01,2.244801883977769752e-01,-3.009869480807277897e-01,-1.670953172702109302e-01
4.516666666666666607e+00,1.644455927804410458e+09,-3.399967148832674368e-01,3.629631516499367549e-01,0.000000000000000000e+00,4.839508688665823399e-01,1.726707754939824091e-01,-3.036748087213511638e-01,-1.554802245105222358e-01
4.533333333333333215e+00,1.644455927821371317e+09,-3.391901311135605557e-01,3.389258568386830928e-01,0.000000000000000000e+00,4.519011424515774755e-01,1.235605189428293782e-01,-3.061807919413466750e-01,-1.452661350275015195e-01
4.549999999999999822e+00,1.644455927838898182e+09,-3.378327262500842032e-01,3.629631516499367549e-01,0.000000000000000000e+00,4.839508688665823399e-01,7.777456364348565854e-02,-3.085209550475996876e-01,-1.355803433330248220e-01
4.566666666666666430e+00,1.644455927855852604e+09,-3.359388049735739790e-01,3.389258568386830928e-01,0.000000000000000000e+00,4.519011424515774755e-01,3.591748571853382865e-02,-3.107101274623015330e-01,-1.271437818757026605e-01
4.583333333333333037e+00,1.644455927871809483e+09,-3.335259452486946663e-01,3.389258568386830928e-01,0.000000000000000000e+00,4.519011424515774755e-01,-1.432675865385500246e-03,-3.127650146044140822e-01,-1.194640083840351474e-01
4.599999999999999645e+00,1.644455927888764381e+09,-3.306148070540618766e-01,3.389258568386830928e-01,0.000000000000000000e+00,4.519011424515774755e-01,-3.373025828467199339e-02,-3.146974272140114492e-01,-1.124450024652042385e-01
4.616666666666666252e+00,1.644455927904757738e+09,-3.272289125327243475e-01,3.629631516499367549e-01,0.000000000000000000e+00,4.839508688665823399e-01,-6.046763173247236139e-02,-3.165141987964366632e-01,-1.055866388841546211e-01
4.633333333333332860e+00,1.644455927924378157e+09,-3.233943997784055058e-01,3.629631516499367549e-01,0.000000000000000000e+00,4.839508688665823399e-01,-8.118062220809585394e-02,-3.182204724883573310e-01,-9.918398970153660676e-02
4.650000000000000355e+00,1.644455927941488504e+09,-3.191397527565652537e-01,3.389258568386830928e-01,0.000000000000000000e+00,4.519011424515774755e-01,-9.545364945582922311e-02,-3.198262111384660988e-01,-9.352038092838030336e-02
4.666666666666666963e+00,1.644455927959240675e+09,-3.144955101190845537e-01,3.629631516499367549e-01,0.000000000000000000e+00,4.839508688665823399e-01,-1.029245309406817133e-01,-3.213360504082171665e-01,-8.767656464680832762e-02
4.683333333333333570e+00,1.644455927974906206e+09,-3.094939559041615107e-01,3.389258568386830928e-01,0.000000000000000000e+00,4.519011424515774755e-01,-1.032889048447689362e-01,-3.227526702614214038e-01,-8.233266226037216917e-02
4.700000000000000178e+00,1.644455927994066477e+09,-3.041687953161447133e-01,3.389258568386830928e-01,0.000000000000000000e+00,4.519011424515774755e-01,-9.630422759435908198e-02,-3.240799984502087949e-01,-7.696164025084602234e-02
4.716666666666666785e+00,1.644455928009865522e+09,-2.985548189510822126e-01,3.389258568386830928e-01,0.000000000000000000e+00,4.519011424515774755e-01,-8.179330436861546871e-02,-3.253165471977875756e-01,-7.143954896209944727e-02
4.733333333333333393e+00,1.644455928027893066e+09,-2.926875589706698921e-01,3.389258568386830928e-01,0.000000000000000000e+00,4.519011424515774755e-01,-5.964731437766510741e-02,-3.264587649893703203e-01,-6.564268879616641517e-02
4.750000000000000000e+00,1.644455928044847965e+09,-2.866029408282508295e-01,3.389258568386830928e-01,0.000000000000000000e+00,4.519011424515774755e-01,-2.982829640695647613e-02,-3.275010504924318333e-01,-5.944877728590947791e-02
4.766666666666666607e+00,1.644455928062376022e+09,-2.803369342141588394e-01,3.629631516499367549e-01,0.000000000000000000e+00,4.839508688665823399e-01,7.628935819504143248e-03,-3.284324659883789965e-01,-5.234082699880498318e-02
4.783333333333333215e+00,1.644455928079420805e+09,-2.739252069130173051e-01,3.870004464611922490e-01,0.000000000000000000e+00,5.160005952815897023e-01,5.261547453187444962e-02,-3.292368637935208509e-01,-4.420949717711200599e-02
4.799999999999999822e+00,1.644455928098064661e+09,-2.674027852519160198e-01,4.110377412724459112e-01,0.000000000000000000e+00,5.480503216965945112e-01,1.049476164814011347e-01,-3.298963143535885711e-01,-3.495029065448018030e-02
4.816666666666666430e+00,1.644455928113440275e+09,-2.608037247655509705e-01,4.350750360836995734e-01,0.000000000000000000e+00,5.801000481115994312e-01,1.643667956942066466e-01,-3.303911966413361490e-01,-2.446471117043416341e-02
4.833333333333333037e+00,1.644455928132295609e+09,-2.541607946125475914e-01,4.591123308949532356e-01,0.000000000000000000e+00,6.121497745266043511e-01,2.305401618087456472e-01,-3.307003076029870203e-01,-1.266139199705495523e-02
4.849999999999999645e+00,1.644455928149215698e+09,-2.475051791469435325e-01,4.831496257062087296e-01,0.000000000000000000e+00,6.441995009416116025e-01,3.030618101070364223e-01,-3.308009900893462696e-01,5.428144195250231979e-04
4.866666666666666252e+00,1.644455928166026592e+09,-2.408661998811850169e-01,5.071869205174623918e-01,0.000000000000000000e+00,6.762492273566165224e-01,3.814546639355604896e-01,-3.306692785371014298e-01,1.522179594149725666e-02
4.883333333333332860e+00,1.644455928181998014e+09,-2.342710608734291100e-01,5.552615101399697162e-01,0.000000000000000000e+00,7.403486801866263622e-01,4.651730047126978462e-01,-3.302767414557682968e-01,3.183650077437522735e-02
4.900000000000000355e+00,1.644455928198221207e+09,-2.277446203342259612e-01,5.792988049512252102e-01,0.000000000000000000e+00,7.723984066016336136e-01,5.536056391823078737e-01,-3.295940530557907588e-01,5.003555310995656813e-02
4.916666666666666963e+00,1.644455928214913368e+09,-2.213091909780520450e-01,6.514106893849862523e-01,0.000000000000000000e+00,8.685475858466483734e-01,6.460796880421496580e-01,-3.285878280878460900e-01,7.065416776579751257e-02
4.933333333333333570e+00,1.644455928232806444e+09,-2.149843713461414008e-01,6.754479841962417463e-01,0.000000000000000000e+00,9.005973122616556248e-01,7.418649745993100009e-01,-3.272242574409218174e-01,9.291247976546576637e-02
4.950000000000000178e+00,1.644455928247818470e+09,-2.087869100016198354e-01,7.715971634412581714e-01,0.000000000000000000e+00,1.028796217921677636e+00,8.401789867287262625e-01,-3.254659299034718956e-01,1.180170880641822490e-01
4.966666666666666785e+00,1.644455928265853167e+09,-2.027306041492152877e-01,8.196717530637656068e-01,0.000000000000000000e+00,1.092895670751687476e+00,9.401923801812738235e-01,-3.232722057026207740e-01,1.451544327507484355e-01
4.983333333333333393e+00,1.644455928282565832e+09,-1.968262338633316177e-01,8.677463426862747076e-01,0.000000000000000000e+00,1.156995123581699536e+00,1.041034986252494798e+00,-3.206093721298744481e-01,1.743046213269816014e-01
5.000000000000000000e+00,1.644455928303748608e+09,-1.910815327237709860e-01,9.158209323087820319e-01,0.000000000000000000e+00,1.221094576411709376e+00,1.141802282024076964e+00,-3.174441702039703661e-01,2.054331396399585175e-01
5.016666666666666607e+00,1.644455928317248821e+09,-1.842706766322928513e-01,9.398582271200357496e-01,0.000000000000000000e+00,1.253144302826714185e+00,1.241562276873934501e+00,-3.137473601825790381e-01,2.380933380184666881e-01
5.033333333333333215e+00,1.644455928335169077e+09,-1.777095621828666261e-01,9.638955219312912437e-01,0.000000000000000000e+00,1.285194029241721658e+00,1.330478127482617623e+00,-3.094951234196366974e-01,2.720806620790894859e-01
5.049999999999999822e+00,1.644455928351602554e+09,-1.713925067923562917e-01,9.638955219312912437e-01,0.000000000000000000e+00,1.285194029241721658e+00,1.415305248814422434e+00,-3.046694092375172858e-01,3.069082940760652911e-01
5.066666666666666430e+00,1.644455928367148399e+09,-1.653112199823990602e-01,9.879328167425448504e-01,0.000000000000000000e+00,1.317243755656726467e+00,1.495168075984101952e+00,-2.992536941953331531e-01,3.428775939126585959e-01
5.083333333333333037e+00,1.644455928384673119e+09,-1.594550356627457699e-01,9.879328167425448504e-01,0.000000000000000000e+00,1.317243755656726467e+00,1.569217671280484616e+00,-2.932332311531292701e-01,3.794763056708385096e-01
5.099999999999999645e+00,1.644455928402352810e+09,-1.538111676310905396e-01,9.879328167425448504e-01,0.000000000000000000e+00,1.317243755656726467e+00,1.636638916056542881e+00,-2.865985323579823829e-01,4.165844690890097568e-01
5.116666666666666252e+00,1.644455928418129683e+09,-1.483649852256109791e-01,1.011970111553798457e+00,0.000000000000000000e+00,1.349293482071731276e+00,1.696657474298803869e+00,-2.793388797342146734e-01,4.544686095627854527e-01
5.133333333333332860e+00,1.644455928433745146e+09,-1.431003058685344220e-01,1.011970111553798457e+00,0.000000000000000000e+00,1.349293482071731276e+00,1.748546471213054065e+00,-2.714458904114577797e-01,4.925842299528094270e-01
5.150000000000000355e+00,1.644455928452696800e+09,-1.379997010756999765e-01,1.036007406365052175e+00,0.000000000000000000e+00,1.381343208486736307e+00,1.791632832294148603e+00,-2.629136341445293956e-01,5.311793109968677706e-01
5.166666666666666963e+00,1.644455928469119310e+09,-1.330448123798816384e-01,1.036007406365052175e+00,0.000000000000000000e+00,1.381343208486736307e+00,1.825303230915798824e+00,-2.537388067264602087e-01,5.696929942001460745e-01
5.183333333333333570e+00,1.644455928486351013e+09,-1.282166735258151169e-01,1.060044701176305892e+00,0.000000000000000000e+00,1.413392934901741116e+00,1.849009595461009958e+00,-2.439208097394245933e-01,6.083592354903990529e-01
5.200000000000000178e+00,1.644455928502639294e+09,-1.234960352433114722e-01,1.060044701176305892e+00,0.000000000000000000e+00,1.413392934901741116e+00,1.862274130393522409e+00,-2.334618838939082619e-01,6.466056235043798894e-01
5.216666666666666785e+00,1.644455928520714521e+09,-1.188636888919436807e-01,1.060044701176305892e+00,0.000000000000000000e+00,1.413392934901741116e+00,1.864693809416752890e+00,-2.223704666510812333e-01,6.842598481047704739e-01
5.233333333333333393e+00,1.644455928536849976e+09,-1.143007852967277693e-01,1.060044701176305892e+00,0.000000000000000000e+00,1.413392934901741116e+00,1.855944302952039937e+00,-2.106578883047365292e-01,7.211470864938982483e-01
5.250000000000000000e+00,1.644455928554324865e+09,-1.097891451585736033e-01,1.084081995987561386e+00,0.000000000000000000e+00,1.445442661316748589e+00,1.835783306558867123e+00,-1.983350821394066765e-01,7.574887020376754876e-01
5.266666666666666607e+00,1.644455928570254087e+09,-1.053115575254085778e-01,1.060044701176305892e+00,0.000000000000000000e+00,1.413392934901741116e+00,1.804053241582735501e+00,-1.854193045193129885e-01,7.923078901302325061e-01
5.283333333333333215e+00,1.644455928588221788e+09,-1.008520629486632791e-01,1.060044701176305892e+00,0.000000000000000000e+00,1.413392934901741116e+00,1.760683304214257117e+00,-1.719340066186994809e-01,8.258347256527950320e-01
5.299999999999999822e+00,1.644455928604183435e+09,-9.639621812378240673e-02,1.084081995987561386e+00,0.000000000000000000e+00,1.445442661316748589e+00,1.705690844237407466e+00,-1.578988344121529663e-01,8.582957674499980261e-01
5.316666666666666430e+00,1.644455928622130632e+09,-9.193133902079289599e-02,1.084081995987561386e+00,0.000000000000000000e+00,1.445442661316748589e+00,1.639182059995872187e+00,-1.433363146040753100e-01,8.891209819083109034e-01
5.333333333333333037e+00,1.644455928638634920e+09,-8.744671974954025540e-02,1.084081995987561386e+00,0.000000000000000000e+00,1.445442661316748589e+00,1.561352001472230855e+00,-1.282750487422125718e-01,9.181502826707780285e-01
5.349999999999999645e+00,1.644455928655557156e+09,-8.293382467153839754e-02,1.084081995987561386e+00,0.000000000000000000e+00,1.445442661316748589e+00,1.472483878813418690e+00,-1.127462452519257252e-01,9.452309104271742202e-01
5.366666666666666252e+00,1.644455928674541235e+09,-7.838645156369647427e-02,1.060044701176305892e+00,0.000000000000000000e+00,1.413392934901741116e+00,1.372947679104146834e+00,-9.678690638823990444e-02,9.698214445681626605e-01
5.383333333333332860e+00,1.644455928689466476e+09,-7.380086395547340306e-02,1.060044701176305892e+00,0.000000000000000000e+00,1.413392934901741116e+00,1.263198099645000960e+00,-8.043628041239324344e-02,9.921915319393377342e-01
5.400000000000000355e+00,1.644455928706421137e+09,-6.917589109697322436e-02,1.084081995987561386e+00,0.000000000000000000e+00,1.445442661316748589e+00,1.143771811390369431e+00,-6.372908459002749049e-02,1.012615232906604268e+00
5.416666666666666963e+00,1.644455928724373817e+09,-6.451299436772964246e-02,1.060044701176305892e+00,0.000000000000000000e+00,1.413392934901741116e+00,1.015284071500422991e+00,-4.670538151720759340e-02,1.030180342711729757e+00
5.433333333333333570e+00,1.644455928740329981e+09,-5.981629930074770091e-02,1.036007406365052175e+00,0.000000000000000000e+00,1.381343208486736307e+00,8.784247091194723467e-01,-2.941357584260722441e-02,1.044795738961871390e+00
5.450000000000000178e+00,1.644455928757319689e+09,-5.509259277007147459e-02,9.879328167425448504e-01,0.000000000000000000e+00,1.317243755656726467e+00,7.339535134687530382e-01,-1.190679343626396824e-02,1.055987062059049686e+00
5.466666666666666785e+00,1.644455928774239063e+09,-5.035128526885754990e-02,9.158209323087820319e-01,0.000000000000000000e+00,1.221094576411709376e+00,5.826950580966916426e-01,5.754113247779253648e-03,1.063301421881764464e+00
5.483333333333333393e+00,1.644455928791227102e+09,-4.560433858476566071e-02,6.994852790074953530e-01,0.000000000000000000e+00,9.326470386766605447e-01,4.255329996241773993e-01,2.348432797552455625e-02,1.064321511797880371e+00
5.500000000000000000e+00,1.644455928808223248e+09,-4.086615955652654619e-02,5.552615101399697162e-01,0.000000000000000000e+00,7.403486801866263622e-01,2.634038935236715506e-01,4.118908969459174341e-02,1.060261173473207252e+00
5.516666666666666607e+00,1.644455928827172756e+09,-3.615346096592240988e-02,3.870004464611922490e-01,0.000000000000000000e+00,5.160005952815897023e-01,9.729057334226554055e-02,5.878055596746115108e-02,1.050741224197062174e+00
5.533333333333333215e+00,1.644455928842132568e+09,-3.148509097930280581e-02,2.668139724049202743e-01,0.000000000000000000e+00,3.557519632065603843e-01,-7.178485670733586455e-02,7.617471832067720938e-02,1.036597547105472472e+00
5.549999999999999822e+00,1.644455928861081362e+09,-2.688183289845443025e-02,1.466274983486501038e-01,0.000000000000000000e+00,1.955033311315334810e-01,-2.427683627389302656e-01,9.329488971116878249e-02,1.017875027975142954e+00
5.566666666666666430e+00,1.644455928878036261e+09,-2.236617730855780875e-02,-4.567086014138197619e-02,0.000000000000000000e+00,-6.089448018850930622e-02,-4.145816000040663529e-01,1.100553138045522461e-01,9.934437295460020190e-01
5.583333333333333037e+00,1.644455928893993616e+09,-1.796206901771321349e-02,-1.658573341976530557e-01,0.000000000000000000e+00,-2.211431122635373892e-01,-5.861297514795800190e-01,1.263716295218672847e-01,9.645942957340664092e-01
5.599999999999999645e+00,1.644455928911945343e+09,-1.369463146494568490e-02,-3.341183978764314388e-01,0.000000000000000000e+00,-4.454911971685752703e-01,-7.563095263592884976e-01,1.421643604230159452e-01,9.306277660956557840e-01
5.616666666666666252e+00,1.644455928928900480e+09,-9.589871528689689062e-03,-4.302675771214479750e-01,0.000000000000000000e+00,-5.736901028285972259e-01,-9.240172572178808608e-01,1.573592299227992153e-01,8.928614826902170343e-01
5.633333333333332860e+00,1.644455928946852207e+09,-5.674367892954763556e-03,-5.023794615552107379e-01,0.000000000000000000e+00,-6.698392820736143172e-01,-1.088157033730614121e+00,1.718972464664407229e-01,8.518145245584783920e-01
5.650000000000000355e+00,1.644455928962403297e+09,-1.974946321219275998e-03,-6.706405252339892042e-01,0.000000000000000000e+00,-8.941873669786521983e-01,-1.247648810435523004e+00,1.857115470817053138e-01,8.060287350153886310e-01
5.666666666666666963e+00,1.644455928979847193e+09,1.481654653406014408e-03,-8.389015889127675596e-01,0.000000000000000000e+00,-1.118535451883690079e+00,-1.401436426115303169e+00,1.987245936363965237e-01,7.556767215435629126e-01
5.683333333333333570e+00,1.644455928996781349e+09,4.669123990723582883e-03,-9.590880629690387016e-01,0.000000000000000000e+00,-1.278784083958718121e+00,-1.548495472955091934e+00,2.108684825270882579e-01,7.017397737208023178e-01
5.700000000000000178e+00,1.644455929013704538e+09,7.561920642630998515e-03,-1.031199947402800632e+00,0.000000000000000000e+00,-1.374933263203734102e+00,-1.687840954696841811e+00,2.220916654886196384e-01,6.451992423909436170e-01
5.716666666666666785e+00,1.644455929030690432e+09,1.013561452610538607e-02,-1.103311831836563339e+00,0.000000000000000000e+00,-1.471082442448751193e+00,-1.818534674549828090e+00,2.323523040564611786e-01,5.862411620499955456e-01
5.733333333333333393e+00,1.644455929048612118e+09,1.236722219932761581e-02,-1.127349126647817057e+00,0.000000000000000000e+00,-1.503132168863756002e+00,-1.939692295621953999e+00,2.416183968771987434e-01,5.258577121914285168e-01
5.750000000000000000e+00,1.644455929064568281e+09,1.423553350152153424e-02,-1.151386421459071663e+00,0.000000000000000000e+00,-1.535181895278762143e+00,-2.050490019089558302e+00,2.498678155791808075e-01,4.642436861469693143e-01
5.766666666666666607e+00,1.644455929080559254e+09,1.572142548718086230e-02,-1.199461011081579986e+00,0.000000000000000000e+00,-1.599281348108773093e+00,-2.150170828207092377e+00,2.570784359577097944e-01,4.012058684469624881e-01
5.783333333333333215e+00,1.644455929097479820e+09,1.680816009371595421e-02,-1.247535600704088088e+00,0.000000000000000000e+00,-1.663380800938784265e+00,-2.238050249549284665e+00,2.632283548202418166e-01,3.369628520802075422e-01
5.799999999999999822e+00,1.644455929118423700e+09,1.748166212714507423e-02,-1.271572895515341806e+00,0.000000000000000000e+00,-1.695430527353789074e+00,-2.313521586551844589e+00,2.683026858389258584e-01,2.721369463604036976e-01
5.816666666666666430e+00,1.644455929136376381e+09,1.773077433193945285e-02,-1.295610190326595523e+00,0.000000000000000000e+00,-1.727480253768793883e+00,-2.376060584443817625e+00,2.722935809213102298e-01,2.069515383651791274e-01
5.833333333333333037e+00,1.644455929154328585e+09,1.754748652673569081e-02,-1.319647485137850129e+00,0.000000000000000000e+00,-1.759529980183800024e+00,-2.425229490013866229e+00,2.751969447012609926e-01,1.416335583326997494e-01
5.849999999999999645e+00,1.644455929170285702e+09,1.692713603529715991e-02,-1.343684779949103625e+00,0.000000000000000000e+00,-1.791579706598805055e+00,-2.460680474290247055e+00,2.770124806818737850e-01,7.641193478143110118e-02
5.866666666666666252e+00,1.644455929187272787e+09,1.586857691937556408e-02,-1.343684779949103625e+00,0.000000000000000000e+00,-1.791579706598805055e+00,-2.482158391103776118e+00,2.777470315059002437e-01,1.191333110652331717e-02
5.883333333333332860e+00,1.644455929205192566e+09,1.437431582435235930e-02,-1.391759369571611948e+00,0.000000000000000000e+00,-1.855679159428816005e+00,-2.489502849606386903e+00,2.774078596747545644e-01,-5.243520071529762794e-02
5.900000000000000355e+00,1.644455929221201897e+09,1.245061257662775922e-02,-1.391759369571611948e+00,0.000000000000000000e+00,-1.855679159428816005e+00,-2.482649584095236506e+00,2.760060467410204721e-01,-1.156068703426776645e-01
5.916666666666666963e+00,1.644455929241128922e+09,1.010754402055262513e-02,-1.367722074760358231e+00,0.000000000000000000e+00,-1.823629433013810974e+00,-2.461631109902272740e+00,2.735663210746562268e-01,-1.769896977540239280e-01
5.933333333333333570e+00,1.644455929256497860e+09,7.359029948689192746e-03,-1.391759369571611948e+00,0.000000000000000000e+00,-1.855679159428816005e+00,-2.426576659609468223e+00,2.701135482065322169e-01,-2.371758587055845524e-01
5.950000000000000178e+00,1.644455929273425579e+09,4.222820358810781827e-03,-1.415796664382866554e+00,0.000000000000000000e+00,-1.887728885843822146e+00,-2.377711399397595571e+00,2.656694148494335161e-01,-2.959568597448268834e-01
5.966666666666666785e+00,1.644455929291105509e+09,7.204436604322170257e-04,-1.415796664382866554e+00,0.000000000000000000e+00,-1.887728885843822146e+00,-2.315354930887823404e+00,2.602623297094190380e-01,-3.527356345259905490e-01
5.983333333333333393e+00,1.644455929308061600e+09,-3.122884151001210917e-03,-1.415796664382866554e+00,0.000000000000000000e+00,-1.887728885843822146e+00,-2.239919089347443659e+00,2.539271932051627712e-01,-4.073290939172394265e-01
6.000000000000000000e+00,1.644455929326511621e+09,-7.278388936881208249e-03,-1.415796664382866554e+00,0.000000000000000000e+00,-1.887728885843822146e+00,-2.151905054559908326e+00,2.467018627293053601e-01,-4.595654587570949245e-01
6.016666666666666607e+00,1.644455929343529701e+09,-1.171390566451043641e-02,-1.439833959194120272e+00,0.000000000000000000e+00,-1.919778612258826955e+00,-2.051899795963546325e+00,2.386236338186236428e-01,-5.096827924323743542e-01
6.033333333333333215e+00,1.644455929358521700e+09,-1.639408226262560608e-02,-1.415796664382866554e+00,0.000000000000000000e+00,-1.887728885843822146e+00,-1.940571878799973060e+00,2.297357349551095718e-01,-5.567343692885742268e-01
6.049999999999999822e+00,1.644455929375088215e+09,-2.128061850415625261e-02,-1.415796664382866554e+00,0.000000000000000000e+00,-1.887728885843822146e+00,-1.818666662943555945e+00,2.200869795405062113e-01,-6.009933359960779597e-01
6.066666666666666430e+00,1.644455929391737700e+09,-2.633253797149706296e-02,-1.415796664382866554e+00,0.000000000000000000e+00,-1.887728885843822146e+00,-1.687000930767269313e+00,2.097248734879689769e-01,-6.423445231960429602e-01
6.083333333333333037e+00,1.644455929434737206e+09,-3.150649081148522435e-02,-1.391759369571611948e+00,0.000000000000000000e+00,-1.855679159428816005e+00,-1.546456984802505819e+00,1.987020244718053774e-01,-6.802919467527812625e-01
6.099999999999999645e+00,1.644455929436675549e+09,-3.675708466020102122e-02,-1.391759369571611948e+00,0.000000000000000000e+00,-1.855679159428816005e+00,-1.397976260035507234e+00,1.870724679452315520e-01,-7.151579840529926901e-01
6.116666666666666252e+00,1.644455929453873634e+09,-4.203724081503130983e-02,-1.127349126647817057e+00,0.000000000000000000e+00,-1.503132168863756002e+00,-1.242552499419259160e+00,1.749246141935106025e-01,-7.425084907357230035e-01
6.133333333333332860e+00,1.644455929472051144e+09,-4.729857245618995787e-02,-1.007162652591546914e+00,0.000000000000000000e+00,-1.342883536788729293e+00,-1.081224544538631038e+00,1.623635792427666480e-01,-7.647539090704820186e-01
6.150000000000000355e+00,1.644455929487801313e+09,-5.249178147495162094e-02,-9.110134733465303780e-01,0.000000000000000000e+00,-1.214684631128707171e+00,-9.150687963198268493e-01,1.494710895555208252e-01,-7.822961238776754422e-01
6.166666666666666963e+00,1.644455929505017996e+09,-5.756707025381400944e-02,-8.629388837240221655e-01,0.000000000000000000e+00,-1.150585178298696221e+00,-7.451914032029569590e-01,1.363187561975583995e-01,-7.959459619684959852e-01
6.183333333333333570e+00,1.644455929522681952e+09,-6.247456456680389875e-02,-8.869761785352758832e-01,0.000000000000000000e+00,-1.182634904713701030e+00,-5.727202362751830922e-01,1.229613126210112456e-01,-8.069167919721231819e-01
6.200000000000000178e+00,1.644455929538341284e+09,-6.716474362814454924e-02,-8.869761785352758832e-01,0.000000000000000000e+00,-1.182634904713701030e+00,-3.987967124791519935e-01,1.094465595781407424e-01,-8.148315871128264387e-01
6.216666666666666785e+00,1.644455929554530621e+09,-7.158887321600747311e-02,-8.869761785352758832e-01,0.000000000000000000e+00,-1.182634904713701030e+00,-2.245675281514213084e-01,9.582505110025396622e-02,-8.197358070797179375e-01
6.233333333333333393e+00,1.644455929571851254e+09,-7.569943773620647909e-02,-8.869761785352758832e-01,0.000000000000000000e+00,-1.182634904713701030e+00,-5.117636580157197690e-02,8.214643187008884018e-02,-8.216930635885002498e-01
6.250000000000000000e+00,1.644455929588689089e+09,-7.945056706926580115e-02,-8.869761785352758832e-01,0.000000000000000000e+00,-1.182634904713701030e+00,1.202443627911405910e-01,6.845913875192351228e-02,-8.207846340660704954e-01
6.266666666666666607e+00,1.644455929605360270e+09,-8.279845406359701010e-02,-8.869761785352758832e-01,0.000000000000000000e+00,-1.182634904713701030e+00,2.885816744114998444e-01,5.481011148653623655e-02,-8.171088485360794573e-01
6.283333333333333215e+00,1.644455929622749567e+09,-8.570175859758952241e-02,-8.629388837240221655e-01,0.000000000000000000e+00,-1.150585178298696221e+00,4.527500112332458193e-01,4.124783466773430940e-02,-8.103830529254570925e-01
6.299999999999999822e+00,1.644455929640206337e+09,-8.812199423375695340e-02,-8.389015889127675596e-01,0.000000000000000000e+00,-1.118535451883690079e+00,6.116990159906334767e-01,2.782199963119834363e-02,-8.007439274376233485e-01
6.316666666666666430e+00,1.644455929657267809e+09,-9.002389362785169491e-02,-6.946778200452428109e-01,0.000000000000000000e+00,-9.262370933936571182e-01,7.644210266177924318e-01,1.459649962453544135e-02,-7.863560406547512871e-01
6.333333333333333037e+00,1.644455929674021721e+09,-9.137574903387336855e-02,-5.504540511777180622e-01,0.000000000000000000e+00,-7.339387349036241570e-01,9.099582337005909238e-01,1.648832399399457332e-03,-7.674166370542341298e-01
6.349999999999999645e+00,1.644455929691097736e+09,-9.214972446046856835e-02,-3.341183978764314388e-01,0.000000000000000000e+00,-4.454911971685752703e-01,1.047409446748301942e+00,-1.093692880042718141e-02,-7.429426917065430347e-01
6.366666666666666252e+00,1.644455929709949017e+09,-9.232213628346164214e-02,-1.418200393863984776e-01,0.000000000000000000e+00,-1.890933858485313035e-01,1.175936418374123438e+00,-2.307385870999065225e-02,-7.135704888138507673e-01
6.383333333333332860e+00,1.644455929726619959e+09,-9.187369940075401642e-02,2.644102429237994017e-02,0.000000000000000000e+00,3.525469905650659153e-02,1.294769678949634795e+00,-3.468565519667754504e-02,-6.799385139397969846e-01
6.400000000000000355e+00,1.644455929744722128e+09,-9.078973632702250218e-02,2.427766775936666122e-01,0.000000000000000000e+00,3.237022367915554644e-01,1.403213838140691117e+00,-4.569670528419064737e-02,-6.414942885900445368e-01
6.416666666666666963e+00,1.644455929760477066e+09,-8.906034696353840041e-02,3.389258568386830928e-01,0.000000000000000000e+00,4.519011424515774755e-01,1.500652313911991609e+00,-5.604558979462356122e-02,-6.004857679004337312e-01
6.433333333333333570e+00,1.644455929778313637e+09,-8.668053713982631914e-02,4.350750360836995734e-01,0.000000000000000000e+00,5.801000481115994312e-01,1.586551454070125988e+00,-6.569151847285652213e-02,-5.571460643863036521e-01
6.450000000000000178e+00,1.644455929792692661e+09,-8.365030440535237144e-02,5.071869205174623918e-01,0.000000000000000000e+00,6.762492273566165224e-01,1.660464020166525057e+00,-7.460093589069272113e-02,-5.121091312904010318e-01
6.466666666666666785e+00,1.644455929809952259e+09,-7.997467994727305851e-02,5.792988049512252102e-01,0.000000000000000000e+00,7.723984066016336136e-01,1.722032008563350036e+00,-8.274749434986411467e-02,-4.656070592726533897e-01
6.483333333333333393e+00,1.644455929829012394e+09,-7.566372592075193415e-02,6.273733945737325346e-01,0.000000000000000000e+00,8.364978594316434535e-01,1.770988788639512368e+00,-9.011203914359802725e-02,-4.182698114253654009e-01
6.500000000000000000e+00,1.644455929844969749e+09,-7.073248789739844389e-02,6.994852790074953530e-01,0.000000000000000000e+00,9.326470386766605447e-01,1.807160543438421030e+00,-9.667921186055516980e-02,-3.699252083343096409e-01
6.516666666666666607e+00,1.644455929861959219e+09,-6.520090256106264581e-02,7.475598686300027884e-01,0.000000000000000000e+00,9.967464915066702735e-01,1.830467003492724398e+00,-1.024374593871644340e-01,-3.211998462723215653e-01
6.533333333333333215e+00,1.644455929880877495e+09,-5.909366120435071562e-02,7.956344582525118891e-01,0.000000000000000000e+00,1.060845944336682445e+00,1.840921470061432030e+00,-1.073822634549490146e-01,-2.723124433993046045e-01
6.549999999999999822e+00,1.644455929898469210e+09,-5.244002999975644341e-02,8.437090478750192135e-01,0.000000000000000000e+00,1.124945397166692285e+00,1.838630129537758506e+00,-1.115127062221181464e-01,-2.234763476752558431e-01
6.566666666666666430e+00,1.644455929913893938e+09,-4.527362843207979881e-02,8.437090478750192135e-01,0.000000000000000000e+00,1.124945397166692285e+00,1.823790666288817253e+00,-1.148380089605307575e-01,-1.756927163674459613e-01
6.583333333333333037e+00,1.644455929932642937e+09,-3.763216767990461287e-02,8.677463426862747076e-01,0.000000000000000000e+00,1.156995123581699536e+00,1.796690186627723396e+00,-1.173739408314319888e-01,-1.287495090079781024e-01
6.599999999999999645e+00,1.644455929949308872e+09,-2.955715111930383790e-02,8.917836374975284253e-01,0.000000000000000000e+00,1.189044849996704567e+00,1.757702471951421597e+00,-1.191360346916841423e-01,-8.282931332357679199e-02
6.616666666666666252e+00,1.644455929967904091e+09,-2.109353948897567388e-02,8.917836374975284253e-01,0.000000000000000000e+00,1.189044849996704567e+00,1.707284584263051297e+00,-1.201460982213416462e-01,-3.850144609790961958e-02
6.633333333333332860e+00,1.644455929984913826e+09,-1.228938359901504337e-02,8.917836374975284253e-01,0.000000000000000000e+00,1.189044849996704567e+00,1.645972852293677402e+00,-1.204319549580566417e-01,4.080352135325461538e-03
6.649999999999999467e+00,1.644455930003031254e+09,-3.195427782202015649e-03,8.917836374975284253e-01,0.000000000000000000e+00,1.189044849996704567e+00,1.574378271207298674e+00,-1.200238851560334052e-01,4.477498081171599892e-02
6.666666666666666963e+00,1.644455930019066095e+09,6.135312426163611749e-03,8.917836374975284253e-01,0.000000000000000000e+00,1.189044849996704567e+00,1.493181353376261011e+00,-1.189544072639609623e-01,8.345491943420671466e-02
6.683333333333333570e+00,1.644455930036513090e+09,1.564799463895339554e-02,9.158209323087820319e-01,0.000000000000000000e+00,1.221094576411709376e+00,1.403126471917838458e+00,-1.172547246026116319e-01,1.204043601766343896e-01
6.700000000000000178e+00,1.644455930052998543e+09,2.528641203751991196e-02,9.158209323087820319e-01,0.000000000000000000e+00,1.221094576411709376e+00,1.305015742552896096e+00,-1.149578725069748814e-01,1.551214526620255940e-01
6.716666666666666785e+00,1.644455930071077585e+09,3.499346971768552833e-02,9.158209323087820319e-01,0.000000000000000000e+00,1.221094576411709376e+00,1.199702492854513913e+00,-1.121017432639817984e-01,1.875240471717541102e-01
6.733333333333333393e+00,1.644455930087877512e+09,4.471167067339038015e-02,9.158209323087820319e-01,0.000000000000000000e+00,1.221094576411709376e+00,1.088084371071184941e+00,-1.087254629923564975e-01,2.175461886231282449e-01
6.750000000000000000e+00,1.644455930104876518e+09,5.438360702615022135e-02,9.398582271200357496e-01,0.000000000000000000e+00,1.253144302826714185e+00,9.710961494109000558e-01,-1.048657987980952944e-01,2.455357640377159867e-01
6.766666666666666607e+00,1.644455930123177290e+09,6.395245204611769985e-02,9.879328167425448504e-01,0.000000000000000000e+00,1.317243755656726467e+00,8.497022789387730368e-01,-1.005536345100350448e-01,2.718508513443443908e-01
6.783333333333333215e+00,1.644455930141335487e+09,7.336244849019626924e-02,9.879328167425448504e-01,0.000000000000000000e+00,1.317243755656726467e+00,7.248892550542195279e-01,-9.582375932365728988e-02,2.956680106879127079e-01
6.799999999999999822e+00,1.644455930156609774e+09,8.255938880468284558e-02,9.879328167425448504e-01,0.000000000000000000e+00,1.317243755656726467e+00,5.976578538600448853e-01,-9.071779438410375318e-02,3.169885569250689983e-01
6.816666666666666430e+00,1.644455930174408674e+09,9.149108280414564032e-02,9.879328167425448504e-01,0.000000000000000000e+00,1.317243755656726467e+00,4.690153006053784379e-01,-8.527719998539334822e-02,3.358304311488239935e-01
6.833333333333333037e+00,1.644455930191148996e+09,1.001078085440748888e-01,9.879328167425448504e-01,0.000000000000000000e+00,1.317243755656726467e+00,3.399674317703439419e-01,-7.954300095472435772e-02,3.522279029267031403e-01
6.849999999999999645e+00,1.644455930207713604e+09,1.083627422514050753e-01,9.879328167425448504e-01,0.000000000000000000e+00,1.317243755656726467e+00,2.115109122605978165e-01,-7.355551803331200622e-02,3.662311488220098554e-01
6.866666666666666252e+00,1.644455930225990295e+09,1.162123633628758673e-01,9.879328167425448504e-01,0.000000000000000000e+00,1.317243755656726467e+00,8.462556859534620113e-02,-6.735410728260066149e-02,3.779057111602633356e-01
6.883333333333332860e+00,1.644455930243143082e+09,1.236168309446661479e-01,9.879328167425448504e-01,0.000000000000000000e+00,1.317243755656726467e+00,-3.973310209153124717e-02,-6.097690947094051850e-02,3.873318419261200796e-01
6.899999999999999467e+00,1.644455930261860371e+09,1.305403280257429466e-01,9.879328167425448504e-01,0.000000000000000000e+00,1.317243755656726467e+00,-1.606411889522826320e-01,-5.446061130702103958e-02,3.946037375587049811e-01
6.916666666666666963e+00,1.644455930277065754e+09,1.369513706693753496e-01,9.879328167425448504e-01,0.000000000000000000e+00,1.317243755656726467e+00,-2.772133339355729031e-01,-4.784022028324294573e-02,3.998286712483763994e-01
6.933333333333333570e+00,1.644455930294529915e+09,1.428230789296429937e-01,9.879328167425448504e-01,0.000000000000000000e+00,1.317243755656726467e+00,-3.886093540480672903e-01,-4.114885477563332006e-02,4.031260301190080497e-01
6.950000000000000178e+00,1.644455930312607050e+09,1.481334071893117554e-01,9.879328167425448504e-01,0.000000000000000000e+00,1.317243755656726467e+00,-4.940404683658392582e-01,-3.441755091781565495e-02,4.046262654008021542e-01
6.966666666666666785e+00,1.644455930329561472e+09,1.528653317489834795e-01,9.879328167425448504e-01,0.000000000000000000e+00,1.317243755656726467e+00,-5.927750820488837391e-01,-2.767508762598808181e-02,4.044697643538689436e-01
6.983333333333333393e+00,1.644455930345884800e+09,1.570069939312695451e-01,9.879328167425448504e-01,0.000000000000000000e+00,1.317243755656726467e+00,-6.841440832407259531e-01,-2.094783100097515408e-02,4.028056532872196782e-01
7.000000000000000000e+00,1.644455930364161015e+09,1.605517973742117688e-01,9.638955219312912437e-01,0.000000000000000000e+00,1.285194029241721658e+00,-7.675456127062251221e-01,-1.426291921657349415e-02,3.993932399899024488e-01
7.016666666666666607e+00,1.644455930382079840e+09,1.634984586113465421e-01,9.879328167425448504e-01,0.000000000000000000e+00,1.317243755656726467e+00,-8.424492703450163766e-01,-7.641435350314388850e-03,3.951964818969354587e-01
7.033333333333333215e+00,1.644455930398072481e+09,1.658510104676285957e-01,9.638955219312912437e-01,0.000000000000000000e+00,1.285194029241721658e+00,-9.083997272782373678e-01,-1.101746947121780978e-03,3.895817234046271005e-01
7.049999999999999822e+00,1.644455930415029764e+09,1.676187582367756335e-01,9.879328167425448504e-01,0.000000000000000000e+00,1.317243755656726467e+00,-9.650197170092793542e-01,5.340637323030101441e-03,3.835212241300296476e-01
7.066666666666666430e+00,1.644455930431907892e+09,1.688161890423248157e-01,9.879328167425448504e-01,0.000000000000000000e+00,1.317243755656726467e+00,-1.012012384163502032e+00,1.167635970048718635e-02,3.767841756288899391e-01
7.083333333333333037e+00,1.644455930449198961e+09,1.694628352176046904e-01,9.879328167425448504e-01,0.000000000000000000e+00,1.317243755656726467e+00,-1.049162974480132293e+00,1.789559720268757079e-02,3.695444354977297508e-01
7.099999999999999645e+00,1.644455930466165066e+09,1.695830929647961782e-01,9.879328167425448504e-01,0.000000000000000000e+00,1.317243755656726467e+00,-1.076339855018715541e+00,2.399141864158748846e-02,3.619751634208936419e-01
7.116666666666666252e+00,1.644455930482893705e+09,1.692059979662366986e-01,9.638955219312912437e-01,0.000000000000000000e+00,1.285194029241721658e+00,-1.093494858911465917e+00,2.995644151665880633e-02,3.538501515961527399e-01
7.133333333333332860e+00,1.644455930500089407e+09,1.683649600181666428e-01,9.879328167425448504e-01,0.000000000000000000e+00,1.317243755656726467e+00,-1.100662954398536453e+00,3.578949974089971897e-02,3.461382577443119501e-01
7.149999999999999467e+00,1.644455930517285109e+09,1.670974591344209781e-01,9.638955219312912437e-01,0.000000000000000000e+00,1.285194029241721658e+00,-1.097961243282864929e+00,4.149214469010423928e-02,3.382011841059145429e-01
7.166666666666666963e+00,1.644455930532670975e+09,1.654447059215869154e-01,9.638955219312912437e-01,0.000000000000000000e+00,1.285194029241721658e+00,-1.085587299291365326e+00,4.706531044655845597e-02,3.305998220601257809e-01
7.183333333333333570e+00,1.644455930551713705e+09,1.634512693544427075e-01,9.879328167425448504e-01,0.000000000000000000e+00,1.317243755656726467e+00,-1.063816862088155402e+00,5.251916372630406615e-02,3.238812346912866569e-01
7.200000000000000178e+00,1.644455930568610907e+09,1.611646753780253682e-01,9.638955219312912437e-01,0.000000000000000000e+00,1.285194029241721658e+00,-1.033000907810968982e+00,5.786290479636991418e-02,3.173857371898928248e-01
7.216666666666666785e+00,1.644455930584256649e+09,1.586349800275696498e-01,9.879328167425448504e-01,0.000000000000000000e+00,1.317243755656726467e+00,-9.935621219529147119e-01,6.310805208403660882e-02,3.120467681487199552e-01
7.233333333333333393e+00,1.644455930601684093e+09,1.559143209873494473e-01,9.879328167425448504e-01,0.000000000000000000e+00,1.317243755656726467e+00,-9.459908051502222692e-01,6.827152454943187510e-02,3.075823292098633921e-01
7.250000000000000000e+00,1.644455930619234800e+09,1.530564517019593063e-01,9.638955219312912437e-01,0.000000000000000000e+00,1.285194029241721658e+00,-8.908402469235053855e-01,7.336550370918096253e-02,3.037059379669107551e-01
7.266666666666666607e+00,1.644455930635018349e+09,1.501162623069912661e-01,9.638955219312912437e-01,0.000000000000000000e+00,1.285194029241721658e+00,-8.287216066213189958e-01,7.840399161490080315e-02,3.009203486496904723e-01
7.283333333333333215e+00,1.644455930653046846e+09,1.471492917589934113e-01,9.879328167425448504e-01,0.000000000000000000e+00,1.317243755656726467e+00,-7.602983446958235803e-01,8.340920847721836062e-02,2.997090396548182656e-01
7.299999999999999822e+00,1.644455930671900272e+09,1.442112356159721276e-01,9.879328167425448504e-01,0.000000000000000000e+00,1.317243755656726467e+00,-6.862802509717118582e-01,8.840462757892890433e-02,2.997411633159549615e-01
7.316666666666666430e+00,1.644455930684938431e+09,1.413574539489403925e-01,9.879328167425448504e-01,0.000000000000000000e+00,1.317243755656726467e+00,-6.074171197226678753e-01,9.341147025309416707e-02,3.010762489254543151e-01
7.333333333333333037e+00,1.644455930702887774e+09,1.386424838518518499e-01,9.879328167425448504e-01,0.000000000000000000e+00,1.317243755656726467e+00,-5.244921241194162587e-01,9.845183359316377059e-02,3.037598971291035066e-01
7.349999999999999645e+00,1.644455930717991114e+09,1.361195609619361424e-01,9.879328167425448504e-01,0.000000000000000000e+00,1.317243755656726467e+00,-4.383149449396091524e-01,1.035484565714534927e-01,3.078235720141960230e-01
7.366666666666666252e+00,1.644455930735045433e+09,1.338401543055131038e-01,9.879328167425448504e-01,0.000000000000000000e+00,1.317243755656726467e+00,-3.497147103117774769e-01,1.087244836963077305e-01,3.132845133298545748e-01
7.383333333333332860e+00,1.644455930752086639e+09,1.318535186468516307e-01,9.879328167425448504e-01,0.000000000000000000e+00,1.317243755656726467e+00,-2.595328046919522791e-01,1.140032282116192897e-01,3.201457690153862168e-01
7.399999999999999467e+00,1.644455930769191742e+09,1.302062683409337118e-01,9.638955219312912437e-01,0.000000000000000000e+00,1.285194029241721658e+00,-1.686156062273084788e-01,1.194046167939612768e-01,3.279990456947772803e-01
7.416666666666666963e+00,1.644455930786245823e+09,1.289419764768413579e-01,9.158209323087820319e-01,0.000000000000000000e+00,1.221094576411709376e+00,-7.780721214322777746e-02,1.249417110368614275e-01,3.364288467879696931e-01
7.433333333333333570e+00,1.644455930802256107e+09,1.281008028490407957e-01,7.715971634412581714e-01,0.000000000000000000e+00,1.028796217921677636e+00,1.205778820930486495e-02,1.306106295760841585e-01,3.438208441095896850e-01
7.450000000000000178e+00,1.644455930820358753e+09,1.277191540115945600e-01,6.514106893849862523e-01,0.000000000000000000e+00,8.685475858466483734e-01,1.001614334852027888e-01,1.363972957879892034e-01,3.505603799455211389e-01
7.466666666666666785e+00,1.644455930835867882e+09,1.278293783580043141e-01,5.312242153287161095e-01,0.000000000000000000e+00,7.082989537716214423e-01,1.857093454486304918e-01,1.422905724336273880e-01,3.566159959795053846e-01
7.483333333333333393e+00,1.644455930854056358e+09,1.284594988301088758e-01,4.591123308949532356e-01,0.000000000000000000e+00,6.121497745266043511e-01,2.679374622594358213e-01,1.482853368675207395e-01,3.627387280981851925e-01
7.500000000000000000e+00,1.644455930872166157e+09,1.296329854965256601e-01,4.110377412724459112e-01,0.000000000000000000e+00,5.480503216965945112e-01,3.461184950295194129e-01,1.543854594788598988e-01,3.692578760918787673e-01
7.516666666666666607e+00,1.644455930890035629e+09,1.313685698580896732e-01,3.870004464611922490e-01,0.000000000000000000e+00,5.160005952815897023e-01,4.195680550506188933e-01,1.606001589755129411e-01,3.764859849537559033e-01
7.533333333333333215e+00,1.644455930905674458e+09,1.336801023383496489e-01,3.389258568386830928e-01,0.000000000000000000e+00,4.519011424515774755e-01,4.876504018317648903e-01,1.669370920845966999e-01,3.839253228225129599e-01
7.549999999999999822e+00,1.644455930922651529e+09,1.365764540053233389e-01,2.668139724049202743e-01,0.000000000000000000e+00,3.557519632065603843e-01,5.497837652203858561e-01,1.733956083947955362e-01,3.910767688060692304e-01
7.566666666666666430e+00,1.644455930939981222e+09,1.400614631503804275e-01,1.947020879711592600e-01,0.000000000000000000e+00,2.596027839615456800e-01,6.054451983910205115e-01,1.799700555655626144e-01,3.978381097413384859e-01
7.583333333333333037e+00,1.644455930957016468e+09,1.441339269254235667e-01,1.706647931599055701e-01,0.000000000000000000e+00,2.275530575465407879e-01,6.541749223414494718e-01,1.866596684027673203e-01,4.048958254958230363e-01
7.599999999999999645e+00,1.644455930973845959e+09,1.487876378145654988e-01,1.466274983486501038e-01,0.000000000000000000e+00,1.955033311315334810e-01,6.955801267066235027e-01,1.934683338849921830e-01,4.121239537645193796e-01
7.616666666666666252e+00,1.644455930989986897e+09,1.540114642953625823e-01,1.225902035373964277e-01,0.000000000000000000e+00,1.634536047165285888e-01,7.293381961527312107e-01,2.003978124572551589e-01,4.193932818537585150e-01
7.633333333333332860e+00,1.644455931008983612e+09,1.597894746314460768e-01,9.855290872614276554e-02,0.000000000000000000e+00,1.314038783015236689e-01,7.551993363113215230e-01,2.074476943648786709e-01,4.265726040300927280e-01
7.649999999999999467e+00,1.644455931024299383e+09,1.661011023370531081e-01,7.451561391488908948e-02,0.000000000000000000e+00,9.935415188651879059e-02,7.729885781188274851e-01,2.146153770463480048e-01,4.335299912158520064e-01
7.666666666666666963e+00,1.644455931040521383e+09,1.729213514683488051e-01,9.855290872614276554e-02,0.000000000000000000e+00,1.314038783015236689e-01,7.826071445008380145e-01,2.219027037874650166e-01,4.409286653618513241e-01
7.683333333333333570e+00,1.644455931057574272e+09,1.802210395302713541e-01,7.451561391488908948e-02,0.000000000000000000e+00,9.935415188651879059e-02,7.840331685423469477e-01,2.293091967757828198e-01,4.478313187478207835e-01
7.700000000000000178e+00,1.644455931075527191e+09,1.879670754443663050e-01,7.451561391488908948e-02,0.000000000000000000e+00,9.935415188651879059e-02,7.773217575732866980e-01,2.368288536058383853e-01,4.545089514425681432e-01
7.716666666666666785e+00,1.644455931092003584e+09,1.961227697060256570e-01,7.451561391488908948e-02,0.000000000000000000e+00,9.935415188651879059e-02,7.626044029304337446e-01,2.444568492278131888e-01,4.608329561013487230e-01
7.733333333333333393e+00,1.644455931107847929e+09,2.046481735716595696e-01,7.451561391488908948e-02,0.000000000000000000e+00,9.935415188651879059e-02,7.400877404897864276e-01,2.521862614401039204e-01,4.666802664624692953e-01
7.750000000000000000e+00,1.644455931125649214e+09,2.135004438603337329e-01,7.451561391488908948e-02,0.000000000000000000e+00,9.935415188651879059e-02,7.100516723546619335e-01,2.600081725949373035e-01,4.719344767454617950e-01
7.766666666666666607e+00,1.644455931142458200e+09,2.226342297327066067e-01,7.451561391488908948e-02,0.000000000000000000e+00,9.935415188651879059e-02,6.728468652921086868e-01,2.679117894604922667e-01,4.764869012000234605e-01
7.783333333333333215e+00,1.644455931160500050e+09,2.320020776246857763e-01,9.855290872614276554e-02,0.000000000000000000e+00,1.314038783015236689e-01,6.288916465913914067e-01,2.758879002102333500e-01,4.806348663722412873e-01
7.799999999999999822e+00,1.644455931178180695e+09,2.415548503658641877e-01,9.855290872614276554e-02,0.000000000000000000e+00,1.314038783015236689e-01,5.786683229335574108e-01,2.839256339233018345e-01,4.838841531868344759e-01
7.816666666666666430e+00,1.644455931194495678e+09,2.512421564047018219e-01,7.451561391488908948e-02,0.000000000000000000e+00,9.935415188651879059e-02,5.227189525696611661e-01,2.920060258253923680e-01,4.857576707261531124e-01
7.833333333333333037e+00,1.644455931211807251e+09,2.610127849946054512e-01,9.855290872614276554e-02,0.000000000000000000e+00,1.314038783015236689e-01,4.616406055710690626e-01,3.001122681200169562e-01,4.869879870031487146e-01
7.849999999999999645e+00,1.644455931227839470e+09,2.708151431679545751e-01,9.855290872614276554e-02,0.000000000000000000e+00,1.314038783015236689e-01,3.960801511004903852e-01,3.082297905113424719e-01,4.871143489422670725e-01
7.866666666666666252e+00,1.644455931245774746e+09,2.805976903389234001e-01,7.451561391488908948e-02,0.000000000000000000e+00,9.935415188651879059e-02,3.267286145260330232e-01,3.163365025698232080e-01,4.856950406911350049e-01
7.883333333333332860e+00,1.644455931263404131e+09,2.903093664303191823e-01,7.451561391488908948e-02,0.000000000000000000e+00,9.935415188651879059e-02,2.543151507283029078e-01,3.244097537425969513e-01,4.831023022624144625e-01
7.899999999999999467e+00,1.644455931278890848e+09,2.999000095139348065e-01,7.451561391488908948e-02,0.000000000000000000e+00,9.935415188651879059e-02,1.796006831075788179e-01,3.324298311190027055e-01,4.793174965030498336e-01
7.916666666666666963e+00,1.644455931295845985e+09,3.093207590870237222e-01,9.855290872614276554e-02,0.000000000000000000e+00,1.314038783015236689e-01,1.033712605559032327e-01,3.403801423559531525e-01,4.747325880874668225e-01
7.933333333333333570e+00,1.644455931312794924e+09,3.185244412779810741e-01,9.855290872614276554e-02,0.000000000000000000e+00,1.314038783015236689e-01,2.643118699720489739e-02,3.482440447211311851e-01,4.689517539843445770e-01
7.950000000000000178e+00,1.644455931329755306e+09,3.274659324803590454e-01,7.451561391488908948e-02,0.000000000000000000e+00,9.935415188651879059e-02,-5.040402000186877673e-02,3.559984657426654708e-01,4.615991928613606410e-01
7.966666666666666785e+00,1.644455931346712112e+09,3.361024981537440448e-01,7.451561391488908948e-02,0.000000000000000000e+00,9.935415188651879059e-02,-1.263147836033405302e-01,3.636208747856817802e-01,4.531134643235368298e-01
7.983333333333333393e+00,1.644455931363845587e+09,3.443941038003511257e-01,7.451561391488908948e-02,0.000000000000000000e+00,9.935415188651879059e-02,-2.004846761249614306e-01,3.710927826902303828e-01,4.435420720488203461e-01
8.000000000000000000e+00,1.644455931383794308e+09,3.523036954245896690e-01,2.403729481126268882e-03,0.000000000000000000e+00,3.204972641501691987e-03,-2.721076220921000988e-01,3.783866366691827077e-01,4.317531531930184352e-01
8.016666666666665719e+00,1.644455931399007559e+09,3.597974471063014601e-01,-6.970815495263654737e-02,0.000000000000000000e+00,-9.294420660351540575e-02,-3.403950364569507947e-01,3.854662449373544297e-01,4.178384917346869010e-01
8.033333333333333215e+00,1.644455931414720774e+09,3.668449736635703284e-01,-1.418200393863984776e-01,0.000000000000000000e+00,-1.890933858485313035e-01,-4.045828389799848712e-01,3.922970383004321659e-01,4.019009837321694256e-01
8.050000000000000711e+00,1.644455931431776047e+09,3.734195067443736860e-01,-1.898946290089067179e-01,0.000000000000000000e+00,-2.531928386785423091e-01,-4.639382866964228413e-01,3.988495695363305504e-01,3.844512372345155748e-01
8.066666666666666430e+00,1.644455931449454784e+09,3.794980330643384914e-01,-2.139319238201612960e-01,0.000000000000000000e+00,-2.852425650935483947e-01,-5.177665677865137539e-01,4.051029269994316784e-01,3.660029049113031618e-01
8.083333333333333925e+00,1.644455931465286732e+09,3.850613938964883576e-01,-2.379692186314149582e-01,0.000000000000000000e+00,-3.172922915085532591e-01,-5.654171020216919308e-01,4.110414587912935569e-01,3.466746011085561352e-01
8.099999999999999645e+00,1.644455931481844187e+09,3.900943453143588258e-01,-2.620065134426695641e-01,0.000000000000000000e+00,-3.493420179235594003e-01,-6.062894952551856065e-01,4.166515564629076906e-01,3.265929032919777653e-01
8.116666666666667140e+00,1.644455931499072075e+09,3.945855790881844238e-01,-3.341183978764314388e-01,0.000000000000000000e+00,-4.454911971685752703e-01,-6.398390981461039573e-01,4.219151388476835018e-01,3.050966959734930373e-01
8.133333333333332860e+00,1.644455931515494585e+09,3.985277045309664756e-01,-4.062302823101942573e-01,0.000000000000000000e+00,-5.416403764135924170e-01,-6.655821224305765726e-01,4.268099044085464366e-01,2.823383903336172951e-01
8.150000000000000355e+00,1.644455931532229424e+09,4.019171919832999484e-01,-4.543048719327025253e-01,0.000000000000000000e+00,-6.057398292436033671e-01,-6.831002715557668026e-01,4.313194485621374419e-01,2.588720937885518047e-01
8.166666666666666075e+00,1.644455931549244404e+09,4.047542790087671483e-01,-5.264167563664644556e-01,0.000000000000000000e+00,-7.018890084886192371e-01,-6.920448463464329292e-01,4.354299333913055903e-01,2.344539155808353925e-01
8.183333333333333570e+00,1.644455931565428972e+09,4.070428407418869021e-01,-5.504540511777180622e-01,0.000000000000000000e+00,-7.339387349036241570e-01,-6.921402905469453692e-01,4.391334880086826264e-01,2.100404552680473214e-01
8.199999999999999289e+00,1.644455931582365990e+09,4.087902261841634410e-01,-5.504540511777180622e-01,0.000000000000000000e+00,-7.339387349036241570e-01,-6.831871455429479045e-01,4.424347602330218621e-01,1.861784964316970103e-01
8.216666666666666785e+00,1.644455931600622654e+09,4.100070625773981070e-01,-5.504540511777180622e-01,0.000000000000000000e+00,-7.339387349036241570e-01,-6.650643882791134054e-01,4.453441320933588243e-01,1.630104839137461736e-01
8.233333333333332504e+00,1.644455931616048813e+09,4.107070302936894901e-01,-5.504540511777180622e-01,0.000000000000000000e+00,-7.339387349036241570e-01,-6.377311313166552642e-01,4.478743456722692473e-01,1.406771839599295082e-01
8.250000000000000000e+00,1.644455931633599281e+09,4.109066109654330723e-01,-5.504540511777180622e-01,0.000000000000000000e+00,-7.339387349036241570e-01,-6.012276690761786391e-01,4.500404641482348422e-01,1.193163701463989534e-01
8.266666666666665719e+00,1.644455931650017023e+09,4.106248118334346886e-01,-5.744913459889726681e-01,0.000000000000000000e+00,-7.659884613186302982e-01,-5.556758595482296226e-01,4.518564910224117659e-01,9.866422317993533975e-02
8.283333333333333215e+00,1.644455931667882681e+09,4.098828695143267864e-01,-5.744913459889726681e-01,0.000000000000000000e+00,-7.659884613186302982e-01,-5.012788360836977208e-01,4.533386812760149542e-01,7.925252989178767360e-02
8.300000000000000711e+00,1.644455931683503151e+09,4.087039365779109867e-01,-5.744913459889726681e-01,0.000000000000000000e+00,-7.659884613186302982e-01,-4.383200492562355777e-01,4.545087203599630366e-01,6.120230088708610017e-02
8.316666666666666430e+00,1.644455931699728966e+09,4.071127544787323527e-01,-5.744913459889726681e-01,0.000000000000000000e+00,-7.659884613186302982e-01,-3.671616441769884887e-01,4.553902438348849668e-01,4.462656090939812886e-02
8.333333333333333925e+00,1.644455931717648506e+09,4.051353165029485948e-01,-5.985286408002263858e-01,0.000000000000000000e+00,-7.980381877336351071e-01,-2.882421839942871378e-01,4.560053747783877065e-01,2.923191621932015941e-02
8.349999999999999645e+00,1.644455931734800816e+09,4.027985244701191569e-01,-6.706405252339892042e-01,0.000000000000000000e+00,-8.941873669786521983e-01,-2.020737355859529849e-01,4.563679961260252438e-01,1.432405719135027879e-02
8.366666666666667140e+00,1.644455931750882387e+09,4.001298429692913272e-01,-7.427524096677511345e-01,0.000000000000000000e+00,-9.903365462236681793e-01,-1.092383386064086359e-01,4.564870745793507267e-01,5.132933455472346584e-06
8.383333333333332860e+00,1.644455931768399715e+09,3.971569549094345342e-01,-7.908269992902593470e-01,0.000000000000000000e+00,-1.054435999053679129e+00,-1.038388404415924171e-02,4.563764957722910021e-01,-1.323780298172513165e-02
8.400000000000000355e+00,1.644455931784733295e+09,3.939074221258421216e-01,-8.148642941015139529e-01,0.000000000000000000e+00,-1.086485725468685271e+00,9.378056676192292329e-02,4.560580976903285677e-01,-2.493746702208919294e-02
8.416666666666666075e+00,1.644455931801880836e+09,3.904083547072697002e-01,-8.389015889127675596e-01,0.000000000000000000e+00,-1.118535451883690079e+00,2.024899871467349399e-01,4.555580161273615758e-01,-3.504424548855610000e-02
8.433333333333333570e+00,1.644455931817621708e+09,3.866860925939482607e-01,-8.148642941015139529e-01,0.000000000000000000e+00,-1.086485725468685271e+00,3.149290744046987500e-01,4.549097343958941053e-01,-4.272821741870223844e-02
8.449999999999999289e+00,1.644455931836722136e+09,3.827659028456837920e-01,-8.389015889127675596e-01,0.000000000000000000e+00,-1.118535451883690079e+00,4.302383795923749865e-01,4.541470543152432704e-01,-4.877659082672460011e-02
8.466666666666666785e+00,1.644455931852188349e+09,3.786716957934870287e-01,-8.869761785352758832e-01,0.000000000000000000e+00,-1.182634904713701030e+00,5.475208304770167178e-01,4.532939624398087397e-01,-5.358108808559436387e-02
8.483333333333332504e+00,1.644455931868886948e+09,3.744257630696233852e-01,-8.869761785352758832e-01,0.000000000000000000e+00,-1.182634904713701030e+00,6.658485970075249671e-01,4.523778026997737345e-01,-5.635038803768853410e-02
8.500000000000000000e+00,1.644455931887213469e+09,3.700485402619108077e-01,-9.110134733465303780e-01,0.000000000000000000e+00,-1.214684631128707171e+00,7.842702458265848886e-01,4.514289068716989539e-01,-5.751387933494619270e-02
8.516666666666665719e+00,1.644455931901832819e+09,3.655583966611468671e-01,-9.110134733465303780e-01,0.000000000000000000e+00,-1.214684631128707171e+00,9.018181279079646728e-01,4.504770159961278275e-01,-5.671524421668450860e-02
8.533333333333333215e+00,1.644455931920531988e+09,3.609714542685449334e-01,-8.869761785352758832e-01,0.000000000000000000e+00,-1.182634904713701030e+00,1.017515941406078595e+00,4.495576256808635485e-01,-5.362019118690683483e-02
8.550000000000000711e+00,1.644455931936378002e+09,3.563014379062322545e-01,-8.869761785352758832e-01,0.000000000000000000e+00,-1.182634904713701030e+00,1.130386410266881470e+00,4.487049818179715821e-01,-4.871071012848809251e-02
8.566666666666666430e+00,1.644455931953482628e+09,3.515595579314660379e-01,-9.110134733465303780e-01,0.000000000000000000e+00,-1.214684631128707171e+00,1.239459018078113761e+00,4.479452296592748017e-01,-4.247686555759828259e-02
8.583333333333333925e+00,1.644455931971442699e+09,3.467544266978773715e-01,-9.110134733465303780e-01,0.000000000000000000e+00,-1.214684631128707171e+00,1.343777736046057214e+00,4.473029224417480187e-01,-3.462182062841270835e-02
8.599999999999999645e+00,1.644455931987385273e+09,3.418920095383887192e-01,-9.350507681577840957e-01,0.000000000000000000e+00,-1.246734357543712202e+00,1.442408683877212106e+00,4.468007506095577619e-01,-2.566368353423200549e-02
8.616666666666667140e+00,1.644455932006165028e+09,3.369756106682872954e-01,-9.590880629690387016e-01,0.000000000000000000e+00,-1.278784083958718121e+00,1.534447662719741645e+00,4.464560361864345350e-01,-1.572964244859704347e-02
8.633333333333332860e+00,1.644455932021795988e+09,3.320058940271817249e-01,-9.831253577802923083e-01,0.000000000000000000e+00,-1.310833810373723152e+00,1.619027500178563894e+00,4.462838791862264731e-01,-4.959116408417774818e-03
8.650000000000000355e+00,1.644455932039829969e+09,3.269809386990492617e-01,-9.831253577802923083e-01,0.000000000000000000e+00,-1.310833810373723152e+00,1.695325148752365951e+00,4.463002815922151867e-01,6.894477701794720845e-03
8.666666666666666075e+00,1.644455932057274818e+09,3.218963281742940885e-01,-1.007162652591546914e+00,0.000000000000000000e+00,-1.342883536788729293e+00,1.762568480842059415e+00,4.465185743151351416e-01,1.926628211638329452e-02
8.683333333333333570e+00,1.644455932073263168e+09,3.167452723504545209e-01,-1.007162652591546914e+00,0.000000000000000000e+00,-1.342883536788729293e+00,1.820042725732617495e+00,4.469492933498815934e-01,3.238356430065466446e-02
8.699999999999999289e+00,1.644455932089202881e+09,3.115187608127977237e-01,-1.007162652591546914e+00,0.000000000000000000e+00,-1.342883536788729293e+00,1.867096496638366077e+00,4.476033210791214856e-01,4.606176730552844628e-02
8.716666666666666785e+00,1.644455932106628895e+09,3.062057455960092156e-01,-1.007162652591546914e+00,0.000000000000000000e+00,-1.342883536788729293e+00,1.903147359003475980e+00,4.484884089813167551e-01,6.010975784353201484e-02
8.733333333333332504e+00,1.644455932122448206e+09,3.007933513072698073e-01,-1.007162652591546914e+00,0.000000000000000000e+00,-1.342883536788729293e+00,1.927686894741420298e+00,4.496090791566033640e-01,7.433115837074327770e-02
8.750000000000000000e+00,1.644455932140583992e+09,2.952671101922362817e-01,-1.055237242214055238e+00,0.000000000000000000e+00,-1.406982989618740243e+00,1.940285220951508682e+00,4.509599084078691478e-01,8.773112876510172353e-02
