2022-02-09-17:20:23.736945,3.0,4.0,402.0
2022-02-09-17:20:23.737942,6.0,8.0,402.0
2022-02-09-17:20:23.737942,9.0,1.0,402.0
2022-02-09-17:20:23.738938,8.0,8.0,403.0
2022-02-09-17:20:23.739951,5.0,16.0,402.0
2022-02-09-17:20:23.740934,5.0,15.0,403.0
2022-02-09-17:20:23.741930,6.0,14.0,402.0
2022-02-09-17:20:23.742928,4.0,9.0,403.0
2022-02-09-17:20:23.743930,7.0,9.0,403.0
2022-02-09-17:20:23.744929,1.0,3.0,403.0
2022-02-09-17:20:23.745930,4.0,10.0,403.0
2022-02-09-17:20:23.746919,7.0,11.0,402.0
2022-02-09-17:20:23.747916,8.0,2.0,403.0
2022-02-09-17:20:23.748912,1.0,12.0,403.0
2022-02-09-17:20:23.750907,1.0,12.0,403.0
2022-02-09-17:20:23.750907,4.0,10.0,403.0
2022-02-09-17:20:23.751904,4.0,10.0,403.0
2022-02-09-17:20:23.752901,6.0,11.0,403.0
2022-02-09-17:20:23.753898,4.0,1.0,402.0
2022-02-09-17:20:23.754896,10.0,12.0,403.0
2022-02-09-17:20:23.755893,7.0,1.0,403.0
2022-02-09-17:20:23.756890,0.0,10.0,403.0
2022-02-09-17:20:23.757888,4.0,8.0,403.0
2022-02-09-17:20:23.758885,8.0,9.0,402.0
2022-02-09-17:20:23.759882,4.0,12.0,402.0
2022-02-09-17:20:23.760880,3.0,13.0,403.0
2022-02-09-17:20:23.761877,7.0,10.0,402.0
2022-02-09-17:20:23.762882,6.0,1.0,402.0
2022-02-09-17:20:23.763873,8.0,11.0,402.0
2022-02-09-17:20:23.764869,3.0,13.0,402.0
2022-02-09-17:20:23.765867,5.0,8.0,402.0
2022-02-09-17:20:23.766864,3.0,10.0,402.0
2022-02-09-17:20:23.767863,6.0,12.0,403.0
2022-02-09-17:20:23.768859,3.0,11.0,403.0
2022-02-09-17:20:23.769856,2.0,2.0,402.0
2022-02-09-17:20:23.770854,4.0,3.0,403.0
2022-02-09-17:20:23.771850,3.0,9.0,403.0
2022-02-09-17:20:23.772848,6.0,2.0,402.0
2022-02-09-17:20:23.773845,5.0,9.0,402.0
2022-02-09-17:20:23.774842,4.0,14.0,402.0
2022-02-09-17:20:23.775840,2.0,6.0,403.0
2022-02-09-17:20:23.776837,6.0,12.0,402.0
2022-02-09-17:20:23.777834,5.0,7.0,403.0
2022-02-09-17:20:23.778832,3.0,5.0,402.0
2022-02-09-17:20:23.779829,6.0,10.0,403.0
2022-02-09-17:20:23.780826,4.0,14.0,403.0
2022-02-09-17:20:23.782823,4.0,14.0,403.0
2022-02-09-17:20:23.782823,9.0,6.0,402.0
2022-02-09-17:20:23.783818,4.0,2.0,403.0
2022-02-09-17:20:23.784816,6.0,16.0,402.0
2022-02-09-17:20:23.785813,4.0,10.0,403.0
2022-02-09-17:20:23.786810,4.0,7.0,403.0
2022-02-09-17:20:23.787808,3.0,4.0,402.0
2022-02-09-17:20:23.788805,1.0,1.0,402.0
2022-02-09-17:20:23.789802,6.0,14.0,403.0
2022-02-09-17:20:23.790800,12.0,9.0,402.0
2022-02-09-17:20:23.791797,4.0,6.0,403.0
2022-02-09-17:20:23.792795,13.0,11.0,402.0
2022-02-09-17:20:23.793795,17.0,10.0,403.0
2022-02-09-17:20:23.794791,11.0,3.0,403.0
2022-02-09-17:20:23.795787,8.0,10.0,403.0
2022-02-09-17:20:23.796785,8.0,10.0,403.0
2022-02-09-17:20:23.797781,3.0,12.0,403.0
2022-02-09-17:20:23.798779,0.0,11.0,403.0
2022-02-09-17:20:23.799776,4.0,8.0,403.0
2022-02-09-17:20:23.800773,5.0,5.0,402.0
2022-02-09-17:20:23.801771,4.0,5.0,403.0
2022-02-09-17:20:23.802768,1.0,13.0,402.0
2022-02-09-17:20:23.803765,8.0,8.0,403.0
2022-02-09-17:20:23.804762,1.0,1.0,403.0
2022-02-09-17:20:23.805795,11.0,14.0,402.0
2022-02-09-17:20:23.806757,5.0,8.0,402.0
2022-02-09-17:20:23.807754,7.0,12.0,403.0
2022-02-09-17:20:23.808752,4.0,12.0,402.0
2022-02-09-17:20:23.809785,2.0,8.0,403.0
2022-02-09-17:20:23.810747,5.0,9.0,403.0
2022-02-09-17:20:23.811803,4.0,9.0,402.0
2022-02-09-17:20:23.812777,6.0,12.0,403.0
2022-02-09-17:20:23.812777,4.0,6.0,403.0
2022-02-09-17:20:23.814775,6.0,9.0,402.0
2022-02-09-17:20:23.815311,5.0,9.0,403.0
2022-02-09-17:20:23.815311,6.0,10.0,402.0
2022-02-09-17:20:23.816311,2.0,10.0,402.0
2022-02-09-17:20:23.817308,8.0,12.0,403.0
2022-02-09-17:20:23.818306,4.0,12.0,403.0
2022-02-09-17:20:23.819303,3.0,3.0,402.0
2022-02-09-17:20:23.820300,5.0,1.0,402.0
2022-02-09-17:20:23.821297,6.0,12.0,402.0
2022-02-09-17:20:23.822295,4.0,10.0,403.0
2022-02-09-17:20:23.823292,4.0,11.0,402.0
2022-02-09-17:20:23.824289,10.0,12.0,402.0
2022-02-09-17:20:23.825286,8.0,12.0,402.0
2022-02-09-17:20:23.826283,15.0,5.0,402.0
2022-02-09-17:20:23.827280,3.0,5.0,402.0
2022-02-09-17:20:23.828278,3.0,12.0,402.0
2022-02-09-17:20:23.829275,6.0,1.0,403.0
2022-02-09-17:20:23.830272,4.0,4.0,403.0
2022-02-09-17:20:23.831270,2.0,8.0,402.0
2022-02-09-17:20:23.832267,6.0,9.0,402.0
2022-02-09-17:20:23.833264,9.0,3.0,402.0
2022-02-09-17:20:23.834261,4.0,4.0,402.0
2022-02-09-17:20:23.835259,5.0,10.0,402.0
2022-02-09-17:20:23.836256,5.0,10.0,402.0
2022-02-09-17:20:23.837253,5.0,10.0,402.0
2022-02-09-17:20:23.838251,5.0,10.0,402.0
2022-02-09-17:20:23.839248,6.0,10.0,402.0
2022-02-09-17:20:23.840245,4.0,0.0,402.0
2022-02-09-17:20:23.841245,7.0,10.0,403.0
2022-02-09-17:20:23.842242,7.0,10.0,403.0
2022-02-09-17:20:23.843239,4.0,1.0,403.0
2022-02-09-17:20:23.844280,7.0,2.0,402.0
2022-02-09-17:20:23.845269,7.0,2.0,402.0
2022-02-09-17:20:23.846264,7.0,2.0,402.0
2022-02-09-17:20:23.848260,9.0,14.0,403.0
2022-02-09-17:20:23.848260,9.0,14.0,403.0
2022-02-09-17:20:23.849254,9.0,14.0,403.0
2022-02-09-17:20:23.850220,9.0,14.0,403.0
2022-02-09-17:20:23.851253,3.0,6.0,402.0
2022-02-09-17:20:23.852247,4.0,5.0,402.0
2022-02-09-17:20:23.853246,4.0,5.0,402.0
2022-02-09-17:20:23.854209,4.0,5.0,402.0
2022-02-09-17:20:23.855238,10.0,4.0,403.0
2022-02-09-17:20:23.856238,11.0,6.0,402.0
2022-02-09-17:20:23.857202,11.0,6.0,402.0
2022-02-09-17:20:23.858208,11.0,6.0,402.0
2022-02-09-17:20:23.859228,7.0,1.0,403.0
2022-02-09-17:20:23.860197,3.0,5.0,402.0
2022-02-09-17:20:23.861191,3.0,5.0,402.0
2022-02-09-17:20:23.862220,3.0,5.0,402.0
2022-02-09-17:20:23.863218,3.0,5.0,402.0
2022-02-09-17:20:23.864217,3.0,7.0,403.0
2022-02-09-17:20:23.865211,3.0,7.0,403.0
2022-02-09-17:20:23.866211,3.0,7.0,403.0
2022-02-09-17:20:23.867206,3.0,7.0,403.0
2022-02-09-17:20:23.868204,6.0,11.0,403.0
2022-02-09-17:20:23.869204,6.0,11.0,403.0
2022-02-09-17:20:23.870198,6.0,11.0,403.0
2022-02-09-17:20:23.871196,6.0,11.0,403.0
2022-02-09-17:20:23.872196,3.0,3.0,402.0
2022-02-09-17:20:23.873178,6.0,11.0,403.0
2022-02-09-17:20:23.874190,6.0,11.0,403.0
2022-02-09-17:20:23.875185,6.0,11.0,403.0
2022-02-09-17:20:23.876182,4.0,11.0,402.0
2022-02-09-17:20:23.877182,5.0,4.0,403.0
2022-02-09-17:20:23.878184,5.0,4.0,403.0
2022-02-09-17:20:23.879175,5.0,4.0,403.0
2022-02-09-17:20:23.880175,6.0,12.0,402.0
2022-02-09-17:20:23.882169,0.0,10.0,403.0
2022-02-09-17:20:23.882169,0.0,10.0,403.0
2022-02-09-17:20:23.883132,7.0,6.0,402.0
2022-02-09-17:20:23.884161,3.0,9.0,403.0
2022-02-09-17:20:23.885160,3.0,9.0,403.0
2022-02-09-17:20:23.886156,3.0,9.0,403.0
2022-02-09-17:20:23.887121,3.0,9.0,403.0
2022-02-09-17:20:23.888153,3.0,9.0,403.0
2022-02-09-17:20:23.889149,5.0,9.0,403.0
2022-02-09-17:20:23.890147,5.0,9.0,403.0
2022-02-09-17:20:23.891111,5.0,9.0,403.0
2022-02-09-17:20:23.892140,4.0,12.0,402.0
2022-02-09-17:20:23.893139,5.0,3.0,403.0
2022-02-09-17:20:23.894103,5.0,3.0,403.0
2022-02-09-17:20:23.895117,5.0,3.0,403.0
2022-02-09-17:20:23.896132,2.0,7.0,402.0
2022-02-09-17:20:23.897129,6.0,8.0,403.0
2022-02-09-17:20:23.898126,6.0,8.0,403.0
2022-02-09-17:20:23.899121,6.0,8.0,403.0
2022-02-09-17:20:23.900120,5.0,8.0,402.0
2022-02-09-17:20:23.901118,5.0,8.0,402.0
2022-02-09-17:20:23.902114,5.0,8.0,402.0
2022-02-09-17:20:23.903111,5.0,8.0,402.0
2022-02-09-17:20:23.904110,4.0,3.0,403.0
2022-02-09-17:20:23.905110,8.0,9.0,403.0
2022-02-09-17:20:23.906105,8.0,9.0,403.0
2022-02-09-17:20:23.907102,8.0,9.0,403.0
2022-02-09-17:20:23.908098,8.0,9.0,403.0
2022-02-09-17:20:23.909096,5.0,10.0,403.0
2022-02-09-17:20:23.910092,7.0,5.0,402.0
2022-02-09-17:20:23.911090,7.0,5.0,402.0
2022-02-09-17:20:23.912090,7.0,5.0,402.0
2022-02-09-17:20:23.913084,5.0,6.0,403.0
2022-02-09-17:20:23.914083,6.0,11.0,403.0
2022-02-09-17:20:23.915082,6.0,11.0,403.0
2022-02-09-17:20:23.917075,6.0,11.0,403.0
2022-02-09-17:20:23.917075,5.0,6.0,402.0
2022-02-09-17:20:23.918039,5.0,6.0,402.0
2022-02-09-17:20:23.919036,5.0,6.0,402.0
2022-02-09-17:20:23.920219,5.0,6.0,402.0
2022-02-09-17:20:23.920599,16.0,4.0,403.0
2022-02-09-17:20:23.920599,20.0,5.0,402.0
2022-02-09-17:20:23.921599,20.0,5.0,402.0
2022-02-09-17:20:23.922596,20.0,5.0,402.0
2022-02-09-17:20:23.923665,20.0,5.0,402.0
2022-02-09-17:20:23.924035,20.0,5.0,402.0
2022-02-09-17:20:23.924035,17.0,11.0,402.0
2022-02-09-17:20:23.925068,12.0,7.0,402.0
2022-02-09-17:20:23.926032,5.0,9.0,403.0
2022-02-09-17:20:23.927029,5.0,9.0,403.0
2022-02-09-17:20:23.928027,5.0,9.0,403.0
2022-02-09-17:20:23.929087,3.0,1.0,403.0
2022-02-09-17:20:23.929087,3.0,8.0,403.0
2022-02-09-17:20:23.930087,3.0,8.0,403.0
2022-02-09-17:20:23.931085,3.0,8.0,403.0
2022-02-09-17:20:23.932082,3.0,8.0,403.0
2022-02-09-17:20:23.933106,5.0,7.0,402.0
2022-02-09-17:20:23.934112,5.0,7.0,402.0
2022-02-09-17:20:23.935077,5.0,7.0,402.0
2022-02-09-17:20:23.936072,5.0,7.0,402.0
2022-02-09-17:20:23.937310,0.0,5.0,403.0
2022-02-09-17:20:23.937310,7.0,6.0,402.0
2022-02-09-17:20:23.938309,7.0,6.0,402.0
2022-02-09-17:20:23.939306,7.0,6.0,402.0
2022-02-09-17:20:23.940373,7.0,6.0,402.0
2022-02-09-17:20:23.940373,5.0,14.0,402.0
2022-02-09-17:20:23.941602,4.0,6.0,403.0
2022-02-09-17:20:23.941602,4.0,6.0,403.0
2022-02-09-17:20:23.942602,4.0,6.0,403.0
2022-02-09-17:20:23.943598,4.0,6.0,403.0
2022-02-09-17:20:23.944597,4.0,6.0,403.0
2022-02-09-17:20:23.945846,6.0,13.0,403.0
2022-02-09-17:20:23.945846,6.0,13.0,403.0
2022-02-09-17:20:23.946845,6.0,13.0,403.0
2022-02-09-17:20:23.947843,6.0,13.0,403.0
2022-02-09-17:20:23.948841,6.0,13.0,403.0
2022-02-09-17:20:23.949870,6.0,5.0,403.0
2022-02-09-17:20:23.951834,6.0,9.0,402.0
2022-02-09-17:20:23.951834,3.0,9.0,402.0
2022-02-09-17:20:23.952829,3.0,3.0,403.0
2022-02-09-17:20:23.953861,4.0,0.0,403.0
2022-02-09-17:20:23.954824,4.0,0.0,403.0
2022-02-09-17:20:23.955821,4.0,0.0,403.0
2022-02-09-17:20:23.956819,4.0,0.0,403.0
2022-02-09-17:20:23.957816,6.0,7.0,402.0
2022-02-09-17:20:23.958813,7.0,11.0,402.0
2022-02-09-17:20:23.959811,7.0,11.0,402.0
2022-02-09-17:20:23.960808,7.0,11.0,402.0
2022-02-09-17:20:23.961805,0.0,10.0,403.0
2022-02-09-17:20:23.962803,0.0,9.0,402.0
2022-02-09-17:20:23.963800,0.0,9.0,402.0
2022-02-09-17:20:23.964797,0.0,9.0,402.0
2022-02-09-17:20:23.965797,4.0,11.0,403.0
2022-02-09-17:20:23.966794,12.0,9.0,403.0
2022-02-09-17:20:23.967823,12.0,9.0,403.0
2022-02-09-17:20:23.968823,12.0,9.0,403.0
2022-02-09-17:20:23.969784,4.0,4.0,402.0
2022-02-09-17:20:23.970781,0.0,2.0,403.0
2022-02-09-17:20:23.971779,0.0,2.0,403.0
2022-02-09-17:20:23.972776,0.0,2.0,403.0
2022-02-09-17:20:23.973806,0.0,2.0,403.0
2022-02-09-17:20:23.974771,6.0,12.0,403.0
2022-02-09-17:20:23.975768,8.0,9.0,403.0
2022-02-09-17:20:23.976765,8.0,9.0,403.0
2022-02-09-17:20:23.977763,8.0,9.0,403.0
2022-02-09-17:20:23.978760,4.0,7.0,403.0
2022-02-09-17:20:23.979757,4.0,12.0,403.0
2022-02-09-17:20:23.980755,4.0,12.0,403.0
2022-02-09-17:20:23.982751,4.0,12.0,403.0
2022-02-09-17:20:23.983749,4.0,10.0,402.0
2022-02-09-17:20:23.983749,4.0,10.0,402.0
2022-02-09-17:20:23.984744,4.0,10.0,402.0
2022-02-09-17:20:23.985741,4.0,10.0,402.0
2022-02-09-17:20:23.986739,5.0,10.0,402.0
2022-02-09-17:20:23.987736,0.0,3.0,403.0
2022-02-09-17:20:23.988733,0.0,3.0,403.0
2022-02-09-17:20:23.989731,0.0,3.0,403.0
2022-02-09-17:20:23.990728,7.0,8.0,402.0
2022-02-09-17:20:23.991725,4.0,6.0,403.0
2022-02-09-17:20:23.992723,4.0,6.0,403.0
2022-02-09-17:20:23.993720,4.0,6.0,403.0
2022-02-09-17:20:23.994717,6.0,12.0,403.0
2022-02-09-17:20:23.995715,4.0,15.0,402.0
2022-02-09-17:20:23.996712,4.0,15.0,402.0
2022-02-09-17:20:23.997709,4.0,15.0,402.0
2022-02-09-17:20:23.998707,4.0,9.0,402.0
2022-02-09-17:20:23.999704,3.0,13.0,403.0
2022-02-09-17:20:24.000734,3.0,13.0,403.0
2022-02-09-17:20:24.001734,3.0,13.0,403.0
2022-02-09-17:20:24.002696,1.0,9.0,403.0
2022-02-09-17:20:24.003693,2.0,3.0,402.0
2022-02-09-17:20:24.004691,2.0,3.0,402.0
2022-02-09-17:20:24.005688,2.0,3.0,402.0
2022-02-09-17:20:24.006685,6.0,10.0,403.0
2022-02-09-17:20:24.007715,7.0,13.0,402.0
2022-02-09-17:20:24.008680,7.0,13.0,402.0
2022-02-09-17:20:24.009677,7.0,13.0,402.0
2022-02-09-17:20:24.010675,9.0,2.0,402.0
2022-02-09-17:20:24.011710,3.0,19.0,403.0
2022-02-09-17:20:24.012702,3.0,19.0,403.0
2022-02-09-17:20:24.013667,3.0,19.0,403.0
2022-02-09-17:20:24.014664,3.0,19.0,403.0
2022-02-09-17:20:24.015661,5.0,4.0,402.0
2022-02-09-17:20:24.016659,5.0,4.0,402.0
2022-02-09-17:20:24.018655,5.0,4.0,402.0
2022-02-09-17:20:24.018655,8.0,6.0,402.0
2022-02-09-17:20:24.019651,4.0,5.0,403.0
2022-02-09-17:20:24.020649,4.0,5.0,403.0
2022-02-09-17:20:24.021646,4.0,5.0,403.0
2022-02-09-17:20:24.022643,4.0,5.0,403.0
2022-02-09-17:20:24.023929,2.0,1.0,402.0
2022-02-09-17:20:24.023929,7.0,12.0,402.0
2022-02-09-17:20:24.024929,7.0,12.0,402.0
2022-02-09-17:20:24.026005,7.0,12.0,402.0
2022-02-09-17:20:24.026005,7.0,12.0,402.0
2022-02-09-17:20:24.027009,5.0,14.0,403.0
2022-02-09-17:20:24.028002,6.0,2.0,402.0
2022-02-09-17:20:24.028999,6.0,2.0,402.0
2022-02-09-17:20:24.029997,6.0,2.0,402.0
2022-02-09-17:20:24.030995,6.0,2.0,402.0
2022-02-09-17:20:24.032016,2.0,7.0,402.0
2022-02-09-17:20:24.033021,3.0,7.0,403.0
2022-02-09-17:20:24.034020,3.0,7.0,403.0
2022-02-09-17:20:24.035022,2.0,6.0,402.0
2022-02-09-17:20:24.036013,2.0,6.0,402.0
2022-02-09-17:20:24.037012,2.0,6.0,402.0
2022-02-09-17:20:24.038007,2.0,6.0,402.0
2022-02-09-17:20:24.039005,2.0,6.0,402.0
2022-02-09-17:20:24.040004,5.0,13.0,403.0
2022-02-09-17:20:24.040999,8.0,16.0,403.0
2022-02-09-17:20:24.041999,8.0,16.0,403.0
2022-02-09-17:20:24.042994,8.0,16.0,403.0
2022-02-09-17:20:24.043991,4.0,15.0,403.0
2022-02-09-17:20:24.044991,8.0,4.0,403.0
2022-02-09-17:20:24.045988,5.0,4.0,402.0
2022-02-09-17:20:24.046984,5.0,4.0,402.0
2022-02-09-17:20:24.047982,4.0,9.0,403.0
2022-02-09-17:20:24.048979,4.0,8.0,403.0
2022-02-09-17:20:24.049980,4.0,8.0,403.0
2022-02-09-17:20:24.050973,4.0,8.0,403.0
2022-02-09-17:20:24.052970,2.0,3.0,403.0
2022-02-09-17:20:24.052970,2.0,3.0,403.0
2022-02-09-17:20:24.053965,2.0,3.0,403.0
2022-02-09-17:20:24.054970,2.0,3.0,403.0
2022-02-09-17:20:24.055961,2.0,9.0,402.0
2022-02-09-17:20:24.056957,3.0,16.0,402.0
2022-02-09-17:20:24.057958,3.0,16.0,402.0
2022-02-09-17:20:24.058953,3.0,16.0,402.0
2022-02-09-17:20:24.059949,7.0,15.0,403.0
2022-02-09-17:20:24.060914,14.0,2.0,402.0
2022-02-09-17:20:24.061911,14.0,2.0,402.0
2022-02-09-17:20:24.062942,14.0,2.0,402.0
2022-02-09-17:20:24.063940,17.0,6.0,402.0
2022-02-09-17:20:24.064936,12.0,5.0,403.0
2022-02-09-17:20:24.065937,12.0,5.0,403.0
2022-02-09-17:20:24.066932,12.0,5.0,403.0
2022-02-09-17:20:24.067930,12.0,5.0,403.0
2022-02-09-17:20:24.068927,0.0,10.0,403.0
2022-02-09-17:20:24.069925,1.0,12.0,403.0
2022-02-09-17:20:24.070921,1.0,12.0,403.0
2022-02-09-17:20:24.071918,1.0,12.0,403.0
2022-02-09-17:20:24.072914,3.0,1.0,402.0
2022-02-09-17:20:24.073915,5.0,3.0,402.0
2022-02-09-17:20:24.074909,5.0,3.0,402.0
2022-02-09-17:20:24.075906,5.0,3.0,402.0
2022-02-09-17:20:24.076905,4.0,3.0,402.0
2022-02-09-17:20:24.077901,2.0,4.0,403.0
2022-02-09-17:20:24.078866,2.0,4.0,403.0
2022-02-09-17:20:24.079897,2.0,4.0,403.0
2022-02-09-17:20:24.080893,3.0,17.0,402.0
2022-02-09-17:20:24.081892,8.0,15.0,402.0
2022-02-09-17:20:24.082887,8.0,15.0,402.0
2022-02-09-17:20:24.083886,8.0,15.0,402.0
2022-02-09-17:20:24.084884,4.0,12.0,402.0
2022-02-09-17:20:24.085880,4.0,12.0,402.0
2022-02-09-17:20:24.087876,4.0,12.0,402.0
2022-02-09-17:20:24.087876,5.0,3.0,403.0
2022-02-09-17:20:24.088871,7.0,7.0,403.0
2022-02-09-17:20:24.089871,7.0,7.0,403.0
2022-02-09-17:20:24.090872,7.0,7.0,403.0
2022-02-09-17:20:24.091863,7.0,7.0,403.0
2022-02-09-17:20:24.092863,8.0,0.0,403.0
2022-02-09-17:20:24.093858,3.0,13.0,403.0
2022-02-09-17:20:24.094855,3.0,13.0,403.0
2022-02-09-17:20:24.095857,3.0,13.0,403.0
2022-02-09-17:20:24.096850,4.0,20.0,403.0
2022-02-09-17:20:24.097816,2.0,15.0,403.0
2022-02-09-17:20:24.098844,2.0,15.0,403.0
2022-02-09-17:20:24.099842,2.0,15.0,403.0
2022-02-09-17:20:24.100841,4.0,11.0,403.0
2022-02-09-17:20:24.101837,3.0,10.0,402.0
2022-02-09-17:20:24.102834,3.0,10.0,402.0
2022-02-09-17:20:24.103834,3.0,10.0,402.0
2022-02-09-17:20:24.104828,4.0,3.0,402.0
2022-02-09-17:20:24.105829,8.0,11.0,402.0
2022-02-09-17:20:24.106824,8.0,11.0,402.0
2022-02-09-17:20:24.107821,8.0,11.0,402.0
2022-02-09-17:20:24.108820,8.0,11.0,402.0
2022-02-09-17:20:24.109816,10.0,13.0,403.0
2022-02-09-17:20:24.110813,3.0,5.0,403.0
2022-02-09-17:20:24.111836,3.0,5.0,403.0
2022-02-09-17:20:24.112831,3.0,5.0,403.0
2022-02-09-17:20:24.113833,2.0,11.0,403.0
2022-02-09-17:20:24.114828,2.0,19.0,403.0
2022-02-09-17:20:24.115823,2.0,19.0,403.0
2022-02-09-17:20:24.116765,2.0,19.0,403.0
2022-02-09-17:20:24.117820,4.0,13.0,403.0
2022-02-09-17:20:24.118815,4.0,16.0,403.0
2022-02-09-17:20:24.120810,4.0,16.0,403.0
2022-02-09-17:20:24.120810,4.0,16.0,403.0
2022-02-09-17:20:24.121752,2.0,3.0,402.0
2022-02-09-17:20:24.122781,10.0,3.0,402.0
2022-02-09-17:20:24.123803,10.0,3.0,402.0
2022-02-09-17:20:24.124799,10.0,3.0,402.0
2022-02-09-17:20:24.125799,6.0,3.0,403.0
2022-02-09-17:20:24.126795,5.0,1.0,402.0
2022-02-09-17:20:24.127770,5.0,1.0,402.0
2022-02-09-17:20:24.128789,5.0,1.0,402.0
2022-02-09-17:20:24.129786,1.0,15.0,403.0
2022-02-09-17:20:24.130785,0.0,13.0,403.0
2022-02-09-17:20:24.131781,0.0,13.0,403.0
2022-02-09-17:20:24.132777,0.0,13.0,403.0
2022-02-09-17:20:24.133778,6.0,13.0,402.0
2022-02-09-17:20:24.134772,4.0,8.0,402.0
2022-02-09-17:20:24.135771,4.0,8.0,402.0
2022-02-09-17:20:24.136767,4.0,8.0,402.0
2022-02-09-17:20:24.137743,4.0,8.0,402.0
2022-02-09-17:20:24.138761,4.0,8.0,402.0
2022-02-09-17:20:24.139759,4.0,8.0,402.0
2022-02-09-17:20:24.140756,4.0,8.0,402.0
2022-02-09-17:20:24.141760,6.0,9.0,403.0
2022-02-09-17:20:24.142751,12.0,0.0,402.0
2022-02-09-17:20:24.143750,12.0,0.0,402.0
2022-02-09-17:20:24.144698,12.0,0.0,402.0
2022-02-09-17:20:24.145744,12.0,0.0,402.0
2022-02-09-17:20:24.146740,3.0,13.0,403.0
2022-02-09-17:20:24.147738,7.0,11.0,402.0
2022-02-09-17:20:24.148735,7.0,11.0,402.0
2022-02-09-17:20:24.149735,7.0,11.0,402.0
2022-02-09-17:20:24.150730,5.0,15.0,403.0
2022-02-09-17:20:24.151729,6.0,9.0,402.0
2022-02-09-17:20:24.152724,6.0,9.0,402.0
2022-02-09-17:20:24.153722,6.0,9.0,402.0
2022-02-09-17:20:24.155716,5.0,5.0,403.0
2022-02-09-17:20:24.155716,5.0,5.0,403.0
2022-02-09-17:20:24.156692,5.0,5.0,403.0
2022-02-09-17:20:24.157714,5.0,5.0,403.0
2022-02-09-17:20:24.158708,8.0,11.0,403.0
2022-02-09-17:20:24.159707,2.0,2.0,403.0
2022-02-09-17:20:24.160703,2.0,2.0,403.0
2022-02-09-17:20:24.161673,2.0,2.0,403.0
2022-02-09-17:20:24.162877,0.0,7.0,402.0
2022-02-09-17:20:24.162877,3.0,11.0,402.0
2022-02-09-17:20:24.163878,3.0,11.0,402.0
2022-02-09-17:20:24.164907,3.0,11.0,402.0
2022-02-09-17:20:24.165872,3.0,11.0,402.0
2022-02-09-17:20:24.167170,9.0,2.0,403.0
2022-02-09-17:20:24.167300,8.0,2.0,402.0
2022-02-09-17:20:24.167300,8.0,2.0,402.0
2022-02-09-17:20:24.168300,8.0,2.0,402.0
2022-02-09-17:20:24.169297,8.0,2.0,402.0
2022-02-09-17:20:24.170296,8.0,2.0,402.0
2022-02-09-17:20:24.171293,4.0,1.0,402.0
2022-02-09-17:20:24.172340,4.0,1.0,402.0
2022-02-09-17:20:24.173333,4.0,1.0,402.0
2022-02-09-17:20:24.174333,4.0,1.0,402.0
2022-02-09-17:20:24.175328,5.0,7.0,403.0
2022-02-09-17:20:24.176325,5.0,3.0,403.0
2022-02-09-17:20:24.177332,5.0,3.0,403.0
2022-02-09-17:20:24.178273,5.0,3.0,403.0
2022-02-09-17:20:24.179270,1.0,4.0,403.0
2022-02-09-17:20:24.180319,0.0,8.0,403.0
2022-02-09-17:20:24.181312,0.0,8.0,403.0
2022-02-09-17:20:24.182313,0.0,8.0,403.0
2022-02-09-17:20:24.183308,10.0,4.0,402.0
2022-02-09-17:20:24.184308,8.0,4.0,402.0
2022-02-09-17:20:24.185302,8.0,4.0,402.0
2022-02-09-17:20:24.186307,8.0,4.0,402.0
2022-02-09-17:20:24.187305,6.0,0.0,402.0
2022-02-09-17:20:24.188248,4.0,5.0,402.0
2022-02-09-17:20:24.190301,4.0,5.0,402.0
2022-02-09-17:20:24.190301,5.0,13.0,402.0
2022-02-09-17:20:24.191238,2.0,15.0,403.0
2022-02-09-17:20:24.192291,2.0,15.0,403.0
2022-02-09-17:20:24.193267,2.0,15.0,403.0
2022-02-09-17:20:24.194265,2.0,15.0,403.0
2022-02-09-17:20:24.195262,3.0,5.0,402.0
2022-02-09-17:20:24.196258,3.0,5.0,402.0
2022-02-09-17:20:24.197257,3.0,5.0,402.0
2022-02-09-17:20:24.198270,3.0,5.0,402.0
2022-02-09-17:20:24.199250,11.0,6.0,402.0
2022-02-09-17:20:24.200249,14.0,1.0,402.0
2022-02-09-17:20:24.201245,14.0,1.0,402.0
2022-02-09-17:20:24.202242,14.0,1.0,402.0
2022-02-09-17:20:24.203248,6.0,5.0,403.0
2022-02-09-17:20:24.204238,0.0,8.0,403.0
2022-02-09-17:20:24.205202,0.0,8.0,403.0
2022-02-09-17:20:24.206200,0.0,8.0,403.0
2022-02-09-17:20:24.207235,4.0,19.0,403.0
2022-02-09-17:20:24.208194,4.0,19.0,403.0
2022-02-09-17:20:24.209231,4.0,19.0,403.0
2022-02-09-17:20:24.210228,4.0,19.0,403.0
2022-02-09-17:20:24.211186,4.0,19.0,403.0
2022-02-09-17:20:24.212216,7.0,18.0,402.0
2022-02-09-17:20:24.213213,3.0,2.0,402.0
2022-02-09-17:20:24.214214,3.0,2.0,402.0
2022-02-09-17:20:24.215208,3.0,2.0,402.0
2022-02-09-17:20:24.216206,0.0,1.0,403.0
2022-02-09-17:20:24.217225,3.0,0.0,403.0
2022-02-09-17:20:24.218200,3.0,0.0,403.0
2022-02-09-17:20:24.219197,3.0,0.0,403.0
2022-02-09-17:20:24.220160,1.0,4.0,403.0
2022-02-09-17:20:24.221159,6.0,4.0,402.0
2022-02-09-17:20:24.223153,6.0,4.0,402.0
2022-02-09-17:20:24.223153,2.0,23.0,403.0
2022-02-09-17:20:24.224151,6.0,19.0,403.0
2022-02-09-17:20:24.225196,6.0,19.0,403.0
2022-02-09-17:20:24.226197,6.0,19.0,403.0
2022-02-09-17:20:24.227297,6.0,19.0,403.0
2022-02-09-17:20:24.227508,7.0,4.0,403.0
2022-02-09-17:20:24.227508,1.0,4.0,402.0
2022-02-09-17:20:24.228507,1.0,4.0,402.0
2022-02-09-17:20:24.229505,1.0,4.0,402.0
2022-02-09-17:20:24.230513,1.0,4.0,402.0
2022-02-09-17:20:24.231499,1.0,4.0,402.0
2022-02-09-17:20:24.232497,2.0,5.0,403.0
2022-02-09-17:20:24.233495,4.0,7.0,403.0
2022-02-09-17:20:24.234492,4.0,7.0,403.0
2022-02-09-17:20:24.235489,4.0,7.0,403.0
2022-02-09-17:20:24.236520,7.0,4.0,402.0
2022-02-09-17:20:24.237516,6.0,3.0,402.0
2022-02-09-17:20:24.238481,6.0,3.0,402.0
2022-02-09-17:20:24.239478,6.0,3.0,402.0
2022-02-09-17:20:24.240475,4.0,15.0,402.0
2022-02-09-17:20:24.241507,4.0,15.0,402.0
2022-02-09-17:20:24.242502,4.0,15.0,402.0
2022-02-09-17:20:24.243494,4.0,15.0,402.0
2022-02-09-17:20:24.244464,4.0,0.0,403.0
2022-02-09-17:20:24.245517,3.0,12.0,402.0
2022-02-09-17:20:24.246513,3.0,12.0,402.0
2022-02-09-17:20:24.247518,3.0,12.0,402.0
2022-02-09-17:20:24.248510,8.0,11.0,403.0
2022-02-09-17:20:24.249507,4.0,15.0,403.0
2022-02-09-17:20:24.250504,4.0,15.0,403.0
2022-02-09-17:20:24.251501,4.0,15.0,403.0
2022-02-09-17:20:24.252499,3.0,13.0,403.0
2022-02-09-17:20:24.253500,4.0,12.0,403.0
2022-02-09-17:20:24.254493,4.0,12.0,403.0
2022-02-09-17:20:24.256488,4.0,12.0,403.0
2022-02-09-17:20:24.256488,7.0,6.0,403.0
2022-02-09-17:20:24.257430,6.0,6.0,403.0
2022-02-09-17:20:24.258483,6.0,6.0,403.0
2022-02-09-17:20:24.259480,6.0,6.0,403.0
2022-02-09-17:20:24.260477,6.0,6.0,403.0
2022-02-09-17:20:24.261420,3.0,16.0,403.0
2022-02-09-17:20:24.262472,3.0,16.0,403.0
2022-02-09-17:20:24.263473,3.0,16.0,403.0
2022-02-09-17:20:24.264468,3.0,16.0,403.0
2022-02-09-17:20:24.265408,5.0,18.0,403.0
2022-02-09-17:20:24.266466,5.0,19.0,403.0
2022-02-09-17:20:24.267459,5.0,19.0,403.0
2022-02-09-17:20:24.268457,5.0,19.0,403.0
2022-02-09-17:20:24.269453,7.0,16.0,402.0
2022-02-09-17:20:24.270451,3.0,14.0,403.0
2022-02-09-17:20:24.271452,3.0,14.0,403.0
2022-02-09-17:20:24.272390,3.0,14.0,403.0
2022-02-09-17:20:24.273443,4.0,1.0,403.0
2022-02-09-17:20:24.274445,4.0,1.0,403.0
2022-02-09-17:20:24.275437,4.0,1.0,403.0
2022-02-09-17:20:24.276436,4.0,1.0,403.0
2022-02-09-17:20:24.277377,4.0,11.0,403.0
2022-02-09-17:20:24.278373,4.0,16.0,403.0
2022-02-09-17:20:24.279429,4.0,16.0,403.0
2022-02-09-17:20:24.280577,4.0,16.0,403.0
2022-02-09-17:20:24.280577,3.0,17.0,402.0
2022-02-09-17:20:24.281577,3.0,17.0,402.0
2022-02-09-17:20:24.282606,6.0,20.0,403.0
2022-02-09-17:20:24.283603,6.0,20.0,403.0
2022-02-09-17:20:24.284569,6.0,20.0,403.0
2022-02-09-17:20:24.285633,4.0,18.0,402.0
2022-02-09-17:20:24.286591,4.0,16.0,403.0
2022-02-09-17:20:24.287561,4.0,16.0,403.0
2022-02-09-17:20:24.288583,4.0,16.0,403.0
2022-02-09-17:20:24.290580,5.0,4.0,403.0
2022-02-09-17:20:24.290580,5.0,4.0,403.0
2022-02-09-17:20:24.291574,5.0,4.0,403.0
2022-02-09-17:20:24.292548,5.0,4.0,403.0
2022-02-09-17:20:24.293577,8.0,1.0,403.0
2022-02-09-17:20:24.294542,3.0,12.0,403.0
2022-02-09-17:20:24.295572,3.0,12.0,403.0
2022-02-09-17:20:24.296538,3.0,12.0,403.0
2022-02-09-17:20:24.297558,2.0,20.0,403.0
2022-02-09-17:20:24.298564,3.0,19.0,402.0
2022-02-09-17:20:24.299561,3.0,19.0,402.0
2022-02-09-17:20:24.300560,3.0,19.0,402.0
2022-02-09-17:20:24.301556,4.0,15.0,402.0
2022-02-09-17:20:24.302553,3.0,18.0,402.0
2022-02-09-17:20:24.303551,3.0,18.0,402.0
2022-02-09-17:20:24.304547,3.0,18.0,402.0
2022-02-09-17:20:24.305544,3.0,16.0,403.0
2022-02-09-17:20:24.306542,4.0,5.0,403.0
2022-02-09-17:20:24.307539,9.0,1.0,402.0
2022-02-09-17:20:24.308539,9.0,1.0,402.0
2022-02-09-17:20:24.309534,9.0,1.0,402.0
2022-02-09-17:20:24.310532,2.0,4.0,403.0
2022-02-09-17:20:24.311498,2.0,14.0,403.0
2022-02-09-17:20:24.312527,2.0,14.0,403.0
2022-02-09-17:20:24.313527,2.0,14.0,403.0
2022-02-09-17:20:24.314521,3.0,14.0,403.0
2022-02-09-17:20:24.315518,4.0,16.0,403.0
2022-02-09-17:20:24.316518,4.0,16.0,403.0
2022-02-09-17:20:24.317520,4.0,16.0,403.0
2022-02-09-17:20:24.318511,4.0,11.0,403.0
2022-02-09-17:20:24.319509,4.0,13.0,402.0
2022-02-09-17:20:24.320506,4.0,13.0,402.0
2022-02-09-17:20:24.321502,4.0,13.0,402.0
2022-02-09-17:20:24.322502,6.0,1.0,403.0
2022-02-09-17:20:24.323497,8.0,3.0,402.0
2022-02-09-17:20:24.325491,8.0,3.0,402.0
2022-02-09-17:20:24.325491,8.0,10.0,402.0
2022-02-09-17:20:24.326488,5.0,11.0,402.0
2022-02-09-17:20:24.327454,5.0,11.0,402.0
2022-02-09-17:20:24.328487,5.0,11.0,402.0
2022-02-09-17:20:24.329449,5.0,11.0,402.0
2022-02-09-17:20:24.330479,6.0,19.0,403.0
2022-02-09-17:20:24.331476,8.0,19.0,402.0
2022-02-09-17:20:24.332475,8.0,19.0,402.0
2022-02-09-17:20:24.333439,8.0,19.0,402.0
2022-02-09-17:20:24.334471,0.0,19.0,403.0
2022-02-09-17:20:24.335465,3.0,14.0,403.0
2022-02-09-17:20:24.336462,3.0,14.0,403.0
2022-02-09-17:20:24.337460,3.0,14.0,403.0
2022-02-09-17:20:24.338457,3.0,5.0,403.0
2022-02-09-17:20:24.339454,8.0,7.0,403.0
2022-02-09-17:20:24.340454,8.0,7.0,403.0
2022-02-09-17:20:24.341450,8.0,7.0,403.0
2022-02-09-17:20:24.342446,6.0,7.0,402.0
2022-02-09-17:20:24.343445,5.0,1.0,403.0
2022-02-09-17:20:24.344410,4.0,4.0,403.0
2022-02-09-17:20:24.345439,4.0,4.0,403.0
2022-02-09-17:20:24.346436,4.0,4.0,403.0
2022-02-09-17:20:24.347433,4.0,11.0,402.0
2022-02-09-17:20:24.348432,4.0,11.0,402.0
2022-02-09-17:20:24.349427,4.0,11.0,402.0
2022-02-09-17:20:24.350424,4.0,11.0,402.0
2022-02-09-17:20:24.351423,2.0,12.0,403.0
2022-02-09-17:20:24.352420,5.0,11.0,402.0
2022-02-09-17:20:24.353417,5.0,11.0,402.0
2022-02-09-17:20:24.354414,5.0,11.0,402.0
2022-02-09-17:20:24.355412,16.0,1.0,403.0
2022-02-09-17:20:24.356411,1.0,11.0,402.0
2022-02-09-17:20:24.357406,1.0,11.0,402.0
2022-02-09-17:20:24.358404,1.0,11.0,402.0
2022-02-09-17:20:24.360398,11.0,12.0,402.0
2022-02-09-17:20:24.360398,17.0,2.0,402.0
2022-02-09-17:20:24.361364,17.0,2.0,402.0
2022-02-09-17:20:24.362393,17.0,2.0,402.0
2022-02-09-17:20:24.363390,9.0,7.0,403.0
2022-02-09-17:20:24.364356,6.0,8.0,402.0
2022-02-09-17:20:24.365353,6.0,8.0,402.0
2022-02-09-17:20:24.366350,6.0,8.0,402.0
2022-02-09-17:20:24.367380,5.0,8.0,403.0
2022-02-09-17:20:24.368377,4.0,7.0,403.0
2022-02-09-17:20:24.369374,4.0,7.0,403.0
2022-02-09-17:20:24.370340,4.0,7.0,403.0
2022-02-09-17:20:24.371369,3.0,4.0,403.0
2022-02-09-17:20:24.372369,3.0,14.0,402.0
2022-02-09-17:20:24.373363,3.0,14.0,402.0
2022-02-09-17:20:24.374335,3.0,14.0,402.0
2022-02-09-17:20:24.375359,3.0,14.0,403.0
2022-02-09-17:20:24.376361,8.0,3.0,402.0
2022-02-09-17:20:24.377353,8.0,3.0,402.0
2022-02-09-17:20:24.378319,8.0,3.0,402.0
2022-02-09-17:20:24.379347,8.0,3.0,402.0
2022-02-09-17:20:24.380348,4.0,8.0,402.0
2022-02-09-17:20:24.381345,4.0,8.0,402.0
2022-02-09-17:20:24.382339,4.0,8.0,402.0
2022-02-09-17:20:24.383338,3.0,6.0,403.0
2022-02-09-17:20:24.384329,3.0,6.0,403.0
2022-02-09-17:20:24.385332,3.0,6.0,403.0
2022-02-09-17:20:24.386330,3.0,6.0,403.0
2022-02-09-17:20:24.387327,3.0,6.0,403.0
2022-02-09-17:20:24.388327,3.0,6.0,403.0
2022-02-09-17:20:24.389321,5.0,4.0,402.0
2022-02-09-17:20:24.390319,5.0,4.0,402.0
2022-02-09-17:20:24.391285,5.0,4.0,402.0
2022-02-09-17:20:24.393280,6.0,7.0,402.0
2022-02-09-17:20:24.393280,6.0,7.0,402.0
2022-02-09-17:20:24.394277,6.0,7.0,402.0
2022-02-09-17:20:24.395275,6.0,7.0,402.0
2022-02-09-17:20:24.396272,1.0,8.0,403.0
2022-02-09-17:20:24.397270,4.0,14.0,402.0
2022-02-09-17:20:24.398267,4.0,14.0,402.0
2022-02-09-17:20:24.399264,4.0,14.0,402.0
2022-02-09-17:20:24.400261,2.0,11.0,403.0
2022-02-09-17:20:24.401258,8.0,9.0,402.0
2022-02-09-17:20:24.402256,8.0,9.0,402.0
2022-02-09-17:20:24.403253,8.0,9.0,402.0
2022-02-09-17:20:24.404250,4.0,10.0,403.0
2022-02-09-17:20:24.405248,6.0,1.0,402.0
2022-02-09-17:20:24.406245,6.0,1.0,402.0
2022-02-09-17:20:24.407242,6.0,1.0,402.0
2022-02-09-17:20:24.408240,8.0,1.0,402.0
2022-02-09-17:20:24.409237,8.0,1.0,402.0
2022-02-09-17:20:24.410234,8.0,1.0,402.0
2022-02-09-17:20:24.411232,8.0,1.0,402.0
2022-02-09-17:20:24.412229,5.0,15.0,402.0
2022-02-09-17:20:24.413227,3.0,12.0,403.0
2022-02-09-17:20:24.414224,3.0,12.0,403.0
2022-02-09-17:20:24.415222,3.0,12.0,403.0
2022-02-09-17:20:24.416218,2.0,15.0,402.0
2022-02-09-17:20:24.417216,5.0,14.0,402.0
2022-02-09-17:20:24.418213,5.0,14.0,402.0
2022-02-09-17:20:24.419210,5.0,14.0,402.0
2022-02-09-17:20:24.420208,4.0,10.0,403.0
2022-02-09-17:20:24.421205,5.0,3.0,403.0
2022-02-09-17:20:24.422204,5.0,3.0,403.0
2022-02-09-17:20:24.423200,5.0,3.0,403.0
2022-02-09-17:20:24.425195,5.0,3.0,403.0
2022-02-09-17:20:24.426192,7.0,9.0,403.0
2022-02-09-17:20:24.426192,7.0,9.0,403.0
2022-02-09-17:20:24.427189,7.0,9.0,403.0
2022-02-09-17:20:24.428186,7.0,9.0,403.0
2022-02-09-17:20:24.429184,1.0,15.0,403.0
2022-02-09-17:20:24.430181,5.0,12.0,402.0
2022-02-09-17:20:24.431178,5.0,12.0,402.0
2022-02-09-17:20:24.432176,5.0,12.0,402.0
2022-02-09-17:20:24.433173,4.0,16.0,402.0
2022-02-09-17:20:24.434171,4.0,9.0,402.0
2022-02-09-17:20:24.435170,4.0,9.0,402.0
2022-02-09-17:20:24.436166,4.0,9.0,402.0
2022-02-09-17:20:24.437163,6.0,8.0,402.0
2022-02-09-17:20:24.438190,1.0,2.0,403.0
2022-02-09-17:20:24.439188,1.0,2.0,403.0
2022-02-09-17:20:24.440184,1.0,2.0,403.0
2022-02-09-17:20:24.441182,9.0,9.0,403.0
2022-02-09-17:20:24.442179,4.0,7.0,402.0
2022-02-09-17:20:24.443178,4.0,5.0,403.0
2022-02-09-17:20:24.444143,4.0,5.0,403.0
2022-02-09-17:20:24.445140,5.0,7.0,403.0
2022-02-09-17:20:24.446169,4.0,19.0,403.0
2022-02-09-17:20:24.447167,4.0,19.0,403.0
2022-02-09-17:20:24.448132,4.0,19.0,403.0
2022-02-09-17:20:24.449160,3.0,16.0,403.0
2022-02-09-17:20:24.450158,4.0,16.0,403.0
2022-02-09-17:20:24.451156,4.0,16.0,403.0
2022-02-09-17:20:24.452156,4.0,16.0,403.0
2022-02-09-17:20:24.453150,3.0,10.0,402.0
2022-02-09-17:20:24.454151,2.0,6.0,402.0
2022-02-09-17:20:24.455145,2.0,6.0,402.0
2022-02-09-17:20:24.456142,2.0,6.0,402.0
2022-02-09-17:20:24.457140,4.0,6.0,403.0
2022-02-09-17:20:24.458137,8.0,6.0,402.0
2022-02-09-17:20:24.460135,7.0,4.0,402.0
2022-02-09-17:20:24.460135,7.0,4.0,402.0
2022-02-09-17:20:24.461097,1.0,8.0,403.0
2022-02-09-17:20:24.462126,1.0,8.0,403.0
2022-02-09-17:20:24.463124,1.0,8.0,403.0
2022-02-09-17:20:24.464125,1.0,8.0,403.0
2022-02-09-17:20:24.465119,1.0,8.0,403.0
2022-02-09-17:20:24.466120,5.0,15.0,402.0
2022-02-09-17:20:24.467113,9.0,11.0,402.0
2022-02-09-17:20:24.468113,9.0,11.0,402.0
2022-02-09-17:20:24.469108,9.0,11.0,402.0
2022-02-09-17:20:24.470110,7.0,9.0,402.0
2022-02-09-17:20:24.471103,3.0,9.0,402.0
2022-02-09-17:20:24.472103,3.0,9.0,402.0
2022-02-09-17:20:24.473097,3.0,9.0,402.0
2022-02-09-17:20:24.474094,4.0,6.0,402.0
2022-02-09-17:20:24.475092,2.0,0.0,403.0
2022-02-09-17:20:24.476091,2.0,0.0,403.0
2022-02-09-17:20:24.477086,2.0,0.0,403.0
2022-02-09-17:20:24.478089,7.0,6.0,403.0
2022-02-09-17:20:24.479050,6.0,4.0,403.0
2022-02-09-17:20:24.480078,6.0,4.0,403.0
2022-02-09-17:20:24.481044,6.0,4.0,403.0
2022-02-09-17:20:24.482041,12.0,10.0,403.0
2022-02-09-17:20:24.483039,5.0,33.0,402.0
2022-02-09-17:20:24.484092,5.0,33.0,402.0
2022-02-09-17:20:24.485033,5.0,33.0,402.0
2022-02-09-17:20:24.486064,0.0,2.0,402.0
2022-02-09-17:20:24.487063,3.0,17.0,403.0
2022-02-09-17:20:24.488025,3.0,17.0,403.0
2022-02-09-17:20:24.489027,3.0,17.0,403.0
2022-02-09-17:20:24.490020,8.0,9.0,403.0
2022-02-09-17:20:24.491042,7.0,11.0,402.0
2022-02-09-17:20:24.492014,7.0,11.0,402.0
2022-02-09-17:20:24.493026,7.0,11.0,402.0
2022-02-09-17:20:24.494009,7.0,11.0,402.0
2022-02-09-17:20:24.496004,3.0,3.0,403.0
2022-02-09-17:20:24.496004,1.0,10.0,403.0
2022-02-09-17:20:24.497016,1.0,10.0,403.0
2022-02-09-17:20:24.497998,1.0,10.0,403.0
2022-02-09-17:20:24.499044,2.0,10.0,402.0
2022-02-09-17:20:24.500028,3.0,12.0,403.0
2022-02-09-17:20:24.501002,3.0,12.0,403.0
2022-02-09-17:20:24.501995,3.0,12.0,403.0
2022-02-09-17:20:24.503009,6.0,11.0,402.0
2022-02-09-17:20:24.504007,5.0,14.0,403.0
2022-02-09-17:20:24.504994,5.0,14.0,403.0
2022-02-09-17:20:24.505978,5.0,14.0,403.0
2022-02-09-17:20:24.506974,3.0,7.0,403.0
2022-02-09-17:20:24.507991,4.0,11.0,403.0
2022-02-09-17:20:24.508987,4.0,11.0,403.0
2022-02-09-17:20:24.509990,4.0,11.0,403.0
2022-02-09-17:20:24.510988,2.0,8.0,403.0
2022-02-09-17:20:24.511961,2.0,8.0,403.0
2022-02-09-17:20:24.512958,2.0,8.0,403.0
2022-02-09-17:20:24.513983,2.0,8.0,403.0
2022-02-09-17:20:24.514999,5.0,12.0,403.0
2022-02-09-17:20:24.516001,5.0,11.0,403.0
2022-02-09-17:20:24.516948,5.0,8.0,403.0
2022-02-09-17:20:24.517945,5.0,8.0,403.0
2022-02-09-17:20:24.518969,4.0,5.0,402.0
2022-02-09-17:20:24.519971,2.0,7.0,403.0
2022-02-09-17:20:24.520941,2.0,7.0,403.0
2022-02-09-17:20:24.521934,2.0,7.0,403.0
2022-02-09-17:20:24.522979,2.0,1.0,403.0
2022-02-09-17:20:24.523979,5.0,11.0,402.0
2022-02-09-17:20:24.524976,5.0,11.0,402.0
2022-02-09-17:20:24.525925,5.0,11.0,402.0
2022-02-09-17:20:24.527919,0.0,16.0,403.0
2022-02-09-17:20:24.527919,0.0,16.0,403.0
2022-02-09-17:20:24.528974,0.0,16.0,403.0
2022-02-09-17:20:24.529949,0.0,16.0,403.0
2022-02-09-17:20:24.530910,3.0,14.0,403.0
2022-02-09-17:20:24.531938,3.0,14.0,403.0
2022-02-09-17:20:24.532962,3.0,14.0,403.0
2022-02-09-17:20:24.533960,3.0,14.0,403.0
2022-02-09-17:20:24.534961,3.0,14.0,403.0
2022-02-09-17:20:24.535955,4.0,14.0,403.0
2022-02-09-17:20:24.536950,5.0,11.0,403.0
2022-02-09-17:20:24.537949,5.0,11.0,403.0
2022-02-09-17:20:24.538945,5.0,11.0,403.0
2022-02-09-17:20:24.539941,4.0,1.0,403.0
2022-02-09-17:20:24.540946,9.0,11.0,403.0
2022-02-09-17:20:24.541935,9.0,11.0,403.0
2022-02-09-17:20:24.542933,4.0,8.0,402.0
2022-02-09-17:20:24.543876,4.0,3.0,402.0
2022-02-09-17:20:24.544874,5.0,9.0,402.0
2022-02-09-17:20:24.545872,5.0,9.0,402.0
2022-02-09-17:20:24.546869,5.0,9.0,402.0
2022-02-09-17:20:24.547866,4.0,11.0,403.0
2022-02-09-17:20:24.548863,4.0,8.0,402.0
2022-02-09-17:20:24.549889,4.0,8.0,402.0
2022-02-09-17:20:24.550898,4.0,8.0,402.0
2022-02-09-17:20:24.551855,6.0,4.0,402.0
2022-02-09-17:20:24.552884,4.0,8.0,403.0
2022-02-09-17:20:24.553849,3.0,8.0,402.0
2022-02-09-17:20:24.554871,3.0,8.0,402.0
2022-02-09-17:20:24.555891,6.0,4.0,403.0
2022-02-09-17:20:24.556890,7.0,12.0,403.0
2022-02-09-17:20:24.557886,7.0,12.0,403.0
2022-02-09-17:20:24.558836,7.0,12.0,403.0
2022-02-09-17:20:24.560830,6.0,3.0,402.0
2022-02-09-17:20:24.560830,3.0,4.0,403.0
2022-02-09-17:20:24.561875,3.0,4.0,403.0
2022-02-09-17:20:24.562825,3.0,4.0,403.0
2022-02-09-17:20:24.563822,5.0,11.0,403.0
2022-02-09-17:20:24.564820,5.0,11.0,403.0
2022-02-09-17:20:24.565817,5.0,11.0,403.0
2022-02-09-17:20:24.566814,5.0,11.0,403.0
2022-02-09-17:20:24.567812,6.0,7.0,403.0
2022-02-09-17:20:24.568809,6.0,7.0,403.0
2022-02-09-17:20:24.569806,6.0,4.0,402.0
2022-02-09-17:20:24.570803,6.0,4.0,402.0
2022-02-09-17:20:24.571801,1.0,1.0,403.0
2022-02-09-17:20:24.572798,3.0,14.0,402.0
2022-02-09-17:20:24.573795,3.0,14.0,402.0
2022-02-09-17:20:24.574793,3.0,14.0,402.0
2022-02-09-17:20:24.575791,3.0,14.0,402.0
2022-02-09-17:20:24.576788,4.0,3.0,402.0
2022-02-09-17:20:24.577785,4.0,3.0,402.0
2022-02-09-17:20:24.578783,4.0,3.0,402.0
2022-02-09-17:20:24.579780,4.0,3.0,402.0
2022-02-09-17:20:24.580777,3.0,7.0,403.0
2022-02-09-17:20:24.581774,6.0,9.0,402.0
2022-02-09-17:20:24.582771,6.0,9.0,402.0
2022-02-09-17:20:24.583802,6.0,9.0,402.0
2022-02-09-17:20:24.584798,3.0,5.0,403.0
2022-02-09-17:20:24.585796,4.0,3.0,403.0
2022-02-09-17:20:24.586793,4.0,3.0,403.0
2022-02-09-17:20:24.587792,4.0,3.0,403.0
2022-02-09-17:20:24.588787,5.0,13.0,402.0
2022-02-09-17:20:24.589785,10.0,16.0,402.0
2022-02-09-17:20:24.590783,10.0,16.0,402.0
2022-02-09-17:20:24.591780,10.0,16.0,402.0
2022-02-09-17:20:24.592777,5.0,15.0,403.0
2022-02-09-17:20:24.593774,10.0,3.0,402.0
2022-02-09-17:20:24.595737,10.0,3.0,402.0
2022-02-09-17:20:24.595737,10.0,3.0,402.0
2022-02-09-17:20:24.596734,3.0,11.0,402.0
2022-02-09-17:20:24.597732,3.0,11.0,402.0
2022-02-09-17:20:24.598729,3.0,11.0,402.0
2022-02-09-17:20:24.599727,3.0,11.0,402.0
2022-02-09-17:20:24.600761,5.0,6.0,402.0
2022-02-09-17:20:24.601753,5.0,6.0,402.0
2022-02-09-17:20:24.602750,5.0,6.0,402.0
2022-02-09-17:20:24.603716,5.0,6.0,402.0
2022-02-09-17:20:24.604745,2.0,7.0,403.0
2022-02-09-17:20:24.605743,4.0,7.0,403.0
2022-02-09-17:20:24.606740,4.0,7.0,403.0
2022-02-09-17:20:24.607737,4.0,7.0,403.0
2022-02-09-17:20:24.608734,5.0,13.0,402.0
2022-02-09-17:20:24.609699,3.0,2.0,403.0
2022-02-09-17:20:24.610696,3.0,2.0,403.0
2022-02-09-17:20:24.611694,3.0,2.0,403.0
2022-02-09-17:20:24.612691,3.0,2.0,403.0
2022-02-09-17:20:24.613688,1.0,10.0,403.0
2022-02-09-17:20:24.614686,6.0,10.0,403.0
2022-02-09-17:20:24.615683,6.0,10.0,403.0
2022-02-09-17:20:24.616680,6.0,10.0,403.0
2022-02-09-17:20:24.617678,3.0,4.0,403.0
2022-02-09-17:20:24.618675,7.0,5.0,403.0
2022-02-09-17:20:24.619672,7.0,5.0,403.0
2022-02-09-17:20:24.620670,7.0,5.0,403.0
2022-02-09-17:20:24.621667,5.0,6.0,403.0
2022-02-09-17:20:24.622664,2.0,10.0,402.0
2022-02-09-17:20:24.623662,2.0,10.0,402.0
2022-02-09-17:20:24.624659,2.0,10.0,402.0
2022-02-09-17:20:24.625658,6.0,16.0,403.0
2022-02-09-17:20:24.626657,7.0,10.0,402.0
2022-02-09-17:20:24.628650,7.0,10.0,402.0
2022-02-09-17:20:24.628650,7.0,10.0,402.0
2022-02-09-17:20:24.629659,4.0,4.0,403.0
2022-02-09-17:20:24.630644,4.0,4.0,403.0
2022-02-09-17:20:24.631646,4.0,4.0,403.0
2022-02-09-17:20:24.632644,4.0,4.0,403.0
2022-02-09-17:20:24.633638,5.0,0.0,402.0
2022-02-09-17:20:24.634635,4.0,4.0,403.0
2022-02-09-17:20:24.635631,10.0,6.0,402.0
2022-02-09-17:20:24.636632,10.0,6.0,402.0
2022-02-09-17:20:24.637626,3.0,1.0,403.0
2022-02-09-17:20:24.638625,5.0,8.0,402.0
2022-02-09-17:20:24.639620,5.0,8.0,402.0
2022-02-09-17:20:24.640617,5.0,8.0,402.0
2022-02-09-17:20:24.641644,9.0,11.0,402.0
2022-02-09-17:20:24.642645,7.0,5.0,402.0
2022-02-09-17:20:24.643646,7.0,5.0,402.0
2022-02-09-17:20:24.644606,7.0,5.0,402.0
2022-02-09-17:20:24.645614,7.0,5.0,402.0
2022-02-09-17:20:24.646601,2.0,8.0,403.0
2022-02-09-17:20:24.647674,4.0,9.0,403.0
2022-02-09-17:20:24.647674,4.0,9.0,403.0
2022-02-09-17:20:24.648675,4.0,9.0,403.0
2022-02-09-17:20:24.649671,4.0,9.0,403.0
2022-02-09-17:20:24.650670,5.0,5.0,402.0
2022-02-09-17:20:24.651667,5.0,5.0,402.0
2022-02-09-17:20:24.652664,5.0,5.0,402.0
2022-02-09-17:20:24.653662,5.0,5.0,402.0
2022-02-09-17:20:24.654659,7.0,7.0,402.0
2022-02-09-17:20:24.655656,10.0,5.0,403.0
2022-02-09-17:20:24.656653,10.0,5.0,403.0
2022-02-09-17:20:24.657651,10.0,5.0,403.0
2022-02-09-17:20:24.658648,4.0,15.0,402.0
2022-02-09-17:20:24.659646,8.0,14.0,402.0
2022-02-09-17:20:24.660643,8.0,14.0,402.0
2022-02-09-17:20:24.662636,8.0,14.0,402.0
2022-02-09-17:20:24.662636,6.0,0.0,402.0
2022-02-09-17:20:24.663634,3.0,8.0,402.0
2022-02-09-17:20:24.664632,3.0,8.0,402.0
2022-02-09-17:20:24.665630,3.0,8.0,402.0
2022-02-09-17:20:24.666627,6.0,4.0,402.0
2022-02-09-17:20:24.667624,6.0,4.0,402.0
2022-02-09-17:20:24.668622,6.0,4.0,402.0
2022-02-09-17:20:24.669619,6.0,4.0,402.0
2022-02-09-17:20:24.670616,3.0,4.0,403.0
2022-02-09-17:20:24.671613,3.0,4.0,403.0
2022-02-09-17:20:24.672611,3.0,4.0,403.0
2022-02-09-17:20:24.673608,3.0,4.0,403.0
2022-02-09-17:20:24.674606,6.0,13.0,402.0
2022-02-09-17:20:24.675603,8.0,16.0,402.0
2022-02-09-17:20:24.676600,8.0,16.0,402.0
2022-02-09-17:20:24.677598,8.0,16.0,402.0
2022-02-09-17:20:24.678594,5.0,21.0,403.0
2022-02-09-17:20:24.679645,5.0,21.0,403.0
2022-02-09-17:20:24.680641,5.0,21.0,403.0
2022-02-09-17:20:24.681587,5.0,21.0,403.0
2022-02-09-17:20:24.682584,3.0,12.0,403.0
2022-02-09-17:20:24.683581,6.0,9.0,402.0
2022-02-09-17:20:24.684579,6.0,9.0,402.0
2022-02-09-17:20:24.685576,6.0,9.0,402.0
2022-02-09-17:20:24.686574,1.0,5.0,403.0
2022-02-09-17:20:24.687571,1.0,5.0,403.0
2022-02-09-17:20:24.688622,1.0,5.0,403.0
2022-02-09-17:20:24.689565,1.0,5.0,403.0
2022-02-09-17:20:24.690563,7.0,11.0,402.0
2022-02-09-17:20:24.691560,7.0,9.0,403.0
2022-02-09-17:20:24.692557,7.0,9.0,403.0
2022-02-09-17:20:24.693555,7.0,9.0,403.0
2022-02-09-17:20:24.694552,7.0,9.0,403.0
2022-02-09-17:20:24.696545,7.0,3.0,402.0
2022-02-09-17:20:24.696545,4.0,15.0,403.0
2022-02-09-17:20:24.697543,4.0,15.0,403.0
2022-02-09-17:20:24.698542,4.0,15.0,403.0
2022-02-09-17:20:24.699539,5.0,12.0,402.0
2022-02-09-17:20:24.700536,5.0,12.0,402.0
2022-02-09-17:20:24.701533,5.0,12.0,402.0
2022-02-09-17:20:24.702531,5.0,12.0,402.0
2022-02-09-17:20:24.703528,2.0,13.0,403.0
2022-02-09-17:20:24.704526,1.0,10.0,403.0
2022-02-09-17:20:24.705523,1.0,10.0,403.0
2022-02-09-17:20:24.706520,1.0,10.0,403.0
2022-02-09-17:20:24.707517,9.0,6.0,402.0
2022-02-09-17:20:24.708515,7.0,6.0,403.0
2022-02-09-17:20:24.709512,7.0,6.0,403.0
2022-02-09-17:20:24.710509,7.0,6.0,403.0
2022-02-09-17:20:24.711507,1.0,1.0,403.0
2022-02-09-17:20:24.712505,0.0,7.0,403.0
2022-02-09-17:20:24.713535,0.0,7.0,403.0
2022-02-09-17:20:24.714499,0.0,7.0,403.0
2022-02-09-17:20:24.715496,7.0,2.0,403.0
2022-02-09-17:20:24.716494,7.0,2.0,403.0
2022-02-09-17:20:24.717491,7.0,2.0,403.0
2022-02-09-17:20:24.718488,7.0,2.0,403.0
2022-02-09-17:20:24.719485,7.0,2.0,403.0
2022-02-09-17:20:24.720483,3.0,10.0,402.0
2022-02-09-17:20:24.721480,3.0,10.0,402.0
2022-02-09-17:20:24.722478,3.0,10.0,402.0
2022-02-09-17:20:24.723475,5.0,1.0,402.0
2022-02-09-17:20:24.724472,5.0,1.0,402.0
2022-02-09-17:20:24.725470,5.0,1.0,402.0
2022-02-09-17:20:24.726467,5.0,1.0,402.0
2022-02-09-17:20:24.727464,8.0,6.0,402.0
2022-02-09-17:20:24.728462,3.0,18.0,403.0
2022-02-09-17:20:24.729500,3.0,18.0,403.0
2022-02-09-17:20:24.730489,3.0,18.0,403.0
2022-02-09-17:20:24.731453,2.0,21.0,403.0
2022-02-09-17:20:24.732450,4.0,16.0,403.0
2022-02-09-17:20:24.734446,3.0,16.0,403.0
2022-02-09-17:20:24.734446,3.0,16.0,403.0
2022-02-09-17:20:24.735443,6.0,18.0,403.0
2022-02-09-17:20:24.736441,4.0,14.0,402.0
2022-02-09-17:20:24.737471,4.0,14.0,402.0
2022-02-09-17:20:24.738435,4.0,14.0,402.0
2022-02-09-17:20:24.739432,4.0,14.0,402.0
2022-02-09-17:20:24.740429,6.0,4.0,403.0
2022-02-09-17:20:24.741427,5.0,9.0,403.0
2022-02-09-17:20:24.742424,5.0,9.0,403.0
2022-02-09-17:20:24.743422,5.0,9.0,403.0
2022-02-09-17:20:24.744419,3.0,4.0,403.0
2022-02-09-17:20:24.745486,5.0,13.0,402.0
2022-02-09-17:20:24.745486,5.0,13.0,402.0
2022-02-09-17:20:24.746486,5.0,13.0,402.0
2022-02-09-17:20:24.747484,5.0,13.0,402.0
2022-02-09-17:20:24.748506,3.0,17.0,402.0
2022-02-09-17:20:24.749494,4.0,12.0,403.0
2022-02-09-17:20:24.750476,4.0,12.0,403.0
2022-02-09-17:20:24.751473,4.0,12.0,403.0
2022-02-09-17:20:24.752470,6.0,10.0,403.0
2022-02-09-17:20:24.753468,3.0,7.0,402.0
2022-02-09-17:20:24.754465,3.0,7.0,402.0
2022-02-09-17:20:24.755462,3.0,7.0,402.0
2022-02-09-17:20:24.756459,4.0,12.0,402.0
2022-02-09-17:20:24.757485,4.0,12.0,402.0
2022-02-09-17:20:24.758480,4.0,12.0,402.0
2022-02-09-17:20:24.759478,4.0,12.0,402.0
2022-02-09-17:20:24.760448,5.0,1.0,403.0
2022-02-09-17:20:24.761446,3.0,14.0,402.0
2022-02-09-17:20:24.762443,3.0,14.0,402.0
2022-02-09-17:20:24.764465,3.0,14.0,402.0
2022-02-09-17:20:24.764465,2.0,9.0,402.0
2022-02-09-17:20:24.765435,2.0,9.0,402.0
2022-02-09-17:20:24.766460,2.0,9.0,402.0
2022-02-09-17:20:24.767430,2.0,9.0,402.0
2022-02-09-17:20:24.768455,2.0,9.0,402.0
2022-02-09-17:20:24.769424,6.0,6.0,402.0
2022-02-09-17:20:24.770609,5.0,6.0,402.0
2022-02-09-17:20:24.770827,5.0,6.0,402.0
2022-02-09-17:20:24.771071,5.0,6.0,402.0
2022-02-09-17:20:24.771280,5.0,6.0,402.0
2022-02-09-17:20:24.771394,5.0,6.0,402.0
2022-02-09-17:20:24.771394,5.0,6.0,402.0
2022-02-09-17:20:24.772432,8.0,4.0,402.0
2022-02-09-17:20:24.773608,6.0,8.0,403.0
2022-02-09-17:20:24.773706,6.0,8.0,403.0
2022-02-09-17:20:24.773706,6.0,8.0,403.0
2022-02-09-17:20:24.774708,6.0,8.0,403.0
2022-02-09-17:20:24.775740,6.0,8.0,403.0
2022-02-09-17:20:24.776701,6.0,5.0,402.0
2022-02-09-17:20:24.777700,5.0,11.0,402.0
2022-02-09-17:20:24.778696,5.0,11.0,402.0
2022-02-09-17:20:24.779693,5.0,11.0,402.0
2022-02-09-17:20:24.780691,3.0,12.0,402.0
2022-02-09-17:20:24.781689,4.0,10.0,403.0
2022-02-09-17:20:24.782686,4.0,10.0,403.0
2022-02-09-17:20:24.783683,4.0,10.0,403.0
2022-02-09-17:20:24.784681,4.0,10.0,403.0
2022-02-09-17:20:24.785678,3.0,7.0,403.0
2022-02-09-17:20:24.786675,5.0,9.0,403.0
2022-02-09-17:20:24.787672,5.0,9.0,403.0
2022-02-09-17:20:24.788669,5.0,9.0,403.0
2022-02-09-17:20:24.789667,3.0,10.0,402.0
2022-02-09-17:20:24.790664,3.0,10.0,402.0
2022-02-09-17:20:24.791661,3.0,10.0,402.0
2022-02-09-17:20:24.792659,3.0,10.0,402.0
2022-02-09-17:20:24.793656,7.0,0.0,403.0
2022-02-09-17:20:24.794653,4.0,6.0,403.0
2022-02-09-17:20:24.795651,4.0,6.0,403.0
2022-02-09-17:20:24.796648,4.0,6.0,403.0
2022-02-09-17:20:24.798643,4.0,15.0,402.0
2022-02-09-17:20:24.798643,4.0,15.0,402.0
2022-02-09-17:20:24.799640,4.0,15.0,402.0
2022-02-09-17:20:24.800637,4.0,15.0,402.0
2022-02-09-17:20:24.801633,6.0,11.0,402.0
2022-02-09-17:20:24.802631,5.0,13.0,403.0
2022-02-09-17:20:24.803630,5.0,13.0,403.0
2022-02-09-17:20:24.804627,5.0,13.0,403.0
2022-02-09-17:20:24.805624,3.0,1.0,402.0
2022-02-09-17:20:24.806622,8.0,7.0,403.0
2022-02-09-17:20:24.807619,8.0,7.0,403.0
2022-02-09-17:20:24.808616,8.0,7.0,403.0
2022-02-09-17:20:24.809613,8.0,6.0,402.0
2022-02-09-17:20:24.810611,4.0,6.0,403.0
2022-02-09-17:20:24.811608,4.0,6.0,403.0
2022-02-09-17:20:24.812607,4.0,6.0,403.0
2022-02-09-17:20:24.813604,1.0,15.0,403.0
2022-02-09-17:20:24.814600,3.0,9.0,403.0
2022-02-09-17:20:24.815597,3.0,9.0,403.0
2022-02-09-17:20:24.816596,3.0,9.0,403.0
2022-02-09-17:20:24.817593,4.0,13.0,403.0
2022-02-09-17:20:24.818589,5.0,13.0,403.0
2022-02-09-17:20:24.819587,5.0,13.0,403.0
2022-02-09-17:20:24.820585,5.0,13.0,403.0
2022-02-09-17:20:24.821581,5.0,13.0,403.0
2022-02-09-17:20:24.822579,6.0,11.0,403.0
2022-02-09-17:20:24.823576,6.0,9.0,402.0
2022-02-09-17:20:24.824605,6.0,9.0,402.0
2022-02-09-17:20:24.825602,6.0,9.0,402.0
2022-02-09-17:20:24.826602,4.0,5.0,403.0
2022-02-09-17:20:24.827565,4.0,7.0,403.0
2022-02-09-17:20:24.828562,4.0,7.0,403.0
2022-02-09-17:20:24.829560,4.0,7.0,403.0
2022-02-09-17:20:24.830583,4.0,12.0,402.0
2022-02-09-17:20:24.831554,5.0,11.0,402.0
2022-02-09-17:20:24.833548,5.0,11.0,402.0
2022-02-09-17:20:24.833548,5.0,11.0,402.0
2022-02-09-17:20:24.834545,3.0,13.0,403.0
2022-02-09-17:20:24.835543,5.0,12.0,403.0
2022-02-09-17:20:24.836540,5.0,12.0,403.0
2022-02-09-17:20:24.837537,5.0,12.0,403.0
2022-02-09-17:20:24.838537,8.0,8.0,402.0
2022-02-09-17:20:24.839534,7.0,3.0,403.0
2022-02-09-17:20:24.840530,9.0,8.0,402.0
2022-02-09-17:20:24.841528,9.0,8.0,402.0
2022-02-09-17:20:24.842526,5.0,1.0,402.0
2022-02-09-17:20:24.843521,5.0,1.0,402.0
2022-02-09-17:20:24.844518,5.0,1.0,402.0
2022-02-09-17:20:24.845516,5.0,1.0,402.0
2022-02-09-17:20:24.846514,2.0,7.0,403.0
2022-02-09-17:20:24.847513,7.0,15.0,403.0
2022-02-09-17:20:24.848509,7.0,15.0,403.0
2022-02-09-17:20:24.849505,7.0,15.0,403.0
2022-02-09-17:20:24.850503,10.0,13.0,403.0
2022-02-09-17:20:24.851500,4.0,18.0,403.0
2022-02-09-17:20:24.853495,1.0,9.0,402.0
2022-02-09-17:20:24.853495,4.0,6.0,402.0
2022-02-09-17:20:24.854493,2.0,0.0,402.0
2022-02-09-17:20:24.855490,2.0,0.0,402.0
2022-02-09-17:20:24.856487,7.0,4.0,402.0
2022-02-09-17:20:24.857486,7.0,4.0,402.0
2022-02-09-17:20:24.858482,7.0,4.0,402.0
2022-02-09-17:20:24.859480,5.0,11.0,402.0
2022-02-09-17:20:24.860477,6.0,3.0,403.0
2022-02-09-17:20:24.861475,6.0,3.0,403.0
2022-02-09-17:20:24.862472,6.0,3.0,403.0
2022-02-09-17:20:24.863469,1.0,7.0,403.0
2022-02-09-17:20:24.864466,6.0,16.0,403.0
2022-02-09-17:20:24.865464,6.0,16.0,403.0
2022-02-09-17:20:24.867458,6.0,16.0,403.0
2022-02-09-17:20:24.867458,2.0,12.0,403.0
2022-02-09-17:20:24.868456,1.0,11.0,402.0
2022-02-09-17:20:24.869453,1.0,11.0,402.0
2022-02-09-17:20:24.870450,1.0,11.0,402.0
2022-02-09-17:20:24.871447,8.0,12.0,402.0
2022-02-09-17:20:24.872444,3.0,7.0,402.0
2022-02-09-17:20:24.873442,7.0,6.0,402.0
2022-02-09-17:20:24.874441,7.0,6.0,402.0
2022-02-09-17:20:24.875438,7.0,6.0,402.0
2022-02-09-17:20:24.876435,6.0,10.0,403.0
2022-02-09-17:20:24.877433,2.0,6.0,403.0
2022-02-09-17:20:24.878430,2.0,6.0,403.0
2022-02-09-17:20:24.879427,5.0,9.0,402.0
2022-02-09-17:20:24.880424,6.0,18.0,403.0
2022-02-09-17:20:24.881422,6.0,18.0,403.0
2022-02-09-17:20:24.882419,6.0,18.0,403.0
2022-02-09-17:20:24.883416,6.0,17.0,403.0
2022-02-09-17:20:24.884413,8.0,2.0,402.0
2022-02-09-17:20:24.885444,8.0,2.0,402.0
2022-02-09-17:20:24.886440,3.0,13.0,402.0
2022-02-09-17:20:24.887404,2.0,9.0,403.0
2022-02-09-17:20:24.888401,8.0,1.0,402.0
2022-02-09-17:20:24.889399,8.0,1.0,402.0
2022-02-09-17:20:24.890396,8.0,1.0,402.0
2022-02-09-17:20:24.891394,3.0,7.0,403.0
2022-02-09-17:20:24.892391,5.0,2.0,403.0
2022-02-09-17:20:24.893388,5.0,2.0,403.0
2022-02-09-17:20:24.894385,5.0,2.0,403.0
2022-02-09-17:20:24.895382,3.0,9.0,403.0
2022-02-09-17:20:24.896380,4.0,15.0,403.0
2022-02-09-17:20:24.897377,4.0,15.0,403.0
2022-02-09-17:20:24.898410,4.0,15.0,403.0
2022-02-09-17:20:24.900370,3.0,12.0,403.0
2022-02-09-17:20:24.900370,2.0,11.0,402.0
2022-02-09-17:20:24.901368,2.0,11.0,402.0
2022-02-09-17:20:24.902399,2.0,11.0,402.0
2022-02-09-17:20:24.903362,2.0,11.0,402.0
2022-02-09-17:20:24.904393,5.0,11.0,403.0
2022-02-09-17:20:24.905356,5.0,4.0,403.0
2022-02-09-17:20:24.906388,5.0,4.0,403.0
2022-02-09-17:20:24.907385,5.0,4.0,403.0
2022-02-09-17:20:24.908382,7.0,1.0,402.0
2022-02-09-17:20:24.909381,8.0,5.0,403.0
2022-02-09-17:20:24.910378,8.0,5.0,403.0
2022-02-09-17:20:24.911340,8.0,5.0,403.0
2022-02-09-17:20:24.912338,2.0,10.0,403.0
2022-02-09-17:20:24.913336,1.0,12.0,403.0
2022-02-09-17:20:24.914332,1.0,12.0,403.0
2022-02-09-17:20:24.915329,1.0,12.0,403.0
2022-02-09-17:20:24.916327,5.0,15.0,402.0
2022-02-09-17:20:24.917324,8.0,9.0,403.0
2022-02-09-17:20:24.918321,8.0,9.0,403.0
2022-02-09-17:20:24.919319,8.0,9.0,403.0
2022-02-09-17:20:24.920316,4.0,12.0,403.0
2022-02-09-17:20:24.921349,5.0,9.0,402.0
2022-02-09-17:20:24.922346,5.0,9.0,402.0
2022-02-09-17:20:24.923345,5.0,9.0,402.0
2022-02-09-17:20:24.924306,8.0,8.0,402.0
2022-02-09-17:20:24.925304,1.0,8.0,403.0
2022-02-09-17:20:24.926301,1.0,8.0,403.0
2022-02-09-17:20:24.927297,1.0,8.0,403.0
2022-02-09-17:20:24.928295,1.0,9.0,403.0
2022-02-09-17:20:24.929296,1.0,9.0,403.0
2022-02-09-17:20:24.930290,1.0,9.0,403.0
2022-02-09-17:20:24.931287,1.0,9.0,403.0
2022-02-09-17:20:24.932284,1.0,9.0,403.0
2022-02-09-17:20:24.933282,3.0,8.0,403.0
2022-02-09-17:20:24.935276,6.0,14.0,402.0
2022-02-09-17:20:24.935276,6.0,14.0,402.0
2022-02-09-17:20:24.936275,5.0,18.0,402.0
2022-02-09-17:20:24.937271,6.0,5.0,403.0
2022-02-09-17:20:24.938272,6.0,5.0,403.0
2022-02-09-17:20:24.939266,4.0,3.0,403.0
2022-02-09-17:20:24.940263,4.0,3.0,403.0
2022-02-09-17:20:24.941260,8.0,7.0,402.0
2022-02-09-17:20:24.942258,8.0,7.0,402.0
2022-02-09-17:20:24.943255,8.0,7.0,402.0
2022-02-09-17:20:24.944252,8.0,7.0,402.0
2022-02-09-17:20:24.945249,9.0,1.0,402.0
2022-02-09-17:20:24.946247,4.0,11.0,402.0
2022-02-09-17:20:24.947244,4.0,11.0,402.0
2022-02-09-17:20:24.948241,4.0,11.0,402.0
2022-02-09-17:20:24.949239,8.0,14.0,402.0
2022-02-09-17:20:24.950236,7.0,14.0,402.0
2022-02-09-17:20:24.951233,7.0,14.0,402.0
2022-02-09-17:20:24.952231,7.0,14.0,402.0
2022-02-09-17:20:24.953262,1.0,8.0,403.0
2022-02-09-17:20:24.954260,3.0,8.0,403.0
2022-02-09-17:20:24.955238,3.0,8.0,403.0
2022-02-09-17:20:24.956221,3.0,8.0,403.0
2022-02-09-17:20:24.957253,7.0,6.0,402.0
2022-02-09-17:20:24.958215,8.0,12.0,403.0
2022-02-09-17:20:24.959247,8.0,12.0,403.0
2022-02-09-17:20:24.960241,8.0,12.0,403.0
2022-02-09-17:20:24.961241,4.0,2.0,402.0
2022-02-09-17:20:24.962205,1.0,13.0,402.0
2022-02-09-17:20:24.963201,1.0,13.0,402.0
2022-02-09-17:20:24.964200,1.0,13.0,402.0
2022-02-09-17:20:24.965197,7.0,8.0,402.0
2022-02-09-17:20:24.966195,2.0,10.0,403.0
2022-02-09-17:20:24.967212,2.0,10.0,403.0
2022-02-09-17:20:24.969220,2.0,10.0,403.0
2022-02-09-17:20:24.969220,3.0,8.0,403.0
2022-02-09-17:20:24.970183,6.0,5.0,402.0
2022-02-09-17:20:24.971181,2.0,10.0,402.0
2022-02-09-17:20:24.972178,2.0,10.0,402.0
2022-02-09-17:20:24.973211,2.0,10.0,402.0
2022-02-09-17:20:24.974172,5.0,5.0,403.0
2022-02-09-17:20:24.975204,7.0,7.0,402.0
2022-02-09-17:20:24.976167,7.0,7.0,402.0
2022-02-09-17:20:24.977165,7.0,7.0,402.0
2022-02-09-17:20:24.978196,6.0,6.0,403.0
2022-02-09-17:20:24.979161,7.0,7.0,402.0
2022-02-09-17:20:24.980158,1.0,8.0,402.0
2022-02-09-17:20:24.981155,1.0,8.0,402.0
2022-02-09-17:20:24.982152,6.0,8.0,402.0
2022-02-09-17:20:24.983183,6.0,9.0,402.0
2022-02-09-17:20:24.984147,6.0,9.0,402.0
2022-02-09-17:20:24.985143,6.0,9.0,402.0
2022-02-09-17:20:24.986140,3.0,4.0,403.0
2022-02-09-17:20:24.987138,3.0,4.0,403.0
2022-02-09-17:20:24.988136,3.0,4.0,403.0
2022-02-09-17:20:24.989167,3.0,4.0,403.0
2022-02-09-17:20:24.990163,7.0,2.0,403.0
2022-02-09-17:20:24.991167,7.0,3.0,403.0
2022-02-09-17:20:24.992125,7.0,3.0,403.0
2022-02-09-17:20:24.993122,7.0,3.0,403.0
2022-02-09-17:20:24.994119,8.0,5.0,402.0
2022-02-09-17:20:24.995116,3.0,8.0,402.0
2022-02-09-17:20:24.996114,3.0,8.0,402.0
2022-02-09-17:20:24.997111,3.0,8.0,402.0
2022-02-09-17:20:24.998146,4.0,9.0,403.0
2022-02-09-17:20:24.999108,8.0,2.0,403.0
2022-02-09-17:20:25.000104,8.0,2.0,403.0
2022-02-09-17:20:25.001102,8.0,2.0,403.0
2022-02-09-17:20:25.002099,9.0,5.0,403.0
2022-02-09-17:20:25.004094,10.0,10.0,402.0
2022-02-09-17:20:25.004094,5.0,12.0,403.0
2022-02-09-17:20:25.005091,5.0,12.0,403.0
2022-02-09-17:20:25.006088,4.0,1.0,403.0
2022-02-09-17:20:25.007086,3.0,8.0,402.0
2022-02-09-17:20:25.008083,3.0,8.0,402.0
2022-02-09-17:20:25.009080,3.0,8.0,402.0
2022-02-09-17:20:25.010077,2.0,3.0,403.0
2022-02-09-17:20:25.011075,3.0,9.0,403.0
2022-02-09-17:20:25.012072,3.0,9.0,403.0
2022-02-09-17:20:25.013069,3.0,9.0,403.0
2022-02-09-17:20:25.014065,3.0,9.0,403.0
2022-02-09-17:20:25.015065,3.0,9.0,403.0
2022-02-09-17:20:25.016095,7.0,14.0,402.0
2022-02-09-17:20:25.017057,7.0,14.0,402.0
2022-02-09-17:20:25.018056,7.0,14.0,402.0
2022-02-09-17:20:25.019053,6.0,7.0,402.0
2022-02-09-17:20:25.020050,6.0,7.0,402.0
2022-02-09-17:20:25.021047,6.0,7.0,402.0
2022-02-09-17:20:25.022045,6.0,7.0,402.0
2022-02-09-17:20:25.023042,4.0,3.0,403.0
2022-02-09-17:20:25.024040,11.0,4.0,403.0
2022-02-09-17:20:25.025036,11.0,4.0,403.0
2022-02-09-17:20:25.026033,11.0,4.0,403.0
2022-02-09-17:20:25.027031,4.0,8.0,403.0
2022-02-09-17:20:25.028050,2.0,6.0,402.0
2022-02-09-17:20:25.029028,2.0,6.0,402.0
2022-02-09-17:20:25.030023,2.0,6.0,402.0
2022-02-09-17:20:25.031020,1.0,4.0,403.0
2022-02-09-17:20:25.032052,7.0,10.0,402.0
2022-02-09-17:20:25.033015,7.0,10.0,402.0
2022-02-09-17:20:25.034012,7.0,10.0,402.0
2022-02-09-17:20:25.035009,8.0,14.0,402.0
2022-02-09-17:20:25.037004,6.0,6.0,402.0
2022-02-09-17:20:25.037004,6.0,6.0,402.0
2022-02-09-17:20:25.038002,6.0,6.0,402.0
2022-02-09-17:20:25.039026,4.0,1.0,402.0
2022-02-09-17:20:25.040022,4.0,7.0,403.0
2022-02-09-17:20:25.041019,4.0,7.0,403.0
2022-02-09-17:20:25.041991,4.0,7.0,403.0
2022-02-09-17:20:25.042988,4.0,7.0,403.0
2022-02-09-17:20:25.044007,5.0,7.0,402.0
2022-02-09-17:20:25.044983,5.0,7.0,402.0
2022-02-09-17:20:25.045980,5.0,7.0,402.0
2022-02-09-17:20:25.046978,4.0,14.0,403.0
2022-02-09-17:20:25.047975,3.0,11.0,402.0
2022-02-09-17:20:25.048972,7.0,8.0,402.0
2022-02-09-17:20:25.049969,7.0,8.0,402.0
2022-02-09-17:20:25.050967,7.0,8.0,402.0
2022-02-09-17:20:25.052006,5.0,7.0,402.0
2022-02-09-17:20:25.052961,3.0,9.0,403.0
2022-02-09-17:20:25.053961,3.0,9.0,403.0
2022-02-09-17:20:25.054958,3.0,9.0,403.0
2022-02-09-17:20:25.055955,1.0,0.0,402.0
2022-02-09-17:20:25.056997,5.0,6.0,402.0
2022-02-09-17:20:25.057948,5.0,6.0,402.0
2022-02-09-17:20:25.058945,5.0,6.0,402.0
2022-02-09-17:20:25.059944,4.0,7.0,403.0
2022-02-09-17:20:25.060940,4.0,0.0,403.0
2022-02-09-17:20:25.061939,4.0,0.0,403.0
2022-02-09-17:20:25.062936,4.0,0.0,403.0
2022-02-09-17:20:25.063933,2.0,10.0,403.0
2022-02-09-17:20:25.064930,2.0,12.0,403.0
2022-02-09-17:20:25.065927,7.0,14.0,402.0
2022-02-09-17:20:25.066924,7.0,14.0,402.0
2022-02-09-17:20:25.067922,5.0,8.0,402.0
2022-02-09-17:20:25.068957,7.0,7.0,402.0
2022-02-09-17:20:25.069954,3.0,7.0,403.0
2022-02-09-17:20:25.071912,1.0,8.0,403.0
2022-02-09-17:20:25.072909,3.0,6.0,403.0
2022-02-09-17:20:25.072909,5.0,9.0,403.0
2022-02-09-17:20:25.073906,5.0,9.0,403.0
2022-02-09-17:20:25.074903,5.0,9.0,403.0
2022-02-09-17:20:25.075900,9.0,10.0,402.0
2022-02-09-17:20:25.076897,4.0,5.0,403.0
2022-02-09-17:20:25.077895,6.0,2.0,402.0
2022-02-09-17:20:25.078903,6.0,2.0,402.0
2022-02-09-17:20:25.079889,6.0,7.0,403.0
2022-02-09-17:20:25.080887,2.0,10.0,402.0
2022-02-09-17:20:25.081885,4.0,8.0,403.0
2022-02-09-17:20:25.082882,3.0,8.0,403.0
2022-02-09-17:20:25.083913,4.0,9.0,402.0
2022-02-09-17:20:25.084876,6.0,9.0,402.0
2022-02-09-17:20:25.085908,6.0,9.0,402.0
2022-02-09-17:20:25.086906,6.0,9.0,402.0
2022-02-09-17:20:25.087903,6.0,9.0,402.0
2022-02-09-17:20:25.088901,6.0,4.0,403.0
2022-02-09-17:20:25.089863,6.0,4.0,403.0
2022-02-09-17:20:25.090861,6.0,4.0,403.0
2022-02-09-17:20:25.091891,6.0,4.0,403.0
2022-02-09-17:20:25.092890,7.0,7.0,402.0
2022-02-09-17:20:25.093887,4.0,5.0,403.0
2022-02-09-17:20:25.094850,2.0,1.0,403.0
2022-02-09-17:20:25.095848,2.0,1.0,403.0
2022-02-09-17:20:25.096844,3.0,9.0,402.0
2022-02-09-17:20:25.097877,1.0,9.0,403.0
2022-02-09-17:20:25.098838,1.0,9.0,403.0
2022-02-09-17:20:25.099836,1.0,9.0,403.0
2022-02-09-17:20:25.100834,2.0,1.0,402.0
2022-02-09-17:20:25.101864,4.0,6.0,402.0
2022-02-09-17:20:25.102863,4.0,6.0,402.0
2022-02-09-17:20:25.103826,4.0,6.0,402.0
2022-02-09-17:20:25.105851,7.0,6.0,403.0
2022-02-09-17:20:25.105851,5.0,0.0,403.0
2022-02-09-17:20:25.106842,5.0,0.0,403.0
2022-02-09-17:20:25.107848,5.0,0.0,403.0
2022-02-09-17:20:25.108813,5.0,9.0,403.0
2022-02-09-17:20:25.109810,3.0,6.0,402.0
2022-02-09-17:20:25.110807,3.0,6.0,402.0
2022-02-09-17:20:25.111804,3.0,6.0,402.0
2022-02-09-17:20:25.112803,5.0,1.0,402.0
2022-02-09-17:20:25.113834,3.0,6.0,402.0
2022-02-09-17:20:25.114830,3.0,6.0,402.0
2022-02-09-17:20:25.115820,3.0,6.0,402.0
2022-02-09-17:20:25.116791,6.0,4.0,402.0
2022-02-09-17:20:25.117821,6.0,4.0,402.0
2022-02-09-17:20:25.118823,6.0,4.0,402.0
2022-02-09-17:20:25.119816,6.0,4.0,402.0
2022-02-09-17:20:25.120815,4.0,11.0,403.0
2022-02-09-17:20:25.121779,7.0,11.0,402.0
2022-02-09-17:20:25.122777,7.0,7.0,403.0
2022-02-09-17:20:25.123774,7.0,7.0,403.0
2022-02-09-17:20:25.124771,7.0,7.0,403.0
2022-02-09-17:20:25.125768,5.0,9.0,402.0
2022-02-09-17:20:25.126766,1.0,9.0,403.0
2022-02-09-17:20:25.127763,1.0,9.0,403.0
2022-02-09-17:20:25.128760,1.0,9.0,403.0
2022-02-09-17:20:25.129758,7.0,17.0,402.0
2022-02-09-17:20:25.130755,7.0,17.0,402.0
2022-02-09-17:20:25.131752,7.0,17.0,402.0
2022-02-09-17:20:25.132750,7.0,17.0,402.0
2022-02-09-17:20:25.133747,8.0,12.0,402.0
2022-02-09-17:20:25.134744,5.0,4.0,403.0
2022-02-09-17:20:25.135742,5.0,4.0,403.0
2022-02-09-17:20:25.136739,5.0,4.0,403.0
2022-02-09-17:20:25.138734,5.0,5.0,403.0
2022-02-09-17:20:25.138734,5.0,5.0,403.0
2022-02-09-17:20:25.139731,5.0,5.0,403.0
2022-02-09-17:20:25.140728,5.0,5.0,403.0
2022-02-09-17:20:25.141726,5.0,6.0,403.0
2022-02-09-17:20:25.142723,9.0,1.0,403.0
2022-02-09-17:20:25.143720,9.0,1.0,403.0
2022-02-09-17:20:25.144718,9.0,1.0,403.0
2022-02-09-17:20:25.145715,2.0,2.0,403.0
2022-02-09-17:20:25.146712,4.0,8.0,403.0
2022-02-09-17:20:25.147710,4.0,8.0,403.0
2022-02-09-17:20:25.148707,4.0,8.0,403.0
2022-02-09-17:20:25.149704,1.0,10.0,403.0
2022-02-09-17:20:25.150702,1.0,8.0,402.0
2022-02-09-17:20:25.151699,1.0,8.0,402.0
2022-02-09-17:20:25.152696,1.0,8.0,402.0
2022-02-09-17:20:25.153694,7.0,6.0,402.0
2022-02-09-17:20:25.154691,10.0,9.0,402.0
2022-02-09-17:20:25.155689,10.0,9.0,402.0
2022-02-09-17:20:25.156685,10.0,9.0,402.0
2022-02-09-17:20:25.157684,2.0,7.0,403.0
2022-02-09-17:20:25.158681,2.0,7.0,403.0
2022-02-09-17:20:25.159677,2.0,7.0,403.0
2022-02-09-17:20:25.160675,2.0,7.0,403.0
2022-02-09-17:20:25.161672,2.0,7.0,403.0
2022-02-09-17:20:25.162670,4.0,10.0,402.0
2022-02-09-17:20:25.163667,4.0,10.0,402.0
2022-02-09-17:20:25.164664,4.0,10.0,402.0
2022-02-09-17:20:25.165661,4.0,10.0,402.0
2022-02-09-17:20:25.166659,6.0,11.0,402.0
2022-02-09-17:20:25.167656,6.0,10.0,403.0
2022-02-09-17:20:25.168653,4.0,10.0,402.0
2022-02-09-17:20:25.169651,4.0,10.0,402.0
2022-02-09-17:20:25.170648,2.0,7.0,403.0
2022-02-09-17:20:25.171646,6.0,8.0,402.0
2022-02-09-17:20:25.172643,3.0,5.0,402.0
2022-02-09-17:20:25.174638,3.0,5.0,402.0
2022-02-09-17:20:25.174638,6.0,6.0,403.0
2022-02-09-17:20:25.175635,7.0,8.0,402.0
2022-02-09-17:20:25.176632,7.0,8.0,402.0
2022-02-09-17:20:25.177630,7.0,8.0,402.0
2022-02-09-17:20:25.178627,8.0,7.0,403.0
2022-02-09-17:20:25.179624,1.0,9.0,403.0
2022-02-09-17:20:25.180621,1.0,9.0,403.0
2022-02-09-17:20:25.181619,1.0,9.0,403.0
2022-02-09-17:20:25.182616,3.0,11.0,403.0
2022-02-09-17:20:25.183613,4.0,9.0,403.0
2022-02-09-17:20:25.184611,4.0,9.0,403.0
2022-02-09-17:20:25.185608,4.0,9.0,403.0
2022-02-09-17:20:25.186606,5.0,12.0,402.0
2022-02-09-17:20:25.187603,4.0,7.0,402.0
2022-02-09-17:20:25.188600,4.0,7.0,402.0
2022-02-09-17:20:25.189597,4.0,7.0,402.0
2022-02-09-17:20:25.190596,5.0,5.0,403.0
2022-02-09-17:20:25.191592,7.0,7.0,402.0
2022-02-09-17:20:25.192590,7.0,7.0,402.0
2022-02-09-17:20:25.193588,7.0,7.0,402.0
2022-02-09-17:20:25.194584,4.0,7.0,403.0
2022-02-09-17:20:25.195581,4.0,13.0,402.0
2022-02-09-17:20:25.196580,4.0,13.0,402.0
2022-02-09-17:20:25.197577,4.0,13.0,402.0
2022-02-09-17:20:25.198574,4.0,13.0,402.0
2022-02-09-17:20:25.199571,8.0,11.0,402.0
2022-02-09-17:20:25.200568,8.0,11.0,402.0
2022-02-09-17:20:25.201599,8.0,11.0,402.0
2022-02-09-17:20:25.202594,8.0,11.0,402.0
2022-02-09-17:20:25.203559,5.0,10.0,403.0
2022-02-09-17:20:25.204557,5.0,10.0,403.0
2022-02-09-17:20:25.205554,5.0,10.0,403.0
2022-02-09-17:20:25.206586,4.0,11.0,402.0
2022-02-09-17:20:25.208546,1.0,10.0,403.0
2022-02-09-17:20:25.208546,1.0,10.0,403.0
2022-02-09-17:20:25.209543,1.0,10.0,403.0
2022-02-09-17:20:25.210540,1.0,10.0,403.0
2022-02-09-17:20:25.211540,2.0,6.0,402.0
2022-02-09-17:20:25.212535,3.0,12.0,403.0
2022-02-09-17:20:25.213533,4.0,15.0,403.0
2022-02-09-17:20:25.214530,4.0,15.0,403.0
2022-02-09-17:20:25.215528,5.0,12.0,402.0
2022-02-09-17:20:25.216524,5.0,11.0,402.0
2022-02-09-17:20:25.217522,5.0,11.0,402.0
2022-02-09-17:20:25.218519,5.0,11.0,402.0
2022-02-09-17:20:25.219516,2.0,8.0,403.0
2022-02-09-17:20:25.220514,5.0,11.0,403.0
2022-02-09-17:20:25.221511,2.0,6.0,402.0
2022-02-09-17:20:25.222508,3.0,9.0,403.0
2022-02-09-17:20:25.223506,8.0,10.0,402.0
2022-02-09-17:20:25.224503,10.0,8.0,403.0
2022-02-09-17:20:25.225500,8.0,6.0,402.0
2022-02-09-17:20:25.226497,8.0,6.0,402.0
2022-02-09-17:20:25.227495,4.0,6.0,403.0
2022-02-09-17:20:25.228492,5.0,3.0,402.0
2022-02-09-17:20:25.229490,4.0,7.0,403.0
2022-02-09-17:20:25.230487,2.0,8.0,402.0
2022-02-09-17:20:25.231484,7.0,12.0,402.0
2022-02-09-17:20:25.232481,7.0,12.0,402.0
2022-02-09-17:20:25.233479,7.0,12.0,402.0
2022-02-09-17:20:25.234476,7.0,12.0,402.0
2022-02-09-17:20:25.235473,7.0,12.0,402.0
2022-02-09-17:20:25.236471,9.0,3.0,402.0
2022-02-09-17:20:25.237468,9.0,3.0,402.0
2022-02-09-17:20:25.238465,9.0,3.0,402.0
2022-02-09-17:20:25.239463,7.0,4.0,403.0
2022-02-09-17:20:25.240460,8.0,8.0,403.0
2022-02-09-17:20:25.242455,8.0,8.0,403.0
2022-02-09-17:20:25.242455,8.0,8.0,403.0
2022-02-09-17:20:25.243452,4.0,5.0,402.0
2022-02-09-17:20:25.244449,2.0,12.0,403.0
2022-02-09-17:20:25.245447,2.0,12.0,403.0
2022-02-09-17:20:25.246445,2.0,12.0,403.0
2022-02-09-17:20:25.247441,2.0,12.0,403.0
2022-02-09-17:20:25.248439,2.0,12.0,403.0
2022-02-09-17:20:25.249437,1.0,10.0,403.0
2022-02-09-17:20:25.250434,3.0,9.0,403.0
2022-02-09-17:20:25.251432,3.0,9.0,403.0
2022-02-09-17:20:25.252429,3.0,10.0,403.0
2022-02-09-17:20:25.253428,7.0,9.0,402.0
2022-02-09-17:20:25.254423,7.0,9.0,402.0
2022-02-09-17:20:25.255421,7.0,9.0,402.0
2022-02-09-17:20:25.256419,8.0,5.0,403.0
2022-02-09-17:20:25.257415,2.0,10.0,402.0
2022-02-09-17:20:25.258412,2.0,10.0,402.0
2022-02-09-17:20:25.259409,2.0,10.0,402.0
2022-02-09-17:20:25.260409,4.0,0.0,403.0
2022-02-09-17:20:25.261406,5.0,9.0,402.0
2022-02-09-17:20:25.262403,5.0,9.0,402.0
2022-02-09-17:20:25.263401,5.0,9.0,402.0
2022-02-09-17:20:25.264398,4.0,8.0,402.0
2022-02-09-17:20:25.265394,6.0,5.0,403.0
2022-02-09-17:20:25.266392,6.0,5.0,403.0
2022-02-09-17:20:25.267389,6.0,5.0,403.0
2022-02-09-17:20:25.268387,9.0,10.0,403.0
2022-02-09-17:20:25.269384,6.0,10.0,402.0
2022-02-09-17:20:25.270381,6.0,10.0,402.0
2022-02-09-17:20:25.271379,6.0,10.0,402.0
2022-02-09-17:20:25.272376,4.0,3.0,402.0
2022-02-09-17:20:25.273374,9.0,6.0,403.0
2022-02-09-17:20:25.274371,9.0,6.0,403.0
2022-02-09-17:20:25.276365,9.0,6.0,403.0
2022-02-09-17:20:25.276365,6.0,13.0,403.0
2022-02-09-17:20:25.277363,2.0,3.0,403.0
2022-02-09-17:20:25.278360,2.0,3.0,403.0
2022-02-09-17:20:25.279356,2.0,3.0,403.0
2022-02-09-17:20:25.280353,2.0,3.0,403.0
2022-02-09-17:20:25.281351,4.0,14.0,403.0
2022-02-09-17:20:25.282348,2.0,13.0,402.0
2022-02-09-17:20:25.283345,2.0,13.0,402.0
2022-02-09-17:20:25.284344,2.0,13.0,402.0
2022-02-09-17:20:25.285340,6.0,4.0,403.0
2022-02-09-17:20:25.286338,7.0,11.0,403.0
2022-02-09-17:20:25.287335,6.0,10.0,403.0
2022-02-09-17:20:25.288333,6.0,10.0,403.0
2022-02-09-17:20:25.289330,3.0,13.0,403.0
2022-02-09-17:20:25.290330,3.0,1.0,403.0
2022-02-09-17:20:25.291325,7.0,7.0,402.0
2022-02-09-17:20:25.292322,7.0,9.0,402.0
2022-02-09-17:20:25.293320,7.0,9.0,402.0
2022-02-09-17:20:25.294317,6.0,8.0,402.0
2022-02-09-17:20:25.295314,6.0,10.0,402.0
2022-02-09-17:20:25.296312,5.0,2.0,402.0
2022-02-09-17:20:25.297309,5.0,10.0,402.0
2022-02-09-17:20:25.298306,2.0,16.0,403.0
2022-02-09-17:20:25.299303,8.0,0.0,403.0
2022-02-09-17:20:25.300302,9.0,2.0,402.0
2022-02-09-17:20:25.301298,7.0,11.0,403.0
2022-02-09-17:20:25.302296,8.0,18.0,402.0
2022-02-09-17:20:25.303293,6.0,14.0,402.0
2022-02-09-17:20:25.304290,4.0,11.0,403.0
2022-02-09-17:20:25.305287,4.0,12.0,402.0
2022-02-09-17:20:25.306284,4.0,5.0,402.0
2022-02-09-17:20:25.307282,5.0,4.0,403.0
2022-02-09-17:20:25.308279,7.0,9.0,403.0
2022-02-09-17:20:25.309276,5.0,8.0,403.0
2022-02-09-17:20:25.310274,5.0,7.0,403.0
2022-02-09-17:20:25.311273,5.0,7.0,403.0
2022-02-09-17:20:25.313266,7.0,8.0,403.0
2022-02-09-17:20:25.314263,6.0,2.0,403.0
2022-02-09-17:20:25.314263,2.0,12.0,402.0
2022-02-09-17:20:25.315261,8.0,12.0,402.0
2022-02-09-17:20:25.316295,4.0,10.0,402.0
2022-02-09-17:20:25.317290,5.0,7.0,402.0
2022-02-09-17:20:25.318288,7.0,10.0,402.0
2022-02-09-17:20:25.319249,7.0,10.0,402.0
2022-02-09-17:20:25.320248,7.0,10.0,402.0
2022-02-09-17:20:25.321245,7.0,10.0,402.0
2022-02-09-17:20:25.322241,4.0,11.0,402.0
2022-02-09-17:20:25.323239,8.0,5.0,402.0
2022-02-09-17:20:25.324236,8.0,5.0,402.0
2022-02-09-17:20:25.325234,8.0,5.0,402.0
2022-02-09-17:20:25.326232,5.0,5.0,403.0
2022-02-09-17:20:25.327229,5.0,1.0,403.0
2022-02-09-17:20:25.328226,5.0,1.0,403.0
2022-02-09-17:20:25.329223,5.0,1.0,403.0
2022-02-09-17:20:25.330220,4.0,7.0,402.0
2022-02-09-17:20:25.331218,4.0,13.0,402.0
2022-02-09-17:20:25.332215,3.0,12.0,402.0
2022-02-09-17:20:25.333212,6.0,8.0,402.0
2022-02-09-17:20:25.334244,6.0,7.0,402.0
2022-02-09-17:20:25.335209,6.0,7.0,402.0
2022-02-09-17:20:25.336206,6.0,7.0,402.0
2022-02-09-17:20:25.337203,6.0,7.0,402.0
2022-02-09-17:20:25.338201,5.0,6.0,402.0
2022-02-09-17:20:25.339198,5.0,1.0,402.0
2022-02-09-17:20:25.340195,5.0,1.0,402.0
2022-02-09-17:20:25.341192,5.0,1.0,402.0
2022-02-09-17:20:25.343187,5.0,7.0,403.0
2022-02-09-17:20:25.343187,5.0,7.0,403.0
2022-02-09-17:20:25.344184,5.0,7.0,403.0
2022-02-09-17:20:25.345181,5.0,7.0,403.0
2022-02-09-17:20:25.346179,4.0,13.0,403.0
2022-02-09-17:20:25.347176,7.0,11.0,402.0
2022-02-09-17:20:25.348173,7.0,11.0,402.0
2022-02-09-17:20:25.349171,7.0,11.0,402.0
2022-02-09-17:20:25.350168,7.0,11.0,402.0
2022-02-09-17:20:25.351165,3.0,9.0,402.0
2022-02-09-17:20:25.352162,3.0,9.0,402.0
2022-02-09-17:20:25.353160,3.0,9.0,402.0
2022-02-09-17:20:25.354157,3.0,8.0,402.0
2022-02-09-17:20:25.355155,6.0,1.0,403.0
2022-02-09-17:20:25.356152,6.0,1.0,403.0
2022-02-09-17:20:25.357149,6.0,1.0,403.0
2022-02-09-17:20:25.358147,6.0,1.0,403.0
2022-02-09-17:20:25.359144,6.0,9.0,402.0
2022-02-09-17:20:25.360141,6.0,9.0,402.0
2022-02-09-17:20:25.361139,6.0,9.0,402.0
2022-02-09-17:20:25.362136,6.0,9.0,402.0
2022-02-09-17:20:25.363133,1.0,7.0,402.0
2022-02-09-17:20:25.364131,2.0,9.0,403.0
2022-02-09-17:20:25.365128,2.0,9.0,403.0
2022-02-09-17:20:25.366126,2.0,9.0,403.0
2022-02-09-17:20:25.367124,3.0,5.0,403.0
2022-02-09-17:20:25.368120,4.0,14.0,403.0
2022-02-09-17:20:25.369117,4.0,14.0,403.0
2022-02-09-17:20:25.370115,4.0,14.0,403.0
2022-02-09-17:20:25.371112,13.0,13.0,403.0
2022-02-09-17:20:25.372109,7.0,10.0,402.0
2022-02-09-17:20:25.373107,7.0,10.0,402.0
2022-02-09-17:20:25.374104,7.0,10.0,402.0
2022-02-09-17:20:25.375101,8.0,10.0,403.0
2022-02-09-17:20:25.376099,5.0,9.0,402.0
2022-02-09-17:20:25.378094,6.0,8.0,402.0
2022-02-09-17:20:25.378094,6.0,8.0,402.0
2022-02-09-17:20:25.379161,3.0,12.0,403.0
2022-02-09-17:20:25.379161,3.0,10.0,402.0
2022-02-09-17:20:25.380196,3.0,10.0,402.0
2022-02-09-17:20:25.381191,3.0,10.0,402.0
2022-02-09-17:20:25.382156,3.0,10.0,402.0
2022-02-09-17:20:25.383188,4.0,5.0,402.0
2022-02-09-17:20:25.384182,5.0,4.0,402.0
2022-02-09-17:20:25.385180,5.0,4.0,402.0
2022-02-09-17:20:25.386146,5.0,4.0,402.0
2022-02-09-17:20:25.387175,5.0,2.0,402.0
2022-02-09-17:20:25.388178,5.0,2.0,402.0
2022-02-09-17:20:25.389175,5.0,2.0,402.0
2022-02-09-17:20:25.390167,5.0,2.0,402.0
2022-02-09-17:20:25.391167,4.0,9.0,403.0
2022-02-09-17:20:25.392161,4.0,9.0,403.0
2022-02-09-17:20:25.393158,4.0,9.0,403.0
2022-02-09-17:20:25.394158,4.0,9.0,403.0
2022-02-09-17:20:25.395153,1.0,9.0,403.0
2022-02-09-17:20:25.396154,2.0,11.0,403.0
2022-02-09-17:20:25.397154,2.0,11.0,403.0
2022-02-09-17:20:25.398146,2.0,11.0,403.0
2022-02-09-17:20:25.399145,2.0,11.0,403.0
2022-02-09-17:20:25.400140,4.0,11.0,402.0
2022-02-09-17:20:25.401137,3.0,12.0,403.0
2022-02-09-17:20:25.402137,3.0,12.0,403.0
2022-02-09-17:20:25.403132,3.0,12.0,403.0
2022-02-09-17:20:25.404133,6.0,11.0,402.0
2022-02-09-17:20:25.405127,1.0,6.0,403.0
2022-02-09-17:20:25.406128,1.0,6.0,403.0
2022-02-09-17:20:25.407129,1.0,6.0,403.0
2022-02-09-17:20:25.408119,4.0,7.0,402.0
2022-02-09-17:20:25.409124,6.0,6.0,402.0
2022-02-09-17:20:25.410116,6.0,6.0,402.0
2022-02-09-17:20:25.412076,6.0,6.0,402.0
2022-02-09-17:20:25.412076,7.0,6.0,403.0
2022-02-09-17:20:25.413107,3.0,12.0,403.0
2022-02-09-17:20:25.414103,3.0,12.0,403.0
2022-02-09-17:20:25.415103,3.0,12.0,403.0
2022-02-09-17:20:25.416097,2.0,12.0,402.0
2022-02-09-17:20:25.417095,3.0,12.0,402.0
2022-02-09-17:20:25.418094,3.0,12.0,402.0
2022-02-09-17:20:25.419058,3.0,12.0,402.0
2022-02-09-17:20:25.420089,6.0,11.0,403.0
2022-02-09-17:20:25.421084,3.0,11.0,403.0
2022-02-09-17:20:25.422082,3.0,11.0,403.0
2022-02-09-17:20:25.423046,3.0,11.0,403.0
2022-02-09-17:20:25.424367,8.0,6.0,402.0
2022-02-09-17:20:25.424367,7.0,6.0,402.0
2022-02-09-17:20:25.425421,7.0,6.0,402.0
2022-02-09-17:20:25.426364,7.0,6.0,402.0
2022-02-09-17:20:25.427361,7.0,6.0,402.0
2022-02-09-17:20:25.428358,4.0,11.0,402.0
2022-02-09-17:20:25.429574,4.0,11.0,402.0
2022-02-09-17:20:25.429690,4.0,11.0,402.0
2022-02-09-17:20:25.430004,4.0,11.0,402.0
2022-02-09-17:20:25.430004,4.0,11.0,402.0
2022-02-09-17:20:25.431058,4.0,11.0,402.0
2022-02-09-17:20:25.432001,5.0,0.0,403.0
2022-02-09-17:20:25.433053,6.0,2.0,402.0
2022-02-09-17:20:25.434048,6.0,2.0,402.0
2022-02-09-17:20:25.434994,6.0,2.0,402.0
2022-02-09-17:20:25.436024,6.0,2.0,402.0
2022-02-09-17:20:25.437021,5.0,8.0,402.0
2022-02-09-17:20:25.438021,8.0,6.0,403.0
2022-02-09-17:20:25.438982,8.0,6.0,403.0
2022-02-09-17:20:25.440029,8.0,6.0,403.0
2022-02-09-17:20:25.441009,3.0,9.0,402.0
2022-02-09-17:20:25.442007,3.0,9.0,403.0
2022-02-09-17:20:25.443007,3.0,9.0,403.0
2022-02-09-17:20:25.444001,3.0,9.0,403.0
2022-02-09-17:20:25.445964,6.0,12.0,402.0
2022-02-09-17:20:25.445964,6.0,16.0,402.0
2022-02-09-17:20:25.447015,6.0,16.0,402.0
2022-02-09-17:20:25.448012,6.0,16.0,402.0
2022-02-09-17:20:25.449009,5.0,11.0,402.0
2022-02-09-17:20:25.450006,9.0,10.0,402.0
2022-02-09-17:20:25.451004,9.0,10.0,402.0
2022-02-09-17:20:25.452002,9.0,10.0,402.0
2022-02-09-17:20:25.452998,1.0,8.0,403.0
2022-02-09-17:20:25.453998,0.0,4.0,402.0
2022-02-09-17:20:25.454994,0.0,4.0,402.0
2022-02-09-17:20:25.455991,0.0,4.0,402.0
2022-02-09-17:20:25.456987,5.0,6.0,402.0
2022-02-09-17:20:25.457985,4.0,8.0,402.0
2022-02-09-17:20:25.458982,4.0,8.0,402.0
2022-02-09-17:20:25.459959,4.0,8.0,402.0
2022-02-09-17:20:25.460979,6.0,2.0,402.0
2022-02-09-17:20:25.461977,2.0,9.0,402.0
2022-02-09-17:20:25.462953,2.0,9.0,402.0
2022-02-09-17:20:25.463952,2.0,9.0,402.0
2022-02-09-17:20:25.464947,6.0,9.0,403.0
2022-02-09-17:20:25.465944,3.0,11.0,403.0
2022-02-09-17:20:25.466942,3.0,11.0,403.0
2022-02-09-17:20:25.467937,3.0,11.0,403.0
2022-02-09-17:20:25.468936,3.0,11.0,403.0
2022-02-09-17:20:25.469935,7.0,6.0,403.0
2022-02-09-17:20:25.470933,7.0,6.0,403.0
2022-02-09-17:20:25.471929,7.0,6.0,403.0
2022-02-09-17:20:25.472925,7.0,6.0,403.0
2022-02-09-17:20:25.473921,8.0,7.0,403.0
2022-02-09-17:20:25.474913,8.0,7.0,403.0
2022-02-09-17:20:25.475916,8.0,7.0,403.0
2022-02-09-17:20:25.476928,8.0,7.0,403.0
2022-02-09-17:20:25.477915,3.0,3.0,403.0
2022-02-09-17:20:25.478876,5.0,9.0,402.0
2022-02-09-17:20:25.479873,5.0,9.0,402.0
2022-02-09-17:20:25.480903,5.0,9.0,402.0
2022-02-09-17:20:25.482900,10.0,12.0,402.0
2022-02-09-17:20:25.482900,12.0,6.0,403.0
2022-02-09-17:20:25.483895,12.0,6.0,403.0
2022-02-09-17:20:25.484894,12.0,6.0,403.0
2022-02-09-17:20:25.485893,4.0,9.0,403.0
2022-02-09-17:20:25.486888,4.0,6.0,402.0
2022-02-09-17:20:25.487886,4.0,6.0,402.0
2022-02-09-17:20:25.488882,4.0,6.0,402.0
2022-02-09-17:20:25.489879,5.0,5.0,402.0
2022-02-09-17:20:25.490878,7.0,5.0,402.0
2022-02-09-17:20:25.491874,7.0,5.0,402.0
2022-02-09-17:20:25.492872,7.0,5.0,402.0
2022-02-09-17:20:25.493872,5.0,6.0,403.0
2022-02-09-17:20:25.494867,2.0,9.0,403.0
2022-02-09-17:20:25.495864,2.0,9.0,403.0
2022-02-09-17:20:25.496861,2.0,9.0,403.0
2022-02-09-17:20:25.497825,5.0,10.0,402.0
2022-02-09-17:20:25.498857,6.0,7.0,403.0
2022-02-09-17:20:25.499839,6.0,7.0,403.0
2022-02-09-17:20:25.500817,6.0,7.0,403.0
2022-02-09-17:20:25.501850,3.0,6.0,402.0
2022-02-09-17:20:25.502845,3.0,6.0,402.0
2022-02-09-17:20:25.503843,3.0,6.0,402.0
2022-02-09-17:20:25.504846,3.0,6.0,402.0
2022-02-09-17:20:25.505836,7.0,7.0,402.0
2022-02-09-17:20:25.506835,7.0,7.0,402.0
2022-02-09-17:20:25.507830,7.0,7.0,402.0
2022-02-09-17:20:25.508828,7.0,7.0,402.0
2022-02-09-17:20:25.509828,7.0,7.0,402.0
2022-02-09-17:20:25.510823,4.0,9.0,402.0
2022-02-09-17:20:25.511821,4.0,9.0,402.0
2022-02-09-17:20:25.512785,4.0,9.0,402.0
2022-02-09-17:20:25.513837,4.0,9.0,402.0
2022-02-09-17:20:25.514815,6.0,11.0,403.0
2022-02-09-17:20:25.516808,6.0,11.0,403.0
2022-02-09-17:20:25.516808,6.0,11.0,403.0
2022-02-09-17:20:25.517829,5.0,1.0,402.0
2022-02-09-17:20:25.518823,5.0,1.0,402.0
2022-02-09-17:20:25.519820,5.0,1.0,402.0
2022-02-09-17:20:25.520818,5.0,1.0,402.0
2022-02-09-17:20:25.521815,5.0,1.0,402.0
2022-02-09-17:20:25.522812,4.0,0.0,403.0
2022-02-09-17:20:25.523810,6.0,5.0,402.0
2022-02-09-17:20:25.524807,6.0,5.0,402.0
2022-02-09-17:20:25.525808,6.0,5.0,402.0
2022-02-09-17:20:25.526802,6.0,1.0,403.0
2022-02-09-17:20:25.527780,3.0,7.0,403.0
2022-02-09-17:20:25.528796,3.0,7.0,403.0
2022-02-09-17:20:25.529773,3.0,7.0,403.0
2022-02-09-17:20:25.530771,1.0,12.0,403.0
2022-02-09-17:20:25.531769,1.0,12.0,403.0
2022-02-09-17:20:25.532765,1.0,12.0,403.0
2022-02-09-17:20:25.533765,1.0,12.0,403.0
2022-02-09-17:20:25.534760,4.0,7.0,402.0
2022-02-09-17:20:25.535759,2.0,5.0,403.0
2022-02-09-17:20:25.536755,2.0,5.0,403.0
2022-02-09-17:20:25.537752,2.0,5.0,403.0
2022-02-09-17:20:25.538750,7.0,6.0,402.0
2022-02-09-17:20:25.539746,7.0,6.0,402.0
2022-02-09-17:20:25.540744,7.0,6.0,402.0
2022-02-09-17:20:25.541744,7.0,6.0,402.0
2022-02-09-17:20:25.542740,8.0,0.0,402.0
2022-02-09-17:20:25.543737,3.0,1.0,403.0
2022-02-09-17:20:25.544733,3.0,1.0,403.0
2022-02-09-17:20:25.545697,3.0,1.0,403.0
2022-02-09-17:20:25.546694,3.0,8.0,402.0
2022-02-09-17:20:25.548722,3.0,12.0,403.0
2022-02-09-17:20:25.548722,5.0,12.0,403.0
2022-02-09-17:20:25.549723,5.0,12.0,403.0
2022-02-09-17:20:25.550717,5.0,12.0,403.0
2022-02-09-17:20:25.551715,5.0,11.0,403.0
2022-02-09-17:20:25.552712,5.0,11.0,403.0
2022-02-09-17:20:25.553714,5.0,11.0,403.0
2022-02-09-17:20:25.554707,5.0,11.0,403.0
2022-02-09-17:20:25.555704,3.0,1.0,403.0
2022-02-09-17:20:25.556701,9.0,2.0,403.0
2022-02-09-17:20:25.557701,9.0,2.0,403.0
2022-02-09-17:20:25.558695,9.0,2.0,403.0
2022-02-09-17:20:25.559694,6.0,3.0,403.0
2022-02-09-17:20:25.560690,8.0,3.0,403.0
2022-02-09-17:20:25.561687,8.0,3.0,403.0
2022-02-09-17:20:25.562685,8.0,3.0,403.0
2022-02-09-17:20:25.563681,6.0,9.0,402.0
2022-02-09-17:20:25.564679,4.0,14.0,402.0
2022-02-09-17:20:25.565679,4.0,14.0,402.0
2022-02-09-17:20:25.566673,4.0,14.0,402.0
2022-02-09-17:20:25.567672,7.0,12.0,402.0
2022-02-09-17:20:25.568635,7.0,10.0,402.0
2022-02-09-17:20:25.569665,7.0,10.0,402.0
2022-02-09-17:20:25.570665,7.0,10.0,402.0
2022-02-09-17:20:25.571660,4.0,6.0,402.0
2022-02-09-17:20:25.572659,1.0,2.0,402.0
2022-02-09-17:20:25.573659,1.0,2.0,402.0
2022-02-09-17:20:25.574645,1.0,2.0,402.0
2022-02-09-17:20:25.575651,4.0,9.0,403.0
2022-02-09-17:20:25.576648,4.0,3.0,403.0
2022-02-09-17:20:25.577645,4.0,3.0,403.0
2022-02-09-17:20:25.578654,4.0,3.0,403.0
2022-02-09-17:20:25.579639,4.0,9.0,402.0
2022-02-09-17:20:25.580643,6.0,9.0,403.0
2022-02-09-17:20:25.581637,6.0,9.0,403.0
2022-02-09-17:20:25.583651,6.0,9.0,403.0
2022-02-09-17:20:25.583651,5.0,8.0,403.0
2022-02-09-17:20:25.584648,3.0,12.0,402.0
2022-02-09-17:20:25.585646,3.0,12.0,402.0
2022-02-09-17:20:25.586643,3.0,12.0,402.0
2022-02-09-17:20:25.587644,5.0,11.0,403.0
2022-02-09-17:20:25.588638,5.0,3.0,403.0
2022-02-09-17:20:25.589638,5.0,3.0,403.0
2022-02-09-17:20:25.590577,5.0,3.0,403.0
2022-02-09-17:20:25.591629,5.0,3.0,403.0
2022-02-09-17:20:25.592636,7.0,6.0,403.0
2022-02-09-17:20:25.593624,8.0,1.0,402.0
2022-02-09-17:20:25.594622,8.0,1.0,402.0
2022-02-09-17:20:25.595598,8.0,1.0,402.0
2022-02-09-17:20:25.596616,3.0,8.0,402.0
2022-02-09-17:20:25.597596,4.0,10.0,403.0
2022-02-09-17:20:25.598565,4.0,10.0,403.0
2022-02-09-17:20:25.599587,4.0,10.0,403.0
2022-02-09-17:20:25.600606,6.0,11.0,402.0
2022-02-09-17:20:25.601603,6.0,11.0,402.0
2022-02-09-17:20:25.602600,6.0,11.0,402.0
2022-02-09-17:20:25.603602,6.0,11.0,402.0
2022-02-09-17:20:25.604540,2.0,1.0,403.0
2022-02-09-17:20:25.605594,2.0,1.0,403.0
2022-02-09-17:20:25.606589,2.0,1.0,403.0
2022-02-09-17:20:25.607587,2.0,1.0,403.0
2022-02-09-17:20:25.608584,6.0,6.0,402.0
2022-02-09-17:20:25.609581,5.0,6.0,403.0
2022-02-09-17:20:25.610580,5.0,6.0,403.0
2022-02-09-17:20:25.611556,5.0,6.0,403.0
2022-02-09-17:20:25.612517,4.0,9.0,402.0
2022-02-09-17:20:25.613574,5.0,11.0,402.0
2022-02-09-17:20:25.614568,5.0,11.0,402.0
2022-02-09-17:20:25.616563,5.0,11.0,402.0
2022-02-09-17:20:25.616563,6.0,8.0,403.0
2022-02-09-17:20:25.617528,6.0,8.0,403.0
2022-02-09-17:20:25.618558,6.0,8.0,403.0
2022-02-09-17:20:25.619559,6.0,8.0,403.0
2022-02-09-17:20:25.620557,4.0,4.0,402.0
2022-02-09-17:20:25.621552,4.0,4.0,402.0
2022-02-09-17:20:25.622548,4.0,4.0,402.0
2022-02-09-17:20:25.623549,4.0,4.0,402.0
2022-02-09-17:20:25.624541,16.0,1.0,403.0
2022-02-09-17:20:25.625539,4.0,0.0,403.0
2022-02-09-17:20:25.626536,4.0,0.0,403.0
2022-02-09-17:20:25.627538,4.0,0.0,403.0
2022-02-09-17:20:25.628531,4.0,0.0,403.0
2022-02-09-17:20:25.629531,2.0,2.0,403.0
2022-02-09-17:20:25.630525,5.0,12.0,402.0
2022-02-09-17:20:25.631524,5.0,12.0,402.0
2022-02-09-17:20:25.632499,4.0,7.0,402.0
2022-02-09-17:20:25.633517,7.0,11.0,402.0
2022-02-09-17:20:25.634515,7.0,11.0,402.0
2022-02-09-17:20:25.635512,7.0,11.0,402.0
2022-02-09-17:20:25.636511,7.0,11.0,402.0
2022-02-09-17:20:25.637488,3.0,10.0,402.0
2022-02-09-17:20:25.638482,2.0,7.0,403.0
2022-02-09-17:20:25.639501,2.0,7.0,403.0
2022-02-09-17:20:25.640499,2.0,7.0,403.0
2022-02-09-17:20:25.641497,6.0,4.0,403.0
2022-02-09-17:20:25.642493,10.0,6.0,402.0
2022-02-09-17:20:25.643495,10.0,6.0,402.0
2022-02-09-17:20:25.644488,10.0,6.0,402.0
2022-02-09-17:20:25.645490,7.0,1.0,402.0
2022-02-09-17:20:25.646428,2.0,15.0,403.0
2022-02-09-17:20:25.647459,2.0,15.0,403.0
2022-02-09-17:20:25.648456,2.0,15.0,403.0
2022-02-09-17:20:25.650451,5.0,10.0,403.0
2022-02-09-17:20:25.650451,5.0,10.0,403.0
2022-02-09-17:20:25.651414,5.0,10.0,403.0
2022-02-09-17:20:25.652450,5.0,10.0,403.0
2022-02-09-17:20:25.653444,1.0,7.0,403.0
2022-02-09-17:20:25.654439,3.0,0.0,403.0
2022-02-09-17:20:25.655440,3.0,0.0,403.0
2022-02-09-17:20:25.656434,3.0,0.0,403.0
2022-02-09-17:20:25.657430,3.0,0.0,403.0
2022-02-09-17:20:25.658433,8.0,9.0,402.0
2022-02-09-17:20:25.659425,5.0,7.0,403.0
2022-02-09-17:20:25.660423,5.0,7.0,403.0
2022-02-09-17:20:25.661387,6.0,4.0,403.0
2022-02-09-17:20:25.662414,2.0,10.0,402.0
2022-02-09-17:20:25.663416,2.0,10.0,402.0
2022-02-09-17:20:25.664380,2.0,10.0,402.0
2022-02-09-17:20:25.665378,2.0,10.0,402.0
2022-02-09-17:20:25.666409,6.0,12.0,402.0
2022-02-09-17:20:25.667371,3.0,15.0,403.0
2022-02-09-17:20:25.668402,3.0,15.0,403.0
2022-02-09-17:20:25.669403,3.0,15.0,403.0
2022-02-09-17:20:25.670420,7.0,7.0,403.0
2022-02-09-17:20:25.671417,7.0,2.0,402.0
2022-02-09-17:20:25.672414,7.0,2.0,402.0
2022-02-09-17:20:25.673412,7.0,2.0,402.0
2022-02-09-17:20:25.674387,4.0,9.0,403.0
2022-02-09-17:20:25.675384,4.0,13.0,402.0
2022-02-09-17:20:25.676381,4.0,13.0,402.0
2022-02-09-17:20:25.677403,4.0,13.0,402.0
2022-02-09-17:20:25.678375,0.0,11.0,403.0
2022-02-09-17:20:25.679339,2.0,12.0,403.0
2022-02-09-17:20:25.680396,2.0,12.0,403.0
2022-02-09-17:20:25.681390,2.0,12.0,403.0
2022-02-09-17:20:25.683383,4.0,11.0,403.0
2022-02-09-17:20:25.684327,4.0,10.0,403.0
2022-02-09-17:20:25.684327,4.0,10.0,403.0
2022-02-09-17:20:25.685381,4.0,10.0,403.0
2022-02-09-17:20:25.686375,4.0,7.0,402.0
2022-02-09-17:20:25.687372,3.0,6.0,403.0
2022-02-09-17:20:25.688370,3.0,6.0,403.0
2022-02-09-17:20:25.689370,3.0,6.0,403.0
2022-02-09-17:20:25.690364,5.0,7.0,403.0
2022-02-09-17:20:25.691362,5.0,12.0,402.0
2022-02-09-17:20:25.692359,5.0,12.0,402.0
2022-02-09-17:20:25.693359,5.0,12.0,402.0
2022-02-09-17:20:25.694354,3.0,10.0,403.0
2022-02-09-17:20:25.695353,1.0,13.0,402.0
2022-02-09-17:20:25.696349,1.0,13.0,402.0
2022-02-09-17:20:25.697347,1.0,13.0,402.0
2022-02-09-17:20:25.698344,3.0,11.0,402.0
2022-02-09-17:20:25.699345,6.0,8.0,402.0
2022-02-09-17:20:25.700317,6.0,8.0,402.0
2022-02-09-17:20:25.701317,6.0,8.0,402.0
2022-02-09-17:20:25.702334,5.0,8.0,403.0
2022-02-09-17:20:25.703331,6.0,9.0,402.0
2022-02-09-17:20:25.704328,6.0,9.0,402.0
2022-02-09-17:20:25.705325,6.0,9.0,402.0
2022-02-09-17:20:25.706323,6.0,9.0,402.0
2022-02-09-17:20:25.707324,7.0,8.0,402.0
2022-02-09-17:20:25.708318,7.0,4.0,402.0
2022-02-09-17:20:25.709318,7.0,4.0,402.0
2022-02-09-17:20:25.710313,7.0,4.0,402.0
2022-02-09-17:20:25.711310,6.0,1.0,402.0
2022-02-09-17:20:25.712292,6.0,14.0,403.0
2022-02-09-17:20:25.713305,6.0,14.0,403.0
2022-02-09-17:20:25.714301,6.0,14.0,403.0
2022-02-09-17:20:25.715303,4.0,12.0,403.0
2022-02-09-17:20:25.716296,5.0,10.0,403.0
2022-02-09-17:20:25.717296,5.0,10.0,403.0
2022-02-09-17:20:25.719288,5.0,10.0,403.0
2022-02-09-17:20:25.719288,4.0,6.0,403.0
2022-02-09-17:20:25.720285,5.0,12.0,403.0
2022-02-09-17:20:25.721283,5.0,12.0,403.0
2022-02-09-17:20:25.722280,5.0,12.0,403.0
2022-02-09-17:20:25.723281,5.0,7.0,402.0
2022-02-09-17:20:25.724275,5.0,9.0,403.0
2022-02-09-17:20:25.725275,5.0,9.0,403.0
2022-02-09-17:20:25.726273,5.0,9.0,403.0
2022-02-09-17:20:25.727272,8.0,2.0,402.0
2022-02-09-17:20:25.728240,3.0,11.0,402.0
2022-02-09-17:20:25.729207,3.0,11.0,402.0
2022-02-09-17:20:25.730262,3.0,11.0,402.0
2022-02-09-17:20:25.731255,7.0,9.0,402.0
2022-02-09-17:20:25.732199,7.0,9.0,402.0
2022-02-09-17:20:25.733254,7.0,9.0,402.0
2022-02-09-17:20:25.734226,7.0,9.0,402.0
2022-02-09-17:20:25.735250,2.0,10.0,403.0
2022-02-09-17:20:25.736242,2.0,10.0,403.0
2022-02-09-17:20:25.737239,2.0,10.0,403.0
2022-02-09-17:20:25.738236,2.0,10.0,403.0
2022-02-09-17:20:25.739234,5.0,0.0,403.0
2022-02-09-17:20:25.740232,7.0,7.0,402.0
2022-02-09-17:20:25.741233,7.0,7.0,402.0
2022-02-09-17:20:25.742227,7.0,7.0,402.0
2022-02-09-17:20:25.743224,7.0,7.0,402.0
2022-02-09-17:20:25.744221,7.0,7.0,402.0
2022-02-09-17:20:25.745220,1.0,5.0,403.0
2022-02-09-17:20:25.746161,1.0,5.0,403.0
2022-02-09-17:20:25.747218,1.0,5.0,403.0
2022-02-09-17:20:25.748211,8.0,14.0,402.0
2022-02-09-17:20:25.749211,6.0,13.0,403.0
2022-02-09-17:20:25.750206,6.0,13.0,403.0
2022-02-09-17:20:25.751147,6.0,13.0,403.0
2022-02-09-17:20:25.753176,4.0,8.0,403.0
2022-02-09-17:20:25.753176,4.0,8.0,403.0
2022-02-09-17:20:25.754174,4.0,8.0,403.0
2022-02-09-17:20:25.755170,4.0,8.0,403.0
2022-02-09-17:20:25.756168,4.0,1.0,403.0
2022-02-09-17:20:25.757147,5.0,11.0,403.0
2022-02-09-17:20:25.758163,5.0,11.0,403.0
2022-02-09-17:20:25.759165,5.0,11.0,403.0
2022-02-09-17:20:25.760158,6.0,8.0,403.0
2022-02-09-17:20:25.761155,5.0,3.0,402.0
2022-02-09-17:20:25.762153,5.0,3.0,402.0
2022-02-09-17:20:25.763116,5.0,3.0,402.0
2022-02-09-17:20:25.764113,3.0,12.0,402.0
2022-02-09-17:20:25.765146,2.0,11.0,403.0
2022-02-09-17:20:25.766143,2.0,11.0,403.0
2022-02-09-17:20:25.767140,2.0,11.0,403.0
2022-02-09-17:20:25.768103,5.0,13.0,402.0
2022-02-09-17:20:25.769134,6.0,9.0,403.0
2022-02-09-17:20:25.770131,6.0,9.0,403.0
2022-02-09-17:20:25.771128,6.0,9.0,403.0
2022-02-09-17:20:25.772135,4.0,7.0,402.0
2022-02-09-17:20:25.773125,4.0,7.0,402.0
2022-02-09-17:20:25.774121,4.0,7.0,402.0
2022-02-09-17:20:25.775083,4.0,7.0,402.0
2022-02-09-17:20:25.776118,4.0,7.0,402.0
2022-02-09-17:20:25.777117,4.0,8.0,403.0
2022-02-09-17:20:25.778110,3.0,3.0,402.0
2022-02-09-17:20:25.779072,3.0,3.0,402.0
2022-02-09-17:20:25.780071,3.0,3.0,402.0
2022-02-09-17:20:25.781068,4.0,14.0,402.0
2022-02-09-17:20:25.782099,2.0,9.0,402.0
2022-02-09-17:20:25.783098,2.0,9.0,402.0
2022-02-09-17:20:25.784093,2.0,9.0,402.0
2022-02-09-17:20:25.786089,6.0,10.0,403.0
2022-02-09-17:20:25.786089,4.0,8.0,402.0
2022-02-09-17:20:25.787106,4.0,8.0,402.0
2022-02-09-17:20:25.788105,4.0,8.0,402.0
2022-02-09-17:20:25.789105,0.0,7.0,402.0
2022-02-09-17:20:25.790100,6.0,12.0,403.0
2022-02-09-17:20:25.791097,6.0,12.0,403.0
2022-02-09-17:20:25.792097,6.0,12.0,403.0
2022-02-09-17:20:25.793096,9.0,10.0,403.0
2022-02-09-17:20:25.794097,7.0,1.0,402.0
2022-02-09-17:20:25.795090,7.0,1.0,402.0
2022-02-09-17:20:25.795668,7.0,1.0,402.0
2022-02-09-17:20:25.796028,7.0,1.0,402.0
2022-02-09-17:20:25.797084,1.0,11.0,402.0
2022-02-09-17:20:25.798079,1.0,11.0,402.0
2022-02-09-17:20:25.799077,1.0,11.0,402.0
2022-02-09-17:20:25.800072,1.0,11.0,402.0
2022-02-09-17:20:25.801069,1.0,11.0,402.0
2022-02-09-17:20:25.802067,3.0,6.0,402.0
2022-02-09-17:20:25.803068,3.0,6.0,402.0
2022-02-09-17:20:25.804032,3.0,6.0,402.0
2022-02-09-17:20:25.805062,6.0,1.0,402.0
2022-02-09-17:20:25.806056,6.0,8.0,402.0
2022-02-09-17:20:25.807059,6.0,8.0,402.0
2022-02-09-17:20:25.808051,6.0,8.0,402.0
2022-02-09-17:20:25.809048,6.0,7.0,402.0
2022-02-09-17:20:25.809990,6.0,7.0,402.0
2022-02-09-17:20:25.810987,6.0,2.0,403.0
2022-02-09-17:20:25.811985,6.0,2.0,403.0
2022-02-09-17:20:25.812995,1.0,3.0,403.0
2022-02-09-17:20:25.814018,5.0,11.0,402.0
2022-02-09-17:20:25.815012,5.0,11.0,402.0
2022-02-09-17:20:25.816007,5.0,11.0,402.0
2022-02-09-17:20:25.817005,5.0,11.0,402.0
2022-02-09-17:20:25.818003,2.0,8.0,403.0
2022-02-09-17:20:25.819006,2.0,8.0,403.0
2022-02-09-17:20:25.820963,2.0,8.0,403.0
2022-02-09-17:20:25.820963,5.0,7.0,403.0
2022-02-09-17:20:25.821958,3.0,8.0,402.0
2022-02-09-17:20:25.822992,2.0,4.0,403.0
2022-02-09-17:20:25.824012,2.0,4.0,403.0
2022-02-09-17:20:25.825006,2.0,4.0,403.0
2022-02-09-17:20:25.825982,2.0,4.0,403.0
2022-02-09-17:20:25.826980,8.0,8.0,402.0
2022-02-09-17:20:25.827976,4.0,5.0,403.0
2022-02-09-17:20:25.828971,4.0,5.0,403.0
2022-02-09-17:20:25.830211,0.0,11.0,403.0
2022-02-09-17:20:25.830211,6.0,8.0,403.0
2022-02-09-17:20:25.831210,6.0,8.0,403.0
2022-02-09-17:20:25.832208,6.0,8.0,403.0
2022-02-09-17:20:25.833205,6.0,8.0,403.0
2022-02-09-17:20:25.834202,2.0,13.0,403.0
2022-02-09-17:20:25.835199,7.0,8.0,403.0
2022-02-09-17:20:25.836198,7.0,8.0,403.0
2022-02-09-17:20:25.837195,7.0,8.0,403.0
2022-02-09-17:20:25.838192,2.0,5.0,403.0
2022-02-09-17:20:25.839189,3.0,0.0,403.0
2022-02-09-17:20:25.840186,3.0,0.0,403.0
2022-02-09-17:20:25.841184,3.0,0.0,403.0
2022-02-09-17:20:25.842214,6.0,15.0,403.0
2022-02-09-17:20:25.843179,5.0,8.0,402.0
2022-02-09-17:20:25.844176,5.0,8.0,402.0
2022-02-09-17:20:25.845173,5.0,8.0,402.0
2022-02-09-17:20:25.846170,2.0,12.0,402.0
2022-02-09-17:20:25.847168,3.0,10.0,403.0
2022-02-09-17:20:25.848165,3.0,10.0,403.0
2022-02-09-17:20:25.849162,3.0,10.0,403.0
2022-02-09-17:20:25.850160,5.0,10.0,403.0
2022-02-09-17:20:25.851157,4.0,10.0,403.0
2022-02-09-17:20:25.852154,4.0,10.0,403.0
2022-02-09-17:20:25.853152,4.0,10.0,403.0
2022-02-09-17:20:25.855148,5.0,4.0,402.0
2022-02-09-17:20:25.855148,5.0,4.0,402.0
2022-02-09-17:20:25.856176,5.0,4.0,402.0
2022-02-09-17:20:25.857141,5.0,4.0,402.0
2022-02-09-17:20:25.858171,5.0,10.0,403.0
2022-02-09-17:20:25.859136,5.0,11.0,403.0
2022-02-09-17:20:25.860133,5.0,11.0,403.0
2022-02-09-17:20:25.861130,5.0,11.0,403.0
2022-02-09-17:20:25.862128,5.0,11.0,403.0
2022-02-09-17:20:25.863157,3.0,14.0,402.0
2022-02-09-17:20:25.864122,3.0,14.0,402.0
2022-02-09-17:20:25.865120,3.0,14.0,402.0
2022-02-09-17:20:25.866117,3.0,14.0,402.0
2022-02-09-17:20:25.867149,3.0,8.0,402.0
2022-02-09-17:20:25.868112,3.0,8.0,402.0
2022-02-09-17:20:25.869109,3.0,8.0,402.0
2022-02-09-17:20:25.870106,3.0,8.0,402.0
2022-02-09-17:20:25.871136,4.0,2.0,402.0
2022-02-09-17:20:25.872101,4.0,2.0,402.0
2022-02-09-17:20:25.873098,4.0,2.0,402.0
2022-02-09-17:20:25.874096,4.0,2.0,402.0
2022-02-09-17:20:25.875093,3.0,9.0,403.0
2022-02-09-17:20:25.876090,3.0,6.0,402.0
2022-02-09-17:20:25.877088,3.0,6.0,402.0
2022-02-09-17:20:25.878085,3.0,6.0,402.0
2022-02-09-17:20:25.879082,4.0,8.0,402.0
2022-02-09-17:20:25.880080,4.0,12.0,402.0
2022-02-09-17:20:25.881248,4.0,12.0,402.0
2022-02-09-17:20:25.881502,4.0,12.0,402.0
2022-02-09-17:20:25.881502,4.0,12.0,402.0
2022-02-09-17:20:25.882658,4.0,12.0,402.0
2022-02-09-17:20:25.882829,3.0,10.0,403.0
2022-02-09-17:20:25.882829,8.0,10.0,403.0
2022-02-09-17:20:25.883861,8.0,10.0,403.0
2022-02-09-17:20:25.884861,8.0,10.0,403.0
2022-02-09-17:20:25.885856,8.0,10.0,403.0
2022-02-09-17:20:25.886861,4.0,10.0,402.0
2022-02-09-17:20:25.887854,2.0,1.0,403.0
2022-02-09-17:20:25.889847,2.0,1.0,403.0
2022-02-09-17:20:25.889847,2.0,1.0,403.0
2022-02-09-17:20:25.890842,8.0,8.0,403.0
2022-02-09-17:20:25.891816,8.0,8.0,403.0
2022-02-09-17:20:25.892808,8.0,8.0,403.0
2022-02-09-17:20:25.893807,8.0,8.0,403.0
2022-02-09-17:20:25.894800,8.0,8.0,403.0
2022-02-09-17:20:25.895797,8.0,7.0,403.0
2022-02-09-17:20:25.896826,5.0,13.0,402.0
2022-02-09-17:20:25.897792,5.0,13.0,402.0
2022-02-09-17:20:25.898822,5.0,13.0,402.0
2022-02-09-17:20:25.899818,2.0,11.0,403.0
2022-02-09-17:20:25.900818,3.0,8.0,403.0
2022-02-09-17:20:25.901813,3.0,8.0,403.0
2022-02-09-17:20:25.902810,3.0,8.0,403.0
2022-02-09-17:20:25.903812,5.0,8.0,402.0
2022-02-09-17:20:25.904805,3.0,3.0,403.0
2022-02-09-17:20:25.905805,3.0,3.0,403.0
2022-02-09-17:20:25.906801,3.0,3.0,403.0
2022-02-09-17:20:25.907797,9.0,13.0,402.0
2022-02-09-17:20:25.908797,6.0,10.0,402.0
2022-02-09-17:20:25.909791,6.0,10.0,402.0
2022-02-09-17:20:25.910789,6.0,10.0,402.0
2022-02-09-17:20:25.911790,5.0,6.0,403.0
2022-02-09-17:20:25.912784,2.0,14.0,403.0
2022-02-09-17:20:25.913784,2.0,14.0,403.0
2022-02-09-17:20:25.914747,2.0,14.0,403.0
2022-02-09-17:20:25.915776,4.0,10.0,402.0
2022-02-09-17:20:25.916775,2.0,11.0,403.0
2022-02-09-17:20:25.917771,2.0,11.0,403.0
2022-02-09-17:20:25.918736,2.0,11.0,403.0
2022-02-09-17:20:25.919769,4.0,6.0,403.0
2022-02-09-17:20:25.920762,4.0,5.0,402.0
2022-02-09-17:20:25.922725,4.0,5.0,402.0
2022-02-09-17:20:25.922725,4.0,5.0,402.0
2022-02-09-17:20:25.923723,7.0,7.0,403.0
2022-02-09-17:20:25.924754,7.0,7.0,403.0
2022-02-09-17:20:25.925751,7.0,7.0,403.0
2022-02-09-17:20:25.926747,7.0,7.0,403.0
2022-02-09-17:20:25.927748,2.0,11.0,403.0
2022-02-09-17:20:25.928741,5.0,11.0,403.0
2022-02-09-17:20:25.929741,5.0,11.0,403.0
2022-02-09-17:20:25.930736,5.0,11.0,403.0
2022-02-09-17:20:25.931734,1.0,14.0,402.0
2022-02-09-17:20:25.932740,7.0,9.0,402.0
2022-02-09-17:20:25.933728,7.0,9.0,402.0
2022-02-09-17:20:25.934725,7.0,9.0,402.0
2022-02-09-17:20:25.935691,7.0,9.0,402.0
2022-02-09-17:20:25.936720,2.0,8.0,403.0
2022-02-09-17:20:25.937721,5.0,10.0,402.0
2022-02-09-17:20:25.938714,5.0,10.0,402.0
2022-02-09-17:20:25.939712,2.0,1.0,403.0
2022-02-09-17:20:25.940712,4.0,9.0,402.0
2022-02-09-17:20:25.941707,4.0,9.0,402.0
2022-02-09-17:20:25.942672,4.0,9.0,402.0
2022-02-09-17:20:25.943705,4.0,9.0,402.0
2022-02-09-17:20:25.944699,3.0,8.0,402.0
2022-02-09-17:20:25.945698,4.0,13.0,402.0
2022-02-09-17:20:25.946698,4.0,13.0,402.0
2022-02-09-17:20:25.947691,4.0,13.0,402.0
2022-02-09-17:20:25.948690,5.0,11.0,403.0
2022-02-09-17:20:25.949686,5.0,9.0,403.0
2022-02-09-17:20:25.950651,5.0,9.0,403.0
2022-02-09-17:20:25.951685,5.0,9.0,403.0
2022-02-09-17:20:25.952683,4.0,12.0,402.0
2022-02-09-17:20:25.953677,7.0,8.0,403.0
2022-02-09-17:20:25.954672,7.0,8.0,403.0
2022-02-09-17:20:25.955637,7.0,8.0,403.0
2022-02-09-17:20:25.957664,3.0,10.0,403.0
2022-02-09-17:20:25.957664,3.0,10.0,403.0
2022-02-09-17:20:25.958661,3.0,10.0,403.0
2022-02-09-17:20:25.959627,3.0,10.0,403.0
2022-02-09-17:20:25.960656,7.0,1.0,402.0
2022-02-09-17:20:25.961656,4.0,10.0,402.0
2022-02-09-17:20:25.962638,4.0,10.0,402.0
2022-02-09-17:20:25.963648,4.0,10.0,402.0
2022-02-09-17:20:25.964648,1.0,13.0,403.0
2022-02-09-17:20:25.965643,1.0,13.0,403.0
2022-02-09-17:20:25.966641,1.0,13.0,403.0
2022-02-09-17:20:25.967641,1.0,13.0,403.0
2022-02-09-17:20:25.968634,9.0,8.0,403.0
2022-02-09-17:20:25.969634,4.0,8.0,402.0
2022-02-09-17:20:25.970629,4.0,8.0,402.0
2022-02-09-17:20:25.971627,4.0,8.0,402.0
2022-02-09-17:20:25.972627,3.0,7.0,403.0
2022-02-09-17:20:25.973621,9.0,9.0,402.0
2022-02-09-17:20:25.974619,9.0,9.0,402.0
2022-02-09-17:20:25.975620,9.0,9.0,402.0
2022-02-09-17:20:25.976613,9.0,9.0,402.0
2022-02-09-17:20:25.977613,9.0,0.0,402.0
2022-02-09-17:20:25.978608,0.0,8.0,403.0
2022-02-09-17:20:25.979574,0.0,8.0,403.0
2022-02-09-17:20:25.980605,0.0,8.0,403.0
2022-02-09-17:20:25.981600,3.0,13.0,402.0
2022-02-09-17:20:25.982598,3.0,13.0,402.0
2022-02-09-17:20:25.983599,3.0,13.0,402.0
2022-02-09-17:20:25.984592,3.0,13.0,402.0
2022-02-09-17:20:25.985591,5.0,10.0,402.0
2022-02-09-17:20:25.986594,4.0,9.0,402.0
2022-02-09-17:20:25.987584,4.0,9.0,402.0
2022-02-09-17:20:25.988583,4.0,9.0,402.0
2022-02-09-17:20:25.990577,4.0,9.0,402.0
2022-02-09-17:20:25.990577,4.0,9.0,402.0
2022-02-09-17:20:25.991577,4.0,9.0,402.0
2022-02-09-17:20:25.992539,4.0,9.0,402.0
2022-02-09-17:20:25.993792,8.0,5.0,403.0
2022-02-09-17:20:25.993792,8.0,8.0,403.0
2022-02-09-17:20:25.994825,8.0,8.0,403.0
2022-02-09-17:20:25.995791,8.0,8.0,403.0
2022-02-09-17:20:25.996788,8.0,8.0,403.0
2022-02-09-17:20:25.997783,3.0,16.0,403.0
2022-02-09-17:20:25.998783,3.0,12.0,402.0
2022-02-09-17:20:25.999780,3.0,12.0,402.0
2022-02-09-17:20:26.000777,3.0,12.0,402.0
2022-02-09-17:20:26.001775,4.0,12.0,402.0
2022-02-09-17:20:26.002772,2.0,11.0,403.0
2022-02-09-17:20:26.003770,2.0,11.0,403.0
2022-02-09-17:20:26.004767,2.0,11.0,403.0
2022-02-09-17:20:26.005764,4.0,6.0,402.0
2022-02-09-17:20:26.006761,9.0,6.0,402.0
2022-02-09-17:20:26.007814,9.0,6.0,402.0
2022-02-09-17:20:26.008810,9.0,6.0,402.0
2022-02-09-17:20:26.009754,7.0,4.0,402.0
2022-02-09-17:20:26.010751,7.0,4.0,402.0
2022-02-09-17:20:26.011748,7.0,4.0,402.0
2022-02-09-17:20:26.012745,7.0,4.0,402.0
2022-02-09-17:20:26.013776,7.0,4.0,402.0
2022-02-09-17:20:26.014740,5.0,13.0,403.0
2022-02-09-17:20:26.015737,5.0,13.0,403.0
2022-02-09-17:20:26.016735,5.0,13.0,403.0
2022-02-09-17:20:26.017732,5.0,13.0,403.0
2022-02-09-17:20:26.018730,7.0,11.0,402.0
2022-02-09-17:20:26.019727,7.0,11.0,402.0
2022-02-09-17:20:26.020724,7.0,11.0,402.0
2022-02-09-17:20:26.021754,7.0,11.0,402.0
2022-02-09-17:20:26.022719,5.0,3.0,403.0
2022-02-09-17:20:26.023716,6.0,6.0,403.0
2022-02-09-17:20:26.025710,6.0,6.0,403.0
2022-02-09-17:20:26.025710,4.0,4.0,403.0
2022-02-09-17:20:26.026708,4.0,4.0,403.0
2022-02-09-17:20:26.027706,4.0,4.0,403.0
2022-02-09-17:20:26.028735,4.0,4.0,403.0
2022-02-09-17:20:26.029700,4.0,4.0,403.0
2022-02-09-17:20:26.030697,0.0,13.0,402.0
2022-02-09-17:20:26.031696,5.0,14.0,403.0
2022-02-09-17:20:26.032723,5.0,14.0,403.0
2022-02-09-17:20:26.033690,5.0,14.0,403.0
2022-02-09-17:20:26.034687,3.0,11.0,403.0
2022-02-09-17:20:26.035684,5.0,12.0,402.0
2022-02-09-17:20:26.036681,5.0,12.0,402.0
2022-02-09-17:20:26.037679,5.0,12.0,402.0
2022-02-09-17:20:26.038676,3.0,7.0,402.0
2022-02-09-17:20:26.039731,5.0,1.0,403.0
2022-02-09-17:20:26.040621,5.0,1.0,403.0
2022-02-09-17:20:26.040621,5.0,1.0,403.0
2022-02-09-17:20:26.041620,5.0,1.0,403.0
2022-02-09-17:20:26.042617,6.0,7.0,402.0
2022-02-09-17:20:26.043615,9.0,2.0,403.0
2022-02-09-17:20:26.044612,9.0,2.0,403.0
2022-02-09-17:20:26.045609,9.0,2.0,403.0
2022-02-09-17:20:26.046646,2.0,17.0,403.0
2022-02-09-17:20:26.046646,3.0,15.0,403.0
2022-02-09-17:20:26.047646,3.0,15.0,403.0
2022-02-09-17:20:26.048644,3.0,15.0,403.0
2022-02-09-17:20:26.049641,3.0,15.0,403.0
2022-02-09-17:20:26.050638,3.0,15.0,403.0
2022-02-09-17:20:26.051635,6.0,13.0,403.0
2022-02-09-17:20:26.052667,5.0,12.0,403.0
2022-02-09-17:20:26.053630,5.0,12.0,403.0
2022-02-09-17:20:26.054628,5.0,12.0,403.0
2022-02-09-17:20:26.055625,6.0,12.0,403.0
2022-02-09-17:20:26.056623,4.0,2.0,403.0
2022-02-09-17:20:26.057620,8.0,5.0,403.0
2022-02-09-17:20:26.059615,11.0,8.0,402.0
2022-02-09-17:20:26.060420,4.0,4.0,403.0
2022-02-09-17:20:26.060519,4.0,4.0,403.0
2022-02-09-17:20:26.060918,4.0,4.0,403.0
2022-02-09-17:20:26.060918,4.0,4.0,403.0
2022-02-09-17:20:26.062092,4.0,4.0,403.0
2022-02-09-17:20:26.062092,6.0,10.0,403.0
2022-02-09-17:20:26.063126,6.0,10.0,403.0
2022-02-09-17:20:26.064088,6.0,10.0,403.0
2022-02-09-17:20:26.065086,6.0,10.0,403.0
2022-02-09-17:20:26.066136,6.0,10.0,403.0
2022-02-09-17:20:26.067084,7.0,10.0,402.0
2022-02-09-17:20:26.068114,6.0,12.0,402.0
2022-02-09-17:20:26.069107,6.0,12.0,402.0
2022-02-09-17:20:26.070105,6.0,12.0,402.0
2022-02-09-17:20:26.071102,2.0,9.0,402.0
2022-02-09-17:20:26.072099,7.0,4.0,403.0
2022-02-09-17:20:26.073097,7.0,4.0,403.0
2022-02-09-17:20:26.074094,7.0,4.0,403.0
2022-02-09-17:20:26.075093,7.0,4.0,403.0
2022-02-09-17:20:26.076094,7.0,6.0,402.0
2022-02-09-17:20:26.077086,7.0,6.0,402.0
2022-02-09-17:20:26.078084,7.0,6.0,402.0
2022-02-09-17:20:26.079081,7.0,6.0,402.0
2022-02-09-17:20:26.080080,5.0,15.0,402.0
2022-02-09-17:20:26.081079,6.0,13.0,402.0
2022-02-09-17:20:26.082075,6.0,13.0,402.0
2022-02-09-17:20:26.083072,6.0,13.0,402.0
2022-02-09-17:20:26.084070,8.0,14.0,402.0
2022-02-09-17:20:26.085066,6.0,13.0,403.0
2022-02-09-17:20:26.086063,6.0,13.0,403.0
2022-02-09-17:20:26.087062,6.0,13.0,403.0
2022-02-09-17:20:26.088058,2.0,11.0,402.0
2022-02-09-17:20:26.089058,5.0,1.0,402.0
2022-02-09-17:20:26.090054,5.0,1.0,402.0
2022-02-09-17:20:26.091021,5.0,1.0,402.0
2022-02-09-17:20:26.093046,5.0,1.0,402.0
2022-02-09-17:20:26.093046,5.0,4.0,403.0
2022-02-09-17:20:26.094042,5.0,4.0,403.0
2022-02-09-17:20:26.095006,5.0,4.0,403.0
2022-02-09-17:20:26.096004,4.0,14.0,403.0
2022-02-09-17:20:26.097036,3.0,14.0,402.0
2022-02-09-17:20:26.098034,3.0,14.0,402.0
2022-02-09-17:20:26.098997,3.0,14.0,402.0
2022-02-09-17:20:26.100027,4.0,12.0,402.0
2022-02-09-17:20:26.101023,7.0,13.0,403.0
2022-02-09-17:20:26.102021,7.0,13.0,403.0
2022-02-09-17:20:26.102986,7.0,13.0,403.0
2022-02-09-17:20:26.104016,4.0,3.0,403.0
2022-02-09-17:20:26.105015,6.0,3.0,403.0
2022-02-09-17:20:26.106011,6.0,3.0,403.0
2022-02-09-17:20:26.107011,6.0,3.0,403.0
2022-02-09-17:20:26.108011,4.0,1.0,402.0
2022-02-09-17:20:26.109002,4.0,1.0,402.0
2022-02-09-17:20:26.110000,4.0,1.0,402.0
2022-02-09-17:20:26.111002,4.0,1.0,402.0
2022-02-09-17:20:26.111995,1.0,16.0,402.0
2022-02-09-17:20:26.112984,5.0,17.0,402.0
2022-02-09-17:20:26.113990,5.0,17.0,402.0
2022-02-09-17:20:26.114953,5.0,17.0,402.0
2022-02-09-17:20:26.116117,5.0,17.0,402.0
2022-02-09-17:20:26.116117,4.0,20.0,403.0
2022-02-09-17:20:26.117294,5.0,15.0,402.0
2022-02-09-17:20:26.117294,5.0,15.0,402.0
2022-02-09-17:20:26.118293,5.0,15.0,402.0
2022-02-09-17:20:26.119324,5.0,15.0,402.0
2022-02-09-17:20:26.119593,5.0,15.0,402.0
2022-02-09-17:20:26.120026,6.0,3.0,403.0
2022-02-09-17:20:26.120026,6.0,3.0,403.0
2022-02-09-17:20:26.121025,6.0,3.0,403.0
2022-02-09-17:20:26.122022,6.0,3.0,403.0
2022-02-09-17:20:26.123020,6.0,3.0,403.0
2022-02-09-17:20:26.124017,6.0,3.0,403.0
2022-02-09-17:20:26.126011,4.0,3.0,402.0
2022-02-09-17:20:26.126011,6.0,3.0,403.0
2022-02-09-17:20:26.127009,6.0,3.0,403.0
2022-02-09-17:20:26.128006,6.0,3.0,403.0
2022-02-09-17:20:26.129003,0.0,16.0,402.0
2022-02-09-17:20:26.130001,2.0,20.0,402.0
2022-02-09-17:20:26.130998,2.0,20.0,402.0
2022-02-09-17:20:26.131995,2.0,20.0,402.0
2022-02-09-17:20:26.132993,5.0,21.0,403.0
2022-02-09-17:20:26.133990,5.0,19.0,403.0
2022-02-09-17:20:26.134988,5.0,19.0,403.0
2022-02-09-17:20:26.135985,5.0,19.0,403.0
2022-02-09-17:20:26.137020,4.0,18.0,402.0
2022-02-09-17:20:26.137980,6.0,10.0,402.0
2022-02-09-17:20:26.139012,6.0,10.0,402.0
2022-02-09-17:20:26.139974,6.0,10.0,402.0
2022-02-09-17:20:26.140972,6.0,2.0,403.0
2022-02-09-17:20:26.141969,2.0,0.0,403.0
2022-02-09-17:20:26.142966,2.0,0.0,403.0
2022-02-09-17:20:26.143964,2.0,0.0,403.0
2022-02-09-17:20:26.144961,2.0,18.0,403.0
2022-02-09-17:20:26.145958,1.0,18.0,402.0
2022-02-09-17:20:26.146955,1.0,18.0,402.0
2022-02-09-17:20:26.147952,1.0,18.0,402.0
2022-02-09-17:20:26.148950,2.0,16.0,403.0
2022-02-09-17:20:26.149947,2.0,16.0,403.0
2022-02-09-17:20:26.150944,2.0,16.0,403.0
2022-02-09-17:20:26.151942,2.0,16.0,403.0
2022-02-09-17:20:26.152939,2.0,16.0,403.0
2022-02-09-17:20:26.153937,2.0,10.0,403.0
2022-02-09-17:20:26.154934,2.0,10.0,403.0
2022-02-09-17:20:26.155931,2.0,10.0,403.0
2022-02-09-17:20:26.156928,2.0,10.0,403.0
2022-02-09-17:20:26.157926,4.0,9.0,403.0
2022-02-09-17:20:26.159920,6.0,7.0,403.0
2022-02-09-17:20:26.159920,6.0,7.0,403.0
2022-02-09-17:20:26.160918,3.0,8.0,402.0
2022-02-09-17:20:26.161915,3.0,8.0,402.0
2022-02-09-17:20:26.162913,3.0,8.0,402.0
2022-02-09-17:20:26.163910,3.0,8.0,402.0
2022-02-09-17:20:26.164907,3.0,8.0,402.0
2022-02-09-17:20:26.165904,1.0,7.0,403.0
2022-02-09-17:20:26.166902,5.0,8.0,402.0
2022-02-09-17:20:26.167899,5.0,8.0,402.0
2022-02-09-17:20:26.168897,5.0,8.0,402.0
2022-02-09-17:20:26.169894,10.0,15.0,403.0
2022-02-09-17:20:26.170891,3.0,11.0,403.0
2022-02-09-17:20:26.171889,3.0,11.0,403.0
2022-02-09-17:20:26.172886,3.0,11.0,403.0
2022-02-09-17:20:26.173883,8.0,13.0,402.0
2022-02-09-17:20:26.174881,8.0,13.0,402.0
2022-02-09-17:20:26.175878,8.0,13.0,402.0
2022-02-09-17:20:26.176875,8.0,13.0,402.0
2022-02-09-17:20:26.177873,2.0,8.0,402.0
2022-02-09-17:20:26.178870,2.0,11.0,402.0
2022-02-09-17:20:26.179868,2.0,11.0,402.0
2022-02-09-17:20:26.180865,2.0,11.0,402.0
2022-02-09-17:20:26.181862,2.0,12.0,402.0
2022-02-09-17:20:26.182860,8.0,11.0,403.0
2022-02-09-17:20:26.183857,8.0,11.0,403.0
2022-02-09-17:20:26.184854,8.0,11.0,403.0
2022-02-09-17:20:26.185851,4.0,11.0,403.0
2022-02-09-17:20:26.186849,6.0,8.0,402.0
2022-02-09-17:20:26.187846,6.0,8.0,402.0
2022-02-09-17:20:26.188844,6.0,8.0,402.0
2022-02-09-17:20:26.189841,4.0,1.0,402.0
2022-02-09-17:20:26.190873,4.0,4.0,403.0
2022-02-09-17:20:26.191837,4.0,4.0,403.0
2022-02-09-17:20:26.192834,4.0,4.0,403.0
2022-02-09-17:20:26.194966,4.0,4.0,403.0
2022-02-09-17:20:26.195805,6.0,0.0,403.0
2022-02-09-17:20:26.195805,3.0,16.0,402.0
2022-02-09-17:20:26.196839,3.0,16.0,402.0
2022-02-09-17:20:26.197857,3.0,16.0,402.0
2022-02-09-17:20:26.198799,6.0,9.0,402.0
2022-02-09-17:20:26.199906,6.0,9.0,402.0
2022-02-09-17:20:26.199906,6.0,9.0,402.0
2022-02-09-17:20:26.200906,6.0,9.0,402.0
2022-02-09-17:20:26.201943,6.0,9.0,402.0
2022-02-09-17:20:26.202935,5.0,9.0,402.0
2022-02-09-17:20:26.203932,2.0,4.0,403.0
2022-02-09-17:20:26.204931,2.0,4.0,403.0
2022-02-09-17:20:26.205930,2.0,4.0,403.0
2022-02-09-17:20:26.206926,9.0,12.0,403.0
2022-02-09-17:20:26.207923,9.0,12.0,403.0
2022-02-09-17:20:26.208939,9.0,12.0,403.0
2022-02-09-17:20:26.209939,9.0,12.0,403.0
2022-02-09-17:20:26.210914,10.0,3.0,403.0
2022-02-09-17:20:26.211917,3.0,11.0,403.0
2022-02-09-17:20:26.212909,3.0,11.0,403.0
2022-02-09-17:20:26.213912,3.0,11.0,403.0
2022-02-09-17:20:26.214902,2.0,13.0,403.0
2022-02-09-17:20:26.215899,2.0,13.0,403.0
2022-02-09-17:20:26.216896,2.0,13.0,403.0
2022-02-09-17:20:26.217894,2.0,13.0,403.0
2022-02-09-17:20:26.218893,4.0,9.0,402.0
2022-02-09-17:20:26.219889,1.0,11.0,403.0
2022-02-09-17:20:26.220886,1.0,11.0,403.0
2022-02-09-17:20:26.221884,1.0,11.0,403.0
2022-02-09-17:20:26.222881,9.0,13.0,403.0
2022-02-09-17:20:26.223878,9.0,13.0,403.0
2022-02-09-17:20:26.224875,9.0,13.0,403.0
2022-02-09-17:20:26.225873,9.0,13.0,403.0
2022-02-09-17:20:26.227889,2.0,7.0,402.0
2022-02-09-17:20:26.227889,2.0,7.0,402.0
2022-02-09-17:20:26.228865,2.0,7.0,402.0
2022-02-09-17:20:26.229889,2.0,7.0,402.0
2022-02-09-17:20:26.230887,10.0,11.0,403.0
2022-02-09-17:20:26.231835,10.0,11.0,403.0
2022-02-09-17:20:26.232821,10.0,11.0,403.0
2022-02-09-17:20:26.233819,10.0,11.0,403.0
2022-02-09-17:20:26.234817,10.0,11.0,403.0
2022-02-09-17:20:26.235847,3.0,9.0,402.0
2022-02-09-17:20:26.236844,2.0,9.0,402.0
2022-02-09-17:20:26.237841,2.0,9.0,402.0
2022-02-09-17:20:26.238839,2.0,9.0,402.0
2022-02-09-17:20:26.239842,5.0,7.0,403.0
2022-02-09-17:20:26.240799,8.0,13.0,403.0
2022-02-09-17:20:26.241797,8.0,13.0,403.0
2022-02-09-17:20:26.242829,8.0,13.0,403.0
2022-02-09-17:20:26.243825,7.0,2.0,403.0
2022-02-09-17:20:26.244822,7.0,2.0,403.0
2022-02-09-17:20:26.245821,7.0,2.0,403.0
2022-02-09-17:20:26.246818,7.0,2.0,403.0
2022-02-09-17:20:26.247814,1.0,9.0,402.0
2022-02-09-17:20:26.248811,4.0,4.0,403.0
2022-02-09-17:20:26.249810,4.0,4.0,403.0
2022-02-09-17:20:26.250827,4.0,4.0,403.0
2022-02-09-17:20:26.251825,2.0,3.0,403.0
2022-02-09-17:20:26.252822,5.0,2.0,402.0
2022-02-09-17:20:26.253821,5.0,2.0,402.0
2022-02-09-17:20:26.254818,5.0,2.0,402.0
2022-02-09-17:20:26.255818,4.0,2.0,402.0
2022-02-09-17:20:26.256790,8.0,19.0,403.0
2022-02-09-17:20:26.257810,8.0,19.0,403.0
2022-02-09-17:20:26.258806,8.0,19.0,403.0
2022-02-09-17:20:26.260800,8.0,7.0,403.0
2022-02-09-17:20:26.260800,8.0,7.0,403.0
2022-02-09-17:20:26.261798,8.0,7.0,403.0
2022-02-09-17:20:26.262790,8.0,7.0,403.0
2022-02-09-17:20:26.263772,5.0,4.0,403.0
2022-02-09-17:20:26.264795,3.0,3.0,402.0
2022-02-09-17:20:26.265788,3.0,3.0,402.0
2022-02-09-17:20:26.266785,3.0,3.0,402.0
2022-02-09-17:20:26.267783,5.0,5.0,402.0
2022-02-09-17:20:26.268780,5.0,5.0,402.0
2022-02-09-17:20:26.269777,5.0,5.0,402.0
2022-02-09-17:20:26.270775,5.0,5.0,402.0
2022-02-09-17:20:26.271772,12.0,5.0,402.0
2022-02-09-17:20:26.272774,4.0,11.0,403.0
2022-02-09-17:20:26.273767,4.0,11.0,403.0
2022-02-09-17:20:26.274770,4.0,11.0,403.0
2022-02-09-17:20:26.275767,4.0,11.0,403.0
2022-02-09-17:20:26.276704,8.0,7.0,403.0
2022-02-09-17:20:26.277757,8.0,7.0,403.0
2022-02-09-17:20:26.278754,8.0,7.0,403.0
2022-02-09-17:20:26.279706,8.0,7.0,403.0
2022-02-09-17:20:26.280753,5.0,10.0,402.0
2022-02-09-17:20:26.281745,1.0,8.0,402.0
2022-02-09-17:20:26.282743,1.0,8.0,402.0
2022-02-09-17:20:26.283740,1.0,8.0,402.0
2022-02-09-17:20:26.284738,6.0,2.0,403.0
2022-02-09-17:20:26.285735,6.0,1.0,403.0
2022-02-09-17:20:26.286733,6.0,1.0,403.0
2022-02-09-17:20:26.287731,6.0,1.0,403.0
2022-02-09-17:20:26.288726,5.0,1.0,403.0
2022-02-09-17:20:26.289724,5.0,15.0,403.0
2022-02-09-17:20:26.290722,5.0,15.0,403.0
2022-02-09-17:20:26.291719,5.0,15.0,403.0
2022-02-09-17:20:26.292716,8.0,15.0,403.0
2022-02-09-17:20:26.293713,4.0,6.0,403.0
2022-02-09-17:20:26.295708,4.0,6.0,403.0
2022-02-09-17:20:26.295708,4.0,6.0,403.0
2022-02-09-17:20:26.296697,3.0,12.0,403.0
2022-02-09-17:20:26.297647,3.0,12.0,403.0
2022-02-09-17:20:26.298645,3.0,12.0,403.0
2022-02-09-17:20:26.299703,3.0,12.0,403.0
2022-02-09-17:20:26.300909,4.0,8.0,403.0
2022-02-09-17:20:26.301212,2.0,9.0,403.0
2022-02-09-17:20:26.301212,2.0,9.0,403.0
2022-02-09-17:20:26.302416,2.0,9.0,403.0
2022-02-09-17:20:26.302416,2.0,9.0,403.0
2022-02-09-17:20:26.303603,2.0,9.0,403.0
2022-02-09-17:20:26.303603,2.0,9.0,403.0
2022-02-09-17:20:26.304602,2.0,9.0,403.0
2022-02-09-17:20:26.305600,5.0,6.0,403.0
2022-02-09-17:20:26.306623,5.0,6.0,403.0
2022-02-09-17:20:26.307594,5.0,6.0,403.0
2022-02-09-17:20:26.308592,5.0,6.0,403.0
2022-02-09-17:20:26.309589,7.0,14.0,403.0
2022-02-09-17:20:26.310618,6.0,3.0,403.0
2022-02-09-17:20:26.311619,6.0,3.0,403.0
2022-02-09-17:20:26.312581,6.0,8.0,403.0
2022-02-09-17:20:26.313579,3.0,13.0,402.0
2022-02-09-17:20:26.314576,3.0,13.0,402.0
2022-02-09-17:20:26.315573,3.0,13.0,402.0
2022-02-09-17:20:26.316570,3.0,13.0,402.0
2022-02-09-17:20:26.317568,6.0,11.0,403.0
2022-02-09-17:20:26.318565,3.0,9.0,403.0
2022-02-09-17:20:26.319562,3.0,9.0,403.0
2022-02-09-17:20:26.320560,3.0,9.0,403.0
2022-02-09-17:20:26.321557,6.0,5.0,403.0
2022-02-09-17:20:26.322554,5.0,5.0,403.0
2022-02-09-17:20:26.323552,5.0,5.0,403.0
2022-02-09-17:20:26.324549,5.0,5.0,403.0
2022-02-09-17:20:26.325546,7.0,9.0,403.0
2022-02-09-17:20:26.326544,5.0,3.0,403.0
2022-02-09-17:20:26.328540,5.0,3.0,403.0
2022-02-09-17:20:26.328540,5.0,3.0,403.0
2022-02-09-17:20:26.329535,5.0,3.0,403.0
2022-02-09-17:20:26.330533,3.0,11.0,403.0
2022-02-09-17:20:26.331530,3.0,11.0,403.0
2022-02-09-17:20:26.332528,3.0,11.0,403.0
2022-02-09-17:20:26.333525,4.0,10.0,403.0
2022-02-09-17:20:26.334522,4.0,6.0,402.0
2022-02-09-17:20:26.335520,4.0,6.0,402.0
2022-02-09-17:20:26.336517,4.0,6.0,402.0
2022-02-09-17:20:26.337514,5.0,13.0,403.0
2022-02-09-17:20:26.338512,7.0,3.0,403.0
2022-02-09-17:20:26.339509,7.0,3.0,403.0
2022-02-09-17:20:26.340506,7.0,3.0,403.0
2022-02-09-17:20:26.341504,9.0,9.0,403.0
2022-02-09-17:20:26.342501,4.0,5.0,403.0
2022-02-09-17:20:26.343498,4.0,5.0,403.0
2022-02-09-17:20:26.344528,4.0,5.0,403.0
2022-02-09-17:20:26.345528,3.0,11.0,402.0
2022-02-09-17:20:26.346490,3.0,11.0,402.0
2022-02-09-17:20:26.347490,3.0,11.0,402.0
2022-02-09-17:20:26.348485,3.0,11.0,402.0
2022-02-09-17:20:26.349482,3.0,11.0,402.0
2022-02-09-17:20:26.350514,2.0,7.0,403.0
2022-02-09-17:20:26.350884,2.0,7.0,403.0
2022-02-09-17:20:26.350884,2.0,7.0,403.0
2022-02-09-17:20:26.351900,2.0,7.0,403.0
2022-02-09-17:20:26.353107,2.0,7.0,403.0
2022-02-09-17:20:26.353107,7.0,5.0,402.0
2022-02-09-17:20:26.354107,6.0,5.0,403.0
2022-02-09-17:20:26.355104,6.0,5.0,403.0
2022-02-09-17:20:26.356102,6.0,5.0,403.0
2022-02-09-17:20:26.357099,6.0,5.0,403.0
2022-02-09-17:20:26.358097,5.0,7.0,403.0
2022-02-09-17:20:26.359094,5.0,7.0,403.0
2022-02-09-17:20:26.360091,5.0,7.0,403.0
2022-02-09-17:20:26.361089,5.0,7.0,403.0
2022-02-09-17:20:26.363277,4.0,18.0,403.0
2022-02-09-17:20:26.363277,4.0,18.0,403.0
2022-02-09-17:20:26.364309,4.0,18.0,403.0
2022-02-09-17:20:26.365306,4.0,18.0,403.0
2022-02-09-17:20:26.365306,2.0,13.0,403.0
2022-02-09-17:20:26.366435,5.0,13.0,402.0
2022-02-09-17:20:26.366435,5.0,13.0,402.0
2022-02-09-17:20:26.367434,5.0,13.0,402.0
2022-02-09-17:20:26.368431,5.0,13.0,402.0
2022-02-09-17:20:26.369429,5.0,13.0,402.0
2022-02-09-17:20:26.370426,4.0,12.0,403.0
2022-02-09-17:20:26.371423,0.0,2.0,403.0
2022-02-09-17:20:26.372421,0.0,2.0,403.0
2022-02-09-17:20:26.373418,0.0,2.0,403.0
2022-02-09-17:20:26.374415,4.0,12.0,403.0
2022-02-09-17:20:26.375413,4.0,11.0,403.0
2022-02-09-17:20:26.376410,4.0,11.0,403.0
2022-02-09-17:20:26.377407,4.0,11.0,403.0
2022-02-09-17:20:26.378460,2.0,11.0,402.0
2022-02-09-17:20:26.379458,1.0,8.0,403.0
2022-02-09-17:20:26.380456,1.0,8.0,403.0
2022-02-09-17:20:26.381397,1.0,8.0,403.0
2022-02-09-17:20:26.382394,5.0,7.0,403.0
2022-02-09-17:20:26.383391,6.0,8.0,402.0
2022-02-09-17:20:26.384445,6.0,8.0,402.0
2022-02-09-17:20:26.385386,6.0,8.0,402.0
2022-02-09-17:20:26.386383,6.0,8.0,402.0
2022-02-09-17:20:26.387381,1.0,8.0,403.0
2022-02-09-17:20:26.388378,1.0,8.0,403.0
2022-02-09-17:20:26.389375,1.0,8.0,403.0
2022-02-09-17:20:26.390373,1.0,8.0,403.0
2022-02-09-17:20:26.391370,8.0,11.0,402.0
2022-02-09-17:20:26.392368,8.0,11.0,402.0
2022-02-09-17:20:26.393365,8.0,11.0,402.0
2022-02-09-17:20:26.394362,8.0,11.0,402.0
2022-02-09-17:20:26.396359,1.0,6.0,403.0
2022-02-09-17:20:26.396359,1.0,6.0,403.0
2022-02-09-17:20:26.397410,1.0,6.0,403.0
2022-02-09-17:20:26.398351,1.0,6.0,403.0
2022-02-09-17:20:26.399349,4.0,10.0,402.0
2022-02-09-17:20:26.400346,4.0,10.0,402.0
2022-02-09-17:20:26.401343,4.0,10.0,402.0
2022-02-09-17:20:26.402341,4.0,10.0,402.0
2022-02-09-17:20:26.403338,5.0,2.0,402.0
2022-02-09-17:20:26.404336,5.0,2.0,402.0
2022-02-09-17:20:26.405333,5.0,2.0,402.0
2022-02-09-17:20:26.406330,5.0,2.0,402.0
2022-02-09-17:20:26.407328,9.0,10.0,402.0
2022-02-09-17:20:26.408325,9.0,10.0,402.0
2022-02-09-17:20:26.409322,9.0,10.0,402.0
2022-02-09-17:20:26.410319,9.0,10.0,402.0
2022-02-09-17:20:26.411317,6.0,3.0,403.0
2022-02-09-17:20:26.412371,3.0,13.0,402.0
2022-02-09-17:20:26.413311,3.0,13.0,402.0
2022-02-09-17:20:26.414309,3.0,13.0,402.0
2022-02-09-17:20:26.415306,4.0,11.0,403.0
2022-02-09-17:20:26.416304,1.0,11.0,403.0
2022-02-09-17:20:26.417301,1.0,11.0,403.0
2022-02-09-17:20:26.418298,1.0,11.0,403.0
2022-02-09-17:20:26.419329,0.0,10.0,403.0
2022-02-09-17:20:26.420293,7.0,3.0,403.0
2022-02-09-17:20:26.421290,7.0,3.0,403.0
2022-02-09-17:20:26.422287,7.0,3.0,403.0
2022-02-09-17:20:26.423285,6.0,6.0,403.0
2022-02-09-17:20:26.424282,6.0,10.0,403.0
2022-02-09-17:20:26.425279,6.0,10.0,403.0
2022-02-09-17:20:26.426277,6.0,10.0,403.0
2022-02-09-17:20:26.427274,6.0,10.0,403.0
2022-02-09-17:20:26.428310,4.0,4.0,403.0
2022-02-09-17:20:26.429303,1.0,14.0,403.0
2022-02-09-17:20:26.431301,1.0,14.0,403.0
2022-02-09-17:20:26.431301,3.0,11.0,402.0
2022-02-09-17:20:26.432261,3.0,11.0,402.0
2022-02-09-17:20:26.433258,3.0,11.0,402.0
2022-02-09-17:20:26.434256,3.0,11.0,402.0
2022-02-09-17:20:26.435253,3.0,11.0,402.0
2022-02-09-17:20:26.436250,2.0,8.0,403.0
2022-02-09-17:20:26.437248,6.0,8.0,402.0
2022-02-09-17:20:26.438245,6.0,8.0,402.0
2022-02-09-17:20:26.439242,6.0,8.0,402.0
2022-02-09-17:20:26.440240,6.0,10.0,402.0
2022-02-09-17:20:26.441237,8.0,7.0,402.0
2022-02-09-17:20:26.442234,8.0,7.0,402.0
2022-02-09-17:20:26.443232,8.0,7.0,402.0
2022-02-09-17:20:26.444229,6.0,5.0,402.0
2022-02-09-17:20:26.445226,6.0,9.0,403.0
2022-02-09-17:20:26.446258,6.0,9.0,403.0
2022-02-09-17:20:26.447258,6.0,9.0,403.0
2022-02-09-17:20:26.448218,0.0,15.0,403.0
2022-02-09-17:20:26.449216,2.0,9.0,403.0
2022-02-09-17:20:26.450213,2.0,9.0,403.0
2022-02-09-17:20:26.451210,2.0,9.0,403.0
2022-02-09-17:20:26.452208,1.0,12.0,403.0
2022-02-09-17:20:26.453205,6.0,13.0,402.0
2022-02-09-17:20:26.454202,6.0,13.0,402.0
2022-02-09-17:20:26.455200,6.0,13.0,402.0
2022-02-09-17:20:26.456197,9.0,10.0,403.0
2022-02-09-17:20:26.457194,9.0,10.0,403.0
2022-02-09-17:20:26.458192,9.0,10.0,403.0
2022-02-09-17:20:26.459189,9.0,10.0,403.0
2022-02-09-17:20:26.460186,5.0,8.0,403.0
2022-02-09-17:20:26.461184,1.0,8.0,403.0
2022-02-09-17:20:26.462181,1.0,8.0,403.0
2022-02-09-17:20:26.463178,1.0,8.0,403.0
2022-02-09-17:20:26.465208,2.0,9.0,402.0
2022-02-09-17:20:26.465208,1.0,10.0,403.0
2022-02-09-17:20:26.466204,1.0,10.0,403.0
2022-02-09-17:20:26.467167,1.0,10.0,403.0
2022-02-09-17:20:26.468165,1.0,10.0,403.0
2022-02-09-17:20:26.469162,5.0,11.0,403.0
2022-02-09-17:20:26.470159,7.0,15.0,402.0
2022-02-09-17:20:26.471157,7.0,15.0,402.0
2022-02-09-17:20:26.472154,7.0,15.0,402.0
2022-02-09-17:20:26.473151,5.0,3.0,403.0
2022-02-09-17:20:26.474149,3.0,12.0,402.0
2022-02-09-17:20:26.475146,3.0,12.0,402.0
2022-02-09-17:20:26.476144,3.0,12.0,402.0
2022-02-09-17:20:26.477141,7.0,6.0,402.0
2022-02-09-17:20:26.478138,2.0,5.0,402.0
2022-02-09-17:20:26.479135,2.0,5.0,402.0
2022-02-09-17:20:26.480133,2.0,5.0,402.0
2022-02-09-17:20:26.481166,7.0,16.0,403.0
2022-02-09-17:20:26.482128,7.0,16.0,403.0
2022-02-09-17:20:26.483125,7.0,16.0,403.0
2022-02-09-17:20:26.484122,7.0,16.0,403.0
2022-02-09-17:20:26.485119,4.0,6.0,403.0
2022-02-09-17:20:26.486117,4.0,3.0,403.0
2022-02-09-17:20:26.487114,4.0,3.0,403.0
2022-02-09-17:20:26.488112,4.0,3.0,403.0
2022-02-09-17:20:26.489109,2.0,2.0,403.0
2022-02-09-17:20:26.490106,10.0,6.0,402.0
2022-02-09-17:20:26.491104,10.0,6.0,402.0
2022-02-09-17:20:26.492101,10.0,6.0,402.0
2022-02-09-17:20:26.493098,5.0,3.0,402.0
2022-02-09-17:20:26.494095,5.0,3.0,402.0
2022-02-09-17:20:26.495093,5.0,3.0,402.0
2022-02-09-17:20:26.496090,5.0,3.0,402.0
2022-02-09-17:20:26.497123,5.0,3.0,402.0
2022-02-09-17:20:26.498118,4.0,10.0,402.0
2022-02-09-17:20:26.500081,4.0,10.0,402.0
2022-02-09-17:20:26.500081,4.0,4.0,402.0
2022-02-09-17:20:26.501077,4.0,4.0,402.0
2022-02-09-17:20:26.502074,4.0,4.0,402.0
2022-02-09-17:20:26.503071,4.0,4.0,402.0
2022-02-09-17:20:26.504069,4.0,4.0,402.0
2022-02-09-17:20:26.505066,4.0,4.0,402.0
2022-02-09-17:20:26.506063,7.0,4.0,402.0
2022-02-09-17:20:26.507061,10.0,7.0,403.0
2022-02-09-17:20:26.508058,10.0,7.0,403.0
2022-02-09-17:20:26.509055,10.0,7.0,403.0
2022-02-09-17:20:26.510053,8.0,12.0,402.0
2022-02-09-17:20:26.511050,5.0,2.0,403.0
2022-02-09-17:20:26.512047,5.0,2.0,403.0
2022-02-09-17:20:26.513045,5.0,2.0,403.0
2022-02-09-17:20:26.514075,4.0,7.0,402.0
2022-02-09-17:20:26.515073,4.0,7.0,402.0
2022-02-09-17:20:26.516037,4.0,7.0,402.0
2022-02-09-17:20:26.517034,4.0,7.0,402.0
2022-02-09-17:20:26.518031,5.0,7.0,403.0
2022-02-09-17:20:26.519029,4.0,10.0,402.0
2022-02-09-17:20:26.520026,4.0,10.0,402.0
2022-02-09-17:20:26.521023,4.0,10.0,402.0
2022-02-09-17:20:26.522021,7.0,7.0,402.0
2022-02-09-17:20:26.523018,5.0,8.0,403.0
2022-02-09-17:20:26.524015,5.0,8.0,403.0
2022-02-09-17:20:26.525013,5.0,8.0,403.0
2022-02-09-17:20:26.526010,5.0,12.0,403.0
2022-02-09-17:20:26.527007,5.0,5.0,403.0
2022-02-09-17:20:26.528005,5.0,5.0,403.0
2022-02-09-17:20:26.529002,5.0,5.0,403.0
2022-02-09-17:20:26.530000,3.0,10.0,403.0
2022-02-09-17:20:26.531030,1.0,9.0,403.0
2022-02-09-17:20:26.532993,1.0,9.0,403.0
2022-02-09-17:20:26.532993,5.0,8.0,402.0
2022-02-09-17:20:26.533989,5.0,8.0,402.0
2022-02-09-17:20:26.534987,5.0,8.0,402.0
2022-02-09-17:20:26.535983,5.0,8.0,402.0
2022-02-09-17:20:26.536981,5.0,8.0,402.0
2022-02-09-17:20:26.537978,2.0,8.0,403.0
2022-02-09-17:20:26.538976,5.0,4.0,403.0
2022-02-09-17:20:26.540008,5.0,4.0,403.0
2022-02-09-17:20:26.540970,5.0,4.0,403.0
2022-02-09-17:20:26.541968,5.0,4.0,403.0
2022-02-09-17:20:26.542965,6.0,12.0,403.0
2022-02-09-17:20:26.543962,5.0,8.0,403.0
2022-02-09-17:20:26.545163,5.0,8.0,403.0
2022-02-09-17:20:26.545163,5.0,8.0,403.0
2022-02-09-17:20:26.546163,0.0,12.0,403.0
2022-02-09-17:20:26.547194,8.0,9.0,402.0
2022-02-09-17:20:26.548193,8.0,9.0,402.0
2022-02-09-17:20:26.549188,8.0,9.0,402.0
2022-02-09-17:20:26.550152,8.0,9.0,402.0
2022-02-09-17:20:26.551150,6.0,7.0,402.0
2022-02-09-17:20:26.552147,5.0,10.0,402.0
2022-02-09-17:20:26.553144,5.0,10.0,402.0
2022-02-09-17:20:26.554141,5.0,10.0,402.0
2022-02-09-17:20:26.555139,7.0,5.0,402.0
2022-02-09-17:20:26.556136,6.0,10.0,403.0
2022-02-09-17:20:26.557133,6.0,10.0,403.0
2022-02-09-17:20:26.558131,6.0,10.0,403.0
2022-02-09-17:20:26.559128,7.0,13.0,403.0
2022-02-09-17:20:26.560125,7.0,3.0,403.0
2022-02-09-17:20:26.561123,7.0,3.0,403.0
2022-02-09-17:20:26.562120,7.0,3.0,403.0
2022-02-09-17:20:26.563117,4.0,6.0,402.0
2022-02-09-17:20:26.564115,3.0,13.0,402.0
2022-02-09-17:20:26.565145,3.0,13.0,402.0
2022-02-09-17:20:26.567109,3.0,13.0,402.0
2022-02-09-17:20:26.567109,5.0,11.0,402.0
2022-02-09-17:20:26.568104,6.0,11.0,402.0
2022-02-09-17:20:26.569101,6.0,11.0,402.0
2022-02-09-17:20:26.570099,6.0,11.0,402.0
2022-02-09-17:20:26.571096,3.0,10.0,402.0
2022-02-09-17:20:26.572093,8.0,2.0,403.0
2022-02-09-17:20:26.573091,8.0,2.0,403.0
