# 
# 
# 
# 
# 
# 
# 
# 
# 
# 
# time,realtime,ref,inp,dis,state...
0.000000000000000000e+00,1.644457044939356804e+09,0.000000000000000000e+00,5.624726985833461423e-01,0.000000000000000000e+00,5.784975617908497680e-01
1.666666666666666644e-02,1.644457044941370249e+09,0.000000000000000000e+00,5.784975617908497680e-01,0.000000000000000000e+00,5.784975617908497680e-01
3.333333333333333287e-02,1.644457044943367004e+09,0.000000000000000000e+00,5.624726985833461423e-01,0.000000000000000000e+00,5.624726985833461423e-01
5.000000000000000278e-02,1.644457044960318089e+09,0.000000000000000000e+00,5.624726985833461423e-01,0.000000000000000000e+00,5.624726985833461423e-01
6.666666666666666574e-02,1.644457044976243496e+09,0.000000000000000000e+00,5.624726985833461423e-01,0.000000000000000000e+00,5.624726985833461423e-01
8.333333333333332871e-02,1.644457044994229555e+09,0.000000000000000000e+00,5.624726985833461423e-01,0.000000000000000000e+00,5.624726985833461423e-01
1.000000000000000056e-01,1.644457045011150122e+09,0.000000000000000000e+00,5.464478353758437379e-01,0.000000000000000000e+00,5.464478353758437379e-01
1.166666666666666685e-01,1.644457045029102087e+09,0.000000000000000000e+00,5.624726985833461423e-01,0.000000000000000000e+00,5.624726985833461423e-01
1.333333333333333315e-01,1.644457045046056747e+09,0.000000000000000000e+00,5.624726985833461423e-01,0.000000000000000000e+00,5.624726985833461423e-01
1.499999999999999944e-01,1.644457045064008951e+09,0.000000000000000000e+00,5.464478353758437379e-01,0.000000000000000000e+00,5.464478353758437379e-01
1.666666666666666574e-01,1.644457045077971458e+09,0.000000000000000000e+00,5.464478353758437379e-01,0.000000000000000000e+00,5.464478353758437379e-01
1.833333333333333204e-01,1.644457045096920967e+09,0.000000000000000000e+00,5.304229721683412224e-01,0.000000000000000000e+00,5.304229721683412224e-01
2.000000000000000111e-01,1.644457045113875866e+09,0.000000000000000000e+00,4.823483825458327323e-01,0.000000000000000000e+00,4.823483825458327323e-01
2.166666666666666741e-01,1.644457045128834486e+09,0.000000000000000000e+00,4.663235193383302724e-01,0.000000000000000000e+00,4.663235193383302724e-01
2.333333333333333370e-01,1.644457045147783279e+09,0.000000000000000000e+00,4.663235193383302724e-01,0.000000000000000000e+00,4.663235193383302724e-01
2.500000000000000000e-01,1.644457045164737940e+09,0.000000000000000000e+00,4.663235193383302724e-01,0.000000000000000000e+00,4.663235193383302724e-01
2.666666666666666630e-01,1.644457045180695295e+09,0.000000000000000000e+00,4.663235193383302724e-01,0.000000000000000000e+00,4.663235193383302724e-01
2.833333333333333259e-01,1.644457045197650194e+09,0.000000000000000000e+00,4.502986561308278124e-01,0.000000000000000000e+00,4.502986561308278124e-01
2.999999999999999889e-01,1.644457045214604616e+09,0.000000000000000000e+00,4.663235193383302724e-01,0.000000000000000000e+00,4.663235193383302724e-01
3.166666666666666519e-01,1.644457045232556581e+09,0.000000000000000000e+00,4.663235193383302724e-01,0.000000000000000000e+00,4.663235193383302724e-01
3.333333333333333148e-01,1.644457045249511242e+09,0.000000000000000000e+00,4.663235193383302724e-01,0.000000000000000000e+00,4.663235193383302724e-01
3.499999999999999778e-01,1.644457045266465902e+09,0.000000000000000000e+00,4.663235193383302724e-01,0.000000000000000000e+00,4.663235193383302724e-01
3.666666666666666408e-01,1.644457045283420563e+09,0.000000000000000000e+00,4.502986561308278124e-01,0.000000000000000000e+00,4.502986561308278124e-01
3.833333333333333037e-01,1.644457045300375223e+09,0.000000000000000000e+00,4.502986561308278124e-01,0.000000000000000000e+00,4.502986561308278124e-01
4.000000000000000222e-01,1.644457045316332817e+09,0.000000000000000000e+00,4.502986561308278124e-01,0.000000000000000000e+00,4.502986561308278124e-01
4.166666666666666852e-01,1.644457045333287239e+09,0.000000000000000000e+00,4.502986561308278124e-01,0.000000000000000000e+00,4.502986561308278124e-01
4.333333333333333481e-01,1.644457045351239204e+09,0.000000000000000000e+00,4.502986561308278124e-01,0.000000000000000000e+00,4.502986561308278124e-01
4.500000000000000111e-01,1.644457045368194103e+09,0.000000000000000000e+00,4.502986561308278124e-01,0.000000000000000000e+00,4.502986561308278124e-01
4.666666666666666741e-01,1.644457045385148525e+09,0.000000000000000000e+00,4.663235193383302724e-01,0.000000000000000000e+00,4.663235193383302724e-01
4.833333333333333370e-01,1.644457045402103186e+09,0.000000000000000000e+00,4.663235193383302724e-01,0.000000000000000000e+00,4.663235193383302724e-01
5.000000000000000000e-01,1.644457045418060541e+09,0.000000000000000000e+00,4.502986561308278124e-01,0.000000000000000000e+00,4.502986561308278124e-01
5.166666666666666075e-01,1.644457045435015202e+09,0.000000000000000000e+00,4.502986561308278124e-01,0.000000000000000000e+00,4.502986561308278124e-01
5.333333333333333259e-01,1.644457045451969862e+09,0.000000000000000000e+00,4.502986561308278124e-01,0.000000000000000000e+00,4.502986561308278124e-01
5.500000000000000444e-01,1.644457045469921827e+09,0.000000000000000000e+00,4.502986561308278124e-01,0.000000000000000000e+00,4.502986561308278124e-01
5.666666666666666519e-01,1.644457045486876488e+09,0.000000000000000000e+00,4.502986561308278124e-01,0.000000000000000000e+00,4.502986561308278124e-01
5.833333333333333703e-01,1.644457045502833843e+09,0.000000000000000000e+00,4.502986561308278124e-01,0.000000000000000000e+00,4.502986561308278124e-01
5.999999999999999778e-01,1.644457045520786285e+09,0.000000000000000000e+00,4.182489297158217267e-01,0.000000000000000000e+00,4.182489297158217267e-01
6.166666666666666963e-01,1.644457045538738012e+09,0.000000000000000000e+00,3.701743400933131811e-01,0.000000000000000000e+00,3.701743400933131811e-01
6.333333333333333037e-01,1.644457045554695129e+09,0.000000000000000000e+00,3.060748872633021755e-01,0.000000000000000000e+00,3.060748872633021755e-01
6.500000000000000222e-01,1.644457045569655180e+09,0.000000000000000000e+00,2.740251608482972556e-01,0.000000000000000000e+00,2.740251608482972556e-01
6.666666666666666297e-01,1.644457045588604689e+09,0.000000000000000000e+00,2.580002976407948512e-01,0.000000000000000000e+00,2.580002976407948512e-01
6.833333333333333481e-01,1.644457045605559111e+09,0.000000000000000000e+00,2.580002976407948512e-01,0.000000000000000000e+00,2.580002976407948512e-01
6.999999999999999556e-01,1.644457045621516466e+09,0.000000000000000000e+00,2.580002976407948512e-01,0.000000000000000000e+00,2.580002976407948512e-01
7.166666666666666741e-01,1.644457045639468431e+09,0.000000000000000000e+00,2.099257080182862778e-01,0.000000000000000000e+00,2.099257080182862778e-01
7.333333333333332815e-01,1.644457045657420397e+09,0.000000000000000000e+00,1.618511183957777322e-01,0.000000000000000000e+00,1.618511183957777322e-01
7.500000000000000000e-01,1.644457045672380447e+09,0.000000000000000000e+00,1.458262551882752722e-01,0.000000000000000000e+00,1.458262551882752722e-01
7.666666666666666075e-01,1.644457045689335108e+09,0.000000000000000000e+00,1.137765287732703939e-01,0.000000000000000000e+00,1.137765287732703939e-01
7.833333333333333259e-01,1.644457045707287312e+09,0.000000000000000000e+00,1.298013919807728400e-01,0.000000000000000000e+00,1.298013919807728400e-01
8.000000000000000444e-01,1.644457045723244429e+09,0.000000000000000000e+00,1.298013919807728400e-01,0.000000000000000000e+00,1.298013919807728400e-01
8.166666666666666519e-01,1.644457045740199089e+09,0.000000000000000000e+00,1.137765287732703939e-01,0.000000000000000000e+00,1.137765287732703939e-01
8.333333333333333703e-01,1.644457045757153988e+09,0.000000000000000000e+00,1.137765287732703939e-01,0.000000000000000000e+00,1.137765287732703939e-01
8.499999999999999778e-01,1.644457045774108410e+09,0.000000000000000000e+00,9.775166556576674048e-02,0.000000000000000000e+00,9.775166556576674048e-02
8.666666666666666963e-01,1.644457045792060614e+09,0.000000000000000000e+00,1.137765287732703939e-01,0.000000000000000000e+00,1.137765287732703939e-01
8.833333333333333037e-01,1.644457045809015274e+09,0.000000000000000000e+00,9.775166556576674048e-02,0.000000000000000000e+00,9.775166556576674048e-02
9.000000000000000222e-01,1.644457045825971127e+09,0.000000000000000000e+00,9.775166556576674048e-02,0.000000000000000000e+00,9.775166556576674048e-02
9.166666666666666297e-01,1.644457045842925787e+09,0.000000000000000000e+00,4.967707594325939530e-02,0.000000000000000000e+00,4.967707594325939530e-02
9.333333333333333481e-01,1.644457045858919144e+09,0.000000000000000000e+00,3.365221273575574185e-02,0.000000000000000000e+00,3.365221273575574185e-02
9.499999999999999556e-01,1.644457045876871824e+09,0.000000000000000000e+00,3.365221273575574185e-02,0.000000000000000000e+00,3.365221273575574185e-02
9.666666666666666741e-01,1.644457045893822908e+09,0.000000000000000000e+00,3.365221273575574185e-02,0.000000000000000000e+00,3.365221273575574185e-02
9.833333333333332815e-01,1.644457045909747124e+09,0.000000000000000000e+00,3.365221273575574185e-02,0.000000000000000000e+00,3.365221273575574185e-02
1.000000000000000000e+00,1.644457045929693222e+09,0.000000000000000000e+00,3.365221273575574185e-02,0.000000000000000000e+00,3.365221273575574185e-02
1.016666666666666607e+00,1.644457045947679281e+09,0.000000000000000000e+00,3.365221273575574185e-02,0.000000000000000000e+00,3.365221273575574185e-02
1.033333333333333215e+00,1.644457045963636160e+09,0.000000000000000000e+00,3.365221273575574185e-02,0.000000000000000000e+00,3.365221273575574185e-02
1.050000000000000044e+00,1.644457045980556488e+09,0.000000000000000000e+00,3.365221273575574185e-02,0.000000000000000000e+00,3.365221273575574185e-02
1.066666666666666652e+00,1.644457045996513844e+09,0.000000000000000000e+00,1.762734952825329576e-02,0.000000000000000000e+00,1.762734952825329576e-02
1.083333333333333259e+00,1.644457046013468504e+09,0.000000000000000000e+00,3.365221273575574185e-02,0.000000000000000000e+00,3.365221273575574185e-02
1.100000000000000089e+00,1.644457046031420469e+09,0.000000000000000000e+00,1.762734952825329576e-02,0.000000000000000000e+00,1.762734952825329576e-02
1.116666666666666696e+00,1.644457046048375368e+09,0.000000000000000000e+00,1.762734952825329576e-02,0.000000000000000000e+00,1.762734952825329576e-02
1.133333333333333304e+00,1.644457046064332724e+09,0.000000000000000000e+00,-1.442237688675220356e-02,0.000000000000000000e+00,-1.442237688675220356e-02
1.149999999999999911e+00,1.644457046082284451e+09,0.000000000000000000e+00,-1.442237688675220356e-02,0.000000000000000000e+00,-1.442237688675220356e-02
1.166666666666666741e+00,1.644457046100236416e+09,0.000000000000000000e+00,-1.442237688675220356e-02,0.000000000000000000e+00,-1.442237688675220356e-02
1.183333333333333348e+00,1.644457046115196466e+09,0.000000000000000000e+00,-1.442237688675220356e-02,0.000000000000000000e+00,-1.442237688675220356e-02
1.199999999999999956e+00,1.644457046132151127e+09,0.000000000000000000e+00,-1.442237688675220356e-02,0.000000000000000000e+00,-1.442237688675220356e-02
1.216666666666666563e+00,1.644457046150138617e+09,0.000000000000000000e+00,-1.442237688675220356e-02,0.000000000000000000e+00,-1.442237688675220356e-02
1.233333333333333393e+00,1.644457046166094542e+09,0.000000000000000000e+00,-1.442237688675220356e-02,0.000000000000000000e+00,-1.442237688675220356e-02
1.250000000000000000e+00,1.644457046183050394e+09,0.000000000000000000e+00,-1.442237688675220356e-02,0.000000000000000000e+00,-1.442237688675220356e-02
1.266666666666666607e+00,1.644457046200004816e+09,0.000000000000000000e+00,-1.442237688675220356e-02,0.000000000000000000e+00,-1.442237688675220356e-02
1.283333333333333215e+00,1.644457046216961384e+09,0.000000000000000000e+00,-1.442237688675220356e-02,0.000000000000000000e+00,-1.442237688675220356e-02
1.300000000000000044e+00,1.644457046234912395e+09,0.000000000000000000e+00,-1.442237688675220356e-02,0.000000000000000000e+00,-1.442237688675220356e-02
1.316666666666666652e+00,1.644457046252865791e+09,0.000000000000000000e+00,-1.442237688675220356e-02,0.000000000000000000e+00,-1.442237688675220356e-02
1.333333333333333259e+00,1.644457046268820047e+09,0.000000000000000000e+00,-1.442237688675220356e-02,0.000000000000000000e+00,-1.442237688675220356e-02
1.350000000000000089e+00,1.644457046285774946e+09,0.000000000000000000e+00,-1.442237688675220356e-02,0.000000000000000000e+00,-1.442237688675220356e-02
1.366666666666666696e+00,1.644457046303726912e+09,0.000000000000000000e+00,-1.442237688675220356e-02,0.000000000000000000e+00,-1.442237688675220356e-02
1.383333333333333304e+00,1.644457046320679426e+09,0.000000000000000000e+00,1.602486320750845994e-03,0.000000000000000000e+00,1.602486320750845994e-03
1.399999999999999911e+00,1.644457046336637020e+09,0.000000000000000000e+00,-1.442237688675220356e-02,0.000000000000000000e+00,-1.442237688675220356e-02
1.416666666666666741e+00,1.644457046354588985e+09,0.000000000000000000e+00,1.602486320750845994e-03,0.000000000000000000e+00,1.602486320750845994e-03
1.433333333333333348e+00,1.644457046370548010e+09,0.000000000000000000e+00,1.602486320750845994e-03,0.000000000000000000e+00,1.602486320750845994e-03
1.449999999999999956e+00,1.644457046387504339e+09,0.000000000000000000e+00,-1.442237688675220356e-02,0.000000000000000000e+00,-1.442237688675220356e-02
1.466666666666666563e+00,1.644457046404457569e+09,0.000000000000000000e+00,1.602486320750845994e-03,0.000000000000000000e+00,1.602486320750845994e-03
1.483333333333333393e+00,1.644457046421412230e+09,0.000000000000000000e+00,1.602486320750845994e-03,0.000000000000000000e+00,1.602486320750845994e-03
1.500000000000000000e+00,1.644457046437335730e+09,0.000000000000000000e+00,1.602486320750845994e-03,0.000000000000000000e+00,1.602486320750845994e-03
1.516666666666666607e+00,1.644457046455321312e+09,0.000000000000000000e+00,-1.442237688675220356e-02,0.000000000000000000e+00,-1.442237688675220356e-02
1.533333333333333215e+00,1.644457046471278906e+09,0.000000000000000000e+00,1.602486320750845994e-03,0.000000000000000000e+00,1.602486320750845994e-03
1.550000000000000044e+00,1.644457046489229679e+09,0.000000000000000000e+00,1.602486320750845994e-03,0.000000000000000000e+00,1.602486320750845994e-03
1.566666666666666652e+00,1.644457046505186796e+09,0.000000000000000000e+00,1.762734952825329576e-02,0.000000000000000000e+00,1.762734952825329576e-02
1.583333333333333259e+00,1.644457046521111727e+09,0.000000000000000000e+00,1.762734952825329576e-02,0.000000000000000000e+00,1.762734952825329576e-02
1.600000000000000089e+00,1.644457046539098978e+09,0.000000000000000000e+00,1.762734952825329576e-02,0.000000000000000000e+00,1.762734952825329576e-02
