# 
# 
# 
# 
# 
# 
# 
# 
# 
# 
# time,realtime,ref,inp,dis,state...
0.000000000000000000e+00,1.685122893478631735e+09,0.000000000000000000e+00,9.310445523559096603e-01,0.000000000000000000e+00,6.586218778283632336e-01
1.666666666666666644e-02,1.685122893480632782e+09,0.000000000000000000e+00,6.586218778283632336e-01,0.000000000000000000e+00,6.586218778283632336e-01
3.333333333333333287e-02,1.685122893481597662e+09,0.000000000000000000e+00,9.310445523559096603e-01,0.000000000000000000e+00,9.310445523559096603e-01
5.000000000000000278e-02,1.685122893499631166e+09,0.000000000000000000e+00,9.310445523559096603e-01,0.000000000000000000e+00,9.310445523559096603e-01
6.666666666666666574e-02,1.685122893516630888e+09,0.000000000000000000e+00,9.310445523559096603e-01,0.000000000000000000e+00,9.310445523559096603e-01
8.333333333333332871e-02,1.685122893533653498e+09,0.000000000000000000e+00,9.310445523559096603e-01,0.000000000000000000e+00,9.310445523559096603e-01
1.000000000000000056e-01,1.685122893552622795e+09,0.000000000000000000e+00,9.310445523559096603e-01,0.000000000000000000e+00,9.310445523559096603e-01
1.166666666666666685e-01,1.685122893569633007e+09,0.000000000000000000e+00,9.310445523559096603e-01,0.000000000000000000e+00,9.310445523559096603e-01
1.333333333333333315e-01,1.685122893584640980e+09,0.000000000000000000e+00,9.310445523559096603e-01,0.000000000000000000e+00,9.310445523559096603e-01
1.499999999999999944e-01,1.685122893601643085e+09,0.000000000000000000e+00,9.310445523559096603e-01,0.000000000000000000e+00,9.310445523559096603e-01
1.666666666666666574e-01,1.685122893617652893e+09,0.000000000000000000e+00,9.310445523559096603e-01,0.000000000000000000e+00,9.310445523559096603e-01
1.833333333333333204e-01,1.685122893636652946e+09,0.000000000000000000e+00,9.310445523559096603e-01,0.000000000000000000e+00,9.310445523559096603e-01
2.000000000000000111e-01,1.685122893653653383e+09,0.000000000000000000e+00,9.310445523559096603e-01,0.000000000000000000e+00,9.310445523559096603e-01
2.166666666666666741e-01,1.685122893670652866e+09,0.000000000000000000e+00,9.310445523559096603e-01,0.000000000000000000e+00,9.310445523559096603e-01
2.333333333333333370e-01,1.685122893687630177e+09,0.000000000000000000e+00,9.310445523559096603e-01,0.000000000000000000e+00,9.310445523559096603e-01
2.500000000000000000e-01,1.685122893704632998e+09,0.000000000000000000e+00,9.310445523559096603e-01,0.000000000000000000e+00,9.310445523559096603e-01
2.666666666666666630e-01,1.685122893721597433e+09,0.000000000000000000e+00,9.310445523559096603e-01,0.000000000000000000e+00,9.310445523559096603e-01
2.833333333333333259e-01,1.685122893738632917e+09,0.000000000000000000e+00,9.310445523559096603e-01,0.000000000000000000e+00,9.310445523559096603e-01
2.999999999999999889e-01,1.685122893756630182e+09,0.000000000000000000e+00,9.310445523559096603e-01,0.000000000000000000e+00,9.310445523559096603e-01
3.166666666666666519e-01,1.685122893770662069e+09,0.000000000000000000e+00,9.310445523559096603e-01,0.000000000000000000e+00,9.310445523559096603e-01
3.333333333333333148e-01,1.685122893790596008e+09,0.000000000000000000e+00,9.310445523559096603e-01,0.000000000000000000e+00,9.310445523559096603e-01
3.499999999999999778e-01,1.685122893806631804e+09,0.000000000000000000e+00,9.310445523559096603e-01,0.000000000000000000e+00,9.310445523559096603e-01
3.666666666666666408e-01,1.685122893825632811e+09,0.000000000000000000e+00,9.310445523559096603e-01,0.000000000000000000e+00,9.310445523559096603e-01
3.833333333333333037e-01,1.685122893840653658e+09,0.000000000000000000e+00,9.310445523559096603e-01,0.000000000000000000e+00,9.310445523559096603e-01
4.000000000000000222e-01,1.685122893857644081e+09,0.000000000000000000e+00,9.310445523559096603e-01,0.000000000000000000e+00,9.310445523559096603e-01
4.166666666666666852e-01,1.685122893872653961e+09,0.000000000000000000e+00,9.310445523559096603e-01,0.000000000000000000e+00,9.310445523559096603e-01
4.333333333333333481e-01,1.685122893891623497e+09,0.000000000000000000e+00,9.310445523559096603e-01,0.000000000000000000e+00,9.310445523559096603e-01
4.500000000000000111e-01,1.685122893906631708e+09,0.000000000000000000e+00,9.310445523559096603e-01,0.000000000000000000e+00,9.310445523559096603e-01
4.666666666666666741e-01,1.685122893925644636e+09,0.000000000000000000e+00,9.310445523559096603e-01,0.000000000000000000e+00,9.310445523559096603e-01
4.833333333333333370e-01,1.685122893941643715e+09,0.000000000000000000e+00,9.310445523559096603e-01,0.000000000000000000e+00,9.310445523559096603e-01
5.000000000000000000e-01,1.685122893958656788e+09,0.000000000000000000e+00,9.310445523559096603e-01,0.000000000000000000e+00,9.310445523559096603e-01
5.166666666666666075e-01,1.685122893973653793e+09,0.000000000000000000e+00,9.310445523559096603e-01,0.000000000000000000e+00,9.310445523559096603e-01
5.333333333333333259e-01,1.685122893991653442e+09,0.000000000000000000e+00,9.310445523559096603e-01,0.000000000000000000e+00,9.310445523559096603e-01
5.500000000000000444e-01,1.685122894009655952e+09,0.000000000000000000e+00,9.310445523559096603e-01,0.000000000000000000e+00,9.310445523559096603e-01
5.666666666666666519e-01,1.685122894026653290e+09,0.000000000000000000e+00,9.310445523559096603e-01,0.000000000000000000e+00,9.310445523559096603e-01
5.833333333333333703e-01,1.685122894044599533e+09,0.000000000000000000e+00,9.310445523559096603e-01,0.000000000000000000e+00,9.310445523559096603e-01
5.999999999999999778e-01,1.685122894060633421e+09,0.000000000000000000e+00,9.150196891484072559e-01,0.000000000000000000e+00,9.150196891484072559e-01
6.166666666666666963e-01,1.685122894076653004e+09,0.000000000000000000e+00,9.150196891484072559e-01,0.000000000000000000e+00,9.150196891484072559e-01
6.333333333333333037e-01,1.685122894095654011e+09,0.000000000000000000e+00,9.150196891484072559e-01,0.000000000000000000e+00,9.150196891484072559e-01
6.500000000000000222e-01,1.685122894110665321e+09,0.000000000000000000e+00,9.150196891484072559e-01,0.000000000000000000e+00,9.150196891484072559e-01
6.666666666666666297e-01,1.685122894127622128e+09,0.000000000000000000e+00,8.989948259409035192e-01,0.000000000000000000e+00,8.989948259409035192e-01
6.833333333333333481e-01,1.685122894145623684e+09,0.000000000000000000e+00,8.669450995258987103e-01,0.000000000000000000e+00,8.669450995258987103e-01
6.999999999999999556e-01,1.685122894161633015e+09,0.000000000000000000e+00,8.348953731108925691e-01,0.000000000000000000e+00,8.348953731108925691e-01
7.166666666666666741e-01,1.685122894178649664e+09,0.000000000000000000e+00,8.028456466958876492e-01,0.000000000000000000e+00,8.028456466958876492e-01
7.333333333333332815e-01,1.685122894195625544e+09,0.000000000000000000e+00,7.868207834883852447e-01,0.000000000000000000e+00,7.868207834883852447e-01
7.500000000000000000e-01,1.685122894212652683e+09,0.000000000000000000e+00,7.547710570733791036e-01,0.000000000000000000e+00,7.547710570733791036e-01
7.666666666666666075e-01,1.685122894229596376e+09,0.000000000000000000e+00,7.227213306583742947e-01,0.000000000000000000e+00,7.227213306583742947e-01
7.833333333333333259e-01,1.685122894247644663e+09,0.000000000000000000e+00,7.066964674508705579e-01,0.000000000000000000e+00,7.066964674508705579e-01
8.000000000000000444e-01,1.685122894265624046e+09,0.000000000000000000e+00,6.746467410358656380e-01,0.000000000000000000e+00,6.746467410358656380e-01
8.166666666666666519e-01,1.685122894283655167e+09,0.000000000000000000e+00,6.586218778283632336e-01,0.000000000000000000e+00,6.586218778283632336e-01
8.333333333333333703e-01,1.685122894297655106e+09,0.000000000000000000e+00,6.265721514133570924e-01,0.000000000000000000e+00,6.265721514133570924e-01
8.499999999999999778e-01,1.685122894317653656e+09,0.000000000000000000e+00,5.945224249983522835e-01,0.000000000000000000e+00,5.945224249983522835e-01
8.666666666666666963e-01,1.685122894334654808e+09,0.000000000000000000e+00,5.624726985833461423e-01,0.000000000000000000e+00,5.624726985833461423e-01
8.833333333333333037e-01,1.685122894350646257e+09,0.000000000000000000e+00,5.464478353758437379e-01,0.000000000000000000e+00,5.464478353758437379e-01
9.000000000000000222e-01,1.685122894367653847e+09,0.000000000000000000e+00,5.304229721683412224e-01,0.000000000000000000e+00,5.304229721683412224e-01
9.166666666666666297e-01,1.685122894383653879e+09,0.000000000000000000e+00,5.143981089608388180e-01,0.000000000000000000e+00,5.143981089608388180e-01
9.333333333333333481e-01,1.685122894401596785e+09,0.000000000000000000e+00,4.983732457533351368e-01,0.000000000000000000e+00,4.983732457533351368e-01
9.499999999999999556e-01,1.685122894419645786e+09,0.000000000000000000e+00,4.823483825458327323e-01,0.000000000000000000e+00,4.823483825458327323e-01
9.666666666666666741e-01,1.685122894436597109e+09,0.000000000000000000e+00,4.502986561308278124e-01,0.000000000000000000e+00,4.502986561308278124e-01
9.833333333333332815e-01,1.685122894453643322e+09,0.000000000000000000e+00,4.342737929233241867e-01,0.000000000000000000e+00,4.342737929233241867e-01
1.000000000000000000e+00,1.685122894472634554e+09,0.000000000000000000e+00,4.182489297158217267e-01,0.000000000000000000e+00,4.182489297158217267e-01
1.016666666666666607e+00,1.685122894489597559e+09,0.000000000000000000e+00,4.022240665083192668e-01,0.000000000000000000e+00,4.022240665083192668e-01
1.033333333333333215e+00,1.685122894504597187e+09,0.000000000000000000e+00,3.861992033008168068e-01,0.000000000000000000e+00,3.861992033008168068e-01
1.050000000000000044e+00,1.685122894522623777e+09,0.000000000000000000e+00,3.701743400933131811e-01,0.000000000000000000e+00,3.701743400933131811e-01
1.066666666666666652e+00,1.685122894537623644e+09,0.000000000000000000e+00,3.701743400933131811e-01,0.000000000000000000e+00,3.701743400933131811e-01
1.083333333333333259e+00,1.685122894555654526e+09,0.000000000000000000e+00,3.381246136783082612e-01,0.000000000000000000e+00,3.381246136783082612e-01
1.100000000000000089e+00,1.685122894573597431e+09,0.000000000000000000e+00,3.381246136783082612e-01,0.000000000000000000e+00,3.381246136783082612e-01
1.116666666666666696e+00,1.685122894589643955e+09,0.000000000000000000e+00,3.220997504708058012e-01,0.000000000000000000e+00,3.220997504708058012e-01
1.133333333333333304e+00,1.685122894606652737e+09,0.000000000000000000e+00,3.060748872633021755e-01,0.000000000000000000e+00,3.060748872633021755e-01
1.149999999999999911e+00,1.685122894624632120e+09,0.000000000000000000e+00,3.060748872633021755e-01,0.000000000000000000e+00,3.060748872633021755e-01
1.166666666666666741e+00,1.685122894640653610e+09,0.000000000000000000e+00,2.900500240557997156e-01,0.000000000000000000e+00,2.900500240557997156e-01
1.183333333333333348e+00,1.685122894660648108e+09,0.000000000000000000e+00,2.740251608482972556e-01,0.000000000000000000e+00,2.740251608482972556e-01
1.199999999999999956e+00,1.685122894674630642e+09,0.000000000000000000e+00,2.580002976407948512e-01,0.000000000000000000e+00,2.580002976407948512e-01
1.216666666666666563e+00,1.685122894692656279e+09,0.000000000000000000e+00,2.580002976407948512e-01,0.000000000000000000e+00,2.580002976407948512e-01
1.233333333333333393e+00,1.685122894711654425e+09,0.000000000000000000e+00,2.419754344332911700e-01,0.000000000000000000e+00,2.419754344332911700e-01
1.250000000000000000e+00,1.685122894728655338e+09,0.000000000000000000e+00,2.419754344332911700e-01,0.000000000000000000e+00,2.419754344332911700e-01
1.266666666666666607e+00,1.685122894743630409e+09,0.000000000000000000e+00,2.259505712257887378e-01,0.000000000000000000e+00,2.259505712257887378e-01
1.283333333333333215e+00,1.685122894760631800e+09,0.000000000000000000e+00,2.099257080182862778e-01,0.000000000000000000e+00,2.099257080182862778e-01
1.300000000000000044e+00,1.685122894776631594e+09,0.000000000000000000e+00,1.939008448107838178e-01,0.000000000000000000e+00,1.939008448107838178e-01
1.316666666666666652e+00,1.685122894795630932e+09,0.000000000000000000e+00,1.778759816032801921e-01,0.000000000000000000e+00,1.778759816032801921e-01
1.333333333333333259e+00,1.685122894811630964e+09,0.000000000000000000e+00,1.618511183957777322e-01,0.000000000000000000e+00,1.618511183957777322e-01
1.350000000000000089e+00,1.685122894829631090e+09,0.000000000000000000e+00,1.458262551882752722e-01,0.000000000000000000e+00,1.458262551882752722e-01
1.366666666666666696e+00,1.685122894846653223e+09,0.000000000000000000e+00,1.298013919807728400e-01,0.000000000000000000e+00,1.298013919807728400e-01
1.383333333333333304e+00,1.685122894861658812e+09,0.000000000000000000e+00,1.298013919807728400e-01,0.000000000000000000e+00,1.298013919807728400e-01
1.399999999999999911e+00,1.685122894878652811e+09,0.000000000000000000e+00,1.137765287732703939e-01,0.000000000000000000e+00,1.137765287732703939e-01
1.416666666666666741e+00,1.685122894896596193e+09,0.000000000000000000e+00,9.775166556576674048e-02,0.000000000000000000e+00,9.775166556576674048e-02
1.433333333333333348e+00,1.685122894913642883e+09,0.000000000000000000e+00,9.775166556576674048e-02,0.000000000000000000e+00,9.775166556576674048e-02
1.449999999999999956e+00,1.685122894930622578e+09,0.000000000000000000e+00,9.775166556576674048e-02,0.000000000000000000e+00,9.775166556576674048e-02
1.466666666666666563e+00,1.685122894948632002e+09,0.000000000000000000e+00,9.775166556576674048e-02,0.000000000000000000e+00,9.775166556576674048e-02
1.483333333333333393e+00,1.685122894966653109e+09,0.000000000000000000e+00,9.775166556576674048e-02,0.000000000000000000e+00,9.775166556576674048e-02
1.500000000000000000e+00,1.685122894981653214e+09,0.000000000000000000e+00,8.172680235826429440e-02,0.000000000000000000e+00,8.172680235826429440e-02
1.516666666666666607e+00,1.685122894998661041e+09,0.000000000000000000e+00,8.172680235826429440e-02,0.000000000000000000e+00,8.172680235826429440e-02
1.533333333333333215e+00,1.685122895014653444e+09,0.000000000000000000e+00,8.172680235826429440e-02,0.000000000000000000e+00,8.172680235826429440e-02
1.550000000000000044e+00,1.685122895032653093e+09,0.000000000000000000e+00,8.172680235826429440e-02,0.000000000000000000e+00,8.172680235826429440e-02
1.566666666666666652e+00,1.685122895050643921e+09,0.000000000000000000e+00,8.172680235826429440e-02,0.000000000000000000e+00,8.172680235826429440e-02
1.583333333333333259e+00,1.685122895068655014e+09,0.000000000000000000e+00,6.570193915076183444e-02,0.000000000000000000e+00,6.570193915076183444e-02
1.600000000000000089e+00,1.685122895082653999e+09,0.000000000000000000e+00,6.570193915076183444e-02,0.000000000000000000e+00,6.570193915076183444e-02
1.616666666666666696e+00,1.685122895101653814e+09,0.000000000000000000e+00,6.570193915076183444e-02,0.000000000000000000e+00,6.570193915076183444e-02
1.633333333333333304e+00,1.685122895119597435e+09,0.000000000000000000e+00,6.570193915076183444e-02,0.000000000000000000e+00,6.570193915076183444e-02
1.649999999999999911e+00,1.685122895135599613e+09,0.000000000000000000e+00,4.967707594325939530e-02,0.000000000000000000e+00,4.967707594325939530e-02
1.666666666666666741e+00,1.685122895154622555e+09,0.000000000000000000e+00,4.967707594325939530e-02,0.000000000000000000e+00,4.967707594325939530e-02
1.683333333333333348e+00,1.685122895169598341e+09,0.000000000000000000e+00,4.967707594325939530e-02,0.000000000000000000e+00,4.967707594325939530e-02
1.699999999999999956e+00,1.685122895186647892e+09,0.000000000000000000e+00,4.967707594325939530e-02,0.000000000000000000e+00,4.967707594325939530e-02
1.716666666666666563e+00,1.685122895205622673e+09,0.000000000000000000e+00,4.967707594325939530e-02,0.000000000000000000e+00,4.967707594325939530e-02
1.733333333333333393e+00,1.685122895220622540e+09,0.000000000000000000e+00,4.967707594325939530e-02,0.000000000000000000e+00,4.967707594325939530e-02
1.750000000000000000e+00,1.685122895237643480e+09,0.000000000000000000e+00,6.570193915076183444e-02,0.000000000000000000e+00,6.570193915076183444e-02
1.766666666666666607e+00,1.685122895255623817e+09,0.000000000000000000e+00,4.967707594325939530e-02,0.000000000000000000e+00,4.967707594325939530e-02
1.783333333333333215e+00,1.685122895272643566e+09,0.000000000000000000e+00,4.967707594325939530e-02,0.000000000000000000e+00,4.967707594325939530e-02
1.800000000000000044e+00,1.685122895289622307e+09,0.000000000000000000e+00,4.967707594325939530e-02,0.000000000000000000e+00,4.967707594325939530e-02
1.816666666666666652e+00,1.685122895308597803e+09,0.000000000000000000e+00,4.967707594325939530e-02,0.000000000000000000e+00,4.967707594325939530e-02
1.833333333333333259e+00,1.685122895323632717e+09,0.000000000000000000e+00,4.967707594325939530e-02,0.000000000000000000e+00,4.967707594325939530e-02
1.849999999999999867e+00,1.685122895343645811e+09,0.000000000000000000e+00,4.967707594325939530e-02,0.000000000000000000e+00,4.967707594325939530e-02
1.866666666666666696e+00,1.685122895357653379e+09,0.000000000000000000e+00,4.967707594325939530e-02,0.000000000000000000e+00,4.967707594325939530e-02
1.883333333333333304e+00,1.685122895374644518e+09,0.000000000000000000e+00,3.365221273575574185e-02,0.000000000000000000e+00,3.365221273575574185e-02
1.899999999999999911e+00,1.685122895393646002e+09,0.000000000000000000e+00,3.365221273575574185e-02,0.000000000000000000e+00,3.365221273575574185e-02
1.916666666666666741e+00,1.685122895409643650e+09,0.000000000000000000e+00,3.365221273575574185e-02,0.000000000000000000e+00,3.365221273575574185e-02
1.933333333333333348e+00,1.685122895427644014e+09,0.000000000000000000e+00,3.365221273575574185e-02,0.000000000000000000e+00,3.365221273575574185e-02
1.949999999999999956e+00,1.685122895443645000e+09,0.000000000000000000e+00,3.365221273575574185e-02,0.000000000000000000e+00,3.365221273575574185e-02
1.966666666666666563e+00,1.685122895459653854e+09,0.000000000000000000e+00,3.365221273575574185e-02,0.000000000000000000e+00,3.365221273575574185e-02
1.983333333333333393e+00,1.685122895477630377e+09,0.000000000000000000e+00,3.365221273575574185e-02,0.000000000000000000e+00,3.365221273575574185e-02
2.000000000000000000e+00,1.685122895497623444e+09,0.000000000000000000e+00,3.365221273575574185e-02,0.000000000000000000e+00,3.365221273575574185e-02
2.016666666666666607e+00,1.685122895512625694e+09,0.000000000000000000e+00,3.365221273575574185e-02,0.000000000000000000e+00,3.365221273575574185e-02
