# 
# 
# 
# 
# 
# 
# 
# 
# 
# 
# time,realtime,ref,inp,inp0,inp1,dis,state...
0.000000000000000000e+00,1.685122947854847193e+09,0.000000000000000000e+00,4.967707594325939530e-02,0.000000000000000000e+00,9.935415188651879059e-02,0.000000000000000000e+00,0.000000000000000000e+00,0.000000000000000000e+00
1.666666666666666644e-02,1.685122947857844114e+09,2.830120021771589321e-06,6.570193915076183444e-02,0.000000000000000000e+00,1.314038783015236689e-01,0.000000000000000000e+00,9.074784618878212043e-06,1.085957534560485528e-03
3.333333333333333287e-02,1.685122947860900879e+09,1.147079660791388885e-05,4.967707594325939530e-02,0.000000000000000000e+00,9.935415188651879059e-02,2.326503013403771611e-05,3.388871975930150121e-05,1.889482615643285970e-03
5.000000000000000278e-02,1.685122947877882719e+09,2.612729816778497629e-05,4.967707594325939530e-02,0.000000000000000000e+00,9.935415188651879059e-02,9.381840679466540555e-05,7.199350116689156958e-05,2.680892740069930075e-03
6.666666666666666574e-02,1.685122947896889210e+09,4.696832354662723575e-05,4.967707594325939530e-02,0.000000000000000000e+00,9.935415188651879059e-02,2.114345457689763535e-04,1.231953865534512376e-04,3.461166029500509569e-03
8.333333333333332871e-02,1.685122947915881395e+09,7.411395980240270340e-05,4.967707594325939530e-02,0.000000000000000000e+00,9.935415188651879059e-02,3.740590557327824750e-04,1.873165168062449956e-04,4.231230482564252333e-03
1.000000000000000056e-01,1.685122947931880474e+09,1.076238203934673895e-04,4.967707594325939530e-02,0.000000000000000000e+00,9.935415188651879059e-02,5.778212609876194920e-04,2.641938366610652677e-04,4.991934782780215601e-03
1.166666666666666685e-01,1.685122947949903488e+09,1.474855860413928378e-04,3.365221273575574185e-02,0.000000000000000000e+00,6.730442547151148369e-02,8.170788841418502807e-04,3.514641769420967792e-04,5.479152636164144087e-03
1.333333333333333315e-01,1.685122947966903448e+09,1.936041687995225351e-04,-1.442237688675220356e-02,0.000000000000000000e+00,-2.884475377350440711e-02,1.084494437450864461e-03,4.401843692696695695e-04,5.168134403014882326e-03
1.499999999999999944e-01,1.685122947985880613e+09,2.457917146153124868e-04,-4.647210330175770288e-02,0.000000000000000000e+00,-9.294420660351540575e-02,1.371142427887835731e-03,5.193767501307771511e-04,4.337259340922610014e-03
1.666666666666666574e-01,1.685122948002879858e+09,3.037586509648985771e-04,-6.249696650926014896e-02,0.000000000000000000e+00,-1.249939330185202979e-01,1.666646047242241946e-03,5.826634271736934193e-04,3.260133989512728828e-03
1.833333333333333204e-01,1.685122948019845963e+09,3.671059740543436965e-04,-7.852182971676319179e-02,0.000000000000000000e+00,-1.570436594335263836e-01,1.959341600042313440e-03,6.259738532710702741e-04,1.940782094803337760e-03
2.000000000000000111e-01,1.685122948036887407e+09,4.353189547661966271e-04,-7.852182971676319179e-02,0.000000000000000000e+00,-1.570436594335263836e-01,2.236468524106986679e-03,6.475155875743366079e-04,6.478176739558015075e-04
2.166666666666666741e-01,1.685122948057901859e+09,5.077624241731213588e-04,-7.852182971676319179e-02,0.000000000000000000e+00,-1.570436594335263836e-01,2.484382486062575428e-03,6.477207417545639790e-04,-6.196782674027694407e-04
2.333333333333333370e-01,1.685122948071845531e+09,5.836777782790022280e-04,-7.852182971676319179e-02,0.000000000000000000e+00,-1.570436594335263836e-01,2.688788691933684510e-03,6.270042634378273413e-04,-1.862845806166524504e-03
2.500000000000000000e-01,1.685122948091878891e+09,6.621818179614655632e-04,-7.852182971676319179e-02,0.000000000000000000e+00,-1.570436594335263836e-01,2.834992245320866206e-03,5.857602267701988129e-04,-3.083049060689601380e-03
2.666666666666666630e-01,1.685122948110901356e+09,7.422675141967672099e-04,-7.852182971676319179e-02,0.000000000000000000e+00,-1.570436594335263836e-01,2.908162116701331051e-03,5.243581105353580440e-04,-4.281874737789124682e-03
2.833333333333333259e-01,1.685122948126845360e+09,8.228067609019869624e-04,-6.249696650926014896e-02,0.000000000000000000e+00,-1.249939330185202979e-01,2.893605060586685023e-03,4.453525002238703967e-04,-5.196258484955528466e-03
2.999999999999999889e-01,1.685122948140872240e+09,9.025551485143201800e-04,-7.852182971676319179e-02,0.000000000000000000e+00,-1.570436594335263836e-01,2.777045635715028483e-03,3.490039945842639247e-04,-6.362323047333391136e-03
3.166666666666666519e-01,1.685122948158901453e+09,9.801587611520084630e-04,-7.852182971676319179e-02,0.000000000000000000e+00,-1.570436594335263836e-01,2.544908349696682441e-03,2.333500740731066778e-04,-7.512951149606675490e-03
3.333333333333333148e-01,1.685122948176895857e+09,1.054162969294720207e-03,-7.852182971676319179e-02,0.000000000000000000e+00,-1.570436594335263836e-01,2.184597865576085995e-03,9.862817758782632606e-05,-8.650516450641181077e-03
3.499999999999999778e-01,1.685122948195883512e+09,1.123023158825619226e-03,-7.852182971676319179e-02,0.000000000000000000e+00,-1.570436594335263836e-01,1.684773175044070688e-03,-5.496505553002564584e-05,-9.777540826551980868e-03
3.666666666666666408e-01,1.685122948211905241e+09,1.185117306443184484e-03,-7.852182971676319179e-02,0.000000000000000000e+00,-1.570436594335263836e-01,1.035611662366110828e-03,-2.272760255892814505e-04,-1.089666682406600917e-02
3.833333333333333037e-01,1.685122948228902340e+09,1.238760281330031961e-03,-7.852182971676319179e-02,0.000000000000000000e+00,-1.570436594335263836e-01,2.290590547075735308e-04,-4.181959228145324206e-04,-1.201062643787501917e-02
4.000000000000000222e-01,1.685122948245905638e+09,1.282219724005864399e-03,-7.852182971676319179e-02,0.000000000000000000e+00,-1.570436594335263836e-01,-7.409386219543657353e-04,-6.276619295086752768e-04,-1.312220657015950205e-02
4.166666666666666852e-01,1.685122948262882710e+09,1.313733325928454019e-03,-6.249696650926014896e-02,0.000000000000000000e+00,-1.249939330185202979e-01,-1.878224787744092348e-03,-8.534444601689017591e-04,-1.396934389444934657e-02
4.333333333333333481e-01,1.685122948279876471e+09,1.331527308059720846e-03,-7.852182971676319179e-02,0.000000000000000000e+00,-1.570436594335263836e-01,-3.184247237359198995e-03,-1.095622689778604766e-03,-1.508893361407501708e-02
4.500000000000000111e-01,1.685122948299908638e+09,1.333835873679557315e-03,-7.852182971676319179e-02,0.000000000000000000e+00,-1.570436594335263836e-01,-4.657901464076117694e-03,-1.356509651615123071e-03,-1.621437550525248877e-02
4.666666666666666741e-01,1.685122948316903591e+09,1.318921390575687703e-03,-7.852182971676319179e-02,0.000000000000000000e+00,-1.570436594335263836e-01,-6.295405276200284443e-03,-1.636224704552624500e-03,-1.734828103553104350e-02
4.833333333333333370e-01,1.685122948335885286e+09,1.285095040696848656e-03,-7.852182971676319179e-02,0.000000000000000000e+00,-1.570436594335263836e-01,-8.090207246815748696e-03,-1.934929466340876234e-03,-1.849311022313577385e-02
5.000000000000000000e-01,1.685122948349902391e+09,1.230737661723243668e-03,-7.852182971676319179e-02,0.000000000000000000e+00,-1.570436594335263836e-01,-1.003293114446639038e-02,-2.252824920204684646e-03,-1.965112745029245697e-02
5.166666666666666075e-01,1.685122948368909121e+09,1.154320495033214202e-03,-7.852182971676319179e-02,0.000000000000000000e+00,-1.570436594335263836e-01,-1.211135806630943626e-02,-2.590147788634059207e-03,-2.082435771158095902e-02
5.333333333333333259e-01,1.685122948388880968e+09,1.054425548431753680e-03,-7.852182971676319179e-02,0.000000000000000000e+00,-1.570436594335263836e-01,-1.431044754104158524e-02,-2.947166186938010406e-03,-2.201454393424042214e-02
5.500000000000000444e-01,1.685122948403875113e+09,9.297652799070984077e-04,-7.852182971676319179e-02,0.000000000000000000e+00,-1.570436594335263836e-01,-1.661239839160905812e-02,-3.324174579771431437e-03,-2.322310600987987153e-02
5.666666666666666519e-01,1.685122948420902252e+09,7.792013106953073545e-04,-7.852182971676319179e-02,0.000000000000000000e+00,-1.570436594335263836e-01,-1.899674965279303171e-02,-3.721488074454502252e-03,-2.445110217135607056e-02
5.833333333333333703e-01,1.685122948437910795e+09,6.017618821026022528e-04,-7.852182971676319179e-02,0.000000000000000000e+00,-1.570436594335263836e-01,-2.144052133189686821e-02,-4.139436095349974254e-03,-2.569919333460493269e-02
5.999999999999999778e-01,1.685122948457901716e+09,3.966577808485045290e-04,-7.852182971676319179e-02,0.000000000000000000e+00,-1.570436594335263836e-01,-2.391839428783463714e-02,-4.578355493707759669e-03,-2.696761100299044367e-02
6.166666666666666963e-01,1.685122948473906994e+09,1.632964720780830353e-04,-7.852182971676319179e-02,0.000000000000000000e+00,-1.570436594335263836e-01,-2.640292799095589338e-02,-5.038583157092161452e-03,-2.825612930140136009e-02
6.333333333333333037e-01,1.685122948491904974e+09,-9.870580247755029600e-05,-7.852182971676319179e-02,0.000000000000000000e+00,-1.570436594335263836e-01,-2.886481441903404957e-02,-5.520448191641625160e-03,-2.956404166911518264e-02
6.500000000000000222e-01,1.685122948510881186e+09,-3.895141816219023436e-04,-7.852182971676319179e-02,0.000000000000000000e+00,-1.570436594335263836e-01,-3.127316585009186356e-02,-6.024263758845502248e-03,-3.089014269469222279e-02
6.666666666666666297e-01,1.685122948526881695e+09,-7.090677919087346251e-04,-7.852182971676319179e-02,0.000000000000000000e+00,-1.570436594335263836e-01,-3.359583383617198438e-02,-6.550318656134839455e-03,-3.223271552328513950e-02
6.833333333333333481e-01,1.685122948543846130e+09,-1.057074970917513349e-03,-7.852182971676319179e-02,0.000000000000000000e+00,-1.570436594335263836e-01,-3.579975618968285478e-02,-7.098868737260228927e-03,-3.358952520726718460e-02
6.999999999999999556e-01,1.685122948561887741e+09,-1.433011240808340159e-03,-3.552638998715623719e-01,-5.534841403095982493e-01,-1.570436594335263836e-01,-3.785132839126228305e-02,-7.708352026880351156e-03,-3.953196238869413626e-02
7.166666666666666741e-01,1.685122948580885887e+09,-1.836120132118031689e-03,-6.249696650926014896e-02,0.000000000000000000e+00,-1.249939330185202979e-01,-3.971679544063458356e-02,-8.375875708123725963e-03,-4.056800140661567106e-02
7.333333333333332815e-01,1.685122948597883463e+09,-2.265416921410293681e-03,-6.249696650926014896e-02,0.000000000000000000e+00,-1.249939330185202979e-01,-4.136265982480007153e-02,-9.060750935716330168e-03,-4.161411995125740421e-02
7.500000000000000000e-01,1.685122948614880562e+09,-2.719695308412111660e-03,-7.852182971676319179e-02,0.000000000000000000e+00,-1.570436594335263836e-01,-4.275610097580077873e-02,-9.765322806860156704e-03,-4.293084692498964211e-02
7.666666666666666075e-01,1.685122948633902788e+09,-3.197537019141316432e-03,-7.852182971676319179e-02,0.000000000000000000e+00,-1.570436594335263836e-01,-4.386540133752197396e-02,-1.049181147769903677e-02,-4.424414543838885161e-02
7.833333333333333259e-01,1.685122948648880243e+09,-3.697324281768504892e-03,-7.852182971676319179e-02,0.000000000000000000e+00,-1.570436594335263836e-01,-4.466037396128389597e-02,-1.124011686566406265e-02,-4.554887677839127708e-02
8.000000000000000444e-01,1.685122948665880919e+09,-4.217255082085368499e-03,-7.852182971676319179e-02,0.000000000000000000e+00,-1.570436594335263836e-01,-4.511278640657366557e-02,-1.201005005325144273e-02,-4.683952052619284184e-02
8.166666666666666519e-01,1.685122948684885263e+09,-4.755361066009719008e-03,-7.852182971676319179e-02,0.000000000000000000e+00,-1.570436594335263836e-01,-4.519677563879238164e-02,-1.280132730624507047e-02,-4.811022002912514195e-02
8.333333333333333703e-01,1.685122948703905821e+09,-5.309527918082943519e-03,-7.852182971676319179e-02,0.000000000000000000e+00,-1.570436594335263836e-01,-4.488924859235804421e-02,-1.361356489884908184e-02,-4.935483374167315418e-02
8.499999999999999778e-01,1.685122948720901728e+09,-5.877518007945952035e-03,-7.852182971676319179e-02,0.000000000000000000e+00,-1.570436594335263836e-01,-4.417026310625146723e-02,-1.444627484002779585e-02,-5.056699201421135242e-02
8.666666666666666963e-01,1.685122948737880945e+09,-6.456995061837302735e-03,-6.249696650926014896e-02,0.000000000000000000e+00,-1.249939330185202979e-01,-4.302338404080114503e-02,-1.529664822556576695e-02,-5.147529113784107130e-02
8.833333333333333037e-01,1.685122948754902363e+09,-7.045550583749790076e-03,-7.852182971676319179e-02,0.000000000000000000e+00,-1.570436594335263836e-01,-4.143600954913628093e-02,-1.616402858824805139e-02,-5.260720809625710898e-02
9.000000000000000222e-01,1.685122948773882627e+09,-7.640731721488452748e-03,-7.852182971676319179e-02,0.000000000000000000e+00,-1.570436594335263836e-01,-3.939966270357649070e-02,-1.704983663139312405e-02,-5.368675826011769930e-02
9.166666666666666297e-01,1.685122948791881561e+09,-8.240070246942933496e-03,-7.852182971676319179e-02,0.000000000000000000e+00,-1.570436594335263836e-01,-3.691024396482548570e-02,-1.795314422950356620e-02,-5.470731855670039889e-02
9.333333333333333481e-01,1.685122948810885429e+09,-8.841112297830617736e-03,-7.852182971676319179e-02,0.000000000000000000e+00,-1.570436594335263836e-01,-3.396824032806724375e-02,-1.887291385458270826e-02,-5.566238343236842856e-02
9.499999999999999556e-01,1.685122948826860189e+09,-9.441448510348544529e-03,-7.852182971676319179e-02,0.000000000000000000e+00,-1.570436594335263836e-01,-3.057888738209664503e-02,-1.980800117443238736e-02,-5.654564139749974905e-02
9.666666666666666741e-01,1.685122948842880487e+09,-1.003874415890885184e-02,-7.852182971676319179e-02,0.000000000000000000e+00,-1.570436594335263836e-01,-2.675228097197318577e-02,-2.075715893154999117e-02,-5.735105215186108579e-02
9.833333333333332815e-01,1.685122948859845877e+09,-1.063076891068394023e-02,-7.852182971676319179e-02,0.000000000000000000e+00,-1.570436594335263836e-01,-2.250343565823180805e-02,-2.171904210487022799e-02,-5.807292340145742832e-02
1.000000000000000000e+00,1.685122948880844116e+09,-1.121542579925722226e-02,-7.852182971676319179e-02,0.000000000000000000e+00,-1.570436594335263836e-01,-1.785228771170603232e-02,-2.269221434159138934e-02,-5.870598645521075271e-02
1.016666666666666607e+00,1.685122948897845984e+09,-1.179077902340069407e-02,-7.852182971676319179e-02,0.000000000000000000e+00,-1.570436594335263836e-01,-1.282364096722096378e-02,-2.367515563102607495e-02,-5.924546967717580354e-02
1.033333333333333215e+00,1.685122948915846348e+09,-1.235508018395770242e-02,-7.852182971676319179e-02,0.000000000000000000e+00,-1.570436594335263836e-01,-7.447054476011872974e-03,-2.466627117699278157e-02,-5.968716886775535246e-02
1.050000000000000044e+00,1.685122948931884050e+09,-1.290679258400296084e-02,-6.249696650926014896e-02,0.000000000000000000e+00,-1.249939330185202979e-01,-1.756671539466316467e-03,-2.566168804779051654e-02,-5.976264596443639499e-02
1.066666666666666652e+00,1.685122948951881886e+09,-1.344461323482232587e-02,-7.852182971676319179e-02,0.000000000000000000e+00,-1.570436594335263836e-01,4.209009630966063786e-03,-2.665974182450754973e-02,-6.000313918914931127e-02
1.083333333333333259e+00,1.685122948966902256e+09,-1.396749223267000108e-02,-7.852182971676319179e-02,0.000000000000000000e+00,-1.570436594335263836e-01,1.040742270807190270e-02,-2.766091447668522774e-02,-6.013720665378315122e-02
1.100000000000000089e+00,1.685122948986899376e+09,-1.447464919852269050e-02,-7.852182971676319179e-02,0.000000000000000000e+00,-1.570436594335263836e-01,1.679227589767453427e-02,-2.866342119003328914e-02,-6.016352583741989973e-02
1.116666666666666696e+00,1.685122949000879765e+09,-1.496558650489472966e-02,-7.852182971676319179e-02,0.000000000000000000e+00,-1.570436594335263836e-01,2.331394816425307048e-02,-2.966546214459559946e-02,-6.008161624206609375e-02
1.133333333333333304e+00,1.685122949020884752e+09,-1.544009904987419385e-02,-7.852182971676319179e-02,0.000000000000000000e+00,-1.570436594335263836e-01,2.991993608736029375e-02,-3.066523683028139075e-02,-5.989187311687035192e-02
1.149999999999999911e+00,1.685122949038844585e+09,-1.589828037849803227e-02,-7.852182971676319179e-02,0.000000000000000000e+00,-1.570436594335263836e-01,3.655534775166553035e-02,-3.166095885159242451e-02,-5.959559246164427421e-02
1.166666666666666741e+00,1.685122949056844473e+09,-1.634052499495752472e-02,-7.852182971676319179e-02,0.000000000000000000e+00,-1.570436594335263836e-01,4.316343944698366325e-02,-3.265087107149275414e-02,-5.919498674624026902e-02
1.183333333333333348e+00,1.685122949075844526e+09,-1.676752675541313617e-02,-7.852182971676319179e-02,0.000000000000000000e+00,-1.570436594335263836e-01,4.968619036025812008e-02,-3.363326093572018005e-02,-5.869319087128792301e-02
1.199999999999999956e+00,1.685122949090878963e+09,-1.718027327985544028e-02,-7.852182971676319179e-02,0.000000000000000000e+00,-1.570436594335263836e-01,5.606490988629243138e-02,-3.460647581173796616e-02,-5.809425799244465061e-02
1.216666666666666563e+00,1.685122949107872486e+09,-1.758003637188826351e-02,-7.852182971676319179e-02,0.000000000000000000e+00,-1.570436594335263836e-01,6.224087167496149264e-02,-3.556893817109256506e-02,-5.740314493378675248e-02
1.233333333333333393e+00,1.685122949125881910e+09,-1.796835848691453671e-02,-7.852182971676319179e-02,0.000000000000000000e+00,-1.570436594335263836e-01,6.815596807616634834e-02,-3.651916044028363784e-02,-5.662568702527229214e-02
1.250000000000000000e+00,1.685122949141881704e+09,-1.834703534132539962e-02,-7.852182971676319179e-02,0.000000000000000000e+00,-1.570436594335263836e-01,7.375337824601400916e-02,-3.745575934345478364e-02,-5.576856231328029823e-02
1.266666666666666607e+00,1.685122949158879995e+09,-1.871809480726827762e-02,-7.852182971676319179e-02,0.000000000000000000e+00,-1.570436594335263836e-01,7.897824284413401674e-02,-3.837746956034694679e-02,-5.483924521093195420e-02
1.283333333333333215e+00,1.685122949176902294e+09,-1.908377228872304779e-02,-7.852182971676319179e-02,0.000000000000000000e+00,-1.570436594335263836e-01,8.377833798767510276e-02,-3.928315652507218675e-02,-5.384594977502485391e-02
1.300000000000000044e+00,1.685122949190848112e+09,-1.944648282427404243e-02,-7.852182971676319179e-02,0.000000000000000000e+00,-1.570436594335263836e-01,8.810474093667795825e-02,-4.017182819539280580e-02,-5.279756291770565380e-02
1.316666666666666652e+00,1.685122949211871386e+09,-1.980879020945908869e-02,-6.249696650926014896e-02,0.000000000000000000e+00,-1.249939330185202979e-01,9.191247987183415180e-02,-4.104043226623677737e-02,-5.143870029081878265e-02
1.333333333333333259e+00,1.685122949227900982e+09,-2.017337347625292737e-02,-7.852182971676319179e-02,0.000000000000000000e+00,-1.570436594335263836e-01,9.516116009199449000e-02,-4.188834096618584968e-02,-5.031346941794918870e-02
1.350000000000000089e+00,1.685122949244883776e+09,-2.054299110847188081e-02,-7.852182971676319179e-02,0.000000000000000000e+00,-1.570436594335263836e-01,9.781555900728439168e-02,-4.271728460880073325e-02,-4.916296362049228652e-02
1.366666666666666696e+00,1.685122949262904644e+09,-2.092044340907475361e-02,-3.508662805464680123e-01,-5.446889016594096411e-01,-1.570436594335263836e-01,9.984618243558167350e-02,-4.356454794394564595e-02,-5.249936858719547739e-02
1.383333333333333304e+00,1.685122949279879332e+09,-2.130853346792331571e-02,-3.724545935969312271e-01,-5.878655277603360707e-01,-1.570436594335263836e-01,1.012297749258426055e-01,-4.446974788870219214e-02,-5.611458228695707928e-02
1.399999999999999911e+00,1.685122949297846794e+09,-2.171002720605057917e-02,-3.856474515722141394e-01,-6.142512437109018952e-01,-1.570436594335263836e-01,1.019497771308533890e-01,-4.543642481706391956e-02,-5.987619993261803636e-02
1.416666666666666741e+00,1.685122949314844608e+09,-2.212761299441190835e-02,-4.224275404730032379e-01,-6.878114215124799813e-01,-1.570436594335263836e-01,1.019967236331199706e-01,-4.647034941630403398e-02,-6.418278894737597384e-02
1.433333333333333348e+00,1.685122949332880497e+09,-2.256386136107576754e-02,-3.840483172721799177e-01,-6.110529751108333407e-01,-1.570436594335263836e-01,1.013685750885553877e-01,-4.757024147363164007e-02,-6.779422592644210321e-02
1.449999999999999956e+00,1.685122949349897385e+09,-2.302118531052509826e-02,-4.120331675227801860e-01,-6.670226756120339884e-01,-1.570436594335263836e-01,1.000709790902979263e-01,-4.873386983988645810e-02,-7.182996736739533095e-02
1.466666666666666563e+00,1.685122949366901875e+09,-2.350180178194067118e-02,-3.912444216223342486e-01,-6.254451838111421136e-01,-1.570436594335263836e-01,9.811745476541959554e-02,-4.996160161466670080e-02,-7.548768504023033177e-02
1.483333333333333393e+00,1.685122949381846666e+09,-2.400769476985413833e-02,-3.788511307970683917e-01,-6.006586021606103998e-01,-1.570436594335263836e-01,9.552949679571881569e-02,-5.124843582740420261e-02,-7.892287806084866131e-02
1.500000000000000000e+00,1.685122949399906397e+09,-2.454058062030289172e-02,-3.600613027716652592e-01,-5.630789461098040238e-01,-1.570436594335263836e-01,9.233659529458744519e-02,-5.258989453130399200e-02,-8.204349781490016813e-02
1.516666666666666607e+00,1.685122949416886568e+09,-2.510187599858699006e-02,-3.644589220967595633e-01,-5.718741847599927430e-01,-1.570436594335263836e-01,8.857616876882057344e-02,-5.398405933624399189e-02,-8.524737889875914909e-02
1.533333333333333215e+00,1.685122949436881304e+09,-2.569266900100129411e-02,-7.852182971676319179e-02,0.000000000000000000e+00,-1.570436594335263836e-01,8.429340824010114752e-02,-5.539227740074166573e-02,-8.374296785887250238e-02
1.550000000000000044e+00,1.685122949453901291e+09,-2.631369385266290814e-02,-7.852182971676319179e-02,0.000000000000000000e+00,-1.570436594335263836e-01,7.954103148808097656e-02,-5.677628613855967288e-02,-8.234197242486586410e-02
1.566666666666666652e+00,1.685122949468903542e+09,-2.696530959702254926e-02,-7.852182971676319179e-02,0.000000000000000000e+00,-1.570436594335263836e-01,7.437894729721490628e-02,-5.813785144831014329e-02,-8.104945515544119405e-02
1.583333333333333259e+00,1.685122949486901522e+09,-2.764748314018140515e-02,-7.852182971676319179e-02,0.000000000000000000e+00,-1.570436594335263836e-01,6.887383053400680799e-02,-5.947881369617460945e-02,-7.986929289395600096e-02
1.600000000000000089e+00,1.685122949503902912e+09,-2.835977696514525512e-02,-7.852182971676319179e-02,0.000000000000000000e+00,-1.570436594335263836e-01,6.309860984090846781e-02,-6.080106725397854683e-02,-7.880409300074964207e-02
1.616666666666666696e+00,1.685122949522888184e+09,-2.910134177812977174e-02,-7.852182971676319179e-02,0.000000000000000000e+00,-1.570436594335263836e-01,5.713187069823046083e-02,-6.210653873515741691e-02,-7.785512083654631821e-02
1.633333333333333304e+00,1.685122949541844845e+09,-2.987091429155656896e-02,-7.852182971676319179e-02,0.000000000000000000e+00,-1.570436594335263836e-01,5.105717756628574966e-02,-6.339716412575487070e-02,-7.702223964845682225e-02
1.649999999999999911e+00,1.685122949555902481e+09,-3.066682028707619009e-02,-7.852182971676319179e-02,0.000000000000000000e+00,-1.570436594335263836e-01,4.496231976668346036e-02,-6.467486502598322751e-02,-7.630386391406313029e-02
1.666666666666666741e+00,1.685122949574902773e+09,-3.148698303752178046e-02,-7.852182971676319179e-02,0.000000000000000000e+00,-1.570436594335263836e-01,3.893848668417070752e-02,-6.594152423455097722e-02,-7.569692708937192371e-02
1.683333333333333348e+00,1.685122949591902733e+09,-3.232893709987946784e-02,-7.852182971676319179e-02,0.000000000000000000e+00,-1.570436594335263836e-01,3.307937875879360390e-02,-6.719896092270112586e-02,-7.519686458385460570e-02
1.699999999999999956e+00,1.685122949608905315e+09,-3.318984742294924656e-02,-7.852182971676319179e-02,0.000000000000000000e+00,-1.570436594335263836e-01,2.748026158254843893e-02,-6.844890565750028077e-02,-7.479761265129236669e-02
1.716666666666666563e+00,1.685122949627902269e+09,-3.406653364419182095e-02,-7.852182971676319179e-02,0.000000000000000000e+00,-1.570436594335263836e-01,2.223697120559775878e-02,-6.969297554418266150e-02,-7.449162373979607843e-02
1.733333333333333393e+00,1.685122949643902302e+09,-3.495549938116265798e-02,-7.852182971676319179e-02,0.000000000000000000e+00,-1.570436594335263836e-01,1.744487948527292595e-02,-7.093264976511409747e-02,-7.426989868938949080e-02
1.750000000000000000e+00,1.685122949662880421e+09,-3.585296625479422045e-02,-7.852182971676319179e-02,0.000000000000000000e+00,-1.570436594335263836e-01,1.319782896772977478e-02,-7.216924579804999407e-02,-7.412203600227082467e-02
1.766666666666666607e+00,1.685122949681907654e+09,-3.675491231547255155e-02,-7.852182971676319179e-02,0.000000000000000000e+00,-1.570436594335263836e-01,9.587047368996697363e-03,-7.340389659869145378e-02,-7.403629824075880217e-02
1.783333333333333215e+00,1.685122949697902441e+09,-3.765711447923403982e-02,-7.852182971676319179e-02,0.000000000000000000e+00,-1.570436594335263836e-01,6.700052211661354853e-03,-7.463752903199510902e-02,-7.399969543254017457e-02
1.800000000000000044e+00,1.685122949714847803e+09,-3.855519452133460839e-02,-7.852182971676319179e-02,0.000000000000000000e+00,-1.570436594335263836e-01,4.619556568678107565e-03,-7.587084383318956626e-02,-7.399808518381380262e-02
1.816666666666666652e+00,1.685122949732902288e+09,-3.944466811874158124e-02,-7.852182971676319179e-02,0.000000000000000000e+00,-1.570436594335263836e-01,3.422387160653904935e-03,-7.710429737294960395e-02,-7.401628901998892618e-02
1.833333333333333259e+00,1.685122949748903275e+09,-4.032099638255483981e-02,-7.852182971676319179e-02,0.000000000000000000e+00,-1.570436594335263836e-01,3.178426242255705768e-03,-7.833808549166007551e-02,-7.403822429252025772e-02
1.849999999999999867e+00,1.685122949765905142e+09,-4.117963927672026875e-02,-7.852182971676319179e-02,0.000000000000000000e+00,-1.570436594335263836e-01,3.949588792803127371e-03,-7.957212965517899972e-02,-7.404705081106732756e-02
1.866666666666666696e+00,1.685122949783881426e+09,-4.201611028133540177e-02,-7.852182971676319179e-02,0.000000000000000000e+00,-1.570436594335263836e-01,5.788846492376533912e-03,-8.080606566902603927e-02,-7.402533118429339976e-02
1.883333333333333304e+00,1.685122949799901485e+09,-4.282603162798091778e-02,-7.852182971676319179e-02,0.000000000000000000e+00,-1.570436594335263836e-01,8.739309815664076872e-03,-8.203923516955279049e-02,-7.395520368211830342e-02
1.899999999999999911e+00,1.685122949817901850e+09,-4.360518941138065430e-02,-7.852182971676319179e-02,0.000000000000000000e+00,-1.570436594335263836e-01,1.283337931014344631e-02,-8.327068008950080924e-02,-7.381856626894728324e-02
1.916666666666666741e+00,1.685122949837881088e+09,-4.434958786675106956e-02,-7.852182971676319179e-02,0.000000000000000000e+00,-1.570436594335263836e-01,1.809197674304013556e-02,-8.449914027155568108e-02,-7.359727030312113172e-02
1.933333333333333348e+00,1.685122949853901386e+09,-4.505550209581542231e-02,-7.852182971676319179e-02,0.000000000000000000e+00,-1.570436594335263836e-01,2.452386630395303468e-02,-8.572305437722718691e-02,-7.327332225432979518e-02
1.949999999999999956e+00,1.685122949871844292e+09,-4.571952852689200458e-02,-7.852182971676319179e-02,0.000000000000000000e+00,-1.570436594335263836e-01,3.212507543937620502e-02,-8.694056420981974287e-02,-7.282909165969368714e-02
1.966666666666666563e+00,1.685122949889902115e+09,-4.633863240588492055e-02,-7.852182971676319179e-02,0.000000000000000000e+00,-1.570436594335263836e-01,4.087842417501503373e-02,-8.814952253962471396e-02,-7.224752342225118640e-02
1.983333333333333393e+00,1.685122949906844854e+09,-4.691019163547030524e-02,-7.852182971676319179e-02,0.000000000000000000e+00,-1.570436594335263836e-01,5.075317095638135628e-02,-8.934750448701479775e-02,-7.151235245420080322e-02
2.000000000000000000e+00,1.685122949926847458e+09,-4.743203630922398356e-02,-7.852182971676319179e-02,0.000000000000000000e+00,-1.570436594335263836e-01,6.170478211334474994e-02,-9.053182248512077479e-02,-7.060831858281846340e-02
2.016666666666666607e+00,1.685122949941844940e+09,-4.790248332572395046e-02,-7.852182971676319179e-02,0.000000000000000000e+00,-1.570436594335263836e-01,7.367483103692291924e-02,-9.169954480851641443e-02,-6.952137957075349428e-02
2.033333333333333215e+00,1.685122949958880901e+09,-4.832036551450345080e-02,-7.852182971676319179e-02,0.000000000000000000e+00,-1.570436594335263836e-01,8.659103205440531192e-02,-9.284751761814032112e-02,-6.823892005550222239e-02
2.049999999999999822e+00,1.685122949977881432e+09,-4.868505476074944105e-02,-7.852182971676319179e-02,0.000000000000000000e+00,-1.570436594335263836e-01,1.003674128107620023e-01,-9.397239043587410356e-02,-6.674995418620179033e-02
2.066666666666666430e+00,1.685122949994881153e+09,-4.899647867834720089e-02,-7.852182971676319179e-02,0.000000000000000000e+00,-1.570436594335263836e-01,1.149046277198704641e-01,-9.507064492511814457e-02,-6.504531973023930380e-02
2.083333333333333481e+00,1.685122950011888266e+09,-4.925513045067030082e-02,-7.852182971676319179e-02,0.000000000000000000e+00,-1.570436594335263836e-01,1.300904137489948542e-01,-9.613862681671414556e-02,-6.311786143810610428e-02
2.100000000000000089e+00,1.685122950028879642e+09,-4.946207153471633700e-02,-7.852182971676319179e-02,0.000000000000000000e+00,-1.570436594335263836e-01,1.458001884554538941e-01,-9.717258078302114244e-02,-6.096260149282093505e-02
2.116666666666666696e+00,1.685122950045906305e+09,-4.961892700600954026e-02,-7.852182971676319179e-02,0.000000000000000000e+00,-1.570436594335263836e-01,1.618977888174850943e-01,-9.816868802722486520e-02,-5.857689493027185001e-02
2.133333333333333304e+00,1.685122950063880682e+09,-4.972787340826343577e-02,-7.852182971676319179e-02,0.000000000000000000e+00,-1.570436594335263836e-01,1.782363480045023596e-01,-9.912310632041954062e-02,-5.596056799894819078e-02
2.149999999999999911e+00,1.685122950079880476e+09,-4.979161906217632189e-02,-7.852182971676319179e-02,0.000000000000000000e+00,-1.570436594335263836e-01,1.946593058281497202e-01,-1.000320121860108630e-01,-5.311603753150043183e-02
2.166666666666666519e+00,1.685122950098904610e+09,-4.981337688091398708e-02,-7.852182971676319179e-02,0.000000000000000000e+00,-1.570436594335263836e-01,2.110015472181455964e-01,-1.008916448999104543e-01,-5.004840952591112918e-02
2.183333333333333126e+00,1.685122950116844654e+09,-4.979682983474574554e-02,-7.852182971676319179e-02,0.000000000000000000e+00,-1.570436594335263836e-01,2.270906616893482444e-01,-1.016983519461755886e-01,-4.676555528010291340e-02
2.200000000000000178e+00,1.685122950133882999e+09,-4.974608930284277891e-02,-7.852182971676319179e-02,0.000000000000000000e+00,-1.570436594335263836e-01,2.427483154223057660e-01,-1.024486355415307470e-01,-4.327816358965537458e-02
2.216666666666666785e+00,1.685122950151881695e+09,-4.966564664527511885e-02,-7.852182971676319179e-02,0.000000000000000000e+00,-1.570436594335263836e-01,2.577917262824155342e-01,-1.031391998189112869e-01,-3.959976770284730219e-02
2.233333333333333393e+00,1.685122950169902325e+09,-4.956031842159846351e-02,-7.852182971676319179e-02,0.000000000000000000e+00,-1.570436594335263836e-01,2.720352308659516605e-01,-1.037669982400934721e-01,-3.574674592917864019e-02
2.250000000000000000e+00,1.685122950185902596e+09,-4.943518577294836458e-02,-7.852182971676319179e-02,0.000000000000000000e+00,-1.570436594335263836e-01,2.852919314978037968e-01,-1.043292807908984543e-01,-3.173829501535631314e-02
2.266666666666666607e+00,1.685122950204879284e+09,-4.929552857108918801e-02,-7.852182971676319179e-02,0.000000000000000000e+00,-1.570436594335263836e-01,2.973754100283253488e-01,-1.048236404996294446e-01,-2.759637563476595445e-02
2.283333333333333215e+00,1.685122950222886324e+09,-4.914675501928152807e-02,-7.852182971676319179e-02,0.000000000000000000e+00,-1.570436594335263836e-01,3.081014942973612225e-01,-1.052480588105442344e-01,-2.334562958084120468e-02
2.299999999999999822e+00,1.685122950239880800e+09,-4.899432746502485614e-02,-7.852182971676319179e-02,0.000000000000000000e+00,-1.570436594335263836e-01,3.172900622636565249e-01,-1.056009493394672316e-01,-1.901326850946997993e-02
2.316666666666666430e+00,1.685122950257905483e+09,-4.884368525266601091e-02,-7.852182971676319179e-02,0.000000000000000000e+00,-1.570436594335263836e-01,3.247668680480012560e-01,-1.058811995382613058e-01,-1.462893433848860489e-02
2.333333333333333481e+00,1.685122950274904966e+09,-4.870016550354944879e-02,-7.852182971676319179e-02,0.000000000000000000e+00,-1.570436594335263836e-01,3.303653735183599838e-01,-1.060882097989266498e-01,-1.022453168112998079e-02
2.350000000000000089e+00,1.685122950292901993e+09,-4.856892276191553809e-02,-7.852182971676319179e-02,0.000000000000000000e+00,-1.570436594335263836e-01,3.339285685633882617e-01,-1.062219295366511745e-01,-5.834032962628375729e-03
2.366666666666666696e+00,1.685122950311901331e+09,-4.845484848531358968e-02,-6.249696650926014896e-02,0.000000000000000000e+00,-1.249939330185202979e-01,3.353107628648048788e-01,-1.062806764421389827e-01,-1.228389451214824055e-03
2.383333333333333304e+00,1.685122950328881025e+09,-4.836249138815693072e-02,-6.249696650926014896e-02,0.000000000000000000e+00,-1.249939330185202979e-01,3.343793317952051258e-01,-1.062634274059405387e-01,3.285734267352477186e-03
2.399999999999999911e+00,1.685122950345901728e+09,-4.829597966561258171e-02,-7.852182971676319179e-02,0.000000000000000000e+00,-1.570436594335263836e-01,3.310163990411704171e-01,-1.061742443195052149e-01,7.404794002990612231e-03
2.416666666666666519e+00,1.685122950361845016e+09,-4.825894613178242920e-02,-7.852182971676319179e-02,0.000000000000000000e+00,-1.570436594335263836e-01,3.251204386855024442e-01,-1.060177935170481395e-01,1.135832001667919783e-02
2.433333333333333126e+00,1.685122950377881527e+09,-4.825445730074303524e-02,-7.852182971676319179e-02,0.000000000000000000e+00,-1.570436594335263836e-01,3.166077797793322990e-01,-1.057971724500443300e-01,1.510579811738486759e-02
2.450000000000000178e+00,1.685122950394902468e+09,-4.828494742123132927e-02,-7.852182971676319179e-02,0.000000000000000000e+00,-1.570436594335263836e-01,3.054139968954064921e-01,-1.055161571091178807e-01,1.860631889610247017e-02
2.466666666666666785e+00,1.685122950412903309e+09,-4.835215844550951741e-02,-7.852182971676319179e-02,0.000000000000000000e+00,-1.570436594335263836e-01,2.914951707772939771e-01,-1.051792057240979461e-01,2.181892319542471509e-02
2.483333333333333393e+00,1.685122950428880692e+09,-4.845708687026136635e-02,-7.852182971676319179e-02,0.000000000000000000e+00,-1.570436594335263836e-01,2.748290039832321230e-01,-1.047914565998716574e-01,2.470296030897290926e-02
2.500000000000000000e+00,1.685122950448846579e+09,-4.859993833246709083e-02,-7.852182971676319179e-02,0.000000000000000000e+00,-1.570436594335263836e-01,2.554157773640663986e-01,-1.043587198996120263e-01,2.721845606950165988e-02
2.516666666666666607e+00,1.685122950464902639e+09,-4.878009077641926733e-02,-7.852182971676319179e-02,0.000000000000000000e+00,-1.570436594335263836e-01,2.332791343068027490e-01,-1.038874632357244671e-01,2.932648781544808930e-02
2.533333333333333215e+00,1.685122950481848001e+09,-4.899606692986743783e-02,-7.852182971676319179e-02,0.000000000000000000e+00,-1.570436594335263836e-01,2.084666809118735642e-01,-1.033847909802446674e-01,3.098956307988679632e-02
2.549999999999999822e+00,1.685122950498903513e+09,-4.924551673834855203e-02,-3.580623848966223433e-01,-5.590811103597183029e-01,-1.570436594335263836e-01,1.810503916449920370e-01,-1.028970275409938490e-01,2.755159975310880402e-02
2.566666666666666430e+00,1.685122950517886639e+09,-4.952521030784226563e-02,-3.760526457720083648e-01,-5.950616321104903461e-01,-1.570436594335263836e-01,1.511268115036460136e-01,-1.024727065209413840e-01,2.337851482858362834e-02
2.583333333333333481e+00,1.685122950534881353e+09,-4.983104179789252935e-02,-3.668576235468111180e-01,-5.766715876600958524e-01,-1.570436594335263836e-01,1.188170473528693399e-01,-1.021205531474140005e-01,1.889235185182387700e-02
2.600000000000000089e+00,1.685122950550880909e+09,-5.015804459128191117e-02,-3.844481008471883898e-01,-6.118525422608503961e-01,-1.570436594335263836e-01,8.426654280245778061e-02,-1.018497512641938774e-01,1.361852400119157105e-02
2.616666666666666696e+00,1.685122950567903996e+09,-5.050041794337847140e-02,-7.852182971676319179e-02,0.000000000000000000e+00,-1.570436594335263836e-01,4.764463280486396640e-02,-1.016289216353486180e-01,1.288307442381465655e-02
2.633333333333333304e+00,1.685122950586901903e+09,-5.085156518564375172e-02,-7.852182971676319179e-02,0.000000000000000000e+00,-1.570436594335263836e-01,9.143876034844206080e-03,-1.014255656625328850e-01,1.152341922296694354e-02
2.649999999999999911e+00,1.685122950604902506e+09,-5.120414342483121939e-02,-7.852182971676319179e-02,0.000000000000000000e+00,-1.570436594335263836e-01,-3.102083494681593875e-02,-1.012502303833983375e-01,9.522372866106073447e-03
2.666666666666666519e+00,1.685122950620903254e+09,-5.155012454353795348e-02,-7.852182971676319179e-02,0.000000000000000000e+00,-1.570436594335263836e-01,-7.261338375915250831e-02,-1.011137142749523044e-01,6.866936533061445379e-03
2.683333333333333126e+00,1.685122950636902809e+09,-5.188086717048060598e-02,-7.852182971676319179e-02,0.000000000000000000e+00,-1.570436594335263836e-01,-1.153777565001994354e-01,-1.010269953050335623e-01,3.548557792859988961e-03
2.700000000000000178e+00,1.685122950655902624e+09,-5.218719915167601558e-02,-7.852182971676319179e-02,0.000000000000000000e+00,-1.570436594335263836e-01,-1.590395782652296586e-01,-1.010011549039323137e-01,-4.366394079411413214e-04
2.716666666666666785e+00,1.685122950674902916e+09,-5.245950991819143400e-02,-7.852182971676319179e-02,0.000000000000000000e+00,-1.570436594335263836e-01,-2.033078518617296715e-01,-1.010472983747896236e-01,-5.087657296725384484e-03
2.733333333333333393e+00,1.685122950689844370e+09,-5.268785201385087907e-02,-7.852182971676319179e-02,0.000000000000000000e+00,-1.570436594335263836e-01,-2.478768887188750325e-01,-1.011764723071578442e-01,-1.039846200495112873e-02
2.750000000000000000e+00,1.685122950708902597e+09,-5.286205091884015050e-02,-7.852182971676319179e-02,0.000000000000000000e+00,-1.570436594335263836e-01,-2.924284200560575697e-01,-1.013995796000718153e-01,-1.635785887491750246e-02
2.766666666666666607e+00,1.685122950726903915e+09,-5.297182218407966298e-02,-7.852182971676319179e-02,0.000000000000000000e+00,-1.570436594335263836e-01,-3.366338745066285720e-01,-1.017272927387086051e-01,-2.294940747333723552e-02
2.783333333333333215e+00,1.685122950743903160e+09,-5.300689477806217603e-02,-7.852182971676319179e-02,0.000000000000000000e+00,-1.570436594335263836e-01,-3.801568066076834174e-01,-1.021699660017694744e-01,-3.015137814901714189e-02
2.799999999999999822e+00,1.685122950759880066e+09,-5.295713944404401713e-02,-7.852182971676319179e-02,0.000000000000000000e+00,-1.570436594335263836e-01,-4.226554588819275704e-01,-1.027375473046994309e-01,-3.793675165606536642e-02
2.816666666666666430e+00,1.685122950778880596e+09,-5.281270077241174976e-02,-7.852182971676319179e-02,0.000000000000000000e+00,-1.570436594335263836e-01,-4.637854386705679288e-01,-1.034394904064044746e-01,-4.627326302748251130e-02
2.833333333333333481e+00,1.685122950793875456e+09,-5.256413161203699752e-02,-7.852182971676319179e-02,0.000000000000000000e+00,-1.570436594335263836e-01,-5.032024894430348061e-01,-1.042846682239101652e-01,-5.512349052930679005e-02
2.850000000000000089e+00,1.685122950813880682e+09,-5.220252837665534384e-02,-7.852182971676319179e-02,0.000000000000000000e+00,-1.570436594335263836e-01,-5.405653350255372747e-01,-1.052812880101492016e-01,-6.444499015543941889e-02
2.866666666666666696e+00,1.685122950830844879e+09,-5.171966574884195866e-02,-6.249696650926014896e-02,0.000000000000000000e+00,-1.249939330185202979e-01,-5.755385740703986563e-01,-1.064345957924362762e-01,-7.392560804947997943e-02
2.883333333333333304e+00,1.685122950847904682e+09,-5.110812924593848700e-02,-7.852182971676319179e-02,0.000000000000000000e+00,-1.570436594335263836e-01,-6.077956011448357732e-01,-1.077512731240602983e-01,-8.404755456554927062e-02
2.899999999999999911e+00,1.685122950864902735e+09,-5.036144409008795619e-02,-7.852182971676319179e-02,0.000000000000000000e+00,-1.570436594335263836e-01,-6.370215300631428823e-01,-1.092392882158672029e-01,-9.448526213674079965e-02
2.916666666666666519e+00,1.685122950882845640e+09,-4.947419881899420974e-02,-7.852182971676319179e-02,0.000000000000000000e+00,-1.570436594335263836e-01,-6.629160945304787278e-01,-1.109034000093143263e-01,-1.051784490807477074e-01
2.933333333333333126e+00,1.685122950900884628e+09,-4.844216208557695913e-02,-6.249696650926014896e-02,0.000000000000000000e+00,-1.249939330185202979e-01,-6.851965008182491212e-01,-1.127451186555768481e-01,-1.157982882232770072e-01
2.950000000000000178e+00,1.685122950917880535e+09,-4.726239112362197459e-02,-7.852182971676319179e-02,0.000000000000000000e+00,-1.570436594335263836e-01,-7.036002070574668421e-01,-1.147671230945910142e-01,-1.268116510638333527e-01
2.966666666666666785e+00,1.685122950936877966e+09,-4.593333040291260050e-02,-7.852182971676319179e-02,0.000000000000000000e+00,-1.570436594335263836e-01,-7.178876038227032241e-01,-1.169731357921471038e-01,-1.378791289252683794e-01
2.983333333333333393e+00,1.685122950951878786e+09,-4.445489906106755290e-02,-7.852182971676319179e-02,0.000000000000000000e+00,-1.570436594335263836e-01,-7.278445709886254278e-01,-1.193634530697690738e-01,-1.489282516594028771e-01
3.000000000000000000e+00,1.685122950971856594e+09,-4.282856578010264814e-02,-7.852182971676319179e-02,0.000000000000000000e+00,-1.570436594335263836e-01,-7.332848863750911494e-01,-1.219371477016904515e-01,-1.598846689623457384e-01
3.016666666666666607e+00,1.685122950983845711e+09,-4.105740987308840323e-02,-7.852182971676319179e-02,0.000000000000000000e+00,-1.570436594335263836e-01,-7.340524624548071531e-01,-1.246920420008271885e-01,-1.706726795327351831e-01
3.033333333333333215e+00,1.685122951002881765e+09,-3.914616745950994653e-02,-7.852182971676319179e-02,0.000000000000000000e+00,-1.570436594335263836e-01,-7.300233883770860244e-01,-1.276246899330121809e-01,-1.812157852354476795e-01
3.049999999999999822e+00,1.685122951019881964e+09,-3.710126173617558226e-02,-7.852182971676319179e-02,0.000000000000000000e+00,-1.570436594335263836e-01,-7.211077557577377783e-01,-1.307303686429293343e-01,-1.914372662834388783e-01
3.066666666666666430e+00,1.685122951037902117e+09,-3.493081649271367883e-02,-7.852182971676319179e-02,0.000000000000000000e+00,-1.570436594335263836e-01,-7.072512480920234434e-01,-1.340030797064976353e-01,-2.012607731833503388e-01
3.083333333333333481e+00,1.685122951054882765e+09,-3.264465217561692695e-02,-7.852182971676319179e-02,0.000000000000000000e+00,-1.570436594335263836e-01,-6.884364752563887357e-01,-1.374355603515777235e-01,-2.106109309544894614e-01
3.100000000000000089e+00,1.685122951069902182e+09,-3.025426397104395704e-02,-7.852182971676319179e-02,0.000000000000000000e+00,-1.570436594335263836e-01,-6.646840363649259009e-01,-1.410193048123418447e-01,-2.194139509284201428e-01
3.116666666666666696e+00,1.685122951088881254e+09,-2.777278155263942366e-02,-7.852182971676319179e-02,0.000000000000000000e+00,-1.570436594335263836e-01,-6.360532962258279577e-01,-1.447445959030463081e-01,-2.275982452700922032e-01
3.133333333333333304e+00,1.685122951108884573e+09,-2.521491032477999814e-02,-7.852182971676319179e-02,0.000000000000000000e+00,-1.570436594335263836e-01,-6.026428627874717003e-01,-1.486005468148897390e-01,-2.350950392333193417e-01
3.149999999999999911e+00,1.685122951124901533e+09,-2.259685418212879771e-02,-7.852182971676319179e-02,0.000000000000000000e+00,-1.570436594335263836e-01,-5.645907552573080634e-01,-1.525751530557851177e-01,-2.418389760753251738e-01
3.166666666666666519e+00,1.685122951140881062e+09,-1.993622000124211507e-02,-7.852182971676319179e-02,0.000000000000000000e+00,-1.570436594335263836e-01,-5.220742550021277850e-01,-1.566553543678958493e-01,-2.477687095085293056e-01
3.183333333333333126e+00,1.685122951159906626e+09,-1.725190427725303843e-02,-7.852182971676319179e-02,0.000000000000000000e+00,-1.570436594335263836e-01,-4.753094338767126503e-01,-1.608271063723912819e-01,-2.528274785639251232e-01
3.200000000000000178e+00,1.685122951178905010e+09,-1.456396251629098540e-02,-7.852182971676319179e-02,0.000000000000000000e+00,-1.570436594335263836e-01,-4.245503572591074470e-01,-1.650754616057807933e-01,-2.569636597801334688e-01
3.216666666666666785e+00,1.685122951194905281e+09,-1.189346219017253792e-02,-7.852182971676319179e-02,0.000000000000000000e+00,-1.570436594335263836e-01,-3.700879617737167226e-01,-1.693846595281207623e-01,-2.601312917159681604e-01
3.233333333333333393e+00,1.685122951210879326e+09,-9.262320251915289945e-03,-7.852182971676319179e-02,0.000000000000000000e+00,-1.570436594335263836e-01,-3.122486104356061998e-01,-1.737382250010874318e-01,-2.622905669122076455e-01
3.250000000000000000e+00,1.685122951229905844e+09,-6.693126396637730235e-03,-7.852182971676319179e-02,0.000000000000000000e+00,-1.570436594335263836e-01,-2.513923307279440356e-01,-1.781190746541051473e-01,-2.634082865999350376e-01
3.266666666666666607e+00,1.685122951247908354e+09,-4.208953430315656892e-03,-7.852182971676319179e-02,0.000000000000000000e+00,-1.570436594335263836e-01,-1.879107439057463858e-01,-1.825096304801366587e-01,-2.634582736676120418e-01
3.283333333333333215e+00,1.685122951264909506e+09,-1.833156276636510639e-03,-7.852182971676319179e-02,0.000000000000000000e+00,-1.570436594335263836e-01,-1.222246965787096296e-01,-1.868919399300917883e-01,-2.624217396559148097e-01
3.299999999999999822e+00,1.685122951280904055e+09,4.108386921964379845e-04,-7.852182971676319179e-02,0.000000000000000000e+00,-1.570436594335263836e-01,-5.478160834010228908e-02,-1.912478017067805180e-01,-2.602876018468405217e-01
3.316666666666666430e+00,1.685122951300902843e+09,2.499752173261661145e-03,-7.852182971676319179e-02,0.000000000000000000e+00,-1.570436594335263836e-01,1.394744814731394000e-02,-1.955588963965878835e-01,-2.570527468498572943e-01
3.333333333333333481e+00,1.685122951317902803e+09,4.410676346100452644e-03,-7.852182971676319179e-02,0.000000000000000000e+00,-1.570436594335263836e-01,8.347091564723187196e-02,-1.998069210202105261e-01,-2.527222374607268618e-01
3.350000000000000089e+00,1.685122951331881046e+09,6.121303119746476437e-03,-3.336420666139391922e-01,-5.422902002093581419e-01,-1.249939330185202979e-01,1.532801480339573141e-01,-2.040089638678731221e-01,-2.515262265893973281e-01
3.366666666666666696e+00,1.685122951351905823e+09,7.610154062699439441e-03,-6.249696650926014896e-02,0.000000000000000000e+00,-1.249939330185202979e-01,2.228530094792364191e-01,-2.081441782597741597e-01,-2.447184114813300282e-01
3.383333333333333304e+00,1.685122951367878914e+09,8.856809795839807459e-03,-6.249696650926014896e-02,0.000000000000000000e+00,-1.249939330185202979e-01,2.916576513267444826e-01,-2.121573660338968437e-01,-2.368858789602492632e-01
3.399999999999999911e+00,1.685122951386904240e+09,9.842136580574974841e-03,-4.647210330175770288e-02,0.000000000000000000e+00,-9.294420660351540575e-02,3.591564388935986063e-01,-2.160295571043140128e-01,-2.278022822966347394e-01
3.416666666666666519e+00,1.685122951402909040e+09,1.054850780910176165e-02,-3.044724009425465311e-02,0.000000000000000000e+00,-6.089448018850930622e-02,4.248099986959358310e-01,-2.197403280633666300e-01,-2.175187986942207774e-01
3.433333333333333126e+00,1.685122951419902563e+09,1.096001810129960258e-02,-1.442237688675220356e-02,0.000000000000000000e+00,-2.884475377350440711e-02,4.880813550749253937e-01,-2.232701755555161760e-01,-2.060946348989350085e-01
3.449999999999999734e+00,1.685122951436904192e+09,1.106268773386167442e-02,-1.442237688675220356e-02,0.000000000000000000e+00,-2.884475377350440711e-02,5.484401239173817277e-01,-2.266028614456782331e-01,-1.938616532249291258e-01
3.466666666666666785e+00,1.685122951454881191e+09,1.084465517208723674e-02,1.602486320750845994e-03,0.000000000000000000e+00,3.204972641501691987e-03,6.053667301359685338e-01,-2.297232778401150921e-01,-1.806250832228802894e-01
3.483333333333333393e+00,1.685122951471880913e+09,1.029635554328173219e-02,3.365221273575574185e-02,0.000000000000000000e+00,6.730442547151148369e-02,6.583566148109709637e-01,-2.326131672626550739e-01,-1.662017133412281855e-01
3.500000000000000000e+00,1.685122951489903450e+09,9.410682982654247977e-03,4.967707594325939530e-02,0.000000000000000000e+00,9.935415188651879059e-02,7.069243974093679661e-01,-2.352557377817438566e-01,-1.509491182662622832e-01
3.516666666666666607e+00,1.685122951506881237e+09,8.183134897480905459e-03,6.570193915076183444e-02,0.000000000000000000e+00,1.314038783015236689e-01,7.506079582960673013e-01,-2.376379581216302161e-01,-1.349617329689287715e-01
3.533333333333333215e+00,1.685122951524844170e+09,6.611936332328417071e-03,9.775166556576674048e-02,0.000000000000000000e+00,1.955033311315334810e-01,7.889724068427517167e-01,-2.397462045845485112e-01,-1.180747519658685019e-01
3.549999999999999822e+00,1.685122951541844845e+09,4.698142776296748875e-03,1.137765287732703939e-01,0.000000000000000000e+00,2.275530575465407879e-01,8.216139008258170895e-01,-2.415686119807864685e-01,-1.006625040763124423e-01
3.566666666666666430e+00,1.685122951558881521e+09,2.445719931311663483e-03,1.298013919807728400e-01,0.000000000000000000e+00,2.596027839615456800e-01,8.481632834872994131e-01,-2.430973398578157862e-01,-8.283436494148192775e-02
3.583333333333333481e+00,1.685122951575883150e+09,-1.384008430334314509e-04,1.458262551882752722e-01,0.000000000000000000e+00,2.916525103765505444e-01,8.682895056105622844e-01,-2.443264013081267172e-01,-6.470337414452370650e-02
3.600000000000000089e+00,1.685122951593905449e+09,-3.044292479388806955e-03,1.618511183957777322e-01,0.000000000000000000e+00,3.237022367915554644e-01,8.817028012316886487e-01,-2.452517178267978604e-01,-4.638549229872812596e-02
3.616666666666666696e+00,1.685122951610878706e+09,-6.259028390612013035e-03,1.939008448107838178e-01,0.000000000000000000e+00,3.878016896215676357e-01,8.881575871617908291e-01,-2.458689481272286204e-01,-2.773395479875444269e-02
3.633333333333333304e+00,1.685122951628879547e+09,-9.766705498346701236e-03,2.099257080182862778e-01,0.000000000000000000e+00,4.198514160365725556e-01,8.874550583257843073e-01,-2.461757793005237838e-01,-9.137444186391441986e-03
3.649999999999999911e+00,1.685122951647902966e+09,-1.354849445356497671e-02,2.419754344332911700e-01,0.000000000000000000e+00,4.839508688665823399e-01,8.794454530179882656e-01,-2.461719167560817989e-01,9.549041393354568835e-03
3.666666666666666519e+00,1.685122951664879560e+09,-1.758271714114731030e-02,2.580002976407948512e-01,0.000000000000000000e+00,5.160005952815897023e-01,8.640299645204716494e-01,-2.458591096048839963e-01,2.793673861151122276e-02
3.683333333333333126e+00,1.685122951681905508e+09,-2.184495129573047270e-02,2.740251608482972556e-01,0.000000000000000000e+00,5.480503216965945112e-01,8.411622781098765378e-01,-2.452433256854534838e-01,4.590741200805026345e-02
3.699999999999999734e+00,1.685122951701905489e+09,-2.630816178829598062e-02,2.900500240557997156e-01,0.000000000000000000e+00,5.801000481115994312e-01,8.108497152741448444e-01,-2.443324860853255120e-01,6.334490139675467979e-02
3.716666666666666785e+00,1.685122951718902588e+09,-3.094285787497262977e-02,2.900500240557997156e-01,0.000000000000000000e+00,5.801000481115994312e-01,7.731539699513031438e-01,-2.431386366919407183e-01,7.987111857015492811e-02
3.733333333333333393e+00,1.685122951734902620e+09,-3.571727543402614113e-02,3.060748872633021755e-01,0.000000000000000000e+00,6.121497745266043511e-01,7.281914247658038963e-01,-2.416756298421018911e-01,9.564588358746785313e-02
3.750000000000000000e+00,1.685122951751904249e+09,-4.059758295677826784e-02,3.060748872633021755e-01,0.000000000000000000e+00,6.121497745266043511e-01,6.761330385491758355e-01,-2.399590793906697106e-01,1.102994652329103153e-01
3.766666666666666607e+00,1.685122951767882824e+09,-4.554810980596062098e-02,3.060748872633021755e-01,0.000000000000000000e+00,6.121497745266043511e-01,6.172037998650704571e-01,-2.380084658743397974e-01,1.237368298353865997e-01
3.783333333333333215e+00,1.685122951788902998e+09,-5.053159501347505994e-02,3.220997504708058012e-01,0.000000000000000000e+00,6.441995009416116025e-01,5.516817447864967860e-01,-2.358425888336445897e-01,1.361339777156464481e-01
3.799999999999999822e+00,1.685122951804882050e+09,-5.550945466135096679e-02,3.220997504708058012e-01,0.000000000000000000e+00,6.441995009416116025e-01,4.798965407666981320e-01,-2.334817199700607304e-01,1.471397137060209970e-01
3.816666666666666430e+00,1.685122951822844028e+09,-6.044206567736584712e-02,3.220997504708058012e-01,0.000000000000000000e+00,6.441995009416116025e-01,4.022276420747378789e-01,-2.309496699580923795e-01,1.566797869031450463e-01
3.833333333333333481e+00,1.685122951839880705e+09,-6.528906368276334027e-02,3.381246136783082612e-01,0.000000000000000000e+00,6.762492273566165224e-01,3.191020259023867878e-01,-2.282692043953229999e-01,1.649530986667205879e-01
3.850000000000000089e+00,1.685122951857903957e+09,-7.000965235600618841e-02,3.541494768858107212e-01,0.000000000000000000e+00,7.082989537716214423e-01,2.309915218593345532e-01,-2.254619495217904945e-01,1.718981937722738329e-01
3.866666666666666696e+00,1.685122951875880480e+09,-7.456292162561424519e-02,3.541494768858107212e-01,0.000000000000000000e+00,7.082989537716214423e-01,1.384097511279108461e-01,-2.225526897635358714e-01,1.771982544809145854e-01
3.883333333333333304e+00,1.685122951891905308e+09,-7.890817187873593042e-02,3.701743400933131811e-01,0.000000000000000000e+00,7.403486801866263622e-01,4.190869501564255944e-02,-2.195669431190861998e-01,1.810805584216141906e-01
3.899999999999999911e+00,1.685122951910887718e+09,-8.300524127183903089e-02,3.701743400933131811e-01,0.000000000000000000e+00,7.403486801866263622e-01,-5.792508400675130953e-02,-2.165308167260884264e-01,1.832485862967257739e-01
3.916666666666666519e+00,1.685122951924882650e+09,-8.681483315715698978e-02,3.861992033008168068e-01,0.000000000000000000e+00,7.723984066016336136e-01,-1.604745424931306175e-01,-2.134708068045371998e-01,1.839506540553026426e-01
3.933333333333333126e+00,1.685122951943902969e+09,-9.029884059446399713e-02,3.861992033008168068e-01,0.000000000000000000e+00,7.723984066016336136e-01,-2.650965481225114884e-01,-2.104136431672463947e-01,1.829118680043169132e-01
3.949999999999999734e+00,1.685122951962902308e+09,-9.342066490319575478e-02,3.861992033008168068e-01,0.000000000000000000e+00,7.723984066016336136e-01,-3.711265315807630860e-01,-2.073882940673788255e-01,1.801377300997835662e-01
3.966666666666666785e+00,1.685122951979881287e+09,-9.614552522546655766e-02,3.861992033008168068e-01,0.000000000000000000e+00,7.723984066016336136e-01,-4.778833635050601103e-01,-2.044235427408358508e-01,1.756449094365032104e-01
3.983333333333333393e+00,1.685122951996880770e+09,-9.844075611640827617e-02,3.861992033008168068e-01,0.000000000000000000e+00,7.723984066016336136e-01,-5.846744194432844655e-01,-2.015478012419809339e-01,1.694612476686071512e-01
4.000000000000000000e+00,1.685122952016844988e+09,-1.002760902544307386e-01,4.022240665083192668e-01,0.000000000000000000e+00,8.044481330166385336e-01,-6.908007937314559754e-01,-1.987867115478106073e-01,1.618905458540512154e-01
4.016666666666666607e+00,1.685122952031880856e+09,-1.016239234701041411e-01,4.022240665083192668e-01,0.000000000000000000e+00,8.044481330166385336e-01,-7.955626214451817502e-01,-1.961652243040210020e-01,1.527134160279805530e-01
4.033333333333333215e+00,1.685122952048884392e+09,-1.024595594277205451e-01,4.022240665083192668e-01,0.000000000000000000e+00,8.044481330166385336e-01,-8.982644661540014619e-01,-1.937096069042849589e-01,1.419904586341498298e-01
4.049999999999999822e+00,1.685122952066850662e+09,-1.027614314572209836e-01,4.182489297158217267e-01,0.000000000000000000e+00,8.364978594316434535e-01,-9.982207301179302217e-01,-1.914428170478389146e-01,1.300574721043353255e-01
4.066666666666666430e+00,1.685122952084846973e+09,-1.025112992247803473e-01,4.182489297158217267e-01,0.000000000000000000e+00,8.364978594316434535e-01,-1.094761042826136066e+00,-1.893865963063315061e-01,1.167260494776559965e-01
4.083333333333333037e+00,1.685122952102904320e+09,-1.016944181463340369e-01,4.182489297158217267e-01,0.000000000000000000e+00,8.364978594316434535e-01,-1.187235583400167993e+00,-1.875634972288764413e-01,1.020865061721284855e-01
4.099999999999999645e+00,1.685122952118901491e+09,-1.002996796878569546e-01,4.182489297158217267e-01,0.000000000000000000e+00,8.364978594316434535e-01,-1.275020292376144448e+00,-1.859944933866265471e-01,8.623797961887322283e-02
4.116666666666666252e+00,1.685122952134903431e+09,-9.831972095710807269e-02,4.342737929233241867e-01,0.000000000000000000e+00,8.685475858466483734e-01,-1.357521928746760587e+00,-1.846966244522813827e-01,6.955264175413744532e-02
4.133333333333332860e+00,1.685122952150881290e+09,-9.575100227147469167e-02,4.342737929233241867e-01,0.000000000000000000e+00,8.685475858466483734e-01,-1.434182928886823527e+00,-1.836851283507480725e-01,5.187599338654581144e-02
4.150000000000000355e+00,1.685122952168903351e+09,-9.259385168285358403e-02,4.342737929233241867e-01,0.000000000000000000e+00,8.685475858466483734e-01,-1.504486025103614288e+00,-1.829755118465772878e-01,3.332950634603687456e-02
4.166666666666666963e+00,1.685122952187903881e+09,-8.885247575042348744e-02,4.502986561308278124e-01,0.000000000000000000e+00,9.005973122616556248e-01,-1.567958583041525022e+00,-1.825789953089753392e-01,1.430532435992329723e-02
4.183333333333333570e+00,1.685122952205907822e+09,-8.453493617264680460e-02,4.502986561308278124e-01,0.000000000000000000e+00,9.005973122616556248e-01,-1.624176619020751611e+00,-1.825046857048141236e-01,-5.333617959069971576e-03
4.200000000000000178e+00,1.685122952220844984e+09,-7.965309221783807569e-02,4.663235193383302724e-01,0.000000000000000000e+00,9.326470386766605447e-01,-1.672768460591871342e+00,-1.827594774327586657e-01,-2.518624191868443912e-02
4.216666666666666785e+00,1.685122952242904902e+09,-7.422250922482197255e-02,4.823483825458327323e-01,0.000000000000000000e+00,9.646967650916654646e-01,-1.713418016127276733e+00,-1.833458053471609395e-01,-4.511774123063956587e-02
4.233333333333333393e+00,1.685122952258902550e+09,-6.826233377831497640e-02,4.983732457533351368e-01,0.000000000000000000e+00,9.967464915066702735e-01,-1.745867622129865460e+00,-1.842638405618025887e-01,-6.499127895560674606e-02
4.250000000000000000e+00,1.685122952274903059e+09,-6.179513649428938077e-02,4.983732457533351368e-01,0.000000000000000000e+00,9.967464915066702735e-01,-1.769920440098564196e+00,-1.855136786494663015e-01,-8.493389410703018616e-02
4.266666666666666607e+00,1.685122952291908503e+09,-5.484672367531491510e-02,5.143981089608388180e-01,0.000000000000000000e+00,1.028796217921677636e+00,-1.785442378226538729e+00,-1.870930697081019667e-01,-1.045385742028228510e-01
4.283333333333333215e+00,1.685122952308903217e+09,-4.744591941139637836e-02,5.143981089608388180e-01,0.000000000000000000e+00,1.028796217921677636e+00,-1.792363516895481901e+00,-1.889974535779302411e-01,-1.239336137985719566e-01
4.299999999999999822e+00,1.685122952326902390e+09,-3.962432000475082927e-02,5.143981089608388180e-01,0.000000000000000000e+00,1.028796217921677636e+00,-1.790679020840166169e+00,-1.912221765917054561e-01,-1.429802393161188623e-01
4.316666666666666430e+00,1.685122952343902588e+09,-3.141602288414264976e-02,5.143981089608388180e-01,0.000000000000000000e+00,1.028796217921677636e+00,-1.780449524961111640e+00,-1.937602997316112130e-01,-1.615429731095509858e-01
4.333333333333333037e+00,1.685122952363902569e+09,-2.285733244265758524e-02,5.304229721683412224e-01,0.000000000000000000e+00,1.060845944336682445e+00,-1.761800985027472510e+00,-1.966004487662774691e-01,-1.792257909558702400e-01
4.349999999999999645e+00,1.685122952379881382e+09,-1.398644547924774925e-02,5.304229721683412224e-01,0.000000000000000000e+00,1.060845944336682445e+00,-1.734923988902806302e+00,-1.997291568079759827e-01,-1.961720998597461518e-01
4.366666666666666252e+00,1.685122952395902395e+09,-4.843119146259794970e-03,5.464478353758437379e-01,0.000000000000000000e+00,1.092895670751687476e+00,-1.700072528407664985e+00,-2.031309356355485984e-01,-2.119973992493705550e-01
4.383333333333332860e+00,1.685122952412905931e+09,4.531675500071737257e-03,5.624726985833461423e-01,0.000000000000000000e+00,1.124945397166692285e+00,-1.657562236468158812e+00,-2.067861987498639809e-01,-2.265936284331353801e-01
4.400000000000000355e+00,1.685122952429902077e+09,1.409611108377045903e-02,5.624726985833461423e-01,0.000000000000000000e+00,1.124945397166692285e+00,-1.607768098750778085e+00,-2.106758387209701211e-01,-2.401255784648197722e-01
4.416666666666666963e+00,1.685122952447879076e+09,2.380786923146962358e-02,5.784975617908497680e-01,0.000000000000000000e+00,1.156995123581699536e+00,-1.551121653512719689e+00,-2.147791047555304977e-01,-2.522327139589572442e-01
4.433333333333333570e+00,1.685122952464903593e+09,3.362451013556600615e-02,5.784975617908497680e-01,0.000000000000000000e+00,1.156995123581699536e+00,-1.488107697864743173e+00,-2.190737806190680426e-01,-2.630982070299845987e-01
4.450000000000000178e+00,1.685122952482901573e+09,4.350384279419856892e-02,5.945224249983522835e-01,0.000000000000000000e+00,1.189044849996704567e+00,-1.419260523011781405e+00,-2.235363247182192148e-01,-2.723812978977239174e-01
4.466666666666666785e+00,1.685122952499903202e+09,5.340429233300305473e-02,5.945224249983522835e-01,0.000000000000000000e+00,1.189044849996704567e+00,-1.345159705266821160e+00,-2.281420699714356293e-01,-2.802861739823153120e-01
4.483333333333333393e+00,1.685122952516846895e+09,6.328526081861966801e-02,6.105472882058546880e-01,0.000000000000000000e+00,1.221094576411709376e+00,-1.266425483688192299e+00,-2.328653831618933967e-01,-2.864941640498965270e-01
4.500000000000000000e+00,1.685122952534901619e+09,7.310747801540604107e-02,9.122617369241600160e-01,5.713791710216056252e-01,1.253144302826714185e+00,-1.183713759033121704e+00,-2.376382082679078522e-01,-2.862455393123647385e-01
4.516666666666666607e+00,1.685122952552903891e+09,8.283333861464402259e-02,9.185740789727474542e-01,5.519541287037730282e-01,1.285194029241721658e+00,-1.097710752315720573e+00,-2.423941733264353415e-01,-2.844751854762201382e-01
4.533333333333333215e+00,1.685122952569905996e+09,9.242722257929784913e-02,9.525679030289543325e-01,6.199417768161871178e-01,1.285194029241721658e+00,-1.009127364572192542e+00,-2.471039465841926852e-01,-2.807080699108501221e-01
4.549999999999999822e+00,1.685122952586901665e+09,1.018557953962411916e-01,9.197881441176117834e-01,5.543822589935020195e-01,1.285194029241721658e+00,-9.186932824382663121e-01,-2.517434916545174262e-01,-2.760502771458696603e-01
4.566666666666666430e+00,1.685122952603901386e+09,1.110882852106308549e-01,9.455255284840305974e-01,5.738073013113347276e-01,1.317243755656726467e+00,-8.271508768043632776e-01,-2.562898514389725380e-01,-2.695310065000867672e-01
4.583333333333333037e+00,1.685122952621901512e+09,1.200967340322290355e-01,6.586218778283632336e-01,0.000000000000000000e+00,1.317243755656726467e+00,-7.352489441064723463e-01,-2.607553908921637076e-01,-2.663425848181974476e-01
4.599999999999999645e+00,1.685122952639881611e+09,1.288562204490048269e-01,9.554800659672104679e-01,5.616666498626895487e-01,1.349293482071731276e+00,-6.437363417102298646e-01,-2.651145884030091104e-01,-2.567876585697356773e-01
4.616666666666666252e+00,1.685122952656903982e+09,1.373450515570920072e-01,6.906716042433681535e-01,0.000000000000000000e+00,1.381343208486736307e+00,-5.533555703328681963e-01,-2.693399489138529335e-01,-2.502736974937168624e-01
4.633333333333332860e+00,1.685122952673904657e+09,1.455449221155225015e-01,9.802454015130281917e-01,5.470978681243149344e-01,1.413392934901741116e+00,-4.648363575030775019e-01,-2.734054207231047529e-01,-2.376180749509658463e-01
4.650000000000000355e+00,1.685122952692904472e+09,1.534410392562846892e-01,7.066964674508705579e-01,0.000000000000000000e+00,1.413392934901741116e+00,-3.788892966701062903e-01,-2.772876251552161553e-01,-2.282724176725083876e-01
4.666666666666666963e+00,1.685122952709907293e+09,1.610222114220181411e-01,7.227213306583742947e-01,0.000000000000000000e+00,1.445442661316748589e+00,-2.961995967281197961e-01,-2.810017249548151796e-01,-2.174496223074051382e-01
4.683333333333333570e+00,1.685122952728881359e+09,1.682809005617252329e-01,1.023221714231814961e+00,5.689510407318767449e-01,1.477492387731753398e+00,-2.174209964149760865e-01,-2.844845534790548802e-01,-2.005367818195514795e-01
4.700000000000000178e+00,1.685122952744881392e+09,1.752132369856498617e-01,7.547710570733791036e-01,0.000000000000000000e+00,1.509542114146758207e+00,-1.431698972713406626e-01,-2.877146602783172136e-01,-1.871133223569218518e-01
4.716666666666666785e+00,1.685122952761884689e+09,1.818189966602673235e-01,1.083194938978704336e+00,6.247980373956455447e-01,1.541591840561763238e+00,-7.401976760891157414e-02,-2.906679836872655409e-01,-1.673404127584769696e-01
4.733333333333333393e+00,1.685122952778903008e+09,1.881015411092524792e-01,1.081008825013239916e+00,5.883760830497093419e-01,1.573641566976770489e+00,-1.049586823927435922e-02,-2.932860176415205133e-01,-1.468804961913225959e-01
4.750000000000000000e+00,1.685122952796880245e+09,1.940677204723923743e-01,7.868207834883852447e-01,0.000000000000000000e+00,1.573641566976770489e+00,4.692965143334260070e-02,-2.955985806778639868e-01,-1.306720925729503435e-01
4.766666666666666607e+00,1.685122952814904690e+09,1.997277406577031844e-01,1.118886860828304020e+00,6.320824282648326298e-01,1.605691293391775298e+00,9.784224093814886114e-02,-2.975903451621366158e-01,-1.084015097259034971e-01
4.783333333333333215e+00,1.685122952831880569e+09,2.050949958984520927e-01,1.210183763017407710e+00,7.826265062280354234e-01,1.637741019806780329e+00,1.418889768736312229e-01,-2.991953155588100155e-01,-8.426199366437946148e-02
4.799999999999999822e+00,1.685122952849903107e+09,2.101858683924325844e-01,1.219166251679987711e+00,7.364920307231830332e-01,1.701840472636792390e+00,1.787820920528907509e-01,-3.003949584885014512e-01,-5.976321167247339999e-02
4.816666666666666430e+00,1.685122952866845608e+09,2.150194970517259330e-01,1.250973961770729392e+00,7.680577244896611422e-01,1.733890199051797421e+00,2.083019698445647272e-01,-3.011812015719483315e-01,-3.465570306210495610e-02
4.833333333333333037e+00,1.685122952882902622e+09,2.196175177235719644e-01,1.237619245177218996e+00,7.413482913026410159e-01,1.733890199051797421e+00,2.302995720311516170e-01,-3.015512602805022757e-01,-9.820330733411524599e-03
4.849999999999999645e+00,1.685122952902902126e+09,2.240037775531841246e-01,1.242959538405204345e+00,6.879294249286015406e-01,1.797989651881807038e+00,2.446982729613550733e-01,-3.015081000312071491e-01,1.493080587340268536e-02
4.866666666666666252e+00,1.685122952919881105e+09,2.282040264439463284e-01,1.260198466757572522e+00,6.903575552183306430e-01,1.830039378296814512e+00,2.514950775125335269e-01,-3.010525196503816003e-01,3.967011789707890201e-02
4.883333333333332860e+00,1.685122952936881781e+09,2.322455888262366652e-01,1.222562447266771768e+00,6.150855162367290241e-01,1.830039378296814512e+00,2.507612053672694241e-01,-3.001933340771939518e-01,6.336632653445858909e-02
4.900000000000000355e+00,1.685122952955844402e+09,2.361570191701423682e-01,1.244657636198597039e+00,6.272261676853745360e-01,1.862089104711819321e+00,2.426420293048433818e-01,-2.989405542516728742e-01,8.690187446732816623e-02
4.916666666666666963e+00,1.685122952971881151e+09,2.399677448670096969e-01,1.231544935929350437e+00,5.689510407318767449e-01,1.894138831126824352e+00,2.273563605728413650e-01,-2.973026884324577734e-01,1.095790302564829122e-01
4.933333333333333570e+00,1.685122952987903595e+09,2.437077002577181517e-01,1.224260545060163130e+00,5.543822589935020195e-01,1.894138831126824352e+00,2.051950798924976893e-01,-2.952940692476765383e-01,1.313946714875793842e-01
4.950000000000000178e+00,1.685122953005886316e+09,2.474069556999103636e-01,9.630942787709145803e-01,0.000000000000000000e+00,1.926188557541829161e+00,1.765191182189826125e-01,-2.929649023827783916e-01,1.480590612391795291e-01
4.966666666666666785e+00,1.685122953024902821e+09,2.510953456405962680e-01,1.256310271475169271e+00,5.543822589935020195e-01,1.958238283956836412e+00,1.417567969786243942e-01,-2.903245996324509415e-01,1.687198762964152998e-01
4.983333333333333393e+00,1.685122953040902615e+09,2.548020996933594295e-01,9.791191419784182060e-01,0.000000000000000000e+00,1.958238283956836412e+00,1.014005430913215572e-01,-2.873866634496277661e-01,1.837906015314210995e-01
5.000000000000000000e+00,1.685122953061849356e+09,2.585554807102368180e-01,9.951440051859207214e-01,0.000000000000000000e+00,1.990288010371841443e+00,5.600299961190651626e-02,-2.842036870582324015e-01,1.981267418866561880e-01
5.016666666666666607e+00,1.685122953075845718e+09,2.606419249325145349e-01,9.951440051859207214e-01,0.000000000000000000e+00,1.990288010371841443e+00,6.172558239911918321e-03,-2.807906377145352184e-01,2.114023019333895470e-01
5.033333333333333215e+00,1.685122953092881918e+09,2.627926681293228928e-01,9.951440051859207214e-01,0.000000000000000000e+00,1.990288010371841443e+00,-4.711701781767474451e-02,-2.771655230465386310e-01,2.235776370548637204e-01
5.049999999999999822e+00,1.685122953108881474e+09,2.650291627339907974e-01,9.951440051859207214e-01,0.000000000000000000e+00,1.990288010371841443e+00,-1.027309905231162113e-01,-2.733468492195394450e-01,2.346325134722446193e-01
5.066666666666666430e+00,1.685122953128902912e+09,2.673700810871424416e-01,9.951440051859207214e-01,0.000000000000000000e+00,1.990288010371841443e+00,-1.598910223666773212e-01,-2.693533493294168468e-01,2.445598966291094023e-01
5.083333333333333037e+00,1.685122953145874262e+09,2.698311402499771749e-01,9.951440051859207214e-01,0.000000000000000000e+00,1.990288010371841443e+00,-2.178069785282504556e-01,-2.652037636092250406e-01,2.533659280198787833e-01
5.099999999999999645e+00,1.685122953161883593e+09,2.724249618713864840e-01,1.011168868393423015e+00,0.000000000000000000e+00,2.022337736786846030e+00,-2.756840479601211924e-01,-2.609144076402434842e-01,2.613346523914522601e-01
5.116666666666666252e+00,1.685122953178899527e+09,2.751609682459495998e-01,1.011168868393423015e+00,0.000000000000000000e+00,2.022337736786846030e+00,-3.327298958733378442e-01,-2.565012194435667414e-01,2.682287804034436118e-01
5.133333333333332860e+00,1.685122953195907116e+09,2.780453153176684622e-01,1.027193731600925641e+00,0.000000000000000000e+00,2.054387463201851283e+00,-3.881617883097297494e-01,-2.519795242522978596e-01,2.743576176003613143e-01
5.150000000000000355e+00,1.685122953213882685e+09,2.810808629961581984e-01,1.027193731600925641e+00,0.000000000000000000e+00,2.054387463201851283e+00,-4.412136297301576526e-01,-2.473638558392737552e-01,2.795082842185167005e-01
5.166666666666666963e+00,1.685122953229882002e+09,2.842671827618030167e-01,1.027193731600925641e+00,0.000000000000000000e+00,2.054387463201851283e+00,-4.911428552752419296e-01,-2.426699506448025956e-01,2.837485602961402620e-01
5.183333333333333570e+00,1.685122953248900414e+09,2.876006021481056774e-01,1.027193731600925641e+00,0.000000000000000000e+00,2.054387463201851283e+00,-5.372371205502668445e-01,-2.379123264143381544e-01,2.871568795831868082e-01
5.200000000000000178e+00,1.685122953265882969e+09,2.910742853070237279e-01,1.027193731600925641e+00,0.000000000000000000e+00,2.054387463201851283e+00,-5.788207334429612549e-01,-2.331041111705453028e-01,2.898215476420266667e-01
5.216666666666666785e+00,1.685122953283902407e+09,2.946783484903361949e-01,1.043218594808429156e+00,0.000000000000000000e+00,2.086437189616858312e+00,-6.152607745871889744e-01,-2.282546725922835196e-01,2.921047394007855735e-01
5.233333333333333393e+00,1.685122953300844908e+09,2.984000089208164730e-01,1.043218594808429156e+00,0.000000000000000000e+00,2.086437189616858312e+00,-6.459728556205892591e-01,-2.233717381415841752e-01,2.938425672698835589e-01
5.250000000000000000e+00,1.685122953318882227e+09,3.022237651847705098e-01,1.043218594808429156e+00,0.000000000000000000e+00,2.086437189616858312e+00,-6.704264673299896726e-01,-2.184634574677698782e-01,2.951474887207099496e-01
5.266666666666666607e+00,1.685122953335905552e+09,3.061316069558240316e-01,1.059243458015931560e+00,0.000000000000000000e+00,2.118486916031863121e+00,-6.881498731107387190e-01,-2.135338429430581331e-01,2.964027672777513889e-01
5.283333333333333215e+00,1.685122953353904486e+09,3.101032515618641350e-01,1.059243458015931560e+00,0.000000000000000000e+00,2.118486916031863121e+00,-6.987345068588551866e-01,-2.085849424436577171e-01,2.974623492976355976e-01
5.299999999999999822e+00,1.685122953368901968e+09,3.141164046358132511e-01,1.059243458015931560e+00,0.000000000000000000e+00,2.118486916031863121e+00,-7.018388384382101552e-01,-2.036189573657499197e-01,2.984531078793564718e-01
5.316666666666666430e+00,1.685122953386905193e+09,3.181470418490790486e-01,1.059243458015931560e+00,0.000000000000000000e+00,2.118486916031863121e+00,-6.971916741867602019e-01,-1.986359546202378923e-01,2.995043015309972745e-01
5.333333333333333037e+00,1.685122953403901100e+09,3.221697085165193819e-01,1.059243458015931560e+00,0.000000000000000000e+00,2.118486916031863121e+00,-6.845948645116528564e-01,-1.936338372942857378e-01,3.007463274301164224e-01
5.349999999999999645e+00,1.685122953422903061e+09,3.261578336856795768e-01,1.075268321223434187e+00,0.000000000000000000e+00,2.150536642446868374e+00,-6.639253954358255161e-01,-1.886061228464341322e-01,3.025743284120582799e-01
5.366666666666666252e+00,1.685122953439883471e+09,3.300840551825593994e-01,1.091293184430936591e+00,0.000000000000000000e+00,2.182586368861873183e+00,-6.351368459605821748e-01,-1.835420045490375740e-01,3.051128157558343212e-01
5.383333333333332860e+00,1.685122953457902670e+09,3.339205519827524449e-01,1.091293184430936591e+00,0.000000000000000000e+00,2.182586368861873183e+00,-5.982601982588250378e-01,-1.784308353254023538e-01,3.082188629684009529e-01
5.400000000000000355e+00,1.685122953475903034e+09,3.376393802113127895e-01,1.091293184430936591e+00,0.000000000000000000e+00,2.182586368861873183e+00,-5.534039929716991768e-01,-1.732621320955589628e-01,3.120149795962115502e-01
5.416666666666666963e+00,1.685122953492904186e+09,3.412128090478661613e-01,1.091293184430936591e+00,0.000000000000000000e+00,2.182586368861873183e+00,-5.007538272045606309e-01,-1.680234125096081721e-01,3.166185826307003626e-01
5.433333333333333570e+00,1.685122953512906313e+09,3.446136528254885034e-01,1.107318047638440106e+00,0.000000000000000000e+00,2.214636095276880212e+00,-4.405711981644633291e-01,-1.626980762415095316e-01,3.224056938538346628e-01
5.450000000000000178e+00,1.685122953528894663e+09,3.478155956624782719e-01,1.107318047638440106e+00,0.000000000000000000e+00,2.214636095276880212e+00,-3.731917007074256887e-01,-1.572677809485725220e-01,3.292108376764145694e-01
5.466666666666666785e+00,1.685122953546903372e+09,3.507935050549046974e-01,1.107318047638440106e+00,0.000000000000000000e+00,2.214636095276880212e+00,-2.990225923274153486e-01,-1.517147622475285007e-01,3.371294098972209552e-01
5.483333333333333393e+00,1.685122953563886881e+09,3.535237309836584130e-01,1.403934219453023990e+00,5.932323436291673247e-01,2.214636095276880212e+00,-2.185397442775849353e-01,-1.459787759551654240e-01,3.511499981911151980e-01
5.500000000000000000e+00,1.685122953581902742e+09,3.559843872513985819e-01,1.123342910845942733e+00,0.000000000000000000e+00,2.246685821691885465e+00,-1.322840025271203590e-01,-1.400378914473505432e-01,3.617267621552807122e-01
5.516666666666666607e+00,1.685122953598881245e+09,3.581556119605684430e-01,1.123342910845942733e+00,0.000000000000000000e+00,2.246685821691885465e+00,-4.085698708313301175e-02,-1.339095604630565761e-01,3.736398632337002423e-01
5.533333333333333215e+00,1.685122953615883112e+09,3.600198042715130331e-01,1.123342910845942733e+00,0.000000000000000000e+00,2.246685821691885465e+00,5.508363719145958903e-02,-1.275710718706911107e-01,3.869418171086247971e-01
5.549999999999999822e+00,1.685122953632902622e+09,3.615618348373063617e-01,1.123342910845942733e+00,0.000000000000000000e+00,2.246685821691885465e+00,1.548293807941453215e-01,-1.209989443877067528e-01,4.016725611529752271e-01
5.566666666666666430e+00,1.685122953650882006e+09,3.627692275965337387e-01,1.123342910845942733e+00,0.000000000000000000e+00,2.246685821691885465e+00,2.576265993204823745e-01,-1.141691407185851243e-01,4.178589159866273328e-01
5.583333333333333037e+00,1.685122953668881416e+09,3.636323109140309207e-01,1.139367774053445137e+00,0.000000000000000000e+00,2.278735548106890274e+00,3.626825674978784164e-01,-1.070550763914620562e-01,4.357790240186930064e-01
5.599999999999999645e+00,1.685122953685881376e+09,3.641443363892870599e-01,1.155392637260947541e+00,0.000000000000000000e+00,2.310785274521895083e+00,4.691719089361108264e-01,-9.962789700832416773e-02,4.554279204055061148e-01
5.616666666666666252e+00,1.685122953701881409e+09,3.643015639994740540e-01,1.139367774053445137e+00,0.000000000000000000e+00,2.278735548106890274e+00,5.762433300479982146e-01,-9.186337453810521081e-02,4.762569163369778646e-01
5.633333333333332860e+00,1.685122953719904900e+09,3.641033126053049851e-01,1.155392637260947541e+00,0.000000000000000000e+00,2.310785274521895083e+00,6.830266040365462477e-01,-8.373761672581894744e-02,4.987714792129831487e-01
5.650000000000000355e+00,1.685122953736882448e+09,3.635519752194406595e-01,1.155392637260947541e+00,0.000000000000000000e+00,2.310785274521895083e+00,7.886397487187444266e-01,-7.522513858134971532e-02,5.226595408348421179e-01
5.666666666666666963e+00,1.685122953754880667e+09,3.626529988151340200e-01,1.171417500468451278e+00,0.000000000000000000e+00,2.342835000936902556e+00,8.921963402789384601e-01,-6.630130885730661783e-02,5.481292751232554883e-01
5.683333333333333570e+00,1.685122953774906397e+09,3.614148288333478565e-01,1.171417500468451278e+00,0.000000000000000000e+00,2.342835000936902556e+00,9.928129038287297758e-01,-5.694260424423627787e-02,5.748410772484715547e-01
5.700000000000000178e+00,1.685122953788902283e+09,3.598488189257966763e-01,1.171417500468451278e+00,0.000000000000000000e+00,2.342835000936902556e+00,1.089616320907769609e+00,-4.712902184024789221e-02,6.027113918674201765e-01
5.716666666666666785e+00,1.685122953807903051e+09,3.579691068453396685e-01,1.171417500468451278e+00,0.000000000000000000e+00,2.342835000936902556e+00,1.181751193794511323e+00,-3.684205793975624948e-02,6.316439062046446118e-01
5.733333333333333393e+00,1.685122953827880383e+09,3.557924577600587446e-01,1.187442363675953683e+00,0.000000000000000000e+00,2.374884727351907365e+00,1.268387106712858259e+00,-2.606270208267100902e-02,6.617950415207062287e-01
5.750000000000000000e+00,1.685122953844902754e+09,3.533380766194226252e-01,1.187442363675953683e+00,0.000000000000000000e+00,2.374884727351907365e+00,1.348725724716701047e+00,-1.477389538350046272e-02,6.927757029614132200e-01
5.766666666666666607e+00,1.685122953860881567e+09,3.506273915365414329e-01,1.187442363675953683e+00,0.000000000000000000e+00,2.374884727351907365e+00,1.422007672205075401e+00,-2.962901652248772777e-03,7.244555431615120611e-01
5.783333333333333215e+00,1.685122953876902103e+09,3.476838104662017259e-01,1.187442363675953683e+00,0.000000000000000000e+00,2.374884727351907365e+00,1.487519134657646624e+00,9.380762256217745759e-03,7.566945708919389224e-01
5.799999999999999822e+00,1.685122953893881559e+09,3.445324537508572815e-01,1.187442363675953683e+00,0.000000000000000000e+00,2.374884727351907365e+00,1.544598129269639131e+00,2.226517420214482387e-02,7.893441671617716926e-01
5.816666666666666430e+00,1.685122953911879778e+09,3.411998653730196063e-01,1.187442363675953683e+00,0.000000000000000000e+00,2.374884727351907365e+00,1.592640392692517226e+00,3.569587212877012306e-02,8.222481818412875620e-01
5.833333333333333037e+00,1.685122953928880692e+09,3.377137059897702409e-01,1.187442363675953683e+00,0.000000000000000000e+00,2.374884727351907365e+00,1.631104837030469046e+00,4.967573830937294099e-02,8.552441023391250674e-01
5.849999999999999645e+00,1.685122953945880890e+09,3.341024310309163581e-01,1.187442363675953683e+00,0.000000000000000000e+00,2.374884727351907365e+00,1.659518528581223729e+00,6.420490359852447371e-02,8.881642852542598332e-01
5.866666666666666252e+00,1.685122953971901655e+09,3.303949573144974727e-01,1.187442363675953683e+00,0.000000000000000000e+00,2.374884727351907365e+00,1.677481147516004301e+00,7.928067265672789077e-02,9.208372413825890446e-01
5.883333333333332860e+00,1.685122953979879618e+09,3.266203217700531236e-01,1.187442363675953683e+00,0.000000000000000000e+00,2.374884727351907365e+00,1.684668890738817870e+00,9.489747095341390104e-02,9.530889639928158408e-01
5.900000000000000355e+00,1.685122953997901440e+09,3.228073359598791492e-01,1.187442363675953683e+00,0.000000000000000000e+00,2.374884727351907365e+00,1.680837784517738465e+00,1.110468141819478949e-01,9.847442899008433947e-01
5.916666666666666963e+00,1.685122954015882254e+09,3.189842401502561153e-01,1.187442363675953683e+00,0.000000000000000000e+00,2.374884727351907365e+00,1.665826378106223693e+00,1.277173005432623576e-01,1.015628282569231988e+00
5.933333333333333570e+00,1.685122954032881498e+09,3.151783607076973359e-01,8.867132790206400106e-01,-6.014581693106274551e-01,2.374884727351907365e+00,1.639557794434195914e+00,1.448530893221272597e-01,1.040597011681281048e+00
5.950000000000000178e+00,1.685122954051904202e+09,3.114157745792607845e-01,8.842810573634291016e-01,-5.742728862100442422e-01,2.342835000936902556e+00,1.602041119008491110e+00,1.623960571312708934e-01,1.064492746811669388e+00
5.966666666666666785e+00,1.685122954066903591e+09,3.077209845609706340e-01,7.478878178711845237e-01,-7.829599123645211156e-01,2.278735548106890274e+00,1.553372113380161235e+00,1.803084258120913885e-01,1.084934710318371298e+00
5.983333333333333393e+00,1.685122954084847212e+09,3.041166089649144366e-01,6.562703387799017074e-01,-9.020954177170770194e-01,2.214636095276880212e+00,1.493733244870670385e+00,1.985377788282875755e-01,1.102538750363017961e+00
6.000000000000000000e+00,1.685122954106880903e+09,3.006230891644293135e-01,6.022660359465833446e-01,-9.780542969687063826e-01,2.182586368861873183e+00,1.423393029658528652e+00,2.170409265062228921e-01,1.117796587111834494e+00
6.016666666666666607e+00,1.685122954117902994e+09,2.972584183291998583e-01,5.514600017133347576e-01,-1.047616639020198637e+00,2.150536642446868374e+00,1.342704691768978220e+00,2.357781019749906615e-01,1.130628823201105249e+00
6.033333333333333215e+00,1.685122954136845827e+09,2.940378944597397681e-01,4.266940061034995568e-01,-1.265098903824864118e+00,2.118486916031863121e+00,1.252104145939137769e+00,2.546976291162293959e-01,1.139689265260577233e+00
6.049999999999999822e+00,1.685122954154881954e+09,2.909739005954689040e-01,3.995087230029163994e-01,-1.319469470026030544e+00,2.118486916031863121e+00,1.152107317706674516e+00,2.737493457356702797e-01,1.146497815986296187e+00
6.066666666666666430e+00,1.685122954171885014e+09,2.880757148048241900e-01,3.087243312688101038e-01,-1.468988527079238215e+00,2.086437189616858312e+00,1.043306819348490233e+00,2.928860310355096419e-01,1.149894983196745102e+00
6.083333333333333037e+00,1.685122954188901424e+09,2.853493522721116116e-01,1.515758660832791926e-01,-1.751235731035292842e+00,2.054387463201851283e+00,9.263680054357419369e-01,3.120410094986755811e-01,1.148705735925562799e+00
6.099999999999999645e+00,1.685122954205902338e+09,2.827974414770227374e-01,1.211252739683084390e-01,-1.748037462435224398e+00,1.990288010371841443e+00,8.020244367314310896e-01,3.311549511866848094e-01,1.144977622749215884e+00
6.116666666666666252e+00,1.685122954224883080e+09,2.804191361220534362e-01,6.865306502070557537e-02,-1.756832701085413007e+00,1.894138831126824352e+00,6.710727858976849314e-01,3.501819379889041794e-01,1.138279400128969776e+00
6.133333333333332860e+00,1.685122954243879318e+09,2.782100641038692257e-01,3.420463715564914242e-02,-1.761630103985516227e+00,1.830039378296814512e+00,5.343672229639070403e-01,3.690745730346932651e-01,1.128862962751840060e+00
6.150000000000000355e+00,1.685122954259880304e+09,2.761623144505119809e-01,-1.418006964696037486e-01,-2.017491591991004807e+00,1.733890199051797421e+00,3.928133226984044102e-01,3.877677066207213530e-01,1.114353372936291997e+00
6.166666666666666963e+00,1.685122954276882410e+09,2.742644627609903130e-01,-1.570930329414090276e-01,-1.951927085689598274e+00,1.637741019806780329e+00,2.473615398915148811e-01,4.061988157236473551e-01,1.097426738949201175e+00
6.183333333333333570e+00,1.685122954295844078e+09,2.725016352910510364e-01,-3.183398944985040280e-01,-2.146221903143766152e+00,1.509542114146758207e+00,9.900030206687898682e-02,4.243073889500819096e-01,1.075662505848906214e+00
6.200000000000000178e+00,1.685122954312904596e+09,2.708556114327984043e-01,-4.935456609737398082e-01,-2.400484256849221065e+00,1.413392934901741116e+00,-5.125122773905388396e-02,4.420112787207575722e-01,1.048878667933017317e+00
6.216666666666666785e+00,1.685122954329881430e+09,2.693049639402030904e-01,-5.987893018224735853e-01,-2.514822359301673860e+00,1.317243755656726467e+00,-2.023506627752817977e-01,4.592370643563433719e-01,1.018300549554135515e+00
6.233333333333333393e+00,1.685122954347905159e+09,2.678252358614708895e-01,-6.920059152137919556e-01,-2.637156133254298318e+00,1.253144302826714185e+00,-3.532401213168332443e-01,4.759237220981252792e-01,9.841931245368431558e-01
6.250000000000000000e+00,1.685122954365889549e+09,2.663891527566355499e-01,-8.927643102824158738e-01,-2.974573470561536315e+00,1.189044849996704567e+00,-5.028541128804839833e-01,4.919982400819802870e-01,9.448582995002731133e-01
6.266666666666666607e+00,1.685122954381902456e+09,2.649668684084741099e-01,-1.001572483099068878e+00,-3.128090363364830040e+00,1.124945397166692285e+00,-6.501275210820869344e-01,5.073872404784726120e-01,9.019409657007615433e-01
6.283333333333333215e+00,1.685122954398904324e+09,2.635262418807009510e-01,-9.497011789694320694e-01,-2.928198575860541553e+00,1.028796217921677636e+00,-7.940036214119678970e-01,5.220541719935063441e-01,8.582122875127045081e-01
6.299999999999999822e+00,1.685122954416904449e+09,2.620331434429177264e-01,-1.217656734846657596e+00,-3.367960508369975514e+00,9.326470386766605447e-01,-9.334420717986100513e-01,5.359420625688334772e-01,8.084727501599562327e-01
6.316666666666666430e+00,1.685122954432881117e+09,2.604517865704855661e-01,-1.291683736637564195e+00,-3.451915059121776430e+00,8.685475858466483734e-01,-1.067426813912061956e+00,5.489791002188059155e-01,7.561172033341566623e-01
6.333333333333333037e+00,1.685122954450880051e+09,2.587450829424730592e-01,-1.403290394479275838e+00,-3.611028921975190098e+00,8.044481330166385336e-01,-1.194973823727040863e+00,5.611177447720256950e-01,7.006741551441649785e-01
6.349999999999999645e+00,1.685122954466902971e+09,2.568750171050623310e-01,-1.503736632427908004e+00,-3.715772218627437340e+00,7.082989537716214423e-01,-1.315138650917524465e+00,5.723095254331638237e-01,6.425011197606029789e-01
6.366666666666666252e+00,1.685122954484885216e+09,2.548030372439952784e-01,-1.624938096069825200e+00,-3.894075693081262113e+00,6.441995009416116025e-01,-1.427023688181439987e+00,5.825075963694411607e-01,5.814370190868045629e-01
6.383333333333332860e+00,1.685122954501846790e+09,2.524904583200345276e-01,-1.776123327837387134e+00,-4.132346703786373254e+00,5.801000481115994312e-01,-1.529785113585570899e+00,5.916612912595422547e-01,5.171848501729875425e-01
6.400000000000000355e+00,1.685122954520904541e+09,2.498988736681519995e-01,-1.819766777927640744e+00,-4.155534151136871301e+00,5.160005952815897023e-01,-1.622639451459286786e+00,5.997341380667946531e-01,4.517385662092863186e-01
6.416666666666666963e+00,1.685122954537844896e+09,2.469905710457903081e-01,-2.112475395248238463e+00,-4.676851932948054902e+00,4.519011424515774755e-01,-1.704869700235805752e+00,6.066734662047799098e-01,3.811768198132336471e-01
6.433333333333333570e+00,1.685122954551847696e+09,2.437289490394112246e-01,-2.104146980587377147e+00,-4.596095650796321763e+00,3.878016896215676357e-01,-1.775830978915159397e+00,6.124378603773545926e-01,3.107461263156167108e-01
6.450000000000000178e+00,1.685122954570882082e+09,2.400789297025244240e-01,-2.255731995929947331e+00,-4.835166228651449849e+00,3.237022367915554644e-01,-1.834955647482690688e+00,6.170090342541513229e-01,2.379968250486093340e-01
6.466666666666666785e+00,1.685122954589881897e+09,2.360073633030282392e-01,-2.689564215228571697e+00,-5.638731214418688964e+00,2.596027839615456800e-01,-1.881757860627992107e+00,6.203113824786569142e-01,1.585057755598277274e-01
6.483333333333333393e+00,1.685122954604880810e+09,2.314834211030230016e-01,-2.848745118496305295e+00,-5.892993568124143877e+00,1.955033311315334810e-01,-1.915837518444520438e+00,6.222731659766401746e-01,7.713428144616406301e-02
6.500000000000000000e+00,1.685122954622881174e+09,2.264789721800517519e-01,-2.803636614934654325e+00,-5.738677108170832319e+00,1.314038783015236689e-01,-1.936883582412555649e+00,6.228933204935944712e-01,-2.494543026577075717e-03
6.516666666666666607e+00,1.685122954639882088e+09,2.209689404242500821e-01,-2.884426417293546763e+00,-5.868206986473611941e+00,9.935415188651879059e-02,-1.944676729843764384e+00,6.221850911877464529e-01,-8.227136617301754329e-02
6.533333333333333215e+00,1.685122954659909487e+09,2.149316380100499968e-01,-2.865670109475304095e+00,-5.798644644422119576e+00,6.730442547151148369e-02,-1.939091325055245063e+00,6.201616290669014209e-01,-1.603272612943483777e-01
6.549999999999999822e+00,1.685122954674905539e+09,2.083490718424372834e-01,-2.762925730698099880e+00,-5.593155886867712034e+00,6.730442547151148369e-02,-1.920096690805125350e+00,6.168648311331063061e-01,-2.350808370522736723e-01
6.566666666666666430e+00,1.685122954692902565e+09,2.012072197144125774e-01,-2.700593013203921089e+00,-5.436440725464349200e+00,3.525469905650659153e-02,-1.887757668919246345e+00,6.123455413790775959e-01,-3.070340586669644267e-01
6.583333333333333037e+00,1.685122954711905718e+09,1.934962731821260051e-01,-2.714985221904230528e+00,-5.465225142864968078e+00,3.525469905650659153e-02,-1.842234464527018778e+00,6.066412693083345076e-01,-3.772834480367421861e-01
6.599999999999999645e+00,1.685122954729843616e+09,1.852108444645398366e-01,-2.621402345145063428e+00,-5.310109115761638243e+00,6.730442547151148369e-02,-1.783781773861101927e+00,5.997968761905747570e-01,-4.438587902357518655e-01
6.616666666666666252e+00,1.685122954746902227e+09,1.763501350026337733e-01,-2.412315535415578971e+00,-4.891935496302669328e+00,6.730442547151148369e-02,-1.712747201116816775e+00,5.918907799607683318e-01,-5.047037396148187360e-01
6.633333333333332860e+00,1.685122954762844801e+09,1.669180636659977068e-01,-2.460722868198776059e+00,-4.956700435454058251e+00,3.525469905650659153e-02,-1.629568975369625417e+00,5.829838077491648063e-01,-5.639682981293552277e-01
6.649999999999999467e+00,1.685122954781902313e+09,1.569233529687303341e-01,-2.360377190871623121e+00,-4.756009080799752375e+00,3.525469905650659153e-02,-1.534772983969720173e+00,5.731242316107002521e-01,-6.190278915715797803e-01
6.666666666666666963e+00,1.685122954797902584e+09,1.463795720483776486e-01,-1.895828676711657224e+00,-3.826912052479821025e+00,3.525469905650659153e-02,-1.428969144128724222e+00,5.624333777917753796e-01,-6.637503347666613429e-01
6.683333333333333570e+00,1.685122954814905405e+09,1.353051355673804412e-01,-1.910620668986974691e+00,-3.856496037030455959e+00,3.525469905650659153e-02,-1.312847139543749098e+00,5.510173227576294908e-01,-7.060587432080274173e-01
6.700000000000000178e+00,1.685122954831881285e+09,1.237232581122733599e-01,-1.938605519237575070e+00,-3.912465737531656718e+00,3.525469905650659153e-02,-1.187171553828039183e+00,5.389154643344060691e-01,-7.460531693358974925e-01
6.716666666666666785e+00,1.685122954847904682e+09,1.116618640876625990e-01,-1.921414825512205882e+00,-3.878084350080918341e+00,3.525469905650659153e-02,-1.052776437196341508e+00,5.261734933002411019e-01,-7.828810526802083558e-01
6.733333333333333393e+00,1.685122954866883516e+09,9.915345352574550519e-02,-1.908621751111931886e+00,-3.852498201280370349e+00,3.525469905650659153e-02,-9.105593472507598207e-01,5.128442209772062776e-01,-8.165381319965516749e-01
6.750000000000000000e+00,1.685122954883848906e+09,8.623492465367384174e-02,-1.974586040988346891e+00,-3.984426781033200360e+00,3.525469905650659153e-02,-7.614749087941010686e-01,4.989701266612179276e-01,-8.482650535102707057e-01
6.766666666666666607e+00,1.685122954900900841e+09,7.294735447633635128e-02,-1.956995563687969231e+00,-3.949245826432445039e+00,3.525469905650659153e-02,-6.065279413308723999e-01,4.845954634161931396e-01,-8.766157820155600078e-01
6.783333333333333215e+00,1.685122954917880774e+09,5.933573903710699649e-02,-1.891431057386562697e+00,-3.818116813829631973e+00,3.525469905650659153e-02,-4.467662062721156624e-01,4.697833260190688587e-01,-9.007735990127470060e-01
6.799999999999999822e+00,1.685122954935846806e+09,4.544869540977684863e-02,-1.968589287363218254e+00,-3.972433273782943086e+00,3.525469905650659153e-02,-2.832728288115229365e-01,4.545838196820450872e-01,-9.231051279453021952e-01
6.816666666666666430e+00,1.685122954953880787e+09,3.133812784749150787e-02,-1.952597944362874927e+00,-3.940450587782256431e+00,3.525469905650659153e-02,-1.171584519662109969e-01,4.390403581709549363e-01,-9.420576063730301541e-01
6.833333333333333037e+00,1.685122954968847990e+09,1.705886086535125454e-02,-1.921414825512205882e+00,-3.878084350080918341e+00,3.525469905650659153e-02,5.044681764747933894e-02,4.232110964965842270e-01,-9.574111448297382143e-01
6.849999999999999645e+00,1.685122954988884449e+09,2.668242359010478820e-03,-1.833462439010319356e+00,-3.702179577077145289e+00,3.525469905650659153e-02,2.184016111165787977e-01,4.071634091803821853e-01,-9.682811379784318495e-01
6.866666666666666252e+00,1.685122955005904198e+09,-1.177427984114723380e-02,-1.874206843454034876e+00,-3.815718112379581139e+00,6.730442547151148369e-02,3.855615832879434879e-01,3.909535172618717191e-01,-9.768820003960229092e-01
6.883333333333332860e+00,1.685122955023902416e+09,-2.620760431476582344e-02,-1.725487353550844150e+00,-3.518279132573199686e+00,6.730442547151148369e-02,5.507877205981349666e-01,3.746448279184906305e-01,-9.801516382685203643e-01
6.899999999999999467e+00,1.685122955040902138e+09,-4.056944139775990610e-02,-1.518365941489241422e+00,-3.136086034865001704e+00,9.935415188651879059e-02,7.129546075330452926e-01,3.583331024987039815e-01,-9.772634350813369508e-01
6.916666666666666963e+00,1.685122955057882786e+09,-5.479679343694965343e-02,-1.375209901429011783e+00,-2.881823681159547235e+00,1.314038783015236689e-01,8.709585888988985447e-01,3.421107112510679005e-01,-9.694452323758694368e-01
6.933333333333333570e+00,1.685122955077902317e+09,-6.882644570261826911e-02,-1.242014930536836870e+00,-2.679533192205207470e+00,1.955033311315334810e-01,1.023725765901831286e+00,3.260570407623517020e-01,-9.570297146310700054e-01
6.950000000000000178e+00,1.685122955092882395e+09,-8.259546359095334966e-02,-1.193641117960799303e+00,-2.582785567053131892e+00,1.955033311315334810e-01,1.170219765330591688e+00,3.102354959713037874e-01,-9.415985257171921585e-01
6.966666666666666785e+00,1.685122955110906601e+09,-9.604169167186071832e-02,-1.146033352327618049e+00,-2.519619762201776858e+00,2.275530575465407879e-01,1.309449222905280541e+00,2.946948123491371918e-01,-9.233342442520645621e-01
6.983333333333333393e+00,1.685122955130865097e+09,-1.091042501030346640e-01,-1.068875122350962714e+00,-2.365303302248466188e+00,2.275530575465407879e-01,1.440474924082741026e+00,2.794847652148355066e-01,-9.019308670888999124e-01
7.000000000000000000e+00,1.685122955150882006e+09,-1.217240239388754919e-01,-1.012472118067593962e+00,-2.284547020096733494e+00,2.596027839615456800e-01,1.562416548276379658e+00,2.646531178371938631e-01,-8.779334792077785332e-01
7.016666666666666607e+00,1.685122955165882111e+09,-1.338441409127731907e-01,-9.049303363902869712e-01,-2.069463456742119511e+00,2.596027839615456800e-01,1.674458965535432498e+00,2.502484414721727335e-01,-8.507033256903383522e-01
7.033333333333333215e+00,1.685122955182881117e+09,-1.454104333632077473e-01,-8.713485160895666493e-01,-2.002299816140678868e+00,2.596027839615456800e-01,1.775858038210759382e+00,2.363124835850074767e-01,-8.216922091011532592e-01
7.049999999999999822e+00,1.685122955198882818e+09,-1.563718801069707010e-01,-8.053507060059922340e-01,-1.902353922388535068e+00,2.916525103765505444e-01,1.865945883984689191e+00,2.228775959064322465e-01,-7.905807351229330315e-01
7.066666666666666430e+00,1.685122955217900991e+09,-1.666810242356792093e-01,-6.913453467142289810e-01,-1.738442656635018180e+00,3.557519632065603843e-01,1.944135560829877818e+00,2.099834817361421191e-01,-7.568067840507154420e-01
7.083333333333333037e+00,1.685122955235846758e+09,-1.762943630227470637e-01,-6.164852575661459166e-01,-1.684871657583869364e+00,4.519011424515774755e-01,2.009925138954937296e+00,1.976670284776385067e-01,-7.212663327690652659e-01
7.099999999999999645e+00,1.685122955250880241e+09,-1.851727063753606517e-01,-5.188375046425739434e-01,-1.585725330981742287e+00,5.480503216965945112e-01,2.062901129556196089e+00,1.859588114355769373e-01,-6.838237219784433218e-01
7.116666666666666252e+00,1.685122955270881176e+09,-1.932815005473009773e-01,-4.616014130020286710e-01,-1.535352600530661693e+00,6.121497745266043511e-01,2.102741245189201358e+00,1.748828745287940856e-01,-6.453954545352076355e-01
7.133333333333332860e+00,1.685122955285848141e+09,-2.005911141410923471e-01,-5.634456640077362133e-01,-1.835190281787093758e+00,7.082989537716214423e-01,2.129216471759954210e+00,1.644316910073293780e-01,-6.088480908845392836e-01
7.149999999999999467e+00,1.685122955302902222e+09,-2.070770837689602240e-01,-4.530383568910492098e-01,-1.678475120383732033e+00,7.723984066016336136e-01,2.142192437474971900e+00,1.546016240324805113e-01,-5.708654558999584072e-01
7.166666666666666963e+00,1.685122955320903540e+09,-2.127203171081865074e-01,-2.945899803590142363e-01,-1.489777272979684097e+00,9.005973122616556248e-01,2.141630069538144276e+00,1.454211620878327338e-01,-5.309009924689918059e-01
7.183333333333333570e+00,1.685122955339902163e+09,-2.175072514742411867e-01,-1.793517501350659904e-01,-1.355449991776802365e+00,9.967464915066702735e-01,2.127585534898813968e+00,1.369152315457977664e-01,-4.899244988475610629e-01
7.200000000000000178e+00,1.685122955353903770e+09,-2.214299664408193868e-01,5.941960476653338624e-02,-9.740564612186206617e-01,1.092895670751687476e+00,2.100209466896123534e+00,1.291157808928815320e-01,-4.461312303336005258e-01
7.216666666666666785e+00,1.685122955370902300e+09,-2.244862494557353927e-01,2.673791223730957387e-02,-1.135569025522085385e+00,1.189044849996704567e+00,2.059745485165963341e+00,1.220300663834062854e-01,-4.042707925340707220e-01
7.233333333333333393e+00,1.685122955386903763e+09,-2.266796138316004017e-01,4.559478067703137683e-02,-1.161954741472651431e+00,1.253144302826714185e+00,2.006528021635770820e+00,1.156314981501616601e-01,-3.636701775956127647e-01
7.250000000000000000e+00,1.685122955405879259e+09,-2.280192689261557881e-01,1.639977592938899054e-01,-9.892482370689466009e-01,1.317243755656726467e+00,1.940979470785510141e+00,1.099112993353001250e-01,-3.228670249460945940e-01
7.266666666666666607e+00,1.685122955424901247e+09,-2.285200427649506094e-01,1.788232717763667545e-01,-9.916469385189978780e-01,1.349293482071731276e+00,1.863606687559899777e+00,1.048568782525493570e-01,-2.837721045410727116e-01
7.283333333333333215e+00,1.685122955438845396e+09,-2.282022577945195807e-01,2.372251939347782557e-01,-9.068928206171797957e-01,1.381343208486736307e+00,1.774996861334518616e+00,1.004444670358527608e-01,-2.458226590698878444e-01
7.299999999999999822e+00,1.685122955457902431e+09,-2.270915608832296262e-01,2.276974285488924388e-01,-9.900478042189635453e-01,1.445442661316748589e+00,1.675812799130078190e+00,9.664428964879424877e-02,-2.102973112215131557e-01
7.316666666666666430e+00,1.685122955475903749e+09,-2.252187091054016488e-01,2.345272695311976519e-01,-1.008437848669358150e+00,1.477492387731753398e+00,1.566787655794747991e+00,9.341717934761752107e-02,-1.770482854982373400e-01
7.333333333333333037e+00,1.685122955491907120e+09,-2.226193132481740222e-01,3.676552000090534955e-01,-7.421819877136464072e-01,1.477492387731753398e+00,1.448719153101295287e+00,9.074170711881865414e-02,-1.440999073842660072e-01
7.349999999999999645e+00,1.685122955511903048e+09,-2.193335413660557065e-01,4.088999486492556068e-01,-7.237919432632519134e-01,1.541591840561763238e+00,1.322463333598857815e+00,8.859908190730168831e-02,-1.131012274686138130e-01
7.366666666666666252e+00,1.685122955527902842e+09,-2.154057850715240530e-01,3.545293824480892919e-01,-8.325330756655845432e-01,1.541591840561763238e+00,1.188927898589026810e+00,8.694286613726125157e-02,-8.572072368128810793e-02
7.383333333333332860e+00,1.685122955544902563e+09,-2.108842915878776925e-01,3.389378230227548250e-01,-8.637161945162535881e-01,1.541591840561763238e+00,1.049065182735787305e+00,8.571773886609569681e-02,-6.136221298081351999e-02
7.399999999999999467e+00,1.685122955564881563e+09,-2.058207648997039119e-01,2.102075118699932299e-01,-1.121176816821776612e+00,1.541591840561763238e+00,9.038648205423264193e-01,8.485738692233314728e-02,-4.193398883017897955e-02
7.416666666666666963e+00,1.685122955580882549e+09,-2.002699396138030163e-01,2.873657418466484814e-01,-9.668603568684661642e-01,1.541591840561763238e+00,7.543461622167600966e-01,8.430816081993137978e-02,-2.402289766005373528e-02
7.433333333333333570e+00,1.685122955596904755e+09,-1.942891313865942049e-01,3.209475621473688589e-01,-8.996967162670254092e-01,1.541591840561763238e+00,6.015504982821506808e-01,8.403851313928184519e-02,-8.378282305578872019e-03
7.450000000000000178e+00,1.685122955613906860e+09,-1.879377679806644164e-01,2.253992877203191136e-01,-1.090793265121124955e+00,1.541591840561763238e+00,4.465331536539342006e-01,8.399283995746564813e-02,2.866264899141553191e-03
7.466666666666666785e+00,1.685122955634905577e+09,-1.812769051812340715e-01,2.317958249204563337e-01,-1.078000190720850515e+00,1.541591840561763238e+00,2.903555127951479298e-01,8.411233495248371383e-02,1.144929219938356155e-02
7.483333333333333393e+00,1.685122955650905609e+09,-1.743687319313794448e-01,2.654111654283374255e-01,-1.042819236120095638e+00,1.573641566976770489e+00,1.340770379649012800e-01,8.435675261717444362e-02,1.786301125791348032e-02
7.500000000000000000e+00,1.685122955667902231e+09,-1.672760691316576287e-01,3.161836794544265472e-01,-9.412742080679173950e-01,1.573641566976770489e+00,-2.125265750902527451e-02,8.469273824335811496e-02,2.244254266415316584e-02
7.516666666666666607e+00,1.685122955684882164e+09,-1.600618665945958974e-01,2.822020755786975310e-01,-1.009237415819375538e+00,1.573641566976770489e+00,-1.746016195716810215e-01,8.507854267457626296e-02,2.385007916638529415e-02
7.533333333333333215e+00,1.685122955702847958e+09,-1.527887026469329501e-01,2.909973142288863057e-01,-9.916469385189978780e-01,1.573641566976770489e+00,-3.249631870861761085e-01,8.546805842587401614e-02,2.289446553413271301e-02
7.549999999999999822e+00,1.685122955719882250e+09,-1.455182908326124458e-01,2.494198224279942366e-01,-1.074801922120782072e+00,1.573641566976770489e+00,-4.713633899958652451e-01,8.581581570014372440e-02,1.884764880039849211e-02
7.566666666666666430e+00,1.685122955737881422e+09,-1.383109980877044731e-01,3.149843287294007976e-01,-9.436729095179688942e-01,1.573641566976770489e+00,-6.128680552004086568e-01,8.608619608455804484e-02,1.361253964146737216e-02
7.583333333333333037e+00,1.685122955753846645e+09,-1.312253786356697705e-01,3.449680968550439819e-01,-8.837053732666825256e-01,1.573641566976770489e+00,-7.485895657701873152e-01,8.625544317579958431e-02,6.716268068306783905e-03
7.599999999999999645e+00,1.685122955772883654e+09,-1.243177276887724308e-01,4.301219983318708695e-01,-7.133975703130287505e-01,1.573641566976770489e+00,-8.776932219758191156e-01,8.630463456190635985e-02,-7.924437118657983933e-04
7.616666666666666252e+00,1.685122955790880442e+09,-1.176416588407146885e-01,4.445142070321795869e-01,-6.846131529124113158e-01,1.573641566976770489e+00,-9.994031558628395651e-01,8.621489508094339060e-02,-9.950853378080500022e-03
7.633333333333332860e+00,1.685122955806902885e+09,-1.112477087987518015e-01,4.577070650074625546e-01,-6.582274369618453802e-01,1.573641566976770489e+00,-1.113007754730264365e+00,8.595991148323513242e-02,-2.061754794241894145e-02
7.649999999999999467e+00,1.685122955821844101e+09,-1.051829728328743940e-01,7.868207834883852447e-01,0.000000000000000000e+00,1.573641566976770489e+00,-1.217864552847199633e+00,8.555959740970192628e-02,-2.740129669153263531e-02
7.666666666666666963e+00,1.685122955839881420e+09,-9.949077401790321074e-02,8.028456466958876492e-01,0.000000000000000000e+00,1.605691293391775298e+00,-1.313404555030914356e+00,8.503617516110778540e-02,-3.538718958185560481e-02
7.683333333333333570e+00,1.685122955857883215e+09,-9.421036901447044087e-02,8.028456466958876492e-01,0.000000000000000000e+00,1.605691293391775298e+00,-1.399135960279700663e+00,8.436891644871520601e-02,-4.465810276252657474e-02
7.700000000000000178e+00,1.685122955875901222e+09,-8.937669278002607909e-02,8.028456466958876492e-01,0.000000000000000000e+00,1.605691293391775298e+00,-1.474647258467940425e+00,8.353799336161549238e-02,-5.502387320496106987e-02
7.716666666666666785e+00,1.685122955892902374e+09,-8.502014422483779310e-02,4.533429658895276604e-01,-6.990053616127200886e-01,1.605691293391775298e+00,-1.539609678129575610e+00,8.247849303271147237e-02,-7.206881808005785595e-02
7.733333333333333393e+00,1.685122955909883022e+09,-8.116641443392880184e-02,3.250124383117746762e-01,-9.556664167682259459e-01,1.605691293391775298e+00,-1.593778968541599728e+00,8.111205757959069618e-02,-9.184849146410081766e-02
7.750000000000000000e+00,1.685122955928903341e+09,-7.783635866804961001e-02,3.338076769619633399e-01,-9.380759394678487295e-01,1.605691293391775298e+00,-1.636996504627962867e+00,7.941393845686220421e-02,-1.118701861358056548e-01
7.766666666666666607e+00,1.685122955945901871e+09,-7.504591293894030679e-02,3.282107069118432308e-01,-9.492698795680889479e-01,1.605691293391775298e+00,-1.669189708596414023e+00,7.737967023170529146e-02,-1.321855679387249349e-01
7.783333333333333215e+00,1.685122955964844465e+09,-7.280605553043625888e-02,3.302096247868860912e-01,-9.452720438180032270e-01,1.605691293391775298e+00,-1.690371787651308244e+00,7.500696869271045175e-02,-1.524822357808038042e-01
7.799999999999999822e+00,1.685122955980880976e+09,-7.112281341150655800e-02,2.958282373361485473e-01,-1.014034818719478315e+00,1.605691293391775298e+00,-1.700640792552920555e+00,7.229262560776647528e-02,-1.731814352828060233e-01
7.816666666666666430e+00,1.685122955997905493e+09,-6.999731306416301369e-02,2.370265316027284352e-01,-1.099588503771313563e+00,1.573641566976770489e+00,-1.700178007174678374e+00,6.922809704743040915e-02,-1.945027646486691131e-01
7.833333333333333037e+00,1.685122956014904022e+09,-6.942587483250380054e-02,2.550167924781143736e-01,-1.063607982020541742e+00,1.573641566976770489e+00,-1.689245684500996880e+00,6.581515271198537520e-02,-2.149936351802721191e-01
7.849999999999999645e+00,1.685122956031905651e+09,-6.940014949288199342e-02,1.926505547767765059e-01,-1.188340457423217478e+00,1.573641566976770489e+00,-1.668184149668572758e+00,6.205781905077235872e-02,-2.358285281005890466e-01
7.866666666666666252e+00,1.685122956048881531e+09,-6.990729535330161837e-02,-2.366587951002390236e-02,-1.588923599581810953e+00,1.541591840561763238e+00,-1.637408295642838851e+00,5.793048794250182931e-02,-2.593857665781995614e-01
7.883333333333332860e+00,1.685122956068902493e+09,-7.093019381634831089e-02,-7.124012493604443830e-02,-1.684072090433851976e+00,1.541591840561763238e+00,-1.597403501897628697e+00,5.341274443402761057e-02,-2.826787501836198757e-01
7.899999999999999467e+00,1.685122956086902857e+09,-7.244770098782972456e-02,-1.967721674887374095e-01,-1.935136175539238002e+00,1.541591840561763238e+00,-1.548721010994470237e+00,4.849938727222827956e-02,-3.068569459965406754e-01
7.916666666666666963e+00,1.685122956103845119e+09,-7.443493258623758158e-02,-1.767829887383086107e-01,-1.895157818038380348e+00,1.541591840561763238e+00,-1.491972802200594472e+00,4.319699869094087430e-02,-3.293671539309016572e-01
7.933333333333333570e+00,1.685122956120881557e+09,-7.686357910915229963e-02,-8.963016938643893206e-02,-1.720852179334640963e+00,1.541591840561763238e+00,-1.427826005210037108e+00,3.754344667706931843e-02,-3.490045381603046892e-01
7.950000000000000178e+00,1.685122956137882710e+09,-7.970224794471028607e-02,-1.052217288117734129e-01,-1.752035298185310008e+00,1.541591840561763238e+00,-1.356996900607198686e+00,3.157294668865116144e-02,-3.674043486622027288e-01
7.966666666666666785e+00,1.685122956155886173e+09,-8.291682888168187826e-02,-2.455792838469431361e-01,-2.000700681840644535e+00,1.509542114146758207e+00,-1.280244556911289244e+00,2.528953939934818970e-02,-3.865513387188703187e-01
7.983333333333333393e+00,1.685122956170846701e+09,-8.647087927274324515e-02,-3.463247447491045183e-01,-2.202191603644967355e+00,1.509542114146758207e+00,-1.198364156835827199e+00,1.868705454930667462e-02,-4.056936688952443304e-01
8.000000000000000000e+00,1.685122956192845106e+09,-9.032602494403658977e-02,-4.130886017755364681e-01,-2.335719317697831254e+00,1.509542114146758207e+00,-1.112180067769427350e+00,1.177085714332718955e-02,-4.241986159816809043e-01
8.016666666666665719e+00,1.685122956207859755e+09,-9.444237282147348311e-02,-4.211177934828676528e-01,-2.319727974697488815e+00,1.477492387731753398e+00,-1.022538713413152722e+00,4.560072177725965972e-03,-4.410487727976800110e-01
8.033333333333333215e+00,1.685122956222887993e+09,-9.877893116156649667e-02,-4.227169277829018190e-01,-2.322926243297557036e+00,1.477492387731753398e+00,-9.303013049816013513e-01,-2.916702379092475476e-03,-4.561223021202699401e-01
8.050000000000000711e+00,1.685122956241904497e+09,-1.032940332325164023e-01,-4.191523958149839246e-01,-2.283747452946716550e+00,1.445442661316748589e+00,-8.363364913773030374e-01,-1.062914965935468636e-02,-4.693346696265458529e-01
8.066666666666666430e+00,1.685122956257883072e+09,-1.079457602900852076e-01,-3.519887552135432252e-01,-2.149420171743834818e+00,1.445442661316748589e+00,-7.415129882740849609e-01,-1.853760442081353252e-02,-4.796512439232141212e-01
8.083333333333333925e+00,1.685122956276901484e+09,-1.126923597323481879e-01,-2.852584183942715179e-01,-1.983909771690284263e+00,1.413392934901741116e+00,-6.466922460911039838e-01,-2.659426364118619435e-02,-4.871270957775977184e-01
8.099999999999999645e+00,1.685122956293881178e+09,-1.174926543971629711e-01,-2.581066555008478813e-01,-1.897556519488432070e+00,1.381343208486736307e+00,-5.527212164044602583e-01,-3.475775828352894309e-02,-4.924773990003434299e-01
8.116666666666667140e+00,1.685122956310906172e+09,-1.223064390852289102e-01,-2.489116332756503569e-01,-1.879166475038037021e+00,1.381343208486736307e+00,-4.604252754325384167e-01,-4.299566767722216160e-02,-4.960617714184533678e-01
8.133333333333332860e+00,1.685122956327901602e+09,-1.270948605485439642e-01,-1.673557839739009956e-01,-1.716054776434538187e+00,1.381343208486736307e+00,-3.706013618515128227e-01,-5.126915047754738997e-02,-4.967542410485517035e-01
8.150000000000000355e+00,1.685122956347901583e+09,-1.318207773773292790e-01,-1.333741800981720071e-01,-1.648091568683080377e+00,1.381343208486736307e+00,-2.840113843603562227e-01,-5.953742538714328764e-02,-4.954423922132645819e-01
8.166666666666666075e+00,1.685122956363905907e+09,-1.364490964458773548e-01,-1.277772100480518425e-01,-1.636897628582840047e+00,1.381343208486736307e+00,-2.013759521350044768e-01,-6.777183063927239015e-02,-4.926938729975197662e-01
8.183333333333333570e+00,1.685122956379845858e+09,-1.409470828370839590e-01,-4.502201002127664137e-02,-1.471387228529289493e+00,1.381343208486736307e+00,-1.233684786083906193e-01,-7.593860224396412062e-02,-4.873336095366558318e-01
8.199999999999999289e+00,1.685122956398904324e+09,-1.452846404538122305e-01,6.891630885616761848e-02,-1.243510590774401070e+00,1.381343208486736307e+00,-5.060970590702673633e-02,-8.399098979112661068e-02,-4.789761119403410095e-01
8.216666666666666785e+00,1.685122956414879560e+09,-1.494345608398201242e-01,1.040972634569224398e-01,-1.173148681572891316e+00,1.381343208486736307e+00,1.633730620668361055e-02,-9.189113408770049896e-02,-4.690687248160403389e-01
8.233333333333332504e+00,1.685122956433901548e+09,-1.533727380705658394e-01,7.651219678133062974e-02,-1.228318814924075131e+00,1.381343208486736307e+00,7.697168686916477931e-02,-9.962295889105061975e-02,-4.587788352851819851e-01
8.250000000000000000e+00,1.685122956449903965e+09,-1.570783479312125586e-01,1.004992112818450523e-01,-1.180344785923046258e+00,1.381343208486736307e+00,1.308587202583990639e-01,-1.071739507778780298e-01,-4.473718778726838430e-01
8.266666666666665719e+00,1.685122956465902567e+09,-1.605339899721523189e-01,1.808557098585690248e-01,-1.019631788769598257e+00,1.381343208486736307e+00,1.776332399103648374e-01,-1.145188428428075555e-01,-4.340521699782720622e-01
8.283333333333333215e+00,1.685122956486882687e+09,-1.637257914174273243e-01,1.664635011582602242e-01,-1.048416206170215803e+00,1.381343208486736307e+00,2.170024244566184368e-01,-1.216401296684974515e-01,-4.205397843923341927e-01
8.300000000000000711e+00,1.685122956503903866e+09,-1.666434722947046365e-01,1.792565755585347198e-01,-1.022830057369666923e+00,1.381343208486736307e+00,2.487479729256028005e-01,-1.285319247083802630e-01,-4.065145802110490814e-01
8.316666666666666430e+00,1.685122956520890236e+09,-1.692803715530774578e-01,1.756585233834575543e-01,-1.030026161719821198e+00,1.381343208486736307e+00,2.727276428158533772e-01,-1.351890883942327148e-01,-3.923843137552081028e-01
8.333333333333333925e+00,1.685122956538881540e+09,-1.716334343327745038e-01,1.484397200757149315e-01,-1.052414041920301635e+00,1.349293482071731276e+00,2.888761393476992900e-01,-1.416142283549035874e-01,-3.786705761374803414e-01
8.349999999999999645e+00,1.685122956556890726e+09,-1.737031609450580549e-01,7.044840274188307605e-02,-1.176346950172960426e+00,1.317243755656726467e+00,2.972053495875159879e-01,-1.478223219352194084e-01,-3.663349200183412258e-01
8.366666666666667140e+00,1.685122956576902390e+09,-1.754935185070727599e-01,1.080280587926892855e-01,-1.101187638071347896e+00,1.317243755656726467e+00,2.978039204741071977e-01,-1.538212518581068000e-01,-3.535721237743405521e-01
8.383333333333332860e+00,1.685122956593901396e+09,-1.770118165514422970e-01,6.815773901199469013e-03,-1.239512755024315460e+00,1.253144302826714185e+00,2.908361851167612366e-01,-1.596241731924218088e-01,-3.428083364563928592e-01
8.400000000000000355e+00,1.685122956609901905e+09,-1.782685482902240104e-01,-1.843763173865949762e-02,-1.225920113474023410e+00,1.189044849996704567e+00,2.765404470367078815e-01,-1.652546473185773357e-01,-3.328761487419364951e-01
8.416666666666666075e+00,1.685122956626902103e+09,-1.792771995538207930e-01,-5.681685493948285953e-02,-1.302678559875670272e+00,1.189044849996704567e+00,2.552266372453552146e-01,-1.707292016530502499e-01,-3.240947647023657008e-01
8.433333333333333570e+00,1.685122956643882990e+09,-1.800540277443276049e-01,-1.272122843481517107e-01,-1.411419692278002902e+00,1.156995123581699536e+00,2.272733641523457804e-01,-1.760721964478715595e-01,-3.170840852441411672e-01
8.449999999999999289e+00,1.685122956660902500e+09,-1.806178134363304877e-01,-1.751863133491809998e-01,-1.507367750280061536e+00,1.156995123581699536e+00,1.931243812325644793e-01,-1.813106577749842019e-01,-3.115466561189721428e-01
8.466666666666666785e+00,1.685122956678905725e+09,-1.809895875235454643e-01,-2.635720036332369065e-01,-1.652089404433166209e+00,1.124945397166692285e+00,1.532845021155659904e-01,-1.864753040287776831e-01,-3.082201348904731741e-01
8.483333333333332504e+00,1.685122956697904110e+09,-1.811923370442713732e-01,-4.006977698611784988e-01,-1.926340936889049393e+00,1.124945397166692285e+00,1.083149972539351191e-01,-1.916101188125712840e-01,-3.079583663168002916e-01
8.500000000000000000e+00,1.685122956715904236e+09,-1.812506930201728816e-01,-4.194875978865816313e-01,-1.963920592939855547e+00,1.124945397166692285e+00,5.882851054448767769e-02,-1.967500373010687698e-01,-3.088294326173376958e-01
8.516666666666665719e+00,1.685122956733902931e+09,-1.811906038094391880e-01,-4.235189538438268175e-01,-1.939933578439341000e+00,1.092895670751687476e+00,5.483538182761371615e-03,-2.019122780962263608e-01,-3.106344487498645113e-01
8.533333333333333215e+00,1.685122956749903202e+09,-1.810389976053083105e-01,-4.075276108434838784e-01,-1.907950892438655233e+00,1.092895670751687476e+00,-5.102148440290521503e-02,-2.071099489535033478e-01,-3.130792628133606814e-01
8.550000000000000711e+00,1.685122956768902540e+09,-1.808234378031056688e-01,-4.223196031188011235e-01,-1.937534876989289723e+00,1.092895670751687476e+00,-1.099544384965127630e-01,-2.123582119592793693e-01,-3.167022338345065746e-01
8.566666666666666430e+00,1.685122956785845518e+09,-1.805717750124470056e-01,-3.695481712176690303e-01,-1.831992013187025536e+00,1.092895670751687476e+00,-1.705560690772185417e-01,-2.176674389197912896e-01,-3.203947442122427880e-01
8.583333333333333925e+00,1.685122956804847717e+09,-1.803117995056929546e-01,-3.531570446423173415e-01,-1.799209760036322159e+00,1.092895670751687476e+00,-2.320467686170057386e-01,-2.230439268840775369e-01,-3.247716531356119041e-01
8.599999999999999645e+00,1.685122956820845604e+09,-1.800708978690555573e-01,-3.543563953673432021e-01,-1.801608461486373658e+00,1.092895670751687476e+00,-2.936335415253686909e-01,-2.285014308403002237e-01,-3.301139814609344025e-01
8.616666666666667140e+00,1.685122956837881804e+09,-1.798757175592792246e-01,-2.907908069409795293e-01,-1.674477284633646423e+00,1.092895670751687476e+00,-3.545170915819201296e-01,-2.340468652724130849e-01,-3.353236786708698736e-01
8.633333333333332860e+00,1.685122956855882645e+09,-1.797518429673122808e-01,-2.100345247892469458e-01,-1.512964720330181256e+00,1.092895670751687476e+00,-4.138989736702329836e-01,-2.396754561825781005e-01,-3.400939794016961670e-01
8.650000000000000355e+00,1.685122956871901751e+09,-1.797234864519328124e-01,-1.824494581136552329e-01,-1.457794586978997886e+00,1.092895670751687476e+00,-4.709887505730104840e-01,-2.453869684339049506e-01,-3.452731039618137654e-01
8.666666666666666075e+00,1.685122956888901711e+09,-1.798131976324477965e-01,-1.208827875623345871e-01,-1.334661245876356483e+00,1.092895670751687476e+00,-5.250110955119178247e-01,-2.511830420586139700e-01,-3.502419283883422829e-01
8.683333333333333570e+00,1.685122956907903910e+09,-1.800415940221022637e-01,4.782588109128475123e-02,-9.972439085691179317e-01,1.092895670751687476e+00,-5.752127815181317105e-01,-2.570448748836812181e-01,-3.531698772370558403e-01
8.699999999999999289e+00,1.685122956924904585e+09,-1.804271158449966272e-01,1.245843274929313294e-01,-8.437270157658247616e-01,1.092895670751687476e+00,-6.208694995964411101e-01,-2.629508066602361804e-01,-3.555353649955593776e-01
8.716666666666666785e+00,1.685122956940901756e+09,-1.809858076115448688e-01,1.777555429690720334e-01,-7.373845848135432979e-01,1.092895670751687476e+00,-6.612924489923118765e-01,-2.688940757135446780e-01,-3.576510443759715607e-01
