# 
# 
# 
# 
# 
# 
# 
# 
# 
# 
# time,realtime,ref,inp,dis,state...
0.000000000000000000e+00,1.644185100576402664e+09,0.000000000000000000e+00,-4.472051052799532744e-01,0.000000000000000000e+00,-4.473451423095652912e-01
1.666666666666666644e-02,1.644185100578400373e+09,0.000000000000000000e+00,-4.473451423095652912e-01,0.000000000000000000e+00,-4.473451423095652912e-01
3.333333333333333287e-02,1.644185100578400373e+09,0.000000000000000000e+00,-4.524533683293790465e-01,0.000000000000000000e+00,-4.524533683293790465e-01
5.000000000000000278e-02,1.644185100596370459e+09,0.000000000000000000e+00,-5.101842618730636492e-01,0.000000000000000000e+00,-5.101842618730636492e-01
6.666666666666666574e-02,1.644185100614295006e+09,0.000000000000000000e+00,-5.810358130403131538e-01,0.000000000000000000e+00,-5.810358130403131538e-01
8.333333333333332871e-02,1.644185100629273415e+09,0.000000000000000000e+00,-6.703963219101664039e-01,0.000000000000000000e+00,-6.703963219101664039e-01
1.000000000000000056e-01,1.644185100648202658e+09,0.000000000000000000e+00,-5.626668923673224798e-01,0.000000000000000000e+00,-5.626668923673224798e-01
1.166666666666666685e-01,1.644185100665180206e+09,0.000000000000000000e+00,-5.444380087239448773e-01,0.000000000000000000e+00,-5.444380087239448773e-01
1.333333333333333315e-01,1.644185100680117130e+09,0.000000000000000000e+00,-6.099012598121554829e-01,0.000000000000000000e+00,-6.099012598121554829e-01
1.499999999999999944e-01,1.644185100699289560e+09,0.000000000000000000e+00,-4.944394727247862775e-01,0.000000000000000000e+00,-4.944394727247862775e-01
1.666666666666666574e-01,1.644185100717450142e+09,0.000000000000000000e+00,-5.286932195756663955e-01,0.000000000000000000e+00,-5.286932195756663955e-01
1.833333333333333204e-01,1.644185100734404802e+09,0.000000000000000000e+00,-4.893312467049725778e-01,0.000000000000000000e+00,-4.893312467049725778e-01
2.000000000000000111e-01,1.644185100751157045e+09,0.000000000000000000e+00,-4.813188151012213756e-01,0.000000000000000000e+00,-4.813188151012213756e-01
2.166666666666666741e-01,1.644185100767092705e+09,0.000000000000000000e+00,-4.865670781506470921e-01,0.000000000000000000e+00,-4.865670781506470921e-01
2.333333333333333370e-01,1.644185100783026457e+09,0.000000000000000000e+00,-4.235879215575367174e-01,0.000000000000000000e+00,-4.235879215575367174e-01
2.500000000000000000e-01,1.644185100799390793e+09,0.000000000000000000e+00,-4.734464205270822457e-01,0.000000000000000000e+00,-4.734464205270822457e-01
2.666666666666666630e-01,1.644185100818369865e+09,0.000000000000000000e+00,-4.053590379141580602e-01,0.000000000000000000e+00,-4.053590379141580602e-01
2.833333333333333259e-01,1.644185100834717035e+09,0.000000000000000000e+00,4.086340117913214720e-02,0.000000000000000000e+00,4.086340117913214720e-02
2.999999999999999889e-01,1.644185100852248669e+09,0.000000000000000000e+00,-4.524533683293790465e-01,0.000000000000000000e+00,-4.524533683293790465e-01
3.166666666666666519e-01,1.644185100867877960e+09,0.000000000000000000e+00,-3.922383802905936023e-01,0.000000000000000000e+00,-3.922383802905936023e-01
3.333333333333333148e-01,1.644185100884987354e+09,0.000000000000000000e+00,-4.053590379141580602e-01,0.000000000000000000e+00,-4.053590379141580602e-01
3.499999999999999778e-01,1.644185100901968002e+09,0.000000000000000000e+00,-4.078431324092584576e-01,0.000000000000000000e+00,-4.078431324092584576e-01
3.666666666666666408e-01,1.644185100918942451e+09,0.000000000000000000e+00,-4.839429466259347334e-01,0.000000000000000000e+00,-4.839429466259347334e-01
3.833333333333333037e-01,1.644185100936876297e+09,0.000000000000000000e+00,-5.418138771992314640e-01,0.000000000000000000e+00,-5.418138771992314640e-01
4.000000000000000222e-01,1.644185100952376127e+09,0.000000000000000000e+00,-4.918153412000728641e-01,0.000000000000000000e+00,-4.918153412000728641e-01
4.166666666666666852e-01,1.644185100970070362e+09,0.000000000000000000e+00,-5.391897456745189388e-01,0.000000000000000000e+00,-5.391897456745189388e-01
4.333333333333333481e-01,1.644185100988404512e+09,0.000000000000000000e+00,-4.550774998540914607e-01,0.000000000000000000e+00,-4.550774998540914607e-01
4.500000000000000111e-01,1.644185101004822254e+09,0.000000000000000000e+00,-4.237279585871488452e-01,0.000000000000000000e+00,-4.237279585871488452e-01
4.666666666666666741e-01,1.644185101020076990e+09,0.000000000000000000e+00,4.086340117913214720e-02,0.000000000000000000e+00,4.086340117913214720e-02
4.833333333333333370e-01,1.644185101037268400e+09,0.000000000000000000e+00,-3.737294225879903564e-01,0.000000000000000000e+00,-3.737294225879903564e-01
5.000000000000000000e-01,1.644185101054467916e+09,0.000000000000000000e+00,-3.658570280138516151e-01,0.000000000000000000e+00,-3.658570280138516151e-01
5.166666666666666075e-01,1.644185101072415829e+09,0.000000000000000000e+00,3.285096957538091722e-02,0.000000000000000000e+00,3.285096957538091722e-02
5.333333333333333259e-01,1.644185101089774609e+09,0.000000000000000000e+00,3.285096957538091722e-02,0.000000000000000000e+00,3.285096957538091722e-02
5.500000000000000444e-01,1.644185101107089996e+09,0.000000000000000000e+00,4.086340117913214720e-02,0.000000000000000000e+00,4.086340117913214720e-02
5.666666666666666519e-01,1.644185101122493505e+09,0.000000000000000000e+00,4.086340117913214720e-02,0.000000000000000000e+00,4.086340117913214720e-02
5.833333333333333703e-01,1.644185101139787912e+09,0.000000000000000000e+00,3.285096957538091722e-02,0.000000000000000000e+00,3.285096957538091722e-02
5.999999999999999778e-01,1.644185101156760216e+09,0.000000000000000000e+00,4.086340117913214720e-02,0.000000000000000000e+00,4.086340117913214720e-02
6.166666666666666963e-01,1.644185101173712492e+09,0.000000000000000000e+00,3.285096957538091722e-02,0.000000000000000000e+00,3.285096957538091722e-02
6.333333333333333037e-01,1.644185101191015244e+09,0.000000000000000000e+00,4.086340117913214720e-02,0.000000000000000000e+00,4.086340117913214720e-02
6.500000000000000222e-01,1.644185101207968235e+09,0.000000000000000000e+00,4.086340117913214720e-02,0.000000000000000000e+00,4.086340117913214720e-02
6.666666666666666297e-01,1.644185101225192308e+09,0.000000000000000000e+00,4.086340117913214720e-02,0.000000000000000000e+00,4.086340117913214720e-02
6.833333333333333481e-01,1.644185101241141319e+09,0.000000000000000000e+00,4.086340117913214720e-02,0.000000000000000000e+00,4.086340117913214720e-02
6.999999999999999556e-01,1.644185101259124756e+09,0.000000000000000000e+00,4.086340117913214720e-02,0.000000000000000000e+00,4.086340117913214720e-02
7.166666666666666741e-01,1.644185101276727915e+09,0.000000000000000000e+00,4.086340117913214720e-02,0.000000000000000000e+00,4.086340117913214720e-02
7.333333333333332815e-01,1.644185101293219566e+09,0.000000000000000000e+00,3.285096957538091722e-02,0.000000000000000000e+00,3.285096957538091722e-02
7.500000000000000000e-01,1.644185101310197353e+09,0.000000000000000000e+00,4.086340117913214720e-02,0.000000000000000000e+00,4.086340117913214720e-02
7.666666666666666075e-01,1.644185101328127384e+09,0.000000000000000000e+00,4.086340117913214720e-02,0.000000000000000000e+00,4.086340117913214720e-02
7.833333333333333259e-01,1.644185101344280481e+09,0.000000000000000000e+00,4.086340117913214720e-02,0.000000000000000000e+00,4.086340117913214720e-02
8.000000000000000444e-01,1.644185101361067295e+09,0.000000000000000000e+00,4.086340117913214720e-02,0.000000000000000000e+00,4.086340117913214720e-02
8.166666666666666519e-01,1.644185101377996683e+09,0.000000000000000000e+00,4.086340117913214720e-02,0.000000000000000000e+00,4.086340117913214720e-02
8.333333333333333703e-01,1.644185101392980099e+09,0.000000000000000000e+00,-3.684811595385645289e-01,0.000000000000000000e+00,-3.684811595385645289e-01
8.499999999999999778e-01,1.644185101411043406e+09,0.000000000000000000e+00,4.086340117913214720e-02,0.000000000000000000e+00,4.086340117913214720e-02
8.666666666666666963e-01,1.644185101429519892e+09,0.000000000000000000e+00,4.086340117913214720e-02,0.000000000000000000e+00,4.086340117913214720e-02
8.833333333333333037e-01,1.644185101444930315e+09,0.000000000000000000e+00,4.086340117913214720e-02,0.000000000000000000e+00,4.086340117913214720e-02
9.000000000000000222e-01,1.644185101462998867e+09,0.000000000000000000e+00,3.285096957538091722e-02,0.000000000000000000e+00,3.285096957538091722e-02
9.166666666666666297e-01,1.644185101480242491e+09,0.000000000000000000e+00,3.285096957538091722e-02,0.000000000000000000e+00,3.285096957538091722e-02
9.333333333333333481e-01,1.644185101496587515e+09,0.000000000000000000e+00,4.086340117913214720e-02,0.000000000000000000e+00,4.086340117913214720e-02
9.499999999999999556e-01,1.644185101511904001e+09,0.000000000000000000e+00,4.086340117913214720e-02,0.000000000000000000e+00,4.086340117913214720e-02
9.666666666666666741e-01,1.644185101528533697e+09,0.000000000000000000e+00,4.086340117913214720e-02,0.000000000000000000e+00,4.086340117913214720e-02
9.833333333333332815e-01,1.644185101546487093e+09,0.000000000000000000e+00,3.285096957538091722e-02,0.000000000000000000e+00,3.285096957538091722e-02
1.000000000000000000e+00,1.644185101566420794e+09,0.000000000000000000e+00,4.086340117913214720e-02,0.000000000000000000e+00,4.086340117913214720e-02
1.016666666666666607e+00,1.644185101583369017e+09,0.000000000000000000e+00,4.086340117913214720e-02,0.000000000000000000e+00,4.086340117913214720e-02
1.033333333333333215e+00,1.644185101598958492e+09,0.000000000000000000e+00,4.086340117913214720e-02,0.000000000000000000e+00,4.086340117913214720e-02
1.050000000000000044e+00,1.644185101613882065e+09,0.000000000000000000e+00,4.086340117913214720e-02,0.000000000000000000e+00,4.086340117913214720e-02
1.066666666666666652e+00,1.644185101632304192e+09,0.000000000000000000e+00,3.285096957538091722e-02,0.000000000000000000e+00,3.285096957538091722e-02
1.083333333333333259e+00,1.644185101648224592e+09,0.000000000000000000e+00,4.086340117913214720e-02,0.000000000000000000e+00,4.086340117913214720e-02
1.100000000000000089e+00,1.644185101665199280e+09,0.000000000000000000e+00,3.285096957538091722e-02,0.000000000000000000e+00,3.285096957538091722e-02
1.116666666666666696e+00,1.644185101681450605e+09,0.000000000000000000e+00,4.086340117913214720e-02,0.000000000000000000e+00,4.086340117913214720e-02
1.133333333333333304e+00,1.644185101700988531e+09,0.000000000000000000e+00,3.285096957538091722e-02,0.000000000000000000e+00,3.285096957538091722e-02
1.149999999999999911e+00,1.644185101717208862e+09,0.000000000000000000e+00,3.285096957538091722e-02,0.000000000000000000e+00,3.285096957538091722e-02
1.166666666666666741e+00,1.644185101733145475e+09,0.000000000000000000e+00,3.285096957538091722e-02,0.000000000000000000e+00,3.285096957538091722e-02
1.183333333333333348e+00,1.644185101751116991e+09,0.000000000000000000e+00,3.285096957538091722e-02,0.000000000000000000e+00,3.285096957538091722e-02
1.199999999999999956e+00,1.644185101768472910e+09,0.000000000000000000e+00,4.086340117913214720e-02,0.000000000000000000e+00,4.086340117913214720e-02
1.216666666666666563e+00,1.644185101786540747e+09,0.000000000000000000e+00,3.285096957538091722e-02,0.000000000000000000e+00,3.285096957538091722e-02
1.233333333333333393e+00,1.644185101801765442e+09,0.000000000000000000e+00,4.086340117913214720e-02,0.000000000000000000e+00,4.086340117913214720e-02
1.250000000000000000e+00,1.644185101818722963e+09,0.000000000000000000e+00,3.285096957538091722e-02,0.000000000000000000e+00,3.285096957538091722e-02
1.266666666666666607e+00,1.644185101836700678e+09,0.000000000000000000e+00,4.086340117913214720e-02,0.000000000000000000e+00,4.086340117913214720e-02
1.283333333333333215e+00,1.644185101852704287e+09,0.000000000000000000e+00,4.086340117913214720e-02,0.000000000000000000e+00,4.086340117913214720e-02
1.300000000000000044e+00,1.644185101870007992e+09,0.000000000000000000e+00,4.086340117913214720e-02,0.000000000000000000e+00,4.086340117913214720e-02
1.316666666666666652e+00,1.644185101888072252e+09,0.000000000000000000e+00,-4.314603161316749591e-01,0.000000000000000000e+00,-4.314603161316749591e-01
1.333333333333333259e+00,1.644185101905717611e+09,0.000000000000000000e+00,3.285096957538091722e-02,0.000000000000000000e+00,3.285096957538091722e-02
1.350000000000000089e+00,1.644185101921649218e+09,0.000000000000000000e+00,4.086340117913214720e-02,0.000000000000000000e+00,4.086340117913214720e-02
1.366666666666666696e+00,1.644185101937582493e+09,0.000000000000000000e+00,3.285096957538091722e-02,0.000000000000000000e+00,3.285096957538091722e-02
1.383333333333333304e+00,1.644185101955960035e+09,0.000000000000000000e+00,4.086340117913214720e-02,0.000000000000000000e+00,4.086340117913214720e-02
1.399999999999999911e+00,1.644185101973890305e+09,0.000000000000000000e+00,4.086340117913214720e-02,0.000000000000000000e+00,4.086340117913214720e-02
1.416666666666666741e+00,1.644185101989845753e+09,0.000000000000000000e+00,4.086340117913214720e-02,0.000000000000000000e+00,4.086340117913214720e-02
1.433333333333333348e+00,1.644185102006533623e+09,0.000000000000000000e+00,3.285096957538091722e-02,0.000000000000000000e+00,3.285096957538091722e-02
1.449999999999999956e+00,1.644185102023832560e+09,0.000000000000000000e+00,4.086340117913214720e-02,0.000000000000000000e+00,4.086340117913214720e-02
1.466666666666666563e+00,1.644185102040132761e+09,0.000000000000000000e+00,3.285096957538091722e-02,0.000000000000000000e+00,3.285096957538091722e-02
1.483333333333333393e+00,1.644185102057280779e+09,0.000000000000000000e+00,3.285096957538091722e-02,0.000000000000000000e+00,3.285096957538091722e-02
1.500000000000000000e+00,1.644185102073709726e+09,0.000000000000000000e+00,-4.447210107848528771e-01,0.000000000000000000e+00,-4.447210107848528771e-01
1.516666666666666607e+00,1.644185102090642452e+09,0.000000000000000000e+00,-4.735864575566952062e-01,0.000000000000000000e+00,-4.735864575566952062e-01
1.533333333333333215e+00,1.644185102106235743e+09,0.000000000000000000e+00,-4.786946835765079622e-01,0.000000000000000000e+00,-4.786946835765079622e-01
1.550000000000000044e+00,1.644185102122221231e+09,0.000000000000000000e+00,-4.394727477354261613e-01,0.000000000000000000e+00,-4.394727477354261613e-01
1.566666666666666652e+00,1.644185102140177488e+09,0.000000000000000000e+00,-4.499692738342786491e-01,0.000000000000000000e+00,-4.499692738342786491e-01
1.583333333333333259e+00,1.644185102158646584e+09,0.000000000000000000e+00,-4.630899314578426629e-01,0.000000000000000000e+00,-4.630899314578426629e-01
1.600000000000000089e+00,1.644185102174931288e+09,0.000000000000000000e+00,-4.762105890814076758e-01,0.000000000000000000e+00,-4.762105890814076758e-01
1.616666666666666696e+00,1.644185102190674305e+09,0.000000000000000000e+00,-4.158555640130096598e-01,0.000000000000000000e+00,-4.158555640130096598e-01
1.633333333333333304e+00,1.644185102208733797e+09,0.000000000000000000e+00,-4.552175368837044767e-01,0.000000000000000000e+00,-4.552175368837044767e-01
1.649999999999999911e+00,1.644185102225952387e+09,0.000000000000000000e+00,-4.658541000121680931e-01,0.000000000000000000e+00,-4.658541000121680931e-01
1.666666666666666741e+00,1.644185102242220163e+09,0.000000000000000000e+00,-3.923784173202056746e-01,0.000000000000000000e+00,-3.923784173202056746e-01
1.683333333333333348e+00,1.644185102258177519e+09,0.000000000000000000e+00,3.285096957538091722e-02,0.000000000000000000e+00,3.285096957538091722e-02
1.699999999999999956e+00,1.644185102275462866e+09,0.000000000000000000e+00,1.682610636787787092e-02,0.000000000000000000e+00,1.682610636787787092e-02
1.716666666666666563e+00,1.644185102293499470e+09,0.000000000000000000e+00,1.682610636787787092e-02,0.000000000000000000e+00,1.682610636787787092e-02
1.733333333333333393e+00,1.644185102308755159e+09,0.000000000000000000e+00,1.682610636787787092e-02,0.000000000000000000e+00,1.682610636787787092e-02
1.750000000000000000e+00,1.644185102325709581e+09,0.000000000000000000e+00,8.813674764126647881e-03,0.000000000000000000e+00,8.813674764126647881e-03
1.766666666666666607e+00,1.644185102342663765e+09,0.000000000000000000e+00,1.682610636787787092e-02,0.000000000000000000e+00,1.682610636787787092e-02
1.783333333333333215e+00,1.644185102361614704e+09,0.000000000000000000e+00,8.813674764126647881e-03,0.000000000000000000e+00,8.813674764126647881e-03
1.800000000000000044e+00,1.644185102375753641e+09,0.000000000000000000e+00,-3.979067544288570901e-01,0.000000000000000000e+00,-3.979067544288570901e-01
1.816666666666666652e+00,1.644185102393133402e+09,0.000000000000000000e+00,1.682610636787787092e-02,0.000000000000000000e+00,1.682610636787787092e-02
1.833333333333333259e+00,1.644185102411284447e+09,0.000000000000000000e+00,8.813674764126647881e-03,0.000000000000000000e+00,8.813674764126647881e-03
1.849999999999999867e+00,1.644185102427733183e+09,0.000000000000000000e+00,1.682610636787787092e-02,0.000000000000000000e+00,1.682610636787787092e-02
1.866666666666666696e+00,1.644185102446825981e+09,0.000000000000000000e+00,8.813674764126647881e-03,0.000000000000000000e+00,8.813674764126647881e-03
1.883333333333333304e+00,1.644185102462333202e+09,0.000000000000000000e+00,8.813674764126647881e-03,0.000000000000000000e+00,8.813674764126647881e-03
1.899999999999999911e+00,1.644185102479925394e+09,0.000000000000000000e+00,8.012431603754229968e-04,0.000000000000000000e+00,8.012431603754229968e-04
1.916666666666666741e+00,1.644185102496701002e+09,0.000000000000000000e+00,-7.211188443376101778e-03,0.000000000000000000e+00,-7.211188443376101778e-03
1.933333333333333348e+00,1.644185102513089895e+09,0.000000000000000000e+00,-4.796749427837961877e-01,0.000000000000000000e+00,-4.796749427837961877e-01
1.949999999999999956e+00,1.644185102531068802e+09,0.000000000000000000e+00,-5.688954146240364773e-01,0.000000000000000000e+00,-5.688954146240364773e-01
1.966666666666666563e+00,1.644185102548678160e+09,0.000000000000000000e+00,-6.480394714542628831e-01,0.000000000000000000e+00,-6.480394714542628831e-01
1.983333333333333393e+00,1.644185102565255165e+09,0.000000000000000000e+00,-7.086745705818854324e-01,0.000000000000000000e+00,-7.086745705818854324e-01
2.000000000000000000e+00,1.644185102584426880e+09,0.000000000000000000e+00,-7.508007120069046803e-01,0.000000000000000000e+00,-7.508007120069046803e-01
2.016666666666666607e+00,1.644185102599384308e+09,0.000000000000000000e+00,-8.086716425802026320e-01,0.000000000000000000e+00,-8.086716425802026320e-01
2.033333333333333215e+00,1.644185102616339207e+09,0.000000000000000000e+00,-8.401612208767582635e-01,0.000000000000000000e+00,-8.401612208767582635e-01
2.049999999999999822e+00,1.644185102632352829e+09,0.000000000000000000e+00,-9.031403774698687492e-01,0.000000000000000000e+00,-9.031403774698687492e-01
2.066666666666666430e+00,1.644185102653273821e+09,0.000000000000000000e+00,-8.322888263026190225e-01,0.000000000000000000e+00,-8.322888263026190225e-01
2.083333333333333481e+00,1.644185102668233633e+09,0.000000000000000000e+00,-8.322888263026190225e-01,0.000000000000000000e+00,-8.322888263026190225e-01
2.100000000000000089e+00,1.644185102684167624e+09,0.000000000000000000e+00,-7.589531806402691760e-01,0.000000000000000000e+00,-7.589531806402691760e-01
2.116666666666666696e+00,1.644185102702119112e+09,0.000000000000000000e+00,-7.351959598882397140e-01,0.000000000000000000e+00,-7.351959598882397140e-01
2.133333333333333304e+00,1.644185102720071077e+09,0.000000000000000000e+00,-6.381030934738611826e-01,0.000000000000000000e+00,-6.381030934738611826e-01
2.149999999999999911e+00,1.644185102736028671e+09,0.000000000000000000e+00,-5.411502640890938354e-01,0.000000000000000000e+00,-5.411502640890938354e-01
2.166666666666666519e+00,1.644185102754013538e+09,0.000000000000000000e+00,-6.066135151773055512e-01,0.000000000000000000e+00,-6.066135151773055512e-01
2.183333333333333126e+00,1.644185102770968914e+09,0.000000000000000000e+00,-5.463985271385196629e-01,0.000000000000000000e+00,-5.463985271385196629e-01
2.200000000000000178e+00,1.644185102786926508e+09,0.000000000000000000e+00,-5.726398423856494668e-01,0.000000000000000000e+00,-5.726398423856494668e-01
2.216666666666666785e+00,1.644185102804870129e+09,0.000000000000000000e+00,-5.673915793362237503e-01,0.000000000000000000e+00,-5.673915793362237503e-01
2.233333333333333393e+00,1.644185102821823120e+09,0.000000000000000000e+00,-7.932307287713831478e-02,0.000000000000000000e+00,-7.932307287713831478e-02
2.250000000000000000e+00,1.644185102841863871e+09,0.000000000000000000e+00,-7.932307287713831478e-02,0.000000000000000000e+00,-7.932307287713831478e-02
2.266666666666666607e+00,1.644185102855893850e+09,0.000000000000000000e+00,-5.122848173172515063e-01,0.000000000000000000e+00,-5.122848173172515063e-01
2.283333333333333215e+00,1.644185102871871710e+09,0.000000000000000000e+00,-5.410102270594817631e-01,0.000000000000000000e+00,-5.410102270594817631e-01
2.299999999999999822e+00,1.644185102887991190e+09,0.000000000000000000e+00,-5.437743956138072488e-01,0.000000000000000000e+00,-5.437743956138072488e-01
2.316666666666666430e+00,1.644185102906500101e+09,0.000000000000000000e+00,-5.570350902669845006e-01,0.000000000000000000e+00,-5.570350902669845006e-01
2.333333333333333481e+00,1.644185102923483133e+09,0.000000000000000000e+00,-5.835564795733387822e-01,0.000000000000000000e+00,-5.835564795733387822e-01
2.350000000000000089e+00,1.644185102940436602e+09,0.000000000000000000e+00,-5.707158960089993016e-01,0.000000000000000000e+00,-5.707158960089993016e-01
2.366666666666666696e+00,1.644185102958390713e+09,0.000000000000000000e+00,-5.763842701472625674e-01,0.000000000000000000e+00,-5.763842701472625674e-01
2.383333333333333304e+00,1.644185102974368095e+09,0.000000000000000000e+00,-1.754722521221548093e-01,0.000000000000000000e+00,-1.754722521221548093e-01
2.399999999999999911e+00,1.644185102992320061e+09,0.000000000000000000e+00,-2.315592733484142796e-01,0.000000000000000000e+00,-2.315592733484142796e-01
2.416666666666666519e+00,1.644185103009274483e+09,0.000000000000000000e+00,-2.636089997634197823e-01,0.000000000000000000e+00,-2.636089997634197823e-01
2.433333333333333126e+00,1.644185103026430607e+09,0.000000000000000000e+00,-3.036711577821767927e-01,0.000000000000000000e+00,-3.036711577821767927e-01
2.450000000000000178e+00,1.644185103044627905e+09,0.000000000000000000e+00,-3.277084525934307879e-01,0.000000000000000000e+00,-3.277084525934307879e-01
2.466666666666666785e+00,1.644185103061321020e+09,0.000000000000000000e+00,-3.437333158009335254e-01,0.000000000000000000e+00,-3.437333158009335254e-01
2.483333333333333393e+00,1.644185103076599598e+09,0.000000000000000000e+00,-7.766950602410467308e-01,0.000000000000000000e+00,-7.766950602410467308e-01
2.500000000000000000e+00,1.644185103094692230e+09,0.000000000000000000e+00,-8.291776907353055615e-01,0.000000000000000000e+00,-8.291776907353055615e-01
2.516666666666666607e+00,1.644185103113057137e+09,0.000000000000000000e+00,-7.635744026174818844e-01,0.000000000000000000e+00,-7.635744026174818844e-01
2.533333333333333215e+00,1.644185103128750086e+09,0.000000000000000000e+00,-7.952040179436498102e-01,0.000000000000000000e+00,-7.952040179436498102e-01
2.549999999999999822e+00,1.644185103146084309e+09,0.000000000000000000e+00,-8.345659908143446826e-01,0.000000000000000000e+00,-8.345659908143446826e-01
2.566666666666666430e+00,1.644185103163699627e+09,0.000000000000000000e+00,-8.320818963192433415e-01,0.000000000000000000e+00,-8.320818963192433415e-01
2.583333333333333481e+00,1.644185103179866314e+09,0.000000000000000000e+00,-3.757830422159390005e-01,0.000000000000000000e+00,-3.757830422159390005e-01
2.600000000000000089e+00,1.644185103198134899e+09,0.000000000000000000e+00,-8.298778758833686986e-01,0.000000000000000000e+00,-8.298778758833686986e-01
2.616666666666666696e+00,1.644185103216302872e+09,0.000000000000000000e+00,-3.998203370271932733e-01,0.000000000000000000e+00,-3.998203370271932733e-01
2.633333333333333304e+00,1.644185103233362675e+09,0.000000000000000000e+00,-4.158452002346960663e-01,0.000000000000000000e+00,-4.158452002346960663e-01
2.649999999999999911e+00,1.644185103249463797e+09,0.000000000000000000e+00,-4.398824950459500061e-01,0.000000000000000000e+00,-4.398824950459500061e-01
2.666666666666666519e+00,1.644185103265869856e+09,0.000000000000000000e+00,-4.719322214609555366e-01,0.000000000000000000e+00,-4.719322214609555366e-01
2.683333333333333126e+00,1.644185103283855677e+09,0.000000000000000000e+00,-5.039819478759610671e-01,0.000000000000000000e+00,-5.039819478759610671e-01
2.700000000000000178e+00,1.644185103299805164e+09,0.000000000000000000e+00,-1.011119560156098940e+00,0.000000000000000000e+00,-1.011119560156098940e+00
2.716666666666666785e+00,1.644185103318730831e+09,0.000000000000000000e+00,-1.051461792234081427e+00,0.000000000000000000e+00,-1.051461792234081427e+00
2.733333333333333393e+00,1.644185103335887671e+09,0.000000000000000000e+00,-1.210029979953758605e+00,0.000000000000000000e+00,-1.210029979953758605e+00
2.750000000000000000e+00,1.644185103351094961e+09,0.000000000000000000e+00,-1.224130896784610734e+00,0.000000000000000000e+00,-1.224130896784610734e+00
2.766666666666666607e+00,1.644185103369902611e+09,0.000000000000000000e+00,-1.409220473810643082e+00,0.000000000000000000e+00,-1.409220473810643082e+00
2.783333333333333215e+00,1.644185103387348413e+09,0.000000000000000000e+00,-1.541547346283190345e+00,0.000000000000000000e+00,-1.541547346283190345e+00
2.799999999999999822e+00,1.644185103404432535e+09,0.000000000000000000e+00,-1.529406947866913447e+00,0.000000000000000000e+00,-1.529406947866913447e+00
2.816666666666666430e+00,1.644185103422478914e+09,0.000000000000000000e+00,-1.530387207074200839e+00,0.000000000000000000e+00,-1.530387207074200839e+00
2.833333333333333481e+00,1.644185103438787699e+09,0.000000000000000000e+00,-1.594486659904211789e+00,0.000000000000000000e+00,-1.594486659904211789e+00
2.850000000000000089e+00,1.644185103455747604e+09,0.000000000000000000e+00,-1.611071671230164482e+00,0.000000000000000000e+00,-1.611071671230164482e+00
2.866666666666666696e+00,1.644185103474030972e+09,0.000000000000000000e+00,-1.646445714317945397e+00,0.000000000000000000e+00,-1.646445714317945397e+00
2.883333333333333304e+00,1.644185103490982771e+09,0.000000000000000000e+00,-1.689272040891027782e+00,0.000000000000000000e+00,-1.689272040891027782e+00
2.899999999999999911e+00,1.644185103506942272e+09,0.000000000000000000e+00,-1.257150518628589619e+00,0.000000000000000000e+00,-1.257150518628589619e+00
2.916666666666666519e+00,1.644185103523686171e+09,0.000000000000000000e+00,-1.297212676647346630e+00,0.000000000000000000e+00,-1.297212676647346630e+00
2.933333333333333126e+00,1.644185103542623520e+09,0.000000000000000000e+00,-1.345287266269854953e+00,0.000000000000000000e+00,-1.345287266269854953e+00
2.950000000000000178e+00,1.644185103559578419e+09,0.000000000000000000e+00,-1.393361855892362833e+00,0.000000000000000000e+00,-1.393361855892362833e+00
2.966666666666666785e+00,1.644185103575537443e+09,0.000000000000000000e+00,-1.425411582307368308e+00,0.000000000000000000e+00,-1.425411582307368308e+00
2.983333333333333393e+00,1.644185103594486475e+09,0.000000000000000000e+00,-1.457461308722373783e+00,0.000000000000000000e+00,-1.457461308722373783e+00
3.000000000000000000e+00,1.644185103613435984e+09,0.000000000000000000e+00,-1.497523466741130793e+00,0.000000000000000000e+00,-1.497523466741130793e+00
3.016666666666666607e+00,1.644185103628396749e+09,0.000000000000000000e+00,-1.521560761552384733e+00,0.000000000000000000e+00,-1.521560761552384733e+00
3.033333333333333215e+00,1.644185103645350933e+09,0.000000000000000000e+00,-1.957426711576436329e+00,0.000000000000000000e+00,-1.957426711576436329e+00
3.049999999999999822e+00,1.644185103661307573e+09,0.000000000000000000e+00,-1.537585624759887803e+00,0.000000000000000000e+00,-1.537585624759887803e+00
3.066666666666666430e+00,1.644185103679295778e+09,0.000000000000000000e+00,-1.545598056363639117e+00,0.000000000000000000e+00,-1.545598056363639117e+00
3.083333333333333481e+00,1.644185103694219828e+09,0.000000000000000000e+00,-1.553610487967390208e+00,0.000000000000000000e+00,-1.553610487967390208e+00
3.100000000000000089e+00,1.644185103715187311e+09,0.000000000000000000e+00,-1.553610487967390208e+00,0.000000000000000000e+00,-1.553610487967390208e+00
3.116666666666666696e+00,1.644185103728127718e+09,0.000000000000000000e+00,-1.545598056363639117e+00,0.000000000000000000e+00,-1.545598056363639117e+00
3.133333333333333304e+00,1.644185103746081114e+09,0.000000000000000000e+00,-1.545598056363639117e+00,0.000000000000000000e+00,-1.545598056363639117e+00
3.149999999999999911e+00,1.644185103763036013e+09,0.000000000000000000e+00,-1.545598056363639117e+00,0.000000000000000000e+00,-1.545598056363639117e+00
3.166666666666666519e+00,1.644185103781986952e+09,0.000000000000000000e+00,-1.545598056363639117e+00,0.000000000000000000e+00,-1.545598056363639117e+00
3.183333333333333126e+00,1.644185103800934315e+09,0.000000000000000000e+00,-1.545598056363639117e+00,0.000000000000000000e+00,-1.545598056363639117e+00
3.200000000000000178e+00,1.644185103814897299e+09,0.000000000000000000e+00,-1.545598056363639117e+00,0.000000000000000000e+00,-1.545598056363639117e+00
3.216666666666666785e+00,1.644185103833904982e+09,0.000000000000000000e+00,-1.545598056363639117e+00,0.000000000000000000e+00,-1.545598056363639117e+00
3.233333333333333393e+00,1.644185103850858212e+09,0.000000000000000000e+00,-1.545598056363639117e+00,0.000000000000000000e+00,-1.545598056363639117e+00
3.250000000000000000e+00,1.644185103868785143e+09,0.000000000000000000e+00,-1.545598056363639117e+00,0.000000000000000000e+00,-1.545598056363639117e+00
3.266666666666666607e+00,1.644185103885751247e+09,0.000000000000000000e+00,-1.545598056363639117e+00,0.000000000000000000e+00,-1.545598056363639117e+00
3.283333333333333215e+00,1.644185103902704716e+09,0.000000000000000000e+00,-1.553610487967390208e+00,0.000000000000000000e+00,-1.553610487967390208e+00
3.299999999999999822e+00,1.644185103922651768e+09,0.000000000000000000e+00,-1.553610487967390208e+00,0.000000000000000000e+00,-1.553610487967390208e+00
3.316666666666666430e+00,1.644185103937644958e+09,0.000000000000000000e+00,-2.023170036723872744e+00,0.000000000000000000e+00,-2.023170036723872744e+00
3.333333333333333481e+00,1.644185103955589294e+09,0.000000000000000000e+00,-2.049411351971001771e+00,0.000000000000000000e+00,-2.049411351971001771e+00
3.350000000000000089e+00,1.644185103973514318e+09,0.000000000000000000e+00,-2.133383560761816344e+00,0.000000000000000000e+00,-2.133383560761816344e+00
3.366666666666666696e+00,1.644185103988475323e+09,0.000000000000000000e+00,-2.094021587891122582e+00,0.000000000000000000e+00,-2.094021587891122582e+00
3.383333333333333304e+00,1.644185104006425858e+09,0.000000000000000000e+00,-2.075652667218131686e+00,0.000000000000000000e+00,-2.075652667218131686e+00
3.399999999999999911e+00,1.644185104024378777e+09,0.000000000000000000e+00,-2.049551389000614066e+00,0.000000000000000000e+00,-2.049551389000614066e+00
3.416666666666666519e+00,1.644185104041523695e+09,0.000000000000000000e+00,-1.978699837833364894e+00,0.000000000000000000e+00,-1.978699837833364894e+00
3.433333333333333126e+00,1.644185104056749582e+09,0.000000000000000000e+00,-1.545598056363639117e+00,0.000000000000000000e+00,-1.545598056363639117e+00
3.449999999999999734e+00,1.644185104072664499e+09,0.000000000000000000e+00,-1.553610487967390208e+00,0.000000000000000000e+00,-1.553610487967390208e+00
3.466666666666666785e+00,1.644185104088137388e+09,0.000000000000000000e+00,-1.545598056363639117e+00,0.000000000000000000e+00,-1.545598056363639117e+00
3.483333333333333393e+00,1.644185104106087208e+09,0.000000000000000000e+00,-1.545598056363639117e+00,0.000000000000000000e+00,-1.545598056363639117e+00
3.500000000000000000e+00,1.644185104121048689e+09,0.000000000000000000e+00,-1.537585624759887803e+00,0.000000000000000000e+00,-1.537585624759887803e+00
3.516666666666666607e+00,1.644185104139395952e+09,0.000000000000000000e+00,-1.537585624759887803e+00,0.000000000000000000e+00,-1.537585624759887803e+00
3.533333333333333215e+00,1.644185104154352903e+09,0.000000000000000000e+00,-1.545598056363639117e+00,0.000000000000000000e+00,-1.545598056363639117e+00
3.549999999999999822e+00,1.644185104173275232e+09,0.000000000000000000e+00,-1.553610487967390208e+00,0.000000000000000000e+00,-1.553610487967390208e+00
3.566666666666666430e+00,1.644185104191226721e+09,0.000000000000000000e+00,-1.545598056363639117e+00,0.000000000000000000e+00,-1.545598056363639117e+00
3.583333333333333481e+00,1.644185104209179163e+09,0.000000000000000000e+00,-1.545598056363639117e+00,0.000000000000000000e+00,-1.545598056363639117e+00
3.600000000000000089e+00,1.644185104225178242e+09,0.000000000000000000e+00,-1.545598056363639117e+00,0.000000000000000000e+00,-1.545598056363639117e+00
3.616666666666666696e+00,1.644185104241615772e+09,0.000000000000000000e+00,-1.545598056363639117e+00,0.000000000000000000e+00,-1.545598056363639117e+00
3.633333333333333304e+00,1.644185104258104324e+09,0.000000000000000000e+00,-1.545598056363639117e+00,0.000000000000000000e+00,-1.545598056363639117e+00
3.649999999999999911e+00,1.644185104277139902e+09,0.000000000000000000e+00,-1.553610487967390208e+00,0.000000000000000000e+00,-1.553610487967390208e+00
3.666666666666666519e+00,1.644185104294532537e+09,0.000000000000000000e+00,-1.545598056363639117e+00,0.000000000000000000e+00,-1.545598056363639117e+00
3.683333333333333126e+00,1.644185104311487675e+09,0.000000000000000000e+00,-1.553610487967390208e+00,0.000000000000000000e+00,-1.553610487967390208e+00
3.699999999999999734e+00,1.644185104327477694e+09,0.000000000000000000e+00,-1.545598056363639117e+00,0.000000000000000000e+00,-1.545598056363639117e+00
3.716666666666666785e+00,1.644185104344842434e+09,0.000000000000000000e+00,-1.553610487967390208e+00,0.000000000000000000e+00,-1.553610487967390208e+00
3.733333333333333393e+00,1.644185104363322496e+09,0.000000000000000000e+00,-1.545598056363639117e+00,0.000000000000000000e+00,-1.545598056363639117e+00
3.750000000000000000e+00,1.644185104380283594e+09,0.000000000000000000e+00,-1.545598056363639117e+00,0.000000000000000000e+00,-1.545598056363639117e+00
3.766666666666666607e+00,1.644185104399227142e+09,0.000000000000000000e+00,-1.545598056363639117e+00,0.000000000000000000e+00,-1.545598056363639117e+00
3.783333333333333215e+00,1.644185104414207697e+09,0.000000000000000000e+00,-1.545598056363639117e+00,0.000000000000000000e+00,-1.545598056363639117e+00
3.799999999999999822e+00,1.644185104431135178e+09,0.000000000000000000e+00,-1.545598056363639117e+00,0.000000000000000000e+00,-1.545598056363639117e+00
3.816666666666666430e+00,1.644185104449107647e+09,0.000000000000000000e+00,-1.537585624759887803e+00,0.000000000000000000e+00,-1.537585624759887803e+00
3.833333333333333481e+00,1.644185104465109110e+09,0.000000000000000000e+00,-1.545598056363639117e+00,0.000000000000000000e+00,-1.545598056363639117e+00
3.850000000000000089e+00,1.644185104482223034e+09,0.000000000000000000e+00,-1.537585624759887803e+00,0.000000000000000000e+00,-1.537585624759887803e+00
3.866666666666666696e+00,1.644185104499336243e+09,0.000000000000000000e+00,-1.545598056363639117e+00,0.000000000000000000e+00,-1.545598056363639117e+00
3.883333333333333304e+00,1.644185104516291618e+09,0.000000000000000000e+00,-1.545598056363639117e+00,0.000000000000000000e+00,-1.545598056363639117e+00
3.899999999999999911e+00,1.644185104532666922e+09,0.000000000000000000e+00,-1.545598056363639117e+00,0.000000000000000000e+00,-1.545598056363639117e+00
3.916666666666666519e+00,1.644185104552299500e+09,0.000000000000000000e+00,-1.545598056363639117e+00,0.000000000000000000e+00,-1.545598056363639117e+00
3.933333333333333126e+00,1.644185104567283869e+09,0.000000000000000000e+00,-1.545598056363639117e+00,0.000000000000000000e+00,-1.545598056363639117e+00
3.949999999999999734e+00,1.644185104585578442e+09,0.000000000000000000e+00,-1.537585624759887803e+00,0.000000000000000000e+00,-1.537585624759887803e+00
3.966666666666666785e+00,1.644185104603827715e+09,0.000000000000000000e+00,-1.545598056363639117e+00,0.000000000000000000e+00,-1.545598056363639117e+00
3.983333333333333393e+00,1.644185104620757103e+09,0.000000000000000000e+00,-1.545598056363639117e+00,0.000000000000000000e+00,-1.545598056363639117e+00
4.000000000000000000e+00,1.644185104638879061e+09,0.000000000000000000e+00,-1.537585624759887803e+00,0.000000000000000000e+00,-1.537585624759887803e+00
4.016666666666666607e+00,1.644185104655826092e+09,0.000000000000000000e+00,-1.529573193156136268e+00,0.000000000000000000e+00,-1.529573193156136268e+00
4.033333333333333215e+00,1.644185104671783209e+09,0.000000000000000000e+00,-1.529573193156136268e+00,0.000000000000000000e+00,-1.529573193156136268e+00
4.049999999999999822e+00,1.644185104688739061e+09,0.000000000000000000e+00,-1.529573193156136268e+00,0.000000000000000000e+00,-1.529573193156136268e+00
4.066666666666666430e+00,1.644185104703725100e+09,0.000000000000000000e+00,-1.529573193156136268e+00,0.000000000000000000e+00,-1.529573193156136268e+00
4.083333333333333037e+00,1.644185104721670389e+09,0.000000000000000000e+00,-1.529573193156136268e+00,0.000000000000000000e+00,-1.529573193156136268e+00
4.099999999999999645e+00,1.644185104737627506e+09,0.000000000000000000e+00,-1.521560761552384733e+00,0.000000000000000000e+00,-1.521560761552384733e+00
4.116666666666666252e+00,1.644185104754959106e+09,0.000000000000000000e+00,-1.529573193156136268e+00,0.000000000000000000e+00,-1.529573193156136268e+00
4.133333333333332860e+00,1.644185104773171186e+09,0.000000000000000000e+00,-1.529573193156136268e+00,0.000000000000000000e+00,-1.529573193156136268e+00
4.150000000000000355e+00,1.644185104789402246e+09,0.000000000000000000e+00,-1.521560761552384733e+00,0.000000000000000000e+00,-1.521560761552384733e+00
4.166666666666666963e+00,1.644185104804973364e+09,0.000000000000000000e+00,-1.529573193156136268e+00,0.000000000000000000e+00,-1.529573193156136268e+00
4.183333333333333570e+00,1.644185104821951866e+09,0.000000000000000000e+00,-1.521560761552384733e+00,0.000000000000000000e+00,-1.521560761552384733e+00
4.200000000000000178e+00,1.644185104840153217e+09,0.000000000000000000e+00,-1.513548329948633642e+00,0.000000000000000000e+00,-1.513548329948633642e+00
4.216666666666666785e+00,1.644185104858316183e+09,0.000000000000000000e+00,-1.920268759141617432e+00,0.000000000000000000e+00,-1.920268759141617432e+00
4.233333333333333393e+00,1.644185104875296116e+09,0.000000000000000000e+00,-1.505535898344882328e+00,0.000000000000000000e+00,-1.505535898344882328e+00
4.250000000000000000e+00,1.644185104890365839e+09,0.000000000000000000e+00,-1.505535898344882328e+00,0.000000000000000000e+00,-1.505535898344882328e+00
4.266666666666666607e+00,1.644185104908573151e+09,0.000000000000000000e+00,-1.505535898344882328e+00,0.000000000000000000e+00,-1.505535898344882328e+00
4.283333333333333215e+00,1.644185104924530268e+09,0.000000000000000000e+00,-1.505535898344882328e+00,0.000000000000000000e+00,-1.505535898344882328e+00
4.299999999999999822e+00,1.644185104941631556e+09,0.000000000000000000e+00,-1.505535898344882328e+00,0.000000000000000000e+00,-1.505535898344882328e+00
4.316666666666666430e+00,1.644185104958867311e+09,0.000000000000000000e+00,-1.505535898344882328e+00,0.000000000000000000e+00,-1.505535898344882328e+00
4.333333333333333037e+00,1.644185104975880384e+09,0.000000000000000000e+00,-1.505535898344882328e+00,0.000000000000000000e+00,-1.505535898344882328e+00
4.349999999999999645e+00,1.644185104993829966e+09,0.000000000000000000e+00,-1.505535898344882328e+00,0.000000000000000000e+00,-1.505535898344882328e+00
4.366666666666666252e+00,1.644185105009763479e+09,0.000000000000000000e+00,-1.505535898344882328e+00,0.000000000000000000e+00,-1.505535898344882328e+00
4.383333333333332860e+00,1.644185105027740240e+09,0.000000000000000000e+00,-1.505535898344882328e+00,0.000000000000000000e+00,-1.505535898344882328e+00
4.400000000000000355e+00,1.644185105043930292e+09,0.000000000000000000e+00,-1.505535898344882328e+00,0.000000000000000000e+00,-1.505535898344882328e+00
4.416666666666666963e+00,1.644185105058890581e+09,0.000000000000000000e+00,-1.505535898344882328e+00,0.000000000000000000e+00,-1.505535898344882328e+00
4.433333333333333570e+00,1.644185105076396942e+09,0.000000000000000000e+00,-1.505535898344882328e+00,0.000000000000000000e+00,-1.505535898344882328e+00
4.450000000000000178e+00,1.644185105095913887e+09,0.000000000000000000e+00,-1.505535898344882328e+00,0.000000000000000000e+00,-1.505535898344882328e+00
4.466666666666666785e+00,1.644185105113263607e+09,0.000000000000000000e+00,-1.505535898344882328e+00,0.000000000000000000e+00,-1.505535898344882328e+00
4.483333333333333393e+00,1.644185105129307747e+09,0.000000000000000000e+00,-1.505535898344882328e+00,0.000000000000000000e+00,-1.505535898344882328e+00
4.500000000000000000e+00,1.644185105145256281e+09,0.000000000000000000e+00,-1.505535898344882328e+00,0.000000000000000000e+00,-1.505535898344882328e+00
4.516666666666666607e+00,1.644185105161341429e+09,0.000000000000000000e+00,-1.505535898344882328e+00,0.000000000000000000e+00,-1.505535898344882328e+00
4.533333333333333215e+00,1.644185105178891897e+09,0.000000000000000000e+00,-1.505535898344882328e+00,0.000000000000000000e+00,-1.505535898344882328e+00
4.549999999999999822e+00,1.644185105196903944e+09,0.000000000000000000e+00,-1.505535898344882328e+00,0.000000000000000000e+00,-1.505535898344882328e+00
4.566666666666666430e+00,1.644185105212850332e+09,0.000000000000000000e+00,-1.505535898344882328e+00,0.000000000000000000e+00,-1.505535898344882328e+00
4.583333333333333037e+00,1.644185105232098103e+09,0.000000000000000000e+00,-1.505535898344882328e+00,0.000000000000000000e+00,-1.505535898344882328e+00
4.599999999999999645e+00,1.644185105248048782e+09,0.000000000000000000e+00,-1.505535898344882328e+00,0.000000000000000000e+00,-1.505535898344882328e+00
4.616666666666666252e+00,1.644185105264005661e+09,0.000000000000000000e+00,-1.505535898344882328e+00,0.000000000000000000e+00,-1.505535898344882328e+00
4.633333333333332860e+00,1.644185105281409979e+09,0.000000000000000000e+00,-1.505535898344882328e+00,0.000000000000000000e+00,-1.505535898344882328e+00
4.650000000000000355e+00,1.644185105299697399e+09,0.000000000000000000e+00,-1.513548329948633642e+00,0.000000000000000000e+00,-1.513548329948633642e+00
4.666666666666666963e+00,1.644185105314019442e+09,0.000000000000000000e+00,-1.975235484130976937e+00,0.000000000000000000e+00,-1.975235484130976937e+00
4.683333333333333570e+00,1.644185105331969261e+09,0.000000000000000000e+00,-1.996228536328680248e+00,0.000000000000000000e+00,-1.996228536328680248e+00
4.700000000000000178e+00,1.644185105348926783e+09,0.000000000000000000e+00,-2.046087035298226553e+00,0.000000000000000000e+00,-2.046087035298226553e+00
4.716666666666666785e+00,1.644185105366875410e+09,0.000000000000000000e+00,-2.009349193952245205e+00,0.000000000000000000e+00,-2.009349193952245205e+00
4.733333333333333393e+00,1.644185105383830309e+09,0.000000000000000000e+00,-1.505535898344882328e+00,0.000000000000000000e+00,-1.505535898344882328e+00
4.750000000000000000e+00,1.644185105399399996e+09,0.000000000000000000e+00,-1.505535898344882328e+00,0.000000000000000000e+00,-1.505535898344882328e+00
4.766666666666666607e+00,1.644185105415972948e+09,0.000000000000000000e+00,-1.505535898344882328e+00,0.000000000000000000e+00,-1.505535898344882328e+00
4.783333333333333215e+00,1.644185105431957483e+09,0.000000000000000000e+00,-1.505535898344882328e+00,0.000000000000000000e+00,-1.505535898344882328e+00
4.799999999999999822e+00,1.644185105450169563e+09,0.000000000000000000e+00,-1.505535898344882328e+00,0.000000000000000000e+00,-1.505535898344882328e+00
4.816666666666666430e+00,1.644185105471082211e+09,0.000000000000000000e+00,-1.505535898344882328e+00,0.000000000000000000e+00,-1.505535898344882328e+00
4.833333333333333037e+00,1.644185105486178875e+09,0.000000000000000000e+00,-1.988356141754542117e+00,0.000000000000000000e+00,-1.988356141754542117e+00
4.849999999999999645e+00,1.644185105501321077e+09,0.000000000000000000e+00,-1.941121774309708892e+00,0.000000000000000000e+00,-1.941121774309708892e+00
4.866666666666666252e+00,1.644185105520629168e+09,0.000000000000000000e+00,-2.059207692921791732e+00,0.000000000000000000e+00,-2.059207692921791732e+00
4.883333333333332860e+00,1.644185105536607265e+09,0.000000000000000000e+00,-2.101193797317198797e+00,0.000000000000000000e+00,-2.101193797317198797e+00
4.900000000000000355e+00,1.644185105554845333e+09,0.000000000000000000e+00,-2.038354677753700273e+00,0.000000000000000000e+00,-2.038354677753700273e+00
4.916666666666666963e+00,1.644185105570713520e+09,0.000000000000000000e+00,-2.174809517038773787e+00,0.000000000000000000e+00,-2.174809517038773787e+00
4.933333333333333570e+00,1.644185105587802410e+09,0.000000000000000000e+00,-2.195662532206864803e+00,0.000000000000000000e+00,-2.195662532206864803e+00
4.950000000000000178e+00,1.644185105605185986e+09,0.000000000000000000e+00,-2.198426700761190400e+00,0.000000000000000000e+00,-2.198426700761190400e+00
4.966666666666666785e+00,1.644185105620640993e+09,0.000000000000000000e+00,-2.051475335377264564e+00,0.000000000000000000e+00,-2.051475335377264564e+00
4.983333333333333393e+00,1.644185105638056040e+09,0.000000000000000000e+00,-2.017221588526384224e+00,0.000000000000000000e+00,-2.017221588526384224e+00
5.000000000000000000e+00,1.644185105656980991e+09,0.000000000000000000e+00,-1.505535898344882328e+00,0.000000000000000000e+00,-1.505535898344882328e+00
5.016666666666666607e+00,1.644185105673936605e+09,0.000000000000000000e+00,-1.505535898344882328e+00,0.000000000000000000e+00,-1.505535898344882328e+00
5.033333333333333215e+00,1.644185105689893723e+09,0.000000000000000000e+00,-1.941121774309708892e+00,0.000000000000000000e+00,-1.941121774309708892e+00
5.049999999999999822e+00,1.644185105706414700e+09,0.000000000000000000e+00,-1.505535898344882328e+00,0.000000000000000000e+00,-1.505535898344882328e+00
5.066666666666666430e+00,1.644185105723397493e+09,0.000000000000000000e+00,-1.513548329948633642e+00,0.000000000000000000e+00,-1.513548329948633642e+00
5.083333333333333037e+00,1.644185105739355564e+09,0.000000000000000000e+00,-1.505535898344882328e+00,0.000000000000000000e+00,-1.505535898344882328e+00
5.099999999999999645e+00,1.644185105757331610e+09,0.000000000000000000e+00,-2.014597457001670922e+00,0.000000000000000000e+00,-2.014597457001670922e+00
5.116666666666666252e+00,1.644185105774282455e+09,0.000000000000000000e+00,-2.053959429872365572e+00,0.000000000000000000e+00,-2.053959429872365572e+00
5.133333333333332860e+00,1.644185105792188168e+09,0.000000000000000000e+00,-2.004100930902819488e+00,0.000000000000000000e+00,-2.004100930902819488e+00
5.150000000000000355e+00,1.644185105809016228e+09,0.000000000000000000e+00,-2.140695807217504854e+00,0.000000000000000000e+00,-2.140695807217504854e+00
5.166666666666666963e+00,1.644185105826212168e+09,0.000000000000000000e+00,-2.116938586465475947e+00,0.000000000000000000e+00,-2.116938586465475947e+00
5.183333333333333570e+00,1.644185105843167782e+09,0.000000000000000000e+00,-2.043462903773513251e+00,0.000000000000000000e+00,-2.043462903773513251e+00
5.200000000000000178e+00,1.644185105860145569e+09,0.000000000000000000e+00,-1.954382468962885699e+00,0.000000000000000000e+00,-1.954382468962885699e+00
5.216666666666666785e+00,1.644185105876668930e+09,0.000000000000000000e+00,-1.513548329948633642e+00,0.000000000000000000e+00,-1.513548329948633642e+00
5.233333333333333393e+00,1.644185105895952463e+09,0.000000000000000000e+00,-1.505535898344882328e+00,0.000000000000000000e+00,-1.505535898344882328e+00
5.250000000000000000e+00,1.644185105911911488e+09,0.000000000000000000e+00,-1.505535898344882328e+00,0.000000000000000000e+00,-1.505535898344882328e+00
5.266666666666666607e+00,1.644185105927489042e+09,0.000000000000000000e+00,-1.505535898344882328e+00,0.000000000000000000e+00,-1.505535898344882328e+00
5.283333333333333215e+00,1.644185105945765734e+09,0.000000000000000000e+00,-1.505535898344882328e+00,0.000000000000000000e+00,-1.505535898344882328e+00
5.299999999999999822e+00,1.644185105963030100e+09,0.000000000000000000e+00,-1.505535898344882328e+00,0.000000000000000000e+00,-1.505535898344882328e+00
5.316666666666666430e+00,1.644185105981090784e+09,0.000000000000000000e+00,-1.920268759141617432e+00,0.000000000000000000e+00,-1.920268759141617432e+00
5.333333333333333037e+00,1.644185105997412205e+09,0.000000000000000000e+00,-1.505535898344882328e+00,0.000000000000000000e+00,-1.505535898344882328e+00
5.349999999999999645e+00,1.644185106013343096e+09,0.000000000000000000e+00,-1.505535898344882328e+00,0.000000000000000000e+00,-1.505535898344882328e+00
5.366666666666666252e+00,1.644185106031181097e+09,0.000000000000000000e+00,-1.505535898344882328e+00,0.000000000000000000e+00,-1.505535898344882328e+00
5.383333333333332860e+00,1.644185106048223019e+09,0.000000000000000000e+00,-1.988356141754542117e+00,0.000000000000000000e+00,-1.988356141754542117e+00
5.400000000000000355e+00,1.644185106065513372e+09,0.000000000000000000e+00,-1.964738958032125504e+00,0.000000000000000000e+00,-1.964738958032125504e+00
5.416666666666666963e+00,1.644185106082449913e+09,0.000000000000000000e+00,-1.505535898344882328e+00,0.000000000000000000e+00,-1.505535898344882328e+00
5.433333333333333570e+00,1.644185106100396395e+09,0.000000000000000000e+00,-1.513548329948633642e+00,0.000000000000000000e+00,-1.513548329948633642e+00
5.450000000000000178e+00,1.644185106117372513e+09,0.000000000000000000e+00,-1.513548329948633642e+00,0.000000000000000000e+00,-1.513548329948633642e+00
5.466666666666666785e+00,1.644185106132666826e+09,0.000000000000000000e+00,-1.505535898344882328e+00,0.000000000000000000e+00,-1.505535898344882328e+00
5.483333333333333393e+00,1.644185106150380373e+09,0.000000000000000000e+00,-1.513548329948633642e+00,0.000000000000000000e+00,-1.513548329948633642e+00
5.500000000000000000e+00,1.644185106166896582e+09,0.000000000000000000e+00,-1.505535898344882328e+00,0.000000000000000000e+00,-1.505535898344882328e+00
5.516666666666666607e+00,1.644185106184361219e+09,0.000000000000000000e+00,-1.513548329948633642e+00,0.000000000000000000e+00,-1.513548329948633642e+00
5.533333333333333215e+00,1.644185106202694416e+09,0.000000000000000000e+00,-1.505535898344882328e+00,0.000000000000000000e+00,-1.505535898344882328e+00
5.549999999999999822e+00,1.644185106218616962e+09,0.000000000000000000e+00,-1.941121774309708892e+00,0.000000000000000000e+00,-1.941121774309708892e+00
5.566666666666666430e+00,1.644185106235944033e+09,0.000000000000000000e+00,-2.001476799378106186e+00,0.000000000000000000e+00,-2.001476799378106186e+00
5.583333333333333037e+00,1.644185106254153252e+09,0.000000000000000000e+00,-2.038214640724087534e+00,0.000000000000000000e+00,-2.038214640724087534e+00
5.599999999999999645e+00,1.644185106271168947e+09,0.000000000000000000e+00,-2.061831824446503703e+00,0.000000000000000000e+00,-2.061831824446503703e+00
5.616666666666666252e+00,1.644185106287313700e+09,0.000000000000000000e+00,-2.156300559336170153e+00,0.000000000000000000e+00,-2.156300559336170153e+00
5.633333333333332860e+00,1.644185106305406570e+09,0.000000000000000000e+00,-2.224527978978707132e+00,0.000000000000000000e+00,-2.224527978978707132e+00
5.650000000000000355e+00,1.644185106320954561e+09,0.000000000000000000e+00,-2.277150646502578812e+00,0.000000000000000000e+00,-2.277150646502578812e+00
5.666666666666666963e+00,1.644185106337132454e+09,0.000000000000000000e+00,-2.159064727890495305e+00,0.000000000000000000e+00,-2.159064727890495305e+00
5.683333333333333570e+00,1.644185106355075359e+09,0.000000000000000000e+00,-2.048711166822940299e+00,0.000000000000000000e+00,-2.048711166822940299e+00
5.700000000000000178e+00,1.644185106372082233e+09,0.000000000000000000e+00,-2.072328350545356468e+00,0.000000000000000000e+00,-2.072328350545356468e+00
5.716666666666666785e+00,1.644185106390023470e+09,0.000000000000000000e+00,-2.203534926781003822e+00,0.000000000000000000e+00,-2.203534926781003822e+00
5.733333333333333393e+00,1.644185106405979872e+09,0.000000000000000000e+00,-2.206159058305716236e+00,0.000000000000000000e+00,-2.206159058305716236e+00
5.750000000000000000e+00,1.644185106423373222e+09,0.000000000000000000e+00,-2.148568201791643872e+00,0.000000000000000000e+00,-2.148568201791643872e+00
5.766666666666666607e+00,1.644185106441076040e+09,0.000000000000000000e+00,-2.127435112564327380e+00,0.000000000000000000e+00,-2.127435112564327380e+00
5.783333333333333215e+00,1.644185106456296921e+09,0.000000000000000000e+00,-2.256017557275262764e+00,0.000000000000000000e+00,-2.256017557275262764e+00
5.799999999999999822e+00,1.644185106474581480e+09,0.000000000000000000e+00,-2.290131267096530809e+00,0.000000000000000000e+00,-2.290131267096530809e+00
5.816666666666666430e+00,1.644185106491527081e+09,0.000000000000000000e+00,-2.258641688799975178e+00,0.000000000000000000e+00,-2.258641688799975178e+00
5.833333333333333037e+00,1.644185106508684397e+09,0.000000000000000000e+00,-2.245521031176410887e+00,0.000000000000000000e+00,-2.245521031176410887e+00
5.849999999999999645e+00,1.644185106525288582e+09,0.000000000000000000e+00,-2.363606949788493505e+00,0.000000000000000000e+00,-2.363606949788493505e+00
5.866666666666666252e+00,1.644185106543171883e+09,0.000000000000000000e+00,-2.387364170540522412e+00,0.000000000000000000e+00,-2.387364170540522412e+00
5.883333333333332860e+00,1.644185106559290886e+09,0.000000000000000000e+00,-2.316372582343660724e+00,0.000000000000000000e+00,-2.316372582343660724e+00
5.900000000000000355e+00,1.644185106575248003e+09,0.000000000000000000e+00,-2.109066191891336928e+00,0.000000000000000000e+00,-2.109066191891336928e+00
5.916666666666666963e+00,1.644185106591667175e+09,0.000000000000000000e+00,-2.059347729951404027e+00,0.000000000000000000e+00,-2.059347729951404027e+00
5.933333333333333570e+00,1.644185106609180212e+09,0.000000000000000000e+00,-2.009489230981857055e+00,0.000000000000000000e+00,-2.009489230981857055e+00
5.950000000000000178e+00,1.644185106627192736e+09,0.000000000000000000e+00,-1.983107878705116178e+00,0.000000000000000000e+00,-1.983107878705116178e+00
5.966666666666666785e+00,1.644185106646233082e+09,0.000000000000000000e+00,-1.930625248210856792e+00,0.000000000000000000e+00,-1.930625248210856792e+00
5.983333333333333393e+00,1.644185106660442829e+09,0.000000000000000000e+00,-1.505535898344882328e+00,0.000000000000000000e+00,-1.505535898344882328e+00
6.000000000000000000e+00,1.644185106680384398e+09,0.000000000000000000e+00,-1.922752853636717552e+00,0.000000000000000000e+00,-1.922752853636717552e+00
6.016666666666666607e+00,1.644185106695342302e+09,0.000000000000000000e+00,-1.948994168883847022e+00,0.000000000000000000e+00,-1.948994168883847022e+00
6.033333333333333215e+00,1.644185106713467360e+09,0.000000000000000000e+00,-1.920128722112004915e+00,0.000000000000000000e+00,-1.920128722112004915e+00
6.049999999999999822e+00,1.644185106730514288e+09,0.000000000000000000e+00,-1.505535898344882328e+00,0.000000000000000000e+00,-1.505535898344882328e+00
6.066666666666666430e+00,1.644185106746929646e+09,0.000000000000000000e+00,-1.505535898344882328e+00,0.000000000000000000e+00,-1.505535898344882328e+00
6.083333333333333037e+00,1.644185106762906313e+09,0.000000000000000000e+00,-1.920128722112004915e+00,0.000000000000000000e+00,-1.920128722112004915e+00
6.099999999999999645e+00,1.644185106779841661e+09,0.000000000000000000e+00,-1.972611352606263635e+00,0.000000000000000000e+00,-1.972611352606263635e+00
6.116666666666666252e+00,1.644185106796993256e+09,0.000000000000000000e+00,-1.938497642784995589e+00,0.000000000000000000e+00,-1.938497642784995589e+00
6.133333333333332860e+00,1.644185106813078642e+09,0.000000000000000000e+00,-1.996228536328680248e+00,0.000000000000000000e+00,-1.996228536328680248e+00
6.150000000000000355e+00,1.644185106831265211e+09,0.000000000000000000e+00,-2.027718114625236101e+00,0.000000000000000000e+00,-2.027718114625236101e+00
6.166666666666666963e+00,1.644185106849217415e+09,0.000000000000000000e+00,-2.090837308247959214e+00,0.000000000000000000e+00,-2.090837308247959214e+00
6.183333333333333570e+00,1.644185106866774321e+09,0.000000000000000000e+00,-2.096085571297385375e+00,0.000000000000000000e+00,-2.096085571297385375e+00
6.200000000000000178e+00,1.644185106882731915e+09,0.000000000000000000e+00,-2.119702755019801987e+00,0.000000000000000000e+00,-2.119702755019801987e+00
6.216666666666666785e+00,1.644185106899111986e+09,0.000000000000000000e+00,-2.056583561397077986e+00,0.000000000000000000e+00,-2.056583561397077986e+00
6.233333333333333393e+00,1.644185106916045427e+09,0.000000000000000000e+00,-2.122186849514901663e+00,0.000000000000000000e+00,-2.122186849514901663e+00
6.250000000000000000e+00,1.644185106933997154e+09,0.000000000000000000e+00,-2.124951018069227260e+00,0.000000000000000000e+00,-2.124951018069227260e+00
6.266666666666666607e+00,1.644185106950259209e+09,0.000000000000000000e+00,-2.185166006108013370e+00,0.000000000000000000e+00,-2.185166006108013370e+00
6.283333333333333215e+00,1.644185106967695713e+09,0.000000000000000000e+00,-2.211407321355141953e+00,0.000000000000000000e+00,-2.211407321355141953e+00
6.299999999999999822e+00,1.644185106984648705e+09,0.000000000000000000e+00,-2.229776242028132849e+00,0.000000000000000000e+00,-2.229776242028132849e+00
6.316666666666666430e+00,1.644185107000579596e+09,0.000000000000000000e+00,-2.235024505077558565e+00,0.000000000000000000e+00,-2.235024505077558565e+00
6.333333333333333037e+00,1.644185107017580986e+09,0.000000000000000000e+00,-2.172045348484448191e+00,0.000000000000000000e+00,-2.172045348484448191e+00
6.349999999999999645e+00,1.644185107035945415e+09,0.000000000000000000e+00,-2.038214640724087534e+00,0.000000000000000000e+00,-2.038214640724087534e+00
6.366666666666666252e+00,1.644185107054260015e+09,0.000000000000000000e+00,-1.972751389635876818e+00,0.000000000000000000e+00,-1.972751389635876818e+00
6.383333333333332860e+00,1.644185107069218159e+09,0.000000000000000000e+00,-1.925376985161430632e+00,0.000000000000000000e+00,-1.925376985161430632e+00
6.400000000000000355e+00,1.644185107088616133e+09,0.000000000000000000e+00,-1.935873511260282731e+00,0.000000000000000000e+00,-1.935873511260282731e+00
6.416666666666666963e+00,1.644185107105518341e+09,0.000000000000000000e+00,-1.505535898344882328e+00,0.000000000000000000e+00,-1.505535898344882328e+00
6.433333333333333570e+00,1.644185107121694088e+09,0.000000000000000000e+00,-1.505535898344882328e+00,0.000000000000000000e+00,-1.505535898344882328e+00
6.450000000000000178e+00,1.644185107137351513e+09,0.000000000000000000e+00,-1.505535898344882328e+00,0.000000000000000000e+00,-1.505535898344882328e+00
6.466666666666666785e+00,1.644185107155409336e+09,0.000000000000000000e+00,-1.505535898344882328e+00,0.000000000000000000e+00,-1.505535898344882328e+00
6.483333333333333393e+00,1.644185107171410084e+09,0.000000000000000000e+00,-1.505535898344882328e+00,0.000000000000000000e+00,-1.505535898344882328e+00
6.500000000000000000e+00,1.644185107187566519e+09,0.000000000000000000e+00,-1.505535898344882328e+00,0.000000000000000000e+00,-1.505535898344882328e+00
6.516666666666666607e+00,1.644185107204547882e+09,0.000000000000000000e+00,-1.505535898344882328e+00,0.000000000000000000e+00,-1.505535898344882328e+00
6.533333333333333215e+00,1.644185107221374273e+09,0.000000000000000000e+00,-1.505535898344882328e+00,0.000000000000000000e+00,-1.505535898344882328e+00
6.549999999999999822e+00,1.644185107239328861e+09,0.000000000000000000e+00,-1.505535898344882328e+00,0.000000000000000000e+00,-1.505535898344882328e+00
6.566666666666666430e+00,1.644185107255284309e+09,0.000000000000000000e+00,-1.505535898344882328e+00,0.000000000000000000e+00,-1.505535898344882328e+00
6.583333333333333037e+00,1.644185107273236275e+09,0.000000000000000000e+00,-1.505535898344882328e+00,0.000000000000000000e+00,-1.505535898344882328e+00
6.599999999999999645e+00,1.644185107289621115e+09,0.000000000000000000e+00,-1.505535898344882328e+00,0.000000000000000000e+00,-1.505535898344882328e+00
6.616666666666666252e+00,1.644185107306810856e+09,0.000000000000000000e+00,-1.914880459062578977e+00,0.000000000000000000e+00,-1.914880459062578977e+00
6.633333333333332860e+00,1.644185107322286129e+09,0.000000000000000000e+00,-1.914880459062578977e+00,0.000000000000000000e+00,-1.914880459062578977e+00
6.649999999999999467e+00,1.644185107340237856e+09,0.000000000000000000e+00,-1.505535898344882328e+00,0.000000000000000000e+00,-1.505535898344882328e+00
6.666666666666666963e+00,1.644185107357174397e+09,0.000000000000000000e+00,-1.505535898344882328e+00,0.000000000000000000e+00,-1.505535898344882328e+00
6.683333333333333570e+00,1.644185107374124765e+09,0.000000000000000000e+00,-1.505535898344882328e+00,0.000000000000000000e+00,-1.505535898344882328e+00
6.700000000000000178e+00,1.644185107390357256e+09,0.000000000000000000e+00,-1.505535898344882328e+00,0.000000000000000000e+00,-1.505535898344882328e+00
6.716666666666666785e+00,1.644185107408308268e+09,0.000000000000000000e+00,-1.505535898344882328e+00,0.000000000000000000e+00,-1.505535898344882328e+00
6.733333333333333393e+00,1.644185107426827669e+09,0.000000000000000000e+00,-1.505535898344882328e+00,0.000000000000000000e+00,-1.505535898344882328e+00
6.750000000000000000e+00,1.644185107442050219e+09,0.000000000000000000e+00,-1.505535898344882328e+00,0.000000000000000000e+00,-1.505535898344882328e+00
6.766666666666666607e+00,1.644185107460001707e+09,0.000000000000000000e+00,-1.505535898344882328e+00,0.000000000000000000e+00,-1.505535898344882328e+00
6.783333333333333215e+00,1.644185107476035118e+09,0.000000000000000000e+00,-1.922892890666330290e+00,0.000000000000000000e+00,-1.922892890666330290e+00
6.799999999999999822e+00,1.644185107494014263e+09,0.000000000000000000e+00,-1.505535898344882328e+00,0.000000000000000000e+00,-1.505535898344882328e+00
6.816666666666666430e+00,1.644185107510593891e+09,0.000000000000000000e+00,-1.505535898344882328e+00,0.000000000000000000e+00,-1.505535898344882328e+00
6.833333333333333037e+00,1.644185107530230999e+09,0.000000000000000000e+00,-1.972611352606263635e+00,0.000000000000000000e+00,-1.972611352606263635e+00
6.849999999999999645e+00,1.644185107546188593e+09,0.000000000000000000e+00,-1.951758337438172619e+00,0.000000000000000000e+00,-1.951758337438172619e+00
6.866666666666666252e+00,1.644185107562170982e+09,0.000000000000000000e+00,-1.972611352606263635e+00,0.000000000000000000e+00,-1.972611352606263635e+00
6.883333333333332860e+00,1.644185107582793951e+09,0.000000000000000000e+00,-1.988356141754542117e+00,0.000000000000000000e+00,-1.988356141754542117e+00
6.899999999999999467e+00,1.644185107598125935e+09,0.000000000000000000e+00,-1.505535898344882328e+00,0.000000000000000000e+00,-1.505535898344882328e+00
6.916666666666666963e+00,1.644185107615055799e+09,0.000000000000000000e+00,-1.972611352606263635e+00,0.000000000000000000e+00,-1.972611352606263635e+00
6.933333333333333570e+00,1.644185107632036686e+09,0.000000000000000000e+00,-2.032966377674661373e+00,0.000000000000000000e+00,-2.032966377674661373e+00
6.950000000000000178e+00,1.644185107647968054e+09,0.000000000000000000e+00,-2.054099466901977422e+00,0.000000000000000000e+00,-2.054099466901977422e+00
6.966666666666666785e+00,1.644185107665971279e+09,0.000000000000000000e+00,-1.962114826507412202e+00,0.000000000000000000e+00,-1.962114826507412202e+00
6.983333333333333393e+00,1.644185107684868813e+09,0.000000000000000000e+00,-2.085449008168920315e+00,0.000000000000000000e+00,-2.085449008168920315e+00
7.000000000000000000e+00,1.644185107701825857e+09,0.000000000000000000e+00,-2.009349193952245205e+00,0.000000000000000000e+00,-2.009349193952245205e+00
7.016666666666666607e+00,1.644185107717782974e+09,0.000000000000000000e+00,-2.009349193952245205e+00,0.000000000000000000e+00,-2.009349193952245205e+00
7.033333333333333215e+00,1.644185107734770060e+09,0.000000000000000000e+00,-2.072328350545356468e+00,0.000000000000000000e+00,-2.072328350545356468e+00
7.049999999999999822e+00,1.644185107750176907e+09,0.000000000000000000e+00,-1.505535898344882328e+00,0.000000000000000000e+00,-1.505535898344882328e+00
7.066666666666666430e+00,1.644185107769478798e+09,0.000000000000000000e+00,-2.011973325476958507e+00,0.000000000000000000e+00,-2.011973325476958507e+00
7.083333333333333037e+00,1.644185107786435604e+09,0.000000000000000000e+00,-2.004100930902819488e+00,0.000000000000000000e+00,-2.004100930902819488e+00
7.099999999999999645e+00,1.644185107802716255e+09,0.000000000000000000e+00,-1.975375521160589232e+00,0.000000000000000000e+00,-1.975375521160589232e+00
7.116666666666666252e+00,1.644185107820773840e+09,0.000000000000000000e+00,-1.505535898344882328e+00,0.000000000000000000e+00,-1.505535898344882328e+00
7.133333333333332860e+00,1.644185107837879181e+09,0.000000000000000000e+00,-1.505535898344882328e+00,0.000000000000000000e+00,-1.505535898344882328e+00
7.149999999999999467e+00,1.644185107853823900e+09,0.000000000000000000e+00,-1.505535898344882328e+00,0.000000000000000000e+00,-1.505535898344882328e+00
7.166666666666666963e+00,1.644185107871334076e+09,0.000000000000000000e+00,-1.505535898344882328e+00,0.000000000000000000e+00,-1.505535898344882328e+00
7.183333333333333570e+00,1.644185107889553547e+09,0.000000000000000000e+00,-1.513548329948633642e+00,0.000000000000000000e+00,-1.513548329948633642e+00
7.200000000000000178e+00,1.644185107905236483e+09,0.000000000000000000e+00,-1.505535898344882328e+00,0.000000000000000000e+00,-1.505535898344882328e+00
7.216666666666666785e+00,1.644185107922808409e+09,0.000000000000000000e+00,-1.513548329948633642e+00,0.000000000000000000e+00,-1.513548329948633642e+00
7.233333333333333393e+00,1.644185107938547611e+09,0.000000000000000000e+00,-1.505535898344882328e+00,0.000000000000000000e+00,-1.505535898344882328e+00
7.250000000000000000e+00,1.644185107956943512e+09,0.000000000000000000e+00,-1.513548329948633642e+00,0.000000000000000000e+00,-1.513548329948633642e+00
7.266666666666666607e+00,1.644185107973893404e+09,0.000000000000000000e+00,-1.505535898344882328e+00,0.000000000000000000e+00,-1.505535898344882328e+00
7.283333333333333215e+00,1.644185107990115643e+09,0.000000000000000000e+00,-1.505535898344882328e+00,0.000000000000000000e+00,-1.505535898344882328e+00
7.299999999999999822e+00,1.644185108009116888e+09,0.000000000000000000e+00,-1.513548329948633642e+00,0.000000000000000000e+00,-1.513548329948633642e+00
7.316666666666666430e+00,1.644185108025338173e+09,0.000000000000000000e+00,-1.505535898344882328e+00,0.000000000000000000e+00,-1.505535898344882328e+00
7.333333333333333037e+00,1.644185108042509556e+09,0.000000000000000000e+00,-1.505535898344882328e+00,0.000000000000000000e+00,-1.505535898344882328e+00
7.349999999999999645e+00,1.644185108058801174e+09,0.000000000000000000e+00,-1.505535898344882328e+00,0.000000000000000000e+00,-1.505535898344882328e+00
7.366666666666666252e+00,1.644185108077466011e+09,0.000000000000000000e+00,-1.505535898344882328e+00,0.000000000000000000e+00,-1.505535898344882328e+00
7.383333333333332860e+00,1.644185108095407724e+09,0.000000000000000000e+00,-1.505535898344882328e+00,0.000000000000000000e+00,-1.505535898344882328e+00
7.399999999999999467e+00,1.644185108111366034e+09,0.000000000000000000e+00,-1.505535898344882328e+00,0.000000000000000000e+00,-1.505535898344882328e+00
7.416666666666666963e+00,1.644185108127322197e+09,0.000000000000000000e+00,-1.505535898344882328e+00,0.000000000000000000e+00,-1.505535898344882328e+00
7.433333333333333570e+00,1.644185108145276308e+09,0.000000000000000000e+00,-1.505535898344882328e+00,0.000000000000000000e+00,-1.505535898344882328e+00
7.450000000000000178e+00,1.644185108162230968e+09,0.000000000000000000e+00,-1.505535898344882328e+00,0.000000000000000000e+00,-1.505535898344882328e+00
7.466666666666666785e+00,1.644185108178576946e+09,0.000000000000000000e+00,-1.505535898344882328e+00,0.000000000000000000e+00,-1.505535898344882328e+00
7.483333333333333393e+00,1.644185108197008371e+09,0.000000000000000000e+00,-1.505535898344882328e+00,0.000000000000000000e+00,-1.505535898344882328e+00
7.500000000000000000e+00,1.644185108214336395e+09,0.000000000000000000e+00,-1.505535898344882328e+00,0.000000000000000000e+00,-1.505535898344882328e+00
7.516666666666666607e+00,1.644185108231393814e+09,0.000000000000000000e+00,-1.935873511260282731e+00,0.000000000000000000e+00,-1.935873511260282731e+00
7.533333333333333215e+00,1.644185108248341084e+09,0.000000000000000000e+00,-1.972751389635876818e+00,0.000000000000000000e+00,-1.972751389635876818e+00
7.549999999999999822e+00,1.644185108265299797e+09,0.000000000000000000e+00,-2.056583561397077986e+00,0.000000000000000000e+00,-2.056583561397077986e+00
7.566666666666666430e+00,1.644185108281657696e+09,0.000000000000000000e+00,-2.030342246149948959e+00,0.000000000000000000e+00,-2.030342246149948959e+00
7.583333333333333037e+00,1.644185108299654961e+09,0.000000000000000000e+00,-1.513548329948633642e+00,0.000000000000000000e+00,-1.513548329948633642e+00
7.599999999999999645e+00,1.644185108315953016e+09,0.000000000000000000e+00,-1.505535898344882328e+00,0.000000000000000000e+00,-1.505535898344882328e+00
7.616666666666666252e+00,1.644185108332447290e+09,0.000000000000000000e+00,-1.912256327537866119e+00,0.000000000000000000e+00,-1.912256327537866119e+00
7.633333333333332860e+00,1.644185108350403070e+09,0.000000000000000000e+00,-1.505535898344882328e+00,0.000000000000000000e+00,-1.505535898344882328e+00
7.649999999999999467e+00,1.644185108366379738e+09,0.000000000000000000e+00,-1.505535898344882328e+00,0.000000000000000000e+00,-1.505535898344882328e+00
7.666666666666666963e+00,1.644185108384309769e+09,0.000000000000000000e+00,-1.505535898344882328e+00,0.000000000000000000e+00,-1.505535898344882328e+00
7.683333333333333570e+00,1.644185108402624846e+09,0.000000000000000000e+00,-1.928001116686144156e+00,0.000000000000000000e+00,-1.928001116686144156e+00
7.700000000000000178e+00,1.644185108418773174e+09,0.000000000000000000e+00,-1.505535898344882328e+00,0.000000000000000000e+00,-1.505535898344882328e+00
7.716666666666666785e+00,1.644185108434939384e+09,0.000000000000000000e+00,-1.930625248210856792e+00,0.000000000000000000e+00,-1.930625248210856792e+00
7.733333333333333393e+00,1.644185108452001095e+09,0.000000000000000000e+00,-1.505535898344882328e+00,0.000000000000000000e+00,-1.505535898344882328e+00
7.750000000000000000e+00,1.644185108470216751e+09,0.000000000000000000e+00,-1.505535898344882328e+00,0.000000000000000000e+00,-1.505535898344882328e+00
7.766666666666666607e+00,1.644185108485407829e+09,0.000000000000000000e+00,-1.497523466741130793e+00,0.000000000000000000e+00,-1.497523466741130793e+00
7.783333333333333215e+00,1.644185108502348423e+09,0.000000000000000000e+00,-1.922192705518267486e+00,0.000000000000000000e+00,-1.922192705518267486e+00
7.799999999999999822e+00,1.644185108519752502e+09,0.000000000000000000e+00,-1.940141515102420389e+00,0.000000000000000000e+00,-1.940141515102420389e+00
7.816666666666666430e+00,1.644185108535753489e+09,0.000000000000000000e+00,-1.425411582307368308e+00,0.000000000000000000e+00,-1.425411582307368308e+00
7.833333333333333037e+00,1.644185108553286314e+09,0.000000000000000000e+00,-1.417399150703616995e+00,0.000000000000000000e+00,-1.417399150703616995e+00
7.849999999999999645e+00,1.644185108572215557e+09,0.000000000000000000e+00,-1.401374287496114368e+00,0.000000000000000000e+00,-1.401374287496114368e+00
7.866666666666666252e+00,1.644185108588193178e+09,0.000000000000000000e+00,-1.377336992684860428e+00,0.000000000000000000e+00,-1.377336992684860428e+00
7.883333333333332860e+00,1.644185108605876923e+09,0.000000000000000000e+00,-1.353299697873606044e+00,0.000000000000000000e+00,-1.353299697873606044e+00
7.899999999999999467e+00,1.644185108622957945e+09,0.000000000000000000e+00,-1.321249971458600569e+00,0.000000000000000000e+00,-1.321249971458600569e+00
7.916666666666666963e+00,1.644185108642265797e+09,0.000000000000000000e+00,-1.273175381836092246e+00,0.000000000000000000e+00,-1.273175381836092246e+00
7.933333333333333570e+00,1.644185108656786203e+09,0.000000000000000000e+00,-1.257150518628589619e+00,0.000000000000000000e+00,-1.257150518628589619e+00
7.950000000000000178e+00,1.644185108678513050e+09,0.000000000000000000e+00,-1.241125655421086771e+00,0.000000000000000000e+00,-1.241125655421086771e+00
7.966666666666666785e+00,1.644185108693551779e+09,0.000000000000000000e+00,-1.647566010554845750e+00,0.000000000000000000e+00,-1.647566010554845750e+00
7.983333333333333393e+00,1.644185108710741282e+09,0.000000000000000000e+00,-1.201063497402330205e+00,0.000000000000000000e+00,-1.201063497402330205e+00
8.000000000000000000e+00,1.644185108726811409e+09,0.000000000000000000e+00,-1.588994894833485549e+00,0.000000000000000000e+00,-1.588994894833485549e+00
8.016666666666665719e+00,1.644185108742005110e+09,0.000000000000000000e+00,-1.144976476176070568e+00,0.000000000000000000e+00,-1.144976476176070568e+00
8.033333333333333215e+00,1.644185108759465218e+09,0.000000000000000000e+00,-1.553760888775317373e+00,0.000000000000000000e+00,-1.553760888775317373e+00
8.050000000000000711e+00,1.644185108777418375e+09,0.000000000000000000e+00,-1.088889454949810931e+00,0.000000000000000000e+00,-1.088889454949810931e+00
8.066666666666666430e+00,1.644185108793375731e+09,0.000000000000000000e+00,-1.064852160138556991e+00,0.000000000000000000e+00,-1.064852160138556991e+00
8.083333333333333925e+00,1.644185108810611725e+09,0.000000000000000000e+00,-1.056839728534805456e+00,0.000000000000000000e+00,-1.056839728534805456e+00
8.099999999999999645e+00,1.644185108825574636e+09,0.000000000000000000e+00,-1.048827296931054143e+00,0.000000000000000000e+00,-1.048827296931054143e+00
8.116666666666667140e+00,1.644185108843503952e+09,0.000000000000000000e+00,-1.040814865327302607e+00,0.000000000000000000e+00,-1.040814865327302607e+00
8.133333333333332860e+00,1.644185108860009909e+09,0.000000000000000000e+00,-1.024790002119799981e+00,0.000000000000000000e+00,-1.024790002119799981e+00
8.150000000000000355e+00,1.644185108877497196e+09,0.000000000000000000e+00,-1.024790002119799981e+00,0.000000000000000000e+00,-1.024790002119799981e+00
8.166666666666666075e+00,1.644185108893598557e+09,0.000000000000000000e+00,-1.008765138912297132e+00,0.000000000000000000e+00,-1.008765138912297132e+00
8.183333333333333570e+00,1.644185108911981821e+09,0.000000000000000000e+00,-9.927402757047943949e-01,0.000000000000000000e+00,-9.927402757047943949e-01
8.199999999999999289e+00,1.644185108929320812e+09,0.000000000000000000e+00,-9.767154124972916573e-01,0.000000000000000000e+00,-9.767154124972916573e-01
8.216666666666666785e+00,1.644185108947296143e+09,0.000000000000000000e+00,-9.606905492897889198e-01,0.000000000000000000e+00,-9.606905492897889198e-01
8.233333333333332504e+00,1.644185108962962627e+09,0.000000000000000000e+00,-9.366532544785349801e-01,0.000000000000000000e+00,-9.366532544785349801e-01
8.250000000000000000e+00,1.644185108982217073e+09,0.000000000000000000e+00,-9.126159596672809293e-01,0.000000000000000000e+00,-9.126159596672809293e-01
8.266666666666665719e+00,1.644185108996542692e+09,0.000000000000000000e+00,-1.318916277771427170e+00,0.000000000000000000e+00,-1.318916277771427170e+00
8.283333333333333215e+00,1.644185109013496637e+09,0.000000000000000000e+00,-1.273885930762469254e+00,0.000000000000000000e+00,-1.273885930762469254e+00
8.300000000000000711e+00,1.644185109030778170e+09,0.000000000000000000e+00,-8.324916436297672417e-01,0.000000000000000000e+00,-8.324916436297672417e-01
8.316666666666666430e+00,1.644185109047732830e+09,0.000000000000000000e+00,-8.084543488185129689e-01,0.000000000000000000e+00,-8.084543488185129689e-01
8.333333333333333925e+00,1.644185109064687967e+09,0.000000000000000000e+00,-7.924294856110102314e-01,0.000000000000000000e+00,-7.924294856110102314e-01
8.349999999999999645e+00,1.644185109082867622e+09,0.000000000000000000e+00,-1.196245709220055797e+00,0.000000000000000000e+00,-1.196245709220055797e+00
8.366666666666667140e+00,1.644185109099038363e+09,0.000000000000000000e+00,-1.198589766685543845e+00,0.000000000000000000e+00,-1.198589766685543845e+00
8.383333333333332860e+00,1.644185109116958618e+09,0.000000000000000000e+00,-7.443548959885019078e-01,0.000000000000000000e+00,-7.443548959885019078e-01
8.400000000000000355e+00,1.644185109132389545e+09,0.000000000000000000e+00,-7.283300327809991703e-01,0.000000000000000000e+00,-7.283300327809991703e-01
8.416666666666666075e+00,1.644185109149801016e+09,0.000000000000000000e+00,-7.123051695734964328e-01,0.000000000000000000e+00,-7.123051695734964328e-01
8.433333333333333570e+00,1.644185109167752028e+09,0.000000000000000000e+00,-6.802554431584912908e-01,0.000000000000000000e+00,-6.802554431584912908e-01
8.449999999999999289e+00,1.644185109184707165e+09,0.000000000000000000e+00,-6.562181483472370180e-01,0.000000000000000000e+00,-6.562181483472370180e-01
8.466666666666666785e+00,1.644185109201663971e+09,0.000000000000000000e+00,-6.321808535359829673e-01,0.000000000000000000e+00,-6.321808535359829673e-01
8.483333333333332504e+00,1.644185109217621565e+09,0.000000000000000000e+00,-6.081435587247286945e-01,0.000000000000000000e+00,-6.081435587247286945e-01
8.500000000000000000e+00,1.644185109233809710e+09,0.000000000000000000e+00,-5.841062639134747547e-01,0.000000000000000000e+00,-5.841062639134747547e-01
8.516666666666665719e+00,1.644185109249990702e+09,0.000000000000000000e+00,-5.680814007059720172e-01,0.000000000000000000e+00,-5.680814007059720172e-01
8.533333333333333215e+00,1.644185109269209623e+09,0.000000000000000000e+00,-5.440441058947177444e-01,0.000000000000000000e+00,-5.440441058947177444e-01
8.550000000000000711e+00,1.644185109285166740e+09,0.000000000000000000e+00,-5.200068110834638047e-01,0.000000000000000000e+00,-5.200068110834638047e-01
8.566666666666666430e+00,1.644185109303118944e+09,0.000000000000000000e+00,-5.039819478759610671e-01,0.000000000000000000e+00,-5.039819478759610671e-01
8.583333333333333925e+00,1.644185109318723202e+09,0.000000000000000000e+00,-4.959695162722094763e-01,0.000000000000000000e+00,-4.959695162722094763e-01
8.599999999999999645e+00,1.644185109336675644e+09,0.000000000000000000e+00,-4.959695162722094763e-01,0.000000000000000000e+00,-4.959695162722094763e-01
8.616666666666667140e+00,1.644185109352907896e+09,0.000000000000000000e+00,-4.959695162722094763e-01,0.000000000000000000e+00,-4.959695162722094763e-01
8.633333333333332860e+00,1.644185109372164011e+09,0.000000000000000000e+00,-5.039819478759610671e-01,0.000000000000000000e+00,-5.039819478759610671e-01
8.650000000000000355e+00,1.644185109388300419e+09,0.000000000000000000e+00,-4.959695162722094763e-01,0.000000000000000000e+00,-4.959695162722094763e-01
8.666666666666666075e+00,1.644185109406244516e+09,0.000000000000000000e+00,-9.789297967114815036e-01,0.000000000000000000e+00,-9.789297967114815036e-01
8.683333333333333570e+00,1.644185109422202110e+09,0.000000000000000000e+00,-1.125741125065794046e+00,0.000000000000000000e+00,-1.125741125065794046e+00
8.699999999999999289e+00,1.644185109440158129e+09,0.000000000000000000e+00,-1.149358308788210659e+00,0.000000000000000000e+00,-1.149358308788210659e+00
8.716666666666666785e+00,1.644185109457084894e+09,0.000000000000000000e+00,-1.175599624035340351e+00,0.000000000000000000e+00,-1.175599624035340351e+00
8.733333333333332504e+00,1.644185109473066092e+09,0.000000000000000000e+00,-1.149358308788210659e+00,0.000000000000000000e+00,-1.149358308788210659e+00
8.750000000000000000e+00,1.644185109491000652e+09,0.000000000000000000e+00,-1.196592676233043662e+00,0.000000000000000000e+00,-1.196592676233043662e+00
8.766666666666665719e+00,1.644185109508232594e+09,0.000000000000000000e+00,-1.120492862016368107e+00,0.000000000000000000e+00,-1.120492862016368107e+00
8.783333333333333215e+00,1.644185109524739504e+09,0.000000000000000000e+00,-1.186096150134192007e+00,0.000000000000000000e+00,-1.186096150134192007e+00
8.800000000000000711e+00,1.644185109541131496e+09,0.000000000000000000e+00,-1.118008767521268210e+00,0.000000000000000000e+00,-1.118008767521268210e+00
8.816666666666666430e+00,1.644185109556923628e+09,0.000000000000000000e+00,-1.062761968472683449e+00,0.000000000000000000e+00,-1.062761968472683449e+00
8.833333333333333925e+00,1.644185109574903011e+09,0.000000000000000000e+00,-1.047017179324405189e+00,0.000000000000000000e+00,-1.047017179324405189e+00
8.849999999999999645e+00,1.644185109591316700e+09,0.000000000000000000e+00,-4.959695162722094763e-01,0.000000000000000000e+00,-4.959695162722094763e-01
8.866666666666667140e+00,1.644185109608270407e+09,0.000000000000000000e+00,-4.959695162722094763e-01,0.000000000000000000e+00,-4.959695162722094763e-01
8.883333333333332860e+00,1.644185109625715017e+09,0.000000000000000000e+00,-5.039819478759610671e-01,0.000000000000000000e+00,-5.039819478759610671e-01
8.900000000000000355e+00,1.644185109643404007e+09,0.000000000000000000e+00,-4.959695162722094763e-01,0.000000000000000000e+00,-4.959695162722094763e-01
8.916666666666666075e+00,1.644185109660361767e+09,0.000000000000000000e+00,-5.039819478759610671e-01,0.000000000000000000e+00,-5.039819478759610671e-01
8.933333333333333570e+00,1.644185109676318407e+09,0.000000000000000000e+00,-9.316954292666485005e-01,0.000000000000000000e+00,-9.316954292666485005e-01
8.949999999999999289e+00,1.644185109691881418e+09,0.000000000000000000e+00,-5.039819478759610671e-01,0.000000000000000000e+00,-5.039819478759610671e-01
8.966666666666666785e+00,1.644185109709028006e+09,0.000000000000000000e+00,-9.107023770689448572e-01,0.000000000000000000e+00,-9.107023770689448572e-01
8.983333333333332504e+00,1.644185109726633310e+09,0.000000000000000000e+00,-9.343195607913614698e-01,0.000000000000000000e+00,-9.343195607913614698e-01
9.000000000000000000e+00,1.644185109746554375e+09,0.000000000000000000e+00,-5.039819478759610671e-01,0.000000000000000000e+00,-5.039819478759610671e-01
9.016666666666665719e+00,1.644185109761488914e+09,0.000000000000000000e+00,-4.959695162722094763e-01,0.000000000000000000e+00,-4.959695162722094763e-01
9.033333333333333215e+00,1.644185109778664589e+09,0.000000000000000000e+00,-4.959695162722094763e-01,0.000000000000000000e+00,-4.959695162722094763e-01
9.050000000000000711e+00,1.644185109795867205e+09,0.000000000000000000e+00,-4.959695162722094763e-01,0.000000000000000000e+00,-4.959695162722094763e-01
9.066666666666666430e+00,1.644185109811829805e+09,0.000000000000000000e+00,-4.959695162722094763e-01,0.000000000000000000e+00,-4.959695162722094763e-01
9.083333333333333925e+00,1.644185109828778505e+09,0.000000000000000000e+00,-4.959695162722094763e-01,0.000000000000000000e+00,-4.959695162722094763e-01
9.099999999999999645e+00,1.644185109845754147e+09,0.000000000000000000e+00,-4.959695162722094763e-01,0.000000000000000000e+00,-4.959695162722094763e-01
9.116666666666667140e+00,1.644185109864241600e+09,0.000000000000000000e+00,-4.959695162722094763e-01,0.000000000000000000e+00,-4.959695162722094763e-01
9.133333333333332860e+00,1.644185109881277084e+09,0.000000000000000000e+00,-5.039819478759610671e-01,0.000000000000000000e+00,-5.039819478759610671e-01
9.150000000000000355e+00,1.644185109897228003e+09,0.000000000000000000e+00,-5.039819478759610671e-01,0.000000000000000000e+00,-5.039819478759610671e-01
9.166666666666666075e+00,1.644185109913503647e+09,0.000000000000000000e+00,-4.959695162722094763e-01,0.000000000000000000e+00,-4.959695162722094763e-01
9.183333333333333570e+00,1.644185109931729794e+09,0.000000000000000000e+00,-4.959695162722094763e-01,0.000000000000000000e+00,-4.959695162722094763e-01
9.199999999999999289e+00,1.644185109948103905e+09,0.000000000000000000e+00,-4.959695162722094763e-01,0.000000000000000000e+00,-4.959695162722094763e-01
9.216666666666666785e+00,1.644185109966104507e+09,0.000000000000000000e+00,-4.959695162722094763e-01,0.000000000000000000e+00,-4.959695162722094763e-01
9.233333333333332504e+00,1.644185109983059883e+09,0.000000000000000000e+00,-4.959695162722094763e-01,0.000000000000000000e+00,-4.959695162722094763e-01
9.250000000000000000e+00,1.644185109999219894e+09,0.000000000000000000e+00,-4.959695162722094763e-01,0.000000000000000000e+00,-4.959695162722094763e-01
9.266666666666665719e+00,1.644185110016551018e+09,0.000000000000000000e+00,-4.959695162722094763e-01,0.000000000000000000e+00,-4.959695162722094763e-01
9.283333333333333215e+00,1.644185110032538414e+09,0.000000000000000000e+00,-4.959695162722094763e-01,0.000000000000000000e+00,-4.959695162722094763e-01
9.300000000000000711e+00,1.644185110050548553e+09,0.000000000000000000e+00,-4.959695162722094763e-01,0.000000000000000000e+00,-4.959695162722094763e-01
9.316666666666666430e+00,1.644185110067667007e+09,0.000000000000000000e+00,-5.039819478759610671e-01,0.000000000000000000e+00,-5.039819478759610671e-01
9.333333333333333925e+00,1.644185110083637238e+09,0.000000000000000000e+00,-4.959695162722094763e-01,0.000000000000000000e+00,-4.959695162722094763e-01
9.349999999999999645e+00,1.644185110101033926e+09,0.000000000000000000e+00,-5.039819478759610671e-01,0.000000000000000000e+00,-5.039819478759610671e-01
9.366666666666667140e+00,1.644185110117985725e+09,0.000000000000000000e+00,-5.039819478759610671e-01,0.000000000000000000e+00,-5.039819478759610671e-01
9.383333333333332860e+00,1.644185110135943174e+09,0.000000000000000000e+00,-4.959695162722094763e-01,0.000000000000000000e+00,-4.959695162722094763e-01
9.400000000000000355e+00,1.644185110151897430e+09,0.000000000000000000e+00,-4.959695162722094763e-01,0.000000000000000000e+00,-4.959695162722094763e-01
9.416666666666666075e+00,1.644185110169830561e+09,0.000000000000000000e+00,-9.316954292666485005e-01,0.000000000000000000e+00,-9.316954292666485005e-01
9.433333333333333570e+00,1.644185110186796665e+09,0.000000000000000000e+00,-1.039144784750267059e+00,0.000000000000000000e+00,-1.039144784750267059e+00
9.449999999999999289e+00,1.644185110203763485e+09,0.000000000000000000e+00,-1.081130889145673235e+00,0.000000000000000000e+00,-1.081130889145673235e+00
9.466666666666666785e+00,1.644185110221741915e+09,0.000000000000000000e+00,-1.007795243483323722e+00,0.000000000000000000e+00,-1.007795243483323722e+00
9.483333333333332504e+00,1.644185110237260103e+09,0.000000000000000000e+00,-1.054889573898544430e+00,0.000000000000000000e+00,-1.054889573898544430e+00
9.500000000000000000e+00,1.644185110254233122e+09,0.000000000000000000e+00,-9.971586803548597722e-01,0.000000000000000000e+00,-9.971586803548597722e-01
9.516666666666665719e+00,1.644185110271171570e+09,0.000000000000000000e+00,-9.577967074841650108e-01,0.000000000000000000e+00,-9.577967074841650108e-01
9.533333333333333215e+00,1.644185110288141012e+09,0.000000000000000000e+00,-5.039819478759610671e-01,0.000000000000000000e+00,-5.039819478759610671e-01
9.550000000000000711e+00,1.644185110307420492e+09,0.000000000000000000e+00,-4.959695162722094763e-01,0.000000000000000000e+00,-4.959695162722094763e-01
9.566666666666666430e+00,1.644185110324805737e+09,0.000000000000000000e+00,-4.959695162722094763e-01,0.000000000000000000e+00,-4.959695162722094763e-01
9.583333333333333925e+00,1.644185110342073917e+09,0.000000000000000000e+00,-4.959695162722094763e-01,0.000000000000000000e+00,-4.959695162722094763e-01
9.599999999999999645e+00,1.644185110359423161e+09,0.000000000000000000e+00,-4.959695162722094763e-01,0.000000000000000000e+00,-4.959695162722094763e-01
9.616666666666667140e+00,1.644185110377112150e+09,0.000000000000000000e+00,-4.959695162722094763e-01,0.000000000000000000e+00,-4.959695162722094763e-01
9.633333333333332860e+00,1.644185110394045115e+09,0.000000000000000000e+00,-4.959695162722094763e-01,0.000000000000000000e+00,-4.959695162722094763e-01
9.650000000000000355e+00,1.644185110411993027e+09,0.000000000000000000e+00,-4.959695162722094763e-01,0.000000000000000000e+00,-4.959695162722094763e-01
9.666666666666666075e+00,1.644185110427953482e+09,0.000000000000000000e+00,-5.039819478759610671e-01,0.000000000000000000e+00,-5.039819478759610671e-01
9.683333333333333570e+00,1.644185110444908619e+09,0.000000000000000000e+00,-4.959695162722094763e-01,0.000000000000000000e+00,-4.959695162722094763e-01
9.699999999999999289e+00,1.644185110461835623e+09,0.000000000000000000e+00,-4.959695162722094763e-01,0.000000000000000000e+00,-4.959695162722094763e-01
9.716666666666666785e+00,1.644185110478937387e+09,0.000000000000000000e+00,-4.959695162722094763e-01,0.000000000000000000e+00,-4.959695162722094763e-01
9.733333333333332504e+00,1.644185110494401693e+09,0.000000000000000000e+00,-4.959695162722094763e-01,0.000000000000000000e+00,-4.959695162722094763e-01
9.750000000000000000e+00,1.644185110511355400e+09,0.000000000000000000e+00,-4.959695162722094763e-01,0.000000000000000000e+00,-4.959695162722094763e-01
9.766666666666665719e+00,1.644185110528310061e+09,0.000000000000000000e+00,-4.959695162722094763e-01,0.000000000000000000e+00,-4.959695162722094763e-01
9.783333333333333215e+00,1.644185110546753883e+09,0.000000000000000000e+00,-5.039819478759610671e-01,0.000000000000000000e+00,-5.039819478759610671e-01
9.800000000000000711e+00,1.644185110562967539e+09,0.000000000000000000e+00,-5.039819478759610671e-01,0.000000000000000000e+00,-5.039819478759610671e-01
9.816666666666666430e+00,1.644185110579920292e+09,0.000000000000000000e+00,-5.039819478759610671e-01,0.000000000000000000e+00,-5.039819478759610671e-01
9.833333333333333925e+00,1.644185110597873449e+09,0.000000000000000000e+00,-5.039819478759610671e-01,0.000000000000000000e+00,-5.039819478759610671e-01
9.849999999999999645e+00,1.644185110614134312e+09,0.000000000000000000e+00,-4.959695162722094763e-01,0.000000000000000000e+00,-4.959695162722094763e-01
9.866666666666667140e+00,1.644185110632516146e+09,0.000000000000000000e+00,-4.959695162722094763e-01,0.000000000000000000e+00,-4.959695162722094763e-01
9.883333333333332860e+00,1.644185110650823832e+09,0.000000000000000000e+00,-5.039819478759610671e-01,0.000000000000000000e+00,-5.039819478759610671e-01
9.900000000000000355e+00,1.644185110666916132e+09,0.000000000000000000e+00,-4.959695162722094763e-01,0.000000000000000000e+00,-4.959695162722094763e-01
9.916666666666666075e+00,1.644185110683375835e+09,0.000000000000000000e+00,-9.184347346134711376e-01,0.000000000000000000e+00,-9.184347346134711376e-01
9.933333333333333570e+00,1.644185110701654434e+09,0.000000000000000000e+00,-1.083755020670386759e+00,0.000000000000000000e+00,-1.083755020670386759e+00
9.949999999999999289e+00,1.644185110717807770e+09,0.000000000000000000e+00,-1.060137836947970147e+00,0.000000000000000000e+00,-1.060137836947970147e+00
9.966666666666666785e+00,1.644185110737300158e+09,0.000000000000000000e+00,-1.028788295681027920e+00,0.000000000000000000e+00,-1.028788295681027920e+00
9.983333333333332504e+00,1.644185110753249645e+09,0.000000000000000000e+00,-1.049641310849118714e+00,0.000000000000000000e+00,-1.049641310849118714e+00
1.000000000000000000e+01,1.644185110772763968e+09,0.000000000000000000e+00,-9.236829976628969652e-01,0.000000000000000000e+00,-9.236829976628969652e-01
1.001666666666666572e+01,1.644185110787206411e+09,0.000000000000000000e+00,-9.107023770689448572e-01,0.000000000000000000e+00,-9.107023770689448572e-01
1.003333333333333321e+01,1.644185110804210901e+09,0.000000000000000000e+00,-5.039819478759610671e-01,0.000000000000000000e+00,-5.039819478759610671e-01
1.005000000000000071e+01,1.644185110822141409e+09,0.000000000000000000e+00,-4.959695162722094763e-01,0.000000000000000000e+00,-4.959695162722094763e-01
1.006666666666666643e+01,1.644185110839095354e+09,0.000000000000000000e+00,-5.039819478759610671e-01,0.000000000000000000e+00,-5.039819478759610671e-01
1.008333333333333393e+01,1.644185110855194092e+09,0.000000000000000000e+00,-5.039819478759610671e-01,0.000000000000000000e+00,-5.039819478759610671e-01
1.009999999999999964e+01,1.644185110872396231e+09,0.000000000000000000e+00,-5.039819478759610671e-01,0.000000000000000000e+00,-5.039819478759610671e-01
1.011666666666666714e+01,1.644185110890489340e+09,0.000000000000000000e+00,-5.039819478759610671e-01,0.000000000000000000e+00,-5.039819478759610671e-01
1.013333333333333286e+01,1.644185110908219099e+09,0.000000000000000000e+00,-5.039819478759610671e-01,0.000000000000000000e+00,-5.039819478759610671e-01
1.015000000000000036e+01,1.644185110924449682e+09,0.000000000000000000e+00,-9.053140769899060691e-01,0.000000000000000000e+00,-9.053140769899060691e-01
1.016666666666666607e+01,1.644185110941720009e+09,0.000000000000000000e+00,-9.761656281571556848e-01,0.000000000000000000e+00,-9.761656281571556848e-01
1.018333333333333357e+01,1.644185110957628250e+09,0.000000000000000000e+00,-9.814138912065816234e-01,0.000000000000000000e+00,-9.814138912065816234e-01
1.019999999999999929e+01,1.644185110976318598e+09,0.000000000000000000e+00,-4.959695162722094763e-01,0.000000000000000000e+00,-4.959695162722094763e-01
1.021666666666666679e+01,1.644185110992304802e+09,0.000000000000000000e+00,-4.959695162722094763e-01,0.000000000000000000e+00,-4.959695162722094763e-01
1.023333333333333250e+01,1.644185111008704424e+09,0.000000000000000000e+00,-5.039819478759610671e-01,0.000000000000000000e+00,-5.039819478759610671e-01
1.025000000000000000e+01,1.644185111026894331e+09,0.000000000000000000e+00,-4.959695162722094763e-01,0.000000000000000000e+00,-4.959695162722094763e-01
1.026666666666666572e+01,1.644185111042168856e+09,0.000000000000000000e+00,-5.039819478759610671e-01,0.000000000000000000e+00,-5.039819478759610671e-01
1.028333333333333321e+01,1.644185111058500290e+09,0.000000000000000000e+00,-5.039819478759610671e-01,0.000000000000000000e+00,-5.039819478759610671e-01
1.030000000000000071e+01,1.644185111076452255e+09,0.000000000000000000e+00,-4.959695162722094763e-01,0.000000000000000000e+00,-4.959695162722094763e-01
1.031666666666666643e+01,1.644185111092274904e+09,0.000000000000000000e+00,-4.959695162722094763e-01,0.000000000000000000e+00,-4.959695162722094763e-01
1.033333333333333393e+01,1.644185111109523296e+09,0.000000000000000000e+00,-5.039819478759610671e-01,0.000000000000000000e+00,-5.039819478759610671e-01
1.034999999999999964e+01,1.644185111126212835e+09,0.000000000000000000e+00,-4.959695162722094763e-01,0.000000000000000000e+00,-4.959695162722094763e-01
1.036666666666666714e+01,1.644185111144114494e+09,0.000000000000000000e+00,-4.959695162722094763e-01,0.000000000000000000e+00,-4.959695162722094763e-01
1.038333333333333286e+01,1.644185111160126209e+09,0.000000000000000000e+00,-5.039819478759610671e-01,0.000000000000000000e+00,-5.039819478759610671e-01
1.040000000000000036e+01,1.644185111177050829e+09,0.000000000000000000e+00,-5.039819478759610671e-01,0.000000000000000000e+00,-5.039819478759610671e-01
1.041666666666666607e+01,1.644185111195171595e+09,0.000000000000000000e+00,-4.959695162722094763e-01,0.000000000000000000e+00,-4.959695162722094763e-01
1.043333333333333357e+01,1.644185111211741686e+09,0.000000000000000000e+00,-4.959695162722094763e-01,0.000000000000000000e+00,-4.959695162722094763e-01
1.044999999999999929e+01,1.644185111228089809e+09,0.000000000000000000e+00,-4.959695162722094763e-01,0.000000000000000000e+00,-4.959695162722094763e-01
1.046666666666666679e+01,1.644185111246385574e+09,0.000000000000000000e+00,-4.959695162722094763e-01,0.000000000000000000e+00,-4.959695162722094763e-01
1.048333333333333250e+01,1.644185111262448788e+09,0.000000000000000000e+00,-4.959695162722094763e-01,0.000000000000000000e+00,-4.959695162722094763e-01
1.050000000000000000e+01,1.644185111278589964e+09,0.000000000000000000e+00,-4.959695162722094763e-01,0.000000000000000000e+00,-4.959695162722094763e-01
1.051666666666666572e+01,1.644185111296568871e+09,0.000000000000000000e+00,-4.959695162722094763e-01,0.000000000000000000e+00,-4.959695162722094763e-01
1.053333333333333321e+01,1.644185111312575579e+09,0.000000000000000000e+00,-5.039819478759610671e-01,0.000000000000000000e+00,-5.039819478759610671e-01
1.055000000000000071e+01,1.644185111330970764e+09,0.000000000000000000e+00,-4.959695162722094763e-01,0.000000000000000000e+00,-4.959695162722094763e-01
1.056666666666666643e+01,1.644185111346928120e+09,0.000000000000000000e+00,-5.039819478759610671e-01,0.000000000000000000e+00,-5.039819478759610671e-01
1.058333333333333393e+01,1.644185111363880873e+09,0.000000000000000000e+00,-4.959695162722094763e-01,0.000000000000000000e+00,-4.959695162722094763e-01
1.059999999999999964e+01,1.644185111381103039e+09,0.000000000000000000e+00,-5.039819478759610671e-01,0.000000000000000000e+00,-5.039819478759610671e-01
1.061666666666666714e+01,1.644185111398055315e+09,0.000000000000000000e+00,-5.039819478759610671e-01,0.000000000000000000e+00,-5.039819478759610671e-01
1.063333333333333286e+01,1.644185111415180922e+09,0.000000000000000000e+00,-4.959695162722094763e-01,0.000000000000000000e+00,-4.959695162722094763e-01
1.065000000000000036e+01,1.644185111434112787e+09,0.000000000000000000e+00,-9.368036552864618116e-01,0.000000000000000000e+00,-9.368036552864618116e-01
1.066666666666666607e+01,1.644185111450805187e+09,0.000000000000000000e+00,-1.052265442373830906e+00,0.000000000000000000e+00,-1.052265442373830906e+00
1.068333333333333357e+01,1.644185111468994617e+09,0.000000000000000000e+00,-9.709173651077299683e-01,0.000000000000000000e+00,-9.709173651077299683e-01
1.069999999999999929e+01,1.644185111483980417e+09,0.000000000000000000e+00,-4.959695162722094763e-01,0.000000000000000000e+00,-4.959695162722094763e-01
1.071666666666666679e+01,1.644185111501932859e+09,0.000000000000000000e+00,-4.959695162722094763e-01,0.000000000000000000e+00,-4.959695162722094763e-01
1.073333333333333250e+01,1.644185111518861055e+09,0.000000000000000000e+00,-4.959695162722094763e-01,0.000000000000000000e+00,-4.959695162722094763e-01
1.075000000000000000e+01,1.644185111535842419e+09,0.000000000000000000e+00,-5.039819478759610671e-01,0.000000000000000000e+00,-5.039819478759610671e-01
1.076666666666666572e+01,1.644185111553793669e+09,0.000000000000000000e+00,-9.551725759594527077e-01,0.000000000000000000e+00,-9.551725759594527077e-01
1.078333333333333321e+01,1.644185111568737507e+09,0.000000000000000000e+00,-9.630449705335907273e-01,0.000000000000000000e+00,-9.630449705335907273e-01
1.080000000000000071e+01,1.644185111587702274e+09,0.000000000000000000e+00,-9.840380227312948147e-01,0.000000000000000000e+00,-9.840380227312948147e-01
1.081666666666666643e+01,1.644185111604670286e+09,0.000000000000000000e+00,-1.020775864077276385e+00,0.000000000000000000e+00,-1.020775864077276385e+00
1.083333333333333393e+01,1.644185111620643616e+09,0.000000000000000000e+00,-1.089003283719812476e+00,0.000000000000000000e+00,-1.089003283719812476e+00
1.084999999999999964e+01,1.644185111638578653e+09,0.000000000000000000e+00,-1.112620467442229089e+00,0.000000000000000000e+00,-1.112620467442229089e+00
1.086666666666666714e+01,1.644185111655529737e+09,0.000000000000000000e+00,-1.002406943404285489e+00,0.000000000000000000e+00,-1.002406943404285489e+00
1.088333333333333286e+01,1.644185111674445391e+09,0.000000000000000000e+00,-1.020915901106888679e+00,0.000000000000000000e+00,-1.020915901106888679e+00
1.090000000000000036e+01,1.644185111691425323e+09,0.000000000000000000e+00,-9.343195607913614698e-01,0.000000000000000000e+00,-9.343195607913614698e-01
1.091666666666666607e+01,1.644185111707389593e+09,0.000000000000000000e+00,-5.039819478759610671e-01,0.000000000000000000e+00,-5.039819478759610671e-01
1.093333333333333357e+01,1.644185111724346399e+09,0.000000000000000000e+00,-4.959695162722094763e-01,0.000000000000000000e+00,-4.959695162722094763e-01
1.094999999999999929e+01,1.644185111742295980e+09,0.000000000000000000e+00,-9.499243129100258809e-01,0.000000000000000000e+00,-9.499243129100258809e-01
1.096666666666666679e+01,1.644185111759250164e+09,0.000000000000000000e+00,-5.039819478759610671e-01,0.000000000000000000e+00,-5.039819478759610671e-01
1.098333333333333250e+01,1.644185111775221348e+09,0.000000000000000000e+00,-4.959695162722094763e-01,0.000000000000000000e+00,-4.959695162722094763e-01
1.100000000000000000e+01,1.644185111794156790e+09,0.000000000000000000e+00,-9.105623400393320077e-01,0.000000000000000000e+00,-9.105623400393320077e-01
1.101666666666666572e+01,1.644185111812104702e+09,0.000000000000000000e+00,-4.959695162722094763e-01,0.000000000000000000e+00,-4.959695162722094763e-01
1.103333333333333321e+01,1.644185111828061819e+09,0.000000000000000000e+00,-4.959695162722094763e-01,0.000000000000000000e+00,-4.959695162722094763e-01
1.105000000000000071e+01,1.644185111845015764e+09,0.000000000000000000e+00,-9.107023770689448572e-01,0.000000000000000000e+00,-9.107023770689448572e-01
1.106666666666666643e+01,1.644185111860980749e+09,0.000000000000000000e+00,-1.041768916274979473e+00,0.000000000000000000e+00,-1.041768916274979473e+00
1.108333333333333393e+01,1.644185111878935099e+09,0.000000000000000000e+00,-1.094251546769238415e+00,0.000000000000000000e+00,-1.094251546769238415e+00
1.109999999999999964e+01,1.644185111896879196e+09,0.000000000000000000e+00,-1.144110045738784720e+00,0.000000000000000000e+00,-1.144110045738784720e+00
1.111666666666666714e+01,1.644185111911837101e+09,0.000000000000000000e+00,-1.167867266490813627e+00,0.000000000000000000e+00,-1.167867266490813627e+00
1.113333333333333286e+01,1.644185111930786133e+09,0.000000000000000000e+00,-1.110136372947128969e+00,0.000000000000000000e+00,-1.110136372947128969e+00
1.115000000000000036e+01,1.644185111946743488e+09,0.000000000000000000e+00,-1.033896521700840454e+00,0.000000000000000000e+00,-1.033896521700840454e+00
1.116666666666666607e+01,1.644185111963698149e+09,0.000000000000000000e+00,-9.159506401183705737e-01,0.000000000000000000e+00,-9.159506401183705737e-01
1.118333333333333357e+01,1.644185111980653048e+09,0.000000000000000000e+00,-9.368036552864618116e-01,0.000000000000000000e+00,-9.368036552864618116e-01
1.119999999999999929e+01,1.644185111997606039e+09,0.000000000000000000e+00,-9.369436923160742170e-01,0.000000000000000000e+00,-9.369436923160742170e-01
1.121666666666666679e+01,1.644185112014562368e+09,0.000000000000000000e+00,-9.343195607913614698e-01,0.000000000000000000e+00,-9.343195607913614698e-01
1.123333333333333250e+01,1.644185112031517506e+09,0.000000000000000000e+00,-4.959695162722094763e-01,0.000000000000000000e+00,-4.959695162722094763e-01
1.125000000000000000e+01,1.644185112049470901e+09,0.000000000000000000e+00,-4.959695162722094763e-01,0.000000000000000000e+00,-4.959695162722094763e-01
1.126666666666666572e+01,1.644185112064428806e+09,0.000000000000000000e+00,-5.039819478759610671e-01,0.000000000000000000e+00,-5.039819478759610671e-01
1.128333333333333321e+01,1.644185112082381010e+09,0.000000000000000000e+00,-4.959695162722094763e-01,0.000000000000000000e+00,-4.959695162722094763e-01
1.130000000000000071e+01,1.644185112098338604e+09,0.000000000000000000e+00,-4.959695162722094763e-01,0.000000000000000000e+00,-4.959695162722094763e-01
1.131666666666666643e+01,1.644185112115293980e+09,0.000000000000000000e+00,-4.959695162722094763e-01,0.000000000000000000e+00,-4.959695162722094763e-01
1.133333333333333393e+01,1.644185112133219004e+09,0.000000000000000000e+00,-5.039819478759610671e-01,0.000000000000000000e+00,-5.039819478759610671e-01
1.134999999999999964e+01,1.644185112150199413e+09,0.000000000000000000e+00,-4.959695162722094763e-01,0.000000000000000000e+00,-4.959695162722094763e-01
1.136666666666666714e+01,1.644185112167154789e+09,0.000000000000000000e+00,-4.959695162722094763e-01,0.000000000000000000e+00,-4.959695162722094763e-01
1.138333333333333286e+01,1.644185112183134079e+09,0.000000000000000000e+00,-4.959695162722094763e-01,0.000000000000000000e+00,-4.959695162722094763e-01
1.140000000000000036e+01,1.644185112203080416e+09,0.000000000000000000e+00,-4.959695162722094763e-01,0.000000000000000000e+00,-4.959695162722094763e-01
1.141666666666666607e+01,1.644185112218016386e+09,0.000000000000000000e+00,-4.959695162722094763e-01,0.000000000000000000e+00,-4.959695162722094763e-01
1.143333333333333357e+01,1.644185112234971285e+09,0.000000000000000000e+00,-4.959695162722094763e-01,0.000000000000000000e+00,-4.959695162722094763e-01
1.144999999999999929e+01,1.644185112252925158e+09,0.000000000000000000e+00,-4.959695162722094763e-01,0.000000000000000000e+00,-4.959695162722094763e-01
1.146666666666666679e+01,1.644185112270852089e+09,0.000000000000000000e+00,-4.959695162722094763e-01,0.000000000000000000e+00,-4.959695162722094763e-01
1.148333333333333250e+01,1.644185112287807703e+09,0.000000000000000000e+00,-9.840380227312948147e-01,0.000000000000000000e+00,-9.840380227312948147e-01
1.150000000000000000e+01,1.644185112304792881e+09,0.000000000000000000e+00,-1.023399995601988799e+00,0.000000000000000000e+00,-1.023399995601988799e+00
1.151666666666666572e+01,1.644185112321715355e+09,0.000000000000000000e+00,-1.222833991480173355e+00,0.000000000000000000e+00,-1.222833991480173355e+00
1.153333333333333321e+01,1.644185112339688063e+09,0.000000000000000000e+00,-1.293685542647422748e+00,0.000000000000000000e+00,-1.293685542647422748e+00
1.155000000000000071e+01,1.644185112357620001e+09,0.000000000000000000e+00,-1.272692490449718994e+00,0.000000000000000000e+00,-1.272692490449718994e+00
1.156666666666666643e+01,1.644185112373604298e+09,0.000000000000000000e+00,-1.312194500350026161e+00,0.000000000000000000e+00,-1.312194500350026161e+00
1.158333333333333393e+01,1.644185112391553164e+09,0.000000000000000000e+00,-1.330563421023016835e+00,0.000000000000000000e+00,-1.330563421023016835e+00
1.159999999999999964e+01,1.644185112408483982e+09,0.000000000000000000e+00,-1.385530146012375674e+00,0.000000000000000000e+00,-1.385530146012375674e+00
1.161666666666666714e+01,1.644185112426436901e+09,0.000000000000000000e+00,-1.435528682011534274e+00,0.000000000000000000e+00,-1.435528682011534274e+00
1.163333333333333286e+01,1.644185112446414471e+09,0.000000000000000000e+00,-1.364537093814672586e+00,0.000000000000000000e+00,-1.364537093814672586e+00
1.165000000000000036e+01,1.644185112460376501e+09,0.000000000000000000e+00,-1.280704922053470307e+00,0.000000000000000000e+00,-1.280704922053470307e+00
1.166666666666666607e+01,1.644185112484312534e+09,0.000000000000000000e+00,-1.123116993541080522e+00,0.000000000000000000e+00,-1.123116993541080522e+00
1.168333333333333357e+01,1.644185112494278669e+09,0.000000000000000000e+00,-1.044393047799692775e+00,0.000000000000000000e+00,-1.044393047799692775e+00
1.169999999999999929e+01,1.644185112512244701e+09,0.000000000000000000e+00,-9.841780597609072201e-01,0.000000000000000000e+00,-9.841780597609072201e-01
1.171666666666666679e+01,1.644185112528195858e+09,0.000000000000000000e+00,-5.039819478759610671e-01,0.000000000000000000e+00,-5.039819478759610671e-01
1.173333333333333250e+01,1.644185112546147108e+09,0.000000000000000000e+00,-5.039819478759610671e-01,0.000000000000000000e+00,-5.039819478759610671e-01
1.175000000000000000e+01,1.644185112563070536e+09,0.000000000000000000e+00,-4.959695162722094763e-01,0.000000000000000000e+00,-4.959695162722094763e-01
1.176666666666666572e+01,1.644185112580058336e+09,0.000000000000000000e+00,-5.039819478759610671e-01,0.000000000000000000e+00,-5.039819478759610671e-01
1.178333333333333321e+01,1.644185112597034216e+09,0.000000000000000000e+00,-4.959695162722094763e-01,0.000000000000000000e+00,-4.959695162722094763e-01
1.180000000000000071e+01,1.644185112613960505e+09,0.000000000000000000e+00,-5.039819478759610671e-01,0.000000000000000000e+00,-5.039819478759610671e-01
1.181666666666666643e+01,1.644185112630937815e+09,0.000000000000000000e+00,-4.959695162722094763e-01,0.000000000000000000e+00,-4.959695162722094763e-01
1.183333333333333393e+01,1.644185112648277044e+09,0.000000000000000000e+00,-4.959695162722094763e-01,0.000000000000000000e+00,-4.959695162722094763e-01
1.184999999999999964e+01,1.644185112665227413e+09,0.000000000000000000e+00,-5.039819478759610671e-01,0.000000000000000000e+00,-5.039819478759610671e-01
1.186666666666666714e+01,1.644185112683179379e+09,0.000000000000000000e+00,-5.039819478759610671e-01,0.000000000000000000e+00,-5.039819478759610671e-01
1.188333333333333286e+01,1.644185112700107813e+09,0.000000000000000000e+00,-5.039819478759610671e-01,0.000000000000000000e+00,-5.039819478759610671e-01
1.190000000000000036e+01,1.644185112717062473e+09,0.000000000000000000e+00,-5.039819478759610671e-01,0.000000000000000000e+00,-5.039819478759610671e-01
1.191666666666666607e+01,1.644185112734016895e+09,0.000000000000000000e+00,-4.959695162722094763e-01,0.000000000000000000e+00,-4.959695162722094763e-01
1.193333333333333357e+01,1.644185112750971794e+09,0.000000000000000000e+00,-5.039819478759610671e-01,0.000000000000000000e+00,-5.039819478759610671e-01
1.194999999999999929e+01,1.644185112768923998e+09,0.000000000000000000e+00,-4.959695162722094763e-01,0.000000000000000000e+00,-4.959695162722094763e-01
1.196666666666666679e+01,1.644185112784881115e+09,0.000000000000000000e+00,-5.039819478759610671e-01,0.000000000000000000e+00,-5.039819478759610671e-01
1.198333333333333250e+01,1.644185112801785231e+09,0.000000000000000000e+00,-4.959695162722094763e-01,0.000000000000000000e+00,-4.959695162722094763e-01
1.200000000000000000e+01,1.644185112820097208e+09,0.000000000000000000e+00,-5.039819478759610671e-01,0.000000000000000000e+00,-5.039819478759610671e-01
1.201666666666666572e+01,1.644185112838044405e+09,0.000000000000000000e+00,-9.446760498606000533e-01,0.000000000000000000e+00,-9.446760498606000533e-01
1.203333333333333321e+01,1.644185112854001045e+09,0.000000000000000000e+00,-9.185747716430835430e-01,0.000000000000000000e+00,-9.185747716430835430e-01
1.205000000000000071e+01,1.644185112870050192e+09,0.000000000000000000e+00,-9.763056651867680902e-01,0.000000000000000000e+00,-9.763056651867680902e-01
1.206666666666666643e+01,1.644185112887641907e+09,0.000000000000000000e+00,-1.052405479403444311e+00,0.000000000000000000e+00,-1.052405479403444311e+00
1.208333333333333393e+01,1.644185112905263662e+09,0.000000000000000000e+00,-1.062761968472683449e+00,0.000000000000000000e+00,-1.062761968472683449e+00
1.209999999999999964e+01,1.644185112922206879e+09,0.000000000000000000e+00,-1.112620467442229089e+00,0.000000000000000000e+00,-1.112620467442229089e+00
1.211666666666666714e+01,1.644185112940149784e+09,0.000000000000000000e+00,-1.065386099997396085e+00,0.000000000000000000e+00,-1.065386099997396085e+00
1.213333333333333286e+01,1.644185112956647396e+09,0.000000000000000000e+00,-1.104748072868090736e+00,0.000000000000000000e+00,-1.104748072868090736e+00
1.215000000000000036e+01,1.644185112972630501e+09,0.000000000000000000e+00,-9.579367445137774162e-01,0.000000000000000000e+00,-9.579367445137774162e-01
1.216666666666666607e+01,1.644185112989584684e+09,0.000000000000000000e+00,-9.159506401183705737e-01,0.000000000000000000e+00,-9.159506401183705737e-01
1.218333333333333357e+01,1.644185113006540537e+09,0.000000000000000000e+00,-5.039819478759610671e-01,0.000000000000000000e+00,-5.039819478759610671e-01
1.219999999999999929e+01,1.644185113023620605e+09,0.000000000000000000e+00,-4.959695162722094763e-01,0.000000000000000000e+00,-4.959695162722094763e-01
1.221666666666666679e+01,1.644185113042894602e+09,0.000000000000000000e+00,-9.158106030887578353e-01,0.000000000000000000e+00,-9.158106030887578353e-01
1.223333333333333250e+01,1.644185113060846806e+09,0.000000000000000000e+00,-9.263071291876099345e-01,0.000000000000000000e+00,-9.263071291876099345e-01
1.225000000000000000e+01,1.644185113077801466e+09,0.000000000000000000e+00,-4.959695162722094763e-01,0.000000000000000000e+00,-4.959695162722094763e-01
1.226666666666666572e+01,1.644185113093793392e+09,0.000000000000000000e+00,-5.039819478759610671e-01,0.000000000000000000e+00,-5.039819478759610671e-01
1.228333333333333321e+01,1.644185113109751701e+09,0.000000000000000000e+00,-5.039819478759610671e-01,0.000000000000000000e+00,-5.039819478759610671e-01
1.230000000000000071e+01,1.644185113124710798e+09,0.000000000000000000e+00,-4.959695162722094763e-01,0.000000000000000000e+00,-4.959695162722094763e-01
1.231666666666666643e+01,1.644185113142049789e+09,0.000000000000000000e+00,-5.039819478759610671e-01,0.000000000000000000e+00,-5.039819478759610671e-01
1.233333333333333393e+01,1.644185113160001755e+09,0.000000000000000000e+00,-4.959695162722094763e-01,0.000000000000000000e+00,-4.959695162722094763e-01
1.234999999999999964e+01,1.644185113176368952e+09,0.000000000000000000e+00,-5.039819478759610671e-01,0.000000000000000000e+00,-5.039819478759610671e-01
1.236666666666666714e+01,1.644185113192355156e+09,0.000000000000000000e+00,-4.959695162722094763e-01,0.000000000000000000e+00,-4.959695162722094763e-01
1.238333333333333286e+01,1.644185113209283590e+09,0.000000000000000000e+00,-5.039819478759610671e-01,0.000000000000000000e+00,-5.039819478759610671e-01
1.240000000000000036e+01,1.644185113226794243e+09,0.000000000000000000e+00,-4.959695162722094763e-01,0.000000000000000000e+00,-4.959695162722094763e-01
1.241666666666666607e+01,1.644185113244269848e+09,0.000000000000000000e+00,-4.959695162722094763e-01,0.000000000000000000e+00,-4.959695162722094763e-01
1.243333333333333357e+01,1.644185113262292385e+09,0.000000000000000000e+00,-5.039819478759610671e-01,0.000000000000000000e+00,-5.039819478759610671e-01
1.244999999999999929e+01,1.644185113276257753e+09,0.000000000000000000e+00,-4.959695162722094763e-01,0.000000000000000000e+00,-4.959695162722094763e-01
1.246666666666666679e+01,1.644185113294619322e+09,0.000000000000000000e+00,-5.039819478759610671e-01,0.000000000000000000e+00,-5.039819478759610671e-01
1.248333333333333250e+01,1.644185113311561108e+09,0.000000000000000000e+00,-5.039819478759610671e-01,0.000000000000000000e+00,-5.039819478759610671e-01
1.250000000000000000e+01,1.644185113328242064e+09,0.000000000000000000e+00,-4.959695162722094763e-01,0.000000000000000000e+00,-4.959695162722094763e-01
1.251666666666666572e+01,1.644185113346296072e+09,0.000000000000000000e+00,-5.039819478759610671e-01,0.000000000000000000e+00,-5.039819478759610671e-01
1.253333333333333321e+01,1.644185113363279104e+09,0.000000000000000000e+00,-9.131864715640447550e-01,0.000000000000000000e+00,-9.131864715640447550e-01
1.255000000000000071e+01,1.644185113379237413e+09,0.000000000000000000e+00,-9.789297967114815036e-01,0.000000000000000000e+00,-9.789297967114815036e-01
1.256666666666666643e+01,1.644185113396183252e+09,0.000000000000000000e+00,-1.083755020670386759e+00,0.000000000000000000e+00,-1.083755020670386759e+00
1.258333333333333393e+01,1.644185113414135218e+09,0.000000000000000000e+00,-1.044533084829305292e+00,0.000000000000000000e+00,-1.044533084829305292e+00
1.259999999999999964e+01,1.644185113431090355e+09,0.000000000000000000e+00,-1.112760504471842271e+00,0.000000000000000000e+00,-1.112760504471842271e+00
1.261666666666666714e+01,1.644185113447701454e+09,0.000000000000000000e+00,-1.159854834887062092e+00,0.000000000000000000e+00,-1.159854834887062092e+00
1.263333333333333286e+01,1.644185113465231895e+09,0.000000000000000000e+00,-1.259711869855767219e+00,0.000000000000000000e+00,-1.259711869855767219e+00
1.265000000000000036e+01,1.644185113482264042e+09,0.000000000000000000e+00,-1.251839475281628200e+00,0.000000000000000000e+00,-1.251839475281628200e+00
1.266666666666666607e+01,1.644185113499383926e+09,0.000000000000000000e+00,-1.115384635996554907e+00,0.000000000000000000e+00,-1.115384635996554907e+00
1.268333333333333357e+01,1.644185113516388893e+09,0.000000000000000000e+00,-1.034036558730453637e+00,0.000000000000000000e+00,-1.034036558730453637e+00
1.269999999999999929e+01,1.644185113533518076e+09,0.000000000000000000e+00,-9.840380227312948147e-01,0.000000000000000000e+00,-9.840380227312948147e-01
1.271666666666666679e+01,1.644185113551471949e+09,0.000000000000000000e+00,-1.018151732552563082e+00,0.000000000000000000e+00,-1.018151732552563082e+00
1.273333333333333250e+01,1.644185113568165302e+09,0.000000000000000000e+00,-1.044533084829305292e+00,0.000000000000000000e+00,-1.044533084829305292e+00
1.275000000000000000e+01,1.644185113585290194e+09,0.000000000000000000e+00,-1.133613519639933065e+00,0.000000000000000000e+00,-1.133613519639933065e+00
1.276666666666666572e+01,1.644185113602600336e+09,0.000000000000000000e+00,-1.225458123004885769e+00,0.000000000000000000e+00,-1.225458123004885769e+00
1.278333333333333321e+01,1.644185113620528221e+09,0.000000000000000000e+00,-1.249215343756915564e+00,0.000000000000000000e+00,-1.249215343756915564e+00
1.280000000000000071e+01,1.644185113637508154e+09,0.000000000000000000e+00,-1.264960132905192935e+00,0.000000000000000000e+00,-1.264960132905192935e+00
1.281666666666666643e+01,1.644185113653913260e+09,0.000000000000000000e+00,-1.225458123004885769e+00,0.000000000000000000e+00,-1.225458123004885769e+00
1.283333333333333393e+01,1.644185113669890404e+09,0.000000000000000000e+00,-1.196592676233043662e+00,0.000000000000000000e+00,-1.196592676233043662e+00
1.284999999999999964e+01,1.644185113689687014e+09,0.000000000000000000e+00,-1.246591212232202261e+00,0.000000000000000000e+00,-1.246591212232202261e+00
1.286666666666666714e+01,1.644185113705643892e+09,0.000000000000000000e+00,-1.193968544708331025e+00,0.000000000000000000e+00,-1.193968544708331025e+00
1.288333333333333286e+01,1.644185113721847296e+09,0.000000000000000000e+00,-1.299073842726461203e+00,0.000000000000000000e+00,-1.299073842726461203e+00
1.290000000000000036e+01,1.644185113738851547e+09,0.000000000000000000e+00,-1.288577316627609548e+00,0.000000000000000000e+00,-1.288577316627609548e+00
1.291666666666666607e+01,1.644185113755695820e+09,0.000000000000000000e+00,-1.246451175202589967e+00,0.000000000000000000e+00,-1.246451175202589967e+00
1.293333333333333357e+01,1.644185113772323608e+09,0.000000000000000000e+00,-1.212477502410934216e+00,0.000000000000000000e+00,-1.212477502410934216e+00
1.294999999999999929e+01,1.644185113789803982e+09,0.000000000000000000e+00,-1.209713333856608619e+00,0.000000000000000000e+00,-1.209713333856608619e+00
1.296666666666666679e+01,1.644185113809015989e+09,0.000000000000000000e+00,-1.165243134966101213e+00,0.000000000000000000e+00,-1.165243134966101213e+00
1.298333333333333250e+01,1.644185113824092865e+09,0.000000000000000000e+00,-1.047017179324405189e+00,0.000000000000000000e+00,-1.047017179324405189e+00
1.300000000000000000e+01,1.644185113844257116e+09,0.000000000000000000e+00,-1.041908953304591989e+00,0.000000000000000000e+00,-1.041908953304591989e+00
1.301666666666666572e+01,1.644185113859183073e+09,0.000000000000000000e+00,-1.018151732552563082e+00,0.000000000000000000e+00,-1.018151732552563082e+00
1.303333333333333321e+01,1.644185113878133059e+09,0.000000000000000000e+00,-1.007655206453711427e+00,0.000000000000000000e+00,-1.007655206453711427e+00
1.304999999999999893e+01,1.644185113895118952e+09,0.000000000000000000e+00,-9.919104173054331675e-01,0.000000000000000000e+00,-9.919104173054331675e-01
1.306666666666666643e+01,1.644185113911417723e+09,0.000000000000000000e+00,-5.039819478759610671e-01,0.000000000000000000e+00,-5.039819478759610671e-01
1.308333333333333393e+01,1.644185113927472115e+09,0.000000000000000000e+00,-5.039819478759610671e-01,0.000000000000000000e+00,-5.039819478759610671e-01
1.309999999999999964e+01,1.644185113945005417e+09,0.000000000000000000e+00,-5.039819478759610671e-01,0.000000000000000000e+00,-5.039819478759610671e-01
1.311666666666666714e+01,1.644185113960989714e+09,0.000000000000000000e+00,-5.039819478759610671e-01,0.000000000000000000e+00,-5.039819478759610671e-01
1.313333333333333286e+01,1.644185113978939772e+09,0.000000000000000000e+00,-4.959695162722094763e-01,0.000000000000000000e+00,-4.959695162722094763e-01
