# 
# 
# 
# 
# 
# 
# 
# 
# 
# 
# time,realtime,ref,inp,dis,state...
0.000000000000000000e+00,1.644185495045020580e+09,0.000000000000000000e+00,1.210678415326831958e+00,0.000000000000000000e+00,7.699946771205067320e-01
1.666666666666666644e-02,1.644185495047013760e+09,0.000000000000000000e+00,7.699946771205067320e-01,0.000000000000000000e+00,7.699946771205067320e-01
3.333333333333333287e-02,1.644185495049008369e+09,0.000000000000000000e+00,1.210678415326831958e+00,0.000000000000000000e+00,1.210678415326831958e+00
5.000000000000000278e-02,1.644185495066960335e+09,0.000000000000000000e+00,1.218690846930583715e+00,0.000000000000000000e+00,1.218690846930583715e+00
6.666666666666666574e-02,1.644185495081920385e+09,0.000000000000000000e+00,1.218690846930583715e+00,0.000000000000000000e+00,1.218690846930583715e+00
8.333333333333332871e-02,1.644185495100869656e+09,0.000000000000000000e+00,1.218690846930583715e+00,0.000000000000000000e+00,1.218690846930583715e+00
1.000000000000000056e-01,1.644185495115865707e+09,0.000000000000000000e+00,1.218690846930583715e+00,0.000000000000000000e+00,1.218690846930583715e+00
1.166666666666666685e-01,1.644185495132854223e+09,0.000000000000000000e+00,1.218690846930583715e+00,0.000000000000000000e+00,1.218690846930583715e+00
1.333333333333333315e-01,1.644185495150487661e+09,0.000000000000000000e+00,1.218690846930583715e+00,0.000000000000000000e+00,1.218690846930583715e+00
1.499999999999999944e-01,1.644185495166422606e+09,0.000000000000000000e+00,1.218690846930583715e+00,0.000000000000000000e+00,1.218690846930583715e+00
1.666666666666666574e-01,1.644185495185738087e+09,0.000000000000000000e+00,1.218690846930583715e+00,0.000000000000000000e+00,1.218690846930583715e+00
1.833333333333333204e-01,1.644185495202691555e+09,0.000000000000000000e+00,1.218690846930583715e+00,0.000000000000000000e+00,1.218690846930583715e+00
2.000000000000000111e-01,1.644185495217857599e+09,0.000000000000000000e+00,1.218690846930583715e+00,0.000000000000000000e+00,1.218690846930583715e+00
2.166666666666666741e-01,1.644185495235846043e+09,0.000000000000000000e+00,1.218690846930583715e+00,0.000000000000000000e+00,1.218690846930583715e+00
2.333333333333333370e-01,1.644185495253156185e+09,0.000000000000000000e+00,1.218690846930583715e+00,0.000000000000000000e+00,1.218690846930583715e+00
2.500000000000000000e-01,1.644185495270128727e+09,0.000000000000000000e+00,1.218690846930583715e+00,0.000000000000000000e+00,1.218690846930583715e+00
2.666666666666666630e-01,1.644185495287433147e+09,0.000000000000000000e+00,1.218690846930583715e+00,0.000000000000000000e+00,1.218690846930583715e+00
2.833333333333333259e-01,1.644185495305911064e+09,0.000000000000000000e+00,1.218690846930583715e+00,0.000000000000000000e+00,1.218690846930583715e+00
2.999999999999999889e-01,1.644185495321019888e+09,0.000000000000000000e+00,1.218690846930583715e+00,0.000000000000000000e+00,1.218690846930583715e+00
3.166666666666666519e-01,1.644185495337118387e+09,0.000000000000000000e+00,1.218690846930583715e+00,0.000000000000000000e+00,1.218690846930583715e+00
3.333333333333333148e-01,1.644185495355148077e+09,0.000000000000000000e+00,1.218690846930583715e+00,0.000000000000000000e+00,1.218690846930583715e+00
3.499999999999999778e-01,1.644185495372484207e+09,0.000000000000000000e+00,1.218690846930583715e+00,0.000000000000000000e+00,1.218690846930583715e+00
3.666666666666666408e-01,1.644185495389725685e+09,0.000000000000000000e+00,1.218690846930583715e+00,0.000000000000000000e+00,1.218690846930583715e+00
3.833333333333333037e-01,1.644185495407432795e+09,0.000000000000000000e+00,1.218690846930583715e+00,0.000000000000000000e+00,1.218690846930583715e+00
4.000000000000000222e-01,1.644185495425828695e+09,0.000000000000000000e+00,1.218690846930583715e+00,0.000000000000000000e+00,1.218690846930583715e+00
4.166666666666666852e-01,1.644185495441815138e+09,0.000000000000000000e+00,1.218690846930583715e+00,0.000000000000000000e+00,1.218690846930583715e+00
4.333333333333333481e-01,1.644185495458412409e+09,0.000000000000000000e+00,1.218690846930583715e+00,0.000000000000000000e+00,1.218690846930583715e+00
4.500000000000000111e-01,1.644185495475478888e+09,0.000000000000000000e+00,1.218690846930583715e+00,0.000000000000000000e+00,1.218690846930583715e+00
4.666666666666666741e-01,1.644185495492968798e+09,0.000000000000000000e+00,1.218690846930583715e+00,0.000000000000000000e+00,1.218690846930583715e+00
4.833333333333333370e-01,1.644185495511335135e+09,0.000000000000000000e+00,1.218690846930583715e+00,0.000000000000000000e+00,1.218690846930583715e+00
5.000000000000000000e-01,1.644185495524512768e+09,0.000000000000000000e+00,1.218690846930583715e+00,0.000000000000000000e+00,1.218690846930583715e+00
5.166666666666666075e-01,1.644185495541580439e+09,0.000000000000000000e+00,1.226703278534335029e+00,0.000000000000000000e+00,1.226703278534335029e+00
5.333333333333333259e-01,1.644185495559782982e+09,0.000000000000000000e+00,1.218690846930583715e+00,0.000000000000000000e+00,1.218690846930583715e+00
5.500000000000000444e-01,1.644185495575711727e+09,0.000000000000000000e+00,1.218690846930583715e+00,0.000000000000000000e+00,1.218690846930583715e+00
5.666666666666666519e-01,1.644185495591996908e+09,0.000000000000000000e+00,1.218690846930583715e+00,0.000000000000000000e+00,1.218690846930583715e+00
5.833333333333333703e-01,1.644185495609983206e+09,0.000000000000000000e+00,1.218690846930583715e+00,0.000000000000000000e+00,1.218690846930583715e+00
5.999999999999999778e-01,1.644185495627310753e+09,0.000000000000000000e+00,1.218690846930583715e+00,0.000000000000000000e+00,1.218690846930583715e+00
6.166666666666666963e-01,1.644185495644398212e+09,0.000000000000000000e+00,1.218690846930583715e+00,0.000000000000000000e+00,1.218690846930583715e+00
6.333333333333333037e-01,1.644185495659572840e+09,0.000000000000000000e+00,1.218690846930583715e+00,0.000000000000000000e+00,1.218690846930583715e+00
6.500000000000000222e-01,1.644185495677846909e+09,0.000000000000000000e+00,1.218690846930583715e+00,0.000000000000000000e+00,1.218690846930583715e+00
6.666666666666666297e-01,1.644185495693111181e+09,0.000000000000000000e+00,1.218690846930583715e+00,0.000000000000000000e+00,1.218690846930583715e+00
6.833333333333333481e-01,1.644185495710063934e+09,0.000000000000000000e+00,1.218690846930583715e+00,0.000000000000000000e+00,1.218690846930583715e+00
6.999999999999999556e-01,1.644185495728022337e+09,0.000000000000000000e+00,1.218690846930583715e+00,0.000000000000000000e+00,1.218690846930583715e+00
7.166666666666666741e-01,1.644185495743084192e+09,0.000000000000000000e+00,1.218690846930583715e+00,0.000000000000000000e+00,1.218690846930583715e+00
7.333333333333332815e-01,1.644185495761433840e+09,0.000000000000000000e+00,1.218690846930583715e+00,0.000000000000000000e+00,1.218690846930583715e+00
7.500000000000000000e-01,1.644185495779235840e+09,0.000000000000000000e+00,1.218690846930583715e+00,0.000000000000000000e+00,1.218690846930583715e+00
7.666666666666666075e-01,1.644185495796290159e+09,0.000000000000000000e+00,1.218690846930583715e+00,0.000000000000000000e+00,1.218690846930583715e+00
7.833333333333333259e-01,1.644185495812758923e+09,0.000000000000000000e+00,1.218690846930583715e+00,0.000000000000000000e+00,1.218690846930583715e+00
8.000000000000000444e-01,1.644185495828960419e+09,0.000000000000000000e+00,1.218690846930583715e+00,0.000000000000000000e+00,1.218690846930583715e+00
8.166666666666666519e-01,1.644185495844316721e+09,0.000000000000000000e+00,1.218690846930583715e+00,0.000000000000000000e+00,1.218690846930583715e+00
8.333333333333333703e-01,1.644185495863255978e+09,0.000000000000000000e+00,1.218690846930583715e+00,0.000000000000000000e+00,1.218690846930583715e+00
8.499999999999999778e-01,1.644185495880539179e+09,0.000000000000000000e+00,1.218690846930583715e+00,0.000000000000000000e+00,1.218690846930583715e+00
8.666666666666666963e-01,1.644185495896735668e+09,0.000000000000000000e+00,1.218690846930583715e+00,0.000000000000000000e+00,1.218690846930583715e+00
8.833333333333333037e-01,1.644185495913921118e+09,0.000000000000000000e+00,1.218690846930583715e+00,0.000000000000000000e+00,1.218690846930583715e+00
9.000000000000000222e-01,1.644185495930879593e+09,0.000000000000000000e+00,1.218690846930583715e+00,0.000000000000000000e+00,1.218690846930583715e+00
9.166666666666666297e-01,1.644185495947806358e+09,0.000000000000000000e+00,1.218690846930583715e+00,0.000000000000000000e+00,1.218690846930583715e+00
9.333333333333333481e-01,1.644185495964489222e+09,0.000000000000000000e+00,1.218690846930583715e+00,0.000000000000000000e+00,1.218690846930583715e+00
9.499999999999999556e-01,1.644185495980488777e+09,0.000000000000000000e+00,1.218690846930583715e+00,0.000000000000000000e+00,1.218690846930583715e+00
9.666666666666666741e-01,1.644185495999573708e+09,0.000000000000000000e+00,1.218690846930583715e+00,0.000000000000000000e+00,1.218690846930583715e+00
9.833333333333332815e-01,1.644185496016663551e+09,0.000000000000000000e+00,1.218690846930583715e+00,0.000000000000000000e+00,1.218690846930583715e+00
1.000000000000000000e+00,1.644185496035068989e+09,0.000000000000000000e+00,1.218690846930583715e+00,0.000000000000000000e+00,1.218690846930583715e+00
1.016666666666666607e+00,1.644185496051021099e+09,0.000000000000000000e+00,1.218690846930583715e+00,0.000000000000000000e+00,1.218690846930583715e+00
1.033333333333333215e+00,1.644185496069039345e+09,0.000000000000000000e+00,1.218690846930583715e+00,0.000000000000000000e+00,1.218690846930583715e+00
1.050000000000000044e+00,1.644185496083150148e+09,0.000000000000000000e+00,1.218690846930583715e+00,0.000000000000000000e+00,1.218690846930583715e+00
1.066666666666666652e+00,1.644185496100780010e+09,0.000000000000000000e+00,1.218690846930583715e+00,0.000000000000000000e+00,1.218690846930583715e+00
1.083333333333333259e+00,1.644185496117784023e+09,0.000000000000000000e+00,1.218690846930583715e+00,0.000000000000000000e+00,1.218690846930583715e+00
1.100000000000000089e+00,1.644185496136295319e+09,0.000000000000000000e+00,1.218690846930583715e+00,0.000000000000000000e+00,1.218690846930583715e+00
1.116666666666666696e+00,1.644185496154060602e+09,0.000000000000000000e+00,1.218690846930583715e+00,0.000000000000000000e+00,1.218690846930583715e+00
1.133333333333333304e+00,1.644185496171426058e+09,0.000000000000000000e+00,1.218690846930583715e+00,0.000000000000000000e+00,1.218690846930583715e+00
1.149999999999999911e+00,1.644185496185730457e+09,0.000000000000000000e+00,1.218690846930583715e+00,0.000000000000000000e+00,1.218690846930583715e+00
1.166666666666666741e+00,1.644185496203658819e+09,0.000000000000000000e+00,1.218690846930583715e+00,0.000000000000000000e+00,1.218690846930583715e+00
1.183333333333333348e+00,1.644185496221071482e+09,0.000000000000000000e+00,1.218690846930583715e+00,0.000000000000000000e+00,1.218690846930583715e+00
1.199999999999999956e+00,1.644185496237506390e+09,0.000000000000000000e+00,1.218690846930583715e+00,0.000000000000000000e+00,1.218690846930583715e+00
1.216666666666666563e+00,1.644185496255963087e+09,0.000000000000000000e+00,1.218690846930583715e+00,0.000000000000000000e+00,1.218690846930583715e+00
1.233333333333333393e+00,1.644185496272659302e+09,0.000000000000000000e+00,1.218690846930583715e+00,0.000000000000000000e+00,1.218690846930583715e+00
1.250000000000000000e+00,1.644185496289796591e+09,0.000000000000000000e+00,1.218690846930583715e+00,0.000000000000000000e+00,1.218690846930583715e+00
1.266666666666666607e+00,1.644185496307027102e+09,0.000000000000000000e+00,1.218690846930583715e+00,0.000000000000000000e+00,1.218690846930583715e+00
1.283333333333333215e+00,1.644185496324949265e+09,0.000000000000000000e+00,1.218690846930583715e+00,0.000000000000000000e+00,1.218690846930583715e+00
1.300000000000000044e+00,1.644185496339174986e+09,0.000000000000000000e+00,1.218690846930583715e+00,0.000000000000000000e+00,1.218690846930583715e+00
1.316666666666666652e+00,1.644185496358480215e+09,0.000000000000000000e+00,1.218690846930583715e+00,0.000000000000000000e+00,1.218690846930583715e+00
1.333333333333333259e+00,1.644185496373782873e+09,0.000000000000000000e+00,1.218690846930583715e+00,0.000000000000000000e+00,1.218690846930583715e+00
1.350000000000000089e+00,1.644185496392081499e+09,0.000000000000000000e+00,1.218690846930583715e+00,0.000000000000000000e+00,1.218690846930583715e+00
1.366666666666666696e+00,1.644185496407046795e+09,0.000000000000000000e+00,1.218690846930583715e+00,0.000000000000000000e+00,1.218690846930583715e+00
1.383333333333333304e+00,1.644185496424345016e+09,0.000000000000000000e+00,1.218690846930583715e+00,0.000000000000000000e+00,1.218690846930583715e+00
1.399999999999999911e+00,1.644185496442689896e+09,0.000000000000000000e+00,1.218690846930583715e+00,0.000000000000000000e+00,1.218690846930583715e+00
1.416666666666666741e+00,1.644185496461071014e+09,0.000000000000000000e+00,1.218690846930583715e+00,0.000000000000000000e+00,1.218690846930583715e+00
1.433333333333333348e+00,1.644185496478173494e+09,0.000000000000000000e+00,1.218690846930583715e+00,0.000000000000000000e+00,1.218690846930583715e+00
1.449999999999999956e+00,1.644185496493549109e+09,0.000000000000000000e+00,1.218690846930583715e+00,0.000000000000000000e+00,1.218690846930583715e+00
1.466666666666666563e+00,1.644185496510142803e+09,0.000000000000000000e+00,1.218690846930583715e+00,0.000000000000000000e+00,1.218690846930583715e+00
1.483333333333333393e+00,1.644185496528097153e+09,0.000000000000000000e+00,1.218690846930583715e+00,0.000000000000000000e+00,1.218690846930583715e+00
1.500000000000000000e+00,1.644185496545592070e+09,0.000000000000000000e+00,1.218690846930583715e+00,0.000000000000000000e+00,1.218690846930583715e+00
1.516666666666666607e+00,1.644185496563531160e+09,0.000000000000000000e+00,1.218690846930583715e+00,0.000000000000000000e+00,1.218690846930583715e+00
1.533333333333333215e+00,1.644185496580810785e+09,0.000000000000000000e+00,1.218690846930583715e+00,0.000000000000000000e+00,1.218690846930583715e+00
1.550000000000000044e+00,1.644185496596330881e+09,0.000000000000000000e+00,1.218690846930583715e+00,0.000000000000000000e+00,1.218690846930583715e+00
1.566666666666666652e+00,1.644185496614320040e+09,0.000000000000000000e+00,1.218690846930583715e+00,0.000000000000000000e+00,1.218690846930583715e+00
1.583333333333333259e+00,1.644185496631742477e+09,0.000000000000000000e+00,1.218690846930583715e+00,0.000000000000000000e+00,1.218690846930583715e+00
1.600000000000000089e+00,1.644185496648847580e+09,0.000000000000000000e+00,1.218690846930583715e+00,0.000000000000000000e+00,1.218690846930583715e+00
1.616666666666666696e+00,1.644185496666319847e+09,0.000000000000000000e+00,1.218690846930583715e+00,0.000000000000000000e+00,1.218690846930583715e+00
1.633333333333333304e+00,1.644185496683297157e+09,0.000000000000000000e+00,1.218690846930583715e+00,0.000000000000000000e+00,1.218690846930583715e+00
1.649999999999999911e+00,1.644185496699501753e+09,0.000000000000000000e+00,1.218690846930583715e+00,0.000000000000000000e+00,1.218690846930583715e+00
1.666666666666666741e+00,1.644185496716813087e+09,0.000000000000000000e+00,1.218690846930583715e+00,0.000000000000000000e+00,1.218690846930583715e+00
1.683333333333333348e+00,1.644185496734275103e+09,0.000000000000000000e+00,1.218690846930583715e+00,0.000000000000000000e+00,1.218690846930583715e+00
1.699999999999999956e+00,1.644185496751470804e+09,0.000000000000000000e+00,1.218690846930583715e+00,0.000000000000000000e+00,1.218690846930583715e+00
1.716666666666666563e+00,1.644185496769003391e+09,0.000000000000000000e+00,1.218690846930583715e+00,0.000000000000000000e+00,1.218690846930583715e+00
1.733333333333333393e+00,1.644185496786108017e+09,0.000000000000000000e+00,1.218690846930583715e+00,0.000000000000000000e+00,1.218690846930583715e+00
1.750000000000000000e+00,1.644185496802760839e+09,0.000000000000000000e+00,1.218690846930583715e+00,0.000000000000000000e+00,1.218690846930583715e+00
1.766666666666666607e+00,1.644185496819382906e+09,0.000000000000000000e+00,1.218690846930583715e+00,0.000000000000000000e+00,1.218690846930583715e+00
1.783333333333333215e+00,1.644185496836333275e+09,0.000000000000000000e+00,1.218690846930583715e+00,0.000000000000000000e+00,1.218690846930583715e+00
1.800000000000000044e+00,1.644185496852626562e+09,0.000000000000000000e+00,1.218690846930583715e+00,0.000000000000000000e+00,1.218690846930583715e+00
1.816666666666666652e+00,1.644185496869713068e+09,0.000000000000000000e+00,1.218690846930583715e+00,0.000000000000000000e+00,1.218690846930583715e+00
1.833333333333333259e+00,1.644185496885798454e+09,0.000000000000000000e+00,1.218690846930583715e+00,0.000000000000000000e+00,1.218690846930583715e+00
1.849999999999999867e+00,1.644185496902987480e+09,0.000000000000000000e+00,1.218690846930583715e+00,0.000000000000000000e+00,1.218690846930583715e+00
1.866666666666666696e+00,1.644185496918590307e+09,0.000000000000000000e+00,1.218690846930583715e+00,0.000000000000000000e+00,1.218690846930583715e+00
1.883333333333333304e+00,1.644185496935806990e+09,0.000000000000000000e+00,1.218690846930583715e+00,0.000000000000000000e+00,1.218690846930583715e+00
1.899999999999999911e+00,1.644185496952300310e+09,0.000000000000000000e+00,1.218690846930583715e+00,0.000000000000000000e+00,1.218690846930583715e+00
1.916666666666666741e+00,1.644185496968806028e+09,0.000000000000000000e+00,1.218690846930583715e+00,0.000000000000000000e+00,1.218690846930583715e+00
1.933333333333333348e+00,1.644185496985519171e+09,0.000000000000000000e+00,1.218690846930583715e+00,0.000000000000000000e+00,1.218690846930583715e+00
1.949999999999999956e+00,1.644185497004712343e+09,0.000000000000000000e+00,1.218690846930583715e+00,0.000000000000000000e+00,1.218690846930583715e+00
1.966666666666666563e+00,1.644185497020696878e+09,0.000000000000000000e+00,1.218690846930583715e+00,0.000000000000000000e+00,1.218690846930583715e+00
1.983333333333333393e+00,1.644185497037624359e+09,0.000000000000000000e+00,1.218690846930583715e+00,0.000000000000000000e+00,1.218690846930583715e+00
2.000000000000000000e+00,1.644185497057925224e+09,0.000000000000000000e+00,1.218690846930583715e+00,0.000000000000000000e+00,1.218690846930583715e+00
2.016666666666666607e+00,1.644185497073322773e+09,0.000000000000000000e+00,1.218690846930583715e+00,0.000000000000000000e+00,1.218690846930583715e+00
2.033333333333333215e+00,1.644185497087902308e+09,0.000000000000000000e+00,1.218690846930583715e+00,0.000000000000000000e+00,1.218690846930583715e+00
2.049999999999999822e+00,1.644185497106941462e+09,0.000000000000000000e+00,1.218690846930583715e+00,0.000000000000000000e+00,1.218690846930583715e+00
2.066666666666666430e+00,1.644185497122298956e+09,0.000000000000000000e+00,1.218690846930583715e+00,0.000000000000000000e+00,1.218690846930583715e+00
2.083333333333333481e+00,1.644185497139255285e+09,0.000000000000000000e+00,1.218690846930583715e+00,0.000000000000000000e+00,1.218690846930583715e+00
2.100000000000000089e+00,1.644185497155424595e+09,0.000000000000000000e+00,1.218690846930583715e+00,0.000000000000000000e+00,1.218690846930583715e+00
2.116666666666666696e+00,1.644185497173346996e+09,0.000000000000000000e+00,1.218690846930583715e+00,0.000000000000000000e+00,1.218690846930583715e+00
2.133333333333333304e+00,1.644185497189304113e+09,0.000000000000000000e+00,1.218690846930583715e+00,0.000000000000000000e+00,1.218690846930583715e+00
2.149999999999999911e+00,1.644185497206256390e+09,0.000000000000000000e+00,1.218690846930583715e+00,0.000000000000000000e+00,1.218690846930583715e+00
2.166666666666666519e+00,1.644185497223213434e+09,0.000000000000000000e+00,1.218690846930583715e+00,0.000000000000000000e+00,1.218690846930583715e+00
2.183333333333333126e+00,1.644185497240188122e+09,0.000000000000000000e+00,1.218690846930583715e+00,0.000000000000000000e+00,1.218690846930583715e+00
2.200000000000000178e+00,1.644185497259117842e+09,0.000000000000000000e+00,1.218690846930583715e+00,0.000000000000000000e+00,1.218690846930583715e+00
2.216666666666666785e+00,1.644185497274075270e+09,0.000000000000000000e+00,1.218690846930583715e+00,0.000000000000000000e+00,1.218690846930583715e+00
2.233333333333333393e+00,1.644185497292034864e+09,0.000000000000000000e+00,1.218690846930583715e+00,0.000000000000000000e+00,1.218690846930583715e+00
2.250000000000000000e+00,1.644185497307986498e+09,0.000000000000000000e+00,1.210678415326831958e+00,0.000000000000000000e+00,1.210678415326831958e+00
2.266666666666666607e+00,1.644185497325182438e+09,0.000000000000000000e+00,1.218690846930583715e+00,0.000000000000000000e+00,1.218690846930583715e+00
2.283333333333333215e+00,1.644185497343129396e+09,0.000000000000000000e+00,1.218690846930583715e+00,0.000000000000000000e+00,1.218690846930583715e+00
2.299999999999999822e+00,1.644185497359080076e+09,0.000000000000000000e+00,1.218690846930583715e+00,0.000000000000000000e+00,1.218690846930583715e+00
2.316666666666666430e+00,1.644185497376151800e+09,0.000000000000000000e+00,1.218690846930583715e+00,0.000000000000000000e+00,1.218690846930583715e+00
2.333333333333333481e+00,1.644185497393246889e+09,0.000000000000000000e+00,1.218690846930583715e+00,0.000000000000000000e+00,1.218690846930583715e+00
2.350000000000000089e+00,1.644185497411227942e+09,0.000000000000000000e+00,1.218690846930583715e+00,0.000000000000000000e+00,1.218690846930583715e+00
2.366666666666666696e+00,1.644185497427182913e+09,0.000000000000000000e+00,1.218690846930583715e+00,0.000000000000000000e+00,1.218690846930583715e+00
2.383333333333333304e+00,1.644185497443498850e+09,0.000000000000000000e+00,1.218690846930583715e+00,0.000000000000000000e+00,1.218690846930583715e+00
2.399999999999999911e+00,1.644185497462044716e+09,0.000000000000000000e+00,1.218690846930583715e+00,0.000000000000000000e+00,1.218690846930583715e+00
2.416666666666666519e+00,1.644185497478996992e+09,0.000000000000000000e+00,1.218690846930583715e+00,0.000000000000000000e+00,1.218690846930583715e+00
2.433333333333333126e+00,1.644185497495337963e+09,0.000000000000000000e+00,1.218690846930583715e+00,0.000000000000000000e+00,1.218690846930583715e+00
2.450000000000000178e+00,1.644185497513317108e+09,0.000000000000000000e+00,1.218690846930583715e+00,0.000000000000000000e+00,1.218690846930583715e+00
2.466666666666666785e+00,1.644185497529279947e+09,0.000000000000000000e+00,1.218690846930583715e+00,0.000000000000000000e+00,1.218690846930583715e+00
2.483333333333333393e+00,1.644185497545367002e+09,0.000000000000000000e+00,1.218690846930583715e+00,0.000000000000000000e+00,1.218690846930583715e+00
2.500000000000000000e+00,1.644185497561685085e+09,0.000000000000000000e+00,1.218690846930583715e+00,0.000000000000000000e+00,1.218690846930583715e+00
2.516666666666666607e+00,1.644185497580648184e+09,0.000000000000000000e+00,1.218690846930583715e+00,0.000000000000000000e+00,1.218690846930583715e+00
2.533333333333333215e+00,1.644185497597032547e+09,0.000000000000000000e+00,1.210678415326831958e+00,0.000000000000000000e+00,1.210678415326831958e+00
2.549999999999999822e+00,1.644185497611931086e+09,0.000000000000000000e+00,1.210678415326831958e+00,0.000000000000000000e+00,1.210678415326831958e+00
2.566666666666666430e+00,1.644185497629717827e+09,0.000000000000000000e+00,1.202665983723080645e+00,0.000000000000000000e+00,1.202665983723080645e+00
2.583333333333333481e+00,1.644185497649025440e+09,0.000000000000000000e+00,1.186641120515578240e+00,0.000000000000000000e+00,1.186641120515578240e+00
2.600000000000000089e+00,1.644185497665671110e+09,0.000000000000000000e+00,1.178628688911826483e+00,0.000000000000000000e+00,1.178628688911826483e+00
2.616666666666666696e+00,1.644185497680900097e+09,0.000000000000000000e+00,1.154591394100572765e+00,0.000000000000000000e+00,1.154591394100572765e+00
2.633333333333333304e+00,1.644185497698906183e+09,0.000000000000000000e+00,1.130554099289318382e+00,0.000000000000000000e+00,1.130554099289318382e+00
2.649999999999999911e+00,1.644185497716833115e+09,0.000000000000000000e+00,1.122541667685567290e+00,0.000000000000000000e+00,1.122541667685567290e+00
2.666666666666666519e+00,1.644185497732329607e+09,0.000000000000000000e+00,1.098504372874312907e+00,0.000000000000000000e+00,1.098504372874312907e+00
2.683333333333333126e+00,1.644185497748065233e+09,0.000000000000000000e+00,1.090491941270561815e+00,0.000000000000000000e+00,1.090491941270561815e+00
2.700000000000000178e+00,1.644185497767155170e+09,0.000000000000000000e+00,1.082479509666810502e+00,0.000000000000000000e+00,1.082479509666810502e+00
2.716666666666666785e+00,1.644185497783387184e+09,0.000000000000000000e+00,1.082479509666810502e+00,0.000000000000000000e+00,1.082479509666810502e+00
2.733333333333333393e+00,1.644185497801317692e+09,0.000000000000000000e+00,1.082479509666810502e+00,0.000000000000000000e+00,1.082479509666810502e+00
2.750000000000000000e+00,1.644185497818436384e+09,0.000000000000000000e+00,1.066454646459307432e+00,0.000000000000000000e+00,1.066454646459307432e+00
2.766666666666666607e+00,1.644185497834739685e+09,0.000000000000000000e+00,1.066454646459307432e+00,0.000000000000000000e+00,1.066454646459307432e+00
2.783333333333333215e+00,1.644185497852667809e+09,0.000000000000000000e+00,1.058442214855556340e+00,0.000000000000000000e+00,1.058442214855556340e+00
2.799999999999999822e+00,1.644185497868138075e+09,0.000000000000000000e+00,1.042417351648053270e+00,0.000000000000000000e+00,1.042417351648053270e+00
2.816666666666666430e+00,1.644185497885557175e+09,0.000000000000000000e+00,1.026392488440550643e+00,0.000000000000000000e+00,1.026392488440550643e+00
2.833333333333333481e+00,1.644185497901490688e+09,0.000000000000000000e+00,1.010367625233047795e+00,0.000000000000000000e+00,1.010367625233047795e+00
2.850000000000000089e+00,1.644185497918445587e+09,0.000000000000000000e+00,9.943427620255452792e-01,0.000000000000000000e+00,9.943427620255452792e-01
2.866666666666666696e+00,1.644185497936421156e+09,0.000000000000000000e+00,9.863303304217939660e-01,0.000000000000000000e+00,9.863303304217939660e-01
2.883333333333333304e+00,1.644185497951357841e+09,0.000000000000000000e+00,9.622930356105396932e-01,0.000000000000000000e+00,9.622930356105396932e-01
2.899999999999999911e+00,1.644185497969309807e+09,0.000000000000000000e+00,9.542806040067884910e-01,0.000000000000000000e+00,9.542806040067884910e-01
2.916666666666666519e+00,1.644185497987262011e+09,0.000000000000000000e+00,9.382557407992854204e-01,0.000000000000000000e+00,9.382557407992854204e-01
2.933333333333333126e+00,1.644185498004217148e+09,0.000000000000000000e+00,9.222308775917830159e-01,0.000000000000000000e+00,9.222308775917830159e-01
2.950000000000000178e+00,1.644185498020810604e+09,0.000000000000000000e+00,9.062060143842799453e-01,0.000000000000000000e+00,9.062060143842799453e-01
2.966666666666666785e+00,1.644185498036515951e+09,0.000000000000000000e+00,8.821687195730256725e-01,0.000000000000000000e+00,8.821687195730256725e-01
2.983333333333333393e+00,1.644185498053090096e+09,0.000000000000000000e+00,8.661438563655232681e-01,0.000000000000000000e+00,8.661438563655232681e-01
3.000000000000000000e+00,1.644185498073205233e+09,0.000000000000000000e+00,8.340941299505177930e-01,0.000000000000000000e+00,8.340941299505177930e-01
3.016666666666666607e+00,1.644185498089167833e+09,0.000000000000000000e+00,8.180692667430152776e-01,0.000000000000000000e+00,8.180692667430152776e-01
3.033333333333333215e+00,1.644185498105114222e+09,0.000000000000000000e+00,7.780071087242579342e-01,0.000000000000000000e+00,7.780071087242579342e-01
3.049999999999999822e+00,1.644185498122205019e+09,0.000000000000000000e+00,7.539698139130043275e-01,0.000000000000000000e+00,7.539698139130043275e-01
3.066666666666666430e+00,1.644185498137758255e+09,0.000000000000000000e+00,7.299325191017500547e-01,0.000000000000000000e+00,7.299325191017500547e-01
3.083333333333333481e+00,1.644185498156683683e+09,0.000000000000000000e+00,6.978827926867445797e-01,0.000000000000000000e+00,6.978827926867445797e-01
3.100000000000000089e+00,1.644185498172641993e+09,0.000000000000000000e+00,6.818579294792415091e-01,0.000000000000000000e+00,6.818579294792415091e-01
3.116666666666666696e+00,1.644185498189594984e+09,0.000000000000000000e+00,6.818579294792415091e-01,0.000000000000000000e+00,6.818579294792415091e-01
3.133333333333333304e+00,1.644185498205572605e+09,0.000000000000000000e+00,6.818579294792415091e-01,0.000000000000000000e+00,6.818579294792415091e-01
3.149999999999999911e+00,1.644185498224830151e+09,0.000000000000000000e+00,6.818579294792415091e-01,0.000000000000000000e+00,6.818579294792415091e-01
3.166666666666666519e+00,1.644185498241783619e+09,0.000000000000000000e+00,6.818579294792415091e-01,0.000000000000000000e+00,6.818579294792415091e-01
3.183333333333333126e+00,1.644185498258764029e+09,0.000000000000000000e+00,6.738454978754903069e-01,0.000000000000000000e+00,6.738454978754903069e-01
3.200000000000000178e+00,1.644185498273756742e+09,0.000000000000000000e+00,6.818579294792415091e-01,0.000000000000000000e+00,6.818579294792415091e-01
3.216666666666666785e+00,1.644185498291876554e+09,0.000000000000000000e+00,6.818579294792415091e-01,0.000000000000000000e+00,6.818579294792415091e-01
3.233333333333333393e+00,1.644185498309840918e+09,0.000000000000000000e+00,6.818579294792415091e-01,0.000000000000000000e+00,6.818579294792415091e-01
3.250000000000000000e+00,1.644185498328784227e+09,0.000000000000000000e+00,6.818579294792415091e-01,0.000000000000000000e+00,6.818579294792415091e-01
3.266666666666666607e+00,1.644185498344747782e+09,0.000000000000000000e+00,6.738454978754903069e-01,0.000000000000000000e+00,6.738454978754903069e-01
3.283333333333333215e+00,1.644185498358713627e+09,0.000000000000000000e+00,6.818579294792415091e-01,0.000000000000000000e+00,6.818579294792415091e-01
3.299999999999999822e+00,1.644185498377660513e+09,0.000000000000000000e+00,6.738454978754903069e-01,0.000000000000000000e+00,6.738454978754903069e-01
3.316666666666666430e+00,1.644185498394636393e+09,0.000000000000000000e+00,6.818579294792415091e-01,0.000000000000000000e+00,6.818579294792415091e-01
3.333333333333333481e+00,1.644185498411589384e+09,0.000000000000000000e+00,6.738454978754903069e-01,0.000000000000000000e+00,6.738454978754903069e-01
3.350000000000000089e+00,1.644185498428549528e+09,0.000000000000000000e+00,6.738454978754903069e-01,0.000000000000000000e+00,6.738454978754903069e-01
3.366666666666666696e+00,1.644185498442460775e+09,0.000000000000000000e+00,6.818579294792415091e-01,0.000000000000000000e+00,6.818579294792415091e-01
3.383333333333333304e+00,1.644185498460269690e+09,0.000000000000000000e+00,6.818579294792415091e-01,0.000000000000000000e+00,6.818579294792415091e-01
3.399999999999999911e+00,1.644185498478201389e+09,0.000000000000000000e+00,6.818579294792415091e-01,0.000000000000000000e+00,6.818579294792415091e-01
3.416666666666666519e+00,1.644185498493496180e+09,0.000000000000000000e+00,6.818579294792415091e-01,0.000000000000000000e+00,6.818579294792415091e-01
3.433333333333333126e+00,1.644185498512810707e+09,0.000000000000000000e+00,6.818579294792415091e-01,0.000000000000000000e+00,6.818579294792415091e-01
3.449999999999999734e+00,1.644185498529232264e+09,0.000000000000000000e+00,6.818579294792415091e-01,0.000000000000000000e+00,6.818579294792415091e-01
3.466666666666666785e+00,1.644185498546153784e+09,0.000000000000000000e+00,6.738454978754903069e-01,0.000000000000000000e+00,6.738454978754903069e-01
3.483333333333333393e+00,1.644185498563153028e+09,0.000000000000000000e+00,6.818579294792415091e-01,0.000000000000000000e+00,6.818579294792415091e-01
3.500000000000000000e+00,1.644185498581272602e+09,0.000000000000000000e+00,6.738454978754903069e-01,0.000000000000000000e+00,6.738454978754903069e-01
3.516666666666666607e+00,1.644185498597222090e+09,0.000000000000000000e+00,6.738454978754903069e-01,0.000000000000000000e+00,6.738454978754903069e-01
3.533333333333333215e+00,1.644185498615437508e+09,0.000000000000000000e+00,6.738454978754903069e-01,0.000000000000000000e+00,6.738454978754903069e-01
3.549999999999999822e+00,1.644185498632602930e+09,0.000000000000000000e+00,6.658330662717389936e-01,0.000000000000000000e+00,6.658330662717389936e-01
3.566666666666666430e+00,1.644185498647583485e+09,0.000000000000000000e+00,6.578206346679877914e-01,0.000000000000000000e+00,6.578206346679877914e-01
3.583333333333333481e+00,1.644185498665651321e+09,0.000000000000000000e+00,6.417957714604847208e-01,0.000000000000000000e+00,6.417957714604847208e-01
3.600000000000000089e+00,1.644185498681996584e+09,0.000000000000000000e+00,6.337833398567335186e-01,0.000000000000000000e+00,6.337833398567335186e-01
3.616666666666666696e+00,1.644185498699947119e+09,0.000000000000000000e+00,6.257709082529823164e-01,0.000000000000000000e+00,6.257709082529823164e-01
3.633333333333333304e+00,1.644185498716648102e+09,0.000000000000000000e+00,6.097460450454792458e-01,0.000000000000000000e+00,6.097460450454792458e-01
3.649999999999999911e+00,1.644185498733623266e+09,0.000000000000000000e+00,6.017336134417280435e-01,0.000000000000000000e+00,6.017336134417280435e-01
3.666666666666666519e+00,1.644185498749559641e+09,0.000000000000000000e+00,5.937211818379768413e-01,0.000000000000000000e+00,5.937211818379768413e-01
3.683333333333333126e+00,1.644185498768741608e+09,0.000000000000000000e+00,5.857087502342256391e-01,0.000000000000000000e+00,5.857087502342256391e-01
3.699999999999999734e+00,1.644185498784475803e+09,0.000000000000000000e+00,5.696838870267225685e-01,0.000000000000000000e+00,5.696838870267225685e-01
3.716666666666666785e+00,1.644185498802049398e+09,0.000000000000000000e+00,5.536590238192200530e-01,0.000000000000000000e+00,5.536590238192200530e-01
3.733333333333333393e+00,1.644185498819025517e+09,0.000000000000000000e+00,5.376341606117170935e-01,0.000000000000000000e+00,5.376341606117170935e-01
3.750000000000000000e+00,1.644185498835372210e+09,0.000000000000000000e+00,5.216092974042145780e-01,0.000000000000000000e+00,5.216092974042145780e-01
3.766666666666666607e+00,1.644185498852437496e+09,0.000000000000000000e+00,5.135968658004628207e-01,0.000000000000000000e+00,5.135968658004628207e-01
3.783333333333333215e+00,1.644185498868536234e+09,0.000000000000000000e+00,5.135968658004628207e-01,0.000000000000000000e+00,5.135968658004628207e-01
3.799999999999999822e+00,1.644185498886487961e+09,0.000000000000000000e+00,5.135968658004628207e-01,0.000000000000000000e+00,5.135968658004628207e-01
3.816666666666666430e+00,1.644185498902053595e+09,0.000000000000000000e+00,5.135968658004628207e-01,0.000000000000000000e+00,5.135968658004628207e-01
3.833333333333333481e+00,1.644185498920345545e+09,0.000000000000000000e+00,5.055844341967115074e-01,0.000000000000000000e+00,5.055844341967115074e-01
3.850000000000000089e+00,1.644185498936867237e+09,0.000000000000000000e+00,5.055844341967115074e-01,0.000000000000000000e+00,5.055844341967115074e-01
3.866666666666666696e+00,1.644185498953415155e+09,0.000000000000000000e+00,5.055844341967115074e-01,0.000000000000000000e+00,5.055844341967115074e-01
3.883333333333333304e+00,1.644185498971723318e+09,0.000000000000000000e+00,4.975720025929603607e-01,0.000000000000000000e+00,4.975720025929603607e-01
3.899999999999999911e+00,1.644185498988614082e+09,0.000000000000000000e+00,4.895595709892091030e-01,0.000000000000000000e+00,4.895595709892091030e-01
3.916666666666666519e+00,1.644185499004676104e+09,0.000000000000000000e+00,4.815471393854572901e-01,0.000000000000000000e+00,4.815471393854572901e-01
3.933333333333333126e+00,1.644185499021360397e+09,0.000000000000000000e+00,4.735347077817060879e-01,0.000000000000000000e+00,4.735347077817060879e-01
3.949999999999999734e+00,1.644185499038453817e+09,0.000000000000000000e+00,4.575098445742036279e-01,0.000000000000000000e+00,4.575098445742036279e-01
3.966666666666666785e+00,1.644185499055470943e+09,0.000000000000000000e+00,4.494974129704517596e-01,0.000000000000000000e+00,4.494974129704517596e-01
3.983333333333333393e+00,1.644185499073396921e+09,0.000000000000000000e+00,4.414849813667005574e-01,0.000000000000000000e+00,4.414849813667005574e-01
4.000000000000000000e+00,1.644185499092130661e+09,0.000000000000000000e+00,4.334725497629493551e-01,0.000000000000000000e+00,4.334725497629493551e-01
4.016666666666666607e+00,1.644185499107094288e+09,0.000000000000000000e+00,4.174476865554462846e-01,0.000000000000000000e+00,4.174476865554462846e-01
4.033333333333333215e+00,1.644185499124455214e+09,0.000000000000000000e+00,4.094352549516950823e-01,0.000000000000000000e+00,4.094352549516950823e-01
4.049999999999999822e+00,1.644185499143377304e+09,0.000000000000000000e+00,4.014228233479438246e-01,0.000000000000000000e+00,4.014228233479438246e-01
4.066666666666666430e+00,1.644185499157361984e+09,0.000000000000000000e+00,3.853979601404408095e-01,0.000000000000000000e+00,3.853979601404408095e-01
4.083333333333333037e+00,1.644185499176735878e+09,0.000000000000000000e+00,3.773855285366895518e-01,0.000000000000000000e+00,3.773855285366895518e-01
4.099999999999999645e+00,1.644185499191000223e+09,0.000000000000000000e+00,3.693730969329383496e-01,0.000000000000000000e+00,3.693730969329383496e-01
4.116666666666666252e+00,1.644185499207712889e+09,0.000000000000000000e+00,3.533482337254352790e-01,0.000000000000000000e+00,3.533482337254352790e-01
4.133333333333332860e+00,1.644185499225839138e+09,0.000000000000000000e+00,3.453358021216840767e-01,0.000000000000000000e+00,3.453358021216840767e-01
4.150000000000000355e+00,1.644185499242624283e+09,0.000000000000000000e+00,3.212985073104304146e-01,0.000000000000000000e+00,3.212985073104304146e-01
4.166666666666666963e+00,1.644185499257979870e+09,0.000000000000000000e+00,3.132860757066785462e-01,0.000000000000000000e+00,3.132860757066785462e-01
4.183333333333333570e+00,1.644185499274962187e+09,0.000000000000000000e+00,3.052736441029273440e-01,0.000000000000000000e+00,3.052736441029273440e-01
4.200000000000000178e+00,1.644185499293911457e+09,0.000000000000000000e+00,2.892487808954248840e-01,0.000000000000000000e+00,2.892487808954248840e-01
4.216666666666666785e+00,1.644185499308892250e+09,0.000000000000000000e+00,2.732239176879218689e-01,0.000000000000000000e+00,2.732239176879218689e-01
4.233333333333333393e+00,1.644185499328218937e+09,0.000000000000000000e+00,2.571990544804194090e-01,0.000000000000000000e+00,2.571990544804194090e-01
4.250000000000000000e+00,1.644185499344572783e+09,0.000000000000000000e+00,2.411741912729163662e-01,0.000000000000000000e+00,2.411741912729163662e-01
4.266666666666666607e+00,1.644185499360505581e+09,0.000000000000000000e+00,2.331617596691651362e-01,0.000000000000000000e+00,2.331617596691651362e-01
4.283333333333333215e+00,1.644185499379476786e+09,0.000000000000000000e+00,2.171368964616620933e-01,0.000000000000000000e+00,2.171368964616620933e-01
4.299999999999999822e+00,1.644185499395768404e+09,0.000000000000000000e+00,2.091244648579108634e-01,0.000000000000000000e+00,2.091244648579108634e-01
4.316666666666666430e+00,1.644185499412744522e+09,0.000000000000000000e+00,2.011120332541596334e-01,0.000000000000000000e+00,2.011120332541596334e-01
4.333333333333333037e+00,1.644185499430274248e+09,0.000000000000000000e+00,1.850871700466565906e-01,0.000000000000000000e+00,1.850871700466565906e-01
4.349999999999999645e+00,1.644185499447584391e+09,0.000000000000000000e+00,1.770747384429053606e-01,0.000000000000000000e+00,1.770747384429053606e-01
4.366666666666666252e+00,1.644185499465172052e+09,0.000000000000000000e+00,1.610498752354029006e-01,0.000000000000000000e+00,1.610498752354029006e-01
4.383333333333332860e+00,1.644185499479449511e+09,0.000000000000000000e+00,1.610498752354029006e-01,0.000000000000000000e+00,1.610498752354029006e-01
4.400000000000000355e+00,1.644185499497403622e+09,0.000000000000000000e+00,1.530374436316510878e-01,0.000000000000000000e+00,1.530374436316510878e-01
4.416666666666666963e+00,1.644185499515354156e+09,0.000000000000000000e+00,1.450250120278998578e-01,0.000000000000000000e+00,1.450250120278998578e-01
4.433333333333333570e+00,1.644185499532310486e+09,0.000000000000000000e+00,1.450250120278998578e-01,0.000000000000000000e+00,1.450250120278998578e-01
4.450000000000000178e+00,1.644185499547745466e+09,0.000000000000000000e+00,1.370125804241486278e-01,0.000000000000000000e+00,1.370125804241486278e-01
4.466666666666666785e+00,1.644185499565978765e+09,0.000000000000000000e+00,1.290001488203974256e-01,0.000000000000000000e+00,1.290001488203974256e-01
4.483333333333333393e+00,1.644185499581949711e+09,0.000000000000000000e+00,1.209877172166455850e-01,0.000000000000000000e+00,1.209877172166455850e-01
4.500000000000000000e+00,1.644185499597896338e+09,0.000000000000000000e+00,1.129752856128943689e-01,0.000000000000000000e+00,1.129752856128943689e-01
4.516666666666666607e+00,1.644185499616268635e+09,0.000000000000000000e+00,1.129752856128943689e-01,0.000000000000000000e+00,1.129752856128943689e-01
4.533333333333333215e+00,1.644185499633200169e+09,0.000000000000000000e+00,1.049628540091431389e-01,0.000000000000000000e+00,1.049628540091431389e-01
4.549999999999999822e+00,1.644185499649183035e+09,0.000000000000000000e+00,9.695042240539190892e-02,0.000000000000000000e+00,9.695042240539190892e-02
4.566666666666666430e+00,1.644185499667108297e+09,0.000000000000000000e+00,8.893799080164009607e-02,0.000000000000000000e+00,8.893799080164009607e-02
4.583333333333333037e+00,1.644185499684898853e+09,0.000000000000000000e+00,8.092555919788886609e-02,0.000000000000000000e+00,8.092555919788886609e-02
4.599999999999999645e+00,1.644185499701283455e+09,0.000000000000000000e+00,7.291312759413763611e-02,0.000000000000000000e+00,7.291312759413763611e-02
4.616666666666666252e+00,1.644185499717243910e+09,0.000000000000000000e+00,6.490069599038642001e-02,0.000000000000000000e+00,6.490069599038642001e-02
4.633333333333332860e+00,1.644185499734170198e+09,0.000000000000000000e+00,5.688826438663519697e-02,0.000000000000000000e+00,5.688826438663519697e-02
4.650000000000000355e+00,1.644185499757112980e+09,0.000000000000000000e+00,5.688826438663519697e-02,0.000000000000000000e+00,5.688826438663519697e-02
4.666666666666666963e+00,1.644185499770074368e+09,0.000000000000000000e+00,5.688826438663519697e-02,0.000000000000000000e+00,5.688826438663519697e-02
4.683333333333333570e+00,1.644185499789057016e+09,0.000000000000000000e+00,4.887583278288337024e-02,0.000000000000000000e+00,4.887583278288337024e-02
4.700000000000000178e+00,1.644185499803984404e+09,0.000000000000000000e+00,4.887583278288337024e-02,0.000000000000000000e+00,4.887583278288337024e-02
4.716666666666666785e+00,1.644185499820961952e+09,0.000000000000000000e+00,4.086340117913214720e-02,0.000000000000000000e+00,4.086340117913214720e-02
4.733333333333333393e+00,1.644185499843878269e+09,0.000000000000000000e+00,4.086340117913214720e-02,0.000000000000000000e+00,4.086340117913214720e-02
4.750000000000000000e+00,1.644185499854876280e+09,0.000000000000000000e+00,4.086340117913214720e-02,0.000000000000000000e+00,4.086340117913214720e-02
4.766666666666666607e+00,1.644185499871820211e+09,0.000000000000000000e+00,3.285096957538091722e-02,0.000000000000000000e+00,3.285096957538091722e-02
4.783333333333333215e+00,1.644185499888760567e+09,0.000000000000000000e+00,3.285096957538091722e-02,0.000000000000000000e+00,3.285096957538091722e-02
4.799999999999999822e+00,1.644185499904714823e+09,0.000000000000000000e+00,2.483853797162969765e-02,0.000000000000000000e+00,2.483853797162969765e-02
4.816666666666666430e+00,1.644185499922666788e+09,0.000000000000000000e+00,2.483853797162969765e-02,0.000000000000000000e+00,2.483853797162969765e-02
4.833333333333333037e+00,1.644185499946602345e+09,0.000000000000000000e+00,3.285096957538091722e-02,0.000000000000000000e+00,3.285096957538091722e-02
4.849999999999999645e+00,1.644185499959566593e+09,0.000000000000000000e+00,3.285096957538091722e-02,0.000000000000000000e+00,3.285096957538091722e-02
4.866666666666666252e+00,1.644185499974392653e+09,0.000000000000000000e+00,2.483853797162969765e-02,0.000000000000000000e+00,2.483853797162969765e-02
4.883333333333332860e+00,1.644185499995390892e+09,0.000000000000000000e+00,2.483853797162969765e-02,0.000000000000000000e+00,2.483853797162969765e-02
4.900000000000000355e+00,1.644185500009803295e+09,0.000000000000000000e+00,1.682610636787787092e-02,0.000000000000000000e+00,1.682610636787787092e-02
4.916666666666666963e+00,1.644185500024096489e+09,0.000000000000000000e+00,1.682610636787787092e-02,0.000000000000000000e+00,1.682610636787787092e-02
4.933333333333333570e+00,1.644185500041367292e+09,0.000000000000000000e+00,8.813674764126647881e-03,0.000000000000000000e+00,8.813674764126647881e-03
4.950000000000000178e+00,1.644185500057288647e+09,0.000000000000000000e+00,8.813674764126647881e-03,0.000000000000000000e+00,8.813674764126647881e-03
4.966666666666666785e+00,1.644185500076274395e+09,0.000000000000000000e+00,8.813674764126647881e-03,0.000000000000000000e+00,8.813674764126647881e-03
4.983333333333333393e+00,1.644185500092229605e+09,0.000000000000000000e+00,1.682610636787787092e-02,0.000000000000000000e+00,1.682610636787787092e-02
5.000000000000000000e+00,1.644185500111181498e+09,0.000000000000000000e+00,8.813674764126647881e-03,0.000000000000000000e+00,8.813674764126647881e-03
5.016666666666666607e+00,1.644185500129098654e+09,0.000000000000000000e+00,8.813674764126647881e-03,0.000000000000000000e+00,8.813674764126647881e-03
5.033333333333333215e+00,1.644185500144057035e+09,0.000000000000000000e+00,8.813674764126647881e-03,0.000000000000000000e+00,8.813674764126647881e-03
5.049999999999999822e+00,1.644185500160429716e+09,0.000000000000000000e+00,8.813674764126647881e-03,0.000000000000000000e+00,8.813674764126647881e-03
