# 
# 
# 
# 
# 
# 
# 
# 
# 
# 
# time,realtime,ref,inp,inp0,inp1,dis,state...
0.000000000000000000e+00,1.642704067680256128e+09,0.000000000000000000e+00,0.000000000000000000e+00,0.000000000000000000e+00,-1.599281348108773093e+00,0.000000000000000000e+00,0.000000000000000000e+00,0.000000000000000000e+00
1.666666666666666644e-02,1.642704067682284594e+09,2.537716967436259765e-06,0.000000000000000000e+00,0.000000000000000000e+00,-1.599281348108773093e+00,0.000000000000000000e+00,0.000000000000000000e+00,0.000000000000000000e+00
3.333333333333333287e-02,1.642704067687290907e+09,1.002728298462691938e-05,0.000000000000000000e+00,0.000000000000000000e+00,-1.599281348108773093e+00,1.534360808770999588e-05,2.119266805092943252e-09,2.536075346567402795e-07
5.000000000000000278e-02,1.642704067702277184e+09,2.232416077884093970e-05,0.000000000000000000e+00,0.000000000000000000e+00,-1.567231621693767174e+00,6.051499343320659153e-05,1.466939173837529221e-08,1.249640633610234277e-06
6.666666666666666574e-02,1.642704067720221281e+09,3.934369752774784788e-05,0.000000000000000000e+00,0.000000000000000000e+00,-1.599281348108773093e+00,1.327691581124119458e-04,5.366227701050187842e-08,3.423467050211639687e-06
8.333333333333332871e-02,1.642704067736159563e+09,6.106724489134100092e-05,0.000000000000000000e+00,0.000000000000000000e+00,-1.567231621693767174e+00,2.274097886478464951e-04,1.416571636824833951e-07,7.125635307670432801e-06
1.000000000000000056e-01,1.642704067753133535e+09,8.754738564290822592e-05,0.000000000000000000e+00,0.000000000000000000e+00,-1.599281348108773093e+00,3.378177501246435203e-04,3.060931120480167850e-07,1.259149519471562488e-05
1.166666666666666685e-01,1.642704067769090652e+09,1.189121701541276881e-04,0.000000000000000000e+00,0.000000000000000000e+00,-1.599281348108773093e+00,4.555294262742111151e-04,5.771301733472452058e-07,1.991261523798658231e-05
1.333333333333333315e-01,1.642704067787044048e+09,1.553682777569048723e-04,0.000000000000000000e+00,0.000000000000000000e+00,-1.599281348108773093e+00,5.703645162415551086e-04,9.850357852066097534e-07,2.901078489681980209e-05
1.499999999999999944e-01,1.642704067803141356e+09,1.972030309646440320e-04,0.000000000000000000e+00,0.000000000000000000e+00,-1.599281348108773093e+00,6.706019737223388151e-04,1.557165761956374831e-06,3.961535448210901658e-05
1.666666666666666574e-01,1.642704067821194172e+09,2.447852045395989846e-04,0.000000000000000000e+00,0.000000000000000000e+00,-1.599281348108773093e+00,7.432018604293217333e-04,2.314601389262352887e-06,5.124461652862506754e-05
1.833333333333333204e-01,1.642704067836153269e+09,2.985645862790907283e-04,0.000000000000000000e+00,0.000000000000000000e+00,-1.599281348108773093e+00,7.740699980696812144e-04,3.268515333773597897e-06,6.319186921860850642e-05
2.000000000000000111e-01,1.642704067857096910e+09,3.590702619888348854e-04,0.000000000000000000e+00,0.000000000000000000e+00,-1.599281348108773093e+00,7.483614555323801678e-04,4.416349119225284033e-06,7.451672635869648661e-05
2.166666666666666741e-01,1.642704067873054266e+09,4.269076132342104518e-04,0.000000000000000000e+00,0.000000000000000000e+00,-1.567231621693767174e+00,6.508181146387358434e-04,5.737893593843922319e-06,8.404215046139011159e-05
2.333333333333333370e-01,1.642704067889473200e+09,5.027540329205627649e-04,0.000000000000000000e+00,0.000000000000000000e+00,-1.599281348108773093e+00,4.661348317298549034e-04,7.191370933323798457e-06,9.035758698407448102e-05
2.500000000000000000e-01,1.642704067907692671e+09,5.873533803569831995e-04,0.000000000000000000e+00,0.000000000000000000e+00,-1.599281348108773093e+00,1.793480657771368480e-04,8.709622125726290212e-06,9.182847022129094351e-05
2.666666666666666630e-01,1.642704067925596476e+09,6.815092140068418260e-04,0.000000000000000000e+00,0.000000000000000000e+00,-1.599281348108773093e+00,-2.237597122550572307e-04,1.019650743218142808e-05,8.661225637725151756e-05
2.833333333333333259e-01,1.642704067941603661e+09,7.860768564243343637e-04,0.000000000000000000e+00,0.000000000000000000e+00,-1.567231621693767174e+00,-7.562469695094666553e-04,1.152362890162700661e-05,7.268101874931483556e-05
2.999999999999999889e-01,1.642704067956560850e+09,9.019543617225884644e-04,0.000000000000000000e+00,0.000000000000000000e+00,-1.567231621693767174e+00,-1.429598907968711525e-03,1.252748356104288601e-05,4.785051562375376781e-05
3.166666666666666519e-01,1.642704067973518610e+09,1.030072471122305813e-03,0.000000000000000000e+00,0.000000000000000000e+00,-1.567231621693767174e+00,-2.253319825521561855e-03,1.300715335903541239e-05,9.815515400401881815e-06
3.333333333333333148e-01,1.642704067990867853e+09,1.171383656503239591e-03,0.000000000000000000e+00,0.000000000000000000e+00,-1.599281348108773093e+00,-3.234539868385928954e-03,1.272263329792699787e-05,-4.380896234492184793e-05
3.499999999999999778e-01,1.642704068004997730e+09,1.326850365244858958e-03,0.000000000000000000e+00,0.000000000000000000e+00,-1.599281348108773093e+00,-4.377643986485462400e-03,1.139389246951850865e-05,-1.154409546246043880e-04
3.666666666666666408e-01,1.642704068023588419e+09,1.497432591828334967e-03,0.000000000000000000e+00,0.000000000000000000e+00,-1.599281348108773093e+00,-5.683930761467300037e-03,8.700753968471318435e-06,-2.074799954813455190e-04
3.833333333333333037e-01,1.642704068039701939e+09,1.684074912522431130e-03,0.000000000000000000e+00,0.000000000000000000e+00,-1.599281348108773093e+00,-7.151308508774559258e-03,4.283668984755768002e-06,-3.222513856438725911e-04
4.000000000000000222e-01,1.642704068057657242e+09,1.887693128848101859e-03,0.000000000000000000e+00,0.000000000000000000e+00,-1.567231621693767174e+00,-8.774035662530368582e-03,-2.254552104162557783e-06,-4.619470922637937058e-04
4.166666666666666852e-01,1.642704068075608492e+09,2.109160673283224860e-03,0.000000000000000000e+00,0.000000000000000000e+00,-1.599281348108773093e+00,-1.054251193879190973e-02,-1.134600295507305501e-05,-6.285641737260817732e-04
4.333333333333333481e-01,1.642704068092560768e+09,2.349294936719678421e-03,0.000000000000000000e+00,0.000000000000000000e+00,-1.599281348108773093e+00,-1.244312614465283885e-02,-2.345390571172490868e-05,-8.238417067136438385e-04
4.500000000000000111e-01,1.642704068109514713e+09,2.608843681428460112e-03,0.000000000000000000e+00,0.000000000000000000e+00,-1.599281348108773093e+00,-1.445816576513400328e-02,-3.906778046570294027e-05,-1.049197261378565903e-03
4.666666666666666741e-01,1.642704068125763416e+09,2.888471705652703465e-03,-5.971068032753196198e-01,-5.971068032753196198e-01,-1.567231621693767174e+00,-1.656579262590074375e-02,-1.411702509902423212e-04,-1.117497138920769961e-02
4.833333333333333370e-01,1.642704068143716574e+09,3.188747926382302488e-03,-6.678636922228320394e-01,-6.678636922228320394e-01,-1.599281348108773093e+00,-1.874008800824337323e-02,-4.207103382404614933e-04,-2.233882763914206773e-02
5.000000000000000000e-01,1.642704068158968687e+09,3.510133045337464168e-03,-6.600018156731085606e-01,-6.600018156731085606e-01,-1.567231621693767174e+00,-2.095116959555070810e-02,-8.839922483074437280e-04,-3.322476215021940432e-02
5.166666666666666075e-01,1.642704068175115108e+09,3.852967959694223073e-03,-6.364161860239382351e-01,-6.364161860239382351e-01,-1.599281348108773093e+00,-2.316538157106997134e-02,-1.524250998646470637e-03,-4.357752952646384847e-02
5.333333333333333259e-01,1.642704068193899632e+09,4.217463073637281457e-03,-6.757255687725554072e-01,-6.757255687725554072e-01,-1.599281348108773093e+00,-2.534555807956367923e-02,-2.341356501153852090e-03,-5.444494280482511245e-02
5.500000000000000444e-01,1.642704068208846807e+09,4.603688659460825235e-03,0.000000000000000000e+00,0.000000000000000000e+00,-1.599281348108773093e+00,-2.745135912594803482e-02,-3.245043847320856680e-03,-5.399877811075724093e-02
5.666666666666666519e-01,1.642704068228276968e+09,5.011566407715730385e-03,0.000000000000000000e+00,0.000000000000000000e+00,-1.599281348108773093e+00,-2.943967682824349258e-02,-4.141631367176719369e-03,-5.359285187137210332e-02
5.833333333333333703e-01,1.642704068245270014e+09,5.440862294901322414e-03,0.000000000000000000e+00,0.000000000000000000e+00,-1.567231621693767174e+00,-3.126510878680632821e-02,-5.031761646017179901e-03,-5.322380673897841169e-02
5.999999999999999778e-01,1.642704068263184547e+09,5.891180884523656777e-03,0.000000000000000000e+00,0.000000000000000000e+00,-1.567231621693767174e+00,-3.288049419372893190e-02,-5.916015263187343609e-03,-5.288756135837039546e-02
6.166666666666666963e-01,1.642704068279123068e+09,6.361961163111223491e-03,0.000000000000000000e+00,0.000000000000000000e+00,-1.599281348108773093e+00,-3.423750720243225187e-02,-6.794898664374325256e-03,-5.257930307722395030e-02
6.333333333333333037e-01,1.642704068297128916e+09,6.852473997133331184e-03,0.000000000000000000e+00,0.000000000000000000e+00,-1.567231621693767174e+00,-3.528730102457278833e-02,-7.668832002376334799e-03,-5.229349142296482039e-02
6.500000000000000222e-01,1.642704068312068224e+09,7.361821279864001061e-03,0.000000000000000000e+00,0.000000000000000000e+00,-1.599281348108773093e+00,-3.598119523576344403e-02,-8.538137130270339117e-03,-5.202387288233353835e-02
6.666666666666666297e-01,1.642704068331024885e+09,7.888936819248812057e-03,0.000000000000000000e+00,0.000000000000000000e+00,-1.567231621693767174e+00,-3.627139786892919632e-02,-9.403025938600349104e-03,-5.176350737181901335e-02
6.833333333333333481e-01,1.642704068348002672e+09,8.432588998951875622e-03,0.000000000000000000e+00,0.000000000000000000e+00,-1.599281348108773093e+00,-3.611175306916204059e-02,-1.026358923334994185e-02,-5.150480662822212036e-02
6.999999999999999556e-01,1.642704068367240429e+09,8.991385225185034857e-03,0.000000000000000000e+00,0.000000000000000000e+00,-1.599281348108773093e+00,-3.545850439038798763e-02,-1.111978635388191118e-02,-5.123958458086328577e-02
7.166666666666666741e-01,1.642704068384227753e+09,9.563778151862437765e-03,0.000000000000000000e+00,0.000000000000000000e+00,-1.567231621693767174e+00,-3.427106324438921464e-02,-1.197143572959583589e-02,-5.095911959255584878e-02
7.333333333333332815e-01,1.642704068400917053e+09,1.014807365629941290e-02,0.000000000000000000e+00,0.000000000000000000e+00,-1.599281348108773093e+00,-3.251277157762374331e-02,-1.281820657067974864e-02,-5.065422827776566717e-02
7.500000000000000000e-01,1.642704068416563749e+09,1.074244051730912676e-02,0.000000000000000000e+00,0.000000000000000000e+00,-1.567231621693767174e+00,-3.015164756007677332e-02,-1.365961188196358582e-02,-5.031535042581644634e-02
7.666666666666666075e-01,1.642704068432280302e+09,1.134492172737245133e-02,0.000000000000000000e+00,0.000000000000000000e+00,-1.567231621693767174e+00,-2.716110293046297003e-02,-1.449500297950983251e-02,-4.993264437711125020e-02
7.833333333333333259e-01,1.642704068448885918e+09,1.195344735079392415e-02,0.000000000000000000e+00,0.000000000000000000e+00,-1.599281348108773093e+00,-2.352062065894651791e-02,-1.532356567723356169e-02,-4.949609202370329475e-02
8.000000000000000444e-01,1.642704068466192961e+09,1.256584882063691705e-02,0.000000000000000000e+00,0.000000000000000000e+00,-1.567231621693767174e+00,-1.921638176555604330e-02,-1.614431829560572518e-02,-4.899561243475706457e-02
8.166666666666666519e-01,1.642704068482544184e+09,1.317987454897840728e-02,0.000000000000000000e+00,0.000000000000000000e+00,-1.599281348108773093e+00,-1.424183047093397457e-02,-1.695611162647903125e-02,-4.842118294506599085e-02
8.333333333333333703e-01,1.642704068502142906e+09,1.379320670785291574e-02,0.000000000000000000e+00,0.000000000000000000e+00,-1.599281348108773093e+00,-8.598167355060240200e-03,-1.775763096744630010e-02,-4.776296639334972477e-02
8.499999999999999778e-01,1.642704068518427372e+09,1.440347902237621748e-02,0.000000000000000000e+00,0.000000000000000000e+00,-1.567231621693767174e+00,-2.294760856031356332e-03,-1.854740031609932241e-02,-4.701144305896388931e-02
8.666666666666666963e-01,1.642704068536532164e+09,1.500829540314745254e-02,0.000000000000000000e+00,0.000000000000000000e+00,-1.567231621693767174e+00,4.650531750463371417e-03,-1.932378878934353991e-02,-4.615754572321194987e-02
8.833333333333333037e-01,1.642704068555159092e+09,1.560524923230668416e-02,0.000000000000000000e+00,0.000000000000000000e+00,-1.599281348108773093e+00,1.221114179712339681e-02,-2.008501930581913647e-02,-4.519279617678429589e-02
9.000000000000000222e-01,1.642704068572852135e+09,1.619194310674173382e-02,0.000000000000000000e+00,0.000000000000000000e+00,-1.599281348108773093e+00,2.035167191436238268e-02,-2.082917954079465880e-02,-4.410944140990273599e-02
9.166666666666666297e-01,1.642704068587839603e+09,1.676600883304191908e-02,0.000000000000000000e+00,0.000000000000000000e+00,-1.599281348108773093e+00,2.902788956913754728e-02,-2.155423513297812649e-02,-4.290058765823364512e-02
9.333333333333333481e-01,1.642704068601941109e+09,1.732512746201838108e-02,0.000000000000000000e+00,0.000000000000000000e+00,-1.599281348108773093e+00,3.818683573773970497e-02,-2.225804509190228153e-02,-4.156033043701382740e-02
9.499999999999999556e-01,1.642704068623210430e+09,1.786704914605943134e-02,0.000000000000000000e+00,0.000000000000000000e+00,-1.567231621693767174e+00,4.776705158056335221e-02,-2.293837932327645254e-02,-4.008387867929693454e-02
9.666666666666666741e-01,1.642704068638357401e+09,1.838961260035113648e-02,0.000000000000000000e+00,0.000000000000000000e+00,-1.567231621693767174e+00,5.769892449251535355e-02,-2.359293815836650821e-02,-3.846767110266495482e-02
9.833333333333332815e-01,1.642704068654680252e+09,1.889076394913169130e-02,0.000000000000000000e+00,0.000000000000000000e+00,-1.599281348108773093e+00,6.790515334863869712e-02,-2.421937374248740033e-02,-3.670948296273341543e-02
1.000000000000000000e+00,1.642704068673506737e+09,1.936857474069922716e-02,0.000000000000000000e+00,0.000000000000000000e+00,-1.599281348108773093e+00,7.830133117007063992e-02,-2.481531310749784947e-02,-3.480852141155511836e-02
1.016666666666666607e+00,1.642704068691475391e+09,1.982125891987091687e-02,0.000000000000000000e+00,0.000000000000000000e+00,-1.599281348108773093e+00,8.879664182093958968e-02,-2.537838272420267841e-02,-3.276550776450129487e-02
1.033333333333333215e+00,1.642704068708417654e+09,2.024718855398086048e-02,0.000000000000000000e+00,0.000000000000000000e+00,-1.599281348108773093e+00,9.929466573318494749e-02,-2.590623430321997711e-02,-3.058274508993091487e-02
1.050000000000000044e+00,1.642704068726501942e+09,2.064490811826615035e-02,0.000000000000000000e+00,0.000000000000000000e+00,-1.599281348108773093e+00,1.096942880649798002e-01,-2.639657158757193617e-02,-2.826416967116262419e-02
1.066666666666666652e+00,1.642704068743885279e+09,2.101314715855960580e-02,0.000000000000000000e+00,0.000000000000000000e+00,-1.599281348108773093e+00,1.198907011509697529e-01,-2.684717785740834903e-02,-2.581538504881004947e-02
1.083333333333333259e+00,1.642704068757830143e+09,2.135083116348973978e-02,0.000000000000000000e+00,0.000000000000000000e+00,-1.599281348108773093e+00,1.297764916203598684e-01,-2.725594384724710703e-02,-2.324367753196529551e-02
1.100000000000000089e+00,1.642704068774789095e+09,2.165709049476821288e-02,0.000000000000000000e+00,0.000000000000000000e+00,-1.567231621693767174e+00,1.392428011629607831e-01,-2.762089575926644780e-02,-2.055801226722994354e-02
1.116666666666666696e+00,1.642704068794732332e+09,2.193126724248080014e-02,0.000000000000000000e+00,0.000000000000000000e+00,-1.599281348108773093e+00,1.481805486339826672e-01,-2.794022304282625657e-02,-1.776900917310375583e-02
1.133333333333333304e+00,1.642704068809690714e+09,2.217291989242424488e-02,0.000000000000000000e+00,0.000000000000000000e+00,-1.599281348108773093e+00,1.564817000249898449e-01,-2.821230560081079350e-02,-1.488889828136938723e-02
1.149999999999999911e+00,1.642704068825647116e+09,2.238182571426211229e-02,0.000000000000000000e+00,0.000000000000000000e+00,-1.599281348108773093e+00,1.640405718091121068e-01,-2.843574007781073457e-02,-1.193145427421757852e-02
1.166666666666666741e+00,1.642704068844599485e+09,2.255798080240295836e-02,0.000000000000000000e+00,0.000000000000000000e+00,-1.599281348108773093e+00,1.707551523099738733e-01,-2.860936488379093104e-02,-8.911910263071150251e-03
1.183333333333333348e+00,1.642704068863520384e+09,2.270159772580666174e-02,0.000000000000000000e+00,0.000000000000000000e+00,-1.599281348108773093e+00,1.765284250607681016e-01,-2.873228360986446878e-02,-5.846851119318144038e-03
1.199999999999999956e+00,1.642704068878506899e+09,2.281310076816079474e-02,0.000000000000000000e+00,0.000000000000000000e+00,-1.599281348108773093e+00,1.812696776253830966e-01,-2.880388650020379582e-02,-2.754086935222433124e-03
1.216666666666666563e+00,1.642704068897432089e+09,2.289311876578346491e-02,0.000000000000000000e+00,0.000000000000000000e+00,-1.599281348108773093e+00,1.848957790582922700e-01,-2.882386965600126916e-02,3.474925382132435306e-04
1.233333333333333393e+00,1.642704068916408777e+09,2.294247557693516668e-02,0.000000000000000000e+00,0.000000000000000000e+00,-1.599281348108773093e+00,1.873324090924865515e-01,-2.879225166372315070e-02,3.438081364143235046e-03
1.250000000000000000e+00,1.642704068932337284e+09,2.296217824268689811e-02,0.000000000000000000e+00,0.000000000000000000e+00,-1.599281348108773093e+00,1.885152222710284320e-01,-2.870938736060387603e-02,6.497137432207767890e-03
1.266666666666666607e+00,1.642704068948293447e+09,2.295340292581284428e-02,0.000000000000000000e+00,0.000000000000000000e+00,-1.567231621693767174e+00,1.883909305812043744e-01,-2.857597847526424303e-02,9.503577389888207688e-03
1.283333333333333215e+00,1.642704068965248585e+09,2.291747874007080479e-02,0.000000000000000000e+00,0.000000000000000000e+00,-1.567231621693767174e+00,1.869182887113978730e-01,-2.839308091031354786e-02,1.243598463679414581e-02
1.300000000000000044e+00,1.642704068989183187e+09,2.285586960741700646e-02,0.000000000000000000e+00,0.000000000000000000e+00,-1.599281348108773093e+00,1.840689668276124791e-01,-2.816210846656020186e-02,1.527282830683434137e-02
1.316666666666666652e+00,1.642704069006162882e+09,2.277015430489449238e-02,0.000000000000000000e+00,0.000000000000000000e+00,-1.567231621693767174e+00,1.798282967541477428e-01,-2.788483284470258047e-02,1.799269096421251754e-02
1.333333333333333259e+00,1.642704069020127773e+09,2.266200488585765407e-02,0.000000000000000000e+00,0.000000000000000000e+00,-1.567231621693767174e+00,1.741958786336429699e-01,-2.756337979974391242e-02,2.057450256314789783e-02
1.350000000000000089e+00,1.642704069035085201e+09,2.253316368158527275e-02,0.000000000000000000e+00,0.000000000000000000e+00,-1.599281348108773093e+00,1.671860365251356118e-01,-2.720022136546568561e-02,2.299777807095526594e-02
1.366666666666666696e+00,1.642704069053036690e+09,2.238541910893506251e-02,0.000000000000000000e+00,0.000000000000000000e+00,-1.599281348108773093e+00,1.588281129619432130e-01,-2.679816411065253159e-02,2.524285603217449672e-02
1.383333333333333304e+00,1.642704069069993496e+09,2.222058052725958688e-02,0.000000000000000000e+00,0.000000000000000000e+00,-1.599281348108773093e+00,1.491665942184737248e-01,-2.636033343489695494e-02,2.729113526006014812e-02
1.399999999999999911e+00,1.642704069087376356e+09,2.204045240311882856e-02,0.000000000000000000e+00,0.000000000000000000e+00,-1.599281348108773093e+00,1.382610599085583036e-01,-2.589015395919937179e-02,2.912530678283853716e-02
1.416666666666666741e+00,1.642704069104330778e+09,2.184680805417868465e-02,0.000000000000000000e+00,0.000000000000000000e+00,-1.567231621693767174e+00,1.261859525374258439e-01,-2.539132611466330541e-02,3.072957814725956957e-02
1.433333333333333348e+00,1.642704069120619535e+09,2.164136325389805909e-02,0.000000000000000000e+00,0.000000000000000000e+00,-1.599281348108773093e+00,1.130301647328441211e-01,-2.486779908079082141e-02,3.208988719226782416e-02
1.449999999999999956e+00,1.642704069138916016e+09,2.142574998602175124e-02,0.000000000000000000e+00,0.000000000000000000e+00,-1.599281348108773093e+00,9.889644406430328494e-02,-2.432374027261664448e-02,3.319410245183203323e-02
1.466666666666666563e+00,1.642704069154453278e+09,2.120149064238135983e-02,0.000000000000000000e+00,0.000000000000000000e+00,-1.599281348108773093e+00,8.390061759704882383e-02,-2.376350162257983081e-02,3.403220742841269603e-02
1.483333333333333393e+00,1.642704069174450636e+09,2.096997295895505764e-02,0.000000000000000000e+00,0.000000000000000000e+00,-1.599281348108773093e+00,6.817064059362078210e-02,-2.319158294801674722e-02,3.459646609707662385e-02
1.500000000000000000e+00,1.642704069189439297e+09,2.073242598348248172e-02,0.000000000000000000e+00,0.000000000000000000e+00,-1.599281348108773093e+00,5.184547604186030140e-02,-2.261259273787180266e-02,3.488156715429602261e-02
1.516666666666666607e+00,1.642704069204519510e+09,2.048989736312227528e-02,0.000000000000000000e+00,0.000000000000000000e+00,-1.567231621693767174e+00,3.507381392698727396e-02,-2.203120673208003311e-02,3.488474471395403703e-02
1.533333333333333215e+00,1.642704069223363400e+09,2.024323223267286351e-02,0.000000000000000000e+00,0.000000000000000000e+00,-1.599281348108773093e+00,1.801264134803246333e-02,-2.145212470351639394e-02,3.460587337452427498e-02
1.550000000000000044e+00,1.642704069239845991e+09,1.999305397277014243e-02,0.000000000000000000e+00,0.000000000000000000e+00,-1.599281348108773093e+00,8.256766774212553894e-04,-2.088002588489747124e-02,3.404753583386237181e-02
1.566666666666666652e+00,1.642704069256975889e+09,1.973974709328236293e-02,0.000000000000000000e+00,0.000000000000000000e+00,-1.567231621693767174e+00,-1.631831705092201545e-02,-2.031952351106465493e-02,3.321506150918085432e-02
1.583333333333333259e+00,1.642704069275020838e+09,1.948344247993324951e-02,0.000000000000000000e+00,0.000000000000000000e+00,-1.599281348108773093e+00,-3.324732249185450433e-02,-1.977511897021934709e-02,3.211653492680463517e-02
1.600000000000000089e+00,1.642704069291975260e+09,1.922400522211553317e-02,0.000000000000000000e+00,0.000000000000000000e+00,-1.599281348108773093e+00,-4.978794336152818356e-02,-1.925115607551509608e-02,3.076277297607491606e-02
1.616666666666666696e+00,1.642704069308276892e+09,1.896102521706091726e-02,0.000000000000000000e+00,0.000000000000000000e+00,-1.567231621693767174e+00,-6.576734462183976559e-02,-1.875177598058888617e-02,2.916727047078470844e-02
1.633333333333333304e+00,1.642704069325096607e+09,1.869381072019197718e-02,0.000000000000000000e+00,0.000000000000000000e+00,-1.599281348108773093e+00,-8.101523598379768709e-02,-1.828087326884521302e-02,2.734611382597773935e-02
1.649999999999999911e+00,1.642704069342155695e+09,1.842138498380771483e-02,0.000000000000000000e+00,0.000000000000000000e+00,-1.599281348108773093e+00,-9.536587618580144587e-02,-1.784205374636909161e-02,2.531786303373826166e-02
1.666666666666666741e+00,1.642704069359019995e+09,1.814248609648534682e-02,0.000000000000000000e+00,0.000000000000000000e+00,-1.567231621693767174e+00,-1.086600747014822843e-01,-1.743859446208457370e-02,2.310340250442903878e-02
1.683333333333333348e+00,1.642704069375151157e+09,1.785557010398410027e-02,0.000000000000000000e+00,0.000000000000000000e+00,-1.567231621693767174e+00,-1.207471669953258525e-01,-1.707340646611401822e-02,2.072576172520305265e-02
1.699999999999999956e+00,1.642704069392733097e+09,1.755881745929889839e-02,0.000000000000000000e+00,0.000000000000000000e+00,-1.599281348108773093e+00,-1.314869391850442548e-01,-1.674900079822677634e-02,1.820990707089840954e-02
1.716666666666666563e+00,1.642704069410696030e+09,1.725014281514460762e-02,0.000000000000000000e+00,0.000000000000000000e+00,-1.599281348108773093e+00,-1.407514779968268848e-01,-1.646745817286784236e-02,1.558250647892569368e-02
1.733333333333333393e+00,1.642704069426132202e+09,1.692720813688081138e-02,0.000000000000000000e+00,0.000000000000000000e+00,-1.567231621693767174e+00,-1.484269222190197635e-01,-1.623040279568015512e-02,1.287166906475434303e-02
1.750000000000000000e+00,1.642704069445057392e+09,1.658743907806073392e-02,0.000000000000000000e+00,0.000000000000000000e+00,-1.599281348108773093e+00,-1.544150924739755570e-01,-1.603898070890925551e-02,1.010666210341718343e-02
1.766666666666666607e+00,1.642704069461152792e+09,1.622804452475558670e-02,0.000000000000000000e+00,0.000000000000000000e+00,-1.599281348108773093e+00,-1.586349770356682287e-01,-1.589384301991407511e-02,7.317608130494201134e-03
1.783333333333333215e+00,1.642704069478098392e+09,1.584603917893933483e-02,0.000000000000000000e+00,0.000000000000000000e+00,-1.599281348108773093e+00,-1.610240526175834019e-01,-1.579513431858600367e-02,4.535165218873071433e-03
1.800000000000000044e+00,1.642704069493586302e+09,1.543826901588298862e-02,0.000000000000000000e+00,0.000000000000000000e+00,-1.599281348108773093e+00,-1.615394205331114608e-01,-1.574248653625528321e-02,1.790193760990494397e-03
1.816666666666666652e+00,1.642704069509858608e+09,1.500143941607595503e-02,0.000000000000000000e+00,0.000000000000000000e+00,-1.599281348108773093e+00,-1.601587403774382412e-01,-1.573501844116316148e-02,-8.865866737255987187e-04
1.833333333333333259e+00,1.642704069526808739e+09,1.453214573903565884e-02,0.000000000000000000e+00,0.000000000000000000e+00,-1.599281348108773093e+00,-1.568809453804413667e-01,-1.577134090438651881e-02,-3.464946633509598511e-03
1.849999999999999867e+00,1.642704069543939590e+09,1.402690607484939796e-02,0.000000000000000000e+00,0.000000000000000000e+00,-1.599281348108773093e+00,-1.517267258157521670e-01,-1.584956800586401898e-02,-5.915498295627966488e-03
1.866666666666666696e+00,1.642704069560228348e+09,1.348219587976587884e-02,0.000000000000000000e+00,0.000000000000000000e+00,-1.599281348108773093e+00,-1.447387693001083164e-01,-1.596733398358443634e-02,-8.210045139576020029e-03
1.883333333333333304e+00,1.642704069579035282e+09,1.289448417496777757e-02,0.000000000000000000e+00,0.000000000000000000e+00,-1.599281348108773093e+00,-1.359817494545136896e-01,-1.612181596079841420e-02,-1.032192565327060170e-02
1.899999999999999911e+00,1.642704069593017817e+09,1.226027096312626297e-02,0.000000000000000000e+00,0.000000000000000000e+00,-1.599281348108773093e+00,-1.255420571970080890e-01,-1.630976231707993718e-02,-1.222634691693921284e-02
1.916666666666666741e+00,1.642704069611505508e+09,1.157612549577778649e-02,0.000000000000000000e+00,0.000000000000000000e+00,-1.599281348108773093e+00,-1.135272718659199181e-01,-1.652752649999578854e-02,-1.390070393178869518e-02
1.933333333333333348e+00,1.642704069628459215e+09,1.083872500624846053e-02,-5.420736674272540467e-01,-5.420736674272540467e-01,-1.567231621693767174e+00,-1.000653724000428735e-01,-1.684597749128565261e-02,-2.428457027095377863e-02
1.949999999999999956e+00,1.642704069645412922e+09,1.004489350803867628e-02,0.000000000000000000e+00,0.000000000000000000e+00,-1.599281348108773093e+00,-8.530369189428013699e-02,-1.725914832066028151e-02,-2.529312763981715270e-02
1.966666666666666563e+00,1.642704069660475731e+09,9.191640247494869270e-03,0.000000000000000000e+00,0.000000000000000000e+00,-1.599281348108773093e+00,-6.940762197028030323e-02,-1.768679356395935418e-02,-2.602227609602275268e-02
1.983333333333333393e+00,1.642704069676715374e+09,8.276197392431633090e-03,0.000000000000000000e+00,0.000000000000000000e+00,-1.599281348108773093e+00,-5.255907651497420535e-02,-1.812416344167469898e-02,-2.646089082689031396e-02
2.000000000000000000e+00,1.642704069696384907e+09,7.296056535276244752e-03,0.000000000000000000e+00,0.000000000000000000e+00,-1.599281348108773093e+00,-3.495472740844536574e-02,-1.856635146173636272e-02,-2.660128159696940886e-02
2.016666666666666607e+00,1.642704069712326765e+09,6.249003590419181797e-03,0.000000000000000000e+00,0.000000000000000000e+00,-1.599281348108773093e+00,-1.680402784879254235e-02,-1.900835295344294185e-02,-2.643934723607603912e-02
2.033333333333333215e+00,1.642704069729650497e+09,5.133151670841252200e-03,0.000000000000000000e+00,0.000000000000000000e+00,-1.599281348108773093e+00,1.672958251601815551e-03,-1.944512585504968791e-02,-2.597469169694259852e-02
2.049999999999999822e+00,1.642704069748622894e+09,3.946971538796031735e-03,0.000000000000000000e+00,0.000000000000000000e+00,-1.599281348108773093e+00,2.024789961322820062e-02,-1.987165309595656168e-02,-2.521069946248192042e-02
2.066666666666666430e+00,1.642704069762562513e+09,2.689319239351290001e-03,0.000000000000000000e+00,0.000000000000000000e+00,-1.599281348108773093e+00,3.868668997555274602e-02,-2.028300588101912202e-02,-2.415456851116014672e-02
2.083333333333333481e+00,1.642704069780516386e+09,1.359460543899872458e-03,0.000000000000000000e+00,0.000000000000000000e+00,-1.599281348108773093e+00,5.675206352345826821e-02,-2.067440715848509192e-02,-2.281729950830320777e-02
2.100000000000000089e+00,1.642704069796616077e+09,-4.290814676497515585e-05,0.000000000000000000e+00,0.000000000000000000e+00,-1.599281348108773093e+00,7.420630531848175504e-02,-2.104129453491282095e-02,-2.121364037656744972e-02
2.116666666666666696e+00,1.642704069815498114e+09,-1.517642763655676708e-03,0.000000000000000000e+00,0.000000000000000000e+00,-1.599281348108773093e+00,9.081402694883208837e-02,-2.137938189054604948e-02,-1.936198590512035536e-02
2.133333333333333304e+00,1.642704069833833694e+09,-3.064138688485043387e-03,0.000000000000000000e+00,0.000000000000000000e+00,-1.599281348108773093e+00,1.063449761749813149e-01,-2.168471894730473332e-02,-1.728423257877865007e-02
2.149999999999999911e+00,1.642704069850081444e+09,-4.681322289537570049e-03,0.000000000000000000e+00,0.000000000000000000e+00,-1.599281348108773093e+00,1.205768482470621211e-01,-2.195374804901200488e-02,-1.500558933962034373e-02
2.166666666666666519e+00,1.642704069866333246e+09,-6.367647096260017903e-03,0.000000000000000000e+00,0.000000000000000000e+00,-1.599281348108773093e+00,1.332980658265034146e-01,-2.218335742982154718e-02,-1.255434552836907913e-02
2.183333333333333126e+00,1.642704069881297112e+09,-8.121094793636400230e-03,0.000000000000000000e+00,0.000000000000000000e+00,-1.599281348108773093e+00,1.443104940733762609e-01,-2.237093027204420381e-02,-9.961597784923486437e-03
2.200000000000000178e+00,1.642704069897705078e+09,-9.939181173928912996e-03,0.000000000000000000e+00,0.000000000000000000e+00,-1.599281348108773093e+00,1.534320574750421273e-01,-2.251438888859969359e-02,-7.260938210450627178e-03
2.216666666666666785e+00,1.642704069918251276e+09,-1.181896713743531280e-02,0.000000000000000000e+00,0.000000000000000000e+00,-1.599281348108773093e+00,1.604992253986881334e-01,-2.261223340793535458e-02,-4.488106601136831672e-03
2.233333333333333393e+00,1.642704069934305668e+09,-1.375707478593051966e-02,0.000000000000000000e+00,0.000000000000000000e+00,-1.599281348108773093e+00,1.653693341536784656e-01,-2.266357439014994243e-02,-1.680610049694268582e-03
2.250000000000000000e+00,1.642704069950103521e+09,-1.574970860284357135e-02,0.000000000000000000e+00,0.000000000000000000e+00,-1.567231621693767174e+00,1.679227145481459738e-01,-2.266815886182422038e-02,1.122686331115775333e-03
2.266666666666666607e+00,1.642704069966030598e+09,-1.779268166341399504e-02,0.000000000000000000e+00,0.000000000000000000e+00,-1.599281348108773093e+00,1.680645955121355117e-01,-2.262638932317700621e-02,3.881993384337484830e-03
2.283333333333333215e+00,1.642704069985385895e+09,-1.988144676654170911e-02,0.000000000000000000e+00,0.000000000000000000e+00,-1.599281348108773093e+00,1.657267563264268329e-01,-2.253933535402461233e-02,6.557052020625538449e-03
2.299999999999999822e+00,1.642704070000708580e+09,-2.201113232826795718e-02,0.000000000000000000e+00,0.000000000000000000e+00,-1.599281348108773093e+00,1.608689023268127793e-01,-2.240873752391939547e-02,9.107602562633865945e-03
2.316666666666666430e+00,1.642704070016336441e+09,-2.417658282530523242e-02,0.000000000000000000e+00,0.000000000000000000e+00,-1.599281348108773093e+00,1.534797416285020311e-01,-2.223700339599017986e-02,1.149386412851301914e-02
2.333333333333333481e+00,1.642704070033522367e+09,-2.637240352625164902e-02,0.000000000000000000e+00,0.000000000000000000e+00,-1.567231621693767174e+00,1.435777434103976680e-01,-2.202719550253583181e-02,1.367701862523196428e-02
2.350000000000000089e+00,1.642704070052728415e+09,-2.859300919861700735e-02,0.000000000000000000e+00,0.000000000000000000e+00,-1.599281348108773093e+00,1.312115615861466356e-01,-2.178301126239518687e-02,1.561969374486042901e-02
2.366666666666666696e+00,1.642704070070680380e+09,-3.083267643201699146e-02,-5.538664822518399866e-01,-5.538664822518399866e-01,-1.567231621693767174e+00,1.164601112358043394e-01,-2.158525521942591258e-02,8.131831518290558863e-03
2.383333333333333304e+00,1.642704070085182190e+09,-3.308559917239034531e-02,-5.931758650004584910e-01,-5.931758650004584910e-01,-1.599281348108773093e+00,9.943228894298684895e-02,-2.151904397583680531e-02,-1.634393262564086402e-04
2.399999999999999911e+00,1.642704070102531433e+09,-3.534594701932373961e-02,0.000000000000000000e+00,0.000000000000000000e+00,-1.599281348108773093e+00,8.026633213839066971e-02,-2.151065896444091102e-02,1.165947864654206601e-03
2.416666666666666519e+00,1.642704070119900227e+09,-3.760792579900610472e-02,0.000000000000000000e+00,0.000000000000000000e+00,-1.567231621693767174e+00,5.912881664947808313e-02,-2.148322063967164630e-02,2.123989817376242817e-03
2.433333333333333126e+00,1.642704070136629105e+09,-3.986583988943099427e-02,0.000000000000000000e+00,0.000000000000000000e+00,-1.599281348108773093e+00,3.621329585352661001e-02,-2.144311237742274612e-02,2.687436486019454361e-03
2.450000000000000178e+00,1.642704070155636549e+09,-4.211415574263756290e-02,0.000000000000000000e+00,0.000000000000000000e+00,-1.599281348108773093e+00,1.173858908057189530e-02,-2.139707161960979764e-02,2.837038879549370896e-03
2.466666666666666785e+00,1.642704070170595884e+09,-4.434756602142651827e-02,0.000000000000000000e+00,0.000000000000000000e+00,-1.599281348108773093e+00,-1.405326883391224031e-02,-2.135212053601313539e-02,2.557866648720837684e-03
2.483333333333333393e+00,1.642704070190542698e+09,-4.656105374546324477e-02,0.000000000000000000e+00,0.000000000000000000e+00,-1.599281348108773093e+00,-4.089940073854606700e-02,-2.131549176465657655e-02,1.839581198388509902e-03
2.500000000000000000e+00,1.642704070206497431e+09,-4.874995582431258800e-02,0.000000000000000000e+00,0.000000000000000000e+00,-1.567231621693767174e+00,-6.851876287600330850e-02,-2.129455000760710828e-02,6.766600600723216181e-04
2.516666666666666607e+00,1.642704070222453356e+09,-5.091002534300337334e-02,0.000000000000000000e+00,0.000000000000000000e+00,-1.599281348108773093e+00,-9.661509892173002212e-02,-2.129671032623558710e-02,-9.314312699946990497e-04
2.533333333333333215e+00,1.642704070239384413e+09,-5.303749195945840766e-02,0.000000000000000000e+00,0.000000000000000000e+00,-1.599281348108773093e+00,-1.248801443823178425e-01,-2.132935403883741074e-02,-2.980123297098173640e-03
2.549999999999999822e+00,1.642704070255468130e+09,-5.512911977269642494e-02,0.000000000000000000e+00,0.000000000000000000e+00,-1.599281348108773093e+00,-1.529970498468964935e-01,-2.139974317320489719e-02,-5.459684993512295241e-03
2.566666666666666430e+00,1.642704070273393393e+09,-5.718226202628992616e-02,0.000000000000000000e+00,0.000000000000000000e+00,-1.599281348108773093e+00,-1.806439883327723983e-01,-2.151493446648590838e-02,-8.355226839110824547e-03
2.583333333333333481e+00,1.642704070288766384e+09,-5.919491202319565604e-02,0.000000000000000000e+00,0.000000000000000000e+00,-1.599281348108773093e+00,-2.074979090430328077e-01,-2.168169393377022275e-02,-1.164676585587705662e-02
2.600000000000000089e+00,1.642704070308015108e+09,-6.116574964582402463e-02,0.000000000000000000e+00,0.000000000000000000e+00,-1.599281348108773093e+00,-2.332383972992355670e-01,-2.190641304473763679e-02,-1.530935336656356720e-02
2.616666666666666696e+00,1.642704070324134111e+09,-6.309418289901858046e-02,0.000000000000000000e+00,0.000000000000000000e+00,-1.599281348108773093e+00,-2.575515982634520862e-01,-2.219502755391742493e-02,-1.931326549510798199e-02
2.633333333333333304e+00,1.642704070343151093e+09,-6.498038392342349312e-02,-5.420736674272540467e-01,-5.420736674272540467e-01,-1.567231621693767174e+00,-2.801341603537512714e-01,-2.262781150973340941e-02,-3.258394533564208662e-02
2.649999999999999911e+00,1.642704070360105753e+09,-6.682531896236036661e-02,0.000000000000000000e+00,0.000000000000000000e+00,-1.567231621693767174e+00,-3.006971530143597859e-01,-2.320790919535279523e-02,-3.701546686692869237e-02
2.666666666666666519e+00,1.642704070374521255e+09,-6.863077180663480770e-02,-6.167614946496289274e-01,-6.167614946496289274e-01,-1.599281348108773093e+00,-3.189699127499353026e-01,-2.394896473727467154e-02,-5.186993478166621735e-02
2.683333333333333126e+00,1.642704070394406796e+09,-7.039936028838320037e-02,-7.111040132463115615e-01,-7.111040132463115615e-01,-1.599281348108773093e+00,-3.347037710914625985e-01,-2.495074684202948714e-02,-6.829828241587430904e-02
2.700000000000000178e+00,1.642704070410435438e+09,-7.213454544684672065e-02,-7.346896428954832192e-01,-7.346896428954832192e-01,-1.599281348108773093e+00,-3.476756184423873686e-01,-2.622911498607964284e-02,-8.505933529412199046e-02
2.716666666666666785e+00,1.642704070427676439e+09,-7.384063304546645279e-02,-8.329630997670285364e-01,-8.329630997670285364e-01,-1.599281348108773093e+00,-3.576912585654670740e-01,-2.779947591055713721e-02,-1.033332136751860808e-01
2.733333333333333393e+00,1.642704070446649313e+09,-7.552276718050594806e-02,-7.622062108195161168e-01,-7.622062108195161168e-01,-1.599281348108773093e+00,-3.645885098151043779e-01,-2.966305715249595298e-02,-1.202495444438242689e-01
2.750000000000000000e+00,1.642704070464091778e+09,-7.718691578608577464e-02,-8.526177911413364008e-01,-8.526177911413364008e-01,-1.599281348108773093e+00,-3.682400110923962910e-01,-3.181923278829745100e-02,-1.384409988452516560e-01
2.766666666666666607e+00,1.642704070482418299e+09,-7.883984790853144908e-02,-7.150349515211740226e-01,-7.150349515211740226e-01,-1.599281348108773093e+00,-3.685556928905066032e-01,-3.425712730969972947e-02,-1.540629483973773861e-01
2.783333333333333215e+00,1.642704070497352123e+09,-8.048910269377654303e-02,-7.307587046206209802e-01,-7.307587046206209802e-01,-1.599281348108773093e+00,-3.654848766898730061e-01,-3.695497757546163664e-02,-1.696358244867903764e-01
2.799999999999999822e+00,1.642704070515304565e+09,-8.214295010461455937e-02,-7.779299639189629634e-01,-7.779299639189629634e-01,-1.599281348108773093e+00,-3.590179693338849676e-01,-3.991584694803178984e-02,-1.856240873351010234e-01
2.816666666666666430e+00,1.642704070532258987e+09,-8.381034345927944329e-02,-7.346896428954832192e-01,-7.346896428954832192e-01,-1.599281348108773093e+00,-3.491877228378404974e-01,-4.313364892796501399e-02,-2.004709081173898511e-01
2.833333333333333481e+00,1.642704070549281359e+09,-8.550086395848134624e-02,-8.486868528664753830e-01,-8.486868528664753830e-01,-1.599281348108773093e+00,-3.360700343234576670e-01,-4.661078080048135924e-02,-2.167397243647057326e-01
2.850000000000000089e+00,1.642704070563719749e+09,-8.722465744400788312e-02,-9.155128035391253416e-01,-9.155128035391253416e-01,-1.599281348108773093e+00,-3.197842653888353648e-01,-5.036379318855497417e-02,-2.335749964587647831e-01
2.866666666666666696e+00,1.642704070581400871e+09,-8.899236370761383352e-02,-7.818609021938239811e-01,-7.818609021938239811e-01,-1.567231621693767174e+00,-3.004930651754734172e-01,-5.437394357117947274e-02,-2.476040788656285740e-01
2.883333333333333304e+00,1.642704070597603321e+09,-9.081503874350764505e-02,-8.290321614921660753e-01,-8.290321614921660753e-01,-1.599281348108773093e+00,-2.784016866309563798e-01,-5.861943833570008172e-02,-2.618158149031600268e-01
2.899999999999999911e+00,1.642704070615800142e+09,-9.270407041058614794e-02,-7.268277663457598514e-01,-7.268277663457598514e-01,-1.567231621693767174e+00,-2.537567909354737639e-01,-6.308231194809491016e-02,-2.736960172454524498e-01
2.916666666666666519e+00,1.642704070629868984e+09,-9.467108804100986263e-02,0.000000000000000000e+00,0.000000000000000000e+00,-1.599281348108773093e+00,-2.268447407059037413e-01,-6.763744111382603841e-02,-2.729216337581530372e-01
2.933333333333333126e+00,1.642704070647608519e+09,-9.672786659904400453e-02,0.000000000000000000e+00,0.000000000000000000e+00,-1.599281348108773093e+00,-1.979893883533259680e-01,-7.217578533067091351e-02,-2.716831126805302477e-01
2.950000000000000178e+00,1.642704070665814400e+09,-9.888622605767756479e-02,0.000000000000000000e+00,0.000000000000000000e+00,-1.599281348108773093e+00,-1.675493717865427779e-01,-7.668945420442774275e-02,-2.699619333365491647e-01
2.966666666666666785e+00,1.642704070685260773e+09,-1.011579267197111054e-01,0.000000000000000000e+00,0.000000000000000000e+00,-1.599281348108773093e+00,-1.359149354617313898e-01,-8.117030512180482826e-02,-2.677463313435342607e-01
2.983333333333333393e+00,1.642704070702143431e+09,-1.035545612641751850e-01,0.000000000000000000e+00,0.000000000000000000e+00,-1.567231621693767174e+00,-1.035043005119738180e-01,-8.561005878627990506e-02,-2.650316493542587692e-01
3.000000000000000000e+00,1.642704070719088554e+09,-1.060874443475038065e-01,0.000000000000000000e+00,0.000000000000000000e+00,-1.599281348108773093e+00,-7.075961328470227463e-02,-9.000041999162614048e-02,-2.618206150369908891e-01
3.016666666666666607e+00,1.642704070741322041e+09,-1.087675006313218867e-01,0.000000000000000000e+00,0.000000000000000000e+00,-1.567231621693767174e+00,-3.814250700515749853e-02,-9.433320237701903199e-02,-2.581235411016839509e-01
3.033333333333333215e+00,1.642704070753348112e+09,-1.116051521444862138e-01,0.000000000000000000e+00,0.000000000000000000e+00,-1.599281348108773093e+00,-6.129316405996583679e-03,-9.860045582732759883e-02,-2.539584429248086805e-01
3.049999999999999822e+00,1.642704070771278143e+09,-1.146102059157204089e-01,0.000000000000000000e+00,0.000000000000000000e+00,-1.599281348108773093e+00,2.479401004521003191e-02,-1.027945951148474119e-01,-2.493510701365353743e-01
3.066666666666666430e+00,1.642704070787112713e+09,-1.177917428343898676e-01,0.000000000000000000e+00,0.000000000000000000e+00,-1.599281348108773093e+00,5.413725128723015367e-02,-1.069085283254026936e-01,-2.443348494045262664e-01
3.083333333333333481e+00,1.642704070803399086e+09,-1.211580087103540232e-01,0.000000000000000000e+00,0.000000000000000000e+00,-1.567231621693767174e+00,8.141145518649021973e-02,-1.109357835733500025e-01,-2.389507365701374619e-01
3.100000000000000089e+00,1.642704070819355011e+09,-1.247163085091217150e-01,0.000000000000000000e+00,0.000000000000000000e+00,-1.599281348108773093e+00,1.061346239938652236e-01,-1.148706324873302043e-01,-2.332469772562595078e-01
3.116666666666666696e+00,1.642704070837306738e+09,-1.284729047355247511e-01,-6.403471242987992529e-01,-6.403471242987992529e-01,-1.599281348108773093e+00,1.278374843833486041e-01,-1.187966540065783783e-01,-2.378627830689355183e-01
3.133333333333333304e+00,1.642704070854216576e+09,-1.324329209276671193e-01,-6.403471242987992529e-01,-6.403471242987992529e-01,-1.599281348108773093e+00,1.460692804004509737e-01,-1.227964499005394505e-01,-2.421009512399469044e-01
3.149999999999999911e+00,1.642704070870219707e+09,-1.366002512029453886e-01,0.000000000000000000e+00,0.000000000000000000e+00,-1.599281348108773093e+00,1.604035259569107086e-01,-1.267758716353099835e-01,-2.354481374058945142e-01
3.166666666666666519e+00,1.642704070888119459e+09,-1.409774767694706998e-01,0.000000000000000000e+00,0.000000000000000000e+00,-1.567231621693767174e+00,1.704436524757798888e-01,-1.306439452821947789e-01,-2.287393362177466971e-01
3.183333333333333126e+00,1.642704070904077291e+09,-1.455657902793341951e-01,0.000000000000000000e+00,0.000000000000000000e+00,-1.567231621693767174e+00,1.758284869412974072e-01,-1.344003884428881523e-01,-2.220524182746983766e-01
3.200000000000000178e+00,1.642704070924142122e+09,-1.503649288550087670e-01,0.000000000000000000e+00,0.000000000000000000e+00,-1.599281348108773093e+00,1.762374959587915679e-01,-1.380462500791106717e-01,-2.154692650391626663e-01
3.216666666666666785e+00,1.642704070938421488e+09,-1.553731165669990921e-01,0.000000000000000000e+00,0.000000000000000000e+00,-1.599281348108773093e+00,1.713957324910776181e-01,-1.415839705099366796e-01,-2.090749490668186994e-01
3.233333333333333393e+00,1.642704070955788374e+09,-1.605870170799371943e-01,0.000000000000000000e+00,0.000000000000000000e+00,-1.567231621693767174e+00,1.610784237119395335e-01,-1.450174272258395736e-01,-2.029568519557168049e-01
3.250000000000000000e+00,1.642704070972742558e+09,-1.660016971160668819e-01,0.000000000000000000e+00,0.000000000000000000e+00,-1.599281348108773093e+00,1.451151408990276059e-01,-1.483519655477705257e-01,-1.972037279521353936e-01
3.266666666666666607e+00,1.642704070989472389e+09,-1.716106013099021332e-01,0.000000000000000000e+00,0.000000000000000000e+00,-1.599281348108773093e+00,1.233934954646475901e-01,-1.515944132985056758e-01,-1.919047219436561258e-01
3.283333333333333215e+00,1.642704071006432056e+09,-1.774055389462966537e-01,0.000000000000000000e+00,0.000000000000000000e+00,-1.599281348108773093e+00,9.586230907266812817e-02,-1.547530788049885087e-01,-1.871483512859621612e-01
3.299999999999999822e+00,1.642704071024383068e+09,-1.833766829868305470e-01,0.000000000000000000e+00,0.000000000000000000e+00,-1.599281348108773093e+00,6.253421028432067097e-02,-1.578377317130993940e-01,-1.830214615397792732e-01
3.316666666666666430e+00,1.642704071041334629e+09,-1.895125816969026045e-01,0.000000000000000000e+00,0.000000000000000000e+00,-1.599281348108773093e+00,2.348761527891355880e-02,-1.608595662686967687e-01,-1.796081667295333362e-01
3.333333333333333481e+00,1.642704071056670904e+09,-1.958001830889574413e-01,0.000000000000000000e+00,0.000000000000000000e+00,-1.599281348108773093e+00,-2.113194413604843266e-02,-1.638311468992492970e-01,-1.769887851679149415e-01
3.350000000000000089e+00,1.642704071073109627e+09,-2.022248722965891421e-01,0.000000000000000000e+00,0.000000000000000000e+00,-1.567231621693767174e+00,-7.111117582771571410e-02,-1.667663361171492775e-01,-1.752387822138102291e-01
3.366666666666666696e+00,1.642704071095149279e+09,-2.087705218906510951e-01,0.000000000000000000e+00,0.000000000000000000e+00,-1.567231621693767174e+00,-1.261690899149058853e-01,-1.696802049569947624e-01,-1.744277315392131766e-01
3.383333333333333304e+00,1.642704071108114481e+09,-2.154195550428030792e-01,0.000000000000000000e+00,0.000000000000000000e+00,-1.599281348108773093e+00,-1.859577855444625727e-01,-1.725889263527940198e-01,-1.746183065691549741e-01
3.399999999999999911e+00,1.642704071125070810e+09,-2.221530213349850735e-01,-6.796565070474177572e-01,-6.796565070474177572e-01,-1.567231621693767174e+00,-2.500639714292403615e-01,-1.756035265510380305e-01,-1.870990476788552681e-01
3.416666666666666519e+00,1.642704071143610239e+09,-2.289506849060348181e-01,-6.442780625736616029e-01,-6.442780625736616029e-01,-1.599281348108773093e+00,-3.180112220936568979e-01,-1.788289136746827324e-01,-1.999118152996658682e-01
3.433333333333333126e+00,1.642704071160904408e+09,-2.357911245199433570e-01,-7.425515194452066980e-01,-7.425515194452066980e-01,-1.567231621693767174e+00,-3.892629639795951446e-01,-1.822894921245245270e-01,-2.153148115735707691e-01
3.449999999999999734e+00,1.642704071176861286e+09,-2.426518450349976486e-01,-7.307587046206209802e-01,-7.307587046206209802e-01,-1.567231621693767174e+00,-4.632261776762416350e-01,-1.860132467159138492e-01,-2.314908050204624868e-01
3.466666666666666785e+00,1.642704071194310904e+09,-2.495093996502181222e-01,0.000000000000000000e+00,0.000000000000000000e+00,-1.599281348108773093e+00,-5.392557946348512932e-01,-1.899139354535196167e-01,-2.365777128601042334e-01
3.483333333333333393e+00,1.642704071212980986e+09,-2.563395222059400846e-01,-5.695902353512868332e-01,-5.695902353512868332e-01,-1.599281348108773093e+00,-6.166597588977061895e-01,-1.939880665438858953e-01,-2.522744150072211422e-01
3.500000000000000000e+00,1.642704071229931593e+09,-2.631172687200563076e-01,-5.460046057021165078e-01,-5.460046057021165078e-01,-1.599281348108773093e+00,-6.947047166952220465e-01,-1.983291632499488422e-01,-2.686118070077804787e-01
3.516666666666666607e+00,1.642704071246891499e+09,-2.698171672511647801e-01,-7.032421366965880827e-01,-7.032421366965880827e-01,-1.567231621693767174e+00,-7.726222893308707373e-01,-2.029727730342018033e-01,-2.885659376573185275e-01
3.533333333333333215e+00,1.642704071260852814e+09,-2.764133750955219959e-01,-7.739990256441005023e-01,-7.739990256441005023e-01,-1.599281348108773093e+00,-8.496158776642663835e-01,-2.079666029577771358e-01,-3.106323561222159579e-01
3.549999999999999822e+00,1.642704071279797554e+09,-2.828798422471023866e-01,-6.875183835971412361e-01,-6.875183835971412361e-01,-1.599281348108773093e+00,-9.248679398003781804e-01,-2.133236078006451875e-01,-3.321484566693065354e-01
3.566666666666666430e+00,1.642704071296866655e+09,-2.891904799799437931e-01,-5.971068032753196198e-01,-5.971068032753196198e-01,-1.599281348108773093e+00,-9.975476773761021709e-01,-2.190337933737868392e-01,-3.530158457736885524e-01
3.583333333333333481e+00,1.642704071312871218e+09,-2.953193333500668261e-01,-6.206924329244899452e-01,-6.206924329244899452e-01,-1.599281348108773093e+00,-1.066819060179462042e+00,-2.251017120080324452e-01,-3.750731186911754889e-01
3.600000000000000089e+00,1.642704071333028078e+09,-3.012407563612113370e-01,-5.853139884507337909e-01,-5.853139884507337909e-01,-1.567231621693767174e+00,-1.131849113811824292e+00,-2.315383007910804813e-01,-3.972559149458367300e-01
3.616666666666666696e+00,1.642704071348985195e+09,-3.069295884950524744e-01,0.000000000000000000e+00,0.000000000000000000e+00,-1.599281348108773093e+00,-1.191816390774581791e+00,-2.382689777962286870e-01,-4.103888444535982449e-01
3.633333333333333304e+00,1.642704071367269993e+09,-3.123613312729316416e-01,0.000000000000000000e+00,0.000000000000000000e+00,-1.599281348108773093e+00,-1.245919541787202434e+00,-2.452241957872767775e-01,-4.241989521590034951e-01
3.649999999999999911e+00,1.642704071383723497e+09,-3.175123234929316252e-01,0.000000000000000000e+00,0.000000000000000000e+00,-1.599281348108773093e+00,-1.293385901374685787e+00,-2.524142308583851024e-01,-4.385653487774732739e-01
3.666666666666666519e+00,1.642704071400348902e+09,-3.223599137736644638e-01,0.000000000000000000e+00,0.000000000000000000e+00,-1.599281348108773093e+00,-1.333479999843314667e+00,-2.598472593961514976e-01,-4.533569869037621380e-01
3.683333333333333126e+00,1.642704071416908026e+09,-3.268826290347292551e-01,0.000000000000000000e+00,0.000000000000000000e+00,-1.599281348108773093e+00,-1.365511912729163058e+00,-2.675291964713749082e-01,-4.684335817073581043e-01
3.699999999999999734e+00,1.642704071433834314e+09,-3.310603375535920989e-01,0.000000000000000000e+00,0.000000000000000000e+00,-1.599281348108773093e+00,-1.388845358681094488e+00,-2.754635505670587903e-01,-4.836466502563591119e-01
3.716666666666666785e+00,1.642704071450229406e+09,-3.348744052597416587e-01,0.000000000000000000e+00,0.000000000000000000e+00,-1.599281348108773093e+00,-1.402905457545912338e+00,-2.836512965564779165e-01,-4.988406618927051506e-01
3.733333333333333393e+00,1.642704071466684580e+09,-3.383078439593729669e-01,0.000000000000000000e+00,0.000000000000000000e+00,-1.567231621693767174e+00,-1.407186062166106089e+00,-2.920907687079469239e-01,-5.138542907773379076e-01
3.750000000000000000e+00,1.642704071483168125e+09,-3.413454502274482216e-01,0.000000000000000000e+00,0.000000000000000000e+00,-1.599281348108773093e+00,-1.401256580077922864e+00,-3.007775753345556247e-01,-5.285217604853612583e-01
3.766666666666666607e+00,1.642704071502116680e+09,-3.439739337585792645e-01,0.000000000000000000e+00,0.000000000000000000e+00,-1.599281348108773093e+00,-1.384768204897338206e+00,-3.097045365287894869e-01,-5.426742693727497624e-01
3.783333333333333215e+00,1.642704071517022610e+09,-3.461820340334700319e-01,0.000000000000000000e+00,0.000000000000000000e+00,-1.599281348108773093e+00,-1.357459481682383506e+00,-3.188616462250805639e-01,-5.561414843711650624e-01
3.799999999999999822e+00,1.642704071536634922e+09,-3.479606242332800026e-01,0.000000000000000000e+00,0.000000000000000000e+00,-1.599281348108773093e+00,-1.319161135929708850e+00,-3.282360596195980640e-01,-5.687530899088093506e-01
3.816666666666666430e+00,1.642704071556670666e+09,-3.493028014197061548e-01,0.000000000000000000e+00,0.000000000000000000e+00,-1.599281348108773093e+00,-1.269800102060497204e+00,-3.378121067478655482e-01,-5.803403778148834569e-01
3.833333333333333481e+00,1.642704071569628239e+09,-3.502039620933046216e-01,-6.442780625736616029e-01,-6.442780625736616029e-01,-1.599281348108773093e+00,-1.209402694224218644e+00,-3.476603207866189038e-01,-6.013868430560947997e-01
3.850000000000000089e+00,1.642704071589572430e+09,-3.506618623458762629e-01,-5.499355439769775256e-01,-5.499355439769775256e-01,-1.599281348108773093e+00,-1.138096869939097422e+00,-3.578335228660058376e-01,-6.193475145419757855e-01
3.866666666666666696e+00,1.642704071603964806e+09,-3.506766619339297120e-01,0.000000000000000000e+00,0.000000000000000000e+00,-1.567231621693767174e+00,-1.056113545426265343e+00,-3.682163077838248588e-01,-6.265666220479279014e-01
3.883333333333333304e+00,1.642704071621882439e+09,-3.502509517184601573e-01,-5.735211736261492943e-01,-5.735211736261492943e-01,-1.567231621693767174e+00,-9.637869304049928587e-01,-3.787848768858822490e-01,-6.416198546797228230e-01
3.899999999999999911e+00,1.642704071637839556e+09,-3.493897640406745664e-01,0.000000000000000000e+00,0.000000000000000000e+00,-1.599281348108773093e+00,-8.615538595146339240e-01,-3.895089185250328323e-01,-6.452550440324827941e-01
3.916666666666666519e+00,1.642704071655057669e+09,-3.481005657328945513e-01,0.000000000000000000e+00,0.000000000000000000e+00,-1.599281348108773093e+00,-7.499521073257003900e-01,-4.002776300695304323e-01,-6.469855342767468764e-01
3.933333333333333126e+00,1.642704071671233892e+09,-3.463932335976835919e-01,0.000000000000000000e+00,0.000000000000000000e+00,-1.599281348108773093e+00,-6.296176840018261611e-01,-4.110583234513301987e-01,-6.466984689616441795e-01
3.949999999999999734e+00,1.642704071688022375e+09,-3.442800123251761324e-01,0.000000000000000000e+00,0.000000000000000000e+00,-1.599281348108773093e+00,-5.012811189761211539e-01,-4.218165461504185254e-01,-6.442949315788245590e-01
3.966666666666666785e+00,1.642704071704286098e+09,-3.417754549576196288e-01,0.000000000000000000e+00,0.000000000000000000e+00,-1.599281348108773093e+00,-3.657627504054355994e-01,-4.325163240062224190e-01,-6.396911995631112680e-01
3.983333333333333393e+00,1.642704071722592115e+09,-3.388963461500361651e-01,0.000000000000000000e+00,0.000000000000000000e+00,-1.599281348108773093e+00,-2.239670485583782900e-01,-4.431204239717698168e-01,-6.328198837402034815e-01
4.000000000000000000e+00,1.642704071744530439e+09,-3.356616086156165024e-01,-6.206924329244899452e-01,-6.206924329244899452e-01,-1.599281348108773093e+00,-7.687601156841862571e-02,-4.536763651376253814e-01,-6.338900833158963577e-01
4.016666666666666607e+00,1.642704071756145000e+09,-3.320921932827609613e-01,-5.656592970764258155e-01,-5.656592970764258155e-01,-1.599281348108773093e+00,7.445831796537136227e-02,-4.642214915692864374e-01,-6.315316398694195144e-01
4.033333333333333215e+00,1.642704071775065899e+09,-3.282109538264007531e-01,0.000000000000000000e+00,0.000000000000000000e+00,-1.599281348108773093e+00,2.289221573290372291e-01,-4.746281725926327355e-01,-6.173095895572559000e-01
4.049999999999999822e+00,1.642704071789941549e+09,-3.240425063682627616e-01,0.000000000000000000e+00,0.000000000000000000e+00,-1.599281348108773093e+00,3.853490415150945259e-01,-4.847781780414988639e-01,-6.007371000831381869e-01
4.066666666666666430e+00,1.642704071808378220e+09,-3.196130752678651987e-01,0.000000000000000000e+00,0.000000000000000000e+00,-1.599281348108773093e+00,5.425295582954651197e-01,-4.946325544815721176e-01,-5.818405643381404646e-01
4.083333333333333037e+00,1.642704071825691223e+09,-3.149503260471973598e-01,0.000000000000000000e+00,0.000000000000000000e+00,-1.567231621693767174e+00,6.992216762287898346e-01,-5.041529562646608342e-01,-5.606664679512385341e-01
4.099999999999999645e+00,1.642704071842188597e+09,-3.100831866061184439e-01,0.000000000000000000e+00,0.000000000000000000e+00,-1.599281348108773093e+00,8.541615739210290936e-01,-5.133019806420796582e-01,-5.372814173418025696e-01
4.116666666666666252e+00,1.642704071859395504e+09,-3.050416579914901893e-01,0.000000000000000000e+00,0.000000000000000000e+00,-1.567231621693767174e+00,1.006074872315295909e+00,-5.220435017902919084e-01,-5.117719816550020395e-01
4.133333333333332860e+00,1.642704071876788139e+09,-2.998566160799516211e-01,0.000000000000000000e+00,0.000000000000000000e+00,-1.599281348108773093e+00,1.153688166145559801e+00,-5.303430006312443989e-01,-4.842443467116235301e-01
4.150000000000000355e+00,1.642704071892745256e+09,-2.945596056211488012e-01,0.000000000000000000e+00,0.000000000000000000e+00,-1.599281348108773093e+00,1.295740746020199952e+00,-5.381678873139353891e-01,-4.548237809285958777e-01
4.166666666666666963e+00,1.642704071911068201e+09,-2.891826281642600471e-01,0.000000000000000000e+00,0.000000000000000000e+00,-1.567231621693767174e+00,1.430996398968885641e+00,-5.454878132385279077e-01,-4.236539150211885429e-01
4.183333333333333570e+00,1.642704071926537752e+09,-2.837579254551255148e-01,0.000000000000000000e+00,0.000000000000000000e+00,-1.599281348108773093e+00,1.558255172741830119e+00,-5.522749695500970279e-01,-3.908958391639222874e-01
4.200000000000000178e+00,1.642704071944465160e+09,-2.783177599434299432e-01,0.000000000000000000e+00,0.000000000000000000e+00,-1.567231621693767174e+00,1.676364987737391399e+00,-5.585043691059138338e-01,-3.567270231458156138e-01
4.216666666666666785e+00,1.642704071960006475e+09,-2.728941940787015241e-01,0.000000000000000000e+00,0.000000000000000000e+00,-1.599281348108773093e+00,1.784232980181766237e+00,-5.641541090277404358e-01,-3.213400668876262301e-01
4.233333333333333393e+00,1.642704071979930401e+09,-2.675188700998519242e-01,0.000000000000000000e+00,0.000000000000000000e+00,-1.599281348108773093e+00,1.880836461114495650e+00,-5.692056110883305653e-01,-2.849412904751278397e-01
4.250000000000000000e+00,1.642704071996059895e+09,-2.622227920352417918e-01,-6.521399391233850817e-01,-6.521399391233850817e-01,-1.599281348108773093e+00,1.965233377851138385e+00,-5.737339112420785092e-01,-2.585280996759172778e-01
4.266666666666666607e+00,1.642704072012389183e+09,-2.570361116285534431e-01,-8.447559145916129220e-01,-8.447559145916129220e-01,-1.599281348108773093e+00,2.036572167896255170e+00,-5.778423906176300973e-01,-2.345560160786216708e-01
4.283333333333333215e+00,1.642704072028532267e+09,-2.519879198899184769e-01,-9.194437418139876916e-01,-9.194437418139876916e-01,-1.599281348108773093e+00,2.094100899747857625e+00,-5.815570163255223690e-01,-2.112637710718315298e-01
4.299999999999999822e+00,1.642704072047589779e+09,-2.471060459418210620e-01,-9.587531245626064180e-01,-9.587531245626064180e-01,-1.599281348108773093e+00,2.137175600639280137e+00,-5.848861350188500063e-01,-1.882942777772259879e-01
4.316666666666666430e+00,1.642704072062952280e+09,-2.424168647852529279e-01,-6.560708773982460995e-01,-6.560708773982460995e-01,-1.599281348108773093e+00,2.165267677964411774e+00,-5.877899146670638730e-01,-1.602372181195760581e-01
4.333333333333333037e+00,1.642704072080067873e+09,-2.379451155537843088e-01,0.000000000000000000e+00,0.000000000000000000e+00,-1.599281348108773093e+00,2.177970348873322415e+00,-5.901375805732055335e-01,-1.215900463988790342e-01
4.349999999999999645e+00,1.642704072095075130e+09,-2.337137317518433732e-01,0.000000000000000000e+00,0.000000000000000000e+00,-1.567231621693767174e+00,2.175004001242544227e+00,-5.918468746307257167e-01,-8.363068565398315557e-02
4.366666666666666252e+00,1.642704072114320755e+09,-2.297436848890966887e-01,0.000000000000000000e+00,0.000000000000000000e+00,-1.599281348108773093e+00,2.156220418841240161e+00,-5.929313500394514103e-01,-4.660920326457015928e-02
4.383333333333332860e+00,1.642704072131272793e+09,-2.260538428258905830e-01,0.000000000000000000e+00,0.000000000000000000e+00,-1.599281348108773093e+00,2.121605813944621222e+00,-5.934086951538071197e-01,-1.077176125113740723e-02
4.400000000000000355e+00,1.642704072148114204e+09,-2.226608440359996999e-01,0.000000000000000000e+00,0.000000000000000000e+00,-1.599281348108773093e+00,2.071282621793040235e+00,-5.933006501177214842e-01,2.364157074266099584e-02
4.416666666666666963e+00,1.642704072164071083e+09,-2.195789888731191630e-01,0.000000000000000000e+00,0.000000000000000000e+00,-1.599281348108773093e+00,2.005510023054434043e+00,-5.926328872791485347e-01,5.639897495499530955e-02
4.433333333333333570e+00,1.642704072179034472e+09,-2.168201487976126052e-01,0.000000000000000000e+00,0.000000000000000000e+00,-1.599281348108773093e+00,1.924683172706413758e+00,-5.914348560176184710e-01,8.727899657190552052e-02
4.450000000000000178e+00,1.642704072198148251e+09,-2.143936943808926188e-01,0.000000000000000000e+00,0.000000000000000000e+00,-1.599281348108773093e+00,1.829331126393198836e+00,-5.897395929653486135e-01,1.160725856261889954e-01
4.466666666666666785e+00,1.642704072216189861e+09,-2.123064427575694912e-01,0.000000000000000000e+00,0.000000000000000000e+00,-1.567231621693767174e+00,1.720113468207047802e+00,-5.875834989445065659e-01,1.425850494087977094e-01
4.483333333333333393e+00,1.642704072232808590e+09,-2.105626250412993838e-01,0.000000000000000000e+00,0.000000000000000000e+00,-1.599281348108773093e+00,1.597815656864751688e+00,-5.850060842767399460e-01,1.666378956887769602e-01
4.500000000000000000e+00,1.642704072248757601e+09,-2.091638740603013191e-01,0.000000000000000000e+00,0.000000000000000000e+00,-1.599281348108773093e+00,1.463343120265281572e+00,-5.820496844426232830e-01,1.880705478590816437e-01
4.516666666666666607e+00,1.642704072265888929e+09,-2.081092326041014406e-01,-6.324852477490757741e-01,-6.324852477490757741e-01,-1.599281348108773093e+00,1.317714141291203234e+00,-5.788465075528651527e-01,1.962878525283589803e-01
4.533333333333333215e+00,1.642704072283945560e+09,-2.073951822054884431e-01,-6.010377415501819698e-01,-6.010377415501819698e-01,-1.599281348108773093e+00,1.162051590320215988e+00,-5.755246672074705305e-01,2.023162429957982289e-01
4.549999999999999822e+00,1.642704072303901911e+09,-2.070156923123777082e-01,-6.167614946496289274e-01,-6.167614946496289274e-01,-1.599281348108773093e+00,9.975735721114160626e-01,-5.721280758904865316e-01,2.052665196365106581e-01
4.566666666666666430e+00,1.642704072321242571e+09,-2.069622895345796243e-01,-6.875183835971412361e-01,-6.875183835971412361e-01,-1.567231621693767174e+00,8.255830663933509950e-01,-5.687162491811141862e-01,2.041557709737417958e-01
4.583333333333333037e+00,1.642704072337173939e+09,-2.072241464819059020e-01,0.000000000000000000e+00,0.000000000000000000e+00,-1.567231621693767174e+00,6.474566524817466640e-01,-5.652524240592702309e-01,2.114828900599269590e-01
4.599999999999999645e+00,1.642704072352550745e+09,-2.077881895439059323e-01,-6.128305563747664664e-01,-6.128305563747664664e-01,-1.599281348108773093e+00,4.646324184724872075e-01,-5.617773885479907525e-01,2.055378855836094698e-01
4.616666666666666252e+00,1.642704072370586634e+09,-2.086392247993843763e-01,-5.853139884507337909e-01,-5.853139884507337909e-01,-1.567231621693767174e+00,2.785971648761155217e-01,-5.584225099976265483e-01,1.970710599736682778e-01
4.633333333333332860e+00,1.642704072385596991e+09,-2.097600810869594823e-01,0.000000000000000000e+00,0.000000000000000000e+00,-1.567231621693767174e+00,9.087302087706314313e-02,-5.551526604575485191e-01,1.953157607815413088e-01
4.650000000000000355e+00,1.642704072403040648e+09,-2.111317691178127287e-01,0.000000000000000000e+00,0.000000000000000000e+00,-1.599281348108773093e+00,-9.699640138329979067e-02,-5.519377720795497488e-01,1.904842657138208495e-01
4.666666666666666963e+00,1.642704072420405626e+09,-2.127336553696292931e-01,0.000000000000000000e+00,0.000000000000000000e+00,-1.567231621693767174e+00,-2.834601830731698913e-01,-5.488284957614038007e-01,1.826506530111220994e-01
4.683333333333333570e+00,1.642704072438350916e+09,-2.145436493679765688e-01,0.000000000000000000e+00,0.000000000000000000e+00,-1.567231621693767174e+00,-4.669744692962464749e-01,-5.458740447572557608e-01,1.719132941853699359e-01
4.700000000000000178e+00,1.642704072458325148e+09,-2.165384028390838489e-01,0.000000000000000000e+00,0.000000000000000000e+00,-1.599281348108773093e+00,-6.460168944519051326e-01,-5.431217961132778216e-01,1.583940973005268649e-01
4.716666666666666785e+00,1.642704072471291780e+09,-2.186935191074168838e-01,0.000000000000000000e+00,0.000000000000000000e+00,-1.599281348108773093e+00,-8.191009206475827753e-01,-5.406169065912231897e-01,1.422375257676792293e-01
4.733333333333333393e+00,1.642704072489242554e+09,-2.209837710135985067e-01,0.000000000000000000e+00,0.000000000000000000e+00,-1.599281348108773093e+00,-9.847899468415911572e-01,-5.384019467586329544e-01,1.236094001543957543e-01
4.750000000000000000e+00,1.642704072506201267e+09,-2.233833255440334231e-01,0.000000000000000000e+00,0.000000000000000000e+00,-1.567231621693767174e+00,-1.141711047192731421e+00,-5.365165567809390135e-01,1.026954927234896703e-01
4.766666666666666607e+00,1.642704072523517370e+09,-2.258659732939984899e-01,0.000000000000000000e+00,0.000000000000000000e+00,-1.567231621693767174e+00,-1.288568199339879206e+00,-5.349971272708957670e-01,7.969992655778182500e-02
4.783333333333333215e+00,1.642704072539857149e+09,-2.284053608315697315e-01,0.000000000000000000e+00,0.000000000000000000e+00,-1.599281348108773093e+00,-1.424154867021665494e+00,-5.338765083360688113e-01,5.484339317259378371e-02
4.799999999999999822e+00,1.642704072557786226e+09,-2.309752239913110683e-01,0.000000000000000000e+00,0.000000000000000000e+00,-1.599281348108773093e+00,-1.547365806553486545e+00,-5.331837497173146367e-01,2.836120444461484938e-02
4.816666666666666430e+00,1.642704072573960781e+09,-2.335496201045440534e-01,0.000000000000000000e+00,0.000000000000000000e+00,-1.567231621693767174e+00,-1.657207973169239734e+00,-5.329438746324335341e-01,5.011964735797645731e-04
4.833333333333333037e+00,1.642704072591914177e+09,-2.361031571676563412e-01,0.000000000000000000e+00,0.000000000000000000e+00,-1.599281348108773093e+00,-1.752810411057573070e+00,-5.331776896319581072e-01,-2.847849537785526394e-02
4.849999999999999645e+00,1.642704072606348515e+09,-2.386112179614910400e-01,0.000000000000000000e+00,0.000000000000000000e+00,-1.599281348108773093e+00,-1.833433020011671744e+00,-5.339016324411517411e-01,-5.831176956885612828e-02
4.866666666666666252e+00,1.642704072624105930e+09,-2.410501771634515344e-01,0.000000000000000000e+00,0.000000000000000000e+00,-1.599281348108773093e+00,-1.898474101888442345e+00,-5.351276594068272718e-01,-8.872697763465459131e-02
4.883333333333332860e+00,1.642704072643033981e+09,-2.433976095395112837e-01,0.000000000000000000e+00,0.000000000000000000e+00,-1.567231621693767174e+00,-1.947476601444731337e+00,-5.368631737929080439e-01,-1.194494066059860332e-01
4.900000000000000355e+00,1.642704072660029650e+09,-2.456324873656037799e-01,0.000000000000000000e+00,0.000000000000000000e+00,-1.567231621693767174e+00,-1.980132968480678546e+00,-5.391109957783347673e-01,-1.502038007619039273e-01
4.916666666666666963e+00,1.642704072677989006e+09,-2.477353653065140493e-01,0.000000000000000000e+00,0.000000000000000000e+00,-1.599281348108773093e+00,-1.996288581456493016e+00,-5.418693746087525076e-01,-1.807168982890944298e-01
4.933333333333333570e+00,1.642704072694944143e+09,-2.496885510749521642e-01,0.000000000000000000e+00,0.000000000000000000e+00,-1.599281348108773093e+00,-1.995943686733043565e+00,-5.451320429433365033e-01,-2.107199580667278305e-01
4.950000000000000178e+00,1.642704072710873842e+09,-2.514762603032318911e-01,0.000000000000000000e+00,0.000000000000000000e+00,-1.599281348108773093e+00,-1.979253822182573730e+00,-5.488883130242078190e-01,-2.399512516888994695e-01
4.966666666666666785e+00,1.642704072727964640e+09,-2.530847541842219939e-01,0.000000000000000000e+00,0.000000000000000000e+00,-1.599281348108773093e+00,-1.946528708980048039e+00,-5.531232138822901323e-01,-2.681584959804845791e-01
4.983333333333333393e+00,1.642704072747170210e+09,-2.545024585759929070e-01,0.000000000000000000e+00,0.000000000000000000e+00,-1.599281348108773093e+00,-1.898229610768437325e+00,-5.578176683843645289e-01,-2.951012016578840602e-01
5.000000000000000000e+00,1.642704072767131805e+09,-2.557200634148626417e-01,0.000000000000000000e+00,0.000000000000000000e+00,-1.599281348108773093e+00,-1.834965174937485566e+00,-5.629487085256663637e-01,-3.205529144322069590e-01
5.016666666666666607e+00,1.642704072780097485e+09,-2.550275839106448394e-01,0.000000000000000000e+00,0.000000000000000000e+00,-1.599281348108773093e+00,-1.757485786306975717e+00,-5.684897269847879464e-01,-3.443033257448683271e-01
5.033333333333333215e+00,1.642704072797284365e+09,-2.541298132615583683e-01,0.000000000000000000e+00,0.000000000000000000e+00,-1.599281348108773093e+00,-1.655620612368506439e+00,-5.744092355451404508e-01,-3.659774940573242707e-01
5.049999999999999822e+00,1.642704072814238310e+09,-2.530287650654731713e-01,0.000000000000000000e+00,0.000000000000000000e+00,-1.567231621693767174e+00,-1.542907789057404999e+00,-5.806714186456956028e-01,-3.854304407743925354e-01
5.066666666666666430e+00,1.642704072830629110e+09,-2.517288102571302311e-01,0.000000000000000000e+00,0.000000000000000000e+00,-1.567231621693767174e+00,-1.420673824095017190e+00,-5.872382476579296462e-01,-4.025415088304087341e-01
5.083333333333333037e+00,1.642704072849637508e+09,-2.502365894575214189e-01,0.000000000000000000e+00,0.000000000000000000e+00,-1.599281348108773093e+00,-1.290314440468093293e+00,-5.940698924453939878e-01,-4.172151047174125771e-01
5.099999999999999645e+00,1.642704072866581440e+09,-2.485609059650221719e-01,0.000000000000000000e+00,0.000000000000000000e+00,-1.599281348108773093e+00,-1.153280313865176376e+00,-6.011251432179803844e-01,-4.293811925092458348e-01
5.116666666666666252e+00,1.642704072880997419e+09,-2.467126004402651063e-01,0.000000000000000000e+00,0.000000000000000000e+00,-1.599281348108773093e+00,-1.011062386109822686e+00,-6.083618385231700509e-01,-4.389955369725531686e-01
5.133333333333332860e+00,1.642704072899469137e+09,-2.447044084843552347e-01,0.000000000000000000e+00,0.000000000000000000e+00,-1.567231621693767174e+00,-8.651769006107401516e-01,-6.157372951886438406e-01,-4.460396953172583445e-01
5.150000000000000355e+00,1.642704072916625261e+09,-2.425508024474560542e-01,0.000000000000000000e+00,0.000000000000000000e+00,-1.567231621693767174e+00,-7.171503080387934270e-01,-6.232087360437036372e-01,-4.505207595961784328e-01
5.166666666666666963e+00,1.642704072934525013e+09,-2.402678189309134793e-01,0.000000000000000000e+00,0.000000000000000000e+00,-1.567231621693767174e+00,-5.685041911651355084e-01,-6.307337113007452922e-01,-4.524708541918890936e-01
5.183333333333333570e+00,1.642704072951000214e+09,-2.378728735599026367e-01,0.000000000000000000e+00,0.000000000000000000e+00,-1.599281348108773093e+00,-4.207403570488018607e-01,-6.382705095718453903e-01,-4.519463952049356248e-01
5.200000000000000178e+00,1.642704072967304945e+09,-2.353845647042361044e-01,0.000000000000000000e+00,0.000000000000000000e+00,-1.599281348108773093e+00,-2.753262425561006088e-01,-6.457785546283154599e-01,-4.490271208577339412e-01
5.216666666666666785e+00,1.642704072984445810e+09,-2.328224679116118745e-01,-5.695902353512868332e-01,-5.695902353512868332e-01,-1.599281348108773093e+00,-1.336807755525235564e-01,-6.532974562688979026e-01,-4.532294027322150143e-01
5.233333333333333393e+00,1.642704073004178524e+09,-2.302069228895494979e-01,0.000000000000000000e+00,0.000000000000000000e+00,-1.599281348108773093e+00,2.839170931592249758e-03,-6.607882872288086684e-01,-4.456912522567777479e-01
5.250000000000000000e+00,1.642704073017121792e+09,-2.275588149289949902e-01,8.559696867562360811e-01,8.559696867562360811e-01,-1.567231621693767174e+00,1.329516006440714104e-01,-6.680183253666138743e-01,-4.219791926623007727e-01
5.266666666666666607e+00,1.642704073035136461e+09,-2.248993527036242113e-01,7.745499530123116649e-01,7.745499530123116649e-01,-1.599281348108773093e+00,2.554613689089135775e-01,-6.748507622566097819e-01,-3.979799004069510815e-01
5.283333333333333215e+00,1.642704073056301832e+09,-2.222498444039487653e-01,9.164176708994529186e-01,9.164176708994529186e-01,-1.599281348108773093e+00,3.692711958900923852e-01,-6.812512114264982488e-01,-3.701513034572368466e-01
5.299999999999999822e+00,1.642704073071564674e+09,-2.196314741741781928e-01,9.275203618645334602e-01,9.275203618645334602e-01,-1.599281348108773093e+00,4.733916139086333796e-01,-6.871757796736153168e-01,-3.408782022805669776e-01
5.316666666666666430e+00,1.642704073089515686e+09,-2.170650808124763576e-01,9.842674490193901171e-01,9.842674490193901171e-01,-1.599281348108773093e+00,5.669497553870197493e-01,-6.925957458832854297e-01,-3.096046159974567558e-01
5.333333333333333037e+00,1.642704073105090141e+09,-2.145709406717037082e-01,1.266769252464218676e+00,1.266769252464218676e+00,-1.599281348108773093e+00,6.491968998818462566e-01,-6.974484258715570872e-01,-2.728191668034173900e-01
5.349999999999999645e+00,1.642704073119281292e+09,-2.121685566582920679e-01,1.345721721549236305e+00,1.345721721549236305e+00,-1.567231621693767174e+00,7.195147113330437882e-01,-7.016724785788963636e-01,-2.341745068813734232e-01
5.366666666666666252e+00,1.642704073139642954e+09,-2.098764551718123594e-01,1.586280025792649262e+00,1.586280025792649262e+00,-1.567231621693767174e+00,7.774201099781911095e-01,-7.052165672850114753e-01,-1.912354159124109443e-01
5.383333333333332860e+00,1.642704073155591726e+09,-2.077119927575401814e-01,1.812034742082621053e+00,1.812034742082621053e+00,-1.567231621693767174e+00,8.225687372213168480e-01,-7.080135179386655153e-01,-1.445284072703579559e-01
5.400000000000000355e+00,1.642704073171550035e+09,-2.056911741595261467e-01,1.957603356958122376e+00,1.957603356958122376e+00,-1.599281348108773093e+00,8.547569859671588777e-01,-7.100139177769254628e-01,-9.565533505000997638e-02
5.416666666666666963e+00,1.642704073189092398e+09,-2.038284833629569748e-01,2.039023090702046570e+00,2.039023090702046570e+00,-1.599281348108773093e+00,8.739225833936249410e-01,-7.111926238885039053e-01,-4.592753437017040030e-02
5.433333333333333570e+00,1.642704073205450773e+09,-2.021367291028445534e-01,1.903323534462173061e+00,1.903323534462173061e+00,-1.567231621693767174e+00,8.801437276915701213e-01,-7.115672853735910408e-01,8.382481508124456360e-04
5.450000000000000178e+00,1.642704073221726418e+09,-2.006269061921458763e-01,1.490056704095283679e+00,1.490056704095283679e+00,-1.599281348108773093e+00,8.736367948079472034e-01,-7.112269558248468515e-01,3.989281025045545576e-02
5.466666666666666785e+00,1.642704073238678217e+09,-1.993080738873732605e-01,1.533233835626153008e+00,1.533233835626153008e+00,-1.567231621693767174e+00,8.547526455408338553e-01,-7.102377557845478417e-01,7.870338489627287659e-02
5.483333333333333393e+00,1.642704073254986525e+09,-1.981872523646465711e-01,1.488823071765830619e+00,1.488823071765830619e+00,-1.599281348108773093e+00,8.239715773107698649e-01,-7.086174589027874893e-01,1.156296654991225692e-01
5.500000000000000000e+00,1.642704073273043871e+09,-1.972693382251965999e-01,1.409870602680812990e+00,1.409870602680812990e+00,-1.567231621693767174e+00,7.818969784336746720e-01,-7.064035406062976197e-01,1.499452068878741606e-01
5.516666666666666607e+00,1.642704073290738821e+09,-1.965570397877838549e-01,1.564074643862487957e+00,1.564074643862487957e+00,-1.599281348108773093e+00,7.292477556115040116e-01,-7.036084094975095793e-01,1.853721157703193123e-01
5.533333333333333215e+00,1.642704073305193663e+09,-1.960508327576678811e-01,1.247031135192964157e+00,1.247031135192964157e+00,-1.599281348108773093e+00,6.668496175117226699e-01,-7.002801317592615149e-01,2.139418505771493728e-01
5.549999999999999822e+00,1.642704073323537588e+09,-1.957489366890165505e-01,1.205087635991548556e+00,1.205087635991548556e+00,-1.599281348108773093e+00,5.956253086031888522e-01,-6.964952686343836019e-01,2.401688698621837204e-01
5.566666666666666430e+00,1.642704073340516567e+09,-1.956473124813978282e-01,1.078023506057848246e+00,1.078023506057848246e+00,-1.599281348108773093e+00,5.165838977442129831e-01,-6.923053784105469566e-01,2.625557697017147363e-01
5.583333333333333037e+00,1.642704073358564854e+09,-1.957396809726685005e-01,7.609799973883243362e-01,7.609799973883243362e-01,-1.567231621693767174e+00,4.308092352763261967e-01,-6.878011027259531840e-01,2.779146478948651411e-01
5.599999999999999645e+00,1.642704073375674009e+09,-1.960175625116295783e-01,1.045949065492060015e+00,1.045949065492060015e+00,-1.599281348108773093e+00,3.394477004720333757e-01,-6.830162259449560347e-01,2.962197172132695622e-01
5.616666666666666252e+00,1.642704073392100096e+09,-1.964703372157012018e-01,1.221124856274442561e+00,1.221124856274442561e+00,-1.599281348108773093e+00,2.436953680399310540e-01,-6.779178229729294625e-01,3.155349846464824970e-01
5.633333333333332860e+00,1.642704073408151150e+09,-1.970853254430591783e-01,1.081724403046208538e+00,1.081724403046208538e+00,-1.599281348108773093e+00,1.447847279353806638e-01,-6.725330823585130569e-01,3.305920628817592966e-01
5.650000000000000355e+00,1.642704073425487518e+09,-1.978478878365492466e-01,1.100228887988009330e+00,1.100228887988009330e+00,-1.599281348108773093e+00,4.397109690983427854e-02,-6.669108387116613468e-01,3.440398189832049036e-01
5.666666666666666963e+00,1.642704073442600965e+09,-1.987415441297342156e-01,1.038547271515339432e+00,1.038547271515339432e+00,-1.599281348108773093e+00,-5.748113698773671398e-02,-6.610888553360471098e-01,3.545689378497174360e-01
5.683333333333333570e+00,1.642704073457104921e+09,-1.997481097449217424e-01,1.043481800833152784e+00,1.043481800833152784e+00,-1.599281348108773093e+00,-1.583122943907529501e-01,-6.551060862232633841e-01,3.633389938443070677e-01
5.700000000000000178e+00,1.642704073478025913e+09,-2.008478490603191058e-01,1.054584491798233437e+00,1.054584491798233437e+00,-1.599281348108773093e+00,-2.572810665976910105e-01,-6.489904969420635661e-01,3.705117949831163160e-01
5.716666666666666785e+00,1.642704073491012573e+09,-2.020196440798245896e-01,1.137237857871611357e+00,1.137237857871611357e+00,-1.599281348108773093e+00,-3.531779186052404484e-01,-6.427581808829746501e-01,3.773471445784668532e-01
5.733333333333333393e+00,1.642704073512053251e+09,-2.032411771055141481e-01,1.138471490201065084e+00,1.138471490201065084e+00,-1.567231621693767174e+00,-4.448380951869396194e-01,-6.364253761919389518e-01,3.825748964709999034e-01
5.750000000000000000e+00,1.642704073526019812e+09,-2.044891258907915454e-01,1.161910504460679450e+00,1.161910504460679450e+00,-1.599281348108773093e+00,-5.311540963504741697e-01,-6.300148489631992588e-01,3.866769760440969539e-01
5.766666666666666607e+00,1.642704073543394804e+09,-2.057393696423723273e-01,1.189050415708654107e+00,1.189050415708654107e+00,-1.567231621693767174e+00,-6.110874941901147661e-01,-6.235438121855625404e-01,3.898386546251025320e-01
5.783333333333333215e+00,1.642704073560840845e+09,-2.069672041427151887e-01,1.024977315891351992e+00,1.024977315891351992e+00,-1.599281348108773093e+00,-6.836799701214242297e-01,-6.170532058249439400e-01,3.890363373606494091e-01
5.799999999999999822e+00,1.642704073575961351e+09,-2.081475641819965916e-01,8.670723777213167338e-01,8.670723777213167338e-01,-1.567231621693767174e+00,-7.480634596727089303e-01,-6.106065631908244029e-01,3.845731766940066465e-01
5.816666666666666430e+00,1.642704073593474388e+09,-2.092552514209017611e-01,8.855768626631179696e-01,8.855768626631179696e-01,-1.599281348108773093e+00,-8.034693013270858275e-01,-6.042387869476392170e-01,3.795738598064219427e-01
5.833333333333333037e+00,1.642704073612785578e+09,-2.102651657530126006e-01,9.534266407830550571e-01,9.534266407830550571e-01,-1.599281348108773093e+00,-8.492362962680102267e-01,-5.979505920594060386e-01,3.750221706601061245e-01
5.849999999999999645e+00,1.642704073629740715e+09,-2.111525381987580940e-01,8.337643048260749978e-01,8.337643048260749978e-01,-1.599281348108773093e+00,-8.848175971727000322e-01,-5.917590723039541922e-01,3.679797626988771664e-01
5.866666666666666252e+00,1.642704073646136284e+09,-2.118931633422110050e-01,9.139504062405462426e-01,9.139504062405462426e-01,-1.599281348108773093e+00,-9.097863563099117812e-01,-5.856763266667540657e-01,3.619664178938542531e-01
5.883333333333332860e+00,1.642704073662956715e+09,-2.124636293175158064e-01,1.000304669302284122e+00,1.000304669302284122e+00,-1.567231621693767174e+00,-9.238400760070886175e-01,-5.796829866896605621e-01,3.572474878050140301e-01
5.900000000000000355e+00,1.642704073679206610e+09,-2.128415433636008935e-01,8.843432303336643541e-01,8.843432303336643541e-01,-1.599281348108773093e+00,-9.268036179289588228e-01,-5.737840697441033422e-01,3.506408977328685506e-01
5.916666666666666963e+00,1.642704073696270943e+09,-2.130057509939167204e-01,9.595948024303216917e-01,9.595948024303216917e-01,-1.599281348108773093e+00,-9.186308414197315031e-01,-5.679828275149088057e-01,3.455223881871838376e-01
5.933333333333333570e+00,1.642704073712782860e+09,-2.129365468720856580e-01,8.226616138609944562e-01,8.226616138609944562e-01,-1.599281348108773093e+00,-8.994048552651825457e-01,-5.622824445845799879e-01,3.385429512334518498e-01
5.950000000000000178e+00,1.642704073727742195e+09,-2.126158755442219273e-01,9.003804506165584698e-01,9.003804506165584698e-01,-1.567231621693767174e+00,-8.693368814871034189e-01,-5.566825340321119864e-01,3.334604334998080843e-01
5.966666666666666785e+00,1.642704073747679710e+09,-2.120275202538087211e-01,9.484921114652411500e-01,9.484921114652411500e-01,-1.599281348108773093e+00,-8.287637440471833372e-01,-5.511543809200618593e-01,3.299277531780589467e-01
5.983333333333333393e+00,1.642704073764635086e+09,-2.111572781548428090e-01,1.057051756457140668e+00,1.057051756457140668e+00,-1.599281348108773093e+00,-7.781440094669205276e-01,-5.456626319424731086e-01,3.290844666503071614e-01
6.000000000000000000e+00,1.642704073786529541e+09,-2.099931203427875259e-01,1.061986285774954020e+00,1.061986285774954020e+00,-1.599281348108773093e+00,-7.180528202222909995e-01,-5.401758398804969996e-01,3.293298990142087823e-01
6.016666666666666607e+00,1.642704073800540686e+09,-2.085253352398551974e-01,1.041014536174246219e+00,1.041014536174246219e+00,-1.567231621693767174e+00,-6.491754752071592360e-01,-5.346783744336209843e-01,3.303630845834508722e-01
6.033333333333333215e+00,1.642704073813740015e+09,-2.067466540004457565e-01,1.296376428371099898e+00,1.296376428371099898e+00,-1.599281348108773093e+00,-5.722998244428165737e-01,-5.291179431161532332e-01,3.368705966647878025e-01
6.049999999999999822e+00,1.642704073831845522e+09,-2.046523567430659774e-01,1.425907822963707217e+00,1.425907822963707217e+00,-1.567231621693767174e+00,-4.883075574124016160e-01,-5.234204600901266602e-01,3.467997847312830340e-01
6.066666666666666430e+00,1.642704073848881245e+09,-2.022403585657669700e-01,1.359291677173223523e+00,1.359291677173223523e+00,-1.599281348108773093e+00,-3.981644757958862080e-01,-5.175556124686198078e-01,3.569537237993984369e-01
6.083333333333333037e+00,1.642704073866044283e+09,-1.995112744617509315e-01,1.219891223944989056e+00,1.219891223944989056e+00,-1.599281348108773093e+00,-3.029098518585056632e-01,-5.115290324404107025e-01,3.662101666392974519e-01
6.099999999999999645e+00,1.642704073884107351e+09,-1.964684624191536111e-01,1.460449528188402235e+00,1.460449528188402235e+00,-1.599281348108773093e+00,-2.036449831975752356e-01,-5.053025203231702456e-01,3.809303969385707811e-01
6.116666666666666252e+00,1.642704073900423050e+09,-1.931180441627121935e-01,1.350656250867049657e+00,1.350656250867049657e+00,-1.599281348108773093e+00,-1.015210628844120389e-01,-4.988337634952458854e-01,3.952805599103570433e-01
6.133333333333332860e+00,1.642704073914997816e+09,-1.894689031737545881e-01,1.354357147855410171e+00,1.354357147855410171e+00,-1.599281348108773093e+00,2.273508835815729601e-03,-4.921129720083532444e-01,4.111702793683181256e-01
6.150000000000000355e+00,1.642704073932356834e+09,-1.855326598071903588e-01,1.263068355475858384e+00,1.263068355475858384e+00,-1.599281348108773093e+00,1.065262392729948299e-01,-4.851277559742148138e-01,4.270116399133272456e-01
6.166666666666666963e+00,1.642704073948673725e+09,-1.813236235086388426e-01,1.091593461681835464e+00,1.091593461681835464e+00,-1.567231621693767174e+00,2.100139479239465645e-01,-4.778900957048846654e-01,4.414674364707601439e-01
6.183333333333333570e+00,1.642704073966628313e+09,-1.768587223198412328e-01,1.018809154244084914e+00,1.018809154244084914e+00,-1.599281348108773093e+00,3.115163213495907302e-01,-4.704095355811604429e-01,4.561589676069305321e-01
6.200000000000000178e+00,1.642704073983580589e+09,-1.721574100447786915e-01,1.060752653445500515e+00,1.060752653445500515e+00,-1.599281348108773093e+00,4.098294769244279490e-01,-4.626667734876361848e-01,4.729259076862383782e-01
6.216666666666666785e+00,1.642704073999284029e+09,-1.672415516308275729e-01,-9.666150011123296748e-01,-9.666150011123296748e-01,-1.567231621693767174e+00,5.037793938008456873e-01,-4.549139228735684104e-01,4.574591302836458762e-01
6.233333333333333393e+00,1.642704074016490698e+09,-1.621352874974888447e-01,-1.104197840732492164e+00,-1.104197840732492164e+00,-1.599281348108773093e+00,5.922350705841219476e-01,-4.474235010721089312e-01,4.414359956463801971e-01
6.250000000000000000e+00,1.642704074032442808e+09,-1.568648777182181375e-01,-9.587531245626064180e-01,-9.587531245626064180e-01,-1.599281348108773093e+00,6.741212717925912923e-01,-4.401665193315127955e-01,4.294351496929504908e-01
6.266666666666666607e+00,1.642704074049554586e+09,-1.514585271273152234e-01,-8.997890504396783840e-01,-8.997890504396783840e-01,-1.599281348108773093e+00,7.484307291568098597e-01,-4.330894863206407042e-01,4.198354779940305370e-01
6.283333333333333215e+00,1.642704074070925951e+09,-1.459461925823461459e-01,7.313728214814430029e-01,7.313728214814430029e-01,-1.599281348108773093e+00,8.142356691532952606e-01,-4.259367360238393019e-01,4.384428692078080614e-01
6.299999999999999822e+00,1.642704074084884882e+09,-1.403593737618848980e-01,0.000000000000000000e+00,0.000000000000000000e+00,-1.599281348108773093e+00,8.706985448194526356e-01,-4.185696515007772400e-01,4.455874270984035435e-01
6.316666666666666430e+00,1.642704074102825642e+09,-1.347308890172801976e-01,0.000000000000000000e+00,0.000000000000000000e+00,-1.599281348108773093e+00,9.170818577908630420e-01,-4.110780713364411421e-01,4.533805445639151332e-01
6.333333333333333037e+00,1.642704074119791508e+09,-1.290946379245401787e-01,0.000000000000000000e+00,0.000000000000000000e+00,-1.567231621693767174e+00,9.527569655627294853e-01,-4.034527548065997560e-01,4.616345107934525793e-01
6.349999999999999645e+00,1.642704074135748148e+09,-1.234853522972379075e-01,0.000000000000000000e+00,0.000000000000000000e+00,-1.567231621693767174e+00,9.772117791129336650e-01,-3.956876345038170539e-01,4.701562534758854106e-01
6.366666666666666252e+00,1.642704074154697418e+09,-1.179383375226391306e-01,0.000000000000000000e+00,0.000000000000000000e+00,-1.599281348108773093e+00,9.900572671356939747e-01,-3.877798879584632985e-01,4.787494613827932288e-01
6.383333333333332860e+00,1.642704074169642687e+09,-1.124892061702330720e-01,0.000000000000000000e+00,0.000000000000000000e+00,-1.599281348108773093e+00,9.910326951100565385e-01,-3.797299734528931103e-01,4.872167584623906533e-01
6.400000000000000355e+00,1.642704074187611818e+09,-1.071736058936984259e-01,5.487952367223397632e-01,5.487952367223397632e-01,-1.599281348108773093e+00,9.800095401485739988e-01,-3.714658294883615985e-01,5.044326941123743469e-01
6.416666666666666963e+00,1.642704074205029488e+09,-1.020269437036060295e-01,0.000000000000000000e+00,0.000000000000000000e+00,-1.599281348108773093e+00,9.569940359110753469e-01,-3.629961099214777387e-01,5.119128751440084057e-01
6.433333333333333570e+00,1.642704074221044302e+09,-9.708410872816637671e-02,0.000000000000000000e+00,0.000000000000000000e+00,-1.599281348108773093e+00,9.221283156934136915e-01,-3.544075695077432142e-01,5.186931399918307539e-01
6.450000000000000178e+00,1.642704074240099907e+09,-9.237919560291953103e-02,1.017575521914631853e+00,1.017575521914631853e+00,-1.567231621693767174e+00,8.756901359737860879e-01,-3.455728271991687084e-01,5.414128253147298953e-01
6.466666666666666785e+00,1.642704074255027533e+09,-8.794523063706714827e-02,9.176513032289062011e-01,9.176513032289062011e-01,-1.599281348108773093e+00,8.180911770778760417e-01,-3.363843187027062975e-01,5.611533581567138551e-01
6.483333333333333393e+00,1.642704074273463726e+09,-8.381390289413739869e-02,8.831095980042112936e-01,8.831095980042112936e-01,-1.599281348108773093e+00,7.498739320648935003e-01,-3.268837210152708006e-01,5.788691526370968177e-01
6.500000000000000000e+00,1.642704074289549351e+09,-8.001530229786991966e-02,8.880441273220246456e-01,8.880441273220246456e-01,-1.599281348108773093e+00,6.717072092952289797e-01,-3.171004218679692177e-01,5.950817091000828452e-01
6.516666666666666607e+00,1.642704074306092978e+09,-7.657766683079315906e-02,1.186583151049747320e+00,1.186583151049747320e+00,-1.567231621693767174e+00,5.843802882730295689e-01,-3.070199800116583666e-01,6.145173245658183125e-01
6.533333333333333215e+00,1.642704074323080301e+09,-7.352714083324317362e-02,1.191517680367561338e+00,1.191517680367561338e+00,-1.567231621693767174e+00,4.887957821215542786e-01,-2.966308163078565374e-01,6.321333852368350437e-01
6.549999999999999822e+00,1.642704074339220285e+09,-7.088754633493118962e-02,1.133536960883251066e+00,1.133536960883251066e+00,-1.599281348108773093e+00,3.859612733080992619e-01,-2.859726966115355151e-01,6.468002361103698528e-01
6.566666666666666430e+00,1.642704074356578112e+09,-6.868016926028228109e-02,1.249498399851870944e+00,1.249498399851870944e+00,-1.567231621693767174e+00,2.769798018547777740e-01,-2.750711911168205459e-01,6.613400339774323511e-01
6.583333333333333037e+00,1.642704074374680519e+09,-6.692356224311286905e-02,1.472785851482935948e+00,1.472785851482935948e+00,-1.567231621693767174e+00,1.630392971243530553e-01,-2.639142608469239870e-01,6.774468561843239867e-01
6.599999999999999645e+00,1.642704074390618801e+09,-6.563336566685878948e-02,1.382730691432837888e+00,1.382730691432837888e+00,-1.567231621693767174e+00,4.540105523816162503e-02,-2.525197949388744423e-01,6.898545860541244190e-01
6.616666666666666252e+00,1.642704074408567429e+09,-6.482214841412052564e-02,1.416038764328080068e+00,1.416038764328080068e+00,-1.567231621693767174e+00,-7.461262584685834920e-02,-2.409322231167023709e-01,7.006241165399726967e-01
6.633333333333332860e+00,1.642704074426487207e+09,-6.449926966503219394e-02,1.529532938637792716e+00,1.529532938637792716e+00,-1.599281348108773093e+00,-1.956315327015457628e-01,-2.291676859325042781e-01,7.110912694547120161e-01
6.649999999999999467e+00,1.642704074443441868e+09,-6.467076292876902666e-02,1.397534279386278833e+00,1.397534279386278833e+00,-1.599281348108773093e+00,-3.162512156436088628e-01,-2.172650336995836373e-01,7.172100016175025905e-01
6.666666666666666963e+00,1.642704074462391138e+09,-6.533924332775455091e-02,1.360525309502676805e+00,1.360525309502676805e+00,-1.599281348108773093e+00,-4.350471258092300508e-01,-2.052827675673971064e-01,7.206523718802068101e-01
6.683333333333333570e+00,1.642704074475356817e+09,-6.650383898093506496e-02,1.381497059103384606e+00,1.381497059103384606e+00,-1.599281348108773093e+00,-5.505890699884321560e-01,-1.932566661418601561e-01,7.224747369399190378e-01
6.700000000000000178e+00,1.642704074494305611e+09,-6.816014715229207210e-02,1.488823071765830619e+00,1.488823071765830619e+00,-1.599281348108773093e+00,-6.614558394357169524e-01,-1.812009327223932098e-01,7.242084573926206303e-01
6.716666666666666785e+00,1.642704074512257814e+09,-7.030021564490453179e-02,1.192751312697014399e+00,1.192751312697014399e+00,-1.567231621693767174e+00,-7.662498665919164065e-01,-1.691719112067957831e-01,7.192877933121081258e-01
6.733333333333333393e+00,1.642704074527270794e+09,-7.291254973079103197e-02,1.196452209685374690e+00,1.196452209685374690e+00,-1.599281348108773093e+00,-8.636117628276536173e-01,-1.572371576185790099e-01,7.129003805048533815e-01
6.750000000000000000e+00,1.642704074543227911e+09,-7.598214471394945657e-02,1.253199296840231236e+00,1.253199296840231236e+00,-1.599281348108773093e+00,-9.522345909540372855e-01,-1.454123813710871405e-01,7.060916826887980724e-01
6.766666666666666607e+00,1.642704074560399055e+09,-7.949054402995685276e-02,1.149574181166145515e+00,1.149574181166145515e+00,-1.567231621693767174e+00,-1.030877728337635801e+00,-1.337253179818487792e-01,6.963828935133682396e-01
6.783333333333333215e+00,1.642704074576401472e+09,-8.341592259167965318e-02,7.979889672719264748e-01,7.979889672719264748e-01,-1.567231621693767174e+00,-1.098380179987167526e+00,-1.222566113602065047e-01,6.799076666798052893e-01
6.799999999999999822e+00,1.642704074595290184e+09,-8.773319489860714748e-02,7.178028658574555632e-01,7.178028658574555632e-01,-1.599281348108773093e+00,-1.153673205915567435e+00,-1.110789287305748163e-01,6.614654783825384410e-01
6.816666666666666430e+00,1.642704074613266706e+09,-9.241414723855503888e-02,7.054665425629214059e-01,7.054665425629214059e-01,-1.599281348108773093e+00,-1.195792133376930355e+00,-1.002135900480538300e-01,6.424280465197840240e-01
6.833333333333333037e+00,1.642704074631194115e+09,-9.742759312642382263e-02,0.000000000000000000e+00,0.000000000000000000e+00,-1.599281348108773093e+00,-1.223887232173375583e+00,-8.976423233692142067e-02,6.115805682724286818e-01
6.849999999999999645e+00,1.642704074646673679e+09,-1.027395509468235490e-01,0.000000000000000000e+00,0.000000000000000000e+00,-1.599281348108773093e+00,-1.237233540048609193e+00,-7.982658199286056522e-02,5.810223589275577138e-01
6.866666666666666252e+00,1.642704074662827492e+09,-1.083134425970305181e-01,-5.420736674272540467e-01,-5.420736674272540467e-01,-1.599281348108773093e+00,-1.235239535148964229e+00,-7.046861049523100995e-02,5.420425007203245604e-01
6.883333333333332860e+00,1.642704074679226637e+09,-1.141103117653120558e-01,0.000000000000000000e+00,0.000000000000000000e+00,-1.567231621693767174e+00,-1.217454563540610879e+00,-6.167759142901300951e-02,5.129605722617630592e-01
6.899999999999999467e+00,1.642704074695896864e+09,-1.200890603283131658e-01,0.000000000000000000e+00,0.000000000000000000e+00,-1.599281348108773093e+00,-1.183574941718373852e+00,-5.336257488969690932e-02,4.849193066938073948e-01
6.916666666666666963e+00,1.642704074713278294e+09,-1.262067012112499109e-01,0.000000000000000000e+00,0.000000000000000000e+00,-1.599281348108773093e+00,-1.133448666809147465e+00,-4.550411623681934609e-02,4.581700369274440687e-01
6.933333333333333570e+00,1.642704074729235172e+09,-1.324186259270697663e-01,0.000000000000000000e+00,0.000000000000000000e+00,-1.567231621693767174e+00,-1.067078680637470356e+00,-3.807861706862051415e-02,4.329598930819540392e-01
6.950000000000000178e+00,1.642704074747631073e+09,-1.386788848966104548e-01,0.000000000000000000e+00,0.000000000000000000e+00,-1.567231621693767174e+00,-9.846246478506843758e-01,-3.105841633471541352e-02,4.095292815505375272e-01
6.966666666666666785e+00,1.642704074762752771e+09,-1.449404785519679550e-01,0.000000000000000000e+00,0.000000000000000000e+00,-1.567231621693767174e+00,-8.864032227579641265e-01,-2.441192315300120055e-02,3.881094013228572615e-01
6.983333333333333393e+00,1.642704074781086206e+09,-1.511556571405615890e-01,0.000000000000000000e+00,0.000000000000000000e+00,-1.567231621693767174e+00,-7.728867942809514169e-01,-1.810379050479403451e-02,3.689198221033009317e-01
7.000000000000000000e+00,1.642704074801056862e+09,-1.572762270784498762e-01,0.000000000000000000e+00,0.000000000000000000e+00,-1.567231621693767174e+00,-6.447007132974219568e-01,-1.209512857718934853e-02,3.521661482874058891e-01
7.016666666666666607e+00,1.642704074815480947e+09,-1.632538616488026784e-01,0.000000000000000000e+00,0.000000000000000000e+00,-1.567231621693767174e+00,-5.026190215381118875e-01,-6.343756126568728462e-03,3.380377921444834288e-01
7.033333333333333215e+00,1.642704074832633972e+09,-1.690404138055665306e-01,0.000000000000000000e+00,0.000000000000000000e+00,-1.599281348108773093e+00,-3.475587159232904622e-01,-8.044878559478997951e-04,3.267058786084744426e-01
7.049999999999999822e+00,1.642704074848811388e+09,-1.745882288234526236e-01,0.000000000000000000e+00,0.000000000000000000e+00,-1.599281348108773093e+00,-1.805725966554312389e-01,4.570544564739210426e-03,3.183213029101968350e-01
7.066666666666666430e+00,1.642704074864884853e+09,-1.798504545337171745e-01,0.000000000000000000e+00,0.000000000000000000e+00,-1.599281348108773093e+00,-2.840761373894329367e-03,9.831540548672954016e-03,3.130129609033648341e-01
7.083333333333333037e+00,1.642704074883081198e+09,-1.847813469006950871e-01,0.000000000000000000e+00,0.000000000000000000e+00,-1.599281348108773093e+00,1.843391789097181821e-01,1.503065074342222786e-02,3.108861703571108581e-01
7.099999999999999645e+00,1.642704074897443295e+09,-1.893365687266379549e-01,0.000000000000000000e+00,0.000000000000000000e+00,-1.599281348108773093e+00,3.795630736756911983e-01,2.022157260419490260e-02,3.120212997242663988e-01
7.116666666666666252e+00,1.642704074914791584e+09,-1.934734793218717552e-01,0.000000000000000000e+00,0.000000000000000000e+00,-1.567231621693767174e+00,5.813322962741155342e-01,2.545912496882123816e-02,3.164726189642086407e-01
7.133333333333332860e+00,1.642704074933569193e+09,-1.971514130431732958e-01,0.000000000000000000e+00,0.000000000000000000e+00,-1.599281348108773093e+00,7.880667856195929799e-01,3.079880543983506275e-02,3.242673849201880287e-01
7.149999999999999467e+00,1.642704074949713230e+09,-2.003319446851562768e-01,6.783266313149467486e-01,6.783266313149467486e-01,-1.599281348108773093e+00,9.981189451573116989e-01,3.639002538168666784e-02,3.466169245862074089e-01
7.166666666666666963e+00,1.642704074964677334e+09,-2.029791398066623231e-01,7.844190116479390351e-01,7.844190116479390351e-01,-1.567231621693767174e+00,1.209788269366453672e+00,4.239454012692011470e-02,3.738491978578805108e-01
7.183333333333333570e+00,1.642704074983623505e+09,-2.050597881859535232e-01,7.844190116479390351e-01,7.844190116479390351e-01,-1.567231621693767174e+00,1.421336560627041834e+00,4.887838391372112401e-02,4.041279469423291748e-01
7.200000000000000178e+00,1.642704075001581907e+09,-2.065436187240241583e-01,7.067001748923750215e-01,7.067001748923750215e-01,-1.599281348108773093e+00,1.631003593157558385e+00,5.588091615330329637e-02,4.360871441702459106e-01
7.216666666666666785e+00,1.642704075016642094e+09,-2.074034942536328863e-01,6.067759562066493695e-01,6.067759562066493695e-01,-1.599281348108773093e+00,1.837023075997167298e+00,6.342634139057298781e-02,4.692717028030398141e-01
7.233333333333333393e+00,1.642704075034789562e+09,-2.076155848616462185e-01,0.000000000000000000e+00,0.000000000000000000e+00,-1.599281348108773093e+00,2.037638763703819134e+00,7.146416007831191131e-02,4.951945301770311891e-01
7.250000000000000000e+00,1.642704075051383972e+09,-2.071595184927683686e-01,0.000000000000000000e+00,0.000000000000000000e+00,-1.599281348108773093e+00,2.231120561604449382e+00,7.995716921756693130e-02,5.238868637311836496e-01
7.266666666666666607e+00,1.642704075068195343e+09,-2.060185077725587566e-01,0.000000000000000000e+00,0.000000000000000000e+00,-1.599281348108773093e+00,2.415780472084241293e+00,8.894992623560613043e-02,5.551571145812150831e-01
7.283333333333333215e+00,1.642704075084174633e+09,-2.041794521654033967e-01,0.000000000000000000e+00,0.000000000000000000e+00,-1.599281348108773093e+00,2.589988229544399445e+00,9.848359670088054074e-02,5.887899146083472868e-01
7.299999999999999822e+00,1.642704075102127790e+09,-2.016330147675127193e-01,5.759351479703143095e-01,5.759351479703143095e-01,-1.599281348108773093e+00,2.752186474282302342e+00,1.086751198066604335e-01,6.340670852067776808e-01
7.316666666666666430e+00,1.642704075119019032e+09,-1.983736732245762469e-01,6.289813381368105638e-01,6.289813381368105638e-01,-1.599281348108773093e+00,2.900905319631270629e+00,1.196428766043994424e-01,6.819307727051733270e-01
7.333333333333333037e+00,1.642704075134465456e+09,-1.943997444570087496e-01,0.000000000000000000e+00,0.000000000000000000e+00,-1.599281348108773093e+00,3.034776172199996402e+00,1.313333656633993152e-01,7.208198865161734581e-01
7.349999999999999645e+00,1.642704075151578665e+09,-1.897133830712295910e-01,0.000000000000000000e+00,0.000000000000000000e+00,-1.599281348108773093e+00,3.152544671922795416e+00,1.436829014793898629e-01,7.610127618988962173e-01
7.366666666666666252e+00,1.642704075171525717e+09,-1.843205535316555510e-01,0.000000000000000000e+00,0.000000000000000000e+00,-1.599281348108773093e+00,3.253082626805523514e+00,1.567106534442501142e-01,8.022030537141280337e-01
7.383333333333332860e+00,1.642704075187890768e+09,-1.782309763635093747e-01,0.000000000000000000e+00,0.000000000000000000e+00,-1.599281348108773093e+00,3.335398826648995119e+00,1.704305906036350793e-01,8.440730969988929910e-01
7.399999999999999467e+00,1.642704075204156399e+09,-1.714580488496917354e-01,0.000000000000000000e+00,0.000000000000000000e+00,-1.599281348108773093e+00,3.398648630563045003e+00,1.848513148009721108e-01,8.862965166442733356e-01
7.416666666666666963e+00,1.642704075220091820e+09,-1.640187408742626030e-01,0.000000000000000000e+00,0.000000000000000000e+00,-1.567231621693767174e+00,3.442142234646688337e+00,1.999759380975738854e-01,9.285409305917829981e-01
7.433333333333333570e+00,1.642704075237419844e+09,-1.559334667491875659e-01,0.000000000000000000e+00,0.000000000000000000e+00,-1.599281348108773093e+00,3.465351538693207889e+00,2.158020058210899927e-01,9.704707218464869722e-01
7.450000000000000178e+00,1.642704075255108118e+09,-1.472259340383882120e-01,0.000000000000000000e+00,0.000000000000000000e+00,-1.599281348108773093e+00,3.467915544060641508e+00,2.323214661768620015e-01,1.011749853891725559e+00
7.466666666666666785e+00,1.642704075267250061e+09,-1.379229705625126812e-01,0.000000000000000000e+00,0.000000000000000000e+00,-1.567231621693767174e+00,3.449644228801167500e+00,2.495206869292256602e-01,1.052044703619381405e+00
7.483333333333333393e+00,1.642704075286456823e+09,-1.280543309278980302e-01,0.000000000000000000e+00,0.000000000000000000e+00,-1.567231621693767174e+00,3.410520860630532169e+00,2.673805192265000796e-01,1.091026885665949298e+00
7.500000000000000000e+00,1.642704075302423239e+09,-1.176524840726421162e-01,0.000000000000000000e+00,0.000000000000000000e+00,-1.599281348108773093e+00,3.350702723201014255e+00,2.858764082084593872e-01,1.128376042070673435e+00
7.516666666666666607e+00,1.642704075317871809e+09,-1.067523834605260957e-01,0.000000000000000000e+00,0.000000000000000000e+00,-1.599281348108773093e+00,3.270520246273616927e+00,3.049785496026566900e-01,1.163782571447703029e+00
7.533333333333333215e+00,1.642704075338872910e+09,-9.539122167851456224e-02,0.000000000000000000e+00,0.000000000000000000e+00,-1.599281348108773093e+00,3.170474545620247220e+00,3.246520910902059298e-01,1.196950272387157899e+00
7.549999999999999822e+00,1.642704075354490757e+09,-8.360817130490923177e-02,0.000000000000000000e+00,0.000000000000000000e+00,-1.599281348108773093e+00,3.051233393676257677e+00,3.448573768066048872e-01,1.227598876565363151e+00
7.566666666666666430e+00,1.642704075371412516e+09,-7.144411401200878586e-02,-5.656592970764258155e-01,-5.656592970764258155e-01,-1.567231621693767174e+00,2.913625656960371568e+00,3.654721037985213528e-01,1.246116922238179159e+00
7.583333333333333037e+00,1.642704075387641668e+09,-5.894135994862778616e-02,-6.914493218720036971e-01,-6.914493218720036971e-01,-1.567231621693767174e+00,2.758634250936537136e+00,3.863541254919498069e-01,1.259687982695826269e+00
7.599999999999999645e+00,1.642704075403867245e+09,-4.614335951347242615e-02,-5.853139884507337909e-01,-5.853139884507337909e-01,-1.599281348108773093e+00,2.587387677168055955e+00,4.074514638876917116e-01,1.271958539112039821e+00
7.616666666666666252e+00,1.642704075420788527e+09,-3.309440967961888719e-02,0.000000000000000000e+00,0.000000000000000000e+00,-1.599281348108773093e+00,2.401150221170731847e+00,4.288067373914524194e-01,1.290622435961124692e+00
7.633333333333332860e+00,1.642704075435795069e+09,-1.983935706291668766e-02,0.000000000000000000e+00,0.000000000000000000e+00,-1.599281348108773093e+00,2.201310902176238482e+00,4.504428960694987771e-01,1.305674792319349020e+00
7.649999999999999467e+00,1.642704075453041315e+09,-6.423299942715270799e-03,0.000000000000000000e+00,0.000000000000000000e+00,-1.599281348108773093e+00,1.989371277945561900e+00,4.722985751078941363e-01,1.316975301246712915e+00
7.666666666666666963e+00,1.642704075469405890e+09,7.108708558069717215e-03,0.000000000000000000e+00,0.000000000000000000e+00,-1.599281348108773093e+00,1.766932218708192615e+00,4.943103117359613496e-01,1.324412434930448912e+00
7.683333333333333570e+00,1.642704075484694481e+09,2.071195394497408679e-02,0.000000000000000000e+00,0.000000000000000000e+00,-1.567231621693767174e+00,1.535679774140562115e+00,5.164130326684435168e-01,1.327904376900309380e+00
7.700000000000000178e+00,1.642704075502645493e+09,3.434234832272375915e-02,0.000000000000000000e+00,0.000000000000000000e+00,-1.599281348108773093e+00,1.297370265940283041e+00,5.385405548968071887e-01,1.327399692437617018e+00
7.716666666666666785e+00,1.642704075519021034e+09,4.795671076305313418e-02,0.000000000000000000e+00,0.000000000000000000e+00,-1.599281348108773093e+00,1.053814745917282636e+00,5.606260954147763709e-01,1.322877731018269110e+00
7.733333333333333393e+00,1.642704075533082247e+09,6.151303803576529949e-02,0.000000000000000000e+00,0.000000000000000000e+00,-1.599281348108773093e+00,8.068629655382687504e-01,5.826027853815295421e-01,1.314348757143820379e+00
7.750000000000000000e+00,1.642704075551036596e+09,7.497076375251110480e-02,0.000000000000000000e+00,0.000000000000000000e+00,-1.599281348108773093e+00,5.583870074677288464e-01,6.044041841865248621e-01,1.301853808463287354e+00
7.766666666666666607e+00,1.642704075567987919e+09,8.829100407088996683e-02,0.000000000000000000e+00,0.000000000000000000e+00,-1.599281348108773093e+00,3.102647328027657303e-01,6.259647888830083273e-01,1.285464282646849865e+00
7.783333333333333215e+00,1.642704075585051060e+09,1.014367882186468645e-01,0.000000000000000000e+00,0.000000000000000000e+00,-1.599281348108773093e+00,6.436319937013346149e-02,6.472205345028727574e-01,1.265281257016487748e+00
7.799999999999999822e+00,1.642704075602167130e+09,1.143732722230127175e-01,0.000000000000000000e+00,0.000000000000000000e+00,-1.599281348108773093e+00,-1.774777933733612256e-01,6.681092808532125282e-01,1.241434547443258651e+00
7.816666666666666430e+00,1.642704075621449471e+09,1.270679343676744955e-01,0.000000000000000000e+00,0.000000000000000000e+00,-1.599281348108773093e+00,-4.134618786244740329e-01,6.885712815238194118e-01,1.214081515462243965e+00
7.833333333333333037e+00,1.642704075639393806e+09,1.394907510482217283e-01,0.000000000000000000e+00,0.000000000000000000e+00,-1.599281348108773093e+00,-6.418518643020098002e-01,7.085496310037198153e-01,1.183405634910643434e+00
7.849999999999999645e+00,1.642704075652475357e+09,1.516143518552260649e-01,0.000000000000000000e+00,0.000000000000000000e+00,-1.599281348108773093e+00,-8.609848957749595133e-01,7.279906860120403111e-01,1.149614831639407031e+00
7.866666666666666252e+00,1.642704075671673536e+09,1.634141528808492616e-01,-6.600018156731085606e-01,-6.600018156731085606e-01,-1.599281348108773093e+00,-1.069286897813528370e+00,7.467532976118876897e-01,1.102030741481448972e+00
7.883333333333332860e+00,1.642704075689977646e+09,1.748684674189711630e-01,-6.600018156731085606e-01,-6.600018156731085606e-01,-1.567231621693767174e+00,-1.265286161376803831e+00,7.647023418646301529e-01,1.051993564277874604e+00
7.899999999999999467e+00,1.642704075705934286e+09,1.859585934087011061e-01,-5.577974205267010044e-01,-5.577974205267010044e-01,-1.567231621693767174e+00,-1.447625949190849637e+00,7.818132759834416357e-01,1.001458907330437187e+00
7.916666666666666963e+00,1.642704075722103596e+09,1.966688771554598314e-01,-5.774521119010103121e-01,-5.774521119010103121e-01,-1.599281348108773093e+00,-1.615076003621161105e+00,7.980631026909783543e-01,9.486669453641976002e-01
7.933333333333333570e+00,1.642704075739403248e+09,2.069867530511169951e-01,0.000000000000000000e+00,0.000000000000000000e+00,-1.567231621693767174e+00,-1.766542851008434001e+00,8.134991923151618787e-01,9.037884748898735721e-01
7.950000000000000178e+00,1.642704075755331993e+09,2.169027592034428742e-01,0.000000000000000000e+00,0.000000000000000000e+00,-1.599281348108773093e+00,-1.901078808312216983e+00,8.281749238946225500e-01,8.574280965052092363e-01
7.966666666666666785e+00,1.642704075773283720e+09,2.264105290739109599e-01,0.000000000000000000e+00,0.000000000000000000e+00,-1.567231621693767174e+00,-2.017889610479653761e+00,8.420682518533199046e-01,8.099032750385176671e-01
7.983333333333333393e+00,1.642704075788482428e+09,2.355067594101662720e-01,0.000000000000000000e+00,0.000000000000000000e+00,-1.599281348108773093e+00,-2.116340590301542868e+00,8.551624655078363668e-01,7.615367182123088385e-01
8.000000000000000000e+00,1.642704075808269501e+09,2.441911549437933426e-01,0.000000000000000000e+00,0.000000000000000000e+00,-1.567231621693767174e+00,-2.195961356506407114e+00,8.674462530349217326e-01,7.126535747434500356e-01
8.016666666666665719e+00,1.642704075826282501e+09,2.524663505039407285e-01,6.228131764895434852e-01,6.228131764895434852e-01,-1.599281348108773093e+00,-2.256448930337056513e+00,8.789997419611834673e-01,6.738728232530630802e-01
8.033333333333333215e+00,1.642704075842786789e+09,2.603378113714224229e-01,5.438607074045261891e-01,5.438607074045261891e-01,-1.567231621693767174e+00,-2.297669315712181692e+00,8.898956431113975718e-01,6.337467786310546636e-01
8.050000000000000711e+00,1.642704075858738899e+09,2.678137128648304111e-01,0.000000000000000000e+00,0.000000000000000000e+00,-1.567231621693767174e+00,-2.319657493152878835e+00,9.000501637502327235e-01,5.849312997730048425e-01
8.066666666666666430e+00,1.642704075874755383e+09,2.749048003086059788e-01,0.000000000000000000e+00,0.000000000000000000e+00,-1.599281348108773093e+00,-2.322615842802639552e+00,9.093974268843346698e-01,5.368737725921922666e-01
8.083333333333333925e+00,1.642704075894419670e+09,2.816242306817089425e-01,0.000000000000000000e+00,0.000000000000000000e+00,-1.599281348108773093e+00,-2.306911016942780890e+00,9.179525381201072420e-01,4.898701444073733091e-01
8.099999999999999645e+00,1.642704075909380198e+09,2.879873973833220746e-01,0.000000000000000000e+00,0.000000000000000000e+00,-1.599281348108773093e+00,-2.273069297254952659e+00,9.257354219525871786e-01,4.442027722873108098e-01
8.116666666666667140e+00,1.642704075928328514e+09,2.940117396779359238e-01,0.000000000000000000e+00,0.000000000000000000e+00,-1.599281348108773093e+00,-2.221770486565528557e+00,9.327705759339524061e-01,4.001381101965201248e-01
8.133333333333332860e+00,1.642704075947278976e+09,2.997165384950771783e-01,0.000000000000000000e+00,0.000000000000000000e+00,-1.599281348108773093e+00,-2.153840398780634935e+00,9.390867876512061230e-01,3.579245584995891516e-01
8.150000000000000355e+00,1.642704075960243225e+09,3.051227003581532538e-01,-5.577974205267010044e-01,-5.577974205267010044e-01,-1.599281348108773093e+00,-2.070242024050819474e+00,9.446397741215175614e-01,3.085709146196523589e-01
8.166666666666666075e+00,1.642704075976631403e+09,3.102525313014984354e-01,-8.722724825156455974e-01,-8.722724825156455974e-01,-1.599281348108773093e+00,-1.972065458760916545e+00,9.493471413541246795e-01,2.564579150324358681e-01
8.183333333333333570e+00,1.642704075996628284e+09,3.151295027042194108e-01,-8.447559145916129220e-01,-8.447559145916129220e-01,-1.599281348108773093e+00,-1.860516701601954814e+00,9.532123642392074103e-01,2.075048152107936417e-01
8.199999999999999289e+00,1.642704076013582706e+09,3.197780110231527306e-01,-8.251012232173050576e-01,-8.251012232173050576e-01,-1.599281348108773093e+00,-1.736905427635414334e+00,9.562882515204548239e-01,1.617288170820009030e-01
8.216666666666666785e+00,1.642704076029855967e+09,3.242231334450010327e-01,-7.268277663457598514e-01,-7.268277663457598514e-01,-1.599281348108773093e+00,-1.602631861802615409e+00,9.586396476140683909e-01,1.205530938525811308e-01
8.233333333333332504e+00,1.642704076047175646e+09,3.284903814990133841e-01,-8.762034207905080585e-01,-8.762034207905080585e-01,-1.567231621693767174e+00,-1.459172881672278876e+00,9.603096516512876768e-01,7.996015144098209126e-02
8.250000000000000000e+00,1.642704076063393593e+09,3.326054546764815045e-01,-8.919271738899550162e-01,-8.919271738899550162e-01,-1.599281348108773093e+00,-1.308067486276973668e+00,9.613274123457596909e-01,4.227581307706131108e-02
8.266666666666665719e+00,1.642704076083826542e+09,3.365939960916678464e-01,-8.093774701178567677e-01,-8.093774701178567677e-01,-1.567231621693767174e+00,-1.150901773597011069e+00,9.617554153267160455e-01,9.176489367523882335e-03
8.283333333333333215e+00,1.642704076097435236e+09,3.404813521908689466e-01,-8.211702849424425965e-01,-8.211702849424425965e-01,-1.599281348108773093e+00,-9.892935735557315535e-01,9.616570271833794203e-01,-2.089952013077576304e-02
8.300000000000000711e+00,1.642704076112372637e+09,3.442923384722227365e-01,-9.744768776620531536e-01,-9.744768776620531536e-01,-1.599281348108773093e+00,-8.248768862500586163e-01,9.610630608603180081e-01,-5.029478320624952009e-02
8.316666666666666430e+00,1.642704076129328489e+09,3.480510131191433820e-01,-7.661371490943770235e-01,-7.661371490943770235e-01,-1.567231621693767174e+00,-6.592862765338143305e-01,9.600348810193062299e-01,-7.302366045904098990e-02
8.333333333333333925e+00,1.642704076147301674e+09,3.517804603753273973e-01,-6.128305563747664664e-01,-6.128305563747664664e-01,-1.599281348108773093e+00,-4.941413759807535833e-01,9.586750105604308070e-01,-9.011332220609089005e-02
8.349999999999999645e+00,1.642704076164258718e+09,3.555025853997658136e-01,-6.482090008485227317e-01,-6.482090008485227317e-01,-1.599281348108773093e+00,-3.310316416896667002e-01,9.570503151478627624e-01,-1.048093041691593452e-01
8.366666666666667140e+00,1.642704076182205915e+09,3.592379222369385117e-01,0.000000000000000000e+00,0.000000000000000000e+00,-1.599281348108773093e+00,-1.715015183680611566e-01,9.552942818498074695e-01,-1.059116295105717309e-01
8.383333333333332860e+00,1.642704076198164463e+09,3.630054564210861701e-01,-6.010377415501819698e-01,-6.010377415501819698e-01,-1.599281348108773093e+00,-1.703614567709532679e-02,9.534583479180411825e-01,-1.143769270325934451e-01
8.400000000000000355e+00,1.642704076216333151e+09,3.668224636052753174e-01,-9.115818652642643238e-01,-9.115818652642643238e-01,-1.599281348108773093e+00,1.309522530119335837e-01,9.514600426475078310e-01,-1.253891152995989522e-01
8.416666666666666075e+00,1.642704076233189106e+09,3.707043654668059629e-01,-7.071730749714505437e-01,-7.071730749714505437e-01,-1.567231621693767174e+00,2.711371714570487423e-01,9.493273173697891476e-01,-1.305236550804536322e-01
8.433333333333333570e+00,1.642704076252236128e+09,3.746646039915754178e-01,0.000000000000000000e+00,0.000000000000000000e+00,-1.599281348108773093e+00,4.022896903908304012e-01,9.472255155635832535e-01,-1.217170251010672444e-01
8.449999999999999289e+00,1.642704076268361807e+09,3.787145350825310564e-01,0.000000000000000000e+00,0.000000000000000000e+00,-1.567231621693767174e+00,5.232893053517855275e-01,9.452859870747671867e-01,-1.110560081897214169e-01
8.466666666666666785e+00,1.642704076285318375e+09,3.828633422725682411e-01,-6.993111984217271759e-01,-6.993111984217271759e-01,-1.567231621693767174e+00,6.331336121166513120e-01,9.434412522349622243e-01,-1.103142331216677430e-01
8.483333333333332504e+00,1.642704076303483009e+09,3.871179711515051469e-01,-8.840652973402315373e-01,-8.840652973402315373e-01,-1.599281348108773093e+00,7.309467609469053606e-01,9.415967695312084107e-01,-1.110217260244693860e-01
8.500000000000000000e+00,1.642704076318117142e+09,3.914830849415363856e-01,-1.167092853130280883e+00,-1.167092853130280883e+00,-1.599281348108773093e+00,8.159866033040934497e-01,9.397132468365778646e-01,-1.149899741602752601e-01
8.516666666666665719e+00,1.642704076336443901e+09,3.959610414771762565e-01,-1.446189470645469433e+00,-1.446189470645469433e+00,-1.567231621693767174e+00,8.876504678521230929e-01,9.377354840540869096e-01,-1.223211947576734598e-01
8.533333333333333215e+00,1.642704076351602077e+09,4.005518916656665707e-01,-1.422603840996299107e+00,-1.422603840996299107e+00,-1.599281348108773093e+00,9.454795163164282368e-01,9.356477918894509083e-01,-1.281855746710353627e-01
8.550000000000000711e+00,1.642704076368232489e+09,4.052533993235472587e-01,-1.544462927517014750e+00,-1.544462927517014750e+00,-1.567231621693767174e+00,9.891616439758480483e-01,9.334523722101061294e-01,-1.352451763840433197e-01
8.566666666666666430e+00,1.642704076387233734e+09,4.100610821061170252e-01,-1.245711618627516781e+00,-1.245711618627516781e+00,-1.567231621693767174e+00,1.018532904078722545e+00,9.311855880308752553e-01,-1.367647041139589958e-01
8.583333333333333925e+00,1.642704076404211760e+09,4.149682730701548805e-01,-1.222125988978346456e+00,-1.222125988978346456e+00,-1.567231621693767174e+00,1.033577450159331113e+00,9.288990238865545424e-01,-1.376206156166218386e-01
8.599999999999999645e+00,1.642704076418198109e+09,4.199662022381199233e-01,-8.408249763167519042e-01,-8.408249763167519042e-01,-1.599281348108773093e+00,1.034426004936328081e+00,9.266510954583827564e-01,-1.321460033781238219e-01
8.616666666666667140e+00,1.642704076437663794e+09,4.250440973653679122e-01,-1.080612211083321839e+00,-1.080612211083321839e+00,-1.567231621693767174e+00,1.021352879056595553e+00,9.244587292121627664e-01,-1.309412926656826071e-01
8.633333333333332860e+00,1.642704076452616215e+09,4.301893029521132172e-01,-1.084543149358184078e+00,-1.084543149358184078e+00,-1.599281348108773093e+00,9.947715772620302488e-01,9.222820607167490081e-01,-1.302608170385380348e-01
8.650000000000000355e+00,1.642704076472268581e+09,4.353874163902318184e-01,-9.351674949134345383e-01,-9.351674949134345383e-01,-1.599281348108773093e+00,9.552290434614920667e-01,9.201318096995814155e-01,-1.277762068789027872e-01
8.666666666666666075e+00,1.642704076488283396e+09,4.406224399926934598e-01,-5.971068032753196198e-01,-5.971068032753196198e-01,-1.599281348108773093e+00,9.033986095475552425e-01,9.180621599421635581e-01,-1.206016936836143555e-01
8.683333333333333570e+00,1.642704076505435467e+09,4.458769475217221334e-01,-5.892449267255961409e-01,-5.892449267255961409e-01,-1.567231621693767174e+00,8.400717254781843168e-01,9.161034336028107683e-01,-1.144625206983850563e-01
8.699999999999999289e+00,1.642704076525233030e+09,4.511322637115627865e-01,-6.993111984217271759e-01,-6.993111984217271759e-01,-1.567231621693767174e+00,7.661485600196601409e-01,9.142207661547104847e-01,-1.114658972236526047e-01
8.716666666666666785e+00,1.642704076543175697e+09,4.563686551741918951e-01,-6.835874453222788860e-01,-6.835874453222788860e-01,-1.599281348108773093e+00,6.826275725054609111e-01,9.123782643482133414e-01,-1.096393932974357582e-01
