2022-02-11-10:36:46.674218,7.0,5.0,334.0
2022-02-11-10:36:46.674218,3.0,5.0,334.0
2022-02-11-10:36:46.675216,8.0,12.0,334.0
2022-02-11-10:36:46.676213,5.0,8.0,334.0
2022-02-11-10:36:46.678209,22.0,4.0,334.0
2022-02-11-10:36:46.679219,15.0,6.0,334.0
2022-02-11-10:36:46.679219,20.0,18.0,334.0
2022-02-11-10:36:46.680203,20.0,18.0,334.0
2022-02-11-10:36:46.682197,4.0,4.0,334.0
2022-02-11-10:36:46.683208,7.0,3.0,333.0
2022-02-11-10:36:46.683208,25.0,10.0,334.0
2022-02-11-10:36:46.684192,17.0,8.0,334.0
2022-02-11-10:36:46.685190,1.0,14.0,334.0
2022-02-11-10:36:46.686188,8.0,0.0,334.0
2022-02-11-10:36:46.687184,10.0,0.0,334.0
2022-02-11-10:36:46.688182,16.0,4.0,334.0
2022-02-11-10:36:46.689179,10.0,10.0,334.0
2022-02-11-10:36:46.690176,3.0,8.0,334.0
2022-02-11-10:36:46.691173,5.0,5.0,334.0
2022-02-11-10:36:46.692171,5.0,2.0,334.0
2022-02-11-10:36:46.693169,12.0,7.0,334.0
2022-02-11-10:36:46.694166,3.0,10.0,334.0
2022-02-11-10:36:46.695163,9.0,14.0,334.0
2022-02-11-10:36:46.696161,7.0,6.0,334.0
2022-02-11-10:36:46.697159,14.0,7.0,334.0
2022-02-11-10:36:46.698155,3.0,1.0,334.0
2022-02-11-10:36:46.699152,10.0,3.0,334.0
2022-02-11-10:36:46.700152,23.0,5.0,334.0
2022-02-11-10:36:46.701185,1.0,1.0,334.0
2022-02-11-10:36:46.702180,12.0,24.0,334.0
2022-02-11-10:36:46.703143,1.0,10.0,334.0
2022-02-11-10:36:46.704175,11.0,5.0,334.0
2022-02-11-10:36:46.705174,25.0,1.0,334.0
2022-02-11-10:36:46.706170,1.0,4.0,334.0
2022-02-11-10:36:46.707159,19.0,7.0,334.0
2022-02-11-10:36:46.708156,6.0,1.0,334.0
2022-02-11-10:36:46.709156,9.0,4.0,334.0
2022-02-11-10:36:46.710152,26.0,2.0,334.0
2022-02-11-10:36:46.711121,15.0,13.0,334.0
2022-02-11-10:36:46.712148,3.0,8.0,334.0
2022-02-11-10:36:46.713118,9.0,2.0,333.0
2022-02-11-10:36:46.714112,18.0,8.0,333.0
2022-02-11-10:36:46.715138,11.0,11.0,334.0
2022-02-11-10:36:46.717133,8.0,7.0,334.0
2022-02-11-10:36:46.718104,9.0,1.0,333.0
2022-02-11-10:36:46.718104,26.0,4.0,333.0
2022-02-11-10:36:46.719127,19.0,11.0,333.0
2022-02-11-10:36:46.720123,2.0,9.0,334.0
2022-02-11-10:36:46.721121,8.0,9.0,334.0
2022-02-11-10:36:46.722118,14.0,4.0,334.0
2022-02-11-10:36:46.723114,8.0,3.0,333.0
2022-02-11-10:36:46.724112,13.0,9.0,334.0
2022-02-11-10:36:46.725111,6.0,8.0,333.0
2022-02-11-10:36:46.726105,9.0,7.0,333.0
2022-02-11-10:36:46.727079,9.0,7.0,333.0
2022-02-11-10:36:46.728102,9.0,7.0,333.0
2022-02-11-10:36:46.729073,7.0,1.0,334.0
2022-02-11-10:36:46.730097,27.0,7.0,334.0
2022-02-11-10:36:46.731093,27.0,7.0,334.0
2022-02-11-10:36:46.732090,27.0,7.0,334.0
2022-02-11-10:36:46.733091,5.0,13.0,334.0
2022-02-11-10:36:46.734085,5.0,13.0,334.0
2022-02-11-10:36:46.735085,5.0,13.0,334.0
2022-02-11-10:36:46.736054,5.0,13.0,334.0
2022-02-11-10:36:46.737050,16.0,20.0,333.0
2022-02-11-10:36:46.738049,0.0,6.0,333.0
2022-02-11-10:36:46.739072,0.0,6.0,333.0
2022-02-11-10:36:46.740043,0.0,6.0,333.0
2022-02-11-10:36:46.741041,10.0,7.0,333.0
2022-02-11-10:36:46.742063,10.0,7.0,333.0
2022-02-11-10:36:46.743061,10.0,7.0,333.0
2022-02-11-10:36:46.744034,10.0,7.0,333.0
2022-02-11-10:36:46.745063,10.0,7.0,333.0
2022-02-11-10:36:46.746062,24.0,7.0,333.0
2022-02-11-10:36:46.747060,24.0,7.0,333.0
2022-02-11-10:36:46.748061,24.0,7.0,333.0
2022-02-11-10:36:46.749056,24.0,7.0,333.0
2022-02-11-10:36:46.750051,6.0,6.0,334.0
2022-02-11-10:36:46.752011,6.0,6.0,334.0
2022-02-11-10:36:46.752011,6.0,6.0,334.0
2022-02-11-10:36:46.753041,8.0,11.0,334.0
2022-02-11-10:36:46.754042,4.0,7.0,333.0
2022-02-11-10:36:46.755035,4.0,7.0,333.0
2022-02-11-10:36:46.756033,4.0,7.0,333.0
2022-02-11-10:36:46.757033,4.0,7.0,333.0
2022-02-11-10:36:46.758028,8.0,8.0,333.0
2022-02-11-10:36:46.759027,2.0,8.0,333.0
2022-02-11-10:36:46.760030,2.0,8.0,333.0
2022-02-11-10:36:46.761023,2.0,8.0,333.0
2022-02-11-10:36:46.762023,3.0,7.0,333.0
2022-02-11-10:36:46.763019,7.0,8.0,333.0
2022-02-11-10:36:46.764013,24.0,2.0,333.0
2022-02-11-10:36:46.765013,24.0,2.0,333.0
2022-02-11-10:36:46.766007,27.0,4.0,334.0
2022-02-11-10:36:46.767009,14.0,6.0,333.0
2022-02-11-10:36:46.767997,4.0,7.0,333.0
2022-02-11-10:36:46.768993,4.0,7.0,333.0
2022-02-11-10:36:46.769991,12.0,7.0,333.0
2022-02-11-10:36:46.770987,13.0,9.0,333.0
2022-02-11-10:36:46.771985,4.0,9.0,334.0
2022-02-11-10:36:46.772955,4.0,9.0,334.0
2022-02-11-10:36:46.773980,0.0,7.0,333.0
2022-02-11-10:36:46.774976,6.0,9.0,333.0
2022-02-11-10:36:46.775972,4.0,9.0,333.0
2022-02-11-10:36:46.776945,4.0,9.0,333.0
2022-02-11-10:36:46.777945,10.0,2.0,333.0
2022-02-11-10:36:46.778976,7.0,5.0,333.0
2022-02-11-10:36:46.779965,23.0,2.0,333.0
2022-02-11-10:36:46.780976,23.0,2.0,333.0
2022-02-11-10:36:46.781968,28.0,6.0,333.0
2022-02-11-10:36:46.782965,11.0,0.0,333.0
2022-02-11-10:36:46.783960,4.0,5.0,333.0
2022-02-11-10:36:46.785920,4.0,5.0,333.0
2022-02-11-10:36:46.785920,10.0,9.0,333.0
2022-02-11-10:36:46.786918,15.0,17.0,334.0
2022-02-11-10:36:46.787949,2.0,18.0,333.0
2022-02-11-10:36:46.788949,2.0,18.0,333.0
2022-02-11-10:36:46.789943,2.0,18.0,333.0
2022-02-11-10:36:46.790942,3.0,13.0,333.0
2022-02-11-10:36:46.791938,4.0,4.0,333.0
2022-02-11-10:36:46.792937,6.0,0.0,333.0
2022-02-11-10:36:46.793901,6.0,0.0,333.0
2022-02-11-10:36:46.794934,6.0,0.0,333.0
2022-02-11-10:36:46.795928,6.0,8.0,333.0
2022-02-11-10:36:46.796928,11.0,8.0,333.0
2022-02-11-10:36:46.797925,21.0,4.0,333.0
2022-02-11-10:36:46.799127,21.0,4.0,333.0
2022-02-11-10:36:46.799127,6.0,11.0,333.0
2022-02-11-10:36:46.799883,6.0,11.0,333.0
2022-02-11-10:36:46.800908,6.0,11.0,333.0
2022-02-11-10:36:46.801904,6.0,11.0,333.0
2022-02-11-10:36:46.802900,18.0,12.0,333.0
2022-02-11-10:36:46.803902,6.0,14.0,333.0
2022-02-11-10:36:46.804904,6.0,14.0,333.0
2022-02-11-10:36:46.805929,6.0,14.0,333.0
2022-02-11-10:36:46.806921,1.0,12.0,333.0
2022-02-11-10:36:46.807920,0.0,11.0,333.0
2022-02-11-10:36:46.808915,7.0,13.0,333.0
2022-02-11-10:36:46.810189,7.0,13.0,333.0
2022-02-11-10:36:46.811213,13.0,10.0,333.0
2022-02-11-10:36:46.812203,10.0,9.0,333.0
2022-02-11-10:36:46.813208,20.0,4.0,333.0
2022-02-11-10:36:46.814298,20.0,4.0,333.0
2022-02-11-10:36:46.815319,23.0,10.0,333.0
2022-02-11-10:36:46.816320,26.0,3.0,333.0
2022-02-11-10:36:46.818307,19.0,8.0,333.0
2022-02-11-10:36:46.818307,21.0,13.0,333.0
2022-02-11-10:36:46.819307,15.0,17.0,334.0
2022-02-11-10:36:46.820278,15.0,17.0,334.0
2022-02-11-10:36:46.821304,15.0,17.0,334.0
2022-02-11-10:36:46.822299,15.0,17.0,334.0
2022-02-11-10:36:46.823295,4.0,11.0,334.0
2022-02-11-10:36:46.824292,5.0,9.0,333.0
2022-02-11-10:36:46.825294,5.0,6.0,333.0
2022-02-11-10:36:46.826288,5.0,6.0,333.0
2022-02-11-10:36:46.827260,11.0,3.0,333.0
2022-02-11-10:36:46.828286,8.0,5.0,333.0
2022-02-11-10:36:46.829278,8.0,5.0,333.0
2022-02-11-10:36:46.830251,8.0,5.0,333.0
2022-02-11-10:36:46.831273,25.0,6.0,333.0
2022-02-11-10:36:46.832271,13.0,9.0,333.0
2022-02-11-10:36:46.833272,7.0,10.0,333.0
2022-02-11-10:36:46.834240,7.0,10.0,333.0
2022-02-11-10:36:46.835265,5.0,3.0,333.0
2022-02-11-10:36:46.836260,12.0,21.0,333.0
2022-02-11-10:36:46.837257,12.0,21.0,333.0
2022-02-11-10:36:46.838256,12.0,21.0,333.0
2022-02-11-10:36:46.839252,1.0,11.0,333.0
2022-02-11-10:36:46.840249,3.0,13.0,333.0
2022-02-11-10:36:46.841250,3.0,13.0,333.0
2022-02-11-10:36:46.842244,3.0,13.0,333.0
2022-02-11-10:36:46.843243,3.0,13.0,333.0
2022-02-11-10:36:46.844239,7.0,4.0,333.0
2022-02-11-10:36:46.845236,7.0,4.0,333.0
2022-02-11-10:36:46.846234,7.0,4.0,333.0
2022-02-11-10:36:46.847232,7.0,4.0,333.0
2022-02-11-10:36:46.848227,22.0,11.0,333.0
2022-02-11-10:36:46.849229,11.0,3.0,333.0
2022-02-11-10:36:46.850223,11.0,3.0,333.0
2022-02-11-10:36:46.851198,11.0,3.0,333.0
2022-02-11-10:36:46.853191,2.0,7.0,333.0
2022-02-11-10:36:46.853191,15.0,12.0,333.0
2022-02-11-10:36:46.854186,15.0,12.0,333.0
2022-02-11-10:36:46.855218,15.0,12.0,333.0
2022-02-11-10:36:46.856221,0.0,4.0,333.0
2022-02-11-10:36:46.857178,3.0,9.0,333.0
2022-02-11-10:36:46.858176,3.0,9.0,333.0
2022-02-11-10:36:46.859208,3.0,9.0,333.0
2022-02-11-10:36:46.860206,0.0,1.0,333.0
2022-02-11-10:36:46.861202,10.0,8.0,333.0
2022-02-11-10:36:46.862199,10.0,8.0,333.0
2022-02-11-10:36:46.863196,10.0,8.0,333.0
2022-02-11-10:36:46.864193,29.0,0.0,333.0
2022-02-11-10:36:46.865195,10.0,10.0,334.0
2022-02-11-10:36:46.866188,10.0,10.0,334.0
2022-02-11-10:36:46.867152,10.0,10.0,334.0
2022-02-11-10:36:46.868182,8.0,10.0,333.0
2022-02-11-10:36:46.869179,12.0,20.0,334.0
2022-02-11-10:36:46.870156,12.0,20.0,334.0
2022-02-11-10:36:46.871145,12.0,20.0,334.0
2022-02-11-10:36:46.872172,8.0,3.0,333.0
2022-02-11-10:36:46.873174,8.0,3.0,333.0
2022-02-11-10:36:46.874167,8.0,3.0,333.0
2022-02-11-10:36:46.875166,8.0,3.0,333.0
2022-02-11-10:36:46.876162,4.0,1.0,333.0
2022-02-11-10:36:46.877127,4.0,6.0,333.0
2022-02-11-10:36:46.878158,4.0,6.0,333.0
2022-02-11-10:36:46.879153,4.0,6.0,333.0
2022-02-11-10:36:46.880150,7.0,6.0,333.0
2022-02-11-10:36:46.881151,20.0,5.0,333.0
2022-02-11-10:36:46.882145,20.0,5.0,333.0
2022-02-11-10:36:46.883144,20.0,5.0,333.0
2022-02-11-10:36:46.884139,20.0,5.0,333.0
2022-02-11-10:36:46.886101,17.0,22.0,333.0
2022-02-11-10:36:46.886101,17.0,22.0,333.0
2022-02-11-10:36:46.887132,17.0,22.0,333.0
2022-02-11-10:36:46.888128,17.0,22.0,333.0
2022-02-11-10:36:46.889130,0.0,12.0,333.0
2022-02-11-10:36:46.890122,6.0,7.0,333.0
2022-02-11-10:36:46.891127,6.0,7.0,333.0
2022-02-11-10:36:46.892117,6.0,7.0,333.0
2022-02-11-10:36:46.893114,7.0,7.0,333.0
2022-02-11-10:36:46.894082,5.0,1.0,333.0
2022-02-11-10:36:46.895110,5.0,1.0,333.0
2022-02-11-10:36:46.896114,5.0,1.0,333.0
2022-02-11-10:36:46.897109,20.0,4.0,333.0
2022-02-11-10:36:46.898102,21.0,8.0,333.0
2022-02-11-10:36:46.899102,21.0,8.0,333.0
2022-02-11-10:36:46.900097,21.0,8.0,333.0
2022-02-11-10:36:46.901094,3.0,6.0,333.0
2022-02-11-10:36:46.902093,16.0,15.0,333.0
2022-02-11-10:36:46.903089,16.0,15.0,333.0
2022-02-11-10:36:46.904086,16.0,15.0,333.0
2022-02-11-10:36:46.905088,9.0,15.0,333.0
2022-02-11-10:36:46.906081,3.0,10.0,333.0
2022-02-11-10:36:46.907080,3.0,10.0,333.0
2022-02-11-10:36:46.908043,3.0,10.0,333.0
2022-02-11-10:36:46.909073,7.0,9.0,333.0
2022-02-11-10:36:46.910072,11.0,8.0,333.0
2022-02-11-10:36:46.911067,11.0,8.0,333.0
2022-02-11-10:36:46.912063,11.0,8.0,333.0
2022-02-11-10:36:46.913029,23.0,4.0,333.0
2022-02-11-10:36:46.914060,24.0,6.0,333.0
2022-02-11-10:36:46.915058,24.0,6.0,333.0
2022-02-11-10:36:46.916055,24.0,6.0,333.0
2022-02-11-10:36:46.917051,24.0,6.0,333.0
2022-02-11-10:36:46.918051,15.0,1.0,333.0
2022-02-11-10:36:46.919046,15.0,1.0,333.0
2022-02-11-10:36:46.921008,15.0,1.0,333.0
2022-02-11-10:36:46.921008,8.0,20.0,333.0
2022-02-11-10:36:46.922038,4.0,16.0,334.0
2022-02-11-10:36:46.923037,4.0,16.0,334.0
2022-02-11-10:36:46.924034,4.0,16.0,334.0
2022-02-11-10:36:46.925031,4.0,16.0,334.0
2022-02-11-10:36:46.926030,6.0,4.0,333.0
2022-02-11-10:36:46.927024,8.0,4.0,333.0
2022-02-11-10:36:46.928023,8.0,4.0,333.0
2022-02-11-10:36:46.929022,8.0,4.0,333.0
2022-02-11-10:36:46.930016,22.0,6.0,333.0
2022-02-11-10:36:46.931018,23.0,4.0,333.0
2022-02-11-10:36:46.932011,23.0,4.0,333.0
2022-02-11-10:36:46.933008,23.0,4.0,333.0
2022-02-11-10:36:46.934008,6.0,1.0,333.0
2022-02-11-10:36:46.935003,5.0,8.0,333.0
2022-02-11-10:36:46.936000,5.0,8.0,333.0
2022-02-11-10:36:46.936966,5.0,8.0,333.0
2022-02-11-10:36:46.937963,0.0,7.0,333.0
2022-02-11-10:36:46.938994,0.0,7.0,333.0
2022-02-11-10:36:46.939989,0.0,7.0,333.0
2022-02-11-10:36:46.940989,0.0,7.0,333.0
2022-02-11-10:36:46.941986,5.0,6.0,333.0
2022-02-11-10:36:46.942981,7.0,3.0,333.0
2022-02-11-10:36:46.943948,7.0,3.0,333.0
2022-02-11-10:36:46.944986,7.0,3.0,333.0
2022-02-11-10:36:46.945942,7.0,3.0,333.0
2022-02-11-10:36:46.946973,16.0,2.0,334.0
2022-02-11-10:36:46.947972,27.0,5.0,333.0
2022-02-11-10:36:46.948942,27.0,5.0,333.0
2022-02-11-10:36:46.949967,0.0,7.0,333.0
2022-02-11-10:36:46.950964,16.0,1.0,333.0
2022-02-11-10:36:46.951959,16.0,1.0,333.0
2022-02-11-10:36:46.952961,16.0,1.0,333.0
2022-02-11-10:36:46.954917,8.0,14.0,334.0
2022-02-11-10:36:46.954917,8.0,14.0,334.0
2022-02-11-10:36:46.955949,8.0,14.0,334.0
2022-02-11-10:36:46.956946,8.0,14.0,334.0
2022-02-11-10:36:46.957945,8.0,14.0,334.0
2022-02-11-10:36:46.958941,6.0,18.0,333.0
2022-02-11-10:36:46.959938,8.0,9.0,333.0
2022-02-11-10:36:46.960939,8.0,9.0,333.0
2022-02-11-10:36:46.961933,8.0,9.0,333.0
2022-02-11-10:36:46.962931,25.0,7.0,333.0
2022-02-11-10:36:46.963926,23.0,8.0,333.0
2022-02-11-10:36:46.964924,23.0,8.0,333.0
2022-02-11-10:36:46.965922,23.0,8.0,333.0
2022-02-11-10:36:46.966921,9.0,3.0,333.0
2022-02-11-10:36:46.967915,11.0,4.0,333.0
2022-02-11-10:36:46.968917,11.0,4.0,333.0
2022-02-11-10:36:46.969910,11.0,4.0,333.0
2022-02-11-10:36:46.970910,11.0,11.0,333.0
2022-02-11-10:36:46.971904,1.0,2.0,333.0
2022-02-11-10:36:46.972902,1.0,2.0,333.0
2022-02-11-10:36:46.973901,1.0,2.0,333.0
2022-02-11-10:36:46.974903,8.0,3.0,333.0
2022-02-11-10:36:46.975894,4.0,19.0,333.0
2022-02-11-10:36:46.976895,4.0,19.0,333.0
2022-02-11-10:36:46.977891,4.0,19.0,333.0
2022-02-11-10:36:46.978888,25.0,3.0,333.0
2022-02-11-10:36:46.979883,27.0,7.0,333.0
2022-02-11-10:36:46.980881,27.0,7.0,333.0
2022-02-11-10:36:46.981846,27.0,7.0,333.0
2022-02-11-10:36:46.982875,12.0,9.0,333.0
2022-02-11-10:36:46.983873,3.0,4.0,333.0
2022-02-11-10:36:46.984874,3.0,4.0,333.0
2022-02-11-10:36:46.985835,3.0,4.0,333.0
2022-02-11-10:36:46.987829,3.0,10.0,333.0
2022-02-11-10:36:46.987829,3.0,10.0,333.0
2022-02-11-10:36:46.988861,3.0,10.0,333.0
2022-02-11-10:36:46.989868,3.0,10.0,333.0
2022-02-11-10:36:46.990858,5.0,6.0,333.0
2022-02-11-10:36:46.991850,10.0,9.0,332.0
2022-02-11-10:36:46.992852,10.0,9.0,332.0
2022-02-11-10:36:46.993815,10.0,9.0,332.0
2022-02-11-10:36:46.994845,7.0,10.0,333.0
2022-02-11-10:36:46.995843,23.0,11.0,333.0
2022-02-11-10:36:46.996838,23.0,11.0,333.0
2022-02-11-10:36:46.997837,23.0,11.0,333.0
2022-02-11-10:36:46.998832,23.0,11.0,333.0
2022-02-11-10:36:46.999830,5.0,8.0,334.0
2022-02-11-10:36:47.000826,5.0,5.0,333.0
2022-02-11-10:36:47.001824,5.0,5.0,333.0
2022-02-11-10:36:47.002824,5.0,5.0,333.0
2022-02-11-10:36:47.003819,0.0,18.0,333.0
2022-02-11-10:36:47.004817,0.0,18.0,333.0
2022-02-11-10:36:47.005815,0.0,18.0,333.0
2022-02-11-10:36:47.006812,0.0,18.0,333.0
2022-02-11-10:36:47.007809,5.0,3.0,333.0
2022-02-11-10:36:47.008810,11.0,7.0,333.0
2022-02-11-10:36:47.009806,11.0,7.0,333.0
2022-02-11-10:36:47.010770,11.0,7.0,333.0
2022-02-11-10:36:47.011799,6.0,3.0,333.0
2022-02-11-10:36:47.012795,25.0,2.0,333.0
2022-02-11-10:36:47.013794,25.0,2.0,333.0
2022-02-11-10:36:47.014790,25.0,2.0,333.0
2022-02-11-10:36:47.015791,15.0,10.0,333.0
2022-02-11-10:36:47.016788,3.0,4.0,333.0
2022-02-11-10:36:47.017782,3.0,4.0,333.0
2022-02-11-10:36:47.018747,3.0,4.0,333.0
2022-02-11-10:36:47.019780,12.0,17.0,333.0
2022-02-11-10:36:47.020774,6.0,10.0,333.0
2022-02-11-10:36:47.022737,6.0,10.0,333.0
2022-02-11-10:36:47.022737,2.0,0.0,333.0
2022-02-11-10:36:47.023766,9.0,7.0,333.0
2022-02-11-10:36:47.024767,9.0,7.0,333.0
2022-02-11-10:36:47.025761,9.0,7.0,333.0
2022-02-11-10:36:47.026761,9.0,7.0,333.0
2022-02-11-10:36:47.027755,8.0,7.0,333.0
2022-02-11-10:36:47.028756,19.0,2.0,333.0
2022-02-11-10:36:47.029752,19.0,2.0,333.0
2022-02-11-10:36:47.030747,19.0,2.0,333.0
2022-02-11-10:36:47.031745,19.0,2.0,333.0
2022-02-11-10:36:47.032746,4.0,1.0,333.0
2022-02-11-10:36:47.033740,4.0,1.0,333.0
2022-02-11-10:36:47.034738,4.0,1.0,333.0
2022-02-11-10:36:47.035734,4.0,1.0,333.0
2022-02-11-10:36:47.036731,20.0,13.0,333.0
2022-02-11-10:36:47.037736,8.0,10.0,333.0
2022-02-11-10:36:47.038729,8.0,10.0,333.0
2022-02-11-10:36:47.039723,4.0,11.0,333.0
2022-02-11-10:36:47.040725,8.0,11.0,333.0
2022-02-11-10:36:47.041718,8.0,11.0,333.0
2022-02-11-10:36:47.042717,8.0,11.0,333.0
2022-02-11-10:36:47.043712,8.0,11.0,333.0
2022-02-11-10:36:47.044712,9.0,3.0,333.0
2022-02-11-10:36:47.045710,15.0,9.0,333.0
2022-02-11-10:36:47.046706,15.0,9.0,333.0
2022-02-11-10:36:47.047702,15.0,9.0,333.0
2022-02-11-10:36:47.048703,20.0,15.0,333.0
2022-02-11-10:36:47.049696,16.0,9.0,333.0
2022-02-11-10:36:47.050696,6.0,2.0,333.0
2022-02-11-10:36:47.051692,6.0,2.0,333.0
2022-02-11-10:36:47.052689,2.0,1.0,333.0
2022-02-11-10:36:47.053654,7.0,11.0,333.0
2022-02-11-10:36:47.054684,7.0,11.0,333.0
2022-02-11-10:36:47.056680,7.0,11.0,333.0
2022-02-11-10:36:47.056680,4.0,3.0,333.0
2022-02-11-10:36:47.057676,4.0,3.0,333.0
2022-02-11-10:36:47.058679,4.0,3.0,333.0
2022-02-11-10:36:47.059638,4.0,3.0,333.0
2022-02-11-10:36:47.060637,2.0,3.0,333.0
2022-02-11-10:36:47.061667,2.0,2.0,333.0
2022-02-11-10:36:47.062664,8.0,16.0,333.0
2022-02-11-10:36:47.063649,8.0,16.0,333.0
2022-02-11-10:36:47.064662,24.0,0.0,333.0
2022-02-11-10:36:47.065655,16.0,13.0,333.0
2022-02-11-10:36:47.066653,13.0,3.0,333.0
2022-02-11-10:36:47.067652,13.0,3.0,333.0
2022-02-11-10:36:47.068647,13.0,3.0,333.0
2022-02-11-10:36:47.069645,10.0,5.0,333.0
2022-02-11-10:36:47.070644,12.0,17.0,333.0
2022-02-11-10:36:47.071638,10.0,22.0,333.0
2022-02-11-10:36:47.072635,3.0,14.0,333.0
2022-02-11-10:36:47.073634,5.0,10.0,333.0
2022-02-11-10:36:47.074633,6.0,8.0,333.0
2022-02-11-10:36:47.075632,6.0,8.0,333.0
2022-02-11-10:36:47.076626,6.0,8.0,333.0
2022-02-11-10:36:47.077592,6.0,5.0,333.0
2022-02-11-10:36:47.078621,7.0,1.0,333.0
2022-02-11-10:36:47.079624,7.0,1.0,333.0
2022-02-11-10:36:47.080614,7.0,1.0,333.0
2022-02-11-10:36:47.081612,20.0,6.0,333.0
2022-02-11-10:36:47.082611,21.0,10.0,333.0
2022-02-11-10:36:47.083607,14.0,9.0,333.0
2022-02-11-10:36:47.084608,14.0,9.0,333.0
2022-02-11-10:36:47.085568,9.0,5.0,332.0
2022-02-11-10:36:47.086599,3.0,2.0,333.0
2022-02-11-10:36:47.087603,15.0,8.0,333.0
2022-02-11-10:36:47.089558,20.0,13.0,334.0
2022-02-11-10:36:47.089558,0.0,14.0,333.0
2022-02-11-10:36:47.090589,8.0,3.0,333.0
2022-02-11-10:36:47.091584,8.0,3.0,333.0
2022-02-11-10:36:47.092581,8.0,3.0,333.0
2022-02-11-10:36:47.093583,3.0,1.0,333.0
2022-02-11-10:36:47.094578,5.0,4.0,333.0
2022-02-11-10:36:47.095575,8.0,5.0,333.0
2022-02-11-10:36:47.096541,8.0,5.0,333.0
2022-02-11-10:36:47.097576,15.0,1.0,333.0
2022-02-11-10:36:47.098568,26.0,9.0,333.0
2022-02-11-10:36:47.099565,13.0,6.0,333.0
2022-02-11-10:36:47.100529,13.0,6.0,333.0
2022-02-11-10:36:47.101562,15.0,9.0,333.0
2022-02-11-10:36:47.102556,15.0,9.0,333.0
2022-02-11-10:36:47.103521,15.0,9.0,333.0
2022-02-11-10:36:47.104518,15.0,9.0,333.0
2022-02-11-10:36:47.105549,15.0,9.0,333.0
2022-02-11-10:36:47.106547,8.0,7.0,333.0
2022-02-11-10:36:47.107543,8.0,7.0,333.0
2022-02-11-10:36:47.108540,8.0,7.0,333.0
2022-02-11-10:36:47.109538,8.0,7.0,333.0
2022-02-11-10:36:47.110534,7.0,4.0,333.0
2022-02-11-10:36:47.111539,9.0,0.0,333.0
2022-02-11-10:36:47.112534,9.0,0.0,333.0
2022-02-11-10:36:47.113527,9.0,0.0,333.0
2022-02-11-10:36:47.114525,11.0,5.0,333.0
2022-02-11-10:36:47.115522,23.0,10.0,333.0
2022-02-11-10:36:47.116519,14.0,17.0,333.0
2022-02-11-10:36:47.117517,14.0,17.0,333.0
2022-02-11-10:36:47.118514,6.0,2.0,333.0
2022-02-11-10:36:47.119511,10.0,13.0,333.0
2022-02-11-10:36:47.120512,10.0,17.0,333.0
2022-02-11-10:36:47.121506,10.0,17.0,333.0
2022-02-11-10:36:47.122506,12.0,23.0,333.0
2022-02-11-10:36:47.124498,1.0,2.0,333.0
2022-02-11-10:36:47.124498,9.0,13.0,333.0
2022-02-11-10:36:47.125462,9.0,12.0,333.0
2022-02-11-10:36:47.126492,8.0,5.0,333.0
2022-02-11-10:36:47.127456,8.0,5.0,333.0
2022-02-11-10:36:47.128492,8.0,5.0,333.0
2022-02-11-10:36:47.129484,8.0,5.0,333.0
2022-02-11-10:36:47.130483,9.0,6.0,333.0
2022-02-11-10:36:47.131479,24.0,11.0,333.0
2022-02-11-10:36:47.132477,27.0,12.0,333.0
2022-02-11-10:36:47.133440,27.0,12.0,333.0
2022-02-11-10:36:47.134471,11.0,10.0,333.0
2022-02-11-10:36:47.135469,5.0,7.0,333.0
2022-02-11-10:36:47.136470,11.0,3.0,333.0
2022-02-11-10:36:47.137430,11.0,3.0,333.0
2022-02-11-10:36:47.138461,13.0,16.0,333.0
2022-02-11-10:36:47.139458,5.0,14.0,333.0
2022-02-11-10:36:47.140455,2.0,21.0,333.0
2022-02-11-10:36:47.141454,2.0,21.0,333.0
2022-02-11-10:36:47.142450,2.0,17.0,333.0
2022-02-11-10:36:47.143447,10.0,16.0,333.0
2022-02-11-10:36:47.144411,9.0,7.0,333.0
2022-02-11-10:36:47.145442,9.0,7.0,333.0
2022-02-11-10:36:47.146440,9.0,7.0,333.0
2022-02-11-10:36:47.147443,14.0,9.0,333.0
2022-02-11-10:36:47.148434,25.0,8.0,333.0
2022-02-11-10:36:47.149431,25.0,8.0,333.0
2022-02-11-10:36:47.150428,25.0,8.0,333.0
2022-02-11-10:36:47.151426,16.0,3.0,333.0
2022-02-11-10:36:47.152428,0.0,4.0,333.0
2022-02-11-10:36:47.153421,12.0,8.0,333.0
2022-02-11-10:36:47.154418,12.0,8.0,333.0
2022-02-11-10:36:47.155415,16.0,17.0,333.0
2022-02-11-10:36:47.156413,2.0,6.0,333.0
2022-02-11-10:36:47.158373,2.0,8.0,333.0
2022-02-11-10:36:47.158373,2.0,8.0,333.0
2022-02-11-10:36:47.159405,7.0,3.0,333.0
2022-02-11-10:36:47.160406,7.0,3.0,333.0
2022-02-11-10:36:47.161399,7.0,3.0,333.0
2022-02-11-10:36:47.162397,7.0,3.0,333.0
2022-02-11-10:36:47.163394,7.0,1.0,333.0
2022-02-11-10:36:47.164391,26.0,6.0,333.0
2022-02-11-10:36:47.165389,18.0,2.0,333.0
2022-02-11-10:36:47.166386,18.0,2.0,333.0
2022-02-11-10:36:47.167383,9.0,0.0,334.0
2022-02-11-10:36:47.168379,10.0,4.0,333.0
2022-02-11-10:36:47.169378,21.0,9.0,333.0
2022-02-11-10:36:47.170342,21.0,9.0,333.0
2022-02-11-10:36:47.171372,18.0,16.0,333.0
2022-02-11-10:36:47.172370,9.0,12.0,333.0
2022-02-11-10:36:47.173367,1.0,6.0,333.0
2022-02-11-10:36:47.174331,1.0,6.0,333.0
2022-02-11-10:36:47.175362,5.0,5.0,333.0
2022-02-11-10:36:47.176363,7.0,6.0,333.0
2022-02-11-10:36:47.177324,7.0,6.0,333.0
2022-02-11-10:36:47.178320,7.0,6.0,333.0
2022-02-11-10:36:47.179352,9.0,1.0,333.0
2022-02-11-10:36:47.180349,24.0,6.0,333.0
2022-02-11-10:36:47.181346,23.0,2.0,333.0
2022-02-11-10:36:47.182344,23.0,2.0,333.0
2022-02-11-10:36:47.183340,23.0,2.0,333.0
2022-02-11-10:36:47.184342,2.0,0.0,333.0
2022-02-11-10:36:47.185335,16.0,11.0,333.0
2022-02-11-10:36:47.186333,16.0,11.0,333.0
2022-02-11-10:36:47.187330,17.0,18.0,333.0
2022-02-11-10:36:47.188327,1.0,14.0,333.0
2022-02-11-10:36:47.189325,7.0,10.0,333.0
2022-02-11-10:36:47.190322,7.0,10.0,333.0
2022-02-11-10:36:47.192283,7.0,10.0,333.0
2022-02-11-10:36:47.192283,9.0,2.0,333.0
2022-02-11-10:36:47.193280,9.0,2.0,333.0
2022-02-11-10:36:47.194312,9.0,2.0,333.0
2022-02-11-10:36:47.195309,9.0,2.0,333.0
2022-02-11-10:36:47.196307,7.0,6.0,333.0
2022-02-11-10:36:47.197306,26.0,5.0,333.0
2022-02-11-10:36:47.198300,24.0,9.0,333.0
2022-02-11-10:36:47.199298,24.0,9.0,333.0
2022-02-11-10:36:47.200302,11.0,5.0,333.0
2022-02-11-10:36:47.201292,1.0,10.0,333.0
2022-02-11-10:36:47.202290,10.0,8.0,333.0
2022-02-11-10:36:47.203287,10.0,8.0,333.0
2022-02-11-10:36:47.204285,14.0,14.0,333.0
2022-02-11-10:36:47.205282,3.0,14.0,333.0
2022-02-11-10:36:47.206280,3.0,14.0,333.0
2022-02-11-10:36:47.207276,3.0,14.0,333.0
2022-02-11-10:36:47.208278,4.0,9.0,333.0
2022-02-11-10:36:47.209272,2.0,4.0,333.0
2022-02-11-10:36:47.210270,0.0,2.0,333.0
2022-02-11-10:36:47.211233,0.0,2.0,333.0
2022-02-11-10:36:47.212262,10.0,6.0,333.0
2022-02-11-10:36:47.213261,25.0,3.0,333.0
2022-02-11-10:36:47.214257,26.0,4.0,333.0
2022-02-11-10:36:47.215222,26.0,4.0,333.0
2022-02-11-10:36:47.216255,17.0,6.0,333.0
2022-02-11-10:36:47.217252,1.0,3.0,333.0
2022-02-11-10:36:47.218248,3.0,7.0,333.0
2022-02-11-10:36:47.219244,3.0,7.0,333.0
2022-02-11-10:36:47.220208,14.0,14.0,333.0
2022-02-11-10:36:47.221240,9.0,10.0,333.0
2022-02-11-10:36:47.222236,5.0,5.0,333.0
2022-02-11-10:36:47.223232,5.0,5.0,333.0
2022-02-11-10:36:47.224234,5.0,5.0,333.0
2022-02-11-10:36:47.225229,9.0,3.0,333.0
2022-02-11-10:36:47.226228,6.0,0.0,333.0
2022-02-11-10:36:47.228224,5.0,1.0,333.0
2022-02-11-10:36:47.228224,5.0,1.0,333.0
2022-02-11-10:36:47.229226,12.0,5.0,333.0
2022-02-11-10:36:47.230214,23.0,5.0,333.0
2022-02-11-10:36:47.231213,23.0,5.0,333.0
2022-02-11-10:36:47.232213,23.0,5.0,333.0
2022-02-11-10:36:47.233206,21.0,12.0,333.0
2022-02-11-10:36:47.234206,9.0,1.0,333.0
2022-02-11-10:36:47.235201,1.0,3.0,333.0
2022-02-11-10:36:47.236198,1.0,3.0,333.0
2022-02-11-10:36:47.237198,10.0,3.0,333.0
2022-02-11-10:36:47.238193,12.0,6.0,333.0
2022-02-11-10:36:47.239191,3.0,3.0,333.0
2022-02-11-10:36:47.240191,3.0,3.0,333.0
2022-02-11-10:36:47.241185,3.0,1.0,333.0
2022-02-11-10:36:47.242184,4.0,22.0,333.0
2022-02-11-10:36:47.243180,13.0,18.0,333.0
2022-02-11-10:36:47.244146,13.0,18.0,333.0
2022-02-11-10:36:47.245176,11.0,7.0,333.0
2022-02-11-10:36:47.246173,21.0,16.0,333.0
2022-02-11-10:36:47.247168,21.0,16.0,333.0
2022-02-11-10:36:47.248134,21.0,16.0,333.0
2022-02-11-10:36:47.249163,28.0,12.0,333.0
2022-02-11-10:36:47.250163,7.0,4.0,332.0
2022-02-11-10:36:47.251159,3.0,0.0,333.0
2022-02-11-10:36:47.252123,3.0,0.0,333.0
2022-02-11-10:36:47.253155,16.0,8.0,333.0
2022-02-11-10:36:47.254151,15.0,21.0,333.0
2022-02-11-10:36:47.255148,6.0,13.0,333.0
2022-02-11-10:36:47.256149,6.0,13.0,333.0
2022-02-11-10:36:47.257110,0.0,13.0,333.0
2022-02-11-10:36:47.258141,8.0,6.0,333.0
2022-02-11-10:36:47.259137,8.0,6.0,333.0
2022-02-11-10:36:47.260134,8.0,6.0,333.0
2022-02-11-10:36:47.262096,6.0,2.0,333.0
2022-02-11-10:36:47.262096,21.0,0.0,333.0
2022-02-11-10:36:47.263125,21.0,0.0,333.0
2022-02-11-10:36:47.264126,21.0,0.0,333.0
2022-02-11-10:36:47.265120,21.0,0.0,333.0
2022-02-11-10:36:47.266120,10.0,1.0,333.0
2022-02-11-10:36:47.267116,4.0,4.0,333.0
2022-02-11-10:36:47.268112,4.0,4.0,333.0
2022-02-11-10:36:47.269112,4.0,4.0,333.0
2022-02-11-10:36:47.270109,18.0,13.0,333.0
2022-02-11-10:36:47.271108,4.0,17.0,333.0
2022-02-11-10:36:47.272106,4.0,17.0,333.0
2022-02-11-10:36:47.273103,4.0,17.0,333.0
2022-02-11-10:36:47.274098,1.0,3.0,333.0
2022-02-11-10:36:47.275094,4.0,5.0,333.0
2022-02-11-10:36:47.276091,4.0,5.0,333.0
2022-02-11-10:36:47.277092,4.0,5.0,333.0
2022-02-11-10:36:47.278054,11.0,10.0,333.0
2022-02-11-10:36:47.279083,18.0,1.0,333.0
2022-02-11-10:36:47.280084,18.0,1.0,333.0
2022-02-11-10:36:47.281077,18.0,1.0,333.0
2022-02-11-10:36:47.282077,11.0,6.0,333.0
2022-02-11-10:36:47.283072,5.0,7.0,333.0
2022-02-11-10:36:47.284069,5.0,7.0,333.0
2022-02-11-10:36:47.285069,5.0,7.0,333.0
2022-02-11-10:36:47.286064,19.0,11.0,333.0
2022-02-11-10:36:47.287064,11.0,9.0,333.0
2022-02-11-10:36:47.288058,11.0,9.0,333.0
2022-02-11-10:36:47.289025,11.0,9.0,333.0
2022-02-11-10:36:47.290056,2.0,5.0,333.0
2022-02-11-10:36:47.291051,7.0,7.0,333.0
2022-02-11-10:36:47.292049,7.0,7.0,333.0
2022-02-11-10:36:47.293017,7.0,7.0,333.0
2022-02-11-10:36:47.294044,5.0,4.0,333.0
2022-02-11-10:36:47.295041,7.0,5.0,333.0
2022-02-11-10:36:47.297036,7.0,5.0,333.0
2022-02-11-10:36:47.297036,24.0,6.0,333.0
2022-02-11-10:36:47.298034,8.0,2.0,333.0
2022-02-11-10:36:47.299032,8.0,2.0,333.0
2022-02-11-10:36:47.300028,8.0,2.0,333.0
2022-02-11-10:36:47.301026,8.0,2.0,333.0
2022-02-11-10:36:47.302027,2.0,1.0,333.0
2022-02-11-10:36:47.303019,17.0,14.0,333.0
2022-02-11-10:36:47.304022,17.0,14.0,333.0
2022-02-11-10:36:47.305015,17.0,14.0,333.0
2022-02-11-10:36:47.306015,17.0,14.0,333.0
2022-02-11-10:36:47.307008,1.0,2.0,333.0
2022-02-11-10:36:47.308006,4.0,9.0,333.0
2022-02-11-10:36:47.309006,4.0,9.0,333.0
2022-02-11-10:36:47.310000,4.0,9.0,333.0
2022-02-11-10:36:47.310967,7.0,9.0,333.0
2022-02-11-10:36:47.311999,4.0,9.0,333.0
2022-02-11-10:36:47.312994,4.0,9.0,333.0
2022-02-11-10:36:47.313993,4.0,9.0,333.0
2022-02-11-10:36:47.314988,27.0,3.0,333.0
2022-02-11-10:36:47.315986,11.0,5.0,333.0
2022-02-11-10:36:47.316984,11.0,5.0,333.0
2022-02-11-10:36:47.317981,11.0,5.0,333.0
2022-02-11-10:36:47.318977,13.0,12.0,333.0
2022-02-11-10:36:47.319941,20.0,16.0,333.0
2022-02-11-10:36:47.320971,20.0,16.0,333.0
2022-02-11-10:36:47.321973,20.0,16.0,333.0
2022-02-11-10:36:47.322968,3.0,11.0,333.0
2022-02-11-10:36:47.323964,5.0,5.0,334.0
2022-02-11-10:36:47.324964,5.0,5.0,334.0
2022-02-11-10:36:47.325926,5.0,5.0,334.0
2022-02-11-10:36:47.326954,3.0,0.0,333.0
2022-02-11-10:36:47.327958,11.0,10.0,333.0
2022-02-11-10:36:47.328952,11.0,10.0,333.0
2022-02-11-10:36:47.330912,11.0,10.0,333.0
2022-02-11-10:36:47.330912,30.0,5.0,333.0
2022-02-11-10:36:47.331943,15.0,6.0,333.0
2022-02-11-10:36:47.332942,15.0,6.0,333.0
2022-02-11-10:36:47.333937,15.0,6.0,333.0
2022-02-11-10:36:47.334933,2.0,8.0,333.0
2022-02-11-10:36:47.335930,17.0,8.0,333.0
2022-02-11-10:36:47.336898,17.0,8.0,333.0
2022-02-11-10:36:47.337894,17.0,8.0,333.0
2022-02-11-10:36:47.338927,17.0,8.0,333.0
2022-02-11-10:36:47.339921,4.0,15.0,333.0
2022-02-11-10:36:47.340920,4.0,15.0,333.0
2022-02-11-10:36:47.341915,4.0,15.0,333.0
2022-02-11-10:36:47.342912,4.0,15.0,333.0
2022-02-11-10:36:47.343913,11.0,17.0,333.0
2022-02-11-10:36:47.344909,6.0,5.0,333.0
2022-02-11-10:36:47.345906,6.0,5.0,333.0
2022-02-11-10:36:47.346903,6.0,5.0,333.0
2022-02-11-10:36:47.347900,17.0,6.0,333.0
2022-02-11-10:36:47.348898,17.0,6.0,333.0
2022-02-11-10:36:47.349893,17.0,6.0,333.0
2022-02-11-10:36:47.350891,17.0,6.0,333.0
2022-02-11-10:36:47.351893,11.0,7.0,333.0
2022-02-11-10:36:47.352886,20.0,16.0,333.0
2022-02-11-10:36:47.353885,20.0,16.0,333.0
2022-02-11-10:36:47.354881,20.0,16.0,333.0
2022-02-11-10:36:47.355878,2.0,6.0,333.0
2022-02-11-10:36:47.356877,6.0,5.0,333.0
2022-02-11-10:36:47.357873,6.0,5.0,333.0
2022-02-11-10:36:47.358871,6.0,5.0,333.0
2022-02-11-10:36:47.359871,4.0,2.0,333.0
2022-02-11-10:36:47.360833,9.0,2.0,333.0
2022-02-11-10:36:47.361864,9.0,2.0,333.0
2022-02-11-10:36:47.362827,9.0,2.0,333.0
2022-02-11-10:36:47.364821,27.0,8.0,333.0
2022-02-11-10:36:47.364821,21.0,10.0,332.0
2022-02-11-10:36:47.365850,21.0,10.0,332.0
2022-02-11-10:36:47.366817,21.0,10.0,332.0
2022-02-11-10:36:47.367849,8.0,8.0,333.0
2022-02-11-10:36:47.368843,14.0,9.0,333.0
2022-02-11-10:36:47.369842,14.0,9.0,333.0
2022-02-11-10:36:47.370839,14.0,9.0,333.0
2022-02-11-10:36:47.371836,6.0,14.0,333.0
2022-02-11-10:36:47.372835,3.0,5.0,333.0
2022-02-11-10:36:47.373829,3.0,5.0,333.0
2022-02-11-10:36:47.374830,3.0,5.0,333.0
2022-02-11-10:36:47.375828,3.0,5.0,333.0
2022-02-11-10:36:47.376821,7.0,0.0,333.0
2022-02-11-10:36:47.377789,7.0,0.0,333.0
2022-02-11-10:36:47.378817,7.0,0.0,333.0
2022-02-11-10:36:47.379816,7.0,0.0,333.0
2022-02-11-10:36:47.380816,23.0,5.0,333.0
2022-02-11-10:36:47.381808,23.0,5.0,333.0
2022-02-11-10:36:47.382806,23.0,5.0,333.0
2022-02-11-10:36:47.383807,23.0,5.0,333.0
2022-02-11-10:36:47.384801,2.0,6.0,333.0
2022-02-11-10:36:47.385800,13.0,7.0,333.0
2022-02-11-10:36:47.386797,13.0,7.0,333.0
2022-02-11-10:36:47.387793,13.0,7.0,333.0
2022-02-11-10:36:47.388793,12.0,14.0,333.0
2022-02-11-10:36:47.389787,2.0,8.0,334.0
2022-02-11-10:36:47.390785,2.0,8.0,334.0
2022-02-11-10:36:47.391786,2.0,8.0,334.0
2022-02-11-10:36:47.392779,4.0,0.0,333.0
2022-02-11-10:36:47.393778,8.0,1.0,333.0
2022-02-11-10:36:47.394774,8.0,1.0,333.0
2022-02-11-10:36:47.395771,8.0,1.0,333.0
2022-02-11-10:36:47.397733,20.0,1.0,334.0
2022-02-11-10:36:47.397733,20.0,1.0,334.0
2022-02-11-10:36:47.398765,20.0,1.0,334.0
2022-02-11-10:36:47.399766,20.0,1.0,334.0
2022-02-11-10:36:47.400759,13.0,2.0,333.0
2022-02-11-10:36:47.401757,6.0,3.0,333.0
2022-02-11-10:36:47.402754,16.0,4.0,333.0
2022-02-11-10:36:47.403718,16.0,4.0,333.0
2022-02-11-10:36:47.404749,16.0,4.0,333.0
2022-02-11-10:36:47.405745,4.0,8.0,333.0
2022-02-11-10:36:47.406743,2.0,3.0,333.0
2022-02-11-10:36:47.407707,2.0,3.0,333.0
2022-02-11-10:36:47.408738,3.0,7.0,333.0
2022-02-11-10:36:47.409736,2.0,11.0,333.0
2022-02-11-10:36:47.410732,7.0,12.0,333.0
2022-02-11-10:36:47.411731,7.0,12.0,333.0
2022-02-11-10:36:47.412727,10.0,4.0,333.0
2022-02-11-10:36:47.413724,27.0,5.0,333.0
2022-02-11-10:36:47.414721,22.0,9.0,333.0
2022-02-11-10:36:47.415723,22.0,9.0,333.0
2022-02-11-10:36:47.416717,22.0,9.0,333.0
2022-02-11-10:36:47.417714,8.0,0.0,333.0
2022-02-11-10:36:47.418711,16.0,8.0,333.0
2022-02-11-10:36:47.419709,16.0,8.0,333.0
2022-02-11-10:36:47.420706,16.0,8.0,333.0
2022-02-11-10:36:47.421703,20.0,15.0,333.0
2022-02-11-10:36:47.422701,3.0,13.0,333.0
2022-02-11-10:36:47.423702,3.0,13.0,333.0
2022-02-11-10:36:47.424695,3.0,13.0,333.0
2022-02-11-10:36:47.425693,2.0,7.0,333.0
2022-02-11-10:36:47.426690,5.0,5.0,333.0
2022-02-11-10:36:47.427654,7.0,3.0,333.0
2022-02-11-10:36:47.428694,7.0,3.0,333.0
2022-02-11-10:36:47.429682,7.0,3.0,333.0
2022-02-11-10:36:47.431643,21.0,10.0,333.0
2022-02-11-10:36:47.431643,22.0,13.0,333.0
2022-02-11-10:36:47.432673,22.0,13.0,333.0
2022-02-11-10:36:47.433672,12.0,3.0,333.0
2022-02-11-10:36:47.434668,11.0,15.0,333.0
2022-02-11-10:36:47.435672,11.0,15.0,333.0
2022-02-11-10:36:47.436664,11.0,15.0,333.0
2022-02-11-10:36:47.437671,16.0,18.0,333.0
2022-02-11-10:36:47.438658,1.0,15.0,333.0
2022-02-11-10:36:47.439659,2.0,8.0,333.0
2022-02-11-10:36:47.440619,2.0,8.0,333.0
2022-02-11-10:36:47.441654,5.0,6.0,333.0
2022-02-11-10:36:47.442648,3.0,5.0,333.0
2022-02-11-10:36:47.443644,7.0,4.0,333.0
2022-02-11-10:36:47.444609,7.0,4.0,333.0
2022-02-11-10:36:47.445640,8.0,2.0,333.0
2022-02-11-10:36:47.446639,23.0,8.0,333.0
2022-02-11-10:36:47.447637,25.0,5.0,333.0
2022-02-11-10:36:47.448631,25.0,5.0,333.0
2022-02-11-10:36:47.449629,17.0,5.0,333.0
2022-02-11-10:36:47.450627,8.0,4.0,333.0
2022-02-11-10:36:47.451623,8.0,4.0,333.0
2022-02-11-10:36:47.452621,8.0,4.0,333.0
2022-02-11-10:36:47.453584,17.0,13.0,333.0
2022-02-11-10:36:47.454615,5.0,11.0,333.0
2022-02-11-10:36:47.455616,1.0,7.0,333.0
2022-02-11-10:36:47.456609,1.0,7.0,333.0
2022-02-11-10:36:47.457608,1.0,7.0,333.0
2022-02-11-10:36:47.458609,1.0,3.0,333.0
2022-02-11-10:36:47.459602,6.0,2.0,333.0
2022-02-11-10:36:47.460615,7.0,5.0,333.0
2022-02-11-10:36:47.461619,7.0,5.0,333.0
2022-02-11-10:36:47.462615,8.0,7.0,333.0
2022-02-11-10:36:47.463617,21.0,1.0,333.0
2022-02-11-10:36:47.464610,25.0,8.0,333.0
2022-02-11-10:36:47.466549,25.0,8.0,333.0
2022-02-11-10:36:47.466549,1.0,8.0,333.0
2022-02-11-10:36:47.467578,1.0,8.0,333.0
2022-02-11-10:36:47.468578,1.0,8.0,333.0
2022-02-11-10:36:47.469573,1.0,8.0,333.0
2022-02-11-10:36:47.470572,18.0,13.0,333.0
2022-02-11-10:36:47.471572,10.0,18.0,333.0
2022-02-11-10:36:47.472568,1.0,7.0,333.0
2022-02-11-10:36:47.473571,1.0,7.0,333.0
2022-02-11-10:36:47.474560,2.0,3.0,333.0
2022-02-11-10:36:47.475564,4.0,4.0,333.0
2022-02-11-10:36:47.476557,8.0,1.0,333.0
2022-02-11-10:36:47.477522,8.0,1.0,333.0
2022-02-11-10:36:47.478558,13.0,0.0,333.0
2022-02-11-10:36:47.479552,25.0,10.0,334.0
2022-02-11-10:36:47.480546,25.0,10.0,334.0
2022-02-11-10:36:47.481510,25.0,10.0,334.0
2022-02-11-10:36:47.482541,18.0,5.0,333.0
2022-02-11-10:36:47.483537,5.0,2.0,333.0
2022-02-11-10:36:47.484536,5.0,2.0,333.0
2022-02-11-10:36:47.485512,5.0,2.0,333.0
2022-02-11-10:36:47.486529,12.0,10.0,333.0
2022-02-11-10:36:47.487531,12.0,22.0,333.0
2022-02-11-10:36:47.488526,2.0,9.0,333.0
2022-02-11-10:36:47.489523,2.0,9.0,333.0
2022-02-11-10:36:47.490519,2.0,9.0,333.0
2022-02-11-10:36:47.491517,4.0,9.0,333.0
2022-02-11-10:36:47.492515,2.0,4.0,333.0
2022-02-11-10:36:47.493513,3.0,3.0,333.0
2022-02-11-10:36:47.494509,3.0,3.0,333.0
2022-02-11-10:36:47.495511,3.0,7.0,333.0
2022-02-11-10:36:47.496503,9.0,9.0,333.0
2022-02-11-10:36:47.497501,25.0,3.0,333.0
2022-02-11-10:36:47.499461,25.0,3.0,333.0
2022-02-11-10:36:47.499461,19.0,10.0,333.0
2022-02-11-10:36:47.500493,2.0,3.0,333.0
2022-02-11-10:36:47.501492,2.0,3.0,333.0
2022-02-11-10:36:47.502488,2.0,3.0,333.0
2022-02-11-10:36:47.503452,8.0,5.0,333.0
2022-02-11-10:36:47.504449,6.0,15.0,333.0
2022-02-11-10:36:47.505480,6.0,15.0,333.0
2022-02-11-10:36:47.506478,6.0,15.0,333.0
2022-02-11-10:36:47.507481,6.0,7.0,333.0
2022-02-11-10:36:47.508475,6.0,3.0,333.0
2022-02-11-10:36:47.509468,6.0,3.0,333.0
2022-02-11-10:36:47.510467,6.0,3.0,333.0
2022-02-11-10:36:47.511477,5.0,4.0,333.0
2022-02-11-10:36:47.512461,20.0,2.0,333.0
2022-02-11-10:36:47.513459,20.0,2.0,333.0
2022-02-11-10:36:47.514455,20.0,2.0,333.0
2022-02-11-10:36:47.515453,24.0,7.0,334.0
2022-02-11-10:36:47.516450,11.0,8.0,333.0
2022-02-11-10:36:47.517447,3.0,9.0,333.0
2022-02-11-10:36:47.518411,3.0,9.0,333.0
2022-02-11-10:36:47.519446,1.0,2.0,333.0
2022-02-11-10:36:47.520439,19.0,18.0,333.0
2022-02-11-10:36:47.521437,10.0,19.0,333.0
2022-02-11-10:36:47.522401,10.0,19.0,333.0
2022-02-11-10:36:47.523431,1.0,12.0,333.0
2022-02-11-10:36:47.524433,5.0,7.0,333.0
2022-02-11-10:36:47.525425,9.0,4.0,332.0
2022-02-11-10:36:47.526423,9.0,4.0,332.0
2022-02-11-10:36:47.527424,9.0,3.0,333.0
2022-02-11-10:36:47.528418,11.0,8.0,333.0
2022-02-11-10:36:47.529416,11.0,8.0,333.0
2022-02-11-10:36:47.530413,11.0,8.0,333.0
2022-02-11-10:36:47.531412,11.0,8.0,333.0
2022-02-11-10:36:47.532408,29.0,1.0,333.0
2022-02-11-10:36:47.534368,16.0,0.0,333.0
2022-02-11-10:36:47.534368,3.0,2.0,333.0
2022-02-11-10:36:47.535403,13.0,18.0,333.0
2022-02-11-10:36:47.536402,13.0,18.0,333.0
2022-02-11-10:36:47.537395,13.0,18.0,333.0
2022-02-11-10:36:47.538391,13.0,18.0,333.0
2022-02-11-10:36:47.539389,13.0,18.0,333.0
2022-02-11-10:36:47.540386,4.0,14.0,333.0
2022-02-11-10:36:47.541383,4.0,6.0,333.0
2022-02-11-10:36:47.542380,4.0,5.0,333.0
2022-02-11-10:36:47.543382,4.0,5.0,333.0
2022-02-11-10:36:47.544343,5.0,2.0,333.0
2022-02-11-10:36:47.545374,11.0,4.0,333.0
2022-02-11-10:36:47.546369,11.0,4.0,333.0
2022-02-11-10:36:47.547367,11.0,4.0,333.0
2022-02-11-10:36:47.548366,21.0,1.0,333.0
2022-02-11-10:36:47.549364,17.0,9.0,333.0
2022-02-11-10:36:47.550359,15.0,1.0,333.0
2022-02-11-10:36:47.551360,15.0,1.0,333.0
2022-02-11-10:36:47.552354,6.0,5.0,333.0
2022-02-11-10:36:47.553352,21.0,17.0,333.0
2022-02-11-10:36:47.554348,21.0,17.0,333.0
2022-02-11-10:36:47.555312,21.0,17.0,333.0
2022-02-11-10:36:47.556343,4.0,13.0,333.0
2022-02-11-10:36:47.557340,1.0,7.0,333.0
2022-02-11-10:36:47.558337,4.0,5.0,333.0
2022-02-11-10:36:47.559302,4.0,5.0,333.0
2022-02-11-10:36:47.560332,4.0,5.0,333.0
2022-02-11-10:36:47.561296,7.0,5.0,333.0
2022-02-11-10:36:47.562327,6.0,4.0,333.0
2022-02-11-10:36:47.563325,6.0,4.0,333.0
2022-02-11-10:36:47.564322,18.0,0.0,333.0
2022-02-11-10:36:47.565319,21.0,6.0,333.0
2022-02-11-10:36:47.566316,16.0,8.0,333.0
2022-02-11-10:36:47.567321,16.0,8.0,333.0
2022-02-11-10:36:47.568311,16.0,8.0,333.0
2022-02-11-10:36:47.570272,1.0,3.0,333.0
2022-02-11-10:36:47.570272,15.0,15.0,333.0
2022-02-11-10:36:47.571325,15.0,15.0,333.0
2022-02-11-10:36:47.572303,15.0,15.0,333.0
2022-02-11-10:36:47.573298,4.0,13.0,333.0
2022-02-11-10:36:47.574295,5.0,5.0,333.0
2022-02-11-10:36:47.575297,5.0,5.0,333.0
2022-02-11-10:36:47.576290,5.0,5.0,333.0
2022-02-11-10:36:47.577288,6.0,8.0,333.0
2022-02-11-10:36:47.578284,6.0,7.0,333.0
2022-02-11-10:36:47.579282,8.0,2.0,333.0
2022-02-11-10:36:47.580279,8.0,2.0,333.0
2022-02-11-10:36:47.581276,13.0,0.0,333.0
2022-02-11-10:36:47.582274,27.0,9.0,333.0
2022-02-11-10:36:47.583275,19.0,4.0,333.0
2022-02-11-10:36:47.584268,19.0,4.0,333.0
2022-02-11-10:36:47.585268,11.0,1.0,333.0
2022-02-11-10:36:47.586263,12.0,13.0,333.0
2022-02-11-10:36:47.587260,12.0,13.0,333.0
2022-02-11-10:36:47.588259,12.0,13.0,333.0
2022-02-11-10:36:47.589257,14.0,17.0,333.0
2022-02-11-10:36:47.590252,4.0,9.0,333.0
2022-02-11-10:36:47.591254,1.0,11.0,333.0
2022-02-11-10:36:47.592214,1.0,11.0,333.0
2022-02-11-10:36:47.593245,7.0,4.0,333.0
2022-02-11-10:36:47.594243,10.0,4.0,333.0
2022-02-11-10:36:47.595241,7.0,3.0,333.0
2022-02-11-10:36:47.596203,7.0,3.0,333.0
2022-02-11-10:36:47.597234,9.0,2.0,333.0
2022-02-11-10:36:47.598232,24.0,6.0,333.0
2022-02-11-10:36:47.599233,21.0,7.0,333.0
2022-02-11-10:36:47.600209,21.0,7.0,333.0
2022-02-11-10:36:47.601224,12.0,6.0,333.0
2022-02-11-10:36:47.603184,14.0,14.0,333.0
2022-02-11-10:36:47.603184,14.0,14.0,333.0
2022-02-11-10:36:47.604216,14.0,14.0,333.0
2022-02-11-10:36:47.605213,7.0,14.0,333.0
2022-02-11-10:36:47.606210,0.0,7.0,333.0
2022-02-11-10:36:47.607211,0.0,7.0,333.0
2022-02-11-10:36:47.608205,0.0,7.0,333.0
2022-02-11-10:36:47.609203,0.0,7.0,333.0
2022-02-11-10:36:47.610199,2.0,5.0,333.0
2022-02-11-10:36:47.611163,7.0,3.0,333.0
2022-02-11-10:36:47.612194,8.0,3.0,333.0
2022-02-11-10:36:47.613191,8.0,3.0,333.0
2022-02-11-10:36:47.614189,8.0,3.0,333.0
2022-02-11-10:36:47.615190,26.0,8.0,333.0
2022-02-11-10:36:47.616184,11.0,2.0,333.0
2022-02-11-10:36:47.617146,11.0,2.0,333.0
2022-02-11-10:36:47.618143,18.0,17.0,333.0
2022-02-11-10:36:47.619141,18.0,17.0,333.0
2022-02-11-10:36:47.620138,18.0,17.0,333.0
2022-02-11-10:36:47.621136,18.0,17.0,333.0
2022-02-11-10:36:47.622133,3.0,7.0,333.0
2022-02-11-10:36:47.623130,6.0,3.0,333.0
2022-02-11-10:36:47.624127,6.0,3.0,333.0
2022-02-11-10:36:47.625125,6.0,3.0,333.0
2022-02-11-10:36:47.626122,7.0,8.0,333.0
2022-02-11-10:36:47.627119,8.0,6.0,333.0
2022-02-11-10:36:47.628117,8.0,6.0,333.0
2022-02-11-10:36:47.629114,8.0,6.0,333.0
2022-02-11-10:36:47.630111,26.0,5.0,333.0
2022-02-11-10:36:47.631109,18.0,9.0,333.0
2022-02-11-10:36:47.632106,18.0,9.0,333.0
2022-02-11-10:36:47.633103,18.0,9.0,333.0
2022-02-11-10:36:47.634101,9.0,8.0,333.0
2022-02-11-10:36:47.635098,14.0,15.0,333.0
2022-02-11-10:36:47.636096,14.0,15.0,333.0
2022-02-11-10:36:47.638090,14.0,15.0,333.0
2022-02-11-10:36:47.638090,5.0,9.0,333.0
2022-02-11-10:36:47.639087,2.0,7.0,333.0
2022-02-11-10:36:47.640085,2.0,7.0,333.0
2022-02-11-10:36:47.641082,2.0,7.0,333.0
2022-02-11-10:36:47.642079,2.0,7.0,333.0
2022-02-11-10:36:47.643077,6.0,3.0,333.0
2022-02-11-10:36:47.644074,6.0,3.0,333.0
2022-02-11-10:36:47.645071,6.0,3.0,333.0
2022-02-11-10:36:47.646069,6.0,3.0,333.0
2022-02-11-10:36:47.647066,24.0,7.0,333.0
2022-02-11-10:36:47.648063,19.0,4.0,333.0
2022-02-11-10:36:47.649061,19.0,4.0,333.0
2022-02-11-10:36:47.650058,19.0,4.0,333.0
2022-02-11-10:36:47.651055,2.0,8.0,333.0
2022-02-11-10:36:47.652053,17.0,13.0,333.0
2022-02-11-10:36:47.653050,17.0,13.0,333.0
2022-02-11-10:36:47.654048,17.0,13.0,333.0
2022-02-11-10:36:47.655045,1.0,8.0,333.0
2022-02-11-10:36:47.656042,3.0,9.0,333.0
2022-02-11-10:36:47.657039,3.0,9.0,333.0
2022-02-11-10:36:47.658037,3.0,9.0,333.0
2022-02-11-10:36:47.659034,11.0,5.0,332.0
2022-02-11-10:36:47.660031,7.0,1.0,333.0
2022-02-11-10:36:47.661029,7.0,1.0,333.0
2022-02-11-10:36:47.662026,7.0,1.0,333.0
2022-02-11-10:36:47.663024,24.0,7.0,333.0
2022-02-11-10:36:47.664021,25.0,6.0,333.0
2022-02-11-10:36:47.665018,25.0,6.0,333.0
2022-02-11-10:36:47.666015,25.0,6.0,333.0
2022-02-11-10:36:47.667013,2.0,2.0,333.0
2022-02-11-10:36:47.668010,14.0,6.0,333.0
2022-02-11-10:36:47.669007,14.0,6.0,333.0
2022-02-11-10:36:47.670005,14.0,6.0,333.0
2022-02-11-10:36:47.671002,10.0,12.0,333.0
2022-02-11-10:36:47.672997,2.0,8.0,333.0
2022-02-11-10:36:47.673994,2.0,8.0,333.0
2022-02-11-10:36:47.674991,8.0,3.0,333.0
2022-02-11-10:36:47.675989,8.0,0.0,333.0
2022-02-11-10:36:47.676987,8.0,0.0,333.0
2022-02-11-10:36:47.677991,8.0,0.0,333.0
2022-02-11-10:36:47.678994,6.0,4.0,333.0
2022-02-11-10:36:47.679978,11.0,1.0,333.0
2022-02-11-10:36:47.680975,23.0,6.0,333.0
2022-02-11-10:36:47.681973,23.0,6.0,333.0
2022-02-11-10:36:47.682970,23.0,6.0,333.0
2022-02-11-10:36:47.683967,3.0,1.0,333.0
2022-02-11-10:36:47.684965,7.0,7.0,333.0
2022-02-11-10:36:47.685962,7.0,7.0,333.0
2022-02-11-10:36:47.686960,16.0,18.0,333.0
2022-02-11-10:36:47.687957,1.0,10.0,333.0
2022-02-11-10:36:47.688955,1.0,10.0,333.0
2022-02-11-10:36:47.689951,1.0,10.0,333.0
2022-02-11-10:36:47.690949,1.0,10.0,333.0
2022-02-11-10:36:47.691946,6.0,1.0,333.0
2022-02-11-10:36:47.692943,6.0,1.0,333.0
2022-02-11-10:36:47.693941,6.0,1.0,333.0
2022-02-11-10:36:47.694939,6.0,1.0,333.0
2022-02-11-10:36:47.695935,7.0,1.0,333.0
2022-02-11-10:36:47.696933,22.0,7.0,333.0
2022-02-11-10:36:47.697930,22.0,7.0,333.0
2022-02-11-10:36:47.698928,22.0,7.0,333.0
2022-02-11-10:36:47.699925,4.0,2.0,333.0
2022-02-11-10:36:47.700923,0.0,5.0,333.0
2022-02-11-10:36:47.701920,0.0,5.0,333.0
2022-02-11-10:36:47.702917,0.0,5.0,333.0
2022-02-11-10:36:47.703914,0.0,5.0,333.0
2022-02-11-10:36:47.705909,18.0,17.0,333.0
2022-02-11-10:36:47.705909,1.0,10.0,333.0
2022-02-11-10:36:47.706906,1.0,10.0,333.0
2022-02-11-10:36:47.707904,5.0,6.0,333.0
2022-02-11-10:36:47.708901,6.0,3.0,333.0
2022-02-11-10:36:47.709898,6.0,3.0,333.0
2022-02-11-10:36:47.710896,6.0,3.0,333.0
2022-02-11-10:36:47.711893,6.0,3.0,333.0
2022-02-11-10:36:47.712891,7.0,5.0,333.0
2022-02-11-10:36:47.713887,16.0,1.0,333.0
2022-02-11-10:36:47.714892,26.0,6.0,333.0
2022-02-11-10:36:47.715882,21.0,11.0,333.0
2022-02-11-10:36:47.716879,1.0,4.0,333.0
2022-02-11-10:36:47.717877,1.0,4.0,333.0
2022-02-11-10:36:47.718874,1.0,4.0,333.0
2022-02-11-10:36:47.719872,18.0,12.0,333.0
2022-02-11-10:36:47.720869,3.0,13.0,333.0
2022-02-11-10:36:47.721866,3.0,13.0,333.0
2022-02-11-10:36:47.722865,3.0,13.0,333.0
2022-02-11-10:36:47.723861,3.0,13.0,333.0
2022-02-11-10:36:47.724858,5.0,6.0,333.0
2022-02-11-10:36:47.725855,9.0,5.0,333.0
2022-02-11-10:36:47.726853,9.0,5.0,333.0
2022-02-11-10:36:47.727859,9.0,5.0,333.0
2022-02-11-10:36:47.728847,9.0,6.0,333.0
2022-02-11-10:36:47.729846,23.0,6.0,333.0
2022-02-11-10:36:47.730843,23.0,6.0,333.0
2022-02-11-10:36:47.731840,23.0,6.0,333.0
2022-02-11-10:36:47.732837,23.0,6.0,333.0
2022-02-11-10:36:47.733835,7.0,5.0,333.0
2022-02-11-10:36:47.734832,5.0,0.0,333.0
2022-02-11-10:36:47.735829,5.0,0.0,333.0
2022-02-11-10:36:47.737824,15.0,15.0,333.0
2022-02-11-10:36:47.737824,5.0,12.0,333.0
2022-02-11-10:36:47.738821,5.0,12.0,333.0
2022-02-11-10:36:47.739818,5.0,12.0,333.0
2022-02-11-10:36:47.740816,5.0,5.0,333.0
2022-02-11-10:36:47.741813,9.0,9.0,333.0
2022-02-11-10:36:47.742810,9.0,9.0,333.0
2022-02-11-10:36:47.743808,9.0,9.0,333.0
2022-02-11-10:36:47.744808,4.0,5.0,333.0
2022-02-11-10:36:47.745803,19.0,4.0,333.0
2022-02-11-10:36:47.746801,19.0,4.0,333.0
2022-02-11-10:36:47.747797,19.0,4.0,333.0
2022-02-11-10:36:47.748796,23.0,8.0,333.0
2022-02-11-10:36:47.749794,4.0,1.0,333.0
2022-02-11-10:36:47.750789,4.0,1.0,333.0
2022-02-11-10:36:47.751786,4.0,1.0,333.0
2022-02-11-10:36:47.752784,18.0,14.0,333.0
2022-02-11-10:36:47.753781,10.0,13.0,333.0
2022-02-11-10:36:47.754778,10.0,13.0,333.0
2022-02-11-10:36:47.755775,10.0,13.0,333.0
2022-02-11-10:36:47.756773,1.0,7.0,333.0
2022-02-11-10:36:47.757770,7.0,6.0,333.0
2022-02-11-10:36:47.758768,7.0,6.0,333.0
2022-02-11-10:36:47.759765,7.0,6.0,333.0
2022-02-11-10:36:47.760763,8.0,6.0,333.0
2022-02-11-10:36:47.761761,14.0,1.0,333.0
2022-02-11-10:36:47.762757,14.0,1.0,333.0
2022-02-11-10:36:47.763754,14.0,1.0,333.0
2022-02-11-10:36:47.764752,14.0,1.0,333.0
2022-02-11-10:36:47.765749,14.0,1.0,333.0
2022-02-11-10:36:47.766746,15.0,3.0,333.0
2022-02-11-10:36:47.767743,15.0,3.0,333.0
2022-02-11-10:36:47.768741,15.0,3.0,333.0
2022-02-11-10:36:47.769739,9.0,10.0,334.0
2022-02-11-10:36:47.770736,12.0,17.0,333.0
2022-02-11-10:36:47.771733,12.0,17.0,333.0
2022-02-11-10:36:47.773728,12.0,17.0,333.0
2022-02-11-10:36:47.773728,3.0,3.0,333.0
2022-02-11-10:36:47.774725,4.0,7.0,333.0
2022-02-11-10:36:47.775723,4.0,7.0,333.0
2022-02-11-10:36:47.776720,4.0,7.0,333.0
2022-02-11-10:36:47.777717,6.0,3.0,333.0
2022-02-11-10:36:47.778714,8.0,6.0,333.0
2022-02-11-10:36:47.779712,8.0,2.0,333.0
2022-02-11-10:36:47.780709,8.0,2.0,333.0
2022-02-11-10:36:47.781706,20.0,7.0,333.0
2022-02-11-10:36:47.782703,12.0,1.0,333.0
2022-02-11-10:36:47.783701,12.0,1.0,333.0
2022-02-11-10:36:47.784698,12.0,1.0,333.0
2022-02-11-10:36:47.785696,8.0,2.0,333.0
2022-02-11-10:36:47.786694,16.0,13.0,334.0
2022-02-11-10:36:47.787690,18.0,15.0,333.0
2022-02-11-10:36:47.788690,18.0,15.0,333.0
2022-02-11-10:36:47.789685,8.0,3.0,333.0
2022-02-11-10:36:47.790683,8.0,3.0,333.0
2022-02-11-10:36:47.791680,8.0,3.0,333.0
2022-02-11-10:36:47.792677,8.0,3.0,333.0
2022-02-11-10:36:47.793675,11.0,1.0,333.0
2022-02-11-10:36:47.794672,11.0,1.0,333.0
2022-02-11-10:36:47.795670,11.0,1.0,333.0
2022-02-11-10:36:47.796666,11.0,1.0,333.0
2022-02-11-10:36:47.797664,11.0,1.0,333.0
2022-02-11-10:36:47.798661,11.0,1.0,333.0
2022-02-11-10:36:47.799660,23.0,7.0,333.0
2022-02-11-10:36:47.800656,10.0,6.0,332.0
2022-02-11-10:36:47.801879,10.0,6.0,332.0
2022-02-11-10:36:47.802651,4.0,3.0,333.0
2022-02-11-10:36:47.802651,16.0,10.0,333.0
2022-02-11-10:36:47.803648,15.0,14.0,333.0
2022-02-11-10:36:47.804646,15.0,14.0,333.0
2022-02-11-10:36:47.805642,15.0,14.0,333.0
2022-02-11-10:36:47.806874,9.0,16.0,333.0
2022-02-11-10:36:47.808863,3.0,6.0,333.0
2022-02-11-10:36:47.808863,8.0,1.0,333.0
2022-02-11-10:36:47.810079,5.0,3.0,333.0
2022-02-11-10:36:47.811110,5.0,3.0,333.0
2022-02-11-10:36:47.812105,5.0,3.0,333.0
2022-02-11-10:36:47.813104,5.0,3.0,333.0
2022-02-11-10:36:47.814067,5.0,3.0,333.0
2022-02-11-10:36:47.815065,13.0,2.0,333.0
2022-02-11-10:36:47.816062,13.0,2.0,333.0
2022-02-11-10:36:47.817058,13.0,2.0,333.0
2022-02-11-10:36:47.818056,13.0,2.0,333.0
2022-02-11-10:36:47.819053,1.0,4.0,333.0
2022-02-11-10:36:47.820051,14.0,13.0,333.0
2022-02-11-10:36:47.821082,14.0,13.0,333.0
2022-02-11-10:36:47.822079,14.0,13.0,333.0
2022-02-11-10:36:47.823042,12.0,18.0,333.0
2022-02-11-10:36:47.824052,6.0,6.0,333.0
2022-02-11-10:36:47.825070,6.0,6.0,333.0
2022-02-11-10:36:47.826073,6.0,6.0,333.0
2022-02-11-10:36:47.827033,4.0,6.0,333.0
2022-02-11-10:36:47.828029,8.0,3.0,333.0
2022-02-11-10:36:47.829029,8.0,3.0,333.0
2022-02-11-10:36:47.830024,8.0,3.0,333.0
2022-02-11-10:36:47.831021,7.0,3.0,333.0
2022-02-11-10:36:47.832019,7.0,3.0,333.0
2022-02-11-10:36:47.833017,22.0,10.0,333.0
2022-02-11-10:36:47.834013,18.0,4.0,333.0
2022-02-11-10:36:47.835011,5.0,0.0,333.0
2022-02-11-10:36:47.836009,15.0,16.0,333.0
2022-02-11-10:36:47.837006,15.0,16.0,333.0
2022-02-11-10:36:47.838003,15.0,16.0,333.0
2022-02-11-10:36:47.839000,3.0,14.0,333.0
2022-02-11-10:36:47.839997,2.0,11.0,333.0
2022-02-11-10:36:47.841992,7.0,10.0,333.0
2022-02-11-10:36:47.841992,3.0,4.0,333.0
2022-02-11-10:36:47.842990,9.0,2.0,333.0
2022-02-11-10:36:47.843987,9.0,2.0,333.0
2022-02-11-10:36:47.844984,9.0,2.0,333.0
2022-02-11-10:36:47.845981,9.0,2.0,333.0
2022-02-11-10:36:47.846978,18.0,0.0,333.0
2022-02-11-10:36:47.847976,23.0,8.0,334.0
2022-02-11-10:36:47.848973,22.0,10.0,333.0
2022-02-11-10:36:47.849970,13.0,6.0,333.0
2022-02-11-10:36:47.850968,13.0,6.0,333.0
2022-02-11-10:36:47.851965,4.0,0.0,333.0
2022-02-11-10:36:47.852963,1.0,3.0,333.0
2022-02-11-10:36:47.853960,19.0,14.0,333.0
2022-02-11-10:36:47.854957,17.0,16.0,333.0
2022-02-11-10:36:47.855954,1.0,11.0,333.0
2022-02-11-10:36:47.856953,4.0,5.0,333.0
2022-02-11-10:36:47.857950,4.0,5.0,333.0
2022-02-11-10:36:47.858946,4.0,5.0,333.0
2022-02-11-10:36:47.859944,6.0,5.0,333.0
2022-02-11-10:36:47.860941,5.0,3.0,333.0
2022-02-11-10:36:47.861939,5.0,3.0,333.0
2022-02-11-10:36:47.862936,5.0,3.0,333.0
2022-02-11-10:36:47.863933,23.0,7.0,333.0
2022-02-11-10:36:47.864930,15.0,4.0,333.0
2022-02-11-10:36:47.865928,15.0,4.0,333.0
2022-02-11-10:36:47.866928,15.0,4.0,333.0
2022-02-11-10:36:47.867924,4.0,5.0,333.0
2022-02-11-10:36:47.868921,12.0,10.0,333.0
2022-02-11-10:36:47.869918,15.0,14.0,333.0
2022-02-11-10:36:47.870914,15.0,14.0,333.0
2022-02-11-10:36:47.871914,10.0,16.0,333.0
2022-02-11-10:36:47.872910,8.0,8.0,333.0
2022-02-11-10:36:47.873907,2.0,8.0,333.0
2022-02-11-10:36:47.874904,4.0,4.0,333.0
2022-02-11-10:36:47.875901,5.0,2.0,333.0
2022-02-11-10:36:47.876898,5.0,1.0,333.0
2022-02-11-10:36:47.878894,7.0,1.0,333.0
2022-02-11-10:36:47.878894,20.0,4.0,333.0
2022-02-11-10:36:47.879891,19.0,10.0,333.0
2022-02-11-10:36:47.880888,19.0,10.0,333.0
2022-02-11-10:36:47.881885,19.0,10.0,333.0
2022-02-11-10:36:47.882882,19.0,10.0,333.0
2022-02-11-10:36:47.883880,15.0,6.0,333.0
2022-02-11-10:36:47.884878,6.0,3.0,333.0
2022-02-11-10:36:47.885875,14.0,9.0,333.0
2022-02-11-10:36:47.886872,14.0,9.0,333.0
2022-02-11-10:36:47.887870,1.0,6.0,333.0
2022-02-11-10:36:47.888867,3.0,7.0,333.0
2022-02-11-10:36:47.889864,3.0,7.0,333.0
2022-02-11-10:36:47.890861,3.0,7.0,333.0
2022-02-11-10:36:47.891859,3.0,7.0,333.0
2022-02-11-10:36:47.892856,9.0,4.0,333.0
2022-02-11-10:36:47.893853,9.0,4.0,333.0
2022-02-11-10:36:47.894850,9.0,4.0,333.0
2022-02-11-10:36:47.895848,9.0,4.0,333.0
2022-02-11-10:36:47.896846,22.0,8.0,333.0
2022-02-11-10:36:47.897843,22.0,8.0,333.0
2022-02-11-10:36:47.898840,22.0,8.0,333.0
2022-02-11-10:36:47.899838,22.0,8.0,333.0
2022-02-11-10:36:47.900836,14.0,1.0,333.0
2022-02-11-10:36:47.901832,3.0,1.0,333.0
2022-02-11-10:36:47.902830,1.0,4.0,333.0
2022-02-11-10:36:47.903827,14.0,10.0,333.0
2022-02-11-10:36:47.904824,8.0,17.0,333.0
2022-02-11-10:36:47.905821,2.0,7.0,333.0
2022-02-11-10:36:47.906818,2.0,7.0,333.0
2022-02-11-10:36:47.907816,2.0,7.0,333.0
2022-02-11-10:36:47.908813,5.0,3.0,333.0
2022-02-11-10:36:47.909810,6.0,5.0,333.0
2022-02-11-10:36:47.911805,6.0,5.0,333.0
2022-02-11-10:36:47.911805,22.0,7.0,333.0
2022-02-11-10:36:47.912804,22.0,7.0,333.0
2022-02-11-10:36:47.913800,22.0,7.0,333.0
2022-02-11-10:36:47.914797,22.0,7.0,333.0
2022-02-11-10:36:47.915796,22.0,7.0,333.0
2022-02-11-10:36:47.916793,2.0,5.0,333.0
2022-02-11-10:36:47.917790,10.0,9.0,333.0
2022-02-11-10:36:47.918786,10.0,9.0,333.0
2022-02-11-10:36:47.919784,10.0,9.0,333.0
2022-02-11-10:36:47.920782,14.0,17.0,333.0
2022-02-11-10:36:47.921779,7.0,7.0,333.0
2022-02-11-10:36:47.922778,0.0,7.0,333.0
2022-02-11-10:36:47.923775,0.0,7.0,333.0
2022-02-11-10:36:47.924772,6.0,8.0,333.0
2022-02-11-10:36:47.925769,9.0,6.0,333.0
2022-02-11-10:36:47.926766,9.0,6.0,333.0
2022-02-11-10:36:47.927762,9.0,6.0,333.0
2022-02-11-10:36:47.928760,9.0,6.0,333.0
2022-02-11-10:36:47.929757,11.0,1.0,333.0
2022-02-11-10:36:47.930755,24.0,4.0,333.0
2022-02-11-10:36:47.931752,24.0,4.0,333.0
2022-02-11-10:36:47.932749,24.0,8.0,333.0
2022-02-11-10:36:47.933747,25.0,4.0,334.0
2022-02-11-10:36:47.934744,12.0,6.0,333.0
2022-02-11-10:36:47.935742,2.0,4.0,333.0
2022-02-11-10:36:47.936739,2.0,4.0,333.0
2022-02-11-10:36:47.937736,22.0,17.0,333.0
2022-02-11-10:36:47.938733,1.0,8.0,333.0
2022-02-11-10:36:47.939730,1.0,8.0,333.0
2022-02-11-10:36:47.940728,1.0,8.0,333.0
2022-02-11-10:36:47.942723,7.0,7.0,333.0
2022-02-11-10:36:47.942723,7.0,7.0,333.0
2022-02-11-10:36:47.943720,7.0,7.0,333.0
2022-02-11-10:36:47.944718,7.0,7.0,333.0
2022-02-11-10:36:47.945715,7.0,6.0,333.0
2022-02-11-10:36:47.946712,11.0,4.0,333.0
2022-02-11-10:36:47.947712,20.0,5.0,333.0
2022-02-11-10:36:47.948707,20.0,5.0,333.0
2022-02-11-10:36:47.949704,20.0,5.0,333.0
2022-02-11-10:36:47.950702,15.0,6.0,334.0
2022-02-11-10:36:47.951698,0.0,3.0,333.0
2022-02-11-10:36:47.952696,0.0,3.0,333.0
2022-02-11-10:36:47.953694,14.0,10.0,333.0
2022-02-11-10:36:47.954692,10.0,15.0,333.0
2022-02-11-10:36:47.955688,4.0,7.0,333.0
2022-02-11-10:36:47.956685,4.0,7.0,333.0
2022-02-11-10:36:47.957683,4.0,7.0,333.0
2022-02-11-10:36:47.958680,7.0,5.0,333.0
2022-02-11-10:36:47.959677,7.0,5.0,333.0
2022-02-11-10:36:47.960675,7.0,5.0,333.0
2022-02-11-10:36:47.961672,5.0,6.0,333.0
2022-02-11-10:36:47.962670,7.0,4.0,334.0
2022-02-11-10:36:47.963667,25.0,4.0,333.0
2022-02-11-10:36:47.964664,25.0,4.0,333.0
2022-02-11-10:36:47.965661,25.0,4.0,333.0
2022-02-11-10:36:47.966659,21.0,4.0,333.0
2022-02-11-10:36:47.967656,4.0,2.0,333.0
2022-02-11-10:36:47.968654,4.0,2.0,333.0
2022-02-11-10:36:47.969651,4.0,2.0,333.0
2022-02-11-10:36:47.970649,8.0,8.0,333.0
2022-02-11-10:36:47.971647,15.0,11.0,333.0
2022-02-11-10:36:47.972643,13.0,19.0,333.0
2022-02-11-10:36:47.973640,3.0,12.0,333.0
2022-02-11-10:36:47.974639,1.0,9.0,333.0
2022-02-11-10:36:47.975635,5.0,6.0,333.0
2022-02-11-10:36:47.976633,9.0,5.0,333.0
2022-02-11-10:36:47.977630,9.0,5.0,333.0
2022-02-11-10:36:47.979625,6.0,3.0,333.0
2022-02-11-10:36:47.979625,4.0,2.0,333.0
2022-02-11-10:36:47.980621,8.0,4.0,333.0
2022-02-11-10:36:47.981619,12.0,1.0,333.0
2022-02-11-10:36:47.982616,20.0,1.0,333.0
2022-02-11-10:36:47.983614,21.0,8.0,333.0
2022-02-11-10:36:47.984611,3.0,4.0,333.0
2022-02-11-10:36:47.985608,3.0,4.0,333.0
2022-02-11-10:36:47.986605,1.0,7.0,333.0
2022-02-11-10:36:47.987603,17.0,16.0,334.0
2022-02-11-10:36:47.988600,7.0,13.0,333.0
2022-02-11-10:36:47.989597,7.0,13.0,333.0
2022-02-11-10:36:47.990595,2.0,7.0,333.0
2022-02-11-10:36:47.991592,6.0,5.0,333.0
2022-02-11-10:36:47.992589,6.0,5.0,333.0
2022-02-11-10:36:47.993589,6.0,5.0,333.0
2022-02-11-10:36:47.994584,9.0,5.0,333.0
2022-02-11-10:36:47.995584,7.0,4.0,333.0
2022-02-11-10:36:47.996579,15.0,0.0,333.0
2022-02-11-10:36:47.997577,15.0,0.0,333.0
2022-02-11-10:36:47.998574,25.0,9.0,333.0
2022-02-11-10:36:47.999571,8.0,1.0,333.0
2022-02-11-10:36:48.000568,8.0,1.0,333.0
2022-02-11-10:36:48.001565,8.0,1.0,333.0
2022-02-11-10:36:48.002562,1.0,5.0,333.0
2022-02-11-10:36:48.003560,12.0,12.0,334.0
2022-02-11-10:36:48.004557,12.0,11.0,333.0
2022-02-11-10:36:48.005555,12.0,11.0,333.0
2022-02-11-10:36:48.006552,12.0,11.0,333.0
2022-02-11-10:36:48.007549,6.0,3.0,333.0
2022-02-11-10:36:48.008547,6.0,3.0,333.0
2022-02-11-10:36:48.009544,6.0,3.0,333.0
2022-02-11-10:36:48.010542,6.0,3.0,333.0
2022-02-11-10:36:48.012536,8.0,5.0,333.0
2022-02-11-10:36:48.012536,6.0,4.0,333.0
2022-02-11-10:36:48.013533,7.0,3.0,333.0
2022-02-11-10:36:48.014531,10.0,4.0,333.0
2022-02-11-10:36:48.015528,23.0,4.0,333.0
2022-02-11-10:36:48.016525,25.0,7.0,333.0
2022-02-11-10:36:48.017523,11.0,2.0,333.0
2022-02-11-10:36:48.018520,11.0,2.0,333.0
2022-02-11-10:36:48.019517,4.0,0.0,333.0
2022-02-11-10:36:48.020515,16.0,14.0,333.0
2022-02-11-10:36:48.021512,16.0,15.0,334.0
2022-02-11-10:36:48.022509,16.0,15.0,334.0
2022-02-11-10:36:48.023507,3.0,11.0,333.0
2022-02-11-10:36:48.024504,2.0,9.0,333.0
2022-02-11-10:36:48.025501,8.0,7.0,333.0
2022-02-11-10:36:48.026499,8.0,7.0,333.0
2022-02-11-10:36:48.027496,5.0,5.0,333.0
2022-02-11-10:36:48.028494,7.0,4.0,333.0
2022-02-11-10:36:48.029491,7.0,4.0,333.0
2022-02-11-10:36:48.030488,7.0,4.0,333.0
2022-02-11-10:36:48.031485,18.0,1.0,333.0
2022-02-11-10:36:48.032483,25.0,7.0,333.0
2022-02-11-10:36:48.033480,12.0,0.0,333.0
2022-02-11-10:36:48.034477,12.0,0.0,333.0
2022-02-11-10:36:48.035475,6.0,1.0,333.0
2022-02-11-10:36:48.036472,14.0,11.0,334.0
2022-02-11-10:36:48.037503,17.0,13.0,333.0
2022-02-11-10:36:48.038499,17.0,13.0,333.0
2022-02-11-10:36:48.039499,17.0,13.0,333.0
2022-02-11-10:36:48.040494,1.0,7.0,334.0
2022-02-11-10:36:48.041491,9.0,2.0,332.0
2022-02-11-10:36:48.042490,9.0,2.0,332.0
2022-02-11-10:36:48.044451,9.0,2.0,332.0
2022-02-11-10:36:48.044451,8.0,2.0,333.0
2022-02-11-10:36:48.045449,8.0,2.0,333.0
2022-02-11-10:36:48.046478,8.0,2.0,333.0
2022-02-11-10:36:48.047477,8.0,2.0,333.0
2022-02-11-10:36:48.048472,15.0,1.0,333.0
2022-02-11-10:36:48.049469,22.0,7.0,333.0
2022-02-11-10:36:48.050469,13.0,2.0,333.0
2022-02-11-10:36:48.051464,13.0,2.0,333.0
2022-02-11-10:36:48.052462,12.0,2.0,333.0
2022-02-11-10:36:48.053428,13.0,12.0,333.0
2022-02-11-10:36:48.054452,16.0,15.0,333.0
2022-02-11-10:36:48.055455,16.0,15.0,333.0
2022-02-11-10:36:48.056451,9.0,11.0,333.0
2022-02-11-10:36:48.057448,6.0,6.0,333.0
2022-02-11-10:36:48.058447,3.0,2.0,333.0
2022-02-11-10:36:48.059448,3.0,2.0,333.0
2022-02-11-10:36:48.060440,4.0,6.0,333.0
2022-02-11-10:36:48.061407,11.0,3.0,333.0
2022-02-11-10:36:48.062439,11.0,3.0,333.0
2022-02-11-10:36:48.063439,11.0,3.0,333.0
2022-02-11-10:36:48.064431,20.0,4.0,333.0
2022-02-11-10:36:48.065428,20.0,7.0,333.0
2022-02-11-10:36:48.066426,13.0,3.0,333.0
2022-02-11-10:36:48.067390,13.0,3.0,333.0
2022-02-11-10:36:48.068419,3.0,0.0,333.0
2022-02-11-10:36:48.069419,15.0,13.0,333.0
2022-02-11-10:36:48.070416,18.0,16.0,333.0
2022-02-11-10:36:48.071379,18.0,16.0,333.0
2022-02-11-10:36:48.072378,8.0,12.0,333.0
2022-02-11-10:36:48.073373,2.0,8.0,333.0
2022-02-11-10:36:48.074405,8.0,7.0,333.0
2022-02-11-10:36:48.075391,8.0,7.0,333.0
2022-02-11-10:36:48.076400,7.0,5.0,333.0
2022-02-11-10:36:48.077396,7.0,1.0,333.0
2022-02-11-10:36:48.078362,7.0,1.0,333.0
2022-02-11-10:36:48.079393,7.0,1.0,333.0
2022-02-11-10:36:48.081385,25.0,9.0,333.0
2022-02-11-10:36:48.081385,9.0,5.0,333.0
2022-02-11-10:36:48.082384,9.0,5.0,333.0
2022-02-11-10:36:48.083380,9.0,5.0,333.0
2022-02-11-10:36:48.084377,9.0,5.0,333.0
2022-02-11-10:36:48.085341,9.0,5.0,333.0
2022-02-11-10:36:48.086372,2.0,1.0,333.0
2022-02-11-10:36:48.087372,21.0,16.0,333.0
2022-02-11-10:36:48.088368,21.0,16.0,333.0
2022-02-11-10:36:48.089366,10.0,13.0,333.0
2022-02-11-10:36:48.090354,0.0,6.0,333.0
2022-02-11-10:36:48.091351,4.0,8.0,333.0
2022-02-11-10:36:48.092355,4.0,8.0,333.0
2022-02-11-10:36:48.093354,4.0,7.0,333.0
2022-02-11-10:36:48.094350,9.0,2.0,333.0
2022-02-11-10:36:48.095315,7.0,5.0,333.0
2022-02-11-10:36:48.096339,7.0,5.0,333.0
2022-02-11-10:36:48.097341,29.0,8.0,333.0
2022-02-11-10:36:48.098335,17.0,5.0,334.0
2022-02-11-10:36:48.099330,17.0,5.0,334.0
2022-02-11-10:36:48.100331,17.0,5.0,334.0
2022-02-11-10:36:48.101326,12.0,2.0,333.0
2022-02-11-10:36:48.102322,5.0,3.0,333.0
2022-02-11-10:36:48.103320,16.0,15.0,333.0
2022-02-11-10:36:48.104319,16.0,15.0,333.0
2022-02-11-10:36:48.105314,14.0,16.0,333.0
2022-02-11-10:36:48.106313,5.0,8.0,333.0
2022-02-11-10:36:48.107309,5.0,7.0,333.0
2022-02-11-10:36:48.108281,5.0,7.0,333.0
2022-02-11-10:36:48.109305,5.0,7.0,333.0
2022-02-11-10:36:48.110301,8.0,6.0,333.0
2022-02-11-10:36:48.111300,4.0,5.0,333.0
2022-02-11-10:36:48.112270,4.0,5.0,333.0
2022-02-11-10:36:48.114264,22.0,5.0,333.0
2022-02-11-10:36:48.114264,17.0,9.0,333.0
2022-02-11-10:36:48.115287,17.0,9.0,333.0
2022-02-11-10:36:48.116283,17.0,9.0,333.0
2022-02-11-10:36:48.117282,10.0,6.0,333.0
2022-02-11-10:36:48.118278,5.0,8.0,333.0
2022-02-11-10:36:48.119278,15.0,13.0,333.0
2022-02-11-10:36:48.120248,15.0,13.0,333.0
2022-02-11-10:36:48.121246,15.0,13.0,333.0
2022-02-11-10:36:48.122269,19.0,16.0,333.0
2022-02-11-10:36:48.123270,0.0,9.0,333.0
2022-02-11-10:36:48.124262,3.0,10.0,333.0
2022-02-11-10:36:48.125260,3.0,10.0,333.0
2022-02-11-10:36:48.126262,5.0,3.0,333.0
2022-02-11-10:36:48.127256,8.0,3.0,333.0
2022-02-11-10:36:48.128228,9.0,7.0,333.0
2022-02-11-10:36:48.129250,9.0,7.0,333.0
2022-02-11-10:36:48.130248,7.0,2.0,333.0
2022-02-11-10:36:48.131245,22.0,5.0,334.0
2022-02-11-10:36:48.132246,25.0,9.0,333.0
2022-02-11-10:36:48.133239,25.0,9.0,333.0
2022-02-11-10:36:48.134237,13.0,2.0,333.0
2022-02-11-10:36:48.135235,1.0,2.0,333.0
2022-02-11-10:36:48.136231,13.0,10.0,333.0
2022-02-11-10:36:48.137230,13.0,10.0,333.0
2022-02-11-10:36:48.138227,16.0,15.0,334.0
2022-02-11-10:36:48.139223,1.0,8.0,333.0
2022-02-11-10:36:48.140220,2.0,8.0,333.0
2022-02-11-10:36:48.141218,2.0,8.0,333.0
2022-02-11-10:36:48.142214,8.0,4.0,333.0
2022-02-11-10:36:48.143215,7.0,1.0,333.0
2022-02-11-10:36:48.144210,11.0,3.0,333.0
2022-02-11-10:36:48.145182,11.0,3.0,333.0
2022-02-11-10:36:48.146205,11.0,6.0,333.0
2022-02-11-10:36:48.148173,25.0,6.0,332.0
2022-02-11-10:36:48.148173,24.0,6.0,333.0
2022-02-11-10:36:48.149180,24.0,6.0,333.0
2022-02-11-10:36:48.150196,17.0,7.0,333.0
2022-02-11-10:36:48.151193,1.0,3.0,333.0
2022-02-11-10:36:48.152189,12.0,11.0,333.0
2022-02-11-10:36:48.153185,12.0,11.0,333.0
2022-02-11-10:36:48.154185,14.0,14.0,333.0
2022-02-11-10:36:48.155181,3.0,11.0,333.0
2022-02-11-10:36:48.156177,3.0,11.0,333.0
2022-02-11-10:36:48.157175,3.0,11.0,333.0
2022-02-11-10:36:48.158172,3.0,11.0,333.0
2022-02-11-10:36:48.159172,7.0,3.0,333.0
2022-02-11-10:36:48.160167,8.0,4.0,333.0
2022-02-11-10:36:48.161164,8.0,4.0,333.0
2022-02-11-10:36:48.162172,8.0,4.0,333.0
2022-02-11-10:36:48.163159,7.0,4.0,334.0
2022-02-11-10:36:48.164159,22.0,3.0,333.0
2022-02-11-10:36:48.165155,25.0,9.0,333.0
2022-02-11-10:36:48.166150,25.0,9.0,333.0
2022-02-11-10:36:48.167150,15.0,7.0,333.0
2022-02-11-10:36:48.168145,3.0,3.0,333.0
2022-02-11-10:36:48.169143,6.0,4.0,333.0
2022-02-11-10:36:48.170115,6.0,4.0,333.0
2022-02-11-10:36:48.171137,14.0,16.0,334.0
2022-02-11-10:36:48.172134,6.0,14.0,333.0
2022-02-11-10:36:48.173133,1.0,9.0,333.0
2022-02-11-10:36:48.174130,1.0,9.0,333.0
2022-02-11-10:36:48.175128,2.0,5.0,333.0
2022-02-11-10:36:48.176123,8.0,2.0,333.0
2022-02-11-10:36:48.177121,7.0,3.0,333.0
2022-02-11-10:36:48.178112,7.0,3.0,333.0
2022-02-11-10:36:48.179116,10.0,2.0,333.0
2022-02-11-10:36:48.180113,15.0,0.0,333.0
2022-02-11-10:36:48.181112,24.0,8.0,332.0
2022-02-11-10:36:48.182083,24.0,8.0,332.0
2022-02-11-10:36:48.183107,13.0,5.0,333.0
2022-02-11-10:36:48.184104,0.0,1.0,333.0
2022-02-11-10:36:48.186072,0.0,1.0,333.0
2022-02-11-10:36:48.186072,12.0,12.0,333.0
2022-02-11-10:36:48.187107,2.0,7.0,333.0
2022-02-11-10:36:48.188091,2.0,7.0,333.0
2022-02-11-10:36:48.189089,2.0,7.0,333.0
2022-02-11-10:36:48.190085,2.0,7.0,333.0
2022-02-11-10:36:48.191086,2.0,7.0,333.0
2022-02-11-10:36:48.192080,2.0,3.0,333.0
2022-02-11-10:36:48.193077,5.0,2.0,333.0
2022-02-11-10:36:48.194087,5.0,2.0,333.0
2022-02-11-10:36:48.195050,6.0,2.0,333.0
2022-02-11-10:36:48.196082,10.0,2.0,333.0
2022-02-11-10:36:48.197077,26.0,4.0,333.0
2022-02-11-10:36:48.198075,26.0,4.0,333.0
2022-02-11-10:36:48.199072,26.0,4.0,333.0
2022-02-11-10:36:48.200061,3.0,2.0,333.0
2022-02-11-10:36:48.201057,3.0,2.0,333.0
2022-02-11-10:36:48.202055,3.0,2.0,333.0
2022-02-11-10:36:48.203061,3.0,2.0,333.0
2022-02-11-10:36:48.204058,10.0,9.0,333.0
2022-02-11-10:36:48.205047,14.0,13.0,333.0
2022-02-11-10:36:48.206045,6.0,13.0,333.0
2022-02-11-10:36:48.207042,6.0,13.0,333.0
2022-02-11-10:36:48.208038,4.0,5.0,333.0
2022-02-11-10:36:48.209037,4.0,9.0,333.0
2022-02-11-10:36:48.210034,4.0,6.0,333.0
2022-02-11-10:36:48.211031,4.0,6.0,333.0
2022-02-11-10:36:48.212028,8.0,3.0,333.0
2022-02-11-10:36:48.213026,11.0,2.0,333.0
2022-02-11-10:36:48.214024,25.0,2.0,333.0
2022-02-11-10:36:48.215021,25.0,2.0,333.0
2022-02-11-10:36:48.216018,27.0,10.0,332.0
2022-02-11-10:36:48.217987,13.0,3.0,333.0
2022-02-11-10:36:48.217987,3.0,1.0,333.0
2022-02-11-10:36:48.219009,3.0,1.0,333.0
2022-02-11-10:36:48.220007,16.0,15.0,333.0
2022-02-11-10:36:48.221005,8.0,11.0,333.0
2022-02-11-10:36:48.222002,8.0,11.0,333.0
2022-02-11-10:36:48.222974,8.0,11.0,333.0
2022-02-11-10:36:48.223996,1.0,8.0,333.0
2022-02-11-10:36:48.224994,5.0,7.0,333.0
2022-02-11-10:36:48.225965,6.0,2.0,334.0
2022-02-11-10:36:48.226973,6.0,2.0,334.0
2022-02-11-10:36:48.227997,8.0,4.0,333.0
2022-02-11-10:36:48.228992,19.0,2.0,333.0
2022-02-11-10:36:48.229987,19.0,2.0,333.0
2022-02-11-10:36:48.230987,19.0,2.0,333.0
2022-02-11-10:36:48.231983,19.0,2.0,333.0
2022-02-11-10:36:48.232980,21.0,5.0,333.0
2022-02-11-10:36:48.233978,5.0,2.0,333.0
2022-02-11-10:36:48.234974,5.0,2.0,333.0
2022-02-11-10:36:48.235971,5.0,2.0,333.0
2022-02-11-10:36:48.236969,1.0,4.0,334.0
2022-02-11-10:36:48.237967,17.0,15.0,333.0
2022-02-11-10:36:48.238965,7.0,13.0,333.0
2022-02-11-10:36:48.239961,7.0,13.0,333.0
2022-02-11-10:36:48.240957,7.0,13.0,333.0
2022-02-11-10:36:48.241956,3.0,8.0,333.0
2022-02-11-10:36:48.242954,5.0,6.0,333.0
2022-02-11-10:36:48.243950,5.0,6.0,333.0
2022-02-11-10:36:48.244917,8.0,2.0,333.0
2022-02-11-10:36:48.245948,9.0,4.0,334.0
2022-02-11-10:36:48.246944,15.0,4.0,333.0
2022-02-11-10:36:48.247940,15.0,4.0,333.0
2022-02-11-10:36:48.248938,24.0,7.0,333.0
2022-02-11-10:36:48.249937,16.0,5.0,333.0
2022-02-11-10:36:48.251896,6.0,1.0,333.0
2022-02-11-10:36:48.251896,6.0,1.0,333.0
2022-02-11-10:36:48.252927,11.0,6.0,333.0
2022-02-11-10:36:48.253924,15.0,18.0,333.0
2022-02-11-10:36:48.254922,15.0,18.0,333.0
2022-02-11-10:36:48.255918,15.0,18.0,333.0
2022-02-11-10:36:48.256915,5.0,11.0,333.0
2022-02-11-10:36:48.257914,2.0,7.0,333.0
2022-02-11-10:36:48.258910,9.0,2.0,333.0
2022-02-11-10:36:48.259875,9.0,2.0,333.0
2022-02-11-10:36:48.260906,8.0,3.0,333.0
2022-02-11-10:36:48.261871,6.0,1.0,333.0
2022-02-11-10:36:48.262901,10.0,1.0,333.0
2022-02-11-10:36:48.263865,10.0,1.0,333.0
2022-02-11-10:36:48.264895,25.0,7.0,332.0
2022-02-11-10:36:48.265894,23.0,8.0,333.0
2022-02-11-10:36:48.266894,12.0,2.0,333.0
2022-02-11-10:36:48.267887,12.0,2.0,333.0
2022-02-11-10:36:48.268886,15.0,14.0,333.0
2022-02-11-10:36:48.269883,18.0,17.0,333.0
2022-02-11-10:36:48.270881,18.0,17.0,333.0
2022-02-11-10:36:48.271877,18.0,17.0,333.0
2022-02-11-10:36:48.272874,6.0,13.0,333.0
2022-02-11-10:36:48.273873,1.0,7.0,333.0
2022-02-11-10:36:48.274871,6.0,10.0,333.0
2022-02-11-10:36:48.275868,4.0,7.0,333.0
2022-02-11-10:36:48.276864,4.0,7.0,333.0
2022-02-11-10:36:48.277861,6.0,6.0,333.0
2022-02-11-10:36:48.278858,9.0,4.0,333.0
2022-02-11-10:36:48.279847,10.0,3.0,333.0
2022-02-11-10:36:48.280844,9.0,5.0,333.0
2022-02-11-10:36:48.281843,18.0,1.0,333.0
2022-02-11-10:36:48.282839,25.0,8.0,333.0
2022-02-11-10:36:48.283836,26.0,9.0,333.0
2022-02-11-10:36:48.284834,14.0,2.0,333.0
2022-02-11-10:36:48.285835,8.0,1.0,333.0
2022-02-11-10:36:48.286803,8.0,1.0,333.0
2022-02-11-10:36:48.288798,1.0,4.0,333.0
2022-02-11-10:36:48.288798,18.0,16.0,333.0
2022-02-11-10:36:48.289820,13.0,15.0,334.0
2022-02-11-10:36:48.290818,5.0,8.0,333.0
2022-02-11-10:36:48.291819,1.0,4.0,333.0
2022-02-11-10:36:48.292814,2.0,7.0,333.0
2022-02-11-10:36:48.293810,8.0,4.0,333.0
2022-02-11-10:36:48.294807,8.0,4.0,333.0
2022-02-11-10:36:48.295805,6.0,3.0,333.0
2022-02-11-10:36:48.296802,9.0,3.0,333.0
2022-02-11-10:36:48.297800,13.0,0.0,333.0
2022-02-11-10:36:48.298795,25.0,6.0,333.0
2022-02-11-10:36:48.299794,25.0,5.0,333.0
2022-02-11-10:36:48.300784,18.0,8.0,333.0
2022-02-11-10:36:48.301788,12.0,3.0,333.0
2022-02-11-10:36:48.302790,4.0,1.0,333.0
2022-02-11-10:36:48.303775,16.0,17.0,333.0
2022-02-11-10:36:48.304755,16.0,18.0,333.0
2022-02-11-10:36:48.305772,5.0,13.0,333.0
2022-02-11-10:36:48.306769,3.0,8.0,333.0
2022-02-11-10:36:48.307776,5.0,0.0,333.0
2022-02-11-10:36:48.308770,7.0,1.0,333.0
2022-02-11-10:36:48.309767,4.0,3.0,333.0
2022-02-11-10:36:48.310765,6.0,6.0,333.0
2022-02-11-10:36:48.311737,8.0,6.0,333.0
2022-02-11-10:36:48.312758,10.0,6.0,333.0
2022-02-11-10:36:48.313758,10.0,6.0,333.0
2022-02-11-10:36:48.314755,23.0,3.0,333.0
2022-02-11-10:36:48.315751,25.0,7.0,333.0
2022-02-11-10:36:48.316749,23.0,8.0,333.0
2022-02-11-10:36:48.317745,13.0,5.0,333.0
2022-02-11-10:36:48.318748,7.0,2.0,333.0
2022-02-11-10:36:48.319719,15.0,12.0,333.0
2022-02-11-10:36:48.320738,20.0,18.0,333.0
2022-02-11-10:36:48.321737,20.0,18.0,333.0
2022-02-11-10:36:48.323733,8.0,9.0,333.0
2022-02-11-10:36:48.323733,2.0,10.0,333.0
2022-02-11-10:36:48.324731,2.0,5.0,333.0
2022-02-11-10:36:48.325725,3.0,7.0,333.0
2022-02-11-10:36:48.326724,6.0,3.0,333.0
2022-02-11-10:36:48.327727,6.0,4.0,333.0
2022-02-11-10:36:48.328691,8.0,3.0,333.0
2022-02-11-10:36:48.329716,8.0,4.0,333.0
2022-02-11-10:36:48.330712,14.0,0.0,333.0
2022-02-11-10:36:48.331709,24.0,7.0,333.0
2022-02-11-10:36:48.332707,14.0,5.0,333.0
2022-02-11-10:36:48.333704,14.0,5.0,333.0
2022-02-11-10:36:48.335694,8.0,0.0,333.0
2022-02-11-10:36:48.335694,14.0,12.0,333.0
2022-02-11-10:36:48.336704,15.0,12.0,333.0
2022-02-11-10:36:48.337667,15.0,12.0,333.0
2022-02-11-10:36:48.338691,0.0,10.0,333.0
2022-02-11-10:36:48.339690,3.0,8.0,333.0
2022-02-11-10:36:48.340686,3.0,8.0,333.0
2022-02-11-10:36:48.341658,3.0,8.0,333.0
2022-02-11-10:36:48.342680,6.0,4.0,333.0
2022-02-11-10:36:48.343683,6.0,2.0,333.0
2022-02-11-10:36:48.344674,7.0,3.0,333.0
2022-02-11-10:36:48.345646,7.0,3.0,333.0
2022-02-11-10:36:48.346669,7.0,3.0,333.0
2022-02-11-10:36:48.347666,23.0,8.0,333.0
2022-02-11-10:36:48.348664,18.0,5.0,334.0
2022-02-11-10:36:48.349661,18.0,5.0,334.0
2022-02-11-10:36:48.350659,18.0,5.0,334.0
2022-02-11-10:36:48.352651,10.0,1.0,332.0
2022-02-11-10:36:48.353625,16.0,16.0,333.0
2022-02-11-10:36:48.353625,16.0,16.0,333.0
2022-02-11-10:36:48.354648,16.0,16.0,333.0
2022-02-11-10:36:48.355652,15.0,15.0,333.0
2022-02-11-10:36:48.356644,2.0,8.0,334.0
2022-02-11-10:36:48.357640,4.0,8.0,333.0
2022-02-11-10:36:48.358639,4.0,8.0,333.0
2022-02-11-10:36:48.359635,7.0,6.0,333.0
2022-02-11-10:36:48.360631,8.0,7.0,333.0
2022-02-11-10:36:48.361615,9.0,2.0,333.0
2022-02-11-10:36:48.362627,9.0,2.0,333.0
2022-02-11-10:36:48.363626,9.0,5.0,333.0
2022-02-11-10:36:48.364622,21.0,3.0,333.0
2022-02-11-10:36:48.365619,20.0,7.0,333.0
2022-02-11-10:36:48.366615,20.0,7.0,333.0
2022-02-11-10:36:48.367614,9.0,2.0,333.0
2022-02-11-10:36:48.368611,2.0,4.0,333.0
2022-02-11-10:36:48.369609,18.0,11.0,333.0
2022-02-11-10:36:48.370606,18.0,11.0,333.0
2022-02-11-10:36:48.371602,1.0,9.0,333.0
2022-02-11-10:36:48.372574,2.0,5.0,333.0
2022-02-11-10:36:48.373585,2.0,5.0,333.0
2022-02-11-10:36:48.374568,2.0,5.0,333.0
2022-02-11-10:36:48.375596,6.0,6.0,333.0
2022-02-11-10:36:48.376588,5.0,6.0,333.0
2022-02-11-10:36:48.377587,10.0,5.0,333.0
2022-02-11-10:36:48.378559,10.0,5.0,333.0
2022-02-11-10:36:48.379587,17.0,1.0,333.0
2022-02-11-10:36:48.380579,23.0,8.0,333.0
2022-02-11-10:36:48.381575,23.0,8.0,333.0
2022-02-11-10:36:48.382581,23.0,8.0,333.0
2022-02-11-10:36:48.383570,16.0,4.0,333.0
2022-02-11-10:36:48.384569,1.0,5.0,333.0
2022-02-11-10:36:48.385572,10.0,10.0,333.0
2022-02-11-10:36:48.386562,10.0,10.0,333.0
2022-02-11-10:36:48.387564,10.0,10.0,333.0
2022-02-11-10:36:48.388558,6.0,11.0,333.0
2022-02-11-10:36:48.390525,5.0,8.0,333.0
2022-02-11-10:36:48.390525,5.0,8.0,333.0
2022-02-11-10:36:48.391548,5.0,8.0,333.0
2022-02-11-10:36:48.392545,4.0,4.0,334.0
2022-02-11-10:36:48.393543,9.0,4.0,333.0
2022-02-11-10:36:48.394540,9.0,4.0,333.0
2022-02-11-10:36:48.395513,9.0,4.0,333.0
2022-02-11-10:36:48.396538,7.0,5.0,333.0
2022-02-11-10:36:48.397533,7.0,5.0,333.0
2022-02-11-10:36:48.398531,8.0,3.0,333.0
2022-02-11-10:36:48.399527,27.0,8.0,333.0
2022-02-11-10:36:48.400525,18.0,7.0,333.0
2022-02-11-10:36:48.401524,4.0,4.0,333.0
2022-02-11-10:36:48.402520,6.0,6.0,333.0
2022-02-11-10:36:48.403491,6.0,6.0,333.0
2022-02-11-10:36:48.404488,7.0,14.0,333.0
2022-02-11-10:36:48.405511,1.0,10.0,333.0
2022-02-11-10:36:48.406509,1.0,10.0,333.0
2022-02-11-10:36:48.407506,1.0,10.0,333.0
2022-02-11-10:36:48.408507,4.0,4.0,333.0
2022-02-11-10:36:48.409501,9.0,6.0,333.0
2022-02-11-10:36:48.410499,5.0,5.0,333.0
2022-02-11-10:36:48.411470,5.0,5.0,333.0
2022-02-11-10:36:48.412494,18.0,2.0,333.0
2022-02-11-10:36:48.413491,27.0,5.0,333.0
2022-02-11-10:36:48.414488,27.0,5.0,333.0
2022-02-11-10:36:48.415459,27.0,5.0,333.0
2022-02-11-10:36:48.416498,22.0,5.0,333.0
2022-02-11-10:36:48.417479,5.0,2.0,333.0
2022-02-11-10:36:48.418478,0.0,2.0,333.0
2022-02-11-10:36:48.419485,0.0,2.0,333.0
2022-02-11-10:36:48.420480,12.0,12.0,333.0
2022-02-11-10:36:48.422440,8.0,13.0,333.0
2022-02-11-10:36:48.422440,2.0,9.0,333.0
2022-02-11-10:36:48.423469,2.0,9.0,333.0
2022-02-11-10:36:48.424466,2.0,9.0,333.0
2022-02-11-10:36:48.425471,8.0,4.0,333.0
2022-02-11-10:36:48.426467,8.0,4.0,333.0
2022-02-11-10:36:48.427459,8.0,4.0,333.0
2022-02-11-10:36:48.428426,8.0,4.0,333.0
2022-02-11-10:36:48.429454,8.0,2.0,333.0
2022-02-11-10:36:48.430453,22.0,6.0,333.0
2022-02-11-10:36:48.431450,22.0,6.0,333.0
2022-02-11-10:36:48.432448,22.0,6.0,333.0
2022-02-11-10:36:48.433446,21.0,9.0,333.0
2022-02-11-10:36:48.434442,6.0,2.0,333.0
2022-02-11-10:36:48.435442,0.0,4.0,333.0
2022-02-11-10:36:48.436438,0.0,4.0,333.0
2022-02-11-10:36:48.437427,13.0,10.0,333.0
2022-02-11-10:36:48.438428,5.0,13.0,333.0
2022-02-11-10:36:48.439419,5.0,13.0,333.0
2022-02-11-10:36:48.440416,5.0,13.0,333.0
2022-02-11-10:36:48.441415,0.0,7.0,333.0
2022-02-11-10:36:48.442414,5.0,7.0,333.0
2022-02-11-10:36:48.443408,10.0,5.0,333.0
2022-02-11-10:36:48.444411,10.0,5.0,333.0
2022-02-11-10:36:48.445379,9.0,6.0,333.0
2022-02-11-10:36:48.446402,11.0,2.0,333.0
2022-02-11-10:36:48.447400,22.0,5.0,333.0
2022-02-11-10:36:48.448397,22.0,5.0,333.0
2022-02-11-10:36:48.449394,25.0,5.0,333.0
2022-02-11-10:36:48.450391,10.0,5.0,333.0
2022-02-11-10:36:48.451392,6.0,0.0,333.0
2022-02-11-10:36:48.452360,6.0,0.0,333.0
2022-02-11-10:36:48.453384,6.0,7.0,333.0
2022-02-11-10:36:48.454382,15.0,16.0,333.0
2022-02-11-10:36:48.455384,5.0,12.0,333.0
2022-02-11-10:36:48.456350,5.0,12.0,333.0
2022-02-11-10:36:48.458344,1.0,6.0,333.0
2022-02-11-10:36:48.458344,7.0,3.0,333.0
2022-02-11-10:36:48.459367,7.0,3.0,333.0
2022-02-11-10:36:48.460369,7.0,3.0,333.0
2022-02-11-10:36:48.461362,6.0,3.0,333.0
2022-02-11-10:36:48.462361,8.0,3.0,332.0
2022-02-11-10:36:48.463356,22.0,3.0,332.0
2022-02-11-10:36:48.464352,22.0,3.0,332.0
2022-02-11-10:36:48.465351,22.0,3.0,332.0
2022-02-11-10:36:48.466347,11.0,2.0,333.0
2022-02-11-10:36:48.467349,9.0,0.0,333.0
2022-02-11-10:36:48.468343,9.0,0.0,333.0
2022-02-11-10:36:48.469340,9.0,0.0,333.0
2022-02-11-10:36:48.470352,1.0,2.0,333.0
2022-02-11-10:36:48.471343,17.0,15.0,333.0
2022-02-11-10:36:48.472332,7.0,11.0,333.0
2022-02-11-10:36:48.473331,7.0,11.0,333.0
2022-02-11-10:36:48.474327,5.0,7.0,333.0
2022-02-11-10:36:48.475324,5.0,0.0,333.0
2022-02-11-10:36:48.476323,5.0,0.0,333.0
2022-02-11-10:36:48.477319,5.0,0.0,333.0
2022-02-11-10:36:48.478324,9.0,5.0,333.0
2022-02-11-10:36:48.479315,13.0,3.0,333.0
2022-02-11-10:36:48.480332,13.0,3.0,333.0
2022-02-11-10:36:48.481331,13.0,3.0,333.0
2022-02-11-10:36:48.482330,24.0,8.0,333.0
2022-02-11-10:36:48.483324,17.0,7.0,333.0
2022-02-11-10:36:48.484322,8.0,1.0,333.0
2022-02-11-10:36:48.485320,8.0,1.0,333.0
2022-02-11-10:36:48.486318,3.0,2.0,333.0
2022-02-11-10:36:48.487313,16.0,12.0,333.0
2022-02-11-10:36:48.488311,14.0,17.0,333.0
2022-02-11-10:36:48.489262,14.0,17.0,333.0
2022-02-11-10:36:48.491303,3.0,8.0,333.0
2022-02-11-10:36:48.491303,4.0,8.0,334.0
2022-02-11-10:36:48.492301,4.0,8.0,334.0
2022-02-11-10:36:48.493251,4.0,8.0,334.0
2022-02-11-10:36:48.494295,11.0,4.0,333.0
2022-02-11-10:36:48.495246,8.0,6.0,332.0
2022-02-11-10:36:48.496290,13.0,2.0,333.0
2022-02-11-10:36:48.497302,13.0,2.0,333.0
2022-02-11-10:36:48.498287,25.0,3.0,333.0
2022-02-11-10:36:48.499284,19.0,4.0,334.0
2022-02-11-10:36:48.500280,8.0,3.0,333.0
2022-02-11-10:36:48.501276,8.0,3.0,333.0
2022-02-11-10:36:48.502274,8.0,3.0,333.0
2022-02-11-10:36:48.503274,16.0,11.0,334.0
2022-02-11-10:36:48.504291,18.0,15.0,333.0
2022-02-11-10:36:48.505259,18.0,15.0,333.0
2022-02-11-10:36:48.506249,18.0,15.0,333.0
2022-02-11-10:36:48.507250,7.0,3.0,333.0
2022-02-11-10:36:48.508246,6.0,3.0,333.0
2022-02-11-10:36:48.509241,6.0,3.0,333.0
2022-02-11-10:36:48.510241,6.0,3.0,333.0
2022-02-11-10:36:48.511236,8.0,0.0,333.0
2022-02-11-10:36:48.512201,7.0,1.0,334.0
2022-02-11-10:36:48.513233,23.0,7.0,332.0
2022-02-11-10:36:48.514228,23.0,7.0,332.0
2022-02-11-10:36:48.515228,26.0,6.0,333.0
2022-02-11-10:36:48.516224,15.0,4.0,333.0
2022-02-11-10:36:48.517221,11.0,1.0,333.0
2022-02-11-10:36:48.518219,11.0,1.0,333.0
2022-02-11-10:36:48.519215,1.0,1.0,333.0
2022-02-11-10:36:48.520179,18.0,20.0,333.0
2022-02-11-10:36:48.521211,10.0,14.0,333.0
2022-02-11-10:36:48.522208,10.0,14.0,333.0
2022-02-11-10:36:48.523207,4.0,11.0,333.0
2022-02-11-10:36:48.524203,3.0,9.0,333.0
2022-02-11-10:36:48.526163,2.0,6.0,333.0
2022-02-11-10:36:48.526163,2.0,6.0,333.0
2022-02-11-10:36:48.527195,5.0,5.0,333.0
2022-02-11-10:36:48.528191,13.0,3.0,333.0
2022-02-11-10:36:48.529190,13.0,3.0,333.0
2022-02-11-10:36:48.530152,13.0,3.0,333.0
2022-02-11-10:36:48.531186,24.0,5.0,333.0
2022-02-11-10:36:48.532182,14.0,4.0,333.0
2022-02-11-10:36:48.533178,11.0,2.0,333.0
2022-02-11-10:36:48.534177,11.0,2.0,333.0
2022-02-11-10:36:48.535173,1.0,4.0,333.0
2022-02-11-10:36:48.536170,19.0,18.0,333.0
2022-02-11-10:36:48.537169,14.0,18.0,333.0
2022-02-11-10:36:48.538165,14.0,18.0,333.0
2022-02-11-10:36:48.539164,14.0,18.0,333.0
2022-02-11-10:36:48.540160,2.0,11.0,333.0
2022-02-11-10:36:48.541157,3.0,7.0,333.0
2022-02-11-10:36:48.542154,3.0,7.0,333.0
2022-02-11-10:36:48.543151,3.0,7.0,333.0
2022-02-11-10:36:48.544149,5.0,5.0,333.0
2022-02-11-10:36:48.545114,7.0,3.0,333.0
2022-02-11-10:36:48.546148,11.0,3.0,333.0
2022-02-11-10:36:48.547143,11.0,3.0,333.0
2022-02-11-10:36:48.548139,22.0,2.0,334.0
2022-02-11-10:36:48.549135,19.0,7.0,333.0
2022-02-11-10:36:48.550133,11.0,3.0,333.0
2022-02-11-10:36:48.551130,11.0,3.0,333.0
2022-02-11-10:36:48.552127,4.0,1.0,333.0
2022-02-11-10:36:48.553126,4.0,8.0,333.0
2022-02-11-10:36:48.554122,18.0,15.0,333.0
2022-02-11-10:36:48.555122,18.0,15.0,333.0
2022-02-11-10:36:48.556117,9.0,14.0,333.0
2022-02-11-10:36:48.557114,2.0,9.0,333.0
2022-02-11-10:36:48.558112,3.0,8.0,333.0
2022-02-11-10:36:48.559108,3.0,8.0,333.0
2022-02-11-10:36:48.561069,7.0,5.0,333.0
2022-02-11-10:36:48.561069,7.0,5.0,333.0
2022-02-11-10:36:48.562099,7.0,5.0,333.0
2022-02-11-10:36:48.563097,7.0,5.0,333.0
2022-02-11-10:36:48.564095,21.0,0.0,333.0
2022-02-11-10:36:48.565092,25.0,9.0,333.0
2022-02-11-10:36:48.566090,14.0,6.0,333.0
2022-02-11-10:36:48.567054,14.0,6.0,333.0
2022-02-11-10:36:48.568084,1.0,4.0,333.0
2022-02-11-10:36:48.569081,16.0,13.0,333.0
2022-02-11-10:36:48.570070,16.0,13.0,333.0
2022-02-11-10:36:48.571055,16.0,13.0,333.0
2022-02-11-10:36:48.572075,13.0,18.0,333.0
2022-02-11-10:36:48.573071,1.0,6.0,333.0
2022-02-11-10:36:48.574069,6.0,6.0,333.0
2022-02-11-10:36:48.575066,6.0,6.0,333.0
2022-02-11-10:36:48.576063,6.0,6.0,333.0
2022-02-11-10:36:48.577060,6.0,1.0,334.0
2022-02-11-10:36:48.578057,8.0,5.0,333.0
2022-02-11-10:36:48.579058,8.0,5.0,333.0
2022-02-11-10:36:48.580053,8.0,5.0,333.0
2022-02-11-10:36:48.581050,27.0,7.0,333.0
2022-02-11-10:36:48.582048,15.0,6.0,333.0
2022-02-11-10:36:48.583044,15.0,6.0,333.0
2022-02-11-10:36:48.584043,15.0,6.0,333.0
2022-02-11-10:36:48.585040,7.0,1.0,333.0
2022-02-11-10:36:48.586036,11.0,6.0,333.0
2022-02-11-10:36:48.587037,16.0,15.0,334.0
2022-02-11-10:36:48.588032,16.0,15.0,334.0
2022-02-11-10:36:48.589028,14.0,17.0,333.0
2022-02-11-10:36:48.590026,1.0,4.0,333.0
2022-02-11-10:36:48.591023,7.0,6.0,333.0
2022-02-11-10:36:48.592021,7.0,6.0,333.0
2022-02-11-10:36:48.593017,8.0,6.0,333.0
2022-02-11-10:36:48.594979,8.0,6.0,333.0
2022-02-11-10:36:48.594979,8.0,6.0,333.0
2022-02-11-10:36:48.596011,8.0,6.0,333.0
2022-02-11-10:36:48.597008,10.0,5.0,333.0
2022-02-11-10:36:48.598007,27.0,9.0,333.0
2022-02-11-10:36:48.599001,22.0,9.0,333.0
2022-02-11-10:36:48.599999,22.0,9.0,333.0
2022-02-11-10:36:48.600998,11.0,5.0,333.0
2022-02-11-10:36:48.601994,13.0,13.0,333.0
2022-02-11-10:36:48.602994,13.0,13.0,333.0
2022-02-11-10:36:48.603955,13.0,13.0,333.0
2022-02-11-10:36:48.604986,19.0,17.0,333.0
2022-02-11-10:36:48.605984,2.0,12.0,333.0
2022-02-11-10:36:48.606982,2.0,5.0,333.0
2022-02-11-10:36:48.607945,2.0,5.0,333.0
2022-02-11-10:36:48.608975,9.0,0.0,333.0
2022-02-11-10:36:48.609974,8.0,4.0,333.0
2022-02-11-10:36:48.610973,8.0,4.0,333.0
2022-02-11-10:36:48.611935,8.0,4.0,333.0
2022-02-11-10:36:48.612966,8.0,3.0,333.0
2022-02-11-10:36:48.613964,26.0,5.0,334.0
2022-02-11-10:36:48.614961,26.0,10.0,333.0
2022-02-11-10:36:48.615956,26.0,10.0,333.0
2022-02-11-10:36:48.616955,26.0,10.0,333.0
2022-02-11-10:36:48.617951,16.0,6.0,332.0
2022-02-11-10:36:48.618948,0.0,2.0,333.0
2022-02-11-10:36:48.619947,12.0,9.0,333.0
2022-02-11-10:36:48.620943,12.0,9.0,333.0
2022-02-11-10:36:48.621943,19.0,14.0,333.0
2022-02-11-10:36:48.622938,4.0,9.0,334.0
2022-02-11-10:36:48.623935,1.0,7.0,333.0
2022-02-11-10:36:48.624934,1.0,7.0,333.0
2022-02-11-10:36:48.625930,7.0,6.0,333.0
2022-02-11-10:36:48.626927,7.0,3.0,333.0
2022-02-11-10:36:48.628888,8.0,3.0,333.0
2022-02-11-10:36:48.628888,8.0,3.0,333.0
2022-02-11-10:36:48.629919,12.0,1.0,333.0
2022-02-11-10:36:48.630891,25.0,5.0,333.0
2022-02-11-10:36:48.631912,25.0,5.0,333.0
2022-02-11-10:36:48.632916,25.0,5.0,333.0
2022-02-11-10:36:48.633907,16.0,4.0,333.0
2022-02-11-10:36:48.634904,0.0,2.0,333.0
2022-02-11-10:36:48.635902,10.0,7.0,333.0
2022-02-11-10:36:48.636867,10.0,7.0,333.0
2022-02-11-10:36:48.637864,15.0,12.0,333.0
2022-02-11-10:36:48.638893,6.0,11.0,333.0
2022-02-11-10:36:48.639891,1.0,7.0,333.0
2022-02-11-10:36:48.640856,1.0,7.0,333.0
2022-02-11-10:36:48.641886,5.0,5.0,333.0
2022-02-11-10:36:48.642883,4.0,6.0,333.0
2022-02-11-10:36:48.643884,10.0,3.0,333.0
2022-02-11-10:36:48.644846,10.0,3.0,333.0
2022-02-11-10:36:48.645878,8.0,3.0,333.0
2022-02-11-10:36:48.646874,25.0,7.0,333.0
2022-02-11-10:36:48.647874,25.0,7.0,333.0
2022-02-11-10:36:48.648856,25.0,7.0,333.0
2022-02-11-10:36:48.649865,19.0,5.0,333.0
2022-02-11-10:36:48.650866,12.0,3.0,333.0
2022-02-11-10:36:48.651862,7.0,10.0,333.0
2022-02-11-10:36:48.652857,7.0,10.0,333.0
2022-02-11-10:36:48.653856,7.0,10.0,333.0
2022-02-11-10:36:48.654852,8.0,14.0,333.0
2022-02-11-10:36:48.655854,1.0,8.0,333.0
2022-02-11-10:36:48.656849,1.0,8.0,333.0
2022-02-11-10:36:48.657844,1.0,8.0,333.0
2022-02-11-10:36:48.658844,8.0,3.0,332.0
2022-02-11-10:36:48.659840,8.0,2.0,332.0
2022-02-11-10:36:48.660836,8.0,2.0,332.0
2022-02-11-10:36:48.661831,8.0,2.0,332.0
2022-02-11-10:36:48.662831,17.0,1.0,333.0
2022-02-11-10:36:48.664792,27.0,4.0,333.0
2022-02-11-10:36:48.664792,27.0,4.0,333.0
2022-02-11-10:36:48.665821,27.0,4.0,333.0
2022-02-11-10:36:48.666819,14.0,3.0,333.0
2022-02-11-10:36:48.667817,1.0,1.0,333.0
2022-02-11-10:36:48.668815,1.0,1.0,333.0
2022-02-11-10:36:48.669806,1.0,1.0,333.0
2022-02-11-10:36:48.670806,14.0,12.0,333.0
2022-02-11-10:36:48.671801,13.0,16.0,334.0
2022-02-11-10:36:48.672771,6.0,11.0,333.0
2022-02-11-10:36:48.673795,6.0,11.0,333.0
2022-02-11-10:36:48.674798,2.0,9.0,333.0
2022-02-11-10:36:48.675796,3.0,5.0,333.0
2022-02-11-10:36:48.676793,4.0,4.0,333.0
2022-02-11-10:36:48.677792,5.0,3.0,333.0
2022-02-11-10:36:48.678756,8.0,6.0,332.0
2022-02-11-10:36:48.679794,22.0,3.0,333.0
2022-02-11-10:36:48.680785,22.0,3.0,333.0
2022-02-11-10:36:48.681747,22.0,3.0,333.0
2022-02-11-10:36:48.682780,26.0,9.0,333.0
2022-02-11-10:36:48.683776,11.0,2.0,333.0
2022-02-11-10:36:48.684772,2.0,1.0,332.0
2022-02-11-10:36:48.685739,2.0,1.0,332.0
2022-02-11-10:36:48.686734,8.0,6.0,333.0
2022-02-11-10:36:48.687764,13.0,15.0,333.0
2022-02-11-10:36:48.688768,9.0,14.0,333.0
2022-02-11-10:36:48.689759,9.0,14.0,333.0
2022-02-11-10:36:48.690759,1.0,8.0,333.0
2022-02-11-10:36:48.691755,2.0,2.0,333.0
2022-02-11-10:36:48.692723,7.0,3.0,334.0
2022-02-11-10:36:48.693715,7.0,3.0,334.0
2022-02-11-10:36:48.694744,7.0,3.0,334.0
2022-02-11-10:36:48.695709,5.0,3.0,333.0
2022-02-11-10:36:48.696707,7.0,5.0,333.0
2022-02-11-10:36:48.697729,20.0,1.0,333.0
2022-02-11-10:36:48.699699,22.0,9.0,333.0
2022-02-11-10:36:48.700709,4.0,0.0,333.0
2022-02-11-10:36:48.701724,4.0,0.0,333.0
2022-02-11-10:36:48.702718,4.0,0.0,333.0
2022-02-11-10:36:48.703716,4.0,2.0,333.0
2022-02-11-10:36:48.704713,16.0,14.0,333.0
2022-02-11-10:36:48.705709,19.0,15.0,333.0
2022-02-11-10:36:48.706709,10.0,13.0,333.0
2022-02-11-10:36:48.707704,0.0,8.0,333.0
2022-02-11-10:36:48.708676,6.0,7.0,333.0
2022-02-11-10:36:48.709699,8.0,4.0,333.0
2022-02-11-10:36:48.710695,8.0,4.0,333.0
2022-02-11-10:36:48.711693,8.0,1.0,333.0
2022-02-11-10:36:48.712686,11.0,1.0,333.0
2022-02-11-10:36:48.713683,17.0,0.0,333.0
2022-02-11-10:36:48.714688,17.0,0.0,333.0
2022-02-11-10:36:48.715668,25.0,7.0,333.0
2022-02-11-10:36:48.716663,17.0,4.0,333.0
2022-02-11-10:36:48.717678,7.0,2.0,333.0
2022-02-11-10:36:48.718648,7.0,2.0,333.0
2022-02-11-10:36:48.719672,4.0,5.0,333.0
2022-02-11-10:36:48.720670,19.0,12.0,333.0
2022-02-11-10:36:48.721674,12.0,17.0,334.0
2022-02-11-10:36:48.722638,12.0,17.0,334.0
2022-02-11-10:36:48.723662,4.0,9.0,333.0
2022-02-11-10:36:48.724658,1.0,7.0,334.0
2022-02-11-10:36:48.725657,6.0,3.0,333.0
2022-02-11-10:36:48.726656,6.0,3.0,333.0
2022-02-11-10:36:48.727652,6.0,0.0,333.0
2022-02-11-10:36:48.728643,12.0,1.0,333.0
2022-02-11-10:36:48.729631,12.0,1.0,333.0
2022-02-11-10:36:48.730618,12.0,1.0,333.0
2022-02-11-10:36:48.732619,25.0,2.0,333.0
2022-02-11-10:36:48.733619,18.0,7.0,333.0
2022-02-11-10:36:48.733619,4.0,4.0,333.0
2022-02-11-10:36:48.734635,4.0,4.0,333.0
2022-02-11-10:36:48.735630,4.0,4.0,333.0
2022-02-11-10:36:48.736630,11.0,8.0,333.0
2022-02-11-10:36:48.737630,7.0,12.0,333.0
2022-02-11-10:36:48.737894,7.0,12.0,333.0
2022-02-11-10:36:48.738597,7.0,12.0,333.0
2022-02-11-10:36:48.739620,7.0,12.0,333.0
2022-02-11-10:36:48.740617,0.0,10.0,333.0
2022-02-11-10:36:48.741614,1.0,9.0,333.0
2022-02-11-10:36:48.742609,4.0,6.0,333.0
2022-02-11-10:36:48.743608,6.0,4.0,333.0
2022-02-11-10:36:48.744605,10.0,6.0,333.0
2022-02-11-10:36:48.745578,10.0,5.0,333.0
2022-02-11-10:36:48.746602,23.0,1.0,333.0
2022-02-11-10:36:48.747571,23.0,1.0,333.0
2022-02-11-10:36:48.748569,22.0,9.0,333.0
2022-02-11-10:36:48.749592,13.0,6.0,333.0
2022-02-11-10:36:48.750589,7.0,1.0,333.0
2022-02-11-10:36:48.751587,7.0,1.0,333.0
2022-02-11-10:36:48.752585,5.0,3.0,333.0
2022-02-11-10:36:48.753555,17.0,16.0,333.0
2022-02-11-10:36:48.754581,7.0,14.0,333.0
2022-02-11-10:36:48.755550,7.0,14.0,333.0
2022-02-11-10:36:48.756572,1.0,12.0,333.0
2022-02-11-10:36:48.757571,5.0,6.0,333.0
2022-02-11-10:36:48.758568,7.0,8.0,333.0
2022-02-11-10:36:48.759539,7.0,8.0,333.0
2022-02-11-10:36:48.760562,10.0,5.0,333.0
2022-02-11-10:36:48.761560,9.0,6.0,333.0
2022-02-11-10:36:48.762557,14.0,1.0,333.0
2022-02-11-10:36:48.763557,14.0,1.0,333.0
2022-02-11-10:36:48.764551,25.0,3.0,333.0
2022-02-11-10:36:48.765550,15.0,3.0,333.0
2022-02-11-10:36:48.766547,9.0,0.0,333.0
2022-02-11-10:36:48.768515,9.0,0.0,333.0
2022-02-11-10:36:48.768515,12.0,11.0,333.0
2022-02-11-10:36:48.769537,15.0,16.0,333.0
2022-02-11-10:36:48.770510,15.0,16.0,333.0
2022-02-11-10:36:48.771532,15.0,16.0,333.0
2022-02-11-10:36:48.772529,15.0,16.0,333.0
2022-02-11-10:36:48.773530,2.0,12.0,333.0
2022-02-11-10:36:48.774523,0.0,8.0,333.0
2022-02-11-10:36:48.775520,5.0,4.0,333.0
2022-02-11-10:36:48.776519,5.0,4.0,333.0
2022-02-11-10:36:48.777515,5.0,4.0,333.0
2022-02-11-10:36:48.778512,10.0,3.0,333.0
2022-02-11-10:36:48.779513,7.0,1.0,333.0
2022-02-11-10:36:48.780508,7.0,1.0,333.0
2022-02-11-10:36:48.781507,22.0,8.0,333.0
2022-02-11-10:36:48.782503,12.0,2.0,333.0
2022-02-11-10:36:48.783501,12.0,2.0,333.0
2022-02-11-10:36:48.784500,12.0,2.0,333.0
2022-02-11-10:36:48.785496,5.0,0.0,333.0
2022-02-11-10:36:48.786496,15.0,10.0,333.0
2022-02-11-10:36:48.787491,17.0,18.0,333.0
2022-02-11-10:36:48.788486,17.0,18.0,333.0
2022-02-11-10:36:48.789490,6.0,12.0,333.0
2022-02-11-10:36:48.790482,1.0,6.0,333.0
2022-02-11-10:36:48.791480,6.0,2.0,333.0
2022-02-11-10:36:48.792477,6.0,2.0,333.0
2022-02-11-10:36:48.793473,5.0,6.0,333.0
2022-02-11-10:36:48.794471,8.0,2.0,333.0
2022-02-11-10:36:48.795444,8.0,2.0,333.0
2022-02-11-10:36:48.796440,8.0,2.0,333.0
2022-02-11-10:36:48.797465,22.0,2.0,333.0
2022-02-11-10:36:48.798463,15.0,3.0,333.0
2022-02-11-10:36:48.799458,15.0,3.0,333.0
2022-02-11-10:36:48.801454,15.0,3.0,333.0
2022-02-11-10:36:48.802454,14.0,13.0,334.0
2022-02-11-10:36:48.802454,16.0,16.0,333.0
2022-02-11-10:36:48.803423,16.0,16.0,333.0
2022-02-11-10:36:48.803668,16.0,16.0,333.0
2022-02-11-10:36:48.804419,16.0,16.0,333.0
2022-02-11-10:36:48.805416,16.0,16.0,333.0
2022-02-11-10:36:48.806440,5.0,6.0,333.0
2022-02-11-10:36:48.807439,3.0,4.0,333.0
2022-02-11-10:36:48.808434,3.0,4.0,333.0
2022-02-11-10:36:48.809430,3.0,4.0,333.0
2022-02-11-10:36:48.810428,9.0,4.0,334.0
2022-02-11-10:36:48.811426,7.0,2.0,333.0
2022-02-11-10:36:48.812399,7.0,2.0,333.0
2022-02-11-10:36:48.813395,7.0,2.0,333.0
2022-02-11-10:36:48.814419,12.0,0.0,333.0
2022-02-11-10:36:48.815416,24.0,5.0,333.0
2022-02-11-10:36:48.816413,18.0,2.0,333.0
2022-02-11-10:36:48.817409,18.0,2.0,333.0
2022-02-11-10:36:48.818407,10.0,1.0,333.0
2022-02-11-10:36:48.819405,14.0,8.0,333.0
2022-02-11-10:36:48.820403,16.0,13.0,333.0
2022-02-11-10:36:48.821400,16.0,13.0,333.0
2022-02-11-10:36:48.822396,16.0,18.0,334.0
2022-02-11-10:36:48.823393,3.0,12.0,333.0
2022-02-11-10:36:48.824392,4.0,7.0,333.0
2022-02-11-10:36:48.825388,4.0,7.0,333.0
2022-02-11-10:36:48.826360,6.0,4.0,333.0
2022-02-11-10:36:48.827390,8.0,2.0,333.0
2022-02-11-10:36:48.828386,6.0,2.0,333.0
2022-02-11-10:36:48.829355,6.0,2.0,333.0
2022-02-11-10:36:48.830376,10.0,5.0,333.0
2022-02-11-10:36:48.831374,25.0,6.0,333.0
2022-02-11-10:36:48.832377,19.0,5.0,333.0
2022-02-11-10:36:48.832807,19.0,5.0,333.0
2022-02-11-10:36:48.834339,19.0,5.0,333.0
2022-02-11-10:36:48.834339,4.0,3.0,333.0
2022-02-11-10:36:48.835368,12.0,11.0,333.0
2022-02-11-10:36:48.836386,12.0,11.0,333.0
2022-02-11-10:36:48.837847,12.0,11.0,333.0
2022-02-11-10:36:48.838864,16.0,17.0,334.0
2022-02-11-10:36:48.839866,0.0,10.0,333.0
2022-02-11-10:36:48.840861,4.0,7.0,333.0
2022-02-11-10:36:48.841945,4.0,7.0,333.0
2022-02-11-10:36:48.842966,8.0,9.0,334.0
2022-02-11-10:36:48.843963,8.0,2.0,333.0
2022-02-11-10:36:48.844962,9.0,0.0,333.0
2022-02-11-10:36:48.845941,9.0,0.0,333.0
2022-02-11-10:36:48.846953,8.0,3.0,333.0
2022-02-11-10:36:48.847962,18.0,1.0,333.0
2022-02-11-10:36:48.848933,27.0,8.0,333.0
2022-02-11-10:36:48.849934,27.0,8.0,333.0
2022-02-11-10:36:48.850932,17.0,13.0,333.0
2022-02-11-10:36:48.851929,17.0,13.0,333.0
2022-02-11-10:36:48.852927,17.0,13.0,333.0
2022-02-11-10:36:48.853924,17.0,13.0,333.0
2022-02-11-10:36:48.854921,12.0,14.0,333.0
2022-02-11-10:36:48.855919,3.0,6.0,333.0
2022-02-11-10:36:48.856916,3.0,6.0,333.0
2022-02-11-10:36:48.857913,3.0,6.0,333.0
2022-02-11-10:36:48.858910,7.0,3.0,334.0
2022-02-11-10:36:48.859908,6.0,7.0,333.0
2022-02-11-10:36:48.860905,6.0,7.0,333.0
2022-02-11-10:36:48.861902,6.0,7.0,333.0
2022-02-11-10:36:48.862900,15.0,1.0,332.0
2022-02-11-10:36:48.863897,23.0,7.0,333.0
2022-02-11-10:36:48.864894,23.0,7.0,333.0
2022-02-11-10:36:48.865892,23.0,7.0,333.0
2022-02-11-10:36:48.866890,23.0,7.0,333.0
2022-02-11-10:36:48.868884,10.0,9.0,333.0
2022-02-11-10:36:48.868884,10.0,9.0,333.0
2022-02-11-10:36:48.869881,10.0,9.0,333.0
2022-02-11-10:36:48.870878,10.0,9.0,333.0
2022-02-11-10:36:48.871876,6.0,12.0,333.0
2022-02-11-10:36:48.872874,1.0,10.0,333.0
2022-02-11-10:36:48.873870,1.0,10.0,333.0
2022-02-11-10:36:48.874868,1.0,10.0,333.0
2022-02-11-10:36:48.875866,5.0,3.0,333.0
2022-02-11-10:36:48.876862,7.0,8.0,333.0
2022-02-11-10:36:48.877860,7.0,8.0,333.0
2022-02-11-10:36:48.878863,7.0,8.0,333.0
2022-02-11-10:36:48.879855,23.0,2.0,333.0
2022-02-11-10:36:48.880860,25.0,8.0,333.0
2022-02-11-10:36:48.881849,25.0,8.0,333.0
2022-02-11-10:36:48.882846,25.0,8.0,333.0
2022-02-11-10:36:48.883844,13.0,0.0,333.0
2022-02-11-10:36:48.884841,2.0,3.0,333.0
2022-02-11-10:36:48.885838,2.0,3.0,333.0
2022-02-11-10:36:48.886836,2.0,3.0,333.0
2022-02-11-10:36:48.887833,22.0,15.0,333.0
2022-02-11-10:36:48.888830,1.0,7.0,333.0
2022-02-11-10:36:48.889828,1.0,7.0,333.0
2022-02-11-10:36:48.890825,1.0,7.0,333.0
2022-02-11-10:36:48.891823,8.0,5.0,334.0
2022-02-11-10:36:48.892820,8.0,4.0,333.0
2022-02-11-10:36:48.893818,8.0,4.0,333.0
2022-02-11-10:36:48.894814,8.0,4.0,333.0
2022-02-11-10:36:48.895812,8.0,1.0,333.0
2022-02-11-10:36:48.896809,26.0,4.0,333.0
2022-02-11-10:36:48.897806,26.0,4.0,333.0
2022-02-11-10:36:48.898804,26.0,4.0,333.0
2022-02-11-10:36:48.899802,9.0,2.0,333.0
2022-02-11-10:36:48.900798,2.0,5.0,333.0
2022-02-11-10:36:48.901796,2.0,5.0,333.0
2022-02-11-10:36:48.903790,2.0,5.0,333.0
2022-02-11-10:36:48.903790,17.0,17.0,333.0
2022-02-11-10:36:48.904788,5.0,11.0,333.0
2022-02-11-10:36:48.905785,5.0,11.0,333.0
2022-02-11-10:36:48.906782,5.0,11.0,333.0
2022-02-11-10:36:48.907780,5.0,11.0,333.0
2022-02-11-10:36:48.908777,10.0,7.0,333.0
2022-02-11-10:36:48.909776,10.0,7.0,333.0
2022-02-11-10:36:48.910772,10.0,7.0,333.0
2022-02-11-10:36:48.911769,10.0,7.0,333.0
2022-02-11-10:36:48.912767,13.0,2.0,333.0
2022-02-11-10:36:48.913764,28.0,7.0,332.0
2022-02-11-10:36:48.914761,28.0,7.0,332.0
2022-02-11-10:36:48.915759,28.0,7.0,332.0
2022-02-11-10:36:48.916756,6.0,2.0,333.0
2022-02-11-10:36:48.917753,3.0,4.0,333.0
2022-02-11-10:36:48.918750,3.0,4.0,333.0
2022-02-11-10:36:48.919748,3.0,4.0,333.0
2022-02-11-10:36:48.920745,3.0,4.0,333.0
2022-02-11-10:36:48.921743,10.0,7.0,333.0
2022-02-11-10:36:48.922740,16.0,17.0,333.0
2022-02-11-10:36:48.923737,7.0,14.0,333.0
2022-02-11-10:36:48.924736,4.0,6.0,333.0
2022-02-11-10:36:48.925732,6.0,6.0,333.0
2022-02-11-10:36:48.926730,6.0,6.0,333.0
2022-02-11-10:36:48.927726,6.0,6.0,333.0
2022-02-11-10:36:48.928724,6.0,3.0,332.0
2022-02-11-10:36:48.929721,21.0,5.0,333.0
2022-02-11-10:36:48.930718,21.0,5.0,333.0
2022-02-11-10:36:48.931716,21.0,5.0,333.0
2022-02-11-10:36:48.932713,13.0,2.0,333.0
2022-02-11-10:36:48.933710,5.0,3.0,333.0
2022-02-11-10:36:48.934708,5.0,3.0,333.0
2022-02-11-10:36:48.935705,5.0,3.0,333.0
2022-02-11-10:36:48.937701,18.0,17.0,333.0
2022-02-11-10:36:48.937701,8.0,13.0,333.0
2022-02-11-10:36:48.938698,8.0,13.0,333.0
2022-02-11-10:36:48.939694,8.0,13.0,333.0
2022-02-11-10:36:48.940692,7.0,4.0,333.0
2022-02-11-10:36:48.941689,7.0,4.0,333.0
2022-02-11-10:36:48.942686,7.0,4.0,333.0
2022-02-11-10:36:48.943684,7.0,4.0,333.0
2022-02-11-10:36:48.944681,7.0,4.0,333.0
2022-02-11-10:36:48.945678,18.0,1.0,333.0
2022-02-11-10:36:48.946676,18.0,1.0,333.0
2022-02-11-10:36:48.947673,18.0,1.0,333.0
2022-02-11-10:36:48.948670,18.0,1.0,333.0
2022-02-11-10:36:48.949668,26.0,6.0,332.0
2022-02-11-10:36:48.950665,8.0,0.0,333.0
2022-02-11-10:36:48.951662,8.0,0.0,333.0
2022-02-11-10:36:48.952661,8.0,0.0,333.0
2022-02-11-10:36:48.953657,14.0,13.0,333.0
2022-02-11-10:36:48.954654,13.0,14.0,333.0
2022-02-11-10:36:48.955652,13.0,14.0,333.0
2022-02-11-10:36:48.956649,13.0,14.0,333.0
2022-02-11-10:36:48.957646,3.0,11.0,333.0
2022-02-11-10:36:48.958644,7.0,6.0,333.0
2022-02-11-10:36:48.959641,7.0,6.0,333.0
2022-02-11-10:36:48.960638,7.0,6.0,333.0
2022-02-11-10:36:48.961636,6.0,4.0,333.0
2022-02-11-10:36:48.962633,26.0,6.0,333.0
2022-02-11-10:36:48.963630,26.0,6.0,333.0
2022-02-11-10:36:48.964628,26.0,6.0,333.0
2022-02-11-10:36:48.965627,7.0,1.0,333.0
2022-02-11-10:36:48.966622,0.0,1.0,333.0
2022-02-11-10:36:48.967620,0.0,1.0,333.0
2022-02-11-10:36:48.968618,0.0,1.0,333.0
2022-02-11-10:36:48.970612,14.0,14.0,333.0
2022-02-11-10:36:48.970612,5.0,11.0,334.0
2022-02-11-10:36:48.971609,5.0,11.0,334.0
2022-02-11-10:36:48.972606,5.0,11.0,334.0
2022-02-11-10:36:48.973604,5.0,7.0,333.0
2022-02-11-10:36:48.974602,5.0,6.0,333.0
2022-02-11-10:36:48.975599,5.0,6.0,333.0
2022-02-11-10:36:48.976596,5.0,6.0,333.0
2022-02-11-10:36:48.977594,9.0,2.0,333.0
2022-02-11-10:36:48.978590,23.0,4.0,333.0
2022-02-11-10:36:48.979588,23.0,4.0,333.0
2022-02-11-10:36:48.980585,23.0,4.0,333.0
2022-02-11-10:36:48.981583,2.0,2.0,334.0
2022-02-11-10:36:48.982580,2.0,2.0,334.0
2022-02-11-10:36:48.983577,2.0,2.0,334.0
2022-02-11-10:36:48.984574,2.0,2.0,334.0
2022-02-11-10:36:48.985572,2.0,2.0,334.0
2022-02-11-10:36:48.986569,8.0,14.0,333.0
2022-02-11-10:36:48.987566,8.0,14.0,333.0
2022-02-11-10:36:48.988564,8.0,14.0,333.0
2022-02-11-10:36:48.989562,8.0,14.0,333.0
2022-02-11-10:36:48.990559,7.0,4.0,333.0
2022-02-11-10:36:48.991556,4.0,7.0,333.0
2022-02-11-10:36:48.992553,4.0,7.0,333.0
2022-02-11-10:36:48.993550,4.0,7.0,333.0
2022-02-11-10:36:48.994548,8.0,8.0,333.0
2022-02-11-10:36:48.995545,14.0,0.0,333.0
2022-02-11-10:36:48.996542,14.0,0.0,333.0
2022-02-11-10:36:48.997540,14.0,0.0,333.0
2022-02-11-10:36:48.998537,15.0,4.0,333.0
2022-02-11-10:36:48.999534,6.0,2.0,333.0
2022-02-11-10:36:49.000532,6.0,2.0,333.0
2022-02-11-10:36:49.001529,6.0,2.0,333.0
2022-02-11-10:36:49.002526,13.0,7.0,333.0
2022-02-11-10:36:49.003524,12.0,11.0,333.0
2022-02-11-10:36:49.004521,12.0,11.0,333.0
2022-02-11-10:36:49.006516,12.0,11.0,333.0
2022-02-11-10:36:49.006516,1.0,6.0,333.0
2022-02-11-10:36:49.007513,8.0,7.0,333.0
2022-02-11-10:36:49.008510,8.0,7.0,333.0
2022-02-11-10:36:49.009508,8.0,7.0,333.0
2022-02-11-10:36:49.010505,6.0,6.0,333.0
2022-02-11-10:36:49.011503,11.0,4.0,333.0
2022-02-11-10:36:49.012500,11.0,4.0,333.0
2022-02-11-10:36:49.013497,11.0,4.0,333.0
2022-02-11-10:36:49.014495,17.0,3.0,333.0
2022-02-11-10:36:49.015492,6.0,1.0,333.0
2022-02-11-10:36:49.016489,6.0,1.0,333.0
2022-02-11-10:36:49.017488,6.0,1.0,333.0
2022-02-11-10:36:49.018484,10.0,9.0,333.0
2022-02-11-10:36:49.019481,16.0,16.0,333.0
2022-02-11-10:36:49.020483,16.0,16.0,333.0
2022-02-11-10:36:49.021476,16.0,16.0,333.0
2022-02-11-10:36:49.022473,16.0,16.0,333.0
2022-02-11-10:36:49.023471,7.0,8.0,333.0
2022-02-11-10:36:49.024468,7.0,5.0,334.0
2022-02-11-10:36:49.025466,7.0,5.0,334.0
2022-02-11-10:36:49.026462,7.0,5.0,334.0
2022-02-11-10:36:49.027460,9.0,1.0,333.0
2022-02-11-10:36:49.028458,10.0,5.0,333.0
2022-02-11-10:36:49.029454,10.0,5.0,333.0
2022-02-11-10:36:49.030452,10.0,5.0,333.0
2022-02-11-10:36:49.031449,22.0,7.0,333.0
2022-02-11-10:36:49.032446,14.0,6.0,333.0
2022-02-11-10:36:49.033444,14.0,6.0,333.0
2022-02-11-10:36:49.034441,14.0,6.0,333.0
2022-02-11-10:36:49.035438,0.0,3.0,333.0
2022-02-11-10:36:49.036436,19.0,13.0,333.0
2022-02-11-10:36:49.037433,19.0,13.0,333.0
2022-02-11-10:36:49.039428,19.0,13.0,333.0
2022-02-11-10:36:49.039428,2.0,9.0,333.0
2022-02-11-10:36:49.040425,3.0,7.0,333.0
2022-02-11-10:36:49.041423,3.0,7.0,333.0
2022-02-11-10:36:49.042420,3.0,7.0,333.0
2022-02-11-10:36:49.043417,7.0,0.0,333.0
2022-02-11-10:36:49.044414,6.0,2.0,333.0
2022-02-11-10:36:49.045412,6.0,2.0,333.0
2022-02-11-10:36:49.046409,6.0,2.0,333.0
2022-02-11-10:36:49.047407,22.0,8.0,333.0
2022-02-11-10:36:49.048404,17.0,4.0,333.0
2022-02-11-10:36:49.049401,17.0,4.0,333.0
2022-02-11-10:36:49.050398,17.0,4.0,333.0
2022-02-11-10:36:49.051397,13.0,12.0,333.0
2022-02-11-10:36:49.052393,17.0,16.0,333.0
2022-02-11-10:36:49.053390,17.0,16.0,333.0
2022-02-11-10:36:49.054388,17.0,16.0,333.0
2022-02-11-10:36:49.055385,5.0,8.0,333.0
2022-02-11-10:36:49.056382,5.0,8.0,333.0
2022-02-11-10:36:49.057380,5.0,8.0,333.0
2022-02-11-10:36:49.058378,5.0,8.0,333.0
2022-02-11-10:36:49.059374,5.0,8.0,333.0
2022-02-11-10:36:49.060372,6.0,6.0,333.0
2022-02-11-10:36:49.061369,6.0,6.0,333.0
2022-02-11-10:36:49.062367,6.0,6.0,333.0
2022-02-11-10:36:49.063364,6.0,6.0,333.0
2022-02-11-10:36:49.064361,23.0,7.0,333.0
2022-02-11-10:36:49.065358,22.0,8.0,333.0
2022-02-11-10:36:49.066356,22.0,8.0,333.0
2022-02-11-10:36:49.067353,22.0,8.0,333.0
2022-02-11-10:36:49.068351,10.0,2.0,333.0
2022-02-11-10:36:49.069363,16.0,14.0,333.0
2022-02-11-10:36:49.070345,16.0,14.0,333.0
2022-02-11-10:36:49.071342,16.0,14.0,333.0
2022-02-11-10:36:49.072340,6.0,14.0,334.0
2022-02-11-10:36:49.074334,1.0,8.0,333.0
2022-02-11-10:36:49.074334,1.0,8.0,333.0
2022-02-11-10:36:49.075332,5.0,4.0,333.0
2022-02-11-10:36:49.076330,6.0,2.0,333.0
2022-02-11-10:36:49.077326,6.0,2.0,333.0
2022-02-11-10:36:49.078336,6.0,2.0,333.0
2022-02-11-10:36:49.079322,6.0,2.0,333.0
2022-02-11-10:36:49.080318,22.0,1.0,333.0
2022-02-11-10:36:49.081316,25.0,7.0,334.0
2022-02-11-10:36:49.082313,25.0,7.0,334.0
2022-02-11-10:36:49.083311,25.0,7.0,334.0
2022-02-11-10:36:49.084308,5.0,1.0,333.0
2022-02-11-10:36:49.085305,14.0,11.0,333.0
2022-02-11-10:36:49.086302,14.0,11.0,333.0
2022-02-11-10:36:49.087300,14.0,11.0,333.0
2022-02-11-10:36:49.088298,1.0,11.0,333.0
2022-02-11-10:36:49.089294,3.0,9.0,333.0
2022-02-11-10:36:49.090292,3.0,9.0,333.0
2022-02-11-10:36:49.091289,3.0,9.0,333.0
2022-02-11-10:36:49.092286,4.0,3.0,333.0
2022-02-11-10:36:49.093284,10.0,4.0,332.0
2022-02-11-10:36:49.094281,10.0,4.0,332.0
2022-02-11-10:36:49.095278,10.0,4.0,332.0
2022-02-11-10:36:49.096276,10.0,4.0,332.0
2022-02-11-10:36:49.097273,19.0,8.0,333.0
2022-02-11-10:36:49.098271,21.0,6.0,333.0
2022-02-11-10:36:49.099268,21.0,6.0,333.0
2022-02-11-10:36:49.100265,21.0,6.0,333.0
2022-02-11-10:36:49.101262,8.0,4.0,332.0
2022-02-11-10:36:49.102260,12.0,12.0,333.0
2022-02-11-10:36:49.103257,12.0,12.0,333.0
2022-02-11-10:36:49.104255,12.0,12.0,333.0
2022-02-11-10:36:49.105252,2.0,8.0,333.0
2022-02-11-10:36:49.106249,2.0,8.0,333.0
2022-02-11-10:36:49.108244,2.0,8.0,333.0
2022-02-11-10:36:49.108244,4.0,5.0,333.0
2022-02-11-10:36:49.109241,4.0,5.0,333.0
2022-02-11-10:36:49.110238,5.0,4.0,333.0
2022-02-11-10:36:49.111236,5.0,4.0,333.0
2022-02-11-10:36:49.112233,5.0,4.0,333.0
2022-02-11-10:36:49.113231,7.0,1.0,333.0
2022-02-11-10:36:49.114228,23.0,9.0,333.0
2022-02-11-10:36:49.115225,23.0,9.0,333.0
2022-02-11-10:36:49.116222,23.0,9.0,333.0
2022-02-11-10:36:49.117220,9.0,3.0,333.0
2022-02-11-10:36:49.118217,8.0,9.0,333.0
2022-02-11-10:36:49.119214,8.0,9.0,333.0
2022-02-11-10:36:49.120212,8.0,9.0,333.0
2022-02-11-10:36:49.121209,1.0,9.0,334.0
2022-02-11-10:36:49.122206,1.0,9.0,334.0
2022-02-11-10:36:49.123204,1.0,9.0,334.0
2022-02-11-10:36:49.124201,1.0,9.0,334.0
2022-02-11-10:36:49.125198,5.0,7.0,333.0
2022-02-11-10:36:49.126196,10.0,5.0,333.0
2022-02-11-10:36:49.127194,10.0,5.0,333.0
2022-02-11-10:36:49.128190,10.0,5.0,333.0
2022-02-11-10:36:49.129188,8.0,5.0,333.0
2022-02-11-10:36:49.130186,23.0,10.0,333.0
2022-02-11-10:36:49.131183,23.0,10.0,333.0
2022-02-11-10:36:49.132180,23.0,10.0,333.0
2022-02-11-10:36:49.133177,0.0,1.0,332.0
2022-02-11-10:36:49.134174,0.0,1.0,332.0
2022-02-11-10:36:49.135172,0.0,1.0,332.0
2022-02-11-10:36:49.136169,0.0,1.0,332.0
2022-02-11-10:36:49.137166,0.0,1.0,332.0
2022-02-11-10:36:49.138164,1.0,10.0,333.0
2022-02-11-10:36:49.139161,1.0,10.0,333.0
2022-02-11-10:36:49.140158,1.0,10.0,333.0
2022-02-11-10:36:49.142154,1.0,10.0,333.0
2022-02-11-10:36:49.142154,10.0,4.0,333.0
2022-02-11-10:36:49.143151,10.0,4.0,333.0
2022-02-11-10:36:49.144148,10.0,4.0,333.0
2022-02-11-10:36:49.145145,10.0,4.0,333.0
2022-02-11-10:36:49.146143,7.0,4.0,333.0
2022-02-11-10:36:49.147140,25.0,7.0,333.0
2022-02-11-10:36:49.148137,25.0,7.0,333.0
2022-02-11-10:36:49.149134,25.0,7.0,333.0
2022-02-11-10:36:49.150132,11.0,1.0,334.0
2022-02-11-10:36:49.151129,5.0,0.0,333.0
2022-02-11-10:36:49.152126,5.0,0.0,333.0
2022-02-11-10:36:49.153124,5.0,0.0,333.0
2022-02-11-10:36:49.154121,7.0,14.0,333.0
2022-02-11-10:36:49.155118,7.0,14.0,333.0
2022-02-11-10:36:49.156116,7.0,14.0,333.0
2022-02-11-10:36:49.157113,7.0,14.0,333.0
2022-02-11-10:36:49.158110,3.0,6.0,333.0
2022-02-11-10:36:49.159108,5.0,7.0,333.0
2022-02-11-10:36:49.160105,5.0,7.0,333.0
2022-02-11-10:36:49.161102,5.0,7.0,333.0
2022-02-11-10:36:49.162100,7.0,4.0,333.0
2022-02-11-10:36:49.163097,21.0,1.0,333.0
2022-02-11-10:36:49.164095,21.0,1.0,333.0
2022-02-11-10:36:49.165092,21.0,1.0,333.0
2022-02-11-10:36:49.166089,18.0,5.0,333.0
2022-02-11-10:36:49.167086,2.0,2.0,333.0
2022-02-11-10:36:49.168084,2.0,2.0,333.0
2022-02-11-10:36:49.169081,2.0,2.0,333.0
2022-02-11-10:36:49.170078,2.0,2.0,333.0
2022-02-11-10:36:49.171076,8.0,11.0,333.0
2022-02-11-10:36:49.172073,8.0,11.0,333.0
2022-02-11-10:36:49.173070,8.0,11.0,333.0
2022-02-11-10:36:49.174068,4.0,4.0,333.0
2022-02-11-10:36:49.175065,6.0,7.0,333.0
2022-02-11-10:36:49.177060,6.0,7.0,333.0
2022-02-11-10:36:49.177060,6.0,7.0,333.0
2022-02-11-10:36:49.178057,6.0,7.0,333.0
2022-02-11-10:36:49.179054,6.0,2.0,333.0
2022-02-11-10:36:49.180052,17.0,0.0,333.0
2022-02-11-10:36:49.181049,17.0,0.0,333.0
2022-02-11-10:36:49.182046,17.0,0.0,333.0
2022-02-11-10:36:49.183044,24.0,7.0,333.0
2022-02-11-10:36:49.184041,1.0,3.0,333.0
2022-02-11-10:36:49.185038,1.0,3.0,333.0
2022-02-11-10:36:49.186036,1.0,3.0,333.0
2022-02-11-10:36:49.187033,11.0,19.0,333.0
2022-02-11-10:36:49.188030,2.0,13.0,334.0
2022-02-11-10:36:49.189028,2.0,13.0,334.0
2022-02-11-10:36:49.190025,2.0,13.0,334.0
2022-02-11-10:36:49.191023,10.0,2.0,333.0
2022-02-11-10:36:49.192020,10.0,2.0,333.0
2022-02-11-10:36:49.193017,10.0,2.0,333.0
2022-02-11-10:36:49.194014,10.0,2.0,333.0
2022-02-11-10:36:49.195012,13.0,4.0,333.0
2022-02-11-10:36:49.196009,26.0,8.0,334.0
2022-02-11-10:36:49.197006,26.0,8.0,334.0
2022-02-11-10:36:49.198004,26.0,8.0,334.0
2022-02-11-10:36:49.199001,11.0,4.0,333.0
2022-02-11-10:36:49.199998,2.0,4.0,333.0
2022-02-11-10:36:49.200996,2.0,4.0,333.0
2022-02-11-10:36:49.201993,2.0,4.0,333.0
2022-02-11-10:36:49.202990,16.0,17.0,333.0
2022-02-11-10:36:49.203988,5.0,8.0,333.0
2022-02-11-10:36:49.204986,5.0,8.0,333.0
2022-02-11-10:36:49.205982,5.0,8.0,333.0
2022-02-11-10:36:49.206980,5.0,8.0,333.0
2022-02-11-10:36:49.208974,3.0,2.0,333.0
2022-02-11-10:36:49.208974,6.0,5.0,333.0
2022-02-11-10:36:49.209972,6.0,5.0,333.0
2022-02-11-10:36:49.210970,23.0,2.0,333.0
2022-02-11-10:36:49.211966,23.0,2.0,333.0
2022-02-11-10:36:49.212965,23.0,2.0,333.0
2022-02-11-10:36:49.213961,23.0,2.0,333.0
2022-02-11-10:36:49.214958,23.0,2.0,333.0
2022-02-11-10:36:49.215956,12.0,7.0,332.0
2022-02-11-10:36:49.216953,5.0,0.0,333.0
2022-02-11-10:36:49.217951,5.0,0.0,333.0
2022-02-11-10:36:49.218948,5.0,0.0,333.0
2022-02-11-10:36:49.219945,18.0,12.0,333.0
2022-02-11-10:36:49.220943,6.0,11.0,333.0
2022-02-11-10:36:49.221940,6.0,11.0,333.0
2022-02-11-10:36:49.222937,6.0,11.0,333.0
2022-02-11-10:36:49.223934,4.0,8.0,333.0
2022-02-11-10:36:49.224932,5.0,5.0,333.0
2022-02-11-10:36:49.225929,5.0,5.0,333.0
2022-02-11-10:36:49.226926,5.0,5.0,333.0
2022-02-11-10:36:49.227924,5.0,3.0,333.0
2022-02-11-10:36:49.228921,19.0,5.0,333.0
2022-02-11-10:36:49.229919,19.0,5.0,333.0
2022-02-11-10:36:49.230916,19.0,5.0,333.0
2022-02-11-10:36:49.231913,21.0,10.0,333.0
2022-02-11-10:36:49.232910,11.0,3.0,333.0
2022-02-11-10:36:49.233908,11.0,3.0,333.0
2022-02-11-10:36:49.234905,11.0,3.0,333.0
2022-02-11-10:36:49.235902,19.0,13.0,333.0
2022-02-11-10:36:49.236900,11.0,14.0,333.0
2022-02-11-10:36:49.237897,11.0,14.0,333.0
2022-02-11-10:36:49.238894,11.0,14.0,333.0
2022-02-11-10:36:49.239892,1.0,7.0,333.0
2022-02-11-10:36:49.240889,5.0,6.0,333.0
2022-02-11-10:36:49.241888,5.0,6.0,333.0
2022-02-11-10:36:49.243881,5.0,6.0,333.0
2022-02-11-10:36:49.243881,8.0,1.0,333.0
2022-02-11-10:36:49.244878,12.0,1.0,333.0
2022-02-11-10:36:49.245876,12.0,1.0,333.0
2022-02-11-10:36:49.246873,12.0,1.0,333.0
2022-02-11-10:36:49.247870,27.0,11.0,333.0
2022-02-11-10:36:49.248868,11.0,4.0,333.0
2022-02-11-10:36:49.249865,11.0,4.0,333.0
2022-02-11-10:36:49.250862,11.0,4.0,333.0
2022-02-11-10:36:49.251860,11.0,4.0,333.0
2022-02-11-10:36:49.252857,15.0,18.0,333.0
2022-02-11-10:36:49.253854,15.0,18.0,333.0
2022-02-11-10:36:49.254852,15.0,18.0,333.0
2022-02-11-10:36:49.255849,15.0,18.0,333.0
2022-02-11-10:36:49.256847,3.0,8.0,333.0
2022-02-11-10:36:49.257844,5.0,7.0,333.0
2022-02-11-10:36:49.258841,5.0,7.0,333.0
2022-02-11-10:36:49.259839,5.0,7.0,333.0
2022-02-11-10:36:49.260836,7.0,4.0,333.0
2022-02-11-10:36:49.261833,7.0,4.0,333.0
2022-02-11-10:36:49.262831,7.0,4.0,333.0
2022-02-11-10:36:49.263828,7.0,4.0,333.0
2022-02-11-10:36:49.264825,23.0,7.0,333.0
2022-02-11-10:36:49.265823,13.0,3.0,333.0
2022-02-11-10:36:49.266819,13.0,3.0,333.0
2022-02-11-10:36:49.267817,13.0,3.0,333.0
2022-02-11-10:36:49.268814,13.0,3.0,333.0
2022-02-11-10:36:49.269813,12.0,12.0,333.0
2022-02-11-10:36:49.270809,17.0,19.0,333.0
2022-02-11-10:36:49.271806,17.0,19.0,333.0
2022-02-11-10:36:49.272804,3.0,7.0,333.0
2022-02-11-10:36:49.273801,8.0,7.0,333.0
2022-02-11-10:36:49.274799,8.0,7.0,333.0
2022-02-11-10:36:49.275795,8.0,7.0,333.0
2022-02-11-10:36:49.277790,10.0,4.0,333.0
2022-02-11-10:36:49.277790,9.0,2.0,333.0
2022-02-11-10:36:49.278788,9.0,2.0,333.0
2022-02-11-10:36:49.279785,9.0,2.0,333.0
2022-02-11-10:36:49.280782,25.0,9.0,333.0
2022-02-11-10:36:49.281780,14.0,7.0,333.0
2022-02-11-10:36:49.282777,14.0,7.0,333.0
2022-02-11-10:36:49.283774,14.0,7.0,333.0
2022-02-11-10:36:49.284772,17.0,12.0,333.0
2022-02-11-10:36:49.285769,21.0,15.0,333.0
2022-02-11-10:36:49.286776,21.0,15.0,333.0
2022-02-11-10:36:49.287764,21.0,15.0,333.0
2022-02-11-10:36:49.288761,21.0,15.0,333.0
2022-02-11-10:36:49.289758,7.0,2.0,333.0
2022-02-11-10:36:49.290756,7.0,2.0,333.0
2022-02-11-10:36:49.291754,7.0,2.0,333.0
2022-02-11-10:36:49.292751,5.0,5.0,333.0
2022-02-11-10:36:49.293746,11.0,3.0,333.0
2022-02-11-10:36:49.294745,11.0,3.0,333.0
2022-02-11-10:36:49.295742,11.0,3.0,333.0
2022-02-11-10:36:49.296740,11.0,3.0,333.0
2022-02-11-10:36:49.297737,26.0,4.0,332.0
2022-02-11-10:36:49.298735,17.0,9.0,333.0
2022-02-11-10:36:49.299732,17.0,9.0,333.0
2022-02-11-10:36:49.300729,17.0,9.0,333.0
2022-02-11-10:36:49.301727,7.0,13.0,333.0
2022-02-11-10:36:49.302724,15.0,15.0,333.0
2022-02-11-10:36:49.303721,15.0,15.0,333.0
2022-02-11-10:36:49.304718,15.0,15.0,333.0
2022-02-11-10:36:49.305716,0.0,11.0,333.0
2022-02-11-10:36:49.306713,5.0,9.0,333.0
2022-02-11-10:36:49.307710,5.0,9.0,333.0
2022-02-11-10:36:49.308708,5.0,9.0,333.0
2022-02-11-10:36:49.310702,8.0,4.0,333.0
2022-02-11-10:36:49.310702,8.0,4.0,333.0
2022-02-11-10:36:49.311700,8.0,4.0,333.0
2022-02-11-10:36:49.312697,8.0,4.0,333.0
2022-02-11-10:36:49.313694,10.0,2.0,333.0
2022-02-11-10:36:49.314692,23.0,7.0,333.0
2022-02-11-10:36:49.315690,23.0,7.0,333.0
2022-02-11-10:36:49.316686,23.0,7.0,333.0
2022-02-11-10:36:49.317684,0.0,5.0,333.0
2022-02-11-10:36:49.318681,12.0,12.0,333.0
2022-02-11-10:36:49.319679,12.0,12.0,333.0
2022-02-11-10:36:49.320676,12.0,12.0,333.0
2022-02-11-10:36:49.321673,1.0,8.0,332.0
2022-02-11-10:36:49.322670,0.0,9.0,333.0
2022-02-11-10:36:49.323668,0.0,9.0,333.0
2022-02-11-10:36:49.324665,0.0,9.0,333.0
2022-02-11-10:36:49.325662,9.0,5.0,333.0
2022-02-11-10:36:49.326660,7.0,6.0,333.0
2022-02-11-10:36:49.327657,7.0,6.0,333.0
2022-02-11-10:36:49.328654,7.0,6.0,333.0
2022-02-11-10:36:49.329652,8.0,2.0,333.0
2022-02-11-10:36:49.330650,28.0,7.0,333.0
2022-02-11-10:36:49.331646,28.0,7.0,333.0
2022-02-11-10:36:49.332644,28.0,7.0,333.0
2022-02-11-10:36:49.333641,28.0,7.0,333.0
2022-02-11-10:36:49.334638,4.0,5.0,333.0
2022-02-11-10:36:49.335636,17.0,13.0,333.0
2022-02-11-10:36:49.336633,17.0,13.0,333.0
2022-02-11-10:36:49.337631,17.0,13.0,333.0
2022-02-11-10:36:49.338628,5.0,15.0,333.0
2022-02-11-10:36:49.339625,2.0,10.0,333.0
2022-02-11-10:36:49.340622,2.0,10.0,333.0
2022-02-11-10:36:49.341620,2.0,10.0,333.0
2022-02-11-10:36:49.342617,8.0,4.0,333.0
2022-02-11-10:36:49.343614,3.0,1.0,333.0
2022-02-11-10:36:49.345609,3.0,1.0,333.0
2022-02-11-10:36:49.345609,13.0,1.0,333.0
2022-02-11-10:36:49.346607,29.0,10.0,333.0
2022-02-11-10:36:49.347604,29.0,10.0,333.0
2022-02-11-10:36:49.348602,29.0,10.0,333.0
2022-02-11-10:36:49.349598,29.0,10.0,333.0
2022-02-11-10:36:49.350596,3.0,1.0,332.0
2022-02-11-10:36:49.351593,6.0,3.0,333.0
2022-02-11-10:36:49.352590,6.0,3.0,333.0
2022-02-11-10:36:49.353588,6.0,3.0,333.0
2022-02-11-10:36:49.354585,7.0,13.0,333.0
2022-02-11-10:36:49.355582,1.0,10.0,333.0
2022-02-11-10:36:49.356580,1.0,10.0,333.0
2022-02-11-10:36:49.357577,1.0,10.0,333.0
2022-02-11-10:36:49.358574,5.0,1.0,333.0
2022-02-11-10:36:49.359572,7.0,3.0,333.0
2022-02-11-10:36:49.360569,7.0,3.0,333.0
2022-02-11-10:36:49.361566,7.0,3.0,333.0
2022-02-11-10:36:49.362564,10.0,1.0,333.0
2022-02-11-10:36:49.363561,23.0,8.0,333.0
2022-02-11-10:36:49.364559,23.0,8.0,333.0
2022-02-11-10:36:49.365556,23.0,8.0,333.0
2022-02-11-10:36:49.366553,23.0,8.0,333.0
2022-02-11-10:36:49.367551,3.0,3.0,333.0
2022-02-11-10:36:49.368548,3.0,3.0,333.0
2022-02-11-10:36:49.369546,3.0,3.0,333.0
2022-02-11-10:36:49.370543,3.0,3.0,333.0
2022-02-11-10:36:49.371540,8.0,15.0,333.0
2022-02-11-10:36:49.372537,2.0,9.0,333.0
2022-02-11-10:36:49.373534,2.0,9.0,333.0
2022-02-11-10:36:49.374532,2.0,9.0,333.0
2022-02-11-10:36:49.375529,10.0,7.0,333.0
2022-02-11-10:36:49.376527,6.0,4.0,333.0
2022-02-11-10:36:49.377524,6.0,4.0,333.0
2022-02-11-10:36:49.378521,6.0,4.0,333.0
2022-02-11-10:36:49.380516,6.0,4.0,333.0
2022-02-11-10:36:49.380516,24.0,8.0,333.0
2022-02-11-10:36:49.381513,24.0,8.0,333.0
2022-02-11-10:36:49.382510,24.0,8.0,333.0
2022-02-11-10:36:49.383508,10.0,2.0,333.0
2022-02-11-10:36:49.384505,3.0,1.0,333.0
2022-02-11-10:36:49.385502,3.0,1.0,333.0
2022-02-11-10:36:49.386500,3.0,1.0,333.0
2022-02-11-10:36:49.387498,22.0,14.0,333.0
2022-02-11-10:36:49.388496,3.0,9.0,333.0
2022-02-11-10:36:49.389492,3.0,9.0,333.0
2022-02-11-10:36:49.390491,3.0,9.0,333.0
2022-02-11-10:36:49.391487,3.0,6.0,333.0
2022-02-11-10:36:49.392484,7.0,6.0,333.0
2022-02-11-10:36:49.393481,7.0,6.0,333.0
2022-02-11-10:36:49.394478,7.0,6.0,333.0
2022-02-11-10:36:49.395476,7.0,6.0,333.0
2022-02-11-10:36:49.396473,23.0,3.0,333.0
2022-02-11-10:36:49.397471,23.0,3.0,333.0
2022-02-11-10:36:49.398468,23.0,3.0,333.0
2022-02-11-10:36:49.399466,10.0,0.0,333.0
2022-02-11-10:36:49.400462,3.0,1.0,333.0
2022-02-11-10:36:49.401460,3.0,1.0,333.0
2022-02-11-10:36:49.402457,3.0,1.0,333.0
2022-02-11-10:36:49.403455,3.0,1.0,333.0
2022-02-11-10:36:49.404452,6.0,14.0,333.0
2022-02-11-10:36:49.405449,6.0,14.0,333.0
2022-02-11-10:36:49.406446,6.0,14.0,333.0
2022-02-11-10:36:49.407444,6.0,14.0,333.0
2022-02-11-10:36:49.408441,6.0,7.0,333.0
2022-02-11-10:36:49.409438,7.0,2.0,333.0
2022-02-11-10:36:49.410436,7.0,2.0,333.0
2022-02-11-10:36:49.411433,7.0,2.0,333.0
2022-02-11-10:36:49.412430,23.0,3.0,333.0
2022-02-11-10:36:49.414425,28.0,6.0,333.0
2022-02-11-10:36:49.414425,28.0,6.0,333.0
2022-02-11-10:36:49.415422,28.0,6.0,333.0
2022-02-11-10:36:49.416420,3.0,0.0,333.0
2022-02-11-10:36:49.417417,2.0,1.0,333.0
2022-02-11-10:36:49.418415,2.0,1.0,333.0
2022-02-11-10:36:49.419412,2.0,1.0,333.0
2022-02-11-10:36:49.420409,2.0,1.0,333.0
2022-02-11-10:36:49.421406,5.0,12.0,333.0
2022-02-11-10:36:49.422404,5.0,12.0,333.0
2022-02-11-10:36:49.423401,5.0,12.0,333.0
2022-02-11-10:36:49.424399,8.0,4.0,333.0
2022-02-11-10:36:49.425396,5.0,3.0,333.0
2022-02-11-10:36:49.426394,5.0,3.0,333.0
2022-02-11-10:36:49.427390,5.0,3.0,333.0
2022-02-11-10:36:49.428388,23.0,6.0,333.0
2022-02-11-10:36:49.429385,23.0,6.0,333.0
2022-02-11-10:36:49.430383,23.0,6.0,333.0
2022-02-11-10:36:49.431380,23.0,6.0,333.0
2022-02-11-10:36:49.432377,10.0,5.0,333.0
2022-02-11-10:36:49.433374,2.0,4.0,333.0
2022-02-11-10:36:49.434373,2.0,4.0,333.0
2022-02-11-10:36:49.435369,2.0,4.0,333.0
2022-02-11-10:36:49.436367,16.0,15.0,333.0
2022-02-11-10:36:49.437364,3.0,9.0,333.0
2022-02-11-10:36:49.438361,3.0,9.0,333.0
2022-02-11-10:36:49.439358,3.0,9.0,333.0
2022-02-11-10:36:49.440356,5.0,4.0,333.0
2022-02-11-10:36:49.441354,9.0,2.0,333.0
2022-02-11-10:36:49.442350,9.0,2.0,333.0
2022-02-11-10:36:49.443348,9.0,2.0,333.0
2022-02-11-10:36:49.444345,9.0,2.0,333.0
2022-02-11-10:36:49.446340,21.0,2.0,333.0
2022-02-11-10:36:49.446340,21.0,2.0,333.0
2022-02-11-10:36:49.447337,21.0,2.0,333.0
2022-02-11-10:36:49.448334,21.0,2.0,333.0
2022-02-11-10:36:49.449332,19.0,7.0,333.0
2022-02-11-10:36:49.450329,0.0,1.0,333.0
2022-02-11-10:36:49.451326,0.0,1.0,333.0
2022-02-11-10:36:49.452324,0.0,1.0,333.0
2022-02-11-10:36:49.453322,15.0,14.0,333.0
2022-02-11-10:36:49.454318,7.0,13.0,333.0
2022-02-11-10:36:49.455316,7.0,13.0,333.0
2022-02-11-10:36:49.456313,7.0,13.0,333.0
2022-02-11-10:36:49.457311,6.0,4.0,333.0
2022-02-11-10:36:49.458308,10.0,3.0,333.0
2022-02-11-10:36:49.459306,10.0,3.0,333.0
2022-02-11-10:36:49.460302,10.0,3.0,333.0
2022-02-11-10:36:49.461300,7.0,2.0,333.0
2022-02-11-10:36:49.462297,21.0,4.0,333.0
2022-02-11-10:36:49.463295,21.0,4.0,333.0
2022-02-11-10:36:49.464292,21.0,4.0,333.0
2022-02-11-10:36:49.465289,22.0,13.0,334.0
2022-02-11-10:36:49.466286,9.0,1.0,333.0
2022-02-11-10:36:49.467284,9.0,1.0,333.0
2022-02-11-10:36:49.468282,9.0,1.0,333.0
2022-02-11-10:36:49.469279,19.0,16.0,333.0
2022-02-11-10:36:49.470276,12.0,15.0,333.0
2022-02-11-10:36:49.471273,12.0,15.0,333.0
2022-02-11-10:36:49.472270,12.0,15.0,333.0
2022-02-11-10:36:49.473268,5.0,7.0,334.0
2022-02-11-10:36:49.474265,5.0,2.0,333.0
2022-02-11-10:36:49.475262,5.0,2.0,333.0
2022-02-11-10:36:49.476260,5.0,2.0,333.0
2022-02-11-10:36:49.477258,16.0,1.0,333.0
2022-02-11-10:36:49.478254,16.0,1.0,333.0
2022-02-11-10:36:49.479252,16.0,1.0,333.0
2022-02-11-10:36:49.481246,16.0,1.0,333.0
2022-02-11-10:36:49.481246,9.0,4.0,333.0
2022-02-11-10:36:49.482244,9.0,4.0,333.0
2022-02-11-10:36:49.483242,9.0,4.0,333.0
2022-02-11-10:36:49.484238,9.0,4.0,333.0
2022-02-11-10:36:49.485236,9.0,4.0,333.0
2022-02-11-10:36:49.486233,18.0,13.0,333.0
2022-02-11-10:36:49.487230,13.0,14.0,333.0
2022-02-11-10:36:49.488228,13.0,14.0,333.0
2022-02-11-10:36:49.489225,13.0,14.0,333.0
2022-02-11-10:36:49.490222,2.0,9.0,333.0
2022-02-11-10:36:49.491220,5.0,8.0,333.0
2022-02-11-10:36:49.492217,5.0,8.0,333.0
2022-02-11-10:36:49.493214,5.0,8.0,333.0
2022-02-11-10:36:49.494212,8.0,5.0,332.0
2022-02-11-10:36:49.495209,6.0,4.0,333.0
2022-02-11-10:36:49.496207,6.0,4.0,333.0
2022-02-11-10:36:49.497204,6.0,4.0,333.0
2022-02-11-10:36:49.498201,6.0,4.0,333.0
2022-02-11-10:36:49.499198,12.0,5.0,333.0
2022-02-11-10:36:49.500196,12.0,5.0,333.0
2022-02-11-10:36:49.501194,12.0,5.0,333.0
2022-02-11-10:36:49.502190,5.0,4.0,333.0
2022-02-11-10:36:49.503188,20.0,13.0,333.0
2022-02-11-10:36:49.504185,20.0,13.0,333.0
2022-02-11-10:36:49.505182,20.0,13.0,333.0
2022-02-11-10:36:49.506180,5.0,6.0,333.0
2022-02-11-10:36:49.507178,7.0,3.0,332.0
2022-02-11-10:36:49.508175,7.0,3.0,332.0
2022-02-11-10:36:49.509172,7.0,3.0,332.0
2022-02-11-10:36:49.510169,10.0,2.0,333.0
2022-02-11-10:36:49.511166,8.0,1.0,333.0
2022-02-11-10:36:49.512164,8.0,1.0,333.0
2022-02-11-10:36:49.513161,8.0,1.0,333.0
2022-02-11-10:36:49.515156,13.0,5.0,333.0
2022-02-11-10:36:49.515156,13.0,5.0,333.0
2022-02-11-10:36:49.516153,13.0,5.0,333.0
2022-02-11-10:36:49.517150,13.0,5.0,333.0
2022-02-11-10:36:49.518148,15.0,11.0,333.0
2022-02-11-10:36:49.519145,17.0,16.0,333.0
2022-02-11-10:36:49.520142,17.0,16.0,333.0
2022-02-11-10:36:49.521140,17.0,16.0,333.0
2022-02-11-10:36:49.522137,17.0,16.0,333.0
2022-02-11-10:36:49.523135,2.0,12.0,333.0
2022-02-11-10:36:49.524132,2.0,5.0,333.0
2022-02-11-10:36:49.525129,2.0,5.0,333.0
2022-02-11-10:36:49.526126,2.0,5.0,333.0
2022-02-11-10:36:49.527124,12.0,3.0,333.0
2022-02-11-10:36:49.528122,8.0,6.0,333.0
2022-02-11-10:36:49.529118,8.0,6.0,333.0
2022-02-11-10:36:49.530117,8.0,6.0,333.0
2022-02-11-10:36:49.531113,27.0,3.0,333.0
2022-02-11-10:36:49.532110,16.0,5.0,333.0
2022-02-11-10:36:49.533108,16.0,5.0,333.0
2022-02-11-10:36:49.534105,16.0,5.0,333.0
2022-02-11-10:36:49.535103,13.0,8.0,333.0
2022-02-11-10:36:49.536100,19.0,16.0,334.0
2022-02-11-10:36:49.537097,19.0,16.0,334.0
2022-02-11-10:36:49.538094,19.0,16.0,334.0
2022-02-11-10:36:49.539092,4.0,12.0,333.0
2022-02-11-10:36:49.540089,5.0,7.0,333.0
2022-02-11-10:36:49.541086,5.0,7.0,333.0
