# 
# 
# 
# 
# 
# 
# 
# 
# 
# 
# time,realtime,ref,inp,inp0,inp1,dis,state...
0.000000000000000000e+00,1.643763344256339788e+09,0.000000000000000000e+00,0.000000000000000000e+00,0.000000000000000000e+00,3.237022367915554644e-01,0.000000000000000000e+00,0.000000000000000000e+00,0.000000000000000000e+00
1.666666666666666644e-02,1.643763344260329485e+09,2.377284464025823980e-06,0.000000000000000000e+00,0.000000000000000000e+00,2.916525103765505444e-01,0.000000000000000000e+00,0.000000000000000000e+00,0.000000000000000000e+00
3.333333333333333287e-02,1.643763344263321161e+09,9.516305047969580871e-06,0.000000000000000000e+00,0.000000000000000000e+00,3.237022367915554644e-01,-8.347250038429656963e-07,-1.152926340345217547e-10,-1.379679076334823806e-08
5.000000000000000278e-02,1.643763344281273127e+09,2.140309853202594068e-05,0.000000000000000000e+00,0.000000000000000000e+00,3.237022367915554644e-01,-1.082394340486561700e-05,-1.838341991048554675e-09,-1.924727981540944978e-07
6.666666666666666574e-02,1.643763344300223589e+09,3.799281763195493051e-05,0.000000000000000000e+00,0.000000000000000000e+00,3.237022367915554644e-01,-4.127848708286445975e-05,-1.072104275402523795e-08,-8.715648821055254076e-07
8.333333333333332871e-02,1.643763344317177057e+09,5.921323101464255926e-05,0.000000000000000000e+00,0.000000000000000000e+00,3.237022367915554644e-01,-1.034208623935332493e-04,-3.941128426387441964e-08,-2.566555680487897198e-06
1.000000000000000056e-01,1.643763344336128712e+09,8.496927865313995626e-05,0.000000000000000000e+00,0.000000000000000000e+00,3.237022367915554644e-01,-2.081343707874156194e-04,-1.105803414669929222e-07,-5.964292803075038705e-06
1.166666666666666685e-01,1.643763344351087570e+09,1.151486126146100984e-04,0.000000000000000000e+00,0.000000000000000000e+00,3.237022367915554644e-01,-3.657134837179209564e-04,-2.596739592718851980e-07,-1.191042391390216141e-05
1.333333333333333315e-01,1.643763344370036125e+09,1.496280312915037149e-04,0.000000000000000000e+00,0.000000000000000000e+00,3.237022367915554644e-01,-5.856193118176892956e-04,-5.374219823650674355e-07,-2.139299775443713347e-05
1.499999999999999944e-01,1.643763344386990309e+09,1.882806942371387845e-04,0.000000000000000000e+00,0.000000000000000000e+00,2.916525103765505444e-01,-8.762439686061784111e-04,-1.012044387579071302e-06,-3.552244149265943709e-05
1.666666666666666574e-01,1.643763344400988817e+09,2.309839855130140038e-04,0.000000000000000000e+00,0.000000000000000000e+00,2.916525103765505444e-01,-1.244687539295105932e-03,-1.771095565770421123e-06,-5.550818263605318353e-05
1.833333333333333204e-01,1.643763344419938803e+09,2.776278761367724154e-04,-6.091604049729439918e-01,-6.091604049729439918e-01,3.237022367915554644e-01,-1.696551226472933858e-03,-8.706043271544318559e-05,-1.015116811547666156e-02
2.000000000000000111e-01,1.643763344434896231e+09,3.281236211504203674e-04,-6.422369255567433877e-01,-6.422369255567433877e-01,3.237022367915554644e-01,-2.235750058053098243e-03,-3.438593710973531664e-04,-2.063558043734136163e-02
2.166666666666666741e-01,1.643763344454842091e+09,3.824126142906797356e-04,-5.672634789001326228e-01,-5.672634789001326228e-01,3.237022367915554644e-01,-2.864348310913750108e-03,-7.636818550248954986e-04,-2.971788840693125738e-02
2.333333333333333370e-01,1.643763344471763849e+09,4.404752134840097806e-04,-6.422369255567433877e-01,-6.422369255567433877e-01,3.237022367915554644e-01,-3.582420528740477839e-03,-1.344076235891857735e-03,-3.990114979415569640e-02
2.500000000000000000e-01,1.643763344488718748e+09,5.023393436151332844e-04,0.000000000000000000e+00,0.000000000000000000e+00,3.237022367915554644e-01,-4.387940697831466987e-03,-2.004190296967332981e-03,-3.931416807804408164e-02
2.666666666666666630e-01,1.643763344505699635e+09,5.680886793941054402e-04,-5.562379720388661575e-01,-5.562379720388661575e-01,3.237022367915554644e-01,-5.276701793649453409e-03,-2.731553026019218310e-03,-4.794538324620079006e-02
2.833333333333333259e-01,1.643763344521631002e+09,6.378702107915561019e-04,-6.466471283012498183e-01,-6.466471283012498183e-01,3.237022367915554644e-01,-6.242267527768350852e-03,-3.614197915656806002e-03,-5.794422828704683809e-02
2.999999999999999889e-01,1.643763344537620783e+09,7.119009964952355144e-04,-5.804940871336519148e-01,-5.804940871336519148e-01,3.237022367915554644e-01,-7.275957714031403879e-03,-4.653114859925428469e-03,-6.670147875690626837e-02
3.166666666666666519e-01,1.643763344556537390e+09,7.904739171843916737e-04,-6.929542571185676181e-01,-6.929542571185676181e-01,3.237022367915554644e-01,-8.366868239034312704e-03,-5.852460154785943044e-03,-7.719081888467245467e-02
3.333333333333333148e-01,1.643763344574489594e+09,8.739622500924453885e-04,-6.179808104619568532e-01,-6.179808104619568532e-01,2.916525103765505444e-01,-9.501926170595779639e-03,-7.214980397122969236e-03,-8.628634425287796950e-02
3.499999999999999778e-01,1.643763344591444016e+09,9.628228992530398758e-04,-6.642879392792755411e-01,-6.642879392792755411e-01,3.237022367915554644e-01,-1.066598007404894431e-02,-8.734393193871972313e-03,-9.601616344535103542e-02
3.666666666666666408e-01,1.643763344605406523e+09,1.057598131870007407e-03,0.000000000000000000e+00,0.000000000000000000e+00,2.916525103765505444e-01,-1.184192513553558590e-02,-1.032303639683195169e-02,-9.462488566131664613e-02
3.833333333333333037e-01,1.643763344625353098e+09,1.158915690239555561e-03,-6.929542571185676181e-01,-6.929542571185676181e-01,2.916525103765505444e-01,-1.301086221968922145e-02,-1.198455644263718770e-02,-1.047294509378156879e-01
4.000000000000000222e-01,1.643763344641310692e+09,1.267487170357848138e-03,-7.524919941694062642e-01,-7.524919941694062642e-01,3.237022367915554644e-01,-1.415228952189034536e-02,-1.382147129857712667e-02,-1.156699408100640286e-01
4.166666666666666852e-01,1.643763344658265114e+09,1.384104582499591030e-03,-6.951593584908212220e-01,-6.951593584908212220e-01,2.916525103765505444e-01,-1.524432501839918103e-02,-1.583144856670814019e-02,-1.255000249337533680e-01
4.333333333333333481e-01,1.643763344678212166e+09,1.509635035343166167e-03,-6.775185475127956103e-01,-6.775185475127956103e-01,3.237022367915554644e-01,-1.626395747677829989e-02,-1.800160710863926011e-02,-1.348929081416484765e-01
4.500000000000000111e-01,1.643763344696164370e+09,1.645013513297779572e-03,-7.657226024029255562e-01,-7.657226024029255562e-01,3.237022367915554644e-01,-1.718732336963461546e-02,-2.033932667815040868e-02,-1.456036873350133320e-01
4.666666666666666741e-01,1.643763344711125612e+09,1.791233746178319368e-03,-6.929542571185676181e-01,-6.929542571185676181e-01,3.237022367915554644e-01,-1.799000664216154205e-02,-2.284413992290521347e-02,-1.549479451529373608e-01
4.833333333333333370e-01,1.643763344729076147e+09,1.949337200866482073e-03,-6.400318241844897837e-01,-6.400318241844897837e-01,2.916525103765505444e-01,-1.864735792331163530e-02,-2.549618128524975061e-02,-1.632738901590561897e-01
5.000000000000000000e-01,1.643763344746030807e+09,2.120400255662392448e-03,-5.915195939949182691e-01,-5.915195939949182691e-01,3.237022367915554644e-01,-1.913482944641902925e-02,-2.827920521038763263e-02,-1.706684399579405931e-01
5.166666666666666075e-01,1.643763344761023521e+09,2.305519649222842384e-03,0.000000000000000000e+00,0.000000000000000000e+00,2.916525103765505444e-01,-1.942832166208547859e-02,-3.110278984908315669e-02,-1.681686606802798301e-01
5.333333333333333259e-01,1.643763344778942823e+09,2.505796326843423225e-03,0.000000000000000000e+00,0.000000000000000000e+00,3.237022367915554644e-01,-1.950453728807650597e-02,-3.388506729751910446e-02,-1.657114588533118160e-01
5.500000000000000444e-01,1.643763344795897484e+09,2.722317836910646827e-03,0.000000000000000000e+00,0.000000000000000000e+00,3.237022367915554644e-01,-1.934133835130452672e-02,-3.662670823099609119e-02,-1.632921735590232293e-01
5.666666666666666519e-01,1.643763344812852383e+09,2.956139459167282744e-03,0.000000000000000000e+00,0.000000000000000000e+00,3.237022367915554644e-01,-1.891810163863602914e-02,-3.932830343812766805e-02,-1.609058800458689209e-01
5.833333333333333703e-01,1.643763344831801414e+09,3.208264273548615351e-03,0.000000000000000000e+00,0.000000000000000000e+00,3.237022367915554644e-01,-1.821606788862787166e-02,-4.199035971750555291e-02,-1.585474248979681644e-01
5.999999999999999778e-01,1.643763344846761227e+09,3.479622403322721064e-03,0.000000000000000000e+00,0.000000000000000000e+00,3.237022367915554644e-01,-1.721868002715684284e-02,-4.461329640237782918e-02,-1.562114662135485055e-01
6.166666666666666963e-01,1.643763344863716125e+09,3.771049688689681947e-03,0.000000000000000000e+00,0.000000000000000000e+00,2.916525103765505444e-01,-1.591190577742389659e-02,-4.719744259397742892e-02,-1.538925184515726463e-01
6.333333333333333037e-01,1.643763344879673481e+09,4.083266066474220551e-03,0.000000000000000000e+00,0.000000000000000000e+00,3.237022367915554644e-01,-1.428454005952027941e-02,-4.974303517786776707e-02,-1.515850015353409908e-01
6.500000000000000222e-01,1.643763344897625685e+09,4.416853947729477460e-03,0.000000000000000000e+00,0.000000000000000000e+00,3.237022367915554644e-01,-1.232848273651857181e-02,-5.225021769026196722e-02,-1.492832937352220890e-01
6.666666666666666297e-01,1.643763344913583040e+09,4.772236897639437619e-03,0.000000000000000000e+00,0.000000000000000000e+00,2.916525103765505444e-01,-1.003898746212263625e-02,-5.471904009278766301e-02,-1.469817877903984438e-01
6.833333333333333481e-01,1.643763344933530807e+09,5.149658930791065417e-03,0.000000000000000000e+00,0.000000000000000000e+00,3.237022367915554644e-01,-7.414877637852966032e-03,-5.714945950469083047e-02,-1.446749496724595019e-01
6.999999999999999556e-01,1.643763344949487209e+09,5.549164739459197526e-03,0.000000000000000000e+00,0.000000000000000000e+00,2.916525103765505444e-01,-4.458725793481652967e-03,-5.954134193109246465e-02,-1.423573793426158862e-01
7.166666666666666741e-01,1.643763344966441631e+09,5.970581172834025716e-03,-5.606481747833725882e-01,-5.606481747833725882e-01,3.237022367915554644e-01,-1.176993060270812956e-03,-6.197190202038616730e-02,-1.492905720507162470e-01
7.333333333333332815e-01,1.643763344983396769e+09,6.413500281004320437e-03,0.000000000000000000e+00,0.000000000000000000e+00,2.916525103765505444e-01,2.419874190802577540e-03,-6.443912389869742297e-02,-1.467830189358916293e-01
7.500000000000000000e-01,1.643763345000350714e+09,6.877264228928323467e-03,-6.047502022284375611e-01,-6.047502022284375611e-01,2.916525103765505444e-01,6.317393028109798483e-03,-6.694788964202050274e-02,-1.542481333459073400e-01
7.666666666666666075e-01,1.643763345018302679e+09,7.360952372576998366e-03,-5.584430734111189842e-01,-5.584430734111189842e-01,3.237022367915554644e-01,1.049703995396792863e-02,-6.957306961485956731e-02,-1.607553872640208048e-01
7.833333333333333259e-01,1.643763345034260273e+09,7.863370771980165291e-03,0.000000000000000000e+00,0.000000000000000000e+00,3.237022367915554644e-01,1.493629569541878206e-02,-7.222805944634447251e-02,-1.578514591709455905e-01
8.000000000000000444e-01,1.643763345052212477e+09,8.383044394165022756e-03,0.000000000000000000e+00,0.000000000000000000e+00,3.237022367915554644e-01,1.960873972604202167e-02,-7.483440620797437992e-02,-1.549183000805482990e-01
8.166666666666666519e-01,1.643763345068169832e+09,8.918212233128421096e-03,0.000000000000000000e+00,0.000000000000000000e+00,3.237022367915554644e-01,2.448419488542648292e-02,-7.739159871386214196e-02,-1.519530376599034227e-01
8.333333333333333703e-01,1.643763345084126949e+09,9.466825544268777509e-03,0.000000000000000000e+00,0.000000000000000000e+00,3.237022367915554644e-01,2.952892187836788154e-02,-7.989908296272149602e-02,-1.489534047130712524e-01
8.499999999999999778e-01,1.643763345102079153e+09,1.002654935741648101e-02,0.000000000000000000e+00,0.000000000000000000e+00,3.237022367915554644e-01,3.470586284135650235e-02,-8.235627259826404367e-02,-1.459177840301727480e-01
8.666666666666666963e-01,1.643763345118036747e+09,1.059476739609367842e-02,0.000000000000000000e+00,0.000000000000000000e+00,3.237022367915554644e-01,3.997493256605275103e-02,-8.476256007066221287e-02,-1.428452476816736982e-01
8.833333333333333037e-01,1.643763345137984037e+09,1.116859049130546587e-02,0.000000000000000000e+00,0.000000000000000000e+00,3.237022367915554644e-01,4.529335537494907221e-02,-8.711732840096018948e-02,-1.397355900951265661e-01
9.000000000000000222e-01,1.643763345153941631e+09,1.174486853646275301e-02,0.000000000000000000e+00,0.000000000000000000e+00,2.916525103765505444e-01,5.061604506008114679e-02,-8.941996343971801708e-02,-1.365893543053673942e-01
9.166666666666666297e-01,1.643763345173887491e+09,1.232020598644859716e-02,0.000000000000000000e+00,0.000000000000000000e+00,3.237022367915554644e-01,5.589602472826724067e-02,-9.166986650154401728e-02,-1.334078508314036071e-01
9.333333333333333481e-01,1.643763345185855150e+09,1.289098085889005089e-02,0.000000000000000000e+00,0.000000000000000000e+00,2.916525103765505444e-01,6.108488285263433126e-02,-9.386646724864469715e-02,-1.301931687034256768e-01
9.499999999999999556e-01,1.643763345203811884e+09,1.345336714993698550e-02,0.000000000000000000e+00,0.000000000000000000e+00,2.916525103765505444e-01,6.613326131669615415e-02,-9.600923668922617393e-02,-1.269481782408992676e-01
9.666666666666666741e-01,1.643763345220792055e+09,1.400336053085554470e-02,0.000000000000000000e+00,0.000000000000000000e+00,3.237022367915554644e-01,7.099137076030256899e-02,-9.809770015063365434e-02,-1.236765252668200754e-01
9.833333333333332815e-01,1.643763345237716913e+09,1.453680714610565590e-02,0.000000000000000000e+00,0.000000000000000000e+00,2.916525103765505444e-01,7.560952810243165567e-02,-1.001314500826179649e-01,-1.203826165331285808e-01
1.000000000000000000e+00,1.643763345257663250e+09,1.504943528889032128e-02,0.000000000000000000e+00,0.000000000000000000e+00,3.237022367915554644e-01,7.993871072969407909e-02,-1.021101585431606618e-01,-1.170715962270909849e-01
1.016666666666666607e+00,1.643763345271628857e+09,1.553688968703790911e-02,0.000000000000000000e+00,0.000000000000000000e+00,3.237022367915554644e-01,8.393112150681454608e-02,-1.040335892179442001e-01,-1.137493135271938627e-01
1.033333333333333215e+00,1.643763345288580656e+09,1.599476809110073755e-02,0.000000000000000000e+00,0.000000000000000000e+00,3.237022367915554644e-01,8.754075849096730477e-02,-1.059016088248790066e-01,-1.104222812787429425e-01
1.050000000000000044e+00,1.643763345306534290e+09,1.641865981830148771e-02,0.000000000000000000e+00,0.000000000000000000e+00,3.237022367915554644e-01,9.072398301986714375e-02,-1.077141977571336035e-01,-1.070976259628238919e-01
1.066666666666666652e+00,1.643763345323512316e+09,1.680418587098948119e-02,0.000000000000000000e+00,0.000000000000000000e+00,3.237022367915554644e-01,9.344007969751591536e-02,-1.094714598218789886e-01,-1.037830292364532447e-01
1.083333333333333259e+00,1.643763345340442419e+09,1.714704021710600559e-02,0.000000000000000000e+00,0.000000000000000000e+00,3.237022367915554644e-01,9.565180172440598816e-02,-1.111736309374553311e-01,-1.004866614254701362e-01
1.100000000000000089e+00,1.643763345356424570e+09,1.744303179329060802e-02,0.000000000000000000e+00,0.000000000000000000e+00,3.237022367915554644e-01,9.732589501300159540e-02,-1.128210866588817834e-01,-9.721710745382698693e-02
1.116666666666666696e+00,1.643763345373353720e+09,1.768812676913270043e-02,0.000000000000000000e+00,0.000000000000000000e+00,2.916525103765505444e-01,9.843359459595077410e-02,-1.144143484105210606e-01,-9.398328579225520563e-02
1.133333333333333304e+00,1.643763345390344381e+09,1.787849059407650015e-02,0.000000000000000000e+00,0.000000000000000000e+00,2.916525103765505444e-01,9.895108697446025614e-02,-1.159540883152234136e-01,-9.079436110464518539e-02
1.149999999999999911e+00,1.643763345407263041e+09,1.801052933696110567e-02,0.000000000000000000e+00,0.000000000000000000e+00,3.237022367915554644e-01,9.885993226754796748e-02,-1.174411325213349094e-01,-8.765965136074123365e-02
1.166666666666666741e+00,1.643763345425215483e+09,1.808092982239389163e-02,0.000000000000000000e+00,0.000000000000000000e+00,3.237022367915554644e-01,9.814744030864017144e-02,-1.188764629424668290e-01,-8.458853026779863948e-02
1.183333333333333348e+00,1.643763345442170143e+09,1.808669806832390731e-02,0.000000000000000000e+00,0.000000000000000000e+00,3.237022367915554644e-01,9.680699519258545438e-02,-1.202612173397757389e-01,-8.159032595061330162e-02
1.199999999999999956e+00,1.643763345459124565e+09,1.802519553543871500e-02,0.000000000000000000e+00,0.000000000000000000e+00,3.237022367915554644e-01,9.483832320118809611e-02,-1.215966876925656387e-01,-7.867421687780359885e-02
1.216666666666666563e+00,1.643763345475082159e+09,1.789417271141889587e-02,0.000000000000000000e+00,0.000000000000000000e+00,3.237022367915554644e-01,9.224769952565736730e-02,-1.228843168201502745e-01,-7.584912609145801066e-02
1.233333333333333393e+00,1.643763345492036819e+09,1.769179957163548658e-02,0.000000000000000000e+00,0.000000000000000000e+00,3.237022367915554644e-01,8.904808975595586429e-02,-1.241256932359427745e-01,-7.312361484639957887e-02
1.250000000000000000e+00,1.643763345509988785e+09,1.741669248248094160e-02,0.000000000000000000e+00,0.000000000000000000e+00,2.916525103765505444e-01,8.525922271527268392e-02,-1.253225442334969519e-01,-7.050577680359086663e-02
1.266666666666666607e+00,1.643763345526943445e+09,1.706793714401498227e-02,0.000000000000000000e+00,0.000000000000000000e+00,2.916525103765505444e-01,8.090759187737922575e-02,-1.264767272235236828e-01,-6.800313394894115515e-02
1.283333333333333215e+00,1.643763345543898344e+09,1.664510720474403002e-02,0.000000000000000000e+00,0.000000000000000000e+00,3.237022367915554644e-01,7.602638330944591627e-02,-1.275902193605490675e-01,-6.562253542342501300e-02
1.300000000000000044e+00,1.643763345560852766e+09,1.614827822281532030e-02,0.000000000000000000e+00,0.000000000000000000e+00,3.237022367915554644e-01,7.065532882645922386e-02,-1.286651055176638858e-01,-6.337006045253586184e-02
1.316666666666666652e+00,1.643763345579802036e+09,1.557803669430886731e-02,0.000000000000000000e+00,0.000000000000000000e+00,3.237022367915554644e-01,6.484048381850054943e-02,-1.297035646875247250e-01,-6.125092655236667044e-02
1.333333333333333259e+00,1.643763345594762087e+09,1.493548392018878394e-02,0.000000000000000000e+00,0.000000000000000000e+00,3.237022367915554644e-01,5.863393001133298393e-02,-1.307078549071898355e-01,-5.926940416584600829e-02
1.350000000000000089e+00,1.643763345612714052e+09,1.422223453831086837e-02,0.000000000000000000e+00,0.000000000000000000e+00,2.916525103765505444e-01,5.209340423593213087e-02,-1.316802968232906601e-01,-5.742873884581299604e-02
1.366666666666666696e+00,1.643763345628671408e+09,1.344040960508970962e-02,0.000000000000000000e+00,0.000000000000000000e+00,3.237022367915554644e-01,4.528185510557062449e-02,-1.326232560322346821e-01,-5.573108205177612628e-02
1.383333333333333304e+00,1.643763345645626307e+09,1.259262417237234227e-02,0.000000000000000000e+00,0.000000000000000000e+00,3.237022367915554644e-01,3.826693032123710397e-02,-1.335391243473930123e-01,-5.417743156459716575e-02
1.399999999999999911e+00,1.643763345664575577e+09,1.168196936806394082e-02,0.000000000000000000e+00,0.000000000000000000e+00,3.237022367915554644e-01,3.112039813888259690e-02,-1.344303001613365023e-01,-5.276758244833897743e-02
1.416666666666666741e+00,1.643763345679536104e+09,1.071198905338309991e-02,0.000000000000000000e+00,0.000000000000000000e+00,3.237022367915554644e-01,2.391750732649583835e-02,-1.352991680859454704e-01,-5.150008940162174864e-02
1.433333333333333348e+00,1.643763345695492506e+09,9.686651194538119236e-03,0.000000000000000000e+00,0.000000000000000000e+00,3.237022367915554644e-01,1.673629070655427431e-02,-1.361480780664373058e-01,-5.037224124268734754e-02
1.449999999999999956e+00,1.643763345713444710e+09,8.610314151339747146e-03,0.000000000000000000e+00,0.000000000000000000e+00,3.237022367915554644e-01,9.656818111402931323e-03,-1.369793241768513248e-01,-4.938004816374993305e-02
1.466666666666666563e+00,1.643763345730399370e+09,7.487688149011929688e-03,0.000000000000000000e+00,0.000000000000000000e+00,2.916525103765505444e-01,2.760405267126768685e-03,-1.377951233141360421e-01,-4.851824227201310957e-02
1.483333333333333393e+00,1.643763345746356726e+09,6.323792261441680759e-03,0.000000000000000000e+00,0.000000000000000000e+00,2.916525103765505444e-01,-3.871214242567221075e-03,-1.385975940155472486e-01,-4.778029180797802034e-02
1.500000000000000000e+00,1.643763345765306234e+09,5.123907293538245387e-03,0.000000000000000000e+00,0.000000000000000000e+00,3.237022367915554644e-01,-1.015674620484824028e-02,-1.393887356294551128e-01,-4.715842929748429585e-02
1.516666666666666607e+00,1.643763345782261133e+09,3.893525006482882918e-03,0.000000000000000000e+00,0.000000000000000000e+00,2.916525103765505444e-01,-1.601621396201339392e-02,-1.401704080727586565e-01,-4.664369375354764785e-02
1.533333333333333215e+00,1.643763345800213099e+09,2.638294181701426704e-03,0.000000000000000000e+00,0.000000000000000000e+00,3.237022367915554644e-01,-2.137184887967976538e-02,-1.409443124088272103e-01,-4.622598689880708100e-02
1.550000000000000044e+00,1.643763345815173864e+09,1.363964066674096644e-03,0.000000000000000000e+00,0.000000000000000000e+00,2.916525103765505444e-01,-2.614898407182947651e-02,-1.417119724781590318e-01,-4.589414323067243090e-02
1.566666666666666652e+00,1.643763345832127810e+09,7.632578754896735017e-05,0.000000000000000000e+00,0.000000000000000000e+00,2.916525103765505444e-01,-3.027694208565565037e-02,-1.424747178097222344e-01,-4.563601360053683165e-02
1.583333333333333259e+00,1.643763345849082470e+09,-1.218847650665959813e-03,0.000000000000000000e+00,0.000000000000000000e+00,2.916525103765505444e-01,-3.368990706912821514e-02,-1.432336680342029545e-01,-4.543856182720823478e-02
1.600000000000000089e+00,1.643763345867034435e+09,-2.515862126336117569e-03,0.000000000000000000e+00,0.000000000000000000e+00,3.237022367915554644e-01,-3.632777185791202096e-02,-1.439897190111331660e-01,-4.528797371457654597e-02
1.616666666666666696e+00,1.643763345882991552e+09,-3.809163253717889105e-03,0.000000000000000000e+00,0.000000000000000000e+00,2.916525103765505444e-01,-3.813695042862521450e-02,-1.447435308701383594e-01,-4.516977769604843540e-02
1.633333333333333304e+00,1.643763345899946451e+09,-5.093396638943870069e-03,0.000000000000000000e+00,0.000000000000000000e+00,2.916525103765505444e-01,-3.907114627445707616e-02,-1.454955181523908403e-01,-4.506897618503690611e-02
1.649999999999999911e+00,1.643763345918896914e+09,-6.363466845784541276e-03,0.000000000000000000e+00,0.000000000000000000e+00,2.916525103765505444e-01,-3.909206746785053727e-02,-1.462458422218604615e-01,-4.497018657336478847e-02
1.666666666666666741e+00,1.643763345935850382e+09,-7.614594378649598358e-03,0.000000000000000000e+00,0.000000000000000000e+00,3.237022367915554644e-01,-3.817007948339436185e-02,-1.469944060972322164e-01,-4.485779068938294117e-02
1.683333333333333348e+00,1.643763345952805281e+09,-8.842369999619946810e-03,0.000000000000000000e+00,0.000000000000000000e+00,3.237022367915554644e-01,-3.628478726124945153e-02,-1.477408518345440791e-01,-4.471609140642522628e-02
1.699999999999999956e+00,1.643763345968762636e+09,-1.004280571385022906e-02,0.000000000000000000e+00,0.000000000000000000e+00,3.237022367915554644e-01,-3.342553849541807925e-02,-1.484845605678494496e-01,-4.452947498137683341e-02
1.716666666666666563e+00,1.643763345986715078e+09,-1.121238178339877163e-02,0.000000000000000000e+00,0.000000000000000000e+00,2.916525103765505444e-01,-2.959184072892326670e-02,-1.492246552907093293e-01,-4.428257760399900711e-02
1.733333333333333393e+00,1.643763346005663872e+09,-1.234808916328065595e-02,0.000000000000000000e+00,0.000000000000000000e+00,3.237022367915554644e-01,-2.479368552552684013e-02,-1.499600064352777096e-01,-4.396045455152274711e-02
1.750000000000000000e+00,1.643763346020624161e+09,-1.344746679504950880e-02,0.000000000000000000e+00,0.000000000000000000e+00,3.237022367915554644e-01,-1.905177375999585546e-02,-1.506892402783834572e-01,-4.354875027108360414e-02
1.766666666666666607e+00,1.643763346040570736e+09,-1.450863324215257745e-02,0.000000000000000000e+00,0.000000000000000000e+00,3.237022367915554644e-01,-1.239763692020010542e-02,-1.514107501755819762e-01,-4.303386765588840951e-02
1.783333333333333215e+00,1.643763346058522463e+09,-1.553031220722680440e-02,0.000000000000000000e+00,0.000000000000000000e+00,3.237022367915554644e-01,-4.873650237669319325e-03,-1.521227105949094494e-01,-4.240313474052207626e-02
1.800000000000000044e+00,1.643763346072485447e+09,-1.651185153388762261e-02,0.000000000000000000e+00,0.000000000000000000e+00,3.237022367915554644e-01,3.467065549045949841e-03,-1.528230938922995885e-01,-4.164496701731451589e-02
1.816666666666666652e+00,1.643763346089441061e+09,-1.745323536377800522e-02,0.000000000000000000e+00,0.000000000000000000e+00,2.916525103765505444e-01,1.256085595022685998e-02,-1.535096897406060812e-01,-4.074902356983758217e-02
1.833333333333333259e+00,1.643763346106394529e+09,-1.835508919300764957e-02,0.000000000000000000e+00,0.000000000000000000e+00,3.237022367915554644e-01,2.233385906175646557e-02,-1.541801270942110835e-01,-3.970635523186996640e-02
1.849999999999999867e+00,1.643763346124346495e+09,-1.921867764983445706e-02,0.000000000000000000e+00,0.000000000000000000e+00,3.237022367915554644e-01,3.270244641732805019e-02,-1.548318985415952365e-01,-3.850954301086369214e-02
1.866666666666666696e+00,1.643763346142298460e+09,-2.004589489669865096e-02,0.000000000000000000e+00,0.000000000000000000e+00,2.916525103765505444e-01,4.357377713700074512e-02,-1.554623868693069400e-01,-3.715282506420198444e-02
1.883333333333333304e+00,1.643763346158255816e+09,-2.083924764360702703e-02,0.000000000000000000e+00,0.000000000000000000e+00,3.237022367915554644e-01,5.484646298384005664e-02,-1.560688936328067933e-01,-3.563221058430481036e-02
1.899999999999999911e+00,1.643763346175210953e+09,-2.160183084544779059e-02,0.000000000000000000e+00,0.000000000000000000e+00,3.237022367915554644e-01,6.641134076690165255e-02,-1.566486695029824516e-01,-3.394557903468078952e-02
1.916666666666666741e+00,1.643763346193162441e+09,-2.233729624210778128e-02,0.000000000000000000e+00,0.000000000000000000e+00,3.237022367915554644e-01,7.815234736254253467e-02,-1.571989461320328352e-01,-3.209276328292135633e-02
1.933333333333333348e+00,1.643763346213111162e+09,-2.304981398626667830e-02,0.000000000000000000e+00,0.000000000000000000e+00,2.916525103765505444e-01,8.994749147867242556e-02,-1.577169692591992856e-01,-3.007561529777703566e-02
1.949999999999999956e+00,1.643763346228072882e+09,-2.374402768842908545e-02,0.000000000000000000e+00,0.000000000000000000e+00,3.237022367915554644e-01,1.016699151697733061e-01,-1.582000327557568364e-01,-2.789805321505660005e-02
1.966666666666666563e+00,1.643763346246021271e+09,-2.442500329111083057e-02,0.000000000000000000e+00,0.000000000000000000e+00,3.237022367915554644e-01,1.131890370360218862e-01,-1.586455132900372322e-01,-2.556608873017583022e-02
1.983333333333333393e+00,1.643763346262975931e+09,-2.509817226309856222e-02,0.000000000000000000e+00,0.000000000000000000e+00,2.916525103765505444e-01,1.243717680190917080e-01,-1.590509052772846044e-01,-2.308783394261025232e-02
2.000000000000000000e+00,1.643763346282922745e+09,-2.576926967937079316e-02,0.000000000000000000e+00,0.000000000000000000e+00,3.237022367915554644e-01,1.350837897513861019e-01,-1.594138557660737532e-01,-2.047348695796467888e-02
2.016666666666666607e+00,1.643763346298880577e+09,-2.644426782163466008e-02,0.000000000000000000e+00,0.000000000000000000e+00,3.237022367915554644e-01,1.451908845353195587e-01,-1.597321989030540956e-01,-1.773529574539567735e-02
2.033333333333333215e+00,1.643763346313839912e+09,-2.712930599759584560e-02,0.000000000000000000e+00,0.000000000000000000e+00,3.237022367915554644e-01,1.545603052350992546e-01,-1.600039896110993787e-01,-1.488749995009873081e-02
2.049999999999999822e+00,1.643763346331792116e+09,-2.783061733317277603e-02,0.000000000000000000e+00,0.000000000000000000e+00,3.237022367915554644e-01,1.630621726648463221e-01,-1.602275361126943576e-01,-1.194625057075631748e-02
2.066666666666666430e+00,1.643763346346751690e+09,-2.855445334011086009e-02,-8.164399339647506748e-01,-8.164399339647506748e-01,3.237022367915554644e-01,1.705708874627420990e-01,-1.605141980217568709e-01,-2.242407277006061572e-02
2.083333333333333481e+00,1.643763346367697954e+09,-2.930700710113988763e-02,-8.230552380815107094e-01,-8.230552380815107094e-01,3.237022367915554644e-01,1.769665429592467143e-01,-1.609740734367545167e-01,-3.273234227376736749e-02
2.100000000000000089e+00,1.643763346382656097e+09,-3.009433594532029063e-02,-8.164399339647506748e-01,-8.164399339647506748e-01,2.916525103765505444e-01,1.821363251854144494e-01,-1.616027017981471192e-01,-4.267544072536369471e-02
2.116666666666666696e+00,1.643763346400608301e+09,-3.092228450703038076e-02,-8.208501367092569945e-01,-8.208501367092569945e-01,3.237022367915554644e-01,1.859758859310554624e-01,-1.623957539387044791e-01,-5.246362609777634189e-02
2.133333333333333304e+00,1.643763346418560028e+09,-3.179640907272719003e-02,-7.745430078919384176e-01,-7.745430078919384176e-01,3.237022367915554644e-01,1.883906746569827539e-01,-1.633438610575258243e-01,-6.128472453287091282e-02
2.149999999999999911e+00,1.643763346434517622e+09,-3.272190411987102587e-02,-5.959297967394246998e-01,-5.959297967394246998e-01,3.237022367915554644e-01,1.892972150946907184e-01,-1.644129727514165862e-01,-6.699282253305903490e-02
2.166666666666666519e+00,1.643763346451472282e+09,-3.370353194204389613e-02,-5.871093912504118384e-01,-5.871093912504118384e-01,2.916525103765505444e-01,1.886243125332044135e-01,-1.655753056694634906e-01,-7.247190759363227042e-02
2.183333333333333126e+00,1.643763346469424009e+09,-3.474555623324737663e-02,-5.650583775278790188e-01,-5.650583775278790188e-01,3.237022367915554644e-01,1.863141780978903317e-01,-1.668254732777935123e-01,-7.753414330913538377e-02
2.200000000000000178e+00,1.643763346485381365e+09,-3.585168047269526176e-02,0.000000000000000000e+00,0.000000000000000000e+00,3.237022367915554644e-01,1.823234567698138187e-01,-1.680818173382280789e-01,-7.323907496920392668e-02
2.216666666666666785e+00,1.643763346502336025e+09,-3.702499190929835204e-02,-6.113655063451975957e-01,-6.113655063451975957e-01,2.916525103765505444e-01,1.766241464755438917e-01,-1.693523994636844943e-01,-7.921418217490841518e-02
2.233333333333333393e+00,1.643763346520287991e+09,-3.826791189278579836e-02,-6.576726351625162836e-01,-6.576726351625162836e-01,3.237022367915554644e-01,1.692043962935579349e-01,-1.707291622077828641e-01,-8.597855674529267245e-02
2.250000000000000000e+00,1.643763346535248280e+09,-3.958215323644532352e-02,-7.789532106364448483e-01,-7.789532106364448483e-01,3.237022367915554644e-01,1.600691726706753026e-01,-1.722357433245083891e-01,-9.478670959466330148e-02
2.266666666666666607e+00,1.643763346556192398e+09,-4.096868522535317830e-02,-6.003399994839312415e-01,-6.003399994839312415e-01,3.237022367915554644e-01,1.492407835150424411e-01,-1.738647358789228714e-01,-1.006760373063969732e-01
2.283333333333333215e+00,1.643763346573147535e+09,-4.242770680437092656e-02,-8.164399339647506748e-01,-8.164399339647506748e-01,3.237022367915554644e-01,1.367592511245394049e-01,-1.756226422445772706e-01,-1.102461423214127767e-01
2.299999999999999822e+00,1.643763346588107586e+09,-4.395862839288976892e-02,-9.355154080664264127e-01,-9.355154080664264127e-01,2.916525103765505444e-01,1.226825261133397404e-01,-1.775571195809826086e-01,-1.218588796842255406e-01
2.316666666666666430e+00,1.643763346608053684e+09,-4.556006267919594788e-02,-1.118538821963447338e+00,-1.118538821963447338e+00,3.237022367915554644e-01,1.070865358056682926e-01,-1.797109719942366346e-01,-1.365625653736011469e-01
2.333333333333333481e+00,1.643763346623013496e+09,-4.722982464738412905e-02,-1.153820443919499450e+00,-1.153820443919499450e+00,3.237022367915554644e-01,9.006506196452812585e-02,-1.821150790849320467e-01,-1.518877146488219199e-01
2.350000000000000089e+00,1.643763346640965700e+09,-4.896494098503751530e-02,-1.275101019393428237e+00,-1.275101019393428237e+00,3.237022367915554644e-01,7.172944420298131563e-02,-1.847917724712239140e-01,-1.692672141823708398e-01
2.366666666666666696e+00,1.643763346656922817e+09,-5.076166891155359240e-02,-1.427253014078903259e+00,-1.427253014078903259e+00,3.237022367915554644e-01,5.220810697438357795e-02,-1.877794353241915015e-01,-1.891969664478119206e-01
2.383333333333333304e+00,1.643763346674875021e+09,-5.261552435623673835e-02,-1.308177539977227521e+00,-1.308177539977227521e+00,3.237022367915554644e-01,3.164590964262822131e-02,-1.910829013046464186e-01,-2.071690276396003227e-01
2.399999999999999911e+00,1.643763346690832615e+09,-5.452131930334600668e-02,-1.160435748036258818e+00,-1.160435748036258818e+00,3.237022367915554644e-01,1.020332078014670775e-02,-1.946659748192896000e-01,-2.227564945792256945e-01
2.416666666666666519e+00,1.643763346709781647e+09,-5.647320800948216202e-02,-1.224383687831603007e+00,-1.224383687831603007e+00,3.237022367915554644e-01,-1.194458048438824284e-02,-1.985185781014083273e-01,-2.395093624357068074e-01
2.433333333333333126e+00,1.643763346726736307e+09,-5.846474168831731349e-02,-1.312587742721733841e+00,-1.312587742721733841e+00,3.237022367915554644e-01,-3.460927156013914041e-02,-2.026633951798473277e-01,-2.578178289286323643e-01
2.450000000000000178e+00,1.643763346743691206e+09,-6.048893115004628368e-02,-1.133974531569219346e+00,-1.133974531569219346e+00,2.916525103765505444e-01,-5.759011573783406890e-02,-2.070893285717917143e-01,-2.732513063251388319e-01
2.466666666666666785e+00,1.643763346760645866e+09,-6.253831677937002342e-02,-1.003873550606277254e+00,-1.003873550606277254e+00,3.237022367915554644e-01,-8.067584592627151385e-02,-2.117555739075778487e-01,-2.866608842648951661e-01
2.483333333333333393e+00,1.643763346776602983e+09,-6.460504513760058354e-02,-7.039797639798340834e-01,-7.039797639798340834e-01,2.916525103765505444e-01,-1.036461932945729053e-01,-2.166052112678233943e-01,-2.952716795258897298e-01
2.500000000000000000e+00,1.643763346793557644e+09,-6.668095138284858836e-02,-5.915195939949182691e-01,-5.915195939949182691e-01,3.237022367915554644e-01,-1.262736497535985880e-01,-2.215847648158647543e-01,-3.022553467069903355e-01
2.516666666666666607e+00,1.643763346812507153e+09,-6.875764661841222980e-02,-6.995695612353276527e-01,-6.995695612353276527e-01,3.237022367915554644e-01,-1.483253516964993524e-01,-2.266977179367933304e-01,-3.112739754682588567e-01
2.533333333333333215e+00,1.643763346828464508e+09,-7.082660920455455256e-02,-7.679277037751791601e-01,-7.679277037751791601e-01,3.237022367915554644e-01,-1.695650709866683425e-01,-2.319721111809545377e-01,-3.216244618034617697e-01
2.549999999999999822e+00,1.643763346845419168e+09,-7.287927900387676516e-02,-8.230552380815107094e-01,-8.230552380815107094e-01,3.237022367915554644e-01,-1.897552978460328443e-01,-2.374279858431188606e-01,-3.330487627400898210e-01
2.566666666666666430e+00,1.643763346862373829e+09,-7.490715347641031807e-02,-6.797236488850483260e-01,-6.797236488850483260e-01,3.237022367915554644e-01,-2.086593990722892256e-01,-2.430555016040236993e-01,-3.422276311118072623e-01
2.583333333333333481e+00,1.643763346879328489e+09,-7.690188449820176131e-02,-1.078846997262888019e+00,-1.078846997262888019e+00,3.237022367915554644e-01,-2.260438339136578434e-01,-2.488922589774212879e-01,-3.581390542580187297e-01
2.600000000000000089e+00,1.643763346902266979e+09,-7.885537474725898277e-02,-1.297152033115960945e+00,-1.297152033115960945e+00,3.237022367915554644e-01,-2.416804089668792010e-01,-2.550243211749133043e-01,-3.776541994285740889e-01
2.616666666666666696e+00,1.643763346914235353e+09,-8.075987248385854689e-02,-1.405202000356370329e+00,-1.405202000356370329e+00,3.237022367915554644e-01,-2.553485526500539060e-01,-2.614957521165406917e-01,-3.988586110370537785e-01
2.633333333333333304e+00,1.643763346932187080e+09,-8.260806354881557179e-02,-1.367715277028065168e+00,-1.367715277028065168e+00,3.237022367915554644e-01,-2.668375891471253536e-01,-2.683140703409204186e-01,-4.192828405822605631e-01
2.649999999999999911e+00,1.643763346949141741e+09,-8.439315941369834873e-02,-1.586020312881137651e+00,-1.586020312881137651e+00,3.237022367915554644e-01,-2.759489912345167162e-01,-2.755013822581602878e-01,-4.431283504002815898e-01
2.666666666666666519e+00,1.643763346966096640e+09,-8.610898014126169842e-02,-2.371036401403298299e+00,-2.371036401403298299e+00,2.916525103765505444e-01,-2.824985910906069875e-01,-2.831921572331668746e-01,-4.796631586335067809e-01
2.683333333333333126e+00,1.643763346983051300e+09,-8.775003115256864439e-02,-2.851748500554508681e+00,-2.851748500554508681e+00,3.237022367915554644e-01,-2.863187280617645603e-01,-2.915537233070050749e-01,-5.236027130366065485e-01
2.700000000000000178e+00,1.643763347000006199e+09,-8.931157274919049316e-02,-2.935542352700132529e+00,-2.935542352700132529e+00,3.237022367915554644e-01,-2.872603124193908730e-01,-3.006532500351532522e-01,-5.682165640604504020e-01
2.716666666666666785e+00,1.643763347017957926e+09,-9.078968140418587629e-02,-3.294973876377413458e+00,-3.294973876377413458e+00,3.237022367915554644e-01,-2.851947843942270744e-01,-3.105395384293024863e-01,-6.179997533458284620e-01
2.733333333333333393e+00,1.643763347033915281e+09,-9.218130191376204541e-02,-3.233231037954322762e+00,-3.233231037954322762e+00,3.237022367915554644e-01,-2.800159482184241821e-01,-3.212394273108426512e-01,-6.658539809005007415e-01
2.750000000000000000e+00,1.643763347049872637e+09,-9.348428959195954902e-02,-3.380972829895290133e+00,-3.380972829895290133e+00,2.916525103765505444e-01,-2.716416615426790471e-01,-3.327495265112072054e-01,-7.152207898907689820e-01
2.766666666666666607e+00,1.643763347070816755e+09,-9.469744179257369443e-02,-3.623533980843149038e+00,-3.623533980843149038e+00,2.916525103765505444e-01,-2.600153614229339105e-01,-3.451074841299454632e-01,-7.675886546431320845e-01
2.783333333333333215e+00,1.643763347083782196e+09,-9.582051815487060975e-02,-3.605893169865122427e+00,-3.605893169865122427e+00,2.916525103765505444e-01,-2.451074090852841114e-01,-3.583265107675167038e-01,-8.185529709880675631e-01
2.799999999999999822e+00,1.643763347102732182e+09,-9.685424909138604099e-02,-3.771275772784116853e+00,-3.771275772784116853e+00,3.237022367915554644e-01,-2.269162368732839941e-01,-3.724082336145537742e-01,-8.711077816353205439e-01
2.816666666666666430e+00,1.643763347118688583e+09,-9.780033216599062773e-02,-4.018247126476481412e+00,-4.018247126476481412e+00,3.237022367915554644e-01,-2.054692821516544976e-01,-3.873897606182244990e-01,-9.265215281087854082e-01
2.833333333333333481e+00,1.643763347135643244e+09,-9.866141614712532759e-02,-4.311525608986165992e+00,-4.311525608986165992e+00,3.237022367915554644e-01,-1.808236944756321241e-01,-4.033242999982813437e-01,-9.854594771197585645e-01
2.850000000000000089e+00,1.643763347152597904e+09,-9.944107266322296801e-02,-4.816493823232161908e+00,-4.816493823232161908e+00,3.237022367915554644e-01,-1.530668040253570783e-01,-4.202989106557526999e-01,-1.051310876916579096e+00
2.866666666666666696e+00,1.643763347169552803e+09,-1.001437555332959778e-01,-5.111977407114097538e+00,-5.111977407114097538e+00,3.237022367915554644e-01,-1.223163411375322585e-01,-4.383985142857391160e-01,-1.120449502424119892e+00
2.883333333333333304e+00,1.643763347186507702e+09,-1.007747479939006818e-01,-4.756956086181323151e+00,-4.756956086181323151e+00,3.237022367915554644e-01,-8.872039872868232868e-02,-4.575872028690763371e-01,-1.182022088589282705e+00
2.899999999999999911e+00,1.643763347202464819e+09,-1.013400981925068889e-01,-5.846276164074433623e+00,-5.846276164074433623e+00,3.237022367915554644e-01,-5.245713148053156999e-02,-4.779390455176401598e-01,-1.259982467533301564e+00
2.916666666666666519e+00,1.643763347219419718e+09,-1.018465434650291934e-01,-6.523242285356184667e+00,-6.523242285356184667e+00,3.237022367915554644e-01,-1.373418783199443008e-02,-4.996676143549909077e-01,-1.347203506582420385e+00
2.933333333333333126e+00,1.643763347237371445e+09,-1.023014240601865799e-01,-6.928980937850783839e+00,-6.928980937850783839e+00,3.237022367915554644e-01,2.721212692335635286e-02,-5.228882054627688181e-01,-1.439012395656766197e+00
2.950000000000000178e+00,1.643763347254326105e+09,-1.027125871137294782e-01,-6.838571781588401066e+00,-6.838571781588401066e+00,3.237022367915554644e-01,7.011795581937370347e-02,-5.476078504999464247e-01,-1.527100314382405788e+00
2.966666666666666785e+00,1.643763347270283461e+09,-1.030882818097265535e-01,-8.192504024151903153e+00,-8.192504024151903153e+00,3.237022367915554644e-01,1.146932607054511610e-01,-5.739643098021603995e-01,-1.635374034470965965e+00
2.983333333333333393e+00,1.643763347288235426e+09,-1.034370467923464154e-01,-8.593832473901994007e+00,-8.593832473901994007e+00,2.916525103765505444e-01,1.606234526863475898e-01,-6.021594640703028523e-01,-1.747732363889750840e+00
3.000000000000000000e+00,1.643763347306187391e+09,-1.037675910083271924e-01,-8.274092774925270177e+00,-8.274092774925270177e+00,3.237022367915554644e-01,2.075712747770475930e-01,-6.321610911101924746e-01,-1.852172761852331595e+00
3.016666666666666607e+00,1.643763347324140549e+09,-1.040886692660586699e-01,-8.091069361028250029e+00,-8.091069361028250029e+00,3.237022367915554644e-01,2.551789266730419836e-01,-6.638571112116935513e-01,-1.951074915656750619e+00
3.033333333333333215e+00,1.643763347339100599e+09,-1.044089538904678510e-01,-8.148401996706835959e+00,-8.148401996706835959e+00,2.916525103765505444e-01,3.030704192143396369e-01,-6.971891441438364811e-01,-2.048498409016149324e+00
3.049999999999999822e+00,1.643763347357052326e+09,-1.047369039323981232e-01,-7.793380675774061572e+00,-7.793380675774061572e+00,3.237022367915554644e-01,3.508541438613422270e-01,-7.320758101499047488e-01,-2.137653851875293221e+00
3.066666666666666430e+00,1.643763347375003815e+09,-1.050806334556984439e-01,-7.006159485879647875e+00,-7.006159485879647875e+00,2.916525103765505444e-01,3.981256403237707353e-01,-7.683208254631442857e-01,-2.211542733987984732e+00
3.083333333333333481e+00,1.643763347392955542e+09,-1.054477804737534857e-01,-6.470319852422106166e+00,-6.470319852422106166e+00,3.237022367915554644e-01,4.444705434106602793e-01,-8.057067049569820449e-01,-2.274587676311004447e+00
3.100000000000000089e+00,1.643763347408912420e+09,-1.058453781388081771e-01,-5.495665045886164890e+00,-5.495665045886164890e+00,3.237022367915554644e-01,4.894676882203197188e-01,-8.439937908543486689e-01,-2.319737213041401791e+00
3.116666666666666696e+00,1.643763347428859234e+09,-1.062797298014448583e-01,-4.721674464225271706e+00,-4.721674464225271706e+00,3.237022367915554644e-01,5.326923509834319281e-01,-8.829142587766870554e-01,-2.350633113673094243e+00
3.133333333333333304e+00,1.643763347446812391e+09,-1.067562895534498318e-01,-3.597072764376109344e+00,-3.597072764376109344e+00,3.237022367915554644e-01,5.737196012286874813e-01,-9.221843937668066093e-01,-2.361752198068765018e+00
3.149999999999999911e+00,1.643763347463766575e+09,-1.072795498446968560e-01,-2.920106643094359633e+00,-2.920106643094359633e+00,3.237022367915554644e-01,6.121277394758094514e-01,-9.615395032070251924e-01,-2.360863403688855389e+00
3.166666666666666519e+00,1.643763347479724169e+09,-1.078529377234649089e-01,-2.589341437256370337e+00,-2.589341437256370337e+00,3.237022367915554644e-01,6.475017933916453750e-01,-1.000829350831051734e+00,-2.353937550129240996e+00
3.183333333333333126e+00,1.643763347498673439e+09,-1.084787211898529946e-01,-1.092077605496407866e+00,-1.092077605496407866e+00,3.237022367915554644e-01,6.794370442858682635e-01,-1.039793510424445122e+00,-2.321850733222690089e+00
3.200000000000000178e+00,1.643763347513632536e+09,-1.091579270739318069e-01,-6.951593584908212220e-01,-6.951593584908212220e-01,3.237022367915554644e-01,7.075425549865974606e-01,-1.078168617089735104e+00,-2.283269239949137219e+00
3.216666666666666785e+00,1.643763347531585693e+09,-1.098902717544763818e-01,-6.907491557463147913e-01,-6.907491557463147913e-01,3.237022367915554644e-01,7.314446695344714033e-01,-1.115902117250842984e+00,-2.244857481224893370e+00
3.233333333333333393e+00,1.643763347550534725e+09,-1.106741059212383582e-01,0.000000000000000000e+00,0.000000000000000000e+00,3.237022367915554644e-01,7.507904547755328561e-01,-1.152902648216928894e+00,-2.195343776012548709e+00
3.250000000000000000e+00,1.643763347567489386e+09,-1.115063744546392344e-01,0.000000000000000000e+00,0.000000000000000000e+00,2.916525103765505444e-01,7.652510538263752604e-01,-1.189082792315322434e+00,-2.146409447683715666e+00
3.266666666666666607e+00,1.643763347582448959e+09,-1.123825923525992310e-01,0.000000000000000000e+00,0.000000000000000000e+00,3.237022367915554644e-01,7.745249215345080263e-01,-1.224452842197512492e+00,-2.098130649109283929e+00
3.283333333333333215e+00,1.643763347600401163e+09,-1.132968374762269581e-01,0.000000000000000000e+00,0.000000000000000000e+00,2.916525103765505444e-01,7.783409124662669099e-01,-1.259024386661972583e+00,-2.050586756103719210e+00
3.299999999999999822e+00,1.643763347617355824e+09,-1.142417607157556608e-01,0.000000000000000000e+00,0.000000000000000000e+00,2.916525103765505444e-01,7.764611926244984197e-01,-1.292810359323740776e+00,-2.003859763564876051e+00
3.316666666666666430e+00,1.643763347633313179e+09,-1.152086139970374262e-01,0.000000000000000000e+00,0.000000000000000000e+00,3.237022367915554644e-01,7.686839470277311293e-01,-1.325825076929095570e+00,-1.958033646842392450e+00
3.333333333333333481e+00,1.643763347652262688e+09,-1.161872963588775065e-01,0.000000000000000000e+00,0.000000000000000000e+00,3.237022367915554644e-01,7.548458564676959748e-01,-1.358084266772489501e+00,-1.913193692724536987e+00
3.350000000000000089e+00,1.643763347670214653e+09,-1.171664181344118510e-01,6.255524910700258623e-01,6.255524910700258623e-01,3.237022367915554644e-01,7.348243181973361793e-01,-1.389518681126745925e+00,-1.859086331549157922e+00
3.366666666666666696e+00,1.643763347684177399e+09,-1.181333830676205426e-01,5.446365374125278214e-01,5.446365374125278214e-01,3.237022367915554644e-01,7.085393869784362142e-01,-1.420073586103512309e+00,-1.807645161165875480e+00
3.383333333333333304e+00,1.643763347703127623e+09,-1.190744879910515114e-01,1.421226035368753582e+00,1.421226035368753582e+00,3.237022367915554644e-01,6.759554148264449447e-01,-1.449661668856319752e+00,-1.743104054243148182e+00
3.399999999999999911e+00,1.643763347720081329e+09,-1.199750394850866014e-01,1.523719576668250753e+00,1.523719576668250753e+00,3.237022367915554644e-01,6.370823699174829047e-01,-1.478174193648934542e+00,-1.678578163674104617e+00
3.416666666666666519e+00,1.643763347735041857e+09,-1.208194867348522522e-01,1.413134440003003700e+00,1.413134440003003700e+00,3.237022367915554644e-01,5.919768174539993266e-01,-1.505641703355934835e+00,-1.617692133009487776e+00
3.433333333333333126e+00,1.643763347753992319e+09,-1.215915696004377794e-01,1.399648447726753897e+00,1.399648447726753897e+00,2.916525103765505444e-01,5.407425478046564704e-01,-1.532111794688997941e+00,-1.558882191750901258e+00
3.449999999999999734e+00,1.643763347768951893e+09,-1.222744807216889357e-01,1.628910316422998106e+00,1.628910316422998106e+00,2.916525103765505444e-01,4.835308399220470954e-01,-1.557586079538789470e+00,-1.498200554295359144e+00
3.466666666666666785e+00,1.643763347784941196e+09,-1.228510402927512207e-01,1.572269148862749377e+00,1.572269148862749377e+00,3.237022367915554644e-01,4.205403508784530953e-01,-1.582073908726468581e+00,-1.440499233445326821e+00
3.483333333333333393e+00,1.643763347805852413e+09,-1.233038819659369734e-01,1.661276697885997411e+00,1.661276697885997411e+00,3.237022367915554644e-01,3.520166253232023257e-01,-1.605605189732622673e+00,-1.383413063719019398e+00
3.500000000000000000e+00,1.643763347823803902e+09,-1.236156481815209457e-01,1.191964166672509817e+00,1.191964166672509817e+00,2.916525103765505444e-01,2.782512217317889558e-01,-1.628267929542253967e+00,-1.336246734102649825e+00
3.516666666666666607e+00,1.643763347842753410e+09,-1.237691930717469829e-01,1.332218486345505770e+00,1.332218486345505770e+00,2.916525103765505444e-01,1.995804554620637383e-01,-1.650142572544135877e+00,-1.288842108737308312e+00
3.533333333333333215e+00,1.643763347855719090e+09,-1.237477909555771277e-01,8.197507798480202501e-01,8.197507798480202501e-01,3.237022367915554644e-01,1.163837618311839295e-01,-1.671315959471269652e+00,-1.252066479448854519e+00
3.549999999999999822e+00,1.643763347875666142e+09,-1.235353483273000791e-01,5.931861096070264461e-01,5.931861096070264461e-01,3.237022367915554644e-01,2.908168565132963207e-02,-1.691924850143489145e+00,-1.221086458855662471e+00
3.566666666666666430e+00,1.643763347892620087e+09,-1.231166171486382660e-01,5.877917126965266359e-01,5.877917126965266359e-01,3.237022367915554644e-01,-6.186649311384705835e-02,-1.712034992999682537e+00,-1.192210895673091242e+00
3.583333333333333481e+00,1.643763347910572052e+09,-1.224774071818700294e-01,0.000000000000000000e+00,0.000000000000000000e+00,3.237022367915554644e-01,-1.559654847148852219e-01,-1.731762047861015841e+00,-1.175083265557006040e+00
3.600000000000000089e+00,1.643763347925532103e+09,-1.216047950519469900e-01,0.000000000000000000e+00,0.000000000000000000e+00,3.237022367915554644e-01,-2.526870500079997917e-01,-1.751219367128091786e+00,-1.159837397123396618e+00
3.616666666666666696e+00,1.643763347940492153e+09,-1.204873276996091397e-01,6.066721018832762491e-01,6.066721018832762491e-01,3.237022367915554644e-01,-3.514733768208039288e-01,-1.770354544918223194e+00,-1.136448907248890805e+00
3.633333333333333304e+00,1.643763347960438967e+09,-1.191152178858624067e-01,0.000000000000000000e+00,0.000000000000000000e+00,3.237022367915554644e-01,-4.517407502970109401e-01,-1.789200787806750181e+00,-1.125131676865313901e+00
3.649999999999999911e+00,1.643763347976396084e+09,-1.174805294313989168e-01,7.900815968402711276e-01,7.900815968402711276e-01,3.237022367915554644e-01,-5.528834924189388600e-01,-1.807764816752017500e+00,-1.102614346179691118e+00
3.666666666666666519e+00,1.643763347994348764e+09,-1.155773499228558016e-01,1.067893037731013850e+00,1.067893037731013850e+00,3.237022367915554644e-01,-6.542781432654448670e-01,-1.825932300182406376e+00,-1.077553281174876032e+00
3.683333333333333126e+00,1.643763348011302710e+09,-1.134019486912336838e-01,1.151506189843761296e+00,1.151506189843761296e+00,3.237022367915554644e-01,-7.552878541107495014e-01,-1.843687963464224033e+00,-1.053193978964174882e+00
3.699999999999999734e+00,1.643763348028257370e+09,-1.109529179660571907e-01,1.941785337231989317e+00,1.941785337231989317e+00,2.916525103765505444e-01,-8.552669602305595919e-01,-1.860945658308699402e+00,-1.017827644503008999e+00
3.716666666666666785e+00,1.643763348044214964e+09,-1.082312952313990856e-01,2.090131252270735374e+00,2.090131252270735374e+00,2.916525103765505444e-01,-9.535656992784784514e-01,-1.877611886520331286e+00,-9.822186570748394630e-01
3.733333333333333393e+00,1.643763348060172081e+09,-1.052406649559281676e-01,2.141378022920483737e+00,2.141378022920483737e+00,3.237022367915554644e-01,-1.049535039348081344e+00,-1.893695727042875365e+00,-9.479374334927552770e-01
3.750000000000000000e+00,1.643763348078124046e+09,-1.019872380375616283e-01,2.483922226737225181e+00,2.483922226737225181e+00,3.237022367915554644e-01,-1.142531579363227801e+00,-1.909178481130916483e+00,-9.100981686151474737e-01
3.766666666666666607e+00,1.643763348096076250e+09,-9.847990749282305167e-02,2.597204561857721306e+00,2.597204561857721306e+00,3.237022367915554644e-01,-1.231922483257968493e+00,-1.924032507286074445e+00,-8.724894411499936053e-01
3.783333333333333215e+00,1.643763348113031149e+09,-9.473027912999706923e-02,2.338273510153728196e+00,2.338273510153728196e+00,3.237022367915554644e-01,-1.317090408531546464e+00,-1.938312442975411942e+00,-8.411897871002864679e-01
3.799999999999999822e+00,1.643763348130982876e+09,-9.075267617186411062e-02,2.227688373488481144e+00,2.227688373488481144e+00,2.916525103765505444e-01,-1.397438389206312470e+00,-1.952101412665192992e+00,-8.135633176724691440e-01
3.816666666666666430e+00,1.643763348147937536e+09,-8.656411703611845143e-02,2.211505182756982268e+00,2.211505182756982268e+00,3.237022367915554644e-01,-1.472394632985514651e+00,-1.965446345203756495e+00,-7.878998759710477140e-01
3.833333333333333481e+00,1.643763348164892197e+09,-8.218426573732860729e-02,2.335576311698479124e+00,2.335576311698479124e+00,2.916525103765505444e-01,-1.541417192511056689e+00,-1.978359495025460824e+00,-7.617507408295530746e-01
3.850000000000000089e+00,1.643763348180849552e+09,-7.763535464102282180e-02,1.928299344955739514e+00,1.928299344955739514e+00,3.237022367915554644e-01,-1.603998471062286768e+00,-1.990905334715019404e+00,-7.437998865751036526e-01
3.866666666666666696e+00,1.643763348196806908e+09,-7.294207957566060940e-02,2.114406038367985019e+00,2.114406038367985019e+00,3.237022367915554644e-01,-1.659669523816945436e+00,-2.003136457045512575e+00,-7.239898223354266360e-01
3.883333333333333304e+00,1.643763348216753483e+09,-6.813146758912132228e-02,2.591810164947221828e+00,2.591810164947221828e+00,3.237022367915554644e-01,-1.708004116912549275e+00,-2.014980884516576864e+00,-6.974152940637843301e-01
3.899999999999999911e+00,1.643763348232710838e+09,-6.323271792012379044e-02,2.251963159585730345e+00,2.251963159585730345e+00,3.237022367915554644e-01,-1.748622507996483666e+00,-2.026438623740617118e+00,-6.775685439799233878e-01
3.916666666666666519e+00,1.643763348247670889e+09,-5.827701703877762734e-02,2.483922226737225181e+00,2.483922226737225181e+00,3.237022367915554644e-01,-1.781194913727970563e+00,-2.037540785654453845e+00,-6.547542601825989683e-01
3.933333333333333126e+00,1.643763348265622854e+09,-5.329732889132084844e-02,2.694303706246718555e+00,2.694303706246718555e+00,2.916525103765505444e-01,-1.805444631784760334e+00,-2.048240152013497628e+00,-6.292405759158560263e-01
3.949999999999999734e+00,1.643763348282577515e+09,-4.832816175904117856e-02,2.346365105519478522e+00,2.346365105519478522e+00,2.916525103765505444e-01,-1.821150787318368991e+00,-2.058568041059413378e+00,-6.101591148999218062e-01
3.966666666666666785e+00,1.643763348302524090e+09,-4.340531340748852995e-02,2.670028920149469354e+00,2.670028920149469354e+00,3.237022367915554644e-01,-1.828150676478064618e+00,-2.068536803516587863e+00,-5.861590483815570796e-01
3.983333333333333393e+00,1.643763348318481684e+09,-3.856559645641290807e-02,2.640359737141720231e+00,2.640359737141720231e+00,2.916525103765505444e-01,-1.826341682566902769e+00,-2.078112727829505513e+00,-5.630161564923925610e-01
4.000000000000000000e+00,1.643763348338428736e+09,-3.384654614060662176e-02,3.166313435915456775e+00,3.166313435915456775e+00,3.237022367915554644e-01,-1.815682743581678027e+00,-2.087232016580097493e+00,-5.313863562029041976e-01
4.016666666666666607e+00,1.643763348355382681e+09,-2.928611285423727423e-02,3.260715381849202288e+00,3.260715381849202288e+00,3.237022367915554644e-01,-1.796195353299167241e+00,-2.095812780264384223e+00,-4.983969253761170726e-01
4.033333333333333215e+00,1.643763348370343208e+09,-2.492234207374862190e-02,3.489977250545446275e+00,3.489977250545446275e+00,3.237022367915554644e-01,-1.767964081677645627e+00,-2.103812711537182079e+00,-4.616967746221894431e-01
4.049999999999999822e+00,1.643763348386300564e+09,-2.079304443452771947e-02,4.450179900614420703e+00,4.450179900614420703e+00,2.916525103765505444e-01,-1.731136604117658351e+00,-2.111068332375164669e+00,-4.091237655092608838e-01
4.066666666666666430e+00,1.643763348403255224e+09,-1.693545889207713137e-02,4.525701457361419600e+00,4.525701457361419600e+00,3.237022367915554644e-01,-1.685923233039614999e+00,-2.117438321836375259e+00,-3.554241389760204317e-01
4.083333333333333037e+00,1.643763348420210361e+09,-1.338591202734303737e-02,4.922189630283158479e+00,4.922189630283158479e+00,2.916525103765505444e-01,-1.632595949256981260e+00,-2.122858605805917787e+00,-2.951772936560413951e-01
4.099999999999999645e+00,1.643763348438161850e+09,-1.017947665637503919e-02,4.722596944594663171e+00,4.722596944594663171e+00,2.916525103765505444e-01,-1.571486934719982020e+00,-2.127302224444890033e+00,-2.382151748524911072e-01
4.116666666666666252e+00,1.643763348454119205e+09,-7.349632975106321249e-03,3.792063477533439642e+00,3.792063477533439642e+00,3.237022367915554644e-01,-1.502986612342250172e+00,-2.130923406521481489e+00,-1.964427116893798786e-01
4.133333333333332860e+00,1.643763348472071171e+09,-4.927935509533462773e-03,4.150790872081679517e+00,4.150790872081679517e+00,3.237022367915554644e-01,-1.427541202767416362e+00,-2.133794182347797719e+00,-1.481844413744924371e-01
4.150000000000000355e+00,1.643763348489026070e+09,-2.943689148993810546e-03,4.487940678987920151e+00,4.487940678987920151e+00,3.237022367915554644e-01,-1.345649812049325433e+00,-2.135809440945935833e+00,-9.379766832737758409e-02
4.166666666666666963e+00,1.643763348505980730e+09,-1.423637515006078965e-03,4.690230563131664532e+00,4.690230563131664532e+00,3.237022367915554644e-01,-1.257861068273085081e+00,-2.136885699450023601e+00,-3.551525157564672242e-02
4.183333333333333570e+00,1.643763348522935390e+09,-3.916668599535840238e-04,4.450179900614420703e+00,4.450179900614420703e+00,3.237022367915554644e-01,-1.164769329099944351e+00,-2.137018932377886316e+00,1.937482421079046030e-02
4.200000000000000178e+00,1.643763348540887356e+09,1.314714011861068527e-04,4.638983792481916169e+00,4.638983792481916169e+00,3.237022367915554644e-01,-1.067010486041555462e+00,-2.136205331966030130e+00,7.809411223960678605e-02
4.216666666666666785e+00,1.643763348558839321e+09,1.284165464287266600e-04,3.619442776397444383e+00,3.619442776397444383e+00,3.237022367915554644e-01,-9.652573949257013952e-01,-2.134547952417201522e+00,1.206731557153073731e-01
4.233333333333333393e+00,1.643763348574796915e+09,-4.145700346085596805e-04,3.848704645093686594e+00,3.848704645093686594e+00,3.237022367915554644e-01,-8.602149654716692018e-01,-2.132140628906039836e+00,1.680739935311793831e-01
4.250000000000000000e+00,1.643763348592749119e+09,-1.507400497356155711e-03,4.196643245820928847e+00,4.196643245820928847e+00,3.237022367915554644e-01,-7.526149461186395495e-01,-2.128886919237145126e+00,2.222207555239893439e-01
4.266666666666666607e+00,1.643763348608705997e+09,-3.155985697161859966e-03,3.624837173307942528e+00,3.624837173307942528e+00,3.237022367915554644e-01,-6.432104432138319172e-01,-2.124802109448340470e+00,2.678297245700863027e-01
4.283333333333333215e+00,1.643763348630649805e+09,-5.362092022472787246e-03,2.842649621285464612e+00,2.842649621285464612e+00,3.237022367915554644e-01,-5.327702163403081892e-01,-2.120056231784728240e+00,3.015818369888934036e-01
4.299999999999999822e+00,1.643763348645607471e+09,-8.123231818011819594e-03,2.640359737141720231e+00,2.640359737141720231e+00,3.237022367915554644e-01,-4.220727939218931746e-01,-2.114765131569260159e+00,3.332621858270890525e-01
4.316666666666666430e+00,1.643763348663559437e+09,-1.143258901803354682e-02,3.069214291526459526e+00,3.069214291526459526e+00,2.916525103765505444e-01,-3.119004552594152879e-01,-2.108875950581984515e+00,3.733282354442642448e-01
4.333333333333333037e+00,1.643763348678519249e+09,-1.527898129750708718e-02,2.848044018195964533e+00,2.848044018195964533e+00,3.237022367915554644e-01,-2.030331268082909146e-01,-2.102340047382636801e+00,4.108758471013779223e-01
4.349999999999999645e+00,1.643763348695474148e+09,-1.964685971909624004e-02,3.128552657541957327e+00,3.128552657541957327e+00,2.916525103765505444e-01,-9.624224178327736579e-02,-2.095130042746970567e+00,4.542043493950230215e-01
4.366666666666666252e+00,1.643763348713426113e+09,-2.451634650911881791e-02,3.492674449000697567e+00,3.492674449000697567e+00,3.237022367915554644e-01,7.715386943522545109e-03,-2.087139229597692491e+00,5.045533668448153319e-01
4.383333333333332860e+00,1.643763348730381012e+09,-2.986331123951768349e-02,3.400969701522199795e+00,3.400969701522199795e+00,3.237022367915554644e-01,1.081036302128443316e-01,-2.078315021020225917e+00,5.542137137962662718e-01
4.400000000000000355e+00,1.643763348749330044e+09,-3.565948532873891574e-02,4.056388926147931784e+00,4.056388926147931784e+00,3.237022367915554644e-01,2.042129917221399416e-01,-2.068566197602160539e+00,6.154749223427020688e-01
4.416666666666666963e+00,1.643763348765287399e+09,-4.187261440577141197e-02,4.552673441913918317e+00,4.552673441913918317e+00,2.916525103765505444e-01,2.953663928158265506e-01,-2.057723678252155519e+00,6.854330669048592783e-01
4.433333333333333570e+00,1.643763348782242060e+09,-4.846664771214519163e-02,4.431299511427671867e+00,4.431299511427671867e+00,2.916525103765505444e-01,3.809247435855473429e-01,-2.045729799345689770e+00,7.536429255819471207e-01
4.450000000000000178e+00,1.643763348799196720e+09,-5.540196335012069484e-02,3.805549469809688112e+00,3.805549469809688112e+00,2.916525103765505444e-01,4.602922521590796512e-01,-2.032683977269081232e+00,8.116944655381511664e-01
4.466666666666666785e+00,1.643763348816151619e+09,-6.263562782529369377e-02,4.069874918424180699e+00,4.069874918424180699e+00,3.237022367915554644e-01,5.329214256887919721e-01,-2.018632107293659494e+00,8.743558679646121767e-01
4.483333333333333393e+00,1.643763348833106279e+09,-7.012168798218523791e-02,4.469060289801170427e+00,4.469060289801170427e+00,3.237022367915554644e-01,5.983177185928879593e-01,-2.003480367184015787e+00,9.436604279948695995e-01
4.500000000000000000e+00,1.643763348851058245e+09,-7.781149309564448779e-02,5.437354535235892961e+00,5.437354535235892961e+00,2.916525103765505444e-01,6.560437860419743306e-01,-1.987041409016710114e+00,1.028778108515528533e+00
4.516666666666666607e+00,1.643763348869010210e+09,-8.565404456267419753e-02,5.515573290438142706e+00,5.515573290438142706e+00,3.237022367915554644e-01,7.057233035041250435e-01,-1.969177913963993776e+00,1.114602890028516535e+00
4.533333333333333215e+00,1.643763348885964870e+09,-9.359637034200059269e-02,6.783256564405606426e+00,6.783256564405606426e+00,3.237022367915554644e-01,7.470443163448879931e-01,-1.949715059722458177e+00,1.220645050466155901e+00
4.549999999999999822e+00,1.643763348901921988e+09,-1.015839210156002925e-01,6.713129404569108338e+00,6.713129404569108338e+00,2.916525103765505444e-01,7.797620870014354555e-01,-1.928504649739906540e+00,1.324316165343113472e+00
4.566666666666666430e+00,1.643763348920871496e+09,-1.095609841005123763e-01,6.578269481806612973e+00,6.578269481806612973e+00,3.237022367915554644e-01,8.037014110872497952e-01,-1.905596027357290057e+00,1.424440391175394893e+00
4.583333333333333037e+00,1.643763348936829090e+09,-1.174711130234369766e-01,6.702340610748110272e+00,6.702340610748110272e+00,2.916525103765505444e-01,8.187583779065049638e-01,-1.881013280643492713e+00,1.525209294272507732e+00
4.599999999999999645e+00,1.643763348953783512e+09,-1.252575669873527420e-01,6.850686525786855441e+00,6.850686525786855441e+00,3.237022367915554644e-01,8.249015552342205959e-01,-1.854743632352063409e+00,1.626866113998096441e+00
4.616666666666666252e+00,1.643763348971735477e+09,-1.328637578109489181e-01,6.761678976763607629e+00,6.761678976763607629e+00,3.237022367915554644e-01,8.221725828157009364e-01,-1.826806415316653887e+00,1.725326422955675509e+00
4.633333333333332860e+00,1.643763348986696005e+09,-1.402336997099579152e-01,7.314604660089841559e+00,7.314604660089841559e+00,3.237022367915554644e-01,8.106861638204835296e-01,-1.797167008657601484e+00,1.831108530028461967e+00
4.650000000000000355e+00,1.643763349004649162e+09,-1.473124579160492442e-01,7.414401002934090101e+00,7.414401002934090101e+00,2.916525103765505444e-01,7.906294484135344414e-01,-1.765768163880951036e+00,1.936460192774271949e+00
4.666666666666666963e+00,1.643763349021799803e+09,-1.540465919950145812e-01,7.481830964315339116e+00,7.481830964315339116e+00,3.237022367915554644e-01,7.622608086405707750e-01,-1.732622614113532133e+00,2.040716172556118035e+00
4.683333333333333570e+00,1.643763349041780472e+09,-1.603845897323253333e-01,8.080609021380821488e+00,8.080609021380821488e+00,3.237022367915554644e-01,7.259080089233042044e-01,-1.697676182113851517e+00,2.152545024394839412e+00
4.700000000000000178e+00,1.643763349058755636e+09,-1.662772875011672147e-01,7.131195165132847791e+00,7.131195165132847791e+00,3.237022367915554644e-01,6.819657815821551505e-01,-1.661018584611595683e+00,2.246106776004500372e+00
4.716666666666666785e+00,1.643763349076653481e+09,-1.716782731158029984e-01,7.104223180580346408e+00,7.104223180580346408e+00,3.237022367915554644e-01,6.308928219056089137e-01,-1.622825326984968175e+00,2.336832118419305715e+00
4.733333333333333393e+00,1.643763349091613531e+09,-1.765442673010773622e-01,6.599847069448610881e+00,6.599847069448610881e+00,2.916525103765505444e-01,5.732082223235686058e-01,-1.583210143453473551e+00,2.416767856417347371e+00
4.750000000000000000e+00,1.643763349111561775e+09,-1.808354800763229964e-01,7.549260925696586355e+00,7.549260925696586355e+00,3.237022367915554644e-01,5.094873701734446980e-01,-1.542151406026368132e+00,2.510021590588075835e+00
4.766666666666666607e+00,1.643763349126521349e+09,-1.845159385575117217e-01,7.174350340416847160e+00,7.174350340416847160e+00,3.237022367915554644e-01,4.403573383295842913e-01,-1.499612651060312496e+00,2.594394630267793822e+00
4.783333333333333215e+00,1.643763349143753290e+09,-1.875537829236440246e-01,6.885750105705104041e+00,6.885750105705104041e+00,2.916525103765505444e-01,3.664918025567973636e-01,-1.455729396365680994e+00,2.671382074044194255e+00
4.799999999999999822e+00,1.643763349160748005e+09,-1.899215275700491257e-01,6.081984966040624663e+00,6.081984966040624663e+00,3.237022367915554644e-01,2.886055238061128181e-01,-1.410695425286088600e+00,2.732524611128714032e+00
4.816666666666666430e+00,1.643763349178667545e+09,-1.915962847799711488e-01,6.497353528149113266e+00,6.497353528149113266e+00,3.237022367915554644e-01,2.074484377563481086e-01,-1.364604695503649712e+00,2.798180580778032667e+00
4.833333333333333037e+00,1.643763349197741270e+09,-1.925599485839316616e-01,6.788650961316108123e+00,6.788650961316108123e+00,2.916525103765505444e-01,1.237993976800951940e-01,-1.317400087496013006e+00,2.866183478753665970e+00
4.849999999999999645e+00,1.643763349211187363e+09,-1.927993368406674957e-01,7.562746917972835270e+00,7.562746917972835270e+00,3.237022367915554644e-01,3.845962014328420386e-02,-1.268976359102519380e+00,2.944446525995441100e+00
4.866666666666666252e+00,1.643763349230136395e+09,-1.923062899606013954e-01,6.999032440825602386e+00,6.999032440825602386e+00,3.237022367915554644e-01,-4.775411390140495843e-02,-1.219348824728290870e+00,3.010673630403282619e+00
4.883333333333332860e+00,1.643763349250342607e+09,-1.910777250991871901e-01,6.910024891802353686e+00,6.910024891802353686e+00,3.237022367915554644e-01,-1.340164474232696801e-01,-1.168650860964936200e+00,3.072909140712912546e+00
4.900000000000000355e+00,1.643763349265914202e+09,-1.891156450691005853e-01,7.222899912611345563e+00,7.222899912611345563e+00,3.237022367915554644e-01,-2.195005676133167105e-01,-1.116892827351503747e+00,3.137874429516113839e+00
4.916666666666666963e+00,1.643763349283159971e+09,-1.864271016531272307e-01,6.640305046277360290e+00,6.640305046277360290e+00,2.916525103765505444e-01,-3.033853990152464708e-01,-1.064153066471195341e+00,3.190749996090174179e+00
4.933333333333333570e+00,1.643763349302099705e+09,-1.830241134394049451e-01,5.110993522150653945e+00,5.110993522150653945e+00,3.237022367915554644e-01,-3.848628090592071116e-01,-1.010761832318949560e+00,3.216127607156118895e+00
4.950000000000000178e+00,1.643763349315075874e+09,-1.789235387430995750e-01,4.908703638006909564e+00,4.908703638006909564e+00,3.237022367915554644e-01,-4.631447647968757741e-01,-9.569898958730961303e-01,3.236448318597099139e+00
4.966666666666666785e+00,1.643763349333192587e+09,-1.741469046191649606e-01,4.733385738415662125e+00,4.733385738415662125e+00,2.916525103765505444e-01,-5.374703793707895638e-01,-9.029165684967713768e-01,3.252306913871522376e+00
4.983333333333333393e+00,1.643763349352416992e+09,-1.687201934051250907e-01,4.622800601750416405e+00,4.622800601750416405e+00,2.916525103765505444e-01,-6.071127870025021522e-01,-8.486060147146452515e-01,3.264924490335194829e+00
5.000000000000000000e+00,1.643763349370482206e+09,-1.626735886563546729e-01,3.608653982576444541e+00,3.608653982576444541e+00,3.237022367915554644e-01,-6.713857860546872391e-01,-7.942358625931845717e-01,3.259508808155763493e+00
5.016666666666666607e+00,1.643763349383854628e+09,-1.550060865446294955e-01,3.330842541685701708e+00,3.330842541685701708e+00,3.237022367915554644e-01,-7.296501910134309821e-01,-7.400016427881770387e-01,3.248627794195293905e+00
5.033333333333333215e+00,1.643763349402500868e+09,-1.468955132481759018e-01,2.759036469172717609e+00,2.759036469172717609e+00,3.237022367915554644e-01,-7.761369658589607479e-01,-6.860326692413539762e-01,3.227707145703700320e+00
5.049999999999999822e+00,1.643763349418457985e+09,-1.383912164348358176e-01,1.979546115605488765e+00,1.979546115605488765e+00,3.237022367915554644e-01,-8.149647576447223152e-01,-6.325225101095357516e-01,3.193606675871228262e+00
5.066666666666666430e+00,1.643763349436606884e+09,-1.295440608271720972e-01,2.260054754951480671e+00,2.260054754951480671e+00,3.237022367915554644e-01,-8.458272974963503277e-01,-5.795415009238552573e-01,3.164196124309799796e+00
5.083333333333333037e+00,1.643763349452706575e+09,-1.204059658179446046e-01,1.601938331870498500e+00,1.601938331870498500e+00,3.237022367915554644e-01,-8.684939731137951702e-01,-5.271406354987585585e-01,3.124019331530648369e+00
5.099999999999999645e+00,1.643763349470681429e+09,-1.110294398714349873e-01,1.167689380575260394e+00,1.167689380575260394e+00,2.916525103765505444e-01,-8.828113749885064809e-01,-4.754657902565035399e-01,3.077092453048172693e+00
5.116666666666666252e+00,1.643763349486879587e+09,-1.014671160534267730e-01,1.038223854723263839e+00,1.038223854723263839e+00,2.916525103765505444e-01,-8.887041898296356157e-01,-4.245852738533083537e-01,3.028703931059871124e+00
5.133333333333332860e+00,1.643763349503815651e+09,-9.177129299430286657e-02,1.062498640820513041e+00,1.062498640820513041e+00,3.237022367915554644e-01,-8.861754353526155592e-01,-3.745008472513851050e-01,2.981558224549079483e+00
5.150000000000000355e+00,1.643763349521775007e+09,-8.199348551025789633e-02,1.143414594478011193e+00,1.143414594478011193e+00,3.237022367915554644e-01,-8.753060359318365347e-01,-3.251829931973686527e-01,2.936708846470832412e+00
5.166666666666666963e+00,1.643763349538697243e+09,-7.218398898791279772e-02,1.084076228462512947e+00,1.084076228462512947e+00,3.237022367915554644e-01,-8.562537439668964634e-01,-2.766119984921603936e-01,2.891934893173884635e+00
5.183333333333333570e+00,1.643763349556650162e+09,-6.239146147896256628e-02,9.384275118790171843e-01,9.384275118790171843e-01,3.237022367915554644e-01,-8.292514171163996028e-01,-2.287974396396820209e-01,2.845939935900783091e+00
5.200000000000000178e+00,1.643763349574601650e+09,-5.266252725556417463e-02,6.174608957042756474e-01,6.174608957042756474e-01,3.237022367915554644e-01,-7.946046667716146761e-01,-1.817826572047070988e-01,2.795972757281352639e+00
5.216666666666666785e+00,1.643763349587566853e+09,-4.304140534595356227e-02,6.282496895252751568e-01,6.282496895252751568e-01,3.237022367915554644e-01,-7.526888982333858058e-01,-1.355864800079618071e-01,2.747702593272805416e+00
5.233333333333333393e+00,1.643763349609541178e+09,-3.356956630574637473e-02,-7.304409804468734446e-01,-7.304409804468734446e-01,3.237022367915554644e-01,-7.039457679782161748e-01,-9.036906905336580809e-02,2.678578736511124436e+00
5.250000000000000000e+00,1.643763349624468088e+09,-2.428542018605121811e-02,-6.356216214399833531e-01,-6.356216214399833531e-01,2.916525103765505444e-01,-6.488790881145862777e-01,-4.627347262206681078e-02,2.613074794920582811e+00
5.266666666666666607e+00,1.643763349640425682e+09,-1.522403833803526174e-02,-8.252603394537635362e-01,-8.252603394537635362e-01,2.916525103765505444e-01,-5.880502126005990871e-01,-3.278352393231584450e-03,2.546524498824175087e+00
5.283333333333333215e+00,1.643763349657380104e+09,-6.416911348064949228e-03,-9.553613204167057393e-01,-9.553613204167057393e-01,3.237022367915554644e-01,-5.220729439825299023e-01,3.860793139495540677e-02,2.480014310629333973e+00
5.299999999999999822e+00,1.643763349674359798e+09,2.108254968525520578e-03,-1.107513315102180984e+00,-1.107513315102180984e+00,3.237022367915554644e-01,-4.516080032888788454e-01,7.938361581028502423e-02,2.413253270907486758e+00
5.316666666666666430e+00,1.643763349693283796e+09,1.032770396991138095e-02,-1.299357134488213772e+00,-1.299357134488213772e+00,3.237022367915554644e-01,-3.773571092432869700e-01,1.190395953048452304e-01,2.345652054017401511e+00
5.333333333333333037e+00,1.643763349707246542e+09,1.822175183741169685e-02,-1.389766290750597433e+00,-1.389766290750597433e+00,3.237022367915554644e-01,-3.000567161156241780e-01,1.575764143761402003e-01,2.278951518165002632e+00
5.349999999999999645e+00,1.643763349728190184e+09,2.577486972835310933e-02,-1.544123386808326170e+00,-1.544123386808326170e+00,3.237022367915554644e-01,-2.204714622874451579e-01,1.950004430370310127e-01,2.212117575352515519e+00
5.366666666666666252e+00,1.643763349746142387e+09,3.297572409855900610e-02,-1.885914099507580710e+00,-1.885914099507580710e+00,2.916525103765505444e-01,-1.393873839441834850e-01,2.312837948581541736e-01,2.142079198807196327e+00
5.383333333333332860e+00,1.643763349761102676e+09,3.981717527225532571e-02,-2.937747454072385800e+00,-2.937747454072385800e+00,2.916525103765505444e-01,-5.760495020367893682e-02,2.662755302218258735e-01,2.057164923372257093e+00
5.400000000000000355e+00,1.643763349778057337e+09,4.629623474563991647e-02,-4.454857198182628153e+00,-4.454857198182628153e+00,3.237022367915554644e-01,2.406802256739613843e-02,2.996654928205758073e-01,1.949928474513253240e+00
5.416666666666666963e+00,1.643763349796008587e+09,5.241398211182348582e-02,-4.785622404020616116e+00,-4.785622404020616116e+00,3.237022367915554644e-01,1.048235185206726205e-01,3.312484613576230363e-01,1.840332191217873614e+00
5.433333333333333570e+00,1.643763349810969353e+09,5.817544288545686837e-02,-5.259719199055066241e+00,-5.259719199055066241e+00,3.237022367915554644e-01,1.838604729461637000e-01,3.609653968041063865e-01,1.726017610336241903e+00
5.450000000000000178e+00,1.643763349828945875e+09,6.358942888117585790e-02,-5.478024234908138723e+00,-5.478024234908138723e+00,3.237022367915554644e-01,2.603918664895465973e-01,3.887732965766301785e-01,1.611249171090074928e+00
5.466666666666666785e+00,1.643763349846873283e+09,6.866834315752273765e-02,-5.994017956015401438e+00,-5.994017956015401438e+00,3.237022367915554644e-01,3.336517041641525738e-01,4.146230902775881466e-01,1.491059939858262906e+00
5.483333333333333393e+00,1.643763349862837791e+09,7.342795187362696763e-02,-7.178157392915401225e+00,-7.178157392915401225e+00,3.237022367915554644e-01,4.029018212830443035e-01,4.383323416521254789e-01,1.354429762289852901e+00
5.500000000000000000e+00,1.643763349879785299e+09,7.788712571647918304e-02,-7.936712264970521957e+00,-7.936712264970521957e+00,3.237022367915554644e-01,4.674384598309102024e-01,4.596874366841157689e-01,1.208586770505535757e+00
5.516666666666666607e+00,1.643763349896764994e+09,8.206755383914218771e-02,-8.560755953318194500e+00,-8.560755953318194500e+00,2.916525103765505444e-01,5.265985606463502444e-01,4.785539370901935596e-01,1.055817646888260519e+00
5.533333333333333215e+00,1.643763349914704800e+09,8.599343350193212887e-02,-8.807727307010560835e+00,-8.807727307010560835e+00,2.916525103765505444e-01,5.797657190763858548e-01,4.948686176514124901e-01,9.023702731948053390e-01
5.549999999999999822e+00,1.643763349930649519e+09,8.969113882717137665e-02,-9.184799641665868819e+00,-9.184799641665868819e+00,2.916525103765505444e-01,6.263757544801824562e-01,5.086013925945637171e-01,7.459971001318926875e-01
5.566666666666666430e+00,1.643763349948601484e+09,9.318887226144656477e-02,-8.836393624849851136e+00,-8.836393624849851136e+00,3.237022367915554644e-01,6.659218470738488271e-01,5.198031304662841245e-01,5.986208326305721972e-01
5.583333333333333037e+00,1.643763349965555906e+09,9.651630248572298787e-02,-8.686446731536632271e+00,-8.686446731536632271e+00,3.237022367915554644e-01,6.979591991009443941e-01,5.285940886513577075e-01,4.566884155715705274e-01
5.599999999999999645e+00,1.643763349981513500e+09,9.970419262187148191e-02,-8.236606051596965017e+00,-8.236606051596965017e+00,2.916525103765505444e-01,7.221091811531796800e-01,5.351045781551209135e-01,3.249363115604108621e-01
5.616666666666666252e+00,1.643763350001460075e+09,1.027840226531314960e-01,-7.405282834257486790e+00,-7.405282834257486790e+00,2.916525103765505444e-01,7.380629286245148357e-01,5.395544232421911612e-01,2.093661347127910854e-01
5.633333333333332860e+00,1.643763350015422821e+09,1.057876100053427026e-01,-6.851802389821918915e+00,-6.851802389821918915e+00,2.916525103765505444e-01,7.455843577242430298e-01,5.421715471843232548e-01,1.049787102356977420e-01
5.650000000000000355e+00,1.643763350034372091e+09,1.087467322251084584e-01,-8.161632604940356472e+00,-8.161632604940356472e+00,3.237022367915554644e-01,7.445125751670009784e-01,5.428822363236376347e-01,-1.935064606650585550e-02
5.666666666666666963e+00,1.643763350053321600e+09,1.116927556408426891e-01,-8.582806967040728097e+00,-8.582806967040728097e+00,3.237022367915554644e-01,7.347636605609029203e-01,5.414784226193141148e-01,-1.487475541368460941e-01
5.683333333333333570e+00,1.643763350070301056e+09,1.146562738033355122e-01,-7.314873677995104018e+00,-7.314873677995104018e+00,3.237022367915554644e-01,7.163318055913161508e-01,5.381084479075327609e-01,-2.553532772984611898e-01
5.700000000000000178e+00,1.643763350085235357e+09,1.176667593752666885e-01,-6.554113704567728682e+00,-6.554113704567728682e+00,3.237022367915554644e-01,6.892897993055782102e-01,5.330777770704597796e-01,-3.480696715490907422e-01
5.716666666666666785e+00,1.643763350102190018e+09,1.207522329752735990e-01,-6.119708734233837433e+00,-6.119708734233837433e+00,3.237022367915554644e-01,6.537888541024117206e-01,5.265697358535057493e-01,-4.326602950009937887e-01
5.733333333333333393e+00,1.643763350120142698e+09,1.239389522835655510e-01,-5.927864914847805089e+00,-5.927864914847805089e+00,3.237022367915554644e-01,6.100577723758933146e-01,5.186839920167022333e-01,-5.134046702053888245e-01
5.750000000000000000e+00,1.643763350138094187e+09,1.272511244847913670e-01,-5.943300624453576653e+00,-5.943300624453576653e+00,2.916525103765505444e-01,5.584014591153354523e-01,5.094543942628758648e-01,-5.939233918738665574e-01
5.766666666666666607e+00,1.643763350154052019e+09,1.307106448623009676e-01,-5.733815994089517254e+00,-5.733815994089517254e+00,2.916525103765505444e-01,4.991987910762398784e-01,4.989146961202109987e-01,-6.706273137814229290e-01
5.783333333333333215e+00,1.643763350171006918e+09,1.343368640688887838e-01,-5.822020048979648088e+00,-5.822020048979648088e+00,2.916525103765505444e-01,4.328998583710961245e-01,4.870858536333145805e-01,-7.486171411380023732e-01
5.799999999999999822e+00,1.643763350187961578e+09,1.381463862855138447e-01,-5.306026327872385373e+00,-5.306026327872385373e+00,3.237022367915554644e-01,3.600225994405301666e-01,4.740291561512025020e-01,-8.179938391297545408e-01
5.816666666666666430e+00,1.643763350205913544e+09,1.421529001446509843e-01,-5.403050788251528402e+00,-5.403050788251528402e+00,3.237022367915554644e-01,2.811488553138694613e-01,4.598014675655970329e-01,-8.891311827597767614e-01
5.833333333333333037e+00,1.643763350221871138e+09,1.463670439422504743e-01,-5.464793626674619986e+00,-5.464793626674619986e+00,3.237022367915554644e-01,1.969198738141894056e-01,4.443778204109520291e-01,-9.615054314861389839e-01
5.849999999999999645e+00,1.643763350238852501e+09,1.507963062954342237e-01,-4.300500102124898305e+00,-4.300500102124898305e+00,3.237022367915554644e-01,1.080312988681880748e-01,4.279064676131164591e-01,-1.014908558742581901e+00
5.866666666666666252e+00,1.643763350259769440e+09,1.554449630257569992e-01,-3.572816649281324253e+00,-3.572816649281324253e+00,3.237022367915554644e-01,1.522768430956455976e-02,4.106401286809741036e-01,-1.056935369226635446e+00
5.883333333333332860e+00,1.643763350273732185e+09,1.603140506639903484e-01,-3.464766682040913981e+00,-3.464766682040913981e+00,3.237022367915554644e-01,-8.070342451796463923e-02,3.926808215342360575e-01,-1.098067230522545401e+00
5.900000000000000355e+00,1.643763350291685104e+09,1.654013765858879381e-01,-3.641174791821174761e+00,-3.641174791821174761e+00,3.237022367915554644e-01,-1.789377944768001383e-01,3.740037307627650520e-01,-1.143058682856040731e+00
5.916666666666666963e+00,1.643763350308639288e+09,1.707015654031153185e-01,-3.592662561631603690e+00,-3.592662561631603690e+00,3.237022367915554644e-01,-2.786211435857340879e-01,3.545759289137701553e-01,-1.188152276094001536e+00
5.933333333333333570e+00,1.643763350323599815e+09,1.762061408535347262e-01,-3.288358572260654089e+00,-3.288358572260654089e+00,3.237022367915554644e-01,-3.788760623126377070e-01,3.344309788865262867e-01,-1.229127903309645831e+00
5.950000000000000178e+00,1.643763350340553999e+09,1.819036420640148533e-01,-2.981849481517450773e+00,-2.981849481517450773e+00,3.237022367915554644e-01,-4.788091619308563196e-01,3.136372936920679977e-01,-1.266011862172659264e+00
5.966666666666666785e+00,1.643763350358505011e+09,1.877797727008158335e-01,-2.970823974656184419e+00,-2.970823974656184419e+00,3.237022367915554644e-01,-5.775183927133060724e-01,2.922218593609953730e-01,-1.303735467297744810e+00
5.983333333333333393e+00,1.643763350375461578e+09,1.938175811808987570e-01,-2.580521031767357698e+00,-2.580521031767357698e+00,3.237022367915554644e-01,-6.741004732451140180e-01,2.702234775530678590e-01,-1.335980777240025175e+00
6.000000000000000000e+00,1.643763350395407200e+09,1.999976697957006055e-01,-1.859452883040542126e+00,-1.859452883040542126e+00,3.237022367915554644e-01,-7.676583711116198305e-01,2.477787996800260850e-01,-1.357321286936186144e+00
6.016666666666666607e+00,1.643763350411364317e+09,2.062984303003248809e-01,-1.656583556793241874e+00,-1.656583556793241874e+00,3.237022367915554644e-01,-8.573087746684819876e-01,2.249970320613241537e-01,-1.376437724841846233e+00
6.033333333333333215e+00,1.643763350427321196e+09,2.126963032486101079e-01,-1.524277474458046733e+00,-1.524277474458046733e+00,3.237022367915554644e-01,-9.421894955338023792e-01,2.019058479307267451e-01,-1.394454323544446206e+00
6.049999999999999822e+00,1.643763350446271896e+09,2.191660581110375372e-01,-1.398586696239611182e+00,-1.398586696239611182e+00,3.237022367915554644e-01,-1.021466741854846205e+00,1.785232862768732498e-01,-1.411405985858833700e+00
6.066666666666666430e+00,1.643763350462229252e+09,2.256810910002599035e-01,-1.323613249583000195e+00,-1.323613249583000195e+00,3.237022367915554644e-01,-1.094342203295885607e+00,1.548608280646020241e-01,-1.428042785194543862e+00
6.083333333333333037e+00,1.643763350480181217e+09,2.322137366503705669e-01,-8.870031778768550090e-01,-8.870031778768550090e-01,3.237022367915554644e-01,-1.160059890058398935e+00,1.309746155877008489e-01,-1.438274290516563525e+00
6.099999999999999645e+00,1.643763350499130487e+09,2.387355911526564956e-01,-6.973644598630749369e-01,-6.973644598630749369e-01,2.916525103765505444e-01,-1.217912670072412995e+00,1.069374935422335721e-01,-1.446158453970020963e+00
6.116666666666666252e+00,1.643763350516124487e+09,2.452178418439112662e-01,0.000000000000000000e+00,0.000000000000000000e+00,3.237022367915554644e-01,-1.267248450773467150e+00,8.285956378164566205e-02,-1.443201331722324232e+00
6.133333333333332860e+00,1.643763350533069611e+09,2.516316006744849787e-01,0.000000000000000000e+00,0.000000000000000000e+00,2.916525103765505444e-01,-1.307475954584667921e+00,5.882495470975356716e-02,-1.440957988560176650e+00
6.150000000000000355e+00,1.643763350549993038e+09,2.579482373528074746e-01,1.329521287890256254e+00,1.329521287890256254e+00,3.237022367915554644e-01,-1.338070040339252698e+00,3.500683331217324668e-02,-1.417282346370079660e+00
6.166666666666666963e+00,1.643763350565950394e+09,2.641397085713700910e-01,2.656542927873219551e+00,2.656542927873219551e+00,2.916525103765505444e-01,-1.358576526378011629e+00,1.176049238455798007e-02,-1.372403232084211000e+00
6.183333333333333570e+00,1.643763350584900141e+09,2.701788796660581360e-01,2.761733667627966682e+00,2.761733667627966682e+00,2.916525103765505444e-01,-1.368616474914278625e+00,-1.073091975585742375e-02,-1.326693200065234057e+00
6.200000000000000178e+00,1.643763350600857973e+09,2.760398351456930799e-01,2.934354368763961940e+00,2.934354368763961940e+00,3.237022367915554644e-01,-1.367889901443449130e+00,-3.244286870965633340e-02,-1.278873509989426616e+00
6.216666666666666785e+00,1.643763350620830536e+09,2.816981746508765982e-01,4.843970875080910510e+00,4.843970875080910510e+00,2.916525103765505444e-01,-1.356178877453456000e+00,-5.309905299113928945e-02,-1.200087459080819485e+00
6.233333333333333393e+00,1.643763350634767294e+09,2.871312910593738499e-01,5.871603486531130400e+00,5.871603486531130400e+00,3.237022367915554644e-01,-1.333349999431227895e+00,-7.230792812773297051e-02,-1.105241025825894008e+00
6.250000000000000000e+00,1.643763350651721954e+09,2.923186276477682810e-01,6.553994695709362439e+00,6.553994695709362439e+00,2.916525103765505444e-01,-1.299356202120331538e+00,-8.985018215887960458e-02,-1.000121463568263591e+00
6.266666666666666607e+00,1.643763350668676615e+09,2.972419114439448506e-01,6.556691894164614176e+00,6.556691894164614176e+00,2.916525103765505444e-01,-1.254237899128508360e+00,-1.056483583512046326e-01,-8.959490541253367635e-01
6.283333333333333215e+00,1.643763350686628580e+09,3.018853601598038838e-01,6.869566914973604277e+00,6.869566914973604277e+00,3.237022367915554644e-01,-1.198123439269219492e+00,-1.196737510534671423e-01,-7.873996034946678657e-01
6.299999999999999822e+00,1.643763350701588154e+09,3.062358603758980058e-01,7.042187616109599979e+00,7.042187616109599979e+00,3.237022367915554644e-01,-1.131228872407485930e+00,-1.318718971811755902e-01,-6.766854783052574929e-01
6.316666666666666430e+00,1.643763350720566511e+09,3.102831149564765356e-01,7.692212443824830714e+00,7.692212443824830714e+00,3.237022367915554644e-01,-1.053857024024511091e+00,-1.421396313874221939e-01,-5.557784871023389028e-01
6.333333333333333037e+00,1.643763350738490105e+09,3.140197580016047540e-01,6.780559365950357353e+00,6.780559365950357353e+00,3.237022367915554644e-01,-9.663958831747312406e-01,-1.505227866091640720e-01,-4.504926071676699229e-01
6.349999999999999645e+00,1.643763350755444765e+09,3.174414359892491766e-01,6.106259752137875196e+00,6.106259752137875196e+00,3.237022367915554644e-01,-8.693163139398443207e-01,-1.572454452241725809e-01,-3.564875579160275976e-01
6.366666666666666252e+00,1.643763350770404816e+09,3.205468541208851829e-01,5.121782315971652899e+00,5.121782315971652899e+00,2.916525103765505444e-01,-7.631691058444158848e-01,-1.625356524519914470e-01,-2.785537971860881368e-01
6.383333333333332860e+00,1.643763350787358761e+09,3.233377872556799093e-01,5.324072200115397280e+00,5.324072200115397280e+00,2.916525103765505444e-01,-6.485813839438205886e-01,-1.664939606245037229e-01,-1.966706420773829123e-01
6.400000000000000355e+00,1.643763350806308985e+09,3.258190551967405368e-01,5.917455860270379731e+00,5.917455860270379731e+00,3.237022367915554644e-01,-5.262524043862427670e-01,-1.690000047005281170e-01,-1.043112070699562521e-01
6.416666666666666963e+00,1.643763350822273731e+09,3.279984624744852750e-01,4.846668073536159582e+00,4.846668073536159582e+00,3.237022367915554644e-01,-3.969487661462886008e-01,-1.701095198513734863e-01,-2.903970346261304514e-02
6.433333333333333570e+00,1.643763350839220762e+09,3.298867031529310601e-01,3.810943866720189366e+00,3.810943866720189366e+00,3.237022367915554644e-01,-2.614990742886937891e-01,-1.700992528449501162e-01,3.010744273815518790e-02
6.450000000000000178e+00,1.643763350856202126e+09,3.314972315607244702e-01,3.371300518514450673e+00,3.371300518514450673e+00,2.916525103765505444e-01,-1.207880945102199899e-01,-1.691526581897457304e-01,8.333605514968797645e-02
6.466666666666666785e+00,1.643763350874127626e+09,3.328461002161793303e-01,3.910740209564435244e+00,3.910740209564435244e+00,2.916525103765505444e-01,2.424955720848087637e-02,-1.672317316047372826e-01,1.469982913442281491e-01
6.483333333333333393e+00,1.643763350891083241e+09,3.339517665706657756e-01,3.678781142412942184e+00,3.678781142412942184e+00,3.237022367915554644e-01,1.726361422651768729e-01,-1.642701038825758464e-01,2.082269517000353565e-01
6.500000000000000000e+00,1.643763350908062696e+09,3.348348705337541587e-01,3.686872737778692510e+00,3.686872737778692510e+00,2.916525103765505444e-01,3.233578934606129440e-01,-1.602745200422669714e-01,2.710685450470482483e-01
6.516666666666666607e+00,1.643763350924991608e+09,3.355179850630380933e-01,3.204074214288956224e+00,3.204074214288956224e+00,3.237022367915554644e-01,4.753724214534908454e-01,-1.552859440755801623e-01,3.274040796760688821e-01
6.533333333333333215e+00,1.643763350942943335e+09,3.360253423982746956e-01,3.635625967128942371e+00,3.635625967128942371e+00,3.237022367915554644e-01,6.276163771535427927e-01,-1.492855894693349839e-01,3.924577641411984841e-01
6.549999999999999822e+00,1.643763350959933281e+09,3.363825387902492636e-01,3.991656163221932729e+00,3.991656163221932729e+00,3.237022367915554644e-01,7.790133114394839353e-01,-1.421399059475897675e-01,4.648232385304769121e-01
6.566666666666666430e+00,1.643763350977883816e+09,3.366162208168209657e-01,3.692267134689191099e+00,3.692267134689191099e+00,2.916525103765505444e-01,9.284816719263154772e-01,-1.338188334589307804e-01,5.335146461520763328e-01
6.583333333333333037e+00,1.643763350994805574e+09,3.367537565893939377e-01,3.514252036642696808e+00,3.514252036642696808e+00,3.237022367915554644e-01,1.074942875312653978e+00,-1.243667501077491411e-01,6.005491446668171918e-01
6.599999999999999645e+00,1.643763351011785507e+09,3.368228953303089579e-01,3.080003085347459368e+00,3.080003085347459368e+00,2.916525103765505444e-01,1.217329393128040005e+00,-1.138469961379814793e-01,6.616515986716411390e-01
6.616666666666666252e+00,1.643763351027717113e+09,3.368514189435599104e-01,2.796797247546216614e+00,2.796797247546216614e+00,3.237022367915554644e-01,1.354592788473394371e+00,-1.023374650792086699e-01,7.193319015465284849e-01
6.633333333333332860e+00,1.643763351044671535e+09,3.368667893061864094e-01,2.880410399658963616e+00,2.880410399658963616e+00,3.237022367915554644e-01,1.485711641612065037e+00,-8.984490357969121543e-02,7.796080407348614516e-01
6.649999999999999467e+00,1.643763351062647820e+09,3.368957950745850027e-01,2.783311255269966811e+00,2.783311255269966811e+00,3.237022367915554644e-01,1.609699303018028660e+00,-7.635235127540199174e-02,8.393323310687055283e-01
6.666666666666666963e+00,1.643763351078580856e+09,3.369642018279823681e-01,2.227688373488481144e+00,2.227688373488481144e+00,3.237022367915554644e-01,1.725611413720411047e+00,-6.193337635210142966e-02,8.908016859322198666e-01
6.683333333333333570e+00,1.643763351096532822e+09,3.370964093600484768e-01,2.241174365764731391e+00,2.241174365764731391e+00,3.237022367915554644e-01,1.832553134486647695e+00,-4.664705428490237976e-02,9.434108222025437973e-01
6.700000000000000178e+00,1.643763351115482330e+09,3.373151198791376482e-01,2.006518100157987483e+00,2.006518100157987483e+00,3.237022367915554644e-01,1.929686027550018501e+00,-3.051017447685258968e-02,9.928773445229607253e-01
6.716666666666666785e+00,1.643763351134457588e+09,3.376410207882358794e-01,1.901327360403241018e+00,1.901327360403241018e+00,2.916525103765505444e-01,2.016234537192784337e+00,-1.355825984499945194e-02,1.041218128184374647e+00
6.733333333333333393e+00,1.643763351147397280e+09,3.380924855882775359e-01,1.499444790571001329e+00,1.499444790571001329e+00,2.916525103765505444e-01,2.091492018523856800e+00,4.147544041183653246e-03,1.083361271116439095e+00
6.750000000000000000e+00,1.643763351165374756e+09,3.386852962841239156e-01,8.413283674900200459e-01,8.413283674900200459e-01,3.237022367915554644e-01,2.154826267216965796e+00,2.246776120026555343e-02,1.114976964535806969e+00
6.766666666666666607e+00,1.643763351180308104e+09,3.394323904728228092e-01,5.662141250545267290e-01,5.662141250545267290e-01,3.237022367915554644e-01,2.205684506774109988e+00,4.127956545663833549e-02,1.142363470809911519e+00
6.783333333333333215e+00,1.643763351198261499e+09,3.403436360606248434e-01,0.000000000000000000e+00,0.000000000000000000e+00,3.237022367915554644e-01,2.243597794020862679e+00,6.047105967100963042e-02,1.160565273162554645e+00
6.799999999999999822e+00,1.643763351218207598e+09,3.414256362909086073e-01,-6.642879392792755411e-01,-6.642879392792755411e-01,3.237022367915554644e-01,2.268184807992076557e+00,7.987504740490597444e-02,1.167892899907204907e+00
6.816666666666666430e+00,1.643763351235161543e+09,3.426815674722066274e-01,-7.458766900526462296e-01,-7.458766900526462296e-01,3.237022367915554644e-01,2.279154992094292620e+00,9.939039628408564975e-02,1.173932189395386017e+00
6.833333333333333037e+00,1.643763351250122309e+09,3.441110514767995454e-01,-6.642879392792755411e-01,-6.642879392792755411e-01,3.237022367915554644e-01,2.276311024397505101e+00,1.190164421071207290e-01,1.181173194990988051e+00
6.849999999999999645e+00,1.643763351267076254e+09,3.457100647389542702e-01,-6.488522296735026451e-01,-6.488522296735026451e-01,2.916525103765505444e-01,2.259550596075306395e+00,1.387619882546331507e-01,1.188272621616839109e+00
6.866666666666666252e+00,1.643763351284031391e+09,3.474708851212238714e-01,-6.400318241844897837e-01,-6.400318241844897837e-01,2.916525103765505444e-01,2.228867483338156763e+00,1.586218579148611363e-01,1.194893346275838875e+00
6.883333333333332860e+00,1.643763351301983118e+09,3.493820776408031459e-01,-6.091604049729439918e-01,-6.091604049729439918e-01,3.237022367915554644e-01,2.184351903648293014e+00,1.785892739900256931e-01,1.201179121845263431e+00
6.899999999999999467e+00,1.643763351320932388e+09,3.514285196595172134e-01,0.000000000000000000e+00,0.000000000000000000e+00,3.237022367915554644e-01,2.126190152523565136e+00,1.987366890058912261e-01,1.216468209371457387e+00
6.916666666666666963e+00,1.643763351336889744e+09,3.535914657444393372e-01,-5.518277692943597268e-01,-5.518277692943597268e-01,3.237022367915554644e-01,2.054663522788441554e+00,2.190507123901655473e-01,1.221201448545417678e+00
6.933333333333333570e+00,1.643763351354842424e+09,3.558486520053234514e-01,-5.826991885059046306e-01,-5.826991885059046306e-01,3.237022367915554644e-01,1.970146513669960520e+00,2.394270318293529876e-01,1.223949251192297805e+00
6.950000000000000178e+00,1.643763351369801998e+09,3.581744393140297023e-01,-9.619766245334657739e-01,-9.619766245334657739e-01,3.237022367915554644e-01,1.873104342620880658e+00,2.597829789496499120e-01,1.218778766040124362e+00
6.966666666666666785e+00,1.643763351387754440e+09,3.605399944138680257e-01,-8.517215559208027864e-01,-8.517215559208027864e-01,3.237022367915554644e-01,1.764089778139300346e+00,2.800536368064492909e-01,1.213714245220300025e+00
6.983333333333333393e+00,1.643763351402713776e+09,3.629135075373178254e-01,-7.238256763301134100e-01,-7.238256763301134100e-01,3.237022367915554644e-01,1.643739317100588515e+00,3.002416276740362822e-01,1.208858148365554275e+00
7.000000000000000000e+00,1.643763351421664238e+09,3.652604447727893500e-01,0.000000000000000000e+00,0.000000000000000000e+00,3.237022367915554644e-01,1.512768735183561919e+00,3.204312397620228126e-01,1.213881348530627236e+00
7.016666666666666607e+00,1.643763351439615488e+09,3.675438330587751934e-01,0.000000000000000000e+00,0.000000000000000000e+00,2.916525103765505444e-01,1.371968043817120675e+00,3.406844305841002507e-01,1.216494291772168390e+00
7.033333333333333215e+00,1.643763351455573320e+09,3.697245753405711266e-01,0.000000000000000000e+00,0.000000000000000000e+00,2.916525103765505444e-01,1.222195891660308398e+00,3.609601229547911849e-01,1.216588530929149314e+00
7.049999999999999822e+00,1.643763351475520134e+09,3.717617931042123125e-01,0.000000000000000000e+00,0.000000000000000000e+00,3.237022367915554644e-01,1.064373452919415097e+00,3.812155744477513375e-01,1.214072636984846021e+00
7.066666666666666430e+00,1.643763351488485336e+09,3.736131932076194317e-01,-6.025451008561847344e-01,-6.025451008561847344e-01,3.237022367915554644e-01,8.994778487694552460e-01,4.013234425783938075e-01,1.198913647986091346e+00
7.083333333333333037e+00,1.643763351506437540e+09,3.752354556632158111e-01,-1.153820443919499450e+00,-1.153820443919499450e+00,3.237022367915554644e-01,7.285351517502119956e-01,4.210810015434525710e-01,1.172068000818211164e+00
7.099999999999999645e+00,1.643763351522394896e+09,3.765846387921854554e-01,-1.579405008764378282e+00,-1.579405008764378282e+00,2.916525103765505444e-01,5.526130262236295110e-01,4.403117605856867733e-01,1.135724042066964534e+00
7.116666666666666252e+00,1.643763351541344166e+09,3.776165979705464193e-01,-1.623507036209443477e+00,-1.623507036209443477e+00,3.237022367915554644e-01,3.728130607821091846e-01,4.589108813728060010e-01,1.096280021689389761e+00
7.133333333333332860e+00,1.643763351557301283e+09,3.782874140233849491e-01,-1.731557003449852639e+00,-1.731557003449852639e+00,3.237022367915554644e-01,1.902628508658523176e-01,4.768179120066050047e-01,1.052684755179190690e+00
7.149999999999999467e+00,1.643763351574256182e+09,3.785538271977297309e-01,-1.892529403624340745e+00,-1.892529403624340745e+00,3.237022367915554644e-01,6.107891762550301390e-03,4.939567071021251365e-01,1.004105601552640836e+00
7.166666666666666963e+00,1.643763351591211081e+09,3.783736725579578963e-01,-2.218884406717823055e+00,-2.218884406717823055e+00,3.237022367915554644e-01,-1.784966563903080949e-01,5.102219854259689713e-01,9.478839721769947158e-01
7.183333333333333570e+00,1.643763351610160112e+09,3.777063126013768812e-01,-2.558470018044824545e+00,-2.558470018044824545e+00,3.237022367915554644e-01,-3.623942690129156041e-01,5.254856981889594048e-01,8.839391879630419391e-01
7.200000000000000178e+00,1.643763351625120163e+09,3.765130628862898843e-01,-2.567290423533837629e+00,-2.567290423533837629e+00,3.237022367915554644e-01,-5.444353598319284782e-01,5.396661347487817784e-01,8.178966550137901637e-01
7.216666666666666785e+00,1.643763351642074823e+09,3.747576065006039681e-01,-2.587136335884117511e+00,-2.587136335884117511e+00,3.237022367915554644e-01,-7.234855229129675269e-01,5.527275126285389195e-01,7.496582461540816089e-01
7.233333333333333393e+00,1.643763351659029484e+09,3.724063932757251671e-01,-2.977439278772944231e+00,-2.977439278772944231e+00,3.237022367915554644e-01,-8.984336514191022527e-01,5.645829360570232547e-01,6.732049405557298805e-01
7.250000000000000000e+00,1.643763351675984144e+09,3.694290197674552356e-01,-3.301589180494172826e+00,-3.301589180494172826e+00,2.916525103765505444e-01,-1.068199871525472133e+00,5.751064775530555506e-01,5.898515815260368944e-01
7.266666666666666607e+00,1.643763351694933414e+09,3.657985861818801587e-01,-3.308204484610933527e+00,-3.308204484610933527e+00,3.237022367915554644e-01,-1.231743231385552306e+00,5.842288068065603079e-01,5.050634570059240325e-01
7.283333333333333215e+00,1.643763351711888313e+09,3.614920266184069586e-01,-3.729378846711305595e+00,-3.729378846711305595e+00,3.237022367915554644e-01,-1.388069086977485878e+00,5.918699470112384065e-01,4.121315179064327650e-01
7.299999999999999822e+00,1.643763351729840040e+09,3.564904092324245322e-01,-3.500048303996966315e+00,-3.500048303996966315e+00,3.237022367915554644e-01,-1.536236129043492271e+00,5.979862677132649074e-01,3.220771233203986172e-01
7.316666666666666430e+00,1.643763351745796919e+09,3.507792031843744440e-01,-3.839633915323968250e+00,-3.839633915323968250e+00,3.237022367915554644e-01,-1.675362998152484018e+00,6.025480001901106775e-01,2.255987756189453131e-01
7.333333333333333037e+00,1.643763351764746904e+09,3.443485095378953087e-01,-4.492343921510933313e+00,-4.492343921510933313e+00,2.916525103765505444e-01,-1.804634438144412600e+00,6.054070781752576291e-01,1.177900583062093109e-01
7.349999999999999645e+00,1.643763351780703306e+09,3.371932535943274467e-01,-4.174809323906463199e+00,-4.174809323906463199e+00,3.237022367915554644e-01,-1.923306941827785943e+00,6.065117017306598246e-01,1.505016365523634270e-02
7.366666666666666252e+00,1.643763351796694279e+09,3.293133365011995939e-01,-4.165988918417450115e+00,-4.165988918417450115e+00,2.916525103765505444e-01,-2.030713846772180808e+00,6.059045673775625973e-01,-8.762108141149360652e-02
7.383333333333332860e+00,1.643763351814612865e+09,3.207137443450519543e-01,-4.432806184460094556e+00,-4.432806184460094556e+00,3.237022367915554644e-01,-2.126269843332492471e+00,6.035503754344405669e-01,-1.945848232649147191e-01
7.399999999999999467e+00,1.643763351830570936e+09,3.114046133304636532e-01,-4.772391795787096491e+00,-4.772391795787096491e+00,2.916525103765505444e-01,-2.209474861629528775e+00,5.993698322931008127e-01,-3.067687244138520564e-01
7.416666666666666963e+00,1.643763351848552227e+09,3.014012500538154060e-01,-5.081105987902552634e+00,-5.081105987902552634e+00,2.916525103765505444e-01,-2.279917309053406171e+00,5.932826830581072741e-01,-4.233652967947911794e-01
7.433333333333333570e+00,1.643763351864480495e+09,2.907241062981282265e-01,-5.577253796659535467e+00,-5.577253796659535467e+00,3.237022367915554644e-01,-2.337276634917071938e+00,5.851919113119024018e-01,-5.471833655748631342e-01
7.450000000000000178e+00,1.643763351882432699e+09,2.793987082003235312e-01,-6.562934110056742654e+00,-6.562934110056742654e+00,2.916525103765505444e-01,-2.381325204124526973e+00,5.749123802324008770e-01,-6.859748230650493106e-01
7.466666666666666785e+00,1.643763351899386883e+09,2.674555400703726993e-01,-6.459294345560839368e+00,-6.459294345560839368e+00,3.237022367915554644e-01,-2.411929467092968959e+00,5.623489158400045707e-01,-8.212650888835497653e-01
7.483333333333333393e+00,1.643763351915344238e+09,2.549298835688512122e-01,-6.382115797531976220e+00,-6.382115797531976220e+00,2.916525103765505444e-01,-2.429050418636347963e+00,5.475575952281810377e-01,-9.533265385411981985e-01
7.500000000000000000e+00,1.643763351933296204e+09,2.418616133713225314e-01,-6.071196504044266362e+00,-6.071196504044266362e+00,2.916525103765505444e-01,-2.432743344037792355e+00,5.306259251079754602e-01,-1.078127199222360222e+00
7.516666666666666607e+00,1.643763351950250387e+09,2.282949508606497147e-01,-6.311552553619871553e+00,-6.311552553619871553e+00,3.237022367915554644e-01,-2.423156856066173592e+00,5.115996074989462850e-01,-1.204679371774765029e+00
7.533333333333333215e+00,1.643763351967205763e+09,2.142781777877458826e-01,-6.263040323430299594e+00,-6.263040323430299594e+00,3.237022367915554644e-01,-2.400531232184267338e+00,4.904913920591625898e-01,-1.327964015595224145e+00
7.549999999999999822e+00,1.643763351984160662e+09,1.998633122235814463e-01,-6.243194411080019712e+00,-6.243194411080019712e+00,3.237022367915554644e-01,-2.365196066609970504e+00,4.673530823302412540e-01,-1.448298880494469199e+00
7.566666666666666430e+00,1.643763352002139091e+09,1.851057494867357767e-01,-6.695240192391937128e+00,-6.695240192391937128e+00,3.237022367915554644e-01,-2.317567257184821372e+00,4.421699539572999105e-01,-1.573329209614473756e+00
7.583333333333333037e+00,1.643763352022059202e+09,1.700638710678978871e-01,-6.576164718290262279e+00,-6.576164718290262279e+00,3.237022367915554644e-01,-2.258143352134509563e+00,4.149449104404509536e-01,-1.693342633938037745e+00
7.599999999999999645e+00,1.643763352038015604e+09,1.547986248821622279e-01,-6.066786301299760709e+00,-6.066786301299760709e+00,3.237022367915554644e-01,-2.187501286733912309e+00,3.858163322173681076e-01,-1.801785515515516023e+00
7.616666666666666252e+00,1.643763352054971218e+09,1.393730804587907657e-01,-5.954326131314842563e+00,-5.954326131314842563e+00,3.237022367915554644e-01,-2.106291544575875641e+00,3.549221006044748772e-01,-1.905234911834134737e+00
7.633333333333332860e+00,1.643763352071925402e+09,1.238519629234624136e-01,-5.627971128221362029e+00,-5.627971128221362029e+00,3.237022367915554644e-01,-2.015232782551791058e+00,3.223756542660246027e-01,-2.000075197341903532e+00
7.649999999999999467e+00,1.643763352088880301e+09,1.083011698376222243e-01,-4.225526655468288872e+00,-4.225526655468288872e+00,3.237022367915554644e-01,-1.915105962748724355e+00,2.884691717866694205e-01,-2.068512591832831760e+00
7.666666666666666963e+00,1.643763352107829809e+09,9.278727513120030301e-02,-4.183629729395476282e+00,-4.183629729395476282e+00,3.237022367915554644e-01,-1.806748038220343577e+00,2.534522719478120023e-01,-2.133335321454238098e+00
7.683333333333333570e+00,1.643763352122789860e+09,7.737702449705721741e-02,-3.727173745339051880e+00,-3.727173745339051880e+00,3.237022367915554644e-01,-1.691045242968010065e+00,2.174429734857800112e-01,-2.187629672797323899e+00
7.700000000000000178e+00,1.643763352143733740e+09,6.213682670667063090e-02,-3.374357525778530320e+00,-3.374357525778530320e+00,3.237022367915554644e-01,-1.568926039447951837e+00,1.806018666485437185e-01,-2.233176625380528968e+00
7.716666666666666785e+00,1.643763352158694744e+09,4.713224535589478903e-02,-2.582726133139610081e+00,-2.582726133139610081e+00,2.916525103765505444e-01,-1.441353779477118735e+00,1.431348957698926894e-01,-2.262777653045489945e+00
7.733333333333333393e+00,1.643763352175647974e+09,3.242749555655861926e-02,-2.176987480645010908e+00,-2.176987480645010908e+00,2.916525103765505444e-01,-1.309319136524945248e+00,1.052529404547706132e-01,-2.283000808016533600e+00
7.750000000000000000e+00,1.643763352194597960e+09,1.808495005411085016e-02,-2.009399776353763656e+00,-2.009399776353763656e+00,3.237022367915554644e-01,-1.173832369033612766e+00,6.707858658632122328e-02,-2.297880323237873945e+00
7.766666666666666607e+00,1.643763352208561897e+09,4.164659173783776674e-03,-1.246434701554135938e+00,-1.246434701554135938e+00,2.916525103765505444e-01,-1.035915475594316515e+00,2.878272623055029567e-02,-2.297623632501244018e+00
7.783333333333333215e+00,1.643763352227509022e+09,-9.276111121525255215e-03,-9.928480437450114549e-01,-9.928480437450114549e-01,3.237022367915554644e-01,-8.965943035106069825e-01,-9.454622775014936975e-03,-2.290876989283272547e+00
7.799999999999999822e+00,1.643763352244464159e+09,-2.218331893806818611e-02,-8.958235833658677594e-01,-8.958235833658677594e-01,3.237022367915554644e-01,-7.568906725000583702e-01,-4.754776257457171695e-02,-2.280329087081481187e+00
7.816666666666666430e+00,1.643763352260421515e+09,-3.450655999774419891e-02,-7.348511831913797643e-01,-7.348511831913797643e-01,2.916525103765505444e-01,-6.178145750168352324e-01,-8.542511803740181209e-02,-2.264996160922121415e+00
7.833333333333333037e+00,1.643763352278373957e+09,-4.619945133482291494e-02,0.000000000000000000e+00,0.000000000000000000e+00,3.237022367915554644e-01,-4.803565139279090124e-01,-1.229285587342438812e-01,-2.235498662124077995e+00
7.849999999999999645e+00,1.643763352294332981e+09,-5.721998172382083275e-02,6.821936586302744798e-01,6.821936586302744798e-01,2.916525103765505444e-01,-3.454800370457238312e-01,-1.598315945255595061e-01,-2.192983732639686600e+00
7.866666666666666252e+00,1.643763352313280582e+09,-6.753082572209109791e-02,8.898779396845187817e-01,8.898779396845187817e-01,3.237022367915554644e-01,-2.141145263254370379e-01,-1.959850906156600792e-01,-2.145567512993601156e+00
7.883333333333332860e+00,1.643763352329284668e+09,-7.709961854265615089e-02,1.224330548135509122e+00,1.224330548135509122e+00,3.237022367915554644e-01,-8.714829738459073383e-02,-2.312911341301874812e-01,-2.091308431966558246e+00
7.899999999999999467e+00,1.643763352347190142e+09,-8.589918933101464704e-02,1.410437241547754406e+00,1.410437241547754406e+00,2.916525103765505444e-01,3.457793758101912474e-02,-2.656578358812753393e-01,-2.032858143896657310e+00
7.916666666666666963e+00,1.643763352364173174e+09,-9.390775080062943592e-02,2.014609695523737365e+00,2.014609695523737365e+00,3.237022367915554644e-01,1.502771934126553299e-01,-2.989590103077308658e-01,-1.963475521321262018e+00
7.933333333333333570e+00,1.643763352382096767e+09,-1.011090435819529121e-01,3.066517093071208233e+00,3.066517093071208233e+00,3.237022367915554644e-01,2.592218754525719149e-01,-3.309530533852488299e-01,-1.876052495435014400e+00
7.950000000000000178e+00,1.643763352398054123e+09,-1.074924340553307933e-01,3.964684178669434900e+00,3.964684178669434900e+00,3.237022367915554644e-01,3.607489399290638721e-01,-3.613640426884593970e-01,-1.773550954155162174e+00
7.966666666666666785e+00,1.643763352417003393e+09,-1.130529648649740704e-01,4.342291962404424055e+00,4.342291962404424055e+00,3.237022367915554644e-01,4.542645124232463916e-01,-3.900157587413266569e-01,-1.664956630188500375e+00
7.983333333333333393e+00,1.643763352434955359e+09,-1.177913577453597038e-01,4.552673441913918317e+00,4.552673441913918317e+00,3.237022367915554644e-01,5.392479299667776171e-01,-4.168317725500017001e-01,-1.553275260181813611e+00
8.000000000000000000e+00,1.643763352451913118e+09,-1.217139687287520644e-01,4.674047372400163880e+00,4.674047372400163880e+00,3.237022367915554644e-01,6.152551769745948640e-01,-4.417745932917267471e-01,-1.440177396950509170e+00
8.016666666666665719e+00,1.643763352467888117e+09,-1.248326962388227324e-01,4.528398655816668672e+00,4.528398655816668672e+00,3.237022367915554644e-01,6.819216900998161801e-01,-4.648589798409170082e-01,-1.330254337969377421e+00
8.033333333333333215e+00,1.643763352482829094e+09,-1.271648430064903634e-01,5.326769398570647240e+00,5.326769398570647240e+00,3.237022367915554644e-01,7.389645121709665920e-01,-4.860083478864429263e-01,-1.208009404744824655e+00
8.050000000000000711e+00,1.643763352501777887e+09,-1.287329331659547715e-01,5.008499980851155442e+00,5.008499980851155442e+00,3.237022367915554644e-01,7.861837805934822621e-01,-5.051746224912671002e-01,-1.092265067449256444e+00
8.066666666666666430e+00,1.643763352517735004e+09,-1.295644862974315581e-01,4.970739202477655994e+00,4.970739202477655994e+00,2.916525103765505444e-01,8.234635409273984852e-01,-5.224278779119038152e-01,-9.784417663052021874e-01
8.083333333333333925e+00,1.643763352534689188e+09,-1.296917505744480392e-01,5.305191810928647556e+00,5.305191810928647556e+00,3.237022367915554644e-01,8.507718817479894557e-01,-5.377498330417997963e-01,-8.605204162973622006e-01
8.099999999999999645e+00,1.643763352553637981e+09,-1.291513975440289064e-01,6.440712360588866758e+00,6.440712360588866758e+00,2.916525103765505444e-01,8.681603923135301493e-01,-5.509634793192674795e-01,-7.254922241381879244e-01
8.116666666666667140e+00,1.643763352569627285e+09,-1.279841814140955658e-01,6.788650961316108123e+00,6.788650961316108123e+00,3.237022367915554644e-01,8.757629499608616808e-01,-5.618961983664922943e-01,-5.868192732363469721e-01
8.133333333333332860e+00,1.643763352587574244e+09,-1.262345660407568626e-01,6.200661698071623817e+00,6.200661698071623817e+00,3.237022367915554644e-01,8.737938494828667579e-01,-5.706183404860950548e-01,-4.601895386575027835e-01
8.150000000000000355e+00,1.643763352601535797e+09,-1.239503230957913343e-01,6.181781308884873205e+00,6.181781308884873205e+00,3.237022367915554644e-01,8.625452919691294351e-01,-5.772516386166600677e-01,-3.361507971793710747e-01
8.166666666666666075e+00,1.643763352620484591e+09,-1.211821051488489870e-01,5.793384731328883319e+00,5.793384731328883319e+00,3.237022367915554644e-01,8.423842556711372831e-01,-5.818911868636049700e-01,-2.209150991490925475e-01
8.183333333333333570e+00,1.643763352637448072e+09,-1.179829976173301098e-01,5.939033447912379415e+00,5.939033447912379415e+00,3.237022367915554644e-01,8.137487763461378476e-01,-5.846098946287733300e-01,-1.056500209796155249e-01
8.199999999999999289e+00,1.643763352656363726e+09,-1.144080537175411055e-01,5.774504342142134483e+00,5.774504342142134483e+00,2.916525103765505444e-01,7.771436691997815061e-01,-5.854512189857427051e-01,4.385436899719152848e-03
8.216666666666666785e+00,1.643763352670326710e+09,-1.105138166918678000e-01,6.224936484168871687e+00,6.224936484168871687e+00,3.237022367915554644e-01,7.331357289513278364e-01,-5.844176816835263688e-01,1.193197698161728437e-01
8.233333333333332504e+00,1.643763352690298319e+09,-1.063578336870946994e-01,5.828448311247133695e+00,5.828448311247133695e+00,3.237022367915554644e-01,6.823484486497752854e-01,-5.815462248622239594e-01,2.249615923264856043e-01
8.250000000000000000e+00,1.643763352706255198e+09,-1.019981657177497225e-01,5.572214457998389214e+00,5.572214457998389214e+00,3.237022367915554644e-01,6.254563016448817514e-01,-5.769719114197162657e-01,3.236817915446990601e-01
8.266666666666665719e+00,1.643763352723185301e+09,-9.749289816500428252e-02,5.458932122877894422e+00,5.458932122877894422e+00,3.237022367915554644e-01,5.631786345309388597e-01,-5.707901450418542133e-01,4.178685377903175735e-01
8.283333333333333215e+00,1.643763352740164518e+09,-9.289965623608181788e-02,5.526362084259141660e+00,5.526362084259141660e+00,3.237022367915554644e-01,4.962732219096457342e-01,-5.630515362293500026e-01,5.105071840806264527e-01
8.300000000000000711e+00,1.643763352758123398e+09,-8.827512974172964377e-02,4.528398655816668672e+00,4.528398655816668672e+00,3.237022367915554644e-01,4.255295364345036413e-01,-5.539293556345519232e-01,5.839504733566812655e-01
8.316666666666666430e+00,1.643763352777041197e+09,-8.367461144082176394e-02,3.881071026556687009e+00,3.881071026556687009e+00,3.237022367915554644e-01,3.517617897854546372e-01,-5.436928622953736134e-01,6.442611936232052194e-01
8.333333333333333925e+00,1.643763352792025089e+09,-7.915155305264703900e-02,3.948500987937935136e+00,3.948500987937935136e+00,3.237022367915554644e-01,2.758018019588470149e-01,-5.324606986033719735e-01,7.034340764294831905e-01
8.349999999999999645e+00,1.643763352810949802e+09,-7.475714285056925257e-02,3.452216472171947270e+00,3.452216472171947270e+00,3.237022367915554644e-01,1.984917575336048734e-01,-5.203297183528918790e-01,7.521482333407623067e-01
8.366666666666667140e+00,1.643763352826907873e+09,-7.053990852724355276e-02,3.338934137051452034e+00,3.338934137051452034e+00,2.916525103765505444e-01,1.206769083776800811e-01,-5.074199583493276267e-01,7.968986574276835100e-01
8.383333333333332860e+00,1.643763352844894886e+09,-6.654534876388668030e-02,3.241834992662452564e+00,3.241834992662452564e+00,3.237022367915554644e-01,4.319828258444541325e-02,-4.937946516639455385e-01,8.380239053297496854e-01
8.400000000000000355e+00,1.643763352862811089e+09,-6.281559664658836750e-02,3.287687366401702338e+00,3.287687366401702338e+00,3.237022367915554644e-01,-3.311454072518060787e-02,-4.794938116324498067e-01,8.779659457261959066e-01
8.416666666666666075e+00,1.643763352879765987e+09,-5.938911775438400487e-02,3.775880286801939878e+00,3.775880286801939878e+00,3.237022367915554644e-01,-1.074505317325804565e-01,-4.644756256166390207e-01,9.240882556282077331e-01
8.433333333333333570e+00,1.643763352896721363e+09,-5.630044539984033203e-02,4.215523635007678571e+00,4.215523635007678571e+00,3.237022367915554644e-01,-1.790241274859836196e-01,-4.486442668943871337e-01,9.755318886979841286e-01
8.449999999999999289e+00,1.643763352912703514e+09,-5.357995513665980009e-02,4.210129238097177762e+00,4.210129238097177762e+00,3.237022367915554644e-01,-2.470819103731074495e-01,-4.319727649596316610e-01,1.024911175558629761e+00
8.466666666666666785e+00,1.643763352931627274e+09,-5.125368026385766079e-02,4.320714374762423482e+00,4.320714374762423482e+00,3.237022367915554644e-01,-3.109089931953182839e-01,-4.144786369565444106e-01,1.074247137248327544e+00
8.483333333333332504e+00,1.643763352949579239e+09,-4.934316965634275021e-02,3.956592583303685018e+00,3.956592583303685018e+00,3.237022367915554644e-01,-3.698350589930954335e-01,-3.962274888140742690e-01,1.115775281177700640e+00
8.500000000000000000e+00,1.643763352966534615e+09,-4.786538884086227741e-02,3.708450325420691307e+00,3.708450325420691307e+00,3.237022367915554644e-01,-4.232400066420787255e-01,-3.773315906779002304e-01,1.151632888354503503e+00
8.516666666666665719e+00,1.643763352983489275e+09,-4.683266481866796282e-02,3.870282232735687611e+00,3.870282232735687611e+00,2.916525103765505444e-01,-4.705591565017192002e-01,-3.578272018668430254e-01,1.188790550814012414e+00
8.533333333333333215e+00,1.643763352998449326e+09,-4.625267471560490923e-02,3.568196005747694244e+00,3.568196005747694244e+00,2.916525103765505444e-01,-5.112879740249807181e-01,-3.377560007013429288e-01,1.219667816843890806e+00
8.550000000000000711e+00,1.643763353015403986e+09,-4.612847792101512634e-02,3.503463242821697410e+00,3.503463242821697410e+00,3.237022367915554644e-01,-5.449862732015413602e-01,-3.171880385661476343e-01,1.248407804202364746e+00
8.566666666666666430e+00,1.643763353030363321e+09,-4.645859096281391987e-02,3.665295150136691493e+00,3.665295150136691493e+00,3.237022367915554644e-01,-5.712818659739183902e-01,-2.961263258796454356e-01,1.278912979585242082e+00
8.583333333333333925e+00,1.643763353048315287e+09,-4.723710396134254280e-02,3.376694915424949262e+00,3.376694915424949262e+00,3.237022367915554644e-01,-5.898736283038523709e-01,-2.746028365053850839e-01,1.303836511662999964e+00
8.599999999999999645e+00,1.643763353067264557e+09,-4.845383711317505226e-02,3.282292969491203305e+00,3.282292969491203305e+00,2.916525103765505444e-01,-6.005339583370121748e-01,-2.526819086344950782e-01,1.326611567311346551e+00
8.616666666666667140e+00,1.643763353085217476e+09,-5.009453528150614732e-02,2.421886662266476531e+00,2.421886662266476531e+00,2.916525103765505444e-01,-6.031106070804633790e-01,-2.305037378413314908e-01,1.334746330771283240e+00
8.633333333333332860e+00,1.643763353100176811e+09,-5.214109841595455930e-02,1.879749772761240889e+00,1.879749772761240889e+00,3.237022367915554644e-01,-5.975278671289173671e-01,-2.082652203616184861e-01,1.333878178385442315e+00
8.650000000000000355e+00,1.643763353118128538e+09,-5.457184519469153450e-02,1.442803623010752823e+00,1.442803623010752823e+00,2.916525103765505444e-01,-5.837871102117937472e-01,-1.860995055187208702e-01,1.326029405422527452e+00
8.666666666666666075e+00,1.643763353133090019e+09,-5.736180697908228876e-02,1.750284246909244334e+00,1.750284246909244334e+00,2.916525103765505444e-01,-5.619666696414122864e-01,-1.640180362547643822e-01,1.323753229113034724e+00
8.683333333333333570e+00,1.643763353151041508e+09,-6.048304889834044823e-02,1.237816540411758925e+00,1.237816540411758925e+00,3.237022367915554644e-01,-5.322210690808850675e-01,-1.420408626941615793e-01,1.313535980074613141e+00
8.699999999999999289e+00,1.643763353170988321e+09,-6.390501464147300970e-02,1.380768058540005283e+00,1.380768058540005283e+00,3.237022367915554644e-01,-4.947796043754582040e-01,-1.202076494371972920e-01,1.306469241053724639e+00
8.716666666666666785e+00,1.643763353186945677e+09,-6.759489132856408289e-02,-1.270690816648921695e+00,-1.270690816648921695e+00,3.237022367915554644e-01,-4.499442904607556803e-01,-9.885126724930808073e-02,1.256435607080674144e+00
8.733333333333332504e+00,1.643763353203900099e+09,-7.151799066472175337e-02,-1.440483622312422440e+00,-1.440483622312422440e+00,3.237022367915554644e-01,-3.980871905331078153e-01,-7.833815762900277202e-02,1.205279650579609951e+00
