# 
# 
# 
# 
# 
# 
# 
# 
# 
# 
# time,realtime,ref,inp,inp0,inp1,dis,state...
0.000000000000000000e+00,1.643850999378368855e+09,-0.000000000000000000e+00,-7.932307287713831478e-02,0.000000000000000000e+00,-3.172922915085532591e-01,-0.000000000000000000e+00,0.000000000000000000e+00,0.000000000000000000e+00
1.666666666666666644e-02,1.643850999383428574e+09,-4.889777767930284105e-06,-8.733550448088985008e-02,0.000000000000000000e+00,-3.493420179235594003e-01,0.000000000000000000e+00,-1.206282345680140106e-05,-1.443528917891362656e-03
3.333333333333333287e-02,1.643850999386432409e+09,-1.920748041897197308e-05,-7.131064127338709868e-02,0.000000000000000000e+00,-2.852425650935483947e-01,-4.037741249246019371e-06,-4.577227687004434200e-05,-2.598397448055391953e-03
5.000000000000000278e-02,1.643850999404338360e+09,-4.236889016368421731e-05,-7.131064127338709868e-02,0.000000000000000000e+00,-2.852425650935483947e-01,-1.985384912176901292e-05,-9.857221263043320302e-05,-3.734439097670151034e-03
6.666666666666666574e-02,1.643850999418328524e+09,-7.371465627221478699e-05,-7.131064127338709868e-02,0.000000000000000000e+00,-2.852425650935483947e-01,-5.368009397174375828e-05,-1.701539373427215162e-04,-4.852262729080509922e-03
8.333333333333332871e-02,1.643850999436285734e+09,-1.125119546145244805e-04,-7.131064127338709868e-02,0.000000000000000000e+00,-2.852425650935483947e-01,-1.124929683521730986e-04,-2.602197848176723404e-04,-5.952582452301213509e-03
1.000000000000000056e-01,1.643850999456199646e+09,-1.579573024729174731e-04,-6.329820966963557727e-02,0.000000000000000000e+00,-2.531928386785423091e-01,-2.037901799619213673e-04,-3.673782466024419361e-04,-6.903790654676401559e-03
1.166666666666666685e-01,1.643850999471160173e+09,-2.091805243613911128e-04,-7.131064127338709868e-02,0.000000000000000000e+00,-2.852425650935483947e-01,-3.353407491868513890e-04,-4.913836479566044630e-04,-7.973884953698471417e-03
1.333333333333333315e-01,1.643850999488114595e+09,-2.652498488953464401e-04,-5.528577806588434729e-02,0.000000000000000000e+00,-2.211431122635373892e-01,-5.149138941818184141e-04,-6.308875929661641319e-04,-8.764392541356681027e-03
1.499999999999999944e-01,1.643850999504071712e+09,-3.251781011202299425e-04,-5.528577806588434729e-02,0.000000000000000000e+00,-2.211431122635373892e-01,-7.499923874272101032e-04,-7.834899482930305324e-04,-9.545719693585006521e-03
1.666666666666666574e-01,1.643850999520029545e+09,-3.879299393212556164e-04,-4.727334646213282587e-02,0.000000000000000000e+00,-1.890933858485313035e-01,-1.047476472730341944e-03,-9.479409131267921501e-04,-1.018661577766563110e-02
1.833333333333333204e-01,1.643850999536983967e+09,-4.524300703893301373e-04,-4.727334646213282587e-02,0.000000000000000000e+00,-1.890933858485313035e-01,-1.413384733374595595e-03,-1.123035497906513420e-03,-1.082296671281103399e-02
2.000000000000000111e-01,1.643850999554936409e+09,-5.175723634975419596e-04,-3.926091485838159589e-02,0.000000000000000000e+00,-1.570436594335263836e-01,-1.852558494746853321e-03,-1.307602016344614837e-03,-1.132362475025840663e-02
2.166666666666666741e-01,1.643850999571891546e+09,-5.822297683289535996e-04,-3.124848325463007448e-02,0.000000000000000000e+00,-1.249939330185202979e-01,-2.368376424140750895e-03,-1.499408248247596342e-03,-1.169209951300160567e-02
2.333333333333333370e-01,1.643850999590876818e+09,-6.452649315625672054e-04,-3.124848325463007448e-02,0.000000000000000000e+00,-1.249939330185202979e-01,-2.962485954097878772e-03,-1.697386890982930828e-03,-1.206430369041173664e-02
2.500000000000000000e-01,1.643850999604802847e+09,-7.055413939327181104e-04,-2.323605165087885144e-02,0.000000000000000000e+00,-9.294420660351540575e-02,-3.634558002928975611e-03,-1.900503673524044264e-03,-1.230903040210075405e-02
2.666666666666666630e-01,1.643850999621966600e+09,-7.619352400781694099e-04,-2.323605165087885144e-02,0.000000000000000000e+00,-9.294420660351540575e-02,-4.382071198050004751e-03,-2.107768679713275563e-03,-1.256206744339367042e-02
2.833333333333333259e-01,1.643850999641946793e+09,-8.133470647273123404e-04,-2.323605165087885144e-02,0.000000000000000000e+00,-9.294420660351540575e-02,-5.200131427346440550e-03,-2.319329011208712960e-03,-1.282444349653532115e-02
2.999999999999999889e-01,1.643850999655950308e+09,-8.587141116461364599e-04,-2.323605165087885144e-02,0.000000000000000000e+00,-9.294420660351540575e-02,-6.081332055561865062e-03,-2.535347749282262399e-03,-1.309704782023578262e-02
3.166666666666666519e-01,1.643850999673926353e+09,-8.970224363100107222e-04,-3.124848325463007448e-02,0.000000000000000000e+00,-1.249939330185202979e-01,-7.015659553003340647e-03,-2.757107971336840348e-03,-1.351302331164176175e-02
3.333333333333333148e-01,1.643850999690904140e+09,-9.273189395345019567e-04,-2.323605165087885144e-02,0.000000000000000000e+00,-9.294420660351540575e-02,-7.990448600588798134e-03,-2.984771620804313116e-03,-1.380580133303208230e-02
3.499999999999999778e-01,1.643850999708825588e+09,-9.487231173808453356e-04,-3.124848325463007448e-02,0.000000000000000000e+00,-1.249939330185202979e-01,-8.990389967863641335e-03,-3.218519258766895045e-03,-1.424270158211106245e-02
3.666666666666666408e-01,1.643850999723819017e+09,-9.604383725842128130e-04,-2.323605165087885144e-02,0.000000000000000000e+00,-9.294420660351540575e-02,-9.997593619905176601e-03,-3.458520657086959580e-03,-1.455659427163739916e-02
3.833333333333333037e-01,1.643850999740773201e+09,-9.617627345628032825e-04,-2.323605165087885144e-02,0.000000000000000000e+00,-9.294420660351540575e-02,-1.099170860707798618e-02,-3.703847552875625185e-03,-1.488173004681468160e-02
4.000000000000000222e-01,1.643850999758727789e+09,-9.520988387567161718e-04,-3.124848325463007448e-02,0.000000000000000000e+00,-1.249939330185202979e-01,-1.195010034154437781e-02,-3.955787524930734836e-03,-1.534976646802914575e-02
4.166666666666666852e-01,1.643850999775646210e+09,-9.309630215994374458e-04,-2.323605165087885144e-02,0.000000000000000000e+00,-9.294420660351540575e-02,-1.284808488031627394e-02,-4.214480807603531408e-03,-1.569247546087626857e-02
4.333333333333333481e-01,1.643850999792600870e+09,-8.979933948024058617e-04,-3.124848325463007448e-02,0.000000000000000000e+00,-1.249939330185202979e-01,-1.365921883121261685e-02,-4.480057286963799040e-03,-1.617536068294671281e-02
4.500000000000000111e-01,1.643850999809589148e+09,-8.529567717733975603e-04,-2.323605165087885144e-02,0.000000000000000000e+00,-9.294420660351540575e-02,-1.435564249061524640e-02,-4.752604666343005629e-03,-1.652934153925907437e-02
4.666666666666666741e-01,1.643850999827532291e+09,-7.957543298107483442e-04,-2.323605165087885144e-02,0.000000000000000000e+00,-9.294420660351540575e-02,-1.490847282594354173e-02,-5.031079191850013239e-03,-1.688660908836577337e-02
4.833333333333333370e-01,1.643850999842499971e+09,-7.264259041160135537e-04,-2.323605165087885144e-02,0.000000000000000000e+00,-9.294420660351540575e-02,-1.528824194691122060e-02,-5.315511284437132028e-03,-1.724424855574182083e-02
5.000000000000000000e-01,1.643850999861454010e+09,-6.451528235264906725e-04,-3.124848325463007448e-02,0.000000000000000000e+00,-1.249939330185202979e-01,-1.546537578335120677e-02,-5.606985784337122254e-03,-1.773133837314151695e-02
5.166666666666666075e-01,1.643850999880404234e+09,-5.522592130470422873e-04,-2.323605165087885144e-02,0.000000000000000000e+00,-9.294420660351540575e-02,-1.541070681878797290e-02,-5.905396938816072014e-03,-1.807703985982368061e-02
5.333333333333333259e-01,1.643850999897322178e+09,-4.482117046023978662e-04,-3.124848325463007448e-02,0.000000000000000000e+00,-1.249939330185202979e-01,-1.509601393249269258e-02,-6.210585251790493207e-03,-1.854425983330130687e-02
5.500000000000000444e-01,1.643850999914276838e+09,-3.336175147658314430e-04,-2.323605165087885144e-02,0.000000000000000000e+00,-9.294420660351540575e-02,-1.449458169216343711e-02,-6.522306280494794342e-03,-1.886138269364771164e-02
5.666666666666666519e-01,1.643850999931763649e+09,-2.092208663637132521e-04,-2.323605165087885144e-02,0.000000000000000000e+00,-9.294420660351540575e-02,-1.358177082729890989e-02,-6.839142811145041204e-03,-1.915817653763375941e-02
5.833333333333333703e-01,1.643850999948501348e+09,-7.589774961267693949e-05,-2.323605165087885144e-02,0.000000000000000000e+00,-9.294420660351540575e-02,-1.233559111124402780e-02,-7.160712789583710547e-03,-1.942946727189713910e-02
5.999999999999999778e-01,1.643850999965734959e+09,6.535096238783568605e-05,-2.323605165087885144e-02,0.000000000000000000e+00,-9.294420660351540575e-02,-1.073726749785526915e-02,-7.486546048193521395e-03,-1.966985599909956348e-02
6.166666666666666963e-01,1.643850999983093262e+09,2.134080096223960066e-04,-2.323605165087885144e-02,0.000000000000000000e+00,-9.294420660351540575e-02,-8.771790105289414136e-03,-7.816081110260914011e-03,-1.987378496630164137e-02
6.333333333333333037e-01,1.643850999997959614e+09,3.670497990579211643e-04,-2.323605165087885144e-02,0.000000000000000000e+00,-9.294420660351540575e-02,-6.428438521395225466e-03,-8.148663156787604167e-03,-2.003561108931285403e-02
6.500000000000000222e-01,1.643851000017093420e+09,5.249579438433350266e-04,-3.124848325463007448e-02,0.000000000000000000e+00,-1.249939330185202979e-01,-3.701270927607347265e-03,-8.484649957161874423e-03,-2.028212019197587340e-02
6.666666666666666297e-01,1.643851000036044359e+09,6.857321965375530372e-04,-2.323605165087885144e-02,0.000000000000000000e+00,-9.294420660351540575e-02,-5.895687042093808623e-04,-8.823174723705438927e-03,-2.034068909801711386e-02
6.833333333333333481e-01,1.643851000053019524e+09,8.479046671275874579e-04,-2.323605165087885144e-02,0.000000000000000000e+00,-9.294420660351540575e-02,2.901772509521472702e-03,-9.162185323325978611e-03,-2.034058315075253087e-02
6.999999999999999556e-01,1.643851000068956614e+09,1.009955199523933714e-03,-2.323605165087885144e-02,0.000000000000000000e+00,-9.294420660351540575e-02,6.761913872369734214e-03,-9.500661007141128489e-03,-2.027667642991253308e-02
7.166666666666666741e-01,1.643851000085930824e+09,1.170327764242609604e-03,-2.323605165087885144e-02,0.000000000000000000e+00,-9.294420660351540575e-02,1.097381449230800526e-02,-9.837498655955205160e-03,-2.014420940040797040e-02
7.333333333333332815e-01,1.643851000102044582e+09,1.327447710299107337e-03,4.525295079494479067e-01,6.343540794671024274e-01,-9.294420660351540575e-02,1.551404991756706077e-02,-1.010580674128872848e-02,-1.207517535062419684e-02
7.500000000000000000e-01,1.643851000120260715e+09,1.479739706134637406e-03,4.457503432987006686e-01,6.253151932661060730e-01,-9.294420660351540575e-02,2.035271435375136939e-02,-1.024101344765958321e-02,-4.171584350045809061e-03
7.666666666666666075e-01,1.643851000136689901e+09,1.625646187840901159e-03,6.287877888688810923e-01,8.693651206930131936e-01,-9.294420660351540575e-02,2.545341201353812366e-02,-1.021959955106835870e-02,6.711021768069950696e-03
7.833333333333333259e-01,1.643851000154690027e+09,1.763646123202196499e-03,7.078780431276010532e-01,9.748187930379731414e-01,-9.294420660351540575e-02,3.077334191696400045e-02,-1.000665322007428595e-02,1.880893185448529598e-02
8.000000000000000444e-01,1.643851000171648264e+09,1.892273892271691734e-03,6.491252828211233616e-01,8.964817792960030340e-01,-9.294420660351540575e-02,3.626347927538443178e-02,-9.601102683742370261e-03,2.982652735309517661e-02
8.166666666666666519e-01,1.643851000188183546e+09,2.010138079460620231e-03,8.761238924432824815e-01,1.209829834263883575e+00,-1.249939330185202979e-01,4.186885532505944113e-02,-8.981319932991005395e-03,4.450662373181617226e-02
8.333333333333333703e-01,1.643851000205141306e+09,2.115939968543779741e-03,8.999543748987777203e-01,1.230920568732875475e+00,-9.294420660351540575e-02,4.752893614260037675e-02,-8.114823280183517187e-03,5.943151559636498937e-02
8.499999999999999778e-01,1.643851000222093344e+09,2.208491530647665926e-03,9.067335395495255135e-01,1.239959454933872385e+00,-9.294420660351540575e-02,5.317809959107566709e-02,-6.999923256266528740e-03,7.431514289145801921e-02
8.666666666666666963e-01,1.643851000238558531e+09,2.286732696242168173e-03,1.042316832564473605e+00,1.420737178953803470e+00,-9.294420660351540575e-02,5.874620813033900463e-02,-5.619522609446672007e-03,9.128579292288503677e-02
8.833333333333333037e-01,1.643851000255518198e+09,2.349747705430677101e-03,1.078472377368459911e+00,1.468944572025785211e+00,-9.294420660351540575e-02,6.415927379686647836e-02,-3.952880312866845040e-03,1.086630114790606422e-01
9.000000000000000222e-01,1.643851000272835016e+09,2.396780336432027467e-03,1.218575113483906902e+00,1.655748220179714458e+00,-9.294420660351540575e-02,6.934021023638579917e-02,-1.978951203769475312e-03,1.281543377653014959e-01
9.166666666666666297e-01,1.643851000289403915e+09,2.427247820048117084e-03,1.218575113483906902e+00,1.655748220179714458e+00,-9.294420660351540575e-02,7.420966527655682710e-02,3.178137632795087313e-04,1.474039857775935602e-01
9.333333333333333481e-01,1.643851000304926157e+09,2.440753258068207362e-03,1.322522304795366921e+00,1.794344475261661076e+00,-9.294420660351540575e-02,7.868692617664165001e-02,2.947723065651686528e-03,1.681275636580881749e-01
9.499999999999999556e-01,1.643851000323622704e+09,2.437096375902350620e-03,1.207276505732661320e+00,1.640683409844720053e+00,-9.294420660351540575e-02,8.269088840610255842e-02,5.904798203771572697e-03,1.866699450889476863e-01
9.666666666666666741e-01,1.643851000340431690e+09,2.416282454166633620e-03,1.025265514759726049e+00,1.408685330685808035e+00,-1.249939330185202979e-01,8.614107760349588860e-02,9.143689042392506156e-03,2.019544974563804440e-01
9.833333333333332815e-01,1.643851000357021570e+09,2.378529300341097365e-03,1.106615490568695126e+00,1.517151965097766730e+00,-1.249939330185202979e-01,8.895871326934823298e-02,1.264683658296522628e-02,2.183775866464417736e-01
1.000000000000000000e+00,1.643851000377037048e+09,2.324272139845282546e-03,1.059161338013463016e+00,1.453879761690790806e+00,-1.249939330185202979e-01,9.106780176936930815e-02,1.641517082855886711e-02,2.337797380638953482e-01
1.016666666666666607e+00,1.643851000390998363e+09,2.254166325760283487e-03,9.428890843535113753e-01,1.288166848005853682e+00,-9.294420660351540575e-02,9.239624538364350770e-02,2.042220414854056809e-02,2.470274602395328978e-01
1.033333333333333215e+00,1.643851000407313585e+09,2.169087787785302368e-03,1.256990379838141880e+00,1.706968575318694281e+00,-9.294420660351540575e-02,9.287695344817047116e-02,2.469165327941666432e-02,2.652557999967620206e-01
1.050000000000000044e+00,1.643851000426347733e+09,2.070131163647664658e-03,1.180159847129671036e+00,1.604527865040733525e+00,-9.294420660351540575e-02,9.244894111043337748e-02,2.925171937673898964e-02,2.819058803701081084e-01
1.066666666666666652e+00,1.643851000444288492e+09,1.958605579865746980e-03,1.876154084606406869e+00,2.532520181676380933e+00,-9.294420660351540575e-02,9.105840087184521869e-02,3.418292610545777682e-02,3.097615483993602092e-01
1.083333333333333259e+00,1.643851000459269047e+09,1.836028073261032623e-03,1.681818031284980197e+00,2.273405443914478852e+00,-9.294420660351540575e-02,8.865973192617426779e-02,3.954737343122556592e-02,3.339050637937783228e-01
1.100000000000000089e+00,1.643851000476203918e+09,1.704114669678865159e-03,1.903270743209396043e+00,2.568675726480366350e+00,-9.294420660351540575e-02,8.521651233137043924e-02,4.534098954570148221e-02,3.612529019383151629e-01
1.116666666666666696e+00,1.643851000493132114e+09,1.564769161751041740e-03,1.632104157179499193e+00,2.207120278440504180e+00,-9.294420660351540575e-02,8.070239927727282381e-02,5.154854850982183018e-02,3.835921189151410005e-01
1.133333333333333304e+00,1.643851000510142088e+09,1.420069652951177867e-03,1.880673527706905102e+00,2.538546105810378428e+00,-9.294420660351540575e-02,7.510194313564121094e-02,5.815890124078326034e-02,4.095780240315553544e-01
1.149999999999999911e+00,1.643851000527087212e+09,1.272252960386646920e-03,2.111165125832317635e+00,2.845868236644261806e+00,-9.294420660351540575e-02,6.841130160149844208e-02,6.522967470396531797e-02,4.388335243589369106e-01
1.166666666666666741e+00,1.643851000543543577e+09,1.123696993465769919e-03,2.380071990311964925e+00,3.204410722617124563e+00,-9.294420660351540575e-02,6.063884105296341726e-02,7.282006706913704552e-02,4.719216458498473044e-01
1.183333333333333348e+00,1.643851000562729359e+09,9.769012495068319334e-04,2.646719133241362876e+00,3.559940246522988794e+00,-9.294420660351540575e-02,5.180561326507797382e-02,8.099296736457466117e-02,5.087241579961837568e-01
1.199999999999999956e+00,1.643851000578736067e+09,8.344655902464539815e-04,2.524694169527909704e+00,3.397240294905051528e+00,-9.294420660351540575e-02,4.194569680350671015e-02,8.975594367565364884e-02,5.427385127906283468e-01
1.216666666666666563e+00,1.643851000596894503e+09,6.990674848008255086e-04,2.554070549681148883e+00,3.436408801776037247e+00,-9.294420660351540575e-02,3.110639378579709360e-02,9.908368817066040557e-02,5.764970506867374000e-01
1.233333333333333393e+00,1.643851000614793539e+09,5.734379246799881698e-04,2.276124799000504240e+00,3.065814467535177723e+00,-9.294420660351540575e-02,1.934827421808436518e-02,1.089293981747243151e-01,6.049092252363166278e-01
1.250000000000000000e+00,1.643851000629273891e+09,4.603362347169377179e-04,2.152866568334046882e+00,2.912153402118235590e+00,-1.249939330185202979e-01,6.745061778371935594e-03,1.192259548672428005e-01,6.306061957123384465e-01
1.266666666666666607e+00,1.643851000647166014e+09,3.625240200206488492e-04,1.752895853939949067e+00,2.378859116259438800e+00,-1.249939330185202979e-01,-6.616643293755794172e-03,1.298901554426264704e-01,6.490466486477246555e-01
1.283333333333333215e+00,1.643851000664283991e+09,2.827385030930362406e-04,1.812881881199430500e+00,2.448157243800412441e+00,-9.294420660351540575e-02,-2.063780664639961598e-02,1.408654985856438446e-01,6.679420400805911040e-01
1.300000000000000044e+00,1.643851000681213617e+09,2.236655168724193841e-04,1.901011021659147149e+00,2.565662764413368269e+00,-9.294420660351540575e-02,-3.520756806956933799e-02,1.521633151364525649e-01,6.877409477562753670e-01
1.316666666666666652e+00,1.643851000696518183e+09,1.879124285170949492e-04,1.756388842443202147e+00,2.372833192125441304e+00,-9.294420660351540575e-02,-5.020401397909959179e-02,1.637663322427013457e-01,7.045743444577616810e-01
1.333333333333333259e+00,1.643851000714568138e+09,1.779812750811796932e-04,1.594715345422509589e+00,2.167951771569519348e+00,-1.249939330185202979e-01,-6.549511047597748881e-02,1.756231384855329036e-01,7.182045421307056143e-01
1.350000000000000089e+00,1.643851000729964018e+09,1.962423957419229107e-04,1.306704253943622662e+00,1.773253740792668731e+00,-9.294420660351540575e-02,-8.093979123527211827e-02,1.876633186171992873e-01,7.265937697108451054e-01
1.366666666666666696e+00,1.643851000749166250e+09,2.449088458298577672e-04,1.135991870721933639e+00,1.556320471968751784e+00,-1.249939330185202979e-01,-9.638919240056988136e-02,1.998164477256864080e-01,7.317673519077140254e-01
1.383333333333333304e+00,1.643851000765208483e+09,3.260118755260132538e-04,1.171120960928675014e+00,1.592476016772738312e+00,-9.294420660351540575e-02,-1.116880246211317401e-01,2.120578275914946353e-01,7.371831876470315015e-01
1.399999999999999911e+00,1.643851000782691479e+09,4.413777506986826457e-04,1.241172328986398066e+00,1.685877840849702380e+00,-9.294420660351540575e-02,-1.266760703961942736e-01,2.243963287219055136e-01,7.434196241597906818e-01
1.416666666666666741e+00,1.643851000800061703e+09,5.926061849529648063e-04,1.320262583245118249e+00,1.791331513194662772e+00,-9.294420660351540575e-02,-1.411897930100914356e-01,2.368468284239120536e-01,7.506203376283678841e-01
1.433333333333333348e+00,1.643851000814746618e+09,7.810506405955912595e-04,1.291912657689124888e+00,1.764214854591673154e+00,-1.249939330185202979e-01,-1.550640415787045701e-01,2.494105134269255786e-01,7.570041295605279830e-01
1.449999999999999956e+00,1.643851000833890915e+09,1.007800741934277572e-03,1.121407086823193566e+00,1.526190851298763418e+00,-9.294420660351540575e-02,-1.681338351068220327e-01,2.620543577086858478e-01,7.602481728073738898e-01
1.466666666666666563e+00,1.643851000847842216e+09,1.273667027233212241e-03,9.451488059037608247e-01,1.291179810072852874e+00,-9.294420660351540575e-02,-1.802362070007290928e-01,2.747258048416684750e-01,7.603252689894417493e-01
1.483333333333333393e+00,1.643851000866235733e+09,1.579168245857131463e-03,9.654862998560030940e-01,1.318296468675842714e+00,-9.294420660351540575e-02,-1.912120902126412669e-01,2.873998192928023943e-01,7.605558246990304916e-01
1.500000000000000000e+00,1.643851000883610487e+09,1.924521384811133697e-03,1.042316832564473605e+00,1.420737178953803470e+00,-9.294420660351540575e-02,-2.009082221335311558e-01,3.000869171315613815e-01,7.618922037007871406e-01
1.516666666666666607e+00,1.643851000899816513e+09,2.309634584204194648e-03,8.615391085445425201e-01,1.179700213593894986e+00,-9.294420660351540575e-02,-2.091790475163884389e-01,3.127699918923751987e-01,7.600817966237759515e-01
1.533333333333333215e+00,1.643851000916430712e+09,2.734103074345942477e-03,7.214363724290959734e-01,9.928965654399664054e-01,-9.294420660351540575e-02,-2.158885971185889596e-01,3.254028654700758527e-01,7.558747193012503862e-01
1.550000000000000044e+00,1.643851000933741093e+09,3.197208238459195093e-03,7.643710818838294063e-01,1.050142844712944390e+00,-9.294420660351540575e-02,-2.209123194127579626e-01,3.379714384604832200e-01,7.523637923520275494e-01
1.566666666666666652e+00,1.643851000949213743e+09,3.697919874620101636e-03,5.459977337511494611e-01,7.910281069510430862e-01,-1.890933858485313035e-01,-2.241388426404315182e-01,3.504513734479146603e-01,7.452481722164413513e-01
1.583333333333333259e+00,1.643851000966639757e+09,4.234901698802901945e-03,-8.526177808645992728e-01,-1.020376368511612508e+00,-3.493420179235594003e-01,-2.254716446790437645e-01,3.626203360193931413e-01,7.151110525525687933e-01
1.600000000000000089e+00,1.643851000985452890e+09,4.806520098107066631e-03,-1.380803431163463380e+00,-1.692574175828426064e+00,-4.454911971685752703e-01,-2.248306086642735679e-01,3.742183110917914335e-01,6.767525101497081641e-01
1.616666666666666696e+00,1.643851001002423525e+09,5.410856109698986352e-03,-1.710568687270980437e+00,-2.110894699695112120e+00,-5.095906499985862759e-01,-2.221534430572544017e-01,3.851370976548910696e-01,6.336216880811379459e-01
1.633333333333333304e+00,1.643851001018473864e+09,6.045720567035659833e-03,-1.870041998205773659e+00,-2.312842538803167258e+00,-5.416403764135924170e-01,-2.173969458669708921e-01,3.953216248706660774e-01,5.886465117974838401e-01
1.649999999999999911e+00,1.643851001035828590e+09,6.708672320897836674e-03,-2.354074336278513258e+00,-2.947535747428485120e+00,-5.736901028285972259e-01,-2.105380940263075484e-01,4.046968703688222369e-01,5.365277257942473454e-01
1.666666666666666741e+00,1.643851001052843571e+09,7.397039408986886243e-03,-2.530857461993996083e+00,-3.172563339577460173e+00,-6.057398292436033671e-01,-2.015749404663481348e-01,4.131874887280282405e-01,4.824965673940356248e-01
1.683333333333333348e+00,1.643851001070748806e+09,8.107943014685056390e-03,-3.025065958518073028e+00,-3.810141517332893191e+00,-6.698392820736143172e-01,-1.905273032249493459e-01,4.207183161721547715e-01,4.213725189208586963e-01
1.699999999999999956e+00,1.643851001085734129e+09,8.838324023397186799e-03,-3.554536560390125111e+00,-4.505419077690626217e+00,-7.018890084886192371e-01,-1.774372329464512510e-01,4.271675292224532683e-01,3.527237426482839333e-01
1.716666666666666563e+00,1.643851001103708029e+09,9.584971954020417642e-03,-4.104359479164851443e+00,-5.206466576308590000e+00,-7.980381877336351071e-01,-1.623692473606633824e-01,4.324082171865753499e-01,2.763709092420699731e-01
1.733333333333333393e+00,1.643851001119805336e+09,1.034455601387901380e-02,-4.012840475779632321e+00,-5.073757996323296382e+00,-8.300879141486412482e-01,-1.454103237490348144e-01,4.364018868441126298e-01,2.030730595923882498e-01
1.750000000000000000e+00,1.643851001136131287e+09,1.111365799823096738e-02,-4.611550336774445036e+00,-5.861354568844712176e+00,-8.621376405636461682e-01,-1.266696429896099207e-01,4.391039439771602937e-01,1.214006694632730060e-01
1.766666666666666607e+00,1.643851001156123877e+09,1.188880673052769565e-02,-4.385474092540087909e+00,-5.506503365840559105e+00,-1.022386272638674320e+00,-1.062780814928387246e-01,4.404901174956407650e-01,4.515195971091041927e-02
1.783333333333333215e+00,1.643851001169078588e+09,1.266651371727620969e-02,-4.452549624815262064e+00,-5.595937408874124941e+00,-1.022386272638674320e+00,-8.438745016829470036e-02,4.406097697336868180e-01,-3.058331044352825823e-02
1.800000000000000044e+00,1.643851001186809063e+09,1.344330967190006214e-02,-4.547583729298075639e+00,-5.647866853216195970e+00,-1.246734357543712202e+00,-6.116948246668791472e-02,4.394677087818159578e-01,-1.062538030210701118e-01
1.816666666666666652e+00,1.643851001202477455e+09,1.421578154566880033e-02,-4.320628709789318123e+00,-5.313210434122848547e+00,-1.342883536788729293e+00,-3.681457648945479083e-02,4.371096356521494974e-01,-1.765197846627165057e-01
1.833333333333333259e+00,1.643851001221478462e+09,1.498060969079370933e-02,-4.483786998632689702e+00,-5.509388334970672929e+00,-1.406982989618740243e+00,-1.153029911588513215e-02,4.335711247736412366e-01,-2.479032287466844953e-01
1.849999999999999867e+00,1.643851001239515305e+09,1.573460477137191352e-02,-4.876300333320211955e+00,-6.011372963610697617e+00,-1.471082442448751193e+00,1.446033696970283958e-02,4.288021250459668754e-01,-3.241648956248519564e-01
1.866666666666666696e+00,1.643851001255382299e+09,1.647474403215858085e-02,-5.678400517988135832e+00,-7.070156634362929182e+00,-1.503132168863756002e+00,4.092080959571697124e-02,4.226654990924221811e-01,-4.119862648111809467e-01
1.883333333333333304e+00,1.643851001272938490e+09,1.719820653329984586e-02,-5.594251470420074313e+00,-6.925908177857174941e+00,-1.599281348108773093e+00,6.760322023376313938e-02,4.150926216800801538e-01,-4.965241915686107732e-01
1.899999999999999911e+00,1.643851001290936947e+09,1.790240696125263570e-02,-5.744427398177928801e+00,-7.104776263924311053e+00,-1.663380800938784265e+00,9.425060476240598728e-02,4.061053934183787018e-01,-5.817065765305013958e-01
1.916666666666666741e+00,1.643851001307530403e+09,1.858502763221929130e-02,-5.776240825105130483e+00,-7.136510924355577323e+00,-1.695430527353789074e+00,1.205994002013388439e-01,3.957094693965323429e-01,-6.655713429237182233e-01
1.933333333333333348e+00,1.643851001324485302e+09,1.924404831454707906e-02,-5.104843026566780573e+00,-6.230630617499443247e+00,-1.727480253768793883e+00,1.463820434661481373e-01,3.840236776220075088e-01,-7.365265675342039797e-01
1.949999999999999956e+00,1.643851001340836048e+09,1.987777351067013601e-02,-4.814903628990215623e+00,-5.844044754064022129e+00,-1.727480253768793883e+00,1.713296761342269769e-01,3.712085914954060262e-01,-8.011043806218689500e-01
1.966666666666666563e+00,1.643851001359293699e+09,2.048485685723978530e-02,-4.464379879681232843e+00,-5.376679754985379311e+00,-1.727480253768793883e+00,1.951749274090749942e-01,3.573778360369362361e-01,-8.584270410346017677e-01
1.983333333333333393e+00,1.643851001376249313e+09,2.106432232400471879e-02,-3.990523700059831480e+00,-4.744871515490177494e+00,-1.727480253768793883e+00,2.176547459495616343e-01,3.426681745151029523e-01,-9.065985287479396693e-01
2.000000000000000000e+00,1.643851001394153595e+09,2.161558191761445147e-02,-3.862863816052239496e+00,-4.574658336813388182e+00,-1.727480253768793883e+00,2.385132500164146852e-01,3.271828217685004425e-01,-9.515190187686008993e-01
2.016666666666666607e+00,1.643851001410137653e+09,2.213844962566458713e-02,-3.555614603694984055e+00,-4.164992720337047594e+00,-1.727480253768793883e+00,2.575045645007539297e-01,3.110000591330679409e-01,-9.903047567864055045e-01
2.033333333333333215e+00,1.643851001425152302e+09,2.263315136874202022e-02,-3.127196687872895176e+00,-3.593768832574261829e+00,-1.727480253768793883e+00,2.743956128559439378e-01,2.942377309324885060e-01,-1.021089113169441953e+00
2.049999999999999822e+00,1.643851001443261385e+09,2.310033076373118471e-02,1.331936779800138249e+00,2.351742457656449403e+00,-1.727480253768793883e+00,2.889688317678557605e-01,2.775844926759911124e-01,-9.774207813868113215e-01
2.066666666666666430e+00,1.643851001460876465e+09,2.354105053990013935e-02,1.379390932355370580e+00,2.415014661063425550e+00,-1.727480253768793883e+00,3.010247765792357089e-01,2.616612480217713199e-01,-9.334906082503480196e-01
2.083333333333333481e+00,1.643851001477848291e+09,2.395678948998880564e-02,1.283456172647661209e+00,2.276418405981477822e+00,-1.695430527353789074e+00,3.103845860366717946e-01,2.464521474870654261e-01,-8.917174950709032544e-01
2.100000000000000089e+00,1.643851001495820284e+09,2.434943488131369183e-02,1.231482576991930644e+00,2.207120278440504180e+00,-1.695430527353789074e+00,3.168922758547825236e-01,2.319272160085138756e-01,-8.513863160449064438e-01
2.116666666666666696e+00,1.643851001509480953e+09,2.472127029640354065e-02,1.000990978866518555e+00,1.899798147606621246e+00,-1.695430527353789074e+00,3.204168318885022848e-01,2.180375514833873818e-01,-8.154731880071962591e-01
2.133333333333333304e+00,1.643851001529415607e+09,2.507495891849496894e-02,9.479909286135431712e-01,1.818448171797652391e+00,-1.663380800938784265e+00,3.208540753631766718e-01,2.047342187519589907e-01,-7.810224385428226057e-01
2.149999999999999911e+00,1.643851001543611765e+09,2.541352232390451521e-02,8.925243444545597482e-01,1.755175968390676022e+00,-1.695430527353789074e+00,3.181282746216988477e-01,1.919922692623254323e-01,-7.481029454019181291e-01
2.166666666666666519e+00,1.643851001562391043e+09,2.574031489043765095e-02,1.348988097604886249e+00,2.363794305924444394e+00,-1.695430527353789074e+00,3.121934801918154201e-01,1.798566584194679074e-01,-7.082809749291155699e-01
2.183333333333333126e+00,1.643851001578505516e+09,2.605899397811559104e-02,1.415753289515115476e+00,2.442131319666414946e+00,-1.663380800938784265e+00,3.030345626346996890e-01,1.683872034614162239e-01,-6.681650557685669956e-01
2.200000000000000178e+00,1.643851001595027685e+09,2.637348608516202481e-02,1.399935238663371218e+00,2.421040585197423045e+00,-1.663380800938784265e+00,2.906679355833949319e-01,1.575769134434938934e-01,-6.291780461798652802e-01
2.216666666666666785e+00,1.643851001611543417e+09,2.668794922790419452e-02,1.928916893777428587e+00,3.104982974406162555e+00,-1.599281348108773093e+00,2.751419495885387700e-01,1.474819407667171400e-01,-5.823487594469890505e-01
2.233333333333333393e+00,1.643851001629219532e+09,2.700673183755655446e-02,2.359704067633528357e+00,3.647316146465956255e+00,-1.503132168863756002e+00,2.565369458270602698e-01,1.382179189247054740e-01,-5.294807207139675675e-01
2.250000000000000000e+00,1.643851001643228531e+09,2.733432850929747374e-02,2.557533109458207665e+00,3.900404960093860396e+00,-1.471082442448751193e+00,2.349649623622230843e-01,1.298520736145359344e-01,-4.745732408734575358e-01
2.266666666666666607e+00,1.643851001663738489e+09,2.767533297917378413e-02,2.963463346261565601e+00,4.409595549416665428e+00,-1.374933263203734102e+00,2.105690894324283580e-01,1.224464668365749381e-01,-4.142670935005966504e-01
2.283333333333333215e+00,1.643851001680361032e+09,2.803438874173038234e-02,3.095760463129020312e+00,4.575308463101602996e+00,-1.342883536788729293e+00,1.835224741511402302e-01,1.160521702514581699e-01,-3.532180812941438930e-01
2.299999999999999822e+00,1.643851001696318150e+09,2.841613775544333045e-02,3.487925558275124960e+00,5.087512014491407442e+00,-1.310833810373723152e+00,1.540269789784923515e-01,1.107170171891979776e-01,-2.871837192776567349e-01
2.316666666666666430e+00,1.643851001713514805e+09,2.882516771362932800e-02,3.560236647883097572e+00,5.183926800635370924e+00,-1.310833810373723152e+00,1.223115023323489009e-01,1.064789232144999348e-01,-2.215698227993679326e-01
2.333333333333333481e+00,1.643851001732887983e+09,2.926595838515494777e-02,4.050803036642920851e+00,5.816648834705131499e+00,-1.246734357543712202e+00,8.862997369738205566e-02,1.033884367218385059e-01,-1.494887861343681124e-01
2.350000000000000089e+00,1.643851001748828650e+09,2.974282755160575706e-02,3.723143411856794760e+00,5.379769334990297303e+00,-1.246734357543712202e+00,5.325903951905695127e-02,1.014392030095639247e-01,-8.459951156582934395e-02
2.366666666666666696e+00,1.643851001765768766e+09,3.025987708531823264e-02,3.699519741757058444e+00,5.337587866052313501e+00,-1.214684631128707171e+00,1.649545998901890201e-02,1.005541539507333326e-01,-2.178087581123080985e-02
2.383333333333333304e+00,1.643851001782181025e+09,3.082093972554020983e-02,3.718830781112055117e+00,5.352652676387307018e+00,-1.182634904713701030e+00,-2.134675950654791113e-02,1.007048460773167370e-01,3.969316575561091659e-02
2.399999999999999911e+00,1.643851001798607111e+09,3.142952711773286389e-02,3.273665635712974531e+00,4.759099149188532607e+00,-1.182634904713701030e+00,-5.993947503837408070e-02,1.018047978609194909e-01,9.215531664991816196e-02
2.416666666666666519e+00,1.643851001815156698e+09,3.208877968350038606e-02,3.277158624216227167e+00,4.753073225054535556e+00,-1.150585178298696221e+00,-9.894371842538164652e-02,1.037669678953917762e-01,1.431633950452932957e-01
2.433333333333333126e+00,1.643851001831827879e+09,3.280141888565321628e-02,3.008251759736580766e+00,4.394530739081672799e+00,-1.150585178298696221e+00,-1.380131857674234686e-01,1.065296894639249231e-01,1.882379830429127821e-01
2.450000000000000178e+00,1.643851001849052191e+09,3.356970244442963880e-02,3.028589253688822591e+00,4.421647397684662195e+00,-1.150585178298696221e+00,-1.767978642060236416e-01,1.100348805068406960e-01,2.322626484913769829e-01
2.466666666666666785e+00,1.643851001868715048e+09,3.439538304684287839e-02,2.821721325663146818e+00,4.156506735788762619e+00,-1.182634904713701030e+00,-2.149477586439442756e-01,1.142338932812432539e-01,2.715098618339611414e-01
2.483333333333333393e+00,1.643851001881417513e+09,3.527967107152314014e-02,2.585683829839990899e+00,3.831106832552886754e+00,-1.150585178298696221e+00,-2.521166782905320813e-01,1.190438700269052935e-01,3.055926709474567349e-01
2.500000000000000000e+00,1.643851001900516748e+09,3.622320182633855662e-02,2.554047728136502382e+00,3.788925363614902064e+00,-1.150585178298696221e+00,-2.879660414565342608e-01,1.244078649304434236e-01,3.379967041552514040e-01
2.516666666666666607e+00,1.643851001914254904e+09,3.722600776562259156e-02,2.103129872683919821e+00,3.198384798483126623e+00,-1.182634904713701030e+00,-3.221686560237055907e-01,1.302404463114958666e-01,3.618468097185358889e-01
2.533333333333333215e+00,1.643851001935211658e+09,3.828749611819121101e-02,1.958507693467974597e+00,3.005555226195199658e+00,-1.182634904713701030e+00,-3.544124324809317939e-01,1.364428064494068726e-01,3.823793705970756074e-01
2.549999999999999822e+00,1.643851001951190948e+09,3.940643231670400148e-02,1.669263335036085261e+00,2.619896081619347505e+00,-1.182634904713701030e+00,-3.844039863645706268e-01,1.429404469442412950e-01,3.972960525800997567e-01
2.566666666666666430e+00,1.643851001968634367e+09,4.058092957359881597e-02,1.610510574729607125e+00,2.541559067877376954e+00,-1.182634904713701030e+00,-4.118720873758505152e-01,1.496727296375140182e-01,4.105410780093896594e-01
2.583333333333333481e+00,1.643851001984603882e+09,4.180844489912696055e-02,1.402616192106686865e+00,2.264366557713482830e+00,-1.182634904713701030e+00,-4.365709133767963213e-01,1.565918074550546324e-01,4.197227548373472228e-01
2.600000000000000089e+00,1.643851002000514984e+09,4.308578180330045054e-02,9.099968941523739474e-01,1.607540827107732273e+00,-1.182634904713701030e+00,-4.582830688869777291e-01,1.635916053249538982e-01,4.202515207218712190e-01
2.616666666666666696e+00,1.643851002018513203e+09,4.440909986625986294e-02,-1.605557692367290512e+00,-1.735848712780151848e+00,-1.214684631128707171e+00,-4.768223296094301622e-01,1.702501326195665077e-01,3.788866597276466242e-01
2.633333333333333304e+00,1.643851002036464930e+09,4.577393130112682174e-02,-1.925146790023470444e+00,-2.151284267516723414e+00,-1.246734357543712202e+00,-4.920360768929782358e-01,1.761787157635157086e-01,3.326716954684232341e-01
2.649999999999999911e+00,1.643851002053374767e+09,4.717520457031908199e-02,-1.821287901339327719e+00,-2.012805749271199485e+00,-1.246734357543712202e+00,-5.038073888716139148e-01,1.813561519191115579e-01,2.887426711426450132e-01
2.666666666666666519e+00,1.643851002072346687e+09,4.860727505111150232e-02,-2.435143850267245558e+00,-2.820597105703421370e+00,-1.278784083958718121e+00,-5.120567582860966471e-01,1.857215796710548761e-01,2.352572332481459860e-01
2.683333333333333126e+00,1.643851002088303804e+09,5.006396267946646578e-02,-2.333448688430689089e+00,-2.685003556588013041e+00,-1.278784083958718121e+00,-5.167434106594990251e-01,1.892163697571910830e-01,1.842592415105066550e-01
2.700000000000000178e+00,1.643851002106255770e+09,5.153859643344584074e-02,-2.371753295900648428e+00,-2.725393124409623447e+00,-1.310833810373723152e+00,-5.178662005331196028e-01,1.918627914506377263e-01,1.334524948764972407e-01
2.716666666666666785e+00,1.643851002123214245e+09,5.302406544941760252e-02,-2.480818413554362944e+00,-2.849446797004572485e+00,-1.374933263203734102e+00,-5.154640678331972037e-01,1.936547191420101566e-01,8.172252582866547377e-02
2.733333333333333393e+00,1.643851002140166998e+09,5.451287649644957073e-02,-1.968015150676407865e+00,-2.165709113167299193e+00,-1.374933263203734102e+00,-5.096160410889940540e-01,1.946632620266366964e-01,3.942012974794889546e-02
2.750000000000000000e+00,1.643851002157243729e+09,5.599721746732989891e-02,-2.108014919982923896e+00,-2.341692230104318373e+00,-1.406982989618740243e+00,-5.004407791118937743e-01,1.949545382584089992e-01,-4.345408135403690253e-03
2.766666666666666607e+00,1.643851002175720215e+09,5.746902647923288199e-02,-2.043981889829733056e+00,-2.234948372290060270e+00,-1.471082442448751193e+00,-4.880956478224117712e-01,1.945329831664912301e-01,-4.612514533768834191e-02
2.783333333333333215e+00,1.643851002192059278e+09,5.892006611377723774e-02,-2.331115084772117818e+00,-2.607109390074905164e+00,-1.503132168863756002e+00,-4.727753341235884088e-01,1.933833268285671536e-01,-9.170699598135938213e-02
2.799999999999999822e+00,1.643851002208058357e+09,6.034200226572673104e-02,-2.489945919920316886e+00,-2.797517352662499679e+00,-1.567231621693767174e+00,-4.547100040089945838e-01,1.914608261660769861e-01,-1.388620940510244262e-01
2.816666666666666430e+00,1.643851002226433992e+09,6.172648701248978353e-02,-2.984796892230987986e+00,-3.446635406938392432e+00,-1.599281348108773093e+00,-4.341630174031446687e-01,1.886934091849305772e-01,-1.930773422304468967e-01
2.833333333333333481e+00,1.643851002243696213e+09,6.306524486345219116e-02,-3.494151476688168945e+00,-4.104408368604630652e+00,-1.663380800938784265e+00,-4.114282175022966892e-01,1.849626808038053460e-01,-2.544396087524961048e-01
2.850000000000000089e+00,1.643851002261980057e+09,6.435016169962060051e-02,-3.463216825035366764e+00,-4.052478924262558735e+00,-1.695430527353789074e+00,-3.868268175541093035e-01,1.802253940346740246e-01,-3.138697160265226938e-01
2.866666666666666696e+00,1.643851002278440714e+09,6.557337567058614536e-02,-3.533977335219120164e+00,-4.136143029035896035e+00,-1.727480253768793883e+00,-3.607039130256113890e-01,1.744996486253468648e-01,-3.730553247546077311e-01
2.883333333333333304e+00,1.643851002293401003e+09,6.672736927794375994e-02,-3.533977335219120164e+00,-4.136143029035896035e+00,-1.727480253768793883e+00,-3.334246519009648746e-01,1.677994189748524823e-01,-4.308117948894480964e-01
2.899999999999999911e+00,1.643851002311669588e+09,6.780506184249332491e-02,-3.318483425734888304e+00,-3.827451332113583238e+00,-1.791579706598805055e+00,-3.053701003657208202e-01,1.601781978762109593e-01,-4.835881325591500635e-01
2.916666666666666519e+00,1.643851002329678297e+09,6.879990152720931451e-02,-3.398541319095582214e+00,-3.934195189927840897e+00,-1.791579706598805055e+00,-2.769328453168612980e-01,1.516775307755130475e-01,-5.363453681986595223e-01
2.933333333333333126e+00,1.643851002347825766e+09,6.970595606946475287e-02,-3.012755464438625186e+00,-3.409130808246897182e+00,-1.823629433013810974e+00,-2.485123789346447287e-01,1.423620736536064524e-01,-5.813843751329741405e-01
2.950000000000000178e+00,1.643851002363888264e+09,7.051800136465503910e-02,-2.723458542648653502e+00,-3.034084821331936688e+00,-1.791579706598805055e+00,-2.205103139135836665e-01,1.323460127206202708e-01,-6.204344618093585728e-01
2.966666666666666785e+00,1.643851002378904104e+09,7.123160703941981697e-02,-2.471823752542048336e+00,-2.687888525718127308e+00,-1.823629433013810974e+00,-1.933254808297084071e-01,1.217230213326289945e-01,-6.542306243108966246e-01
2.983333333333333393e+00,1.643851002395100594e+09,7.184321815632019326e-02,-2.296561877887557834e+00,-2.454206026178806788e+00,-1.823629433013810974e+00,-1.673489614787936064e-01,1.105692236598322942e-01,-6.841420072942058228e-01
3.000000000000000000e+00,1.643851002416132927e+09,7.235023220320413451e-02,8.142537324373269048e-01,1.682864878782704077e+00,-1.791579706598805055e+00,-1.429591138189092447e-01,9.935407045469041298e-02,-6.617386104454237028e-01
3.016666666666666607e+00,1.643851002430284500e+09,7.275107053965193527e-02,7.396829212791048436e-01,1.583437130571741402e+00,-1.791579706598805055e+00,-1.205166453603110227e-01,8.850201283597261548e-02,-6.405671148947260640e-01
3.033333333333333215e+00,1.643851002448574305e+09,7.304524349983185227e-02,1.268457764037403734e+00,2.288470254249473257e+00,-1.791579706598805055e+00,-1.003597924416708559e-01,7.807570797861168588e-02,-6.106725105107695395e-01
3.049999999999999822e+00,1.643851002465537786e+09,7.323340838572470202e-02,1.524013111571315582e+00,2.607844233351352514e+00,-1.727480253768793883e+00,-8.279966279586291333e-02,6.818124031596078938e-02,-5.767578187018611580e-01
3.066666666666666430e+00,1.643851002481484652e+09,7.331741962685690839e-02,1.887008638919941195e+00,3.059788543401180672e+00,-1.631331074523778124e+00,-6.811579812958243330e-02,5.889949846871284089e-02,-5.371611961747738695e-01
3.083333333333333481e+00,1.643851002500434399e+09,7.330037043219377046e-02,2.140304264903602594e+00,3.376149560436059183e+00,-1.567231621693767174e+00,-5.655201211463606326e-02,5.030881373913112520e-02,-4.938413072320427255e-01
3.100000000000000089e+00,1.643851002517364979e+09,7.318662531640042490e-02,2.290885966528808826e+00,3.544875436187995721e+00,-1.471082442448751193e+00,-4.831255721731580327e-02,4.245608025130485907e-02,-4.486123502556915721e-01
3.116666666666666696e+00,1.643851002535039425e+09,7.298184294592131860e-02,2.487688553756242094e+00,3.785912401547903094e+00,-1.406982989618740243e+00,-4.355867118592469944e-02,3.537875474763630540e-02,-4.007995267091843949e-01
3.133333333333333304e+00,1.643851002553373814e+09,7.269298881984234684e-02,2.600881443624458722e+00,3.915469770428854801e+00,-1.342883536788729293e+00,-4.240555079220668239e-02,2.910749923335681499e-02,-3.518870063143673677e-01
3.149999999999999911e+00,1.643851002569494963e+09,7.232833737580018907e-02,2.964903425570328821e+00,4.379465928746677506e+00,-1.278784083958718121e+00,-4.491979660457011414e-02,2.369462819949811477e-02,-2.978077414644126897e-01
3.166666666666666519e+00,1.643851002583403587e+09,7.189746319173849487e-02,2.708735248150689223e+00,4.005858632438819456e+00,-1.182634904713701030e+00,-5.111736819068154331e-02,1.913937070326129225e-02,-2.489588526355090703e-01
3.183333333333333126e+00,1.643851002602399826e+09,7.141122103949747169e-02,2.593696261443742213e+00,3.831106832552886754e+00,-1.118535451883690079e+00,-6.096208424248093088e-02,1.537426532193521961e-02,-2.029815109674953100e-01
3.200000000000000178e+00,1.643851002619504690e+09,7.088171463538532613e-02,2.817822319629924355e+00,4.087208608247788533e+00,-9.903365462236681793e-01,-7.436469673225447330e-02,1.239820378250133803e-02,-1.542811557131002764e-01
3.216666666666666785e+00,1.643851002636804342e+09,7.032225402534993119e-02,3.150208199872307269e+00,4.509023297627628324e+00,-9.262370933936571182e-01,-9.118256239488919945e-02,1.027067472490600028e-02,-1.011698660308813086e-01
3.233333333333333393e+00,1.643851002654776096e+09,6.974730163737241639e-02,3.080363644170343029e+00,4.394530739081672799e+00,-8.621376405636461682e-01,-1.112199286449445657e-01,9.008583534940564630e-03,-5.042204624882590247e-02
3.250000000000000000e+00,1.643851002669736624e+09,6.917240713050042122e-02,3.070298303372100523e+00,4.370427042545681040e+00,-8.300879141486412482e-01,-1.342288445390887874e-01,8.580711794315267621e-03,-1.059683527650415180e-03
3.266666666666666607e+00,1.643851002686691284e+09,6.861413126768686754e-02,3.176505216233810547e+00,4.512036259694626850e+00,-8.300879141486412482e-01,-1.599107006506957362e-01,8.979850305891457288e-03,4.881775322049197730e-02
3.283333333333333215e+00,1.643851002702191353e+09,6.808995913750603979e-02,3.428567575264468648e+00,4.837436162930503158e+00,-7.980381877336351071e-01,-1.879183948035864637e-01,1.023433687559536891e-02,1.015740863251360926e-01
3.299999999999999822e+00,1.643851002720082521e+09,6.761820314701245949e-02,3.526762056522426469e+00,4.979045380079448968e+00,-8.300879141486412482e-01,-2.178591135891281005e-01,1.237023617638706441e-02,1.545865694065660101e-01
3.316666666666666430e+00,1.643851002737116337e+09,6.721789630365133938e-02,3.384606411212489618e+00,4.768138035389529961e+00,-7.659884613186302982e-01,-2.492977125402138228e-01,1.535837782761848881e-02,2.038535727332058400e-01
3.333333333333333481e+00,1.643851002756350994e+09,6.690867639736100547e-02,3.312295321604517007e+00,4.671723249245566478e+00,-7.659884613186302982e-01,-2.817606708343362021e-01,1.914635997410281745e-02,2.505745014328911724e-01
3.350000000000000089e+00,1.643851002770282745e+09,6.671066178398887825e-02,3.185750914790565602e+00,4.502997373493631272e+00,-7.659884613186302982e-01,-3.147405895234556272e-01,2.368453756816097516e-02,2.938864959266181964e-01
3.366666666666666696e+00,1.643851002789255619e+09,6.664431955702125598e-02,3.239984231996544839e+00,4.575308463101602996e+00,-7.659884613186302982e-01,-3.477011956186887298e-01,2.894153766029675806e-02,3.368342131074466561e-01
3.383333333333333304e+00,1.643851002806192160e+09,6.673032697561190330e-02,3.253542561298039981e+00,4.593386235503596815e+00,-7.659884613186302982e-01,-3.800828079696187412e-01,3.490580119740593207e-02,3.787609454591445157e-01
3.399999999999999911e+00,1.643851002824535847e+09,6.698942709218491665e-02,3.289698106102025843e+00,4.641593628575578556e+00,-7.659884613186302982e-01,-4.113082148466104537e-01,4.156373361896122803e-02,4.200761778918461475e-01
3.416666666666666519e+00,1.643851002839477301e+09,6.744227959173269837e-02,2.912324607210419192e+00,4.138428963386768800e+00,-7.659884613186302982e-01,-4.407889075322745653e-01,4.884835186326032946e-02,4.539838213088494556e-01
3.433333333333333126e+00,1.643851002857048512e+09,6.810930791664346340e-02,2.740585769391484572e+00,3.909443846294855973e+00,-7.659884613186302982e-01,-4.679316091243736486e-01,5.666594453975551393e-02,4.840437979701394666e-01
3.449999999999999734e+00,1.643851002875074625e+09,6.901054380478746642e-02,2.921363493411415657e+00,4.150480811654764679e+00,-7.659884613186302982e-01,-4.921450332119322035e-01,6.500200966752441023e-02,5.161947071790286001e-01
3.466666666666666785e+00,1.643851002890055418e+09,7.016547041410257923e-02,2.394848372203366438e+00,3.448460650044032239e+00,-7.659884613186302982e-01,-5.128468031689862316e-01,7.379390071243262239e-02,5.387695089513599989e-01
3.483333333333333393e+00,1.643851002908815384e+09,7.159286524346963887e-02,2.440042803208349209e+00,3.508719891384008971e+00,-7.659884613186302982e-01,-5.294704595702323102e-01,8.296286662030565029e-02,5.614434154374555730e-01
3.500000000000000000e+00,1.643851002926193237e+09,7.331064408682969047e-02,2.737299593243991414e+00,3.894379035959862900e+00,-7.339387349036241570e-01,-5.414724807180404387e-01,9.254599876934882507e-02,5.884574018305115395e-01
3.516666666666666607e+00,1.643851002942867041e+09,7.533570727483103469e-02,2.975596810617395782e+00,4.222791901262737291e+00,-7.659884613186302982e-01,-5.483392395208974701e-01,1.026075981300780121e-01,6.188500953213906808e-01
3.533333333333333215e+00,1.643851002959137201e+09,7.768378946551701691e-02,3.020791241622378109e+00,4.283051142602714023e+00,-7.659884613186302982e-01,-5.495938190130722489e-01,1.131776135225474877e-01,6.494667036390763259e-01
3.549999999999999822e+00,1.643851002977486134e+09,8.036931424241598731e-02,3.041128735574620823e+00,4.310167801205704308e+00,-7.659884613186302982e-01,-5.448026086784945043e-01,1.242571477282686798e-01,6.799926048816239410e-01
3.566666666666666430e+00,1.643851002994461298e+09,8.340525476473291400e-02,2.923623214961665440e+00,4.153493773721764093e+00,-7.659884613186302982e-01,-5.335816044556526139e-01,1.358265506315511073e-01,7.082572288201084421e-01
3.583333333333333481e+00,1.643851003009829521e+09,8.680300169010184141e-02,2.751884377142730376e+00,3.924508656629850822e+00,-7.659884613186302982e-01,-5.156023368617084213e-01,1.478418893279522528e-01,7.335132574617243550e-01
3.600000000000000089e+00,1.643851003027763844e+09,9.057223955554885575e-02,3.149595369986579740e+00,4.454789980421649531e+00,-7.659884613186302982e-01,-4.905973540823547752e-01,1.603330592012451594e-01,7.653387211868352136e-01
3.616666666666666696e+00,1.643851003043738604e+09,9.472083275708285954e-02,3.010725900824136048e+00,4.258947446066723153e+00,-7.339387349036241570e-01,-4.583651901179854327e-01,1.733355289232239860e-01,7.948755966432922149e-01
3.633333333333333304e+00,1.643851003062805176e+09,9.925472221283972163e-02,3.158634256187576206e+00,4.466841828689644522e+00,-7.659884613186302982e-01,-4.187747521373426096e-01,1.868520976817275026e-01,8.270233529522925675e-01
3.649999999999999911e+00,1.643851003078309536e+09,1.041778337292969259e-01,3.208348130293056322e+00,4.533126994163618306e+00,-7.659884613186302982e-01,-3.717690660376437584e-01,2.009133810684879673e-01,8.602383873031222983e-01
3.666666666666666519e+00,1.643851003094795227e+09,1.094919990150939326e-01,2.906778709512676695e+00,4.120351190984776757e+00,-7.339387349036241570e-01,-3.173683248077264207e-01,2.154895216226281607e-01,8.888190864940646030e-01
3.683333333333333126e+00,1.643851003111750841e+09,1.151968902029458092e-01,2.634378856529775437e+00,3.767834629145910608e+00,-7.659884613186302982e-01,-2.556721905911187309e-01,2.305089570800797627e-01,9.134447621355905600e-01
3.699999999999999734e+00,1.643851003130109549e+09,1.212899686475502198e-01,2.189213711130694850e+00,3.174281101947136641e+00,-7.659884613186302982e-01,-1.868613082946051218e-01,2.458834369156733812e-01,9.314428223472651647e-01
3.716666666666666785e+00,1.643851003145081997e+09,1.277664486669418120e-01,2.128201229273968043e+00,3.092931126138167564e+00,-7.659884613186302982e-01,-1.111979961215396051e-01,2.615574221003982291e-01,9.493855577150808189e-01
3.733333333333333393e+00,1.643851003162036419e+09,1.346192767870908469e-01,2.376770599801373063e+00,3.424356953508040924e+00,-7.659884613186302982e-01,-2.902608645821120464e-02,2.775736567656750808e-01,9.724983982721899789e-01
3.750000000000000000e+00,1.643851003179651260e+09,1.418391269355614437e-01,2.121422064623220471e+00,3.083892239937171098e+00,-7.659884613186302982e-01,5.923010097131812396e-02,2.939488342047213987e-01,9.924674235930526223e-01
3.766666666666666607e+00,1.643851003194604158e+09,1.494144119104662272e-01,2.003916544010265532e+00,2.927218212453230883e+00,-7.659884613186302982e-01,1.530676629238200137e-01,3.106508015704476655e-01,1.011715193009561142e+00
3.783333333333333215e+00,1.643851003212021828e+09,1.573313113268217656e-01,1.765619326636860498e+00,2.598805347150355161e+00,-7.339387349036241570e-01,2.519078935607909076e-01,3.276516447130067844e-01,1.028339803536962860e+00
3.799999999999999822e+00,1.643851003230462790e+09,1.655738161145825227e-01,1.337298686686768878e+00,2.038394402688568530e+00,-7.659884613186302982e-01,3.550999333244379552e-01,3.448823615737004467e-01,1.039315730343122635e+00
3.816666666666666430e+00,1.643851003246943712e+09,1.741237895121789114e-01,1.201715393671820342e+00,1.857616678668637000e+00,-7.659884613186302982e-01,4.619252672481707345e-01,3.622905224836839300e-01,1.049634913781805734e+00
3.833333333333333481e+00,1.643851003266202211e+09,1.829610443673401754e-01,8.898738197374391756e-01,1.441827913422795593e+00,-7.659884613186302982e-01,5.716030448385533980e-01,3.798413215291216449e-01,1.056442062479301169e+00
3.850000000000000089e+00,1.643851003281631708e+09,1.920634364244180048e-01,7.972252361772244056e-01,1.318296468675842714e+00,-7.659884613186302982e-01,6.832961844387395178e-01,3.975072632896592406e-01,1.063451477729029593e+00
3.866666666666666696e+00,1.643851003298252583e+09,2.014069731454352363e-01,8.853543766369406098e-01,1.435801989288797431e+00,-7.659884613186302982e-01,7.961182159750674892e-01,4.153168159699054396e-01,1.073666468258983597e+00
3.883333333333333304e+00,1.643851003316448212e+09,2.109659374817827449e-01,9.905348349014053699e-01,1.565359358169748472e+00,-7.339387349036241570e-01,9.091408072978971466e-01,4.333253459068145963e-01,1.087319199025396088e+00
3.899999999999999911e+00,1.643851003332629681e+09,2.207130258859847927e-01,-1.434963025029941219e+00,-1.657954546267044860e+00,-7.659884613186302982e-01,1.021401911052685962e+00,4.512400302195098689e-01,1.062511829479746428e+00
3.916666666666666519e+00,1.643851003349656820e+09,2.306194997293261051e-01,-1.493383649914771683e+00,-1.735848712780151848e+00,-7.659884613186302982e-01,1.131914461252377491e+00,4.687518797420876515e-01,1.038975493479461942e+00
3.933333333333333126e+00,1.643851003368127823e+09,2.406553491725107186e-01,-2.001859459097554250e+00,-2.413816458357195494e+00,-7.659884613186302982e-01,1.239675541558209693e+00,4.858193609301687532e-01,1.009204946999058494e+00
3.949999999999999734e+00,1.643851003384059906e+09,2.507894684238991534e-01,-1.828761311290649338e+00,-2.183018927947989241e+00,-7.659884613186302982e-01,1.343675940799140767e+00,5.024330512558934370e-01,9.845065004984753232e-01
3.966666666666666785e+00,1.643851003403058529e+09,2.609898412143448199e-01,-1.973088534292337437e+00,-2.364771983145238288e+00,-7.980381877336351071e-01,1.442910005550256836e+00,5.186322838788450795e-01,9.594709590631556040e-01
3.983333333333333393e+00,1.643851003418422937e+09,2.712237352200952412e-01,-2.695773301386164444e+00,-3.328351672603674150e+00,-7.980381877336351071e-01,1.536385694721059236e+00,5.343308087275498997e-01,9.244493074366990637e-01
4.000000000000000000e+00,1.643851003437755585e+09,2.814579040766844731e-01,-3.572961449933017342e+00,-4.476569386389474658e+00,-8.621376405636461682e-01,1.623134737140746076e+00,5.493413007467332632e-01,8.769417035376445568e-01
4.016666666666666607e+00,1.643851003454054594e+09,2.916587955479446603e-01,-3.454835248590169883e+00,-4.297701300322341211e+00,-9.262370933936571182e-01,1.702222790127017715e+00,5.635938004727666373e-01,8.334789961705586503e-01
4.033333333333333215e+00,1.643851003470975637e+09,3.017927643461127962e-01,-3.630975898519059442e+00,-4.511189015950856529e+00,-9.903365462236681793e-01,1.772759495034466282e+00,5.771133387639304502e-01,7.889891844879849403e-01
4.049999999999999822e+00,1.643851003487976551e+09,3.118262880421250327e-01,-4.101383399719686906e+00,-5.117032533275023276e+00,-1.054435999053679129e+00,1.833908324837111747e+00,5.898409981368050170e-01,7.384702738670675393e-01
4.066666666666666430e+00,1.643851003505993843e+09,3.217261844602471443e-01,-4.015713101090632620e+00,-4.981438984159613170e+00,-1.118535451883690079e+00,1.884896118933518272e+00,6.017525286470957191e-01,6.910451269874915425e-01
4.083333333333333037e+00,1.643851003522106409e+09,3.314598289186977409e-01,-4.252438102751939120e+00,-5.275705835431351964e+00,-1.182634904713701030e+00,1.925022201589450477e+00,6.128530360868873483e-01,6.411543545283250323e-01
4.099999999999999645e+00,1.643851003540048122e+09,3.409953696583209459e-01,-4.963019284034647427e+00,-6.201780926198291688e+00,-1.246734357543712202e+00,1.953666982756713688e+00,6.230347321948951356e-01,5.808167867323517086e-01
4.116666666666666252e+00,1.643851003555386543e+09,3.503019397949745928e-01,-4.903956183363222365e+00,-6.112346883164723188e+00,-1.278784083958718121e+00,1.970299943422227473e+00,6.322295912057027678e-01,5.227276570558608837e-01
4.133333333333332860e+00,1.643851003572851658e+09,3.593498641383665038e-01,-4.957406878766286162e+00,-6.172931234897140129e+00,-1.310833810373723152e+00,1.974486912129963745e+00,6.404575170242988724e-01,4.647843984599926981e-01
4.150000000000000355e+00,1.643851003589130878e+09,3.681108592406954760e-01,-5.046998454791723709e+00,-6.271020185321053653e+00,-1.374933263203734102e+00,1.965896544851334804e+00,6.477141640790873289e-01,4.061760529061977376e-01
4.166666666666666963e+00,1.643851003606245995e+09,3.765582250726084435e-01,-5.241733871074490736e+00,-6.530667407031410576e+00,-1.374933263203734102e+00,1.944305926915957716e+00,6.539722213287909591e-01,3.449608632538518349e-01
4.183333333333333570e+00,1.643851003624244213e+09,3.846670267716441605e-01,-4.838638201636844549e+00,-5.982523272309546059e+00,-1.406982989618740243e+00,1.909605223202641255e+00,6.592693633866458791e-01,2.908465048887601823e-01
4.200000000000000178e+00,1.643851003642195702e+09,3.924142649691491069e-01,-4.310046375039190636e+00,-5.267050928041006053e+00,-1.439032716033745052e+00,1.861801311167190054e+00,6.637384804405868088e-01,2.455733034369525225e-01
4.216666666666666785e+00,1.643851003659151077e+09,3.997790332754005416e-01,-5.084660586475090227e+00,-6.299869876622205211e+00,-1.439032716033745052e+00,1.801020340476428894e+00,6.673439120947787240e-01,1.872405343494495666e-01
4.233333333333333393e+00,1.643851003675108910e+09,4.067426615888187214e-01,-5.103491652316773042e+00,-6.314294722272779659e+00,-1.471082442448751193e+00,1.727509172944188709e+00,6.699724335266685760e-01,1.283456382613499258e-01
4.250000000000000000e+00,1.643851003692297935e+09,4.132888439931851621e-01,-4.696711004970547165e+00,-5.771920525811144564e+00,-1.471082442448751193e+00,1.641635667033015666e+00,6.716718318040231228e-01,7.572831768503653083e-02
4.266666666666666607e+00,1.643851003710409880e+09,4.194037501160048365e-01,-5.376121235112647945e+00,-6.677800832667279529e+00,-1.471082442448751193e+00,1.543887782296391897e+00,6.723942008024050843e-01,1.113539113971698247e-02
4.283333333333333215e+00,1.643851003725827217e+09,4.250761189408030494e-01,-4.385134338918119212e+00,-5.356484971074573664e+00,-1.471082442448751193e+00,1.434871490682361639e+00,6.721707608522587973e-01,-3.781221638073263558e-02
4.299999999999999822e+00,1.643851003741437197e+09,4.302973341953737485e-01,-4.427123924296656021e+00,-5.391104600635953759e+00,-1.535181895278762143e+00,1.315307493489373147e+00,6.711159742499771541e-01,-8.862103695857231900e-02
4.316666666666666430e+00,1.643851003760509968e+09,4.350614805758175607e-01,-5.221211677360830805e+00,-6.449888271388187988e+00,-1.535181895278762143e+00,1.186026754839403896e+00,6.690938555942386179e-01,-1.538520003448576035e-01
4.333333333333333037e+00,1.643851003777464628e+09,4.393653802115901064e-01,-5.147002488756304395e+00,-6.340259444443816506e+00,-1.567231621693767174e+00,1.047964874691795334e+00,6.659847445829900625e-01,-2.190601829013508473e-01
4.349999999999999645e+00,1.643851003793422222e+09,4.432086089286225716e-01,-5.110219132347336490e+00,-6.291214969231859300e+00,-1.567231621693767174e+00,9.021553365383572221e-01,6.617827783652214801e-01,-2.849926132803985990e-01
4.366666666666666252e+00,1.643851003809338808e+09,4.465934920246694140e-01,-4.782853902575209482e+00,-5.844044754064022129e+00,-1.599281348108773093e+00,7.497216768708461210e-01,6.565152065637331891e-01,-3.469439119073163269e-01
4.383333333333332860e+00,1.643851003827346802e+09,4.495250794321630217e-01,-4.314846427709973398e+00,-5.209351545438705600e+00,-1.631331074523778124e+00,5.918686351702615589e-01,6.502665085478079865e-01,-4.027448437670529957e-01
4.400000000000000355e+00,1.643851003842854500e+09,4.520111003076995315e-01,-4.487944575516877421e+00,-5.440149075847910964e+00,-1.631331074523778124e+00,4.298723544083668524e-01,6.430492188437623158e-01,-4.631620910814824854e-01
4.416666666666666963e+00,1.643851003861177206e+09,4.540618972525310437e-01,-3.710524161446799862e+00,-4.392905281616138247e+00,-1.663380800938784265e+00,2.650697127542376297e-01,6.349179349505597036e-01,-5.124550479998225549e-01
4.433333333333333570e+00,1.643851003876228333e+09,4.556903405337401347e-01,-3.903095850881980855e+00,-4.649667534196380458e+00,-1.663380800938784265e+00,9.884687722347164363e-02,6.259223532643736210e-01,-5.668636158746116482e-01
4.450000000000000178e+00,1.643851003894760609e+09,4.569117228397534536e-01,-3.619647633848175339e+00,-4.271736578151305253e+00,-1.663380800938784265e+00,-6.737282071765043900e-02,6.160436687137016420e-01,-6.184352722333701369e-01
4.466666666666666785e+00,1.643851003910651684e+09,4.577436352651086948e-01,-3.347018051052300436e+00,-3.908230467756805382e+00,-1.663380800938784265e+00,-2.321415791825265362e-01,6.053274774508354827e-01,-6.673717414744178011e-01
4.483333333333333393e+00,1.643851003927988529e+09,4.582058253766095324e-01,-3.277778791929538471e+00,-3.815911455593122614e+00,-1.663380800938784265e+00,-3.940002736969736019e-01,5.937896448542039352e-01,-7.170302266382281298e-01
4.500000000000000000e+00,1.643851003943945408e+09,4.583200383647844656e-01,-2.819068700241240677e+00,-3.204298000008726444e+00,-1.663380800938784265e+00,-5.514919366459135608e-01,5.814726341326013070e-01,-7.608892265314114445e-01
4.516666666666666607e+00,1.643851003958953619e+09,4.581098424296041749e-01,-1.882174975236369674e+00,-1.955106366668898144e+00,-1.663380800938784265e+00,-7.031754409367910741e-01,5.685391515338775736e-01,-7.910449175355737106e-01
4.533333333333333215e+00,1.643851003977374315e+09,4.576004396864543078e-01,-1.518668864841870025e+00,-1.470431552809565279e+00,-1.663380800938784265e+00,-8.476392564893269199e-01,5.551374934352321100e-01,-8.170817281257815035e-01
4.549999999999999822e+00,1.643851003994154215e+09,4.568184640061277446e-01,-1.274810206851210825e+00,-1.155969917627021726e+00,-1.631331074523778124e+00,-9.835151454433272988e-01,5.413203993446265017e-01,-8.409033899067515083e-01
4.566666666666666430e+00,1.643851004012840271e+09,4.557917673200038711e-01,-1.287792567936728583e+00,-1.173279732407711995e+00,-1.631331074523778124e+00,-1.109491660578213912e+00,5.270903747481628931e-01,-8.666281024522035636e-01
4.583333333333333037e+00,1.643851004028691769e+09,4.545491960274517518e-01,-1.281943863180563969e+00,-1.176164701537827595e+00,-1.599281348108773093e+00,-1.224327311393085704e+00,5.124201047213701177e-01,-8.937290186683048976e-01
4.599999999999999645e+00,1.643851004044761181e+09,4.531203592359128174e-01,-3.837954738196905358e-01,0.000000000000000000e+00,-1.535181895278762143e+00,-1.326863263623394573e+00,4.974117863365167813e-01,-9.072316792408363639e-01
4.616666666666666252e+00,1.643851004064429760e+09,4.515353906440917608e-01,2.593962928548313451e-01,8.362225379560256355e-01,-1.471082442448751193e+00,-1.416035440675278201e+00,4.822568100651621337e-01,-9.113540220998225250e-01
4.633333333333332860e+00,1.643851004082154989e+09,4.498247059445006912e-01,3.906669551250406269e-01,9.898836033729675465e-01,-1.406982989618740243e+00,-1.490885899531732006e+00,4.670414902461912376e-01,-9.144756846876298528e-01
4.650000000000000355e+00,1.643851004098104000e+09,4.480187576724702914e-01,4.539391585320164957e-01,1.074246541248935261e+00,-1.406982989618740243e+00,-1.550573359103945004e+00,4.517750690096249411e-01,-9.174865001272624054e-01
4.666666666666666963e+00,1.643851004114061117e+09,4.461477894641535658e-01,6.856640236104327712e-01,1.372529785881821729e+00,-1.374933263203734102e+00,-1.594382765728130424e+00,4.364848383479483784e-01,-9.173415818342141037e-01
4.683333333333333570e+00,1.643851004131015301e+09,4.442415917055386188e-01,8.078957996796448660e-01,1.514139003030767539e+00,-1.310833810373723152e+00,-1.621733788492290218e+00,4.212101079519582347e-01,-9.156308179184347029e-01
4.700000000000000178e+00,1.643851004147344351e+09,4.423292605576869541e-01,7.604416471244133113e-01,1.450866799623792058e+00,-1.310833810373723152e+00,-1.632188146253578998e+00,4.059556556439924968e-01,-9.149054739292884486e-01
4.716666666666666785e+00,1.643851004165519238e+09,4.404389623302022994e-01,8.666485599861230016e-01,1.592476016772738312e+00,-1.310833810373723152e+00,-1.625455678497151668e+00,3.907287914612432855e-01,-9.123253950550563873e-01
4.733333333333333393e+00,1.643851004180702686e+09,4.385977051451908637e-01,9.705957512975835755e-01,1.731072271854685818e+00,-1.310833810373723152e+00,-1.601399083501380494e+00,3.755622521781181167e-01,-9.076722446419944745e-01
4.750000000000000000e+00,1.643851004200172663e+09,4.368311197878380625e-01,1.031608233154310605e+00,1.812422247663654895e+00,-1.310833810373723152e+00,-1.560037259509761798e+00,3.604867626966260508e-01,-9.014039055997599137e-01
4.766666666666666607e+00,1.643851004215158701e+09,4.351632515773682930e-01,1.042906840905555299e+00,1.827487057998647968e+00,-1.310833810373723152e+00,-1.501547197653760213e+00,3.455245189922570015e-01,-8.940856678411942537e-01
4.783333333333333215e+00,1.643851004232134342e+09,4.336163650139769343e-01,9.989456768535769360e-01,1.758188930457675214e+00,-1.278784083958718121e+00,-1.426264389100840857e+00,3.306875612797136599e-01,-8.863706886661053552e-01
4.799999999999999822e+00,1.643851004251053572e+09,4.322107628638043320e-01,8.995179286426145948e-01,1.625618599509725648e+00,-1.278784083958718121e+00,-1.334681723186348812e+00,3.159770373899673523e-01,-8.789128946854212199e-01
4.816666666666666430e+00,1.643851004266221523e+09,4.309646212358075879e-01,8.611026622883791726e-01,1.574398244370744937e+00,-1.278784083958718121e+00,-1.227446867988559509e+00,3.013992853882899725e-01,-8.704408794454134846e-01
4.833333333333333037e+00,1.643851004285595655e+09,4.298938420822007167e-01,1.046606641764567192e+00,1.800370399395658572e+00,-1.214684631128707171e+00,-1.105358139778129134e+00,2.870040483399060594e-01,-8.570248340305889334e-01
4.849999999999999645e+00,1.643851004302525997e+09,4.290119244189403158e-01,1.290656569191474645e+00,2.125770302631535547e+00,-1.214684631128707171e+00,-9.693588828674690738e-01,2.728830516005232854e-01,-8.375488758524727295e-01
4.866666666666666252e+00,1.643851004319642305e+09,4.283298554154660875e-01,1.387824595852187537e+00,2.255327671512485921e+00,-1.214684631128707171e+00,-8.205303964498722458e-01,2.591179412961791551e-01,-8.143288622247566444e-01
4.883333333333332860e+00,1.643851004334541082e+09,4.278560223447166466e-01,1.402616192106686865e+00,2.264366557713482830e+00,-1.182634904713701030e+00,-6.600834598987335156e-01,2.457608280926853461e-01,-7.885962034844635760e-01
4.900000000000000355e+00,1.643851004352518559e+09,4.275961462165786542e-01,1.614003563232860428e+00,2.535533143743379014e+00,-1.150585178298696221e+00,-4.893485225401437710e-01,2.328818172511139539e-01,-7.569729419646802349e-01
4.916666666666666963e+00,1.643851004367812157e+09,4.275532377416376706e-01,1.736028526946313821e+00,2.698233095361317169e+00,-1.150585178298696221e+00,-3.097646379655883409e-01,2.205671513121650884e-01,-7.208872112093859252e-01
4.933333333333333570e+00,1.643851004384273767e+09,4.277275760888974432e-01,2.054649265531442559e+00,3.123060746808155486e+00,-1.150585178298696221e+00,-1.228672363660729128e-01,2.089187524577614252e-01,-6.770424452022261175e-01
4.950000000000000178e+00,1.643851004402848959e+09,4.281167107123504678e-01,2.043350657780196755e+00,3.107995936473161080e+00,-1.150585178298696221e+00,6.972515899901286784e-02,1.980200842309245146e-01,-6.309258466957357037e-01
4.966666666666666785e+00,1.643851004417752266e+09,4.287154863286358752e-01,1.973299289722473926e+00,3.014594112396197012e+00,-1.150585178298696221e+00,2.663251533736190613e-01,1.879011352910102128e-01,-5.834798237042198021e-01
4.983333333333333393e+00,1.643851004436870098e+09,4.295160909328927246e-01,2.029792328478702057e+00,3.089918164071168150e+00,-1.150585178298696221e+00,4.651915116317414944e-01,1.786016704999173199e-01,-5.325972949112861565e-01
5.000000000000000000e+00,1.643851004455765486e+09,4.305081265441378924e-01,2.163115899943401477e+00,3.267682926024100709e+00,-1.150585178298696221e+00,6.645448609842776744e-01,1.701891694374070008e-01,-4.770571144999811719e-01
5.016666666666666607e+00,1.643851004468759298e+09,4.288151697651181316e-01,2.395867219619063349e+00,3.578018018924983057e+00,-1.150585178298696221e+00,8.625839190828560321e-01,1.627541677929172370e-01,-4.153145938771261036e-01
5.033333333333333215e+00,1.643851004486835003e+09,4.272962737452354887e-01,2.511113018681768949e+00,3.731679084341923858e+00,-1.150585178298696221e+00,1.050487174598793150e+00,1.563815513497332776e-01,-3.495819742125994556e-01
5.049999999999999822e+00,1.643851004504081011e+09,4.259309402905674391e-01,2.348413067063830795e+00,3.514745815518006467e+00,-1.150585178298696221e+00,1.231035778197422159e+00,1.510978648101155564e-01,-2.846408069186274759e-01
5.066666666666666430e+00,1.643851004520006895e+09,4.246971531167901825e-01,2.210570052498633142e+00,3.330955129431076855e+00,-1.150585178298696221e+00,1.402630943170291689e+00,1.468922232161559427e-01,-2.202151487301857724e-01
5.083333333333333037e+00,1.643851004537960291e+09,4.235715993846639327e-01,2.063688151732439913e+00,3.135112595076151809e+00,-1.150585178298696221e+00,1.563760787644168593e+00,1.437534120210423594e-01,-1.566188552121287048e-01
5.099999999999999645e+00,1.643851004555912018e+09,4.225298993217999621e-01,2.167635343043899265e+00,3.273708850158097761e+00,-1.150585178298696221e+00,1.713013773883435675e+00,1.417007272342991897e-01,-8.988868514326329995e-02
5.116666666666666252e+00,1.643851004571869612e+09,4.215468419717107174e-01,1.751846577798057636e+00,2.719323829830309069e+00,-1.150585178298696221e+00,1.849091169071646945e+00,1.407123612703171656e-01,-2.888469006478620177e-02
5.133333333333332860e+00,1.643851004588823795e+09,4.205966250718596311e-01,1.946182631119483641e+00,2.978438567592210262e+00,-1.150585178298696221e+00,1.970818412137190334e+00,1.407759574756070609e-01,3.633506445086844699e-02
5.150000000000000355e+00,1.643851004605752707e+09,4.196530970394515281e-01,2.008428379929215080e+00,3.050749657200183762e+00,-1.118535451883690079e+00,2.077155281901275075e+00,1.419408261198500110e-01,1.032632568371336657e-01
5.166666666666666963e+00,1.643851004622732401e+09,4.186899990370482327e-01,1.880650706162258823e+00,2.891062667649244133e+00,-1.150585178298696221e+00,2.167204773540089224e+00,1.442067094465289412e-01,1.684616315054938696e-01
5.183333333333333570e+00,1.643851004640687466e+09,4.176812050999479942e-01,1.952961795770231435e+00,2.987477453793207616e+00,-1.150585178298696221e+00,2.240220602949133610e+00,1.475702997455411447e-01,2.349844145184710742e-01
5.200000000000000178e+00,1.643851004656649590e+09,4.166009583333591948e-01,1.828677110506528702e+00,2.821764540108270047e+00,-1.150585178298696221e+00,2.295613271954640489e+00,1.520238995351262112e-01,2.992689877699054590e-01
5.216666666666666785e+00,1.643851004674614906e+09,4.154241012296070457e-01,1.555250802926383180e+00,2.457196130001409795e+00,-1.150585178298696221e+00,2.332954641302354304e+00,1.575074216920999692e-01,3.585888896834106276e-01
5.233333333333333393e+00,1.643851004690984011e+09,4.141262982134922832e-01,1.017437073967087269e+00,1.740111158055681839e+00,-1.150585178298696221e+00,2.351980972831057670e+00,1.638997604123211826e-01,4.083535184098251447e-01
5.250000000000000000e+00,1.643851004707425117e+09,4.126842485969762775e-01,1.184656468685524100e+00,1.963070351013597614e+00,-1.150585178298696221e+00,2.352594417065409615e+00,1.711378172514250728e-01,4.600696429999034942e-01
5.266666666666666607e+00,1.643851004726379156e+09,4.110758882120790214e-01,1.293123103097482796e+00,2.107692530229542616e+00,-1.150585178298696221e+00,2.334862937494313062e+00,1.792431988282912059e-01,5.124306954329006514e-01
5.283333333333333215e+00,1.643851004742710114e+09,4.092805780923073899e-01,1.314693864002728807e+00,2.125770302631535547e+00,-1.118535451883690079e+00,2.299018677890420026e+00,1.882120610149229378e-01,5.636903756111547592e-01
5.299999999999999822e+00,1.643851004758669615e+09,4.072792786875200632e-01,1.199448064940022318e+00,1.972109237214593191e+00,-1.118535451883690079e+00,2.245454794025873113e+00,1.980048551142851720e-01,6.113126291612240859e-01
5.316666666666666430e+00,1.643851004775602102e+09,4.050547082236157781e-01,1.180137025585025867e+00,1.957044426879599897e+00,-1.150585178298696221e+00,2.174720785902751974e+00,2.085723387631718551e-01,6.566594423704670280e-01
5.333333333333333037e+00,1.643851004792672157e+09,4.025914839560653102e-01,7.643482603391837937e-01,1.402659406551810539e+00,-1.150585178298696221e+00,2.087516380999362209e+00,2.198198656401052775e-01,6.929429928491760426e-01
5.349999999999999645e+00,1.643851004810005903e+09,3.998762452137279433e-01,7.497634764404437213e-01,1.372529785881821729e+00,-1.118535451883690079e+00,1.984684032896145034e+00,2.316508891433940731e-01,7.266860945014970152e-01
5.366666666666666252e+00,1.643851004827129841e+09,3.968977572855196811e-01,5.406358268645187204e-01,1.104376161918923627e+00,-1.150585178298696221e+00,1.867200112851941096e+00,2.439945253072187958e-01,7.544730573329466727e-01
5.383333333333332860e+00,1.643851004846786261e+09,3.936469953660409193e-01,5.983621325737515928e-01,1.170661327392898743e+00,-1.118535451883690079e+00,1.736164884324614910e+00,2.567873141040644680e-01,7.805890521510737701e-01
5.400000000000000355e+00,1.643851004861858130e+09,3.901172079458282704e-01,4.221038516543182961e-01,9.356502861669877547e-01,-1.118535451883690079e+00,1.592791361949325246e+00,2.699676146228187634e-01,8.009903385257135522e-01
5.416666666666666963e+00,1.643851004879505157e+09,3.863039592061865424e-01,2.852872916863660735e-01,7.639114483480534679e-01,-1.150585178298696221e+00,1.438393166991050132e+00,2.834448960180384613e-01,8.162410647751174864e-01
5.433333333333333570e+00,1.643851004895674229e+09,3.822051501560471132e-01,-1.003162853463899218e+00,-9.540220785189666985e-01,-1.150585178298696221e+00,1.274371500674492008e+00,2.969736336148209310e-01,8.072324712985116113e-01
5.450000000000000178e+00,1.643851004913914919e+09,3.778210184276614148e-01,-1.472049103603533693e+00,-1.568520503233477914e+00,-1.182634904713701030e+00,1.102201364973139697e+00,3.102649292305382778e-01,7.877770467056209869e-01
5.466666666666666785e+00,1.643851004926854610e+09,3.731541168276297782e-01,-2.129179589483177537e+00,-2.434011242268001141e+00,-1.214684631128707171e+00,9.234171673327677965e-01,3.231191980094748062e-01,7.548267375575109517e-01
5.483333333333333393e+00,1.643851004948852301e+09,3.682092709183487633e-01,-2.622745610220660328e+00,-3.060049543502972647e+00,-1.310833810373723152e+00,7.395978513465572002e-01,3.353352852817129137e-01,7.112248543040378124e-01
5.500000000000000000e+00,1.643851004965892553e+09,3.629935160810192629e-01,-3.168241075300214593e+00,-3.755327103860705673e+00,-1.406982989618740243e+00,5.523516995371027249e-01,3.467294901758558590e-01,6.562324931471763545e-01
5.516666666666666607e+00,1.643851004981827497e+09,3.575160146834377994e-01,-3.614847581177393465e+00,-4.329435960753607482e+00,-1.471082442448751193e+00,3.633009570973546043e-01,3.571269539934348591e-01,5.916425855949301038e-01
5.533333333333333215e+00,1.643851004997774839e+09,3.517879541424430156e-01,-4.259874481245917721e+00,-5.157422101096633682e+00,-1.567231621693767174e+00,1.740664266730228560e-01,3.663416119370172530e-01,5.143311267417994825e-01
5.549999999999999822e+00,1.643851005012736320e+09,3.458224268309393334e-01,-5.556183162437918988e+00,-6.853783949604298265e+00,-1.663380800938784265e+00,-1.374781597651886234e-02,3.740734360648781953e-01,4.137671196403646112e-01
5.566666666666666430e+00,1.643851005028825760e+09,3.396342929312707315e-01,-5.891797123301603101e+00,-7.269219504340870941e+00,-1.759529980183800024e+00,-1.985694373169942795e-01,3.800712005362582024e-01,3.062632458253413126e-01
5.583333333333333037e+00,1.643851005047006369e+09,3.332400274795259687e-01,-5.677824464878362676e+00,-6.951872900028211788e+00,-1.855679159428816005e+00,-3.788724474236763173e-01,3.842967327347061590e-01,2.010927650885260265e-01
5.599999999999999645e+00,1.643851005063957930e+09,3.266575529775542774e-01,-5.702504235476211214e+00,-6.963412776548672412e+00,-1.919778612258826955e+00,-5.531912470414610539e-01,3.867564640050042413e-01,9.437144244293343975e-02
5.616666666666666252e+00,1.643851005077956915e+09,3.199060590703565743e-01,-5.748821274549921867e+00,-7.003802344370282817e+00,-1.983878065088837905e+00,-7.201339859058341064e-01,3.874227914199377953e-01,-1.411080597959604721e-02
5.633333333333332860e+00,1.643851005096594572e+09,3.130058108948255424e-01,-6.727062109146737967e+00,-8.276073730751031476e+00,-2.080027244333855219e+00,-8.783951051729337323e-01,3.861390907664947747e-01,-1.395847255648141882e-01
5.650000000000000355e+00,1.643851005115659237e+09,3.059779478008421982e-01,-6.621918268889407599e+00,-8.114515459464588076e+00,-2.144126697163866169e+00,-1.026766945305340073e+00,3.827755179674334762e-01,-2.636992396689986640e-01
5.666666666666666963e+00,1.643851005130719662e+09,2.988442742266854135e-01,-6.733147113390708149e+00,-8.241454101189651382e+00,-2.208226149993877119e+00,-1.164150310407543021e+00,3.773261742494792848e-01,-3.898715196810153549e-01
5.683333333333333570e+00,1.643851005149664402e+09,2.916270445767699115e-01,-6.543617926077510027e+00,-7.967382033828718235e+00,-2.272325602823888069e+00,-1.289563890703059101e+00,3.698002418558962168e-01,-5.128986175671084169e-01
5.700000000000000178e+00,1.643851005165406704e+09,2.843487440006866596e-01,-6.946949895002963338e+00,-8.483791508119319147e+00,-2.336425055653899019e+00,-1.402152456488151122e+00,3.601695911933415761e-01,-6.424196727627389247e-01
5.716666666666666785e+00,1.643851005183356285e+09,2.770318670075574974e-01,-6.714788646524634252e+00,-8.163559934676545282e+00,-2.368474782068903828e+00,-1.501193749366193320e+00,3.484165323849878204e-01,-7.675996538858989027e-01
5.733333333333333393e+00,1.643851005202877283e+09,2.696986958689004954e-01,-5.694388349738295219e+00,-6.781659721351421588e+00,-2.432574234898914778e+00,-1.586104009738535270e+00,3.347236408299807953e-01,-8.752483016555057116e-01
5.750000000000000000e+00,1.643851005217840195e+09,2.623710807661341349e-01,-5.436262379088931063e+00,-6.426808518347267629e+00,-2.464623961313920919e+00,-1.656442093270303006e+00,3.192774109870932242e-01,-9.780138130186053491e-01
5.766666666666666607e+00,1.643851005235794783e+09,2.550702236256462418e-01,-5.163632796293057048e+00,-6.063302407952769535e+00,-2.464623961313920919e+00,-1.711912143224945781e+00,3.021626108282262080e-01,-1.075491428518371650e+00
5.783333333333333215e+00,1.643851005251096487e+09,2.478164675550254270e-01,-5.128370690945081023e+00,-6.005603025350466417e+00,-2.496673687728925728e+00,-1.752364800029889036e+00,2.834359304796972845e-01,-1.171443673019425535e+00
5.799999999999999822e+00,1.643851005266287804e+09,2.406290937488902160e-01,-5.240884487019569882e+00,-6.155621420116450970e+00,-2.496673687728925728e+00,-1.777796944051538208e+00,2.631042458659615391e-01,-1.268090012256875010e+00
5.816666666666666430e+00,1.643851005286758900e+09,2.335261276720742296e-01,-4.069665786688783093e+00,-4.583313244203733205e+00,-2.528723414143931869e+00,-1.788349982177366737e+00,2.413354494926033544e-01,-1.343954812031285861e+00
5.833333333333333037e+00,1.643851005302103281e+09,2.265241562522674335e-01,-3.507096806316342352e+00,-3.833221270373812661e+00,-2.528723414143931869e+00,-1.784306703279819217e+00,2.183909790416443952e-01,-1.409200400073596260e+00
5.849999999999999645e+00,1.643851005321083784e+09,2.196381577241061089e-01,-3.024585719304596854e+00,-3.189873154358151552e+00,-2.528723414143931869e+00,-1.766086741828259976e+00,1.944372550987538140e-01,-1.465091217149586678e+00
5.866666666666666252e+00,1.643851005336228848e+09,2.128813456629649048e-01,-2.648097247824578560e+00,-2.687888525718127308e+00,-2.528723414143931869e+00,-1.734240702679869628e+00,1.696161365718276415e-01,-1.513309064464401388e+00
5.883333333333332860e+00,1.643851005351779222e+09,2.062650286300679592e-01,-1.888629124321784980e+00,-1.675264361047736017e+00,-2.528723414143931869e+00,-1.689443013283594697e+00,1.441091327248347487e-01,-1.547436596244164742e+00
5.900000000000000355e+00,1.643851005371155500e+09,1.997984867220022331e-01,3.770858042788999276e-01,1.324322392809840210e+00,-2.464623961313920919e+00,-1.632483582040404446e+00,1.183588593347597862e-01,-1.542609619150114852e+00
5.916666666666666963e+00,1.643851005383759022e+09,1.934888661783677744e-01,6.461994811143064732e-01,1.661774144313711954e+00,-2.400524508483909969e+00,-1.564258353256784861e+00,9.273496227640073974e-02,-1.532286703294130525e+00
5.933333333333333570e+00,1.643851005400834799e+09,1.873410930520282291e-01,8.758714369982324444e-01,1.935953692410607774e+00,-2.304375329238892878e+00,-1.485758859890487615e+00,6.732425280369166987e-02,-1.517040784202958958e+00
5.950000000000000178e+00,1.643851005416580677e+09,1.813578067888352296e-01,1.087465620480164930e+00,2.186029543971512279e+00,-2.208226149993877119e+00,-1.398060885011873644e+00,4.220687459080090659e-02,-1.497099993732263323e+00
5.966666666666666785e+00,1.643851005434761763e+09,1.755393143985745918e-01,1.456007045526533039e+00,2.656051626423332923e+00,-2.144126697163866169e+00,-1.302312351497053156e+00,1.748321661456916226e-02,-1.469814757522206916e+00
5.983333333333333393e+00,1.643851005449717522e+09,1.698835657280360900e-01,1.763535988716175451e+00,3.044723733066185822e+00,-2.080027244333855219e+00,-1.199720566843926584e+00,-6.732809995700111960e-03,-1.436201807214066761e+00
6.000000000000000000e+00,1.643851005472961664e+09,1.643861501714763973e-01,1.873442702436896923e+00,3.159216291612142236e+00,-1.983878065088837905e+00,-1.091538956090107204e+00,-3.036314093677262155e-02,-1.399539747167214410e+00
6.016666666666666607e+00,1.643851005484224558e+09,1.590403149751360157e-01,1.765182880380697039e+00,2.993503377927204667e+00,-1.919778612258826955e+00,-9.790534205516971955e-01,-5.338691766810323841e-02,-1.363413812772067191e+00
6.033333333333333215e+00,1.643851005498601198e+09,1.538370051120255544e-01,1.983349416157617950e+00,3.273708850158097761e+00,-1.887728885843822146e+00,-8.635684634489666500e-01,-7.576750111425351042e-02,-1.322370213447439324e+00
6.049999999999999822e+00,1.643851005517144442e+09,1.487649245225652617e-01,2.579915905423391553e+00,4.069130835845795602e+00,-1.887728885843822146e+00,-7.463932254089893359e-01,-9.737111117056623799e-02,-1.270207892057553245e+00
6.066666666666666430e+00,1.643851005533529997e+09,1.438106183372078184e-01,2.521163145116913640e+00,3.990793822103825939e+00,-1.887728885843822146e+00,-6.288275733164339076e-01,-1.181044306236126301e-01,-1.217935646407832140e+00
6.083333333333333037e+00,1.643851005550621033e+09,1.389585755204006956e-01,2.095309039072830171e+00,3.412305105240045489e+00,-1.855679159428816005e+00,-5.121483850217682932e-01,-1.380164692450574215e-01,-1.171637596885536370e+00
6.099999999999999645e+00,1.643851005566740036e+09,1.341913512025813549e-01,2.174399293331550798e+00,3.517758777585006325e+00,-1.855679159428816005e+00,-3.975961700207165661e-01,-1.571365224230225066e-01,-1.122904158319057322e+00
6.116666666666666252e+00,1.643851005583698273e+09,1.294897077996957080e-01,2.054634051168345632e+00,3.358071788034066252e+00,-1.855679159428816005e+00,-2.863621624162068224e-01,-1.754522610501050850e-01,-1.075117221546105784e+00
6.133333333333332860e+00,1.643851005602842808e+09,1.248327738594600389e-01,1.923570201253895329e+00,3.183319988148132218e+00,-1.855679159428816005e+00,-1.795760173048714936e-01,-1.929815043352244852e-01,-1.028521408528502601e+00
6.150000000000000355e+00,1.643851005620567083e+09,1.201982194214078897e-01,1.632066121271756431e+00,2.794647881505280651e+00,-1.855679159428816005e+00,-7.829423524618195351e-02,-2.097668601723657600e-01,-9.858398545909350386e-01
6.166666666666666963e+00,1.643851005634991646e+09,1.155624465350977292e-01,1.509014702961057885e+00,2.619896081619347505e+00,-1.823629433013810974e+00,1.651056825809815720e-02,-2.258506534112722786e-01,-9.443306401650426452e-01
6.183333333333333570e+00,1.643851005652946711e+09,1.109007934486566094e-01,1.817363288392185749e+00,3.041710770999186408e+00,-1.855679159428816005e+00,1.039594402462253875e-01,-2.411936919408453894e-01,-8.969655561581626468e-01
6.200000000000000178e+00,1.643851005669897795e+09,1.061877508594463726e-01,1.658156325277501120e+00,2.818751578041271966e+00,-1.823629433013810974e+00,1.832758166898857954e-01,-2.557648890203680914e-01,-8.517038233791834889e-01
6.216666666666666785e+00,1.643851005686887026e+09,1.013971885107819160e-01,1.471832703559826871e+00,2.559636840279370773e+00,-1.791579706598805055e+00,2.537931107020989785e-01,-2.696039706877902398e-01,-8.091043114740625875e-01
6.233333333333333393e+00,1.643851005703830957e+09,9.650259032445093754e-02,1.198406395979680461e+00,2.195068430172508744e+00,-1.791579706598805055e+00,3.149610872834200936e-01,-2.827682615825556356e-01,-7.707172291915788120e-01
6.250000000000000000e+00,1.643851005720785856e+09,9.147729617885150266e-02,1.205185560630427366e+00,2.204107316373504766e+00,-1.791579706598805055e+00,3.663509618966716008e-01,-2.952900354788440818e-01,-7.320031799198387645e-01
6.266666666666666607e+00,1.643851005739737272e+09,8.629474837774543661e-02,1.412053488656103584e+00,2.469247978269404786e+00,-1.759529980183800024e+00,4.076591733465391165e-01,-3.071376442121890316e-01,-6.898270268197831401e-01
6.283333333333333215e+00,1.643851005757687092e+09,8.092874080532162784e-02,1.745465823495730984e+00,2.903114515917239125e+00,-1.727480253768793883e+00,4.387097951132030715e-01,-3.182378026464209309e-01,-6.423239414087356103e-01
6.299999999999999822e+00,1.643851005773644686e+09,7.535366872996616949e-02,1.605363087380284659e+00,2.716310867763310988e+00,-1.727480253768793883e+00,4.594555633105399384e-01,-3.285692897842928950e-01,-5.975788100926832103e-01
6.316666666666666430e+00,1.643851005790889502e+09,6.954477720222140835e-02,1.683220074686000434e+00,2.830803426309267401e+00,-1.759529980183800024e+00,4.699775136686079602e-01,-3.381489980104592230e-01,-5.521124753939400387e-01
6.333333333333333037e+00,1.643851005804872990e+09,6.347840599185576582e-02,1.652817239935515881e+00,2.779583071170285802e+00,-1.727480253768793883e+00,4.704832342333659101e-01,-3.469813432288106347e-01,-5.078917889394406471e-01
6.349999999999999645e+00,1.643851005822824478e+09,5.713222902511359835e-02,1.502442350666068682e+00,2.589766460949358251e+00,-1.759529980183800024e+00,4.613037546905734976e-01,-3.551048225185650109e-01,-4.670392078937422031e-01
6.366666666666666252e+00,1.643851005840755939e+09,5.048548631558343047e-02,1.336456222900636481e+00,2.357768381790446899e+00,-1.727480253768793883e+00,4.428891072120639816e-01,-3.625785375635234287e-01,-4.299097373469054628e-01
6.383333333333332860e+00,1.643851005858114243e+09,4.351920643092541813e-02,1.102471636271971089e+00,2.056472175090561461e+00,-1.759529980183800024e+00,4.158026073509659692e-01,-3.694746157090992855e-01,-3.977090884742806587e-01
6.400000000000000355e+00,1.643851005874100685e+09,3.621641760219829198e-02,1.079874420769479260e+00,2.026342554420572206e+00,-1.759529980183800024e+00,3.807139166402586650e-01,-3.758464315493039720e-01,-3.669941336772469809e-01
6.416666666666666963e+00,1.643851005891095638e+09,2.856234566253897794e-02,9.498370254522748857e-01,1.863642602802634718e+00,-1.791579706598805055e+00,3.383909610449812311e-01,-3.817343803387781009e-01,-3.396357184461519241e-01
6.433333333333333570e+00,1.643851005909361601e+09,2.054459709666493772e-02,1.085420318467223533e+00,2.044420326822566469e+00,-1.791579706598805055e+00,2.896907911564006177e-01,-3.871581339587116810e-01,-3.112934463324912304e-01
6.450000000000000178e+00,1.643851005925291061e+09,1.215332559151931224e-02,1.090966216164966474e+00,2.062498099224558956e+00,-1.823629433013810974e+00,2.355494808781934957e-01,-3.921201430481505712e-01,-2.842228422923330222e-01
6.466666666666666785e+00,1.643851005941269398e+09,3.381380600465340447e-03,8.524621864358030709e-01,1.755175968390676022e+00,-1.855679159428816005e+00,1.769711712322656338e-01,-3.966757475698743374e-01,-2.625100151428081396e-01
6.483333333333333393e+00,1.643851005957662106e+09,-5.775563432225364058e-03,5.145304084956774382e-01,1.315283506608843744e+00,-1.887728885843822146e+00,1.150163747036366813e-01,-4.009277031588234785e-01,-2.477656131672037743e-01
6.500000000000000000e+00,1.643851005974162102e+09,-1.531889839415306181e-02,4.296874441834549474e-01,1.212842796330882322e+00,-1.919778612258826955e+00,5.078966316375210788e-02,-4.049565447970139287e-01,-2.357288197398931806e-01
6.516666666666666607e+00,1.643851005993098497e+09,-2.524699542664350649e-02,5.301416469916622187e-01,1.357464975546827324e+00,-1.951828338673833096e+00,-1.457313121882057583e-02,-4.087815888964887456e-01,-2.233109670442043337e-01
6.533333333333333215e+00,1.643851006008996964e+09,-3.555514033274122937e-02,4.644029096786786437e-01,1.291179810072852874e+00,-2.015927791503844269e+00,-7.991806761611065790e-02,-4.124194892867990569e-01,-2.132649859528512326e-01
6.549999999999999822e+00,1.643851006026067972e+09,-4.623549218604969951e-02,4.292738194719376565e-01,1.255024265268866346e+00,-2.047977517918849077e+00,-1.440864625713609570e-01,-4.159050592330382767e-01,-2.050262933916023878e-01
6.566666666666666430e+00,1.643851006044022083e+09,-5.727706567645213243e-02,3.670280706622065514e-01,1.182713175660893956e+00,-2.080027244333855219e+00,-2.059283299801078770e-01,-4.192715946123857229e-01,-1.989747623342199845e-01
6.583333333333333037e+00,1.643851006060147762e+09,-6.866573754516973327e-02,2.302115106942543843e-01,1.010974337841959114e+00,-2.112076970748860028e+00,-2.643157537163747239e-01,-4.225650686528963362e-01,-1.962496923440780194e-01
6.599999999999999645e+00,1.643851006077300072e+09,-8.038427727456670668e-02,-1.303477677522262734e+00,-1.023261337641728108e+00,-2.144126697163866169e+00,-3.181560521727949675e-01,-4.260327716130954401e-01,-2.198092182121298421e-01
6.616666666666666252e+00,1.643851006097692013e+09,-9.241240200907369085e-02,-1.365583280315671555e+00,-1.095385565894605007e+00,-2.176176423578870978e+00,-3.664045959857378243e-01,-4.299051214540864918e-01,-2.448033329761623023e-01
6.633333333333332860e+00,1.643851006110655546e+09,-1.047268554940356533e-01,-1.421197702566321608e+00,-1.158854886757136438e+00,-2.208226149993877119e+00,-4.080771436305646871e-01,-4.342040249997008994e-01,-2.709923435338293385e-01
6.649999999999999467e+00,1.643851006126613855e+09,-1.173015106307291333e-01,-1.165877934551137418e+00,-8.184285294035572589e-01,-2.208226149993877119e+00,-4.422615643622056503e-01,-4.389052514908969860e-01,-2.930934420245223104e-01
6.666666666666666963e+00,1.643851006146700621e+09,-1.301074950596647350e-01,-1.169562912459715998e+00,-8.126585911433273912e-01,-2.240275876408881928e+00,-4.681288240952600210e-01,-4.439758587786620803e-01,-3.153176970126735368e-01
6.683333333333333570e+00,1.643851006163263798e+09,-1.431133390021246954e-01,6.134522431129657560e-02,8.392355000230248274e-01,-2.272325602823888069e+00,-4.849431172062121931e-01,-4.492461094435572511e-01,-3.171074112293602587e-01
6.700000000000000178e+00,1.643851006178568840e+09,-1.562851444131028444e-01,-1.191842656722173377e+00,-8.530481589649385743e-01,-2.208226149993877119e+00,-4.920710358226544345e-01,-4.547200169296188310e-01,-3.396987319523791515e-01
6.716666666666666785e+00,1.643851006195409536e+09,-1.695867743287612361e-01,1.416687455230203618e-01,9.356502861669877547e-01,-2.240275876408881928e+00,-4.889896778569494673e-01,-4.603827152442784287e-01,-3.398247158432850523e-01
6.733333333333333393e+00,1.643851006213462114e+09,-1.829800611296768242e-01,3.666144459506892050e-01,1.224894644598877980e+00,-2.208226149993877119e+00,-4.752936057467149755e-01,-4.660145345687969343e-01,-3.360042158487002717e-01
6.750000000000000000e+00,1.643851006228191614e+09,-1.964250322886162692e-01,2.862909247389654466e-01,1.128479858454914497e+00,-2.240275876408881928e+00,-4.507005794754228578e-01,-4.715909041065403651e-01,-3.331680072232311440e-01
6.766666666666666607e+00,1.643851006247113943e+09,-2.098801520298124168e-01,5.551977892186130692e-01,1.487022344427778142e+00,-2.240275876408881928e+00,-4.150559998478617896e-01,-4.770783304416540416e-01,-3.253448843986049277e-01
6.783333333333333215e+00,1.643851006264413118e+09,-2.233025771965452266e-01,6.388074865778313738e-01,1.598501940906735808e+00,-2.240275876408881928e+00,-3.683360110621871630e-01,-4.824184507287042623e-01,-3.154969061862940016e-01
6.799999999999999822e+00,1.643851006279735565e+09,-2.366484255066502451e-01,5.732755616206062221e-01,1.511126040963769013e+00,-2.240275876408881928e+00,-3.106492252232155860e-01,-4.875968818277433003e-01,-3.059413694806317752e-01
6.816666666666666430e+00,1.643851006297655106e+09,-2.498730542719827530e-01,9.031949079569805416e-01,1.951018502745601291e+00,-2.240275876408881928e+00,-2.422370454439521925e-01,-4.925623560480426599e-01,-2.899599308851152912e-01
6.833333333333333037e+00,1.643851006313013315e+09,-2.629313475689791235e-01,1.250165572098102640e+00,2.402962812795429226e+00,-2.208226149993877119e+00,-1.634725784435773210e-01,-4.972048775739469906e-01,-2.672058594649688312e-01
6.849999999999999645e+00,1.643851006330920219e+09,-2.757780097738199987e-01,1.167582329336130043e+00,2.303535064584467662e+00,-2.240275876408881928e+00,-7.485814192822459745e-02,-5.014704743483897609e-01,-2.447281929003942702e-01
6.866666666666666252e+00,1.643851006346899509e+09,-2.883678633179847517e-01,1.246672583594850670e+00,2.408988736929428054e+00,-2.240275876408881928e+00,2.297861360920228080e-02,-5.053401107264033909e-01,-2.196977032356464132e-01
6.883333333333332860e+00,1.643851006362512112e+09,-3.006561484786945959e-01,1.505514107276255897e+00,2.743427526366300384e+00,-2.208226149993877119e+00,1.292899348553806504e-01,-5.087455944072510894e-01,-1.890454855192714445e-01
6.899999999999999467e+00,1.643851006379561424e+09,-3.125988229941590313e-01,1.416358512219294541e+00,2.613870157485350010e+00,-2.176176423578870978e+00,2.432144997302769784e-01,-5.116410203899611764e-01,-1.584905093374018303e-01
6.916666666666666963e+00,1.643851006397879362e+09,-3.241528592859544977e-01,2.234584525765241914e+00,3.683471691269942117e+00,-2.112076970748860028e+00,3.637851944383985181e-01,-5.139017499684198631e-01,-1.129236177555491827e-01
6.933333333333333570e+00,1.643851006414367199e+09,-3.352765370803322820e-01,2.421321772194434452e+00,3.900404960093860396e+00,-2.015927791503844269e+00,4.899380596058027226e-01,-5.153661085373125728e-01,-6.293826198998582477e-02
6.950000000000000178e+00,1.643851006430303812e+09,-3.459297292467274909e-01,2.774045146389058747e+00,4.349336308076688695e+00,-1.951828338673833096e+00,6.205223194860863822e-01,-5.159375271541505326e-01,-5.790718941895464655e-03
6.966666666666666785e+00,1.643851006448528528e+09,-3.560741787150473736e-01,3.140326849885178628e+00,4.816345428461511702e+00,-1.887728885843822146e+00,7.543113969542202257e-01,-5.154953099415600093e-01,5.867770129283735037e-02
6.983333333333333393e+00,1.643851006464606285e+09,-3.656737643931690651e-01,3.372051714963594460e+00,5.114628673094398614e+00,-1.855679159428816005e+00,8.900148066960313908e-01,-5.139367740921070293e-01,1.281536074710448170e-01
7.000000000000000000e+00,1.643851006483863115e+09,-3.746947540820007028e-01,3.356440476467608569e+00,5.072447204156413925e+00,-1.791579706598805055e+00,1.026290809748227284e+00,-5.112132362423563725e-01,1.984755910582247096e-01
7.016666666666666607e+00,1.643851006496860504e+09,-3.831060424769165973e-01,3.516880706535298717e+00,5.286367510913333234e+00,-1.791579706598805055e+00,1.161759704444286667e+00,-5.072865071243185531e-01,2.725262021231799614e-01
7.033333333333333215e+00,1.643851006514806986e+09,-3.908793724506460787e-01,3.255986273659402741e+00,4.927825024940470477e+00,-1.759529980183800024e+00,1.295017621955837583e+00,-5.021534582817366310e-01,3.432432182075186855e-01
7.049999999999999822e+00,1.643851006533276796e+09,-3.979895379330488092e-01,3.327064096314369834e+00,5.033278697285427761e+00,-1.791579706598805055e+00,1.424650689060082742e+00,-4.958238376857205809e-01,4.161088440344101747e-01
7.066666666666666430e+00,1.643851006549731016e+09,-4.044145668366058155e-01,3.573373745291526848e+00,5.361691562588304372e+00,-1.791579706598805055e+00,1.549249416567652471e+00,-4.882386241791540349e-01,4.939006832254966284e-01
7.083333333333333037e+00,1.643851006564686298e+09,-4.101358826220367071e-01,3.796059724168946659e+00,5.647922958953195405e+00,-1.759529980183800024e+00,1.667423169055828103e+00,-4.793205449508722849e-01,5.760406522176277910e-01
7.099999999999999645e+00,1.643851006586048126e+09,-4.151384432549450887e-01,3.389309845124100828e+00,5.105589786893401261e+00,-1.759529980183800024e+00,1.777814570201342814e+00,-4.690857446337328152e-01,6.519245921559123635e-01
7.116666666666666252e+00,1.643851006602411509e+09,-4.194108564707417219e-01,2.977014068381512946e+00,4.545178842431615074e+00,-1.727480253768793883e+00,1.879113698107643060e+00,-4.576396481242524517e-01,7.214139584212512224e-01
7.133333333333332860e+00,1.643851006619715929e+09,-4.229454704399244203e-01,2.597380847939657400e+00,4.039001215175807680e+00,-1.727480253768793883e+00,1.970071926578889299e+00,-4.450848653502230134e-01,7.849833885558642477e-01
7.149999999999999467e+00,1.643851006635210514e+09,-4.257384391077853047e-01,2.531848922982431915e+00,3.951625315232840219e+00,-1.727480253768793883e+00,2.049515271290207608e+00,-4.314774508631216698e-01,8.477320439733069257e-01
7.166666666666666963e+00,1.643851006654870272e+09,-4.277897616704267048e-01,2.311629478011020034e+00,3.647316146465956255e+00,-1.695430527353789074e+00,2.116357104216599616e+00,-4.168540769202989660e-01,9.069084464009445901e-01
7.183333333333333570e+00,1.643851006670820236e+09,-4.291032958410409548e-01,2.436940617871968140e+00,3.825080908418888814e+00,-1.727480253768793883e+00,2.169610105467974837e+00,-4.012279397096441547e-01,9.680581545792887876e-01
7.200000000000000178e+00,1.643851006689748764e+09,-4.296867447553937014e-01,2.102501828435095366e+00,3.379162522503058153e+00,-1.727480253768793883e+00,2.208397328780534075e+00,-3.846319222660571913e-01,1.023310456422628967e+00
7.216666666666666785e+00,1.643851006705082893e+09,-4.295516175617262733e-01,2.088943499133601112e+00,3.361084750101066110e+00,-1.727480253768793883e+00,2.231962265267796841e+00,-3.671212824830036303e-01,1.077814912712931950e+00
7.233333333333333393e+00,1.643851006721072674e+09,-4.287131639364322733e-01,1.783881089849966628e+00,2.954334871056220280e+00,-1.727480253768793883e+00,2.239677799555239268e+00,-3.487508329765526272e-01,1.126503778029900982e+00
7.250000000000000000e+00,1.643851006738027334e+09,-4.271902829613037356e-01,1.510454782269820218e+00,2.589766460949358251e+00,-1.727480253768793883e+00,2.231053963020516839e+00,-3.296145842184974306e-01,1.169726008360018055e+00
7.266666666666666607e+00,1.643851006754984379e+09,-4.250054069894155240e-01,1.218950702287681320e+00,2.201094354306506684e+00,-1.727480253768793883e+00,2.205744400432058328e+00,-3.098076932893528701e-01,1.206997369142869259e+00
7.283333333333333215e+00,1.643851006769248247e+09,-4.221843613132816864e-01,1.031393813617002442e+00,1.951018502745601291e+00,-1.727480253768793883e+00,2.163551478709717202e+00,-2.894164941112261635e-01,1.239855258170187824e+00
7.299999999999999822e+00,1.643851006788954973e+09,-4.187562006294736072e-01,9.106021168565533452e-01,1.779279664926667559e+00,-1.695430527353789074e+00,2.104429979700873421e+00,-2.685070514977095368e-01,1.269196350499294912e+00
7.316666666666666430e+00,1.643851006804091692e+09,-4.147530234668306837e-01,7.275646712863725885e-01,1.535229737499759883e+00,-1.695430527353789074e+00,2.028489332644509702e+00,-2.471484134683968326e-01,1.293771945868830153e+00
7.333333333333333037e+00,1.643851006822837591e+09,-4.102097659096202165e-01,6.495008716248982239e-01,1.441827913422795593e+00,-1.727480253768793883e+00,1.935994356249200132e+00,-2.254071342396730682e-01,1.315122253771341398e+00
7.349999999999999645e+00,1.643851006841130733e+09,-4.051639761010552565e-01,-1.911182199529389836e+00,-1.972416181449588191e+00,-1.727480253768793883e+00,1.827364494898385150e+00,-2.036816522952359931e-01,1.291999810083054312e+00
7.366666666666666252e+00,1.643851006858142614e+09,-3.996555711553808066e-01,-1.893872384748699345e+00,-1.949336428408668054e+00,-1.727480253768793883e+00,1.703171548274522440e+00,-1.823531134803124953e-01,1.267492923993561282e+00
7.383333333333332860e+00,1.643851006871038198e+09,-3.937265782371499601e-01,-2.049660717774913543e+00,-2.157054205776953282e+00,-1.727480253768793883e+00,1.564135908516356421e+00,-1.614703590977752679e-01,1.238518089456714710e+00
7.399999999999999467e+00,1.643851006892246008e+09,-3.874208616833194618e-01,-2.564627707500454878e+00,-2.843676858744341285e+00,-1.727480253768793883e+00,1.411121333745403383e+00,-1.411587785525734717e-01,1.198981402682262054e+00
7.416666666666666963e+00,1.643851006908227921e+09,-3.807838381465567523e-01,-3.044975067664615676e+00,-3.484140005629889458e+00,-1.727480253768793883e+00,1.245128301272110605e+00,-1.215899548175772560e-01,1.149415132840724052e+00
7.433333333333333570e+00,1.643851006922640324e+09,-3.738621818257629736e-01,-3.430118446534977661e+00,-3.997664510790372550e+00,-1.727480253768793883e+00,1.067285997877113202e+00,-1.029181493253654711e-01,1.091362786537547924e+00
7.450000000000000178e+00,1.643851006940298796e+09,-3.667035219217565922e-01,-3.832571640186031470e+00,-4.534268768991776888e+00,-1.727480253768793883e+00,8.788430181180328926e-01,-8.528747959348036145e-02,1.024503306437862804e+00
7.466666666666666785e+00,1.643851006955292225e+09,-3.593561345116523809e-01,-3.974092660553540490e+00,-4.701596978538451488e+00,-1.791579706598805055e+00,6.811568545031734256e-01,-6.880875133067726468e-02,9.531423147408869534e-01
7.483333333333333393e+00,1.643851006974349499e+09,-3.518686310743809331e-01,-4.153039513116609349e+00,-4.929509539817542141e+00,-1.823629433013810974e+00,4.756822754732858427e-01,-5.356261299365701334e-02,8.766068891098113269e-01
7.500000000000000000e+00,1.643851006990824223e+09,-3.442896459216483462e-01,-3.976492686888930095e+00,-4.672747287237299929e+00,-1.887728885843822146e+00,2.639586983188147995e-01,-3.958635260303441233e-02,8.007550622430201770e-01
7.516666666666666607e+00,1.643851007007176876e+09,-3.366675247933694770e-01,-4.042283267590918605e+00,-4.739101577229947182e+00,-1.951828338673833096e+00,4.759667432288305911e-02,-2.690278369323051422e-02,7.214933834454156925e-01
7.533333333333333215e+00,1.643851007022277594e+09,-3.290500168641437018e-01,-4.523509403029477127e+00,-5.359369940204688376e+00,-2.015927791503844269e+00,-1.717363875417927122e-01,-1.562605668665224823e-02,6.319625599293162699e-01
7.549999999999999822e+00,1.643851007039514542e+09,-3.214839723777266900e-01,-4.358423686826324861e+00,-5.128572409795483011e+00,-2.047977517918849077e+00,-3.923311242135485433e-01,-5.836810963596152091e-03,5.429940673555956332e-01
7.566666666666666430e+00,1.643851007057266474e+09,-3.140150480801159882e-01,-4.543219244145559443e+00,-5.353600001944458953e+00,-2.112076970748860028e+00,-6.124516087638998130e-01,2.425987716740463096e-03,4.488034211267680207e-01
7.583333333333333037e+00,1.643851007075223446e+09,-3.066874225589336089e-01,-4.680412810817894176e+00,-5.515158273230902353e+00,-2.176176423578870978e+00,-8.303510814005103935e-01,9.082906324548278842e-03,3.503004376486534843e-01
7.599999999999999645e+00,1.643851007092127085e+09,-2.995435235179753630e-01,-4.316264224636801927e+00,-5.018943582851110641e+00,-2.208226149993877119e+00,-1.044287871657938460e+00,1.413246115048667068e-02,2.559083478844694226e-01
7.616666666666666252e+00,1.643851007106687784e+09,-2.926237689216085180e-01,-3.876385198790187392e+00,-4.421754972917289805e+00,-2.240275876408881928e+00,-1.252541359883622585e+00,1.765384419772316610e-02,1.669048555260027600e-01
7.633333333333332860e+00,1.643851007126318693e+09,-2.859663238349033354e-01,-4.176500754818089689e+00,-4.811225805482823858e+00,-2.272325602823888069e+00,-1.453427825304772991e+00,1.963493026323849186e-02,7.109162645843973560e-02
7.649999999999999467e+00,1.643851007141623497e+09,-2.796068746628467827e-01,-3.786387446465961037e+00,-4.280391485541649388e+00,-2.304375329238892878e+00,-1.645316028626413685e+00,2.005974189905004867e-02,-1.986157642891138442e-02
7.666666666666666963e+00,1.643851007156829834e+09,-2.735784223567059859e-01,-3.826855780783507299e+00,-4.323666022493376282e+00,-2.336425055653899019e+00,-1.826642379259672211e+00,1.895059492928368589e-02,-1.129773987931980139e-01
7.683333333333333570e+00,1.643851007175798893e+09,-2.679110960085486215e-01,-4.054925875054468776e+00,-4.606392997244654453e+00,-2.400524508483909969e+00,-1.995925540890438388e+00,1.624749616065330679e-02,-2.111218236236493961e-01
7.700000000000000178e+00,1.643851007190179110e+09,-2.626319880973673193e-01,-4.699716475635189461e+00,-5.466113798018947811e+00,-2.400524508483909969e+00,-2.151780334141682793e+00,1.181162719381583653e-02,-3.208775681530930957e-01
7.716666666666666785e+00,1.643851007208454132e+09,-2.577650124833157919e-01,-4.962406199467530143e+00,-5.795000278852066700e+00,-2.464623961313920919e+00,-2.292930801508246574e+00,5.505876727640650684e-03,-4.354941010365142029e-01
7.733333333333333393e+00,1.643851007223616123e+09,-2.533307860716481064e-01,-4.278026039843662254e+00,-4.871810157215240800e+00,-2.496673687728925728e+00,-2.418222307489669376e+00,-2.617096790069118814e-03,-5.389752666410265736e-01
7.750000000000000000e+00,1.643851007241661310e+09,-2.493465348863350139e-01,-4.994219626394730049e+00,-5.826734939283332082e+00,-2.496673687728925728e+00,-2.526632555842846628e+00,-1.256435822409054763e-02,-6.543755415776314477e-01
7.766666666666666607e+00,1.643851007255820990e+09,-2.458260251065027546e-01,-4.815509073319467426e+00,-5.567087717572976047e+00,-2.560773140558937122e+00,-2.617281416032222197e+00,-2.440685530520475544e-02,-7.664128859857121112e-01
7.783333333333333215e+00,1.643851007274808884e+09,-2.427795194282510172e-01,-4.563874283212860483e+00,-5.220891421959165335e+00,-2.592822866973942819e+00,-2.689439462176018480e+00,-3.807637738844404929e-02,-8.736319263256208112e-01
7.799999999999999822e+00,1.643851007290153265e+09,-2.402137589214580204e-01,-4.617967454402518435e+00,-5.293015650212042900e+00,-2.592822866973942819e+00,-2.742535139962188673e+00,-5.353287930730221689e-02,-9.808504676461744509e-01
7.816666666666666430e+00,1.643851007307104588e+09,-2.381319703575215940e-01,-4.603463842256007688e+00,-5.284360742821696988e+00,-2.560773140558937122e+00,-2.776160490020594729e+00,-7.076418894039171459e-02,-1.086612896884361579e+00
7.833333333333333037e+00,1.643851007323502064e+09,-2.365338987909678115e-01,-4.442705579748026601e+00,-5.059333150672720159e+00,-2.592822866973942819e+00,-2.790075369962229601e+00,-8.972331568668152901e-02,-1.188200119299909430e+00
7.849999999999999645e+00,1.643851007340829611e+09,-2.354158649871134490e-01,-4.392939862253542493e+00,-4.992978860680074682e+00,-2.592822866973942819e+00,-2.784210131598197080e+00,-1.103538477533332479e-01,-1.287188753797453344e+00
7.866666666666666252e+00,1.643851007356794119e+09,-2.347708471008518594e-01,-3.804406159710065349e+00,-4.208267257288772711e+00,-2.592822866973942819e+00,-2.758666724592912622e+00,-1.325357013985770938e-01,-1.374391448223925671e+00
7.883333333333332860e+00,1.643851007376686573e+09,-2.345885858297253324e-01,-3.388970604973494893e+00,-3.654353184306678770e+00,-2.592822866973942819e+00,-2.713718212843041933e+00,-1.560953003276148443e-01,-1.452543329591830190e+00
7.899999999999999467e+00,1.643851007396663427e+09,-2.348557120890235883e-01,-2.735525097002429629e+00,-2.783092507011925676e+00,-2.592822866973942819e+00,-2.649806705060966827e+00,-1.808475545269779550e-01,-1.517546605426856932e+00
7.916666666666666963e+00,1.643851007410629988e+09,-2.355558960891826759e-01,-1.968044541895884292e+00,-1.770468342341533052e+00,-2.560773140558937122e+00,-2.567539716230114344e+00,-2.065568508172635487e-01,-1.567430380105337973e+00
7.933333333333333570e+00,1.643851007424585819e+09,-2.366700165374348575e-01,-1.896641555925536293e+00,-1.675264361047736017e+00,-2.560773140558937122e+00,-2.467684991642496328e+00,-2.330669991799064200e-01,-1.613659007535495737e+00
7.950000000000000178e+00,1.643851007440932512e+09,-2.381763485377670353e-01,-1.191030304124594874e+00,-7.664990850614860074e-01,-2.464623961313920919e+00,-2.351163839978664072e+00,-2.602276862075109110e-01,-1.645534889576278914e+00
7.966666666666666785e+00,1.643851007460397005e+09,-2.400507686269238161e-01,2.928632770339540947e-01,1.158609479124903086e+00,-2.304375329238892878e+00,-2.219043036204092267e+00,-2.876920305098709107e-01,-1.650173541260087973e+00
7.983333333333333393e+00,1.643851007478839397e+09,-2.422669752603659743e-01,1.304398889304082543e+00,2.475273902403402282e+00,-2.208226149993877119e+00,-2.072525368793773914e+00,-3.150730940839179262e-01,-1.635594585677535795e+00
8.000000000000000000e+00,1.643851007496863842e+09,-2.447967229518885623e-01,1.966704115882839332e+00,3.336981053565074351e+00,-2.144126697163866169e+00,-1.912938918824257595e+00,-3.420996686290768141e-01,-1.607671924514733952e+00
8.016666666666665719e+00,1.643851007511904716e+09,-2.476100681746797316e-01,2.049287358644813040e+00,3.436408801776037247e+00,-2.112076970748860028e+00,-1.741725170663557254e+00,-3.686296676130577654e-01,-1.576015889064398712e+00
8.033333333333333215e+00,1.643851007529856205e+09,-2.506756250507922168e-01,2.362362199532197504e+00,3.843158680820881745e+00,-2.080027244333855219e+00,-1.560426065223825098e+00,-3.945681551774666285e-01,-1.536711799261516909e+00
8.050000000000000711e+00,1.643851007548806190e+09,-2.539608287908181605e-01,2.533074582753886528e+00,4.060091949644799136e+00,-2.047977517918849077e+00,-1.370670116910697400e+00,-4.198072152131743784e-01,-1.492099331461755884e+00
8.066666666666666430e+00,1.643851007562395334e+09,-2.574322047965956761e-01,2.468775924749666562e+00,3.963677163500836542e+00,-2.015927791503844269e+00,-1.174157724408137593e+00,-4.442906345882192132e-01,-1.446038942081018908e+00
8.083333333333333925e+00,1.643851007581908226e+09,-2.610556413072131487e-01,2.551359167511638937e+00,4.063104911711797662e+00,-1.983878065088837905e+00,-9.726458131883917169e-01,-4.679735033264592614e-01,-1.396044184104058061e+00
8.099999999999999645e+00,1.643851007597150564e+09,-2.647966634527984531e-01,2.637435398776865281e+00,4.156506735788762619e+00,-1.919778612258826955e+00,-7.679319540606255323e-01,-4.907898673269533996e-01,-1.342069429358293320e+00
8.116666666666667140e+00,1.643851007615461826e+09,-2.686207065815784945e-01,2.659006159682111292e+00,4.174584508190755550e+00,-1.887728885843822146e+00,-5.618381071037561458e-01,-5.126826619525061135e-01,-1.285223833856434794e+00
8.133333333333332860e+00,1.643851007629426003e+09,-2.724933867434002344e-01,2.929146291114762768e+00,4.524088107962622729e+00,-1.855679159428816005e+00,-3.561941439206441906e-01,-5.335701659918252737e-01,-1.221453794030546991e+00
8.150000000000000355e+00,1.643851007648374319e+09,-2.763807662472465010e-01,2.756587811054342474e+00,4.261960408133722567e+00,-1.759529980183800024e+00,-1.528213032689372253e-01,-5.533993878889061913e-01,-1.158228463670376129e+00
8.166666666666666075e+00,1.643851007665440559e+09,-2.802496122607919249e-01,2.329500438057253930e+00,3.692510577470939026e+00,-1.759529980183800024e+00,4.648426425680662888e-02,-5.722150483307895108e-01,-1.099813058189925252e+00
8.183333333333333570e+00,1.643851007684387922e+09,-2.840676464864704820e-01,2.210968462847053839e+00,3.523784701719003376e+00,-1.727480253768793883e+00,2.399677076953969923e-01,-5.900548347120941894e-01,-1.041124335632913178e+00
8.199999999999999289e+00,1.643851007698763609e+09,-2.878037840301067019e-01,1.882282383463683040e+00,3.074853353736173744e+00,-1.695430527353789074e+00,4.259312909213113230e-01,-6.069442947354758422e-01,-9.857646477031148935e-01
8.216666666666666785e+00,1.643851007717716455e+09,-2.914283596743978411e-01,2.402225152376744166e+00,3.746743894676918263e+00,-1.631331074523778124e+00,6.027496630000261923e-01,-6.228225026046231294e-01,-9.198035262443547966e-01
8.233333333333332504e+00,1.643851007735646963e+09,-2.949133398794957506e-01,2.266641859361796296e+00,3.565966170656988066e+00,-1.631331074523778124e+00,7.688844403941125227e-01,-6.376062492461995745e-01,-8.544276746068465433e-01
8.250000000000000000e+00,1.643851007750027895e+09,-2.982325189557803458e-01,2.064500186792377345e+00,3.285760698426094084e+00,-1.599281348108773093e+00,9.228979643737195149e-01,-6.513160755896308940e-01,-7.909278790773136558e-01
8.266666666666665719e+00,1.643851007767292261e+09,-3.013616979886292735e-01,2.314096011917027518e+00,3.629238374063962880e+00,-1.631331074523778124e+00,1.063466104956027891e+00,-6.639224529893890114e-01,-7.220287997296712668e-01
8.283333333333333215e+00,1.643851007783410549e+09,-3.042788452404822097e-01,2.618131966603416849e+00,4.023936404840813275e+00,-1.599281348108773093e+00,1.189389991907898292e+00,-6.753306425073732910e-01,-6.471619109031651051e-01
8.300000000000000711e+00,1.643851007798434734e+09,-3.069642369105229918e-01,2.881492933385320754e+00,4.364401118411683100e+00,-1.567231621693767174e+00,1.299606563701810380e+00,-6.854497924809244136e-01,-5.673577693114951748e-01
8.316666666666666430e+00,1.643851007817807436e+09,-3.094005772957565958e-01,3.471280258000346564e+00,5.150784217898383588e+00,-1.567231621693767174e+00,1.393197836718110372e+00,-6.941555074229132094e-01,-4.775774194575320708e-01
8.333333333333333925e+00,1.643851007836105347e+09,-3.115730975675953252e-01,3.261126153827175855e+00,4.870578745667489606e+00,-1.567231621693767174e+00,1.469398809324204525e+00,-7.013957853807597509e-01,-3.914950587804958970e-01
8.349999999999999645e+00,1.643851007849662781e+09,-3.134696325541881379e-01,3.175256734917708989e+00,4.756086187121534969e+00,-1.567231621693767174e+00,1.527603928612748518e+00,-7.072170680727990488e-01,-3.072927650296156665e-01
8.366666666666667140e+00,1.643851007867584705e+09,-3.150806750989295080e-01,3.288242812430166584e+00,4.906734290471478133e+00,-1.567231621693767174e+00,1.567372061419180396e+00,-7.116255107774018818e-01,-2.219574077608571228e-01
8.383333333333332860e+00,1.643851007883513451e+09,-3.163994077486662060e-01,2.983180403146532100e+00,4.499984411426630970e+00,-1.567231621693767174e+00,1.588429925627285577e+00,-7.146627109391271437e-01,-1.427267021195682828e-01
8.400000000000000355e+00,1.643851007899491310e+09,-3.174217117094678686e-01,2.730091589518627959e+00,4.162532659922759670e+00,-1.567231621693767174e+00,1.590673952570726524e+00,-7.164249895318623995e-01,-6.895166449201042824e-02
8.416666666666666075e+00,1.643851007917440414e+09,-3.181461531919863028e-01,2.518911030748212543e+00,3.870275339423871142e+00,-1.535181895278762143e+00,1.574170566403751081e+00,-7.169993218292296522e-01,-1.593055754438577054e-04
8.433333333333333570e+00,1.643851007935396433e+09,-3.185739474510149161e-01,2.466937435092482644e+00,3.800977211882897500e+00,-1.535181895278762143e+00,1.539154881498862260e+00,-7.164486314490958740e-01,6.605820932094477738e-02
8.449999999999999289e+00,1.643851007951322556e+09,-3.187089010032546077e-01,2.627377665160171905e+00,4.014897518639815921e+00,-1.535181895278762143e+00,1.486027834085115629e+00,-7.147886396665527053e-01,1.329549758591564157e-01
8.466666666666666785e+00,1.643851007966292858e+09,-3.185573326822835893e-01,2.480495764393978231e+00,3.819054984284891319e+00,-1.535181895278762143e+00,1.415351779320502601e+00,-7.120529908031862920e-01,1.951501193910313015e-01
8.483333333333332504e+00,1.643851007984244585e+09,-3.181279743586671871e-01,2.562872194800192016e+00,3.939573466964845228e+00,-1.567231621693767174e+00,1.327844599649369073e+00,-7.082900553001953980e-01,2.562324637955330497e-01
8.500000000000000000e+00,1.643851008000358343e+09,-3.174318523149406435e-01,2.353951357580025494e+00,3.650329108532954780e+00,-1.535181895278762143e+00,1.224372384489293308e+00,-7.035606653319534942e-01,3.111418028617797815e-01
8.516666666666665719e+00,1.643851008017686367e+09,-3.164821504183870093e-01,1.646658512352044967e+00,2.707271981562314078e+00,-1.535181895278762143e+00,1.105940754882177357e+00,-6.980377532943944363e-01,3.514955452781244327e-01
8.533333333333333215e+00,1.643851008034261465e+09,-3.152940563779721428e-01,1.953980643185927457e+00,3.117034822674157546e+00,-1.535181895278762143e+00,9.736849196016778007e-01,-6.918236723181726555e-01,3.940758903483627673e-01
8.550000000000000711e+00,1.643851008051289082e+09,-3.138845925043878271e-01,2.121200037904364954e+00,3.339994015632073765e+00,-1.535181895278762143e+00,8.288585612056788010e-01,-6.849027072052706888e-01,4.363225685539615650e-01
8.566666666666666430e+00,1.643851008066260338e+09,-3.122724325127542722e-01,2.008213960391907804e+00,3.189345912282130602e+00,-1.535181895278762143e+00,6.728216615467910167e-01,-6.773206235090573069e-01,4.734244118900598486e-01
8.583333333333333925e+00,1.643851008083837748e+09,-3.104777060153254831e-01,1.863591781175962581e+00,2.996516339994204081e+00,-1.535181895278762143e+00,5.070273861939431637e-01,-6.691681751579505733e-01,5.047822829951181811e-01
8.599999999999999645e+00,1.643851008100956440e+09,-3.085217924455237459e-01,1.838734844123222523e+00,2.963373757257217189e+00,-1.535181895278762143e+00,3.330081559837044791e-01,-6.605248956620191070e-01,5.323347201676355001e-01
8.616666666666667140e+00,1.643851008116277933e+09,-3.064271062342431851e-01,2.313276369675540955e+00,3.596095791326975544e+00,-1.535181895278762143e+00,1.523610414229362719e-01,-6.513856215935581728e-01,5.642894029508158660e-01
8.633333333333332860e+00,1.643851008135620832e+09,-3.042168751238429891e-01,2.448859662690490158e+00,3.776873515346907073e+00,-1.535181895278762143e+00,-3.326737816578650975e-02,-6.417250953332948038e-01,5.948887480992974819e-01
8.650000000000000355e+00,1.643851008150678396e+09,-3.019149135541960849e-01,2.433041611838746121e+00,3.755782780877915616e+00,-1.535181895278762143e+00,-2.221965440840660555e-01,-6.315870861717867157e-01,6.215981567337007796e-01
8.666666666666666075e+00,1.643851008166606903e+09,-2.995453930881575300e-01,2.362990243781022848e+00,3.662380956800951104e+00,-1.535181895278762143e+00,-4.127276862701841353e-01,-6.210436011028911407e-01,6.435590476233191692e-01
8.683333333333333570e+00,1.643851008183949471e+09,-2.971326118606515965e-01,2.460158270441735517e+00,3.791938325681901478e+00,-1.535181895278762143e+00,-6.031596779932832941e-01,-6.101500161004331790e-01,6.636154391616687631e-01
8.699999999999999289e+00,1.643851008200547218e+09,-2.947007650361167519e-01,2.315536091225790294e+00,3.599108753393974514e+00,-1.535181895278762143e+00,-7.918048249480817979e-01,-5.989709591538577849e-01,6.778319033197217625e-01
8.716666666666666785e+00,1.643851008215787888e+09,-2.922737182433247094e-01,2.996945544803785832e+00,4.496971449359633333e+00,-1.503132168863756002e+00,-9.770044375587474406e-01,-5.874883879722757607e-01,7.000150172588903708e-01
