# 
# 
# 
# 
# 
# 
# 
# 
# 
# 
# time,realtime,ref,inp,dis,state...
0.000000000000000000e+00,1.643074940554898977e+09,0.000000000000000000e+00,-3.242927067782757078e+00,0.000000000000000000e+00,-1.393904911184050910e+00
1.666666666666666644e-02,1.643074940555913448e+09,0.000000000000000000e+00,-1.393904911184050910e+00,-5.997465898830154352e-01,-1.393904911184050910e+00
3.333333333333333287e-02,1.643074940557902098e+09,0.000000000000000000e+00,-3.213164252943356392e+00,0.000000000000000000e+00,-3.213164252943356392e+00
5.000000000000000278e-02,1.643074940573860407e+09,0.000000000000000000e+00,-3.376038271232123300e+00,0.000000000000000000e+00,-3.376038271232123300e+00
6.666666666666666574e-02,1.643074940591806412e+09,0.000000000000000000e+00,-3.051916679132191668e+00,0.000000000000000000e+00,-3.051916679132191668e+00
8.333333333333332871e-02,1.643074940608014584e+09,0.000000000000000000e+00,-3.019697715398119264e+00,0.000000000000000000e+00,-3.019697715398119264e+00
1.000000000000000056e-01,1.643074940625966311e+09,0.000000000000000000e+00,-3.138088507657718740e+00,0.000000000000000000e+00,-3.138088507657718740e+00
1.166666666666666685e-01,1.643074940640925407e+09,0.000000000000000000e+00,-2.623616994005224079e+00,0.000000000000000000e+00,-2.623616994005224079e+00
1.333333333333333315e-01,1.643074940657898188e+09,0.000000000000000000e+00,-1.692466072601120919e+00,0.000000000000000000e+00,-1.692466072601120919e+00
1.499999999999999944e-01,1.643074940675373793e+09,0.000000000000000000e+00,-1.147740514330291228e+00,0.000000000000000000e+00,-1.147740514330291228e+00
1.666666666666666574e-01,1.643074940693520784e+09,0.000000000000000000e+00,-6.757873075912258498e-01,0.000000000000000000e+00,-6.757873075912258498e-01
1.833333333333333204e-01,1.643074940708569288e+09,0.000000000000000000e+00,-4.254205265809275494e-01,0.000000000000000000e+00,-4.254205265809275494e-01
2.000000000000000111e-01,1.643074940727499962e+09,0.000000000000000000e+00,-4.806943255683852612e-01,0.000000000000000000e+00,-4.806943255683852612e-01
2.166666666666666741e-01,1.643074940745505333e+09,0.000000000000000000e+00,-6.210047383827019818e-01,0.000000000000000000e+00,-6.210047383827019818e-01
2.333333333333333370e-01,1.643074940760468483e+09,0.000000000000000000e+00,-3.999095424328696358e-01,0.000000000000000000e+00,-3.999095424328696358e-01
2.500000000000000000e-01,1.643074940778393507e+09,0.000000000000000000e+00,-3.786503889761548280e-01,0.000000000000000000e+00,-3.786503889761548280e-01
2.666666666666666630e-01,1.643074940794496059e+09,0.000000000000000000e+00,1.530374436316510878e-01,0.000000000000000000e+00,1.530374436316510878e-01
2.833333333333333259e-01,1.643074940812725782e+09,0.000000000000000000e+00,1.530374436316510878e-01,0.000000000000000000e+00,1.530374436316510878e-01
2.999999999999999889e-01,1.643074940827091455e+09,0.000000000000000000e+00,1.530374436316510878e-01,0.000000000000000000e+00,1.530374436316510878e-01
3.166666666666666519e-01,1.643074940846021414e+09,0.000000000000000000e+00,1.530374436316510878e-01,0.000000000000000000e+00,1.530374436316510878e-01
3.333333333333333148e-01,1.643074940863960505e+09,0.000000000000000000e+00,1.530374436316510878e-01,0.000000000000000000e+00,1.530374436316510878e-01
3.499999999999999778e-01,1.643074940880955458e+09,0.000000000000000000e+00,1.610498752354029006e-01,0.000000000000000000e+00,1.610498752354029006e-01
3.666666666666666408e-01,1.643074940895313501e+09,0.000000000000000000e+00,1.610498752354029006e-01,0.000000000000000000e+00,1.610498752354029006e-01
3.833333333333333037e-01,1.643074940914299250e+09,0.000000000000000000e+00,7.077659821269161045e-01,0.000000000000000000e+00,7.077659821269161045e-01
4.000000000000000222e-01,1.643074940930473328e+09,0.000000000000000000e+00,6.392640876275542672e-01,0.000000000000000000e+00,6.392640876275542672e-01
4.166666666666666852e-01,1.643074940944408894e+09,0.000000000000000000e+00,1.610498752354029006e-01,0.000000000000000000e+00,1.610498752354029006e-01
4.333333333333333481e-01,1.643074940962362051e+09,0.000000000000000000e+00,1.690623068391541306e-01,0.000000000000000000e+00,1.690623068391541306e-01
4.500000000000000111e-01,1.643074940978713512e+09,0.000000000000000000e+00,1.770747384429053606e-01,0.000000000000000000e+00,1.770747384429053606e-01
4.666666666666666741e-01,1.643074940997614861e+09,0.000000000000000000e+00,1.930996016504084034e-01,0.000000000000000000e+00,1.930996016504084034e-01
4.833333333333333370e-01,1.643074941012628317e+09,0.000000000000000000e+00,2.011120332541596334e-01,0.000000000000000000e+00,2.011120332541596334e-01
5.000000000000000000e-01,1.643074941030881643e+09,0.000000000000000000e+00,2.171368964616620933e-01,0.000000000000000000e+00,2.171368964616620933e-01
5.166666666666666075e-01,1.643074941047883987e+09,0.000000000000000000e+00,2.251493280654139062e-01,0.000000000000000000e+00,2.251493280654139062e-01
5.333333333333333259e-01,1.643074941063084364e+09,0.000000000000000000e+00,2.251493280654139062e-01,0.000000000000000000e+00,2.251493280654139062e-01
5.500000000000000444e-01,1.643074941081422329e+09,0.000000000000000000e+00,2.251493280654139062e-01,0.000000000000000000e+00,2.251493280654139062e-01
5.666666666666666519e-01,1.643074941096247911e+09,0.000000000000000000e+00,2.251493280654139062e-01,0.000000000000000000e+00,2.251493280654139062e-01
5.833333333333333703e-01,1.643074941111617804e+09,0.000000000000000000e+00,2.331617596691651362e-01,0.000000000000000000e+00,2.331617596691651362e-01
5.999999999999999778e-01,1.643074941130709410e+09,0.000000000000000000e+00,2.331617596691651362e-01,0.000000000000000000e+00,2.331617596691651362e-01
6.166666666666666963e-01,1.643074941147144556e+09,0.000000000000000000e+00,2.251493280654139062e-01,0.000000000000000000e+00,2.251493280654139062e-01
6.333333333333333037e-01,1.643074941165330172e+09,0.000000000000000000e+00,2.251493280654139062e-01,0.000000000000000000e+00,2.251493280654139062e-01
6.500000000000000222e-01,1.643074941181758404e+09,0.000000000000000000e+00,2.331617596691651362e-01,0.000000000000000000e+00,2.331617596691651362e-01
6.666666666666666297e-01,1.643074941197398186e+09,0.000000000000000000e+00,2.331617596691651362e-01,0.000000000000000000e+00,2.331617596691651362e-01
6.833333333333333481e-01,1.643074941213358402e+09,0.000000000000000000e+00,2.331617596691651362e-01,0.000000000000000000e+00,2.331617596691651362e-01
6.999999999999999556e-01,1.643074941230313063e+09,0.000000000000000000e+00,2.251493280654139062e-01,0.000000000000000000e+00,2.251493280654139062e-01
7.166666666666666741e-01,1.643074941248269081e+09,0.000000000000000000e+00,2.251493280654139062e-01,0.000000000000000000e+00,2.251493280654139062e-01
7.333333333333332815e-01,1.643074941265629053e+09,0.000000000000000000e+00,2.171368964616620933e-01,0.000000000000000000e+00,2.171368964616620933e-01
7.500000000000000000e-01,1.643074941281082392e+09,0.000000000000000000e+00,2.171368964616620933e-01,0.000000000000000000e+00,2.171368964616620933e-01
7.666666666666666075e-01,1.643074941297039986e+09,0.000000000000000000e+00,2.091244648579108634e-01,0.000000000000000000e+00,2.091244648579108634e-01
7.833333333333333259e-01,1.643074941314991474e+09,0.000000000000000000e+00,2.011120332541596334e-01,0.000000000000000000e+00,2.011120332541596334e-01
8.000000000000000444e-01,1.643074941330949545e+09,0.000000000000000000e+00,2.011120332541596334e-01,0.000000000000000000e+00,2.011120332541596334e-01
8.166666666666666519e-01,1.643074941346701384e+09,0.000000000000000000e+00,2.011120332541596334e-01,0.000000000000000000e+00,2.011120332541596334e-01
8.333333333333333703e-01,1.643074941366646767e+09,0.000000000000000000e+00,2.011120332541596334e-01,0.000000000000000000e+00,2.011120332541596334e-01
8.499999999999999778e-01,1.643074941381607771e+09,0.000000000000000000e+00,2.011120332541596334e-01,0.000000000000000000e+00,2.011120332541596334e-01
8.666666666666666963e-01,1.643074941397746325e+09,0.000000000000000000e+00,2.011120332541596334e-01,0.000000000000000000e+00,2.011120332541596334e-01
8.833333333333333037e-01,1.643074941414700985e+09,0.000000000000000000e+00,2.011120332541596334e-01,0.000000000000000000e+00,2.011120332541596334e-01
9.000000000000000222e-01,1.643074941429053783e+09,0.000000000000000000e+00,2.011120332541596334e-01,0.000000000000000000e+00,2.011120332541596334e-01
9.166666666666666297e-01,1.643074941448003531e+09,0.000000000000000000e+00,2.011120332541596334e-01,0.000000000000000000e+00,2.011120332541596334e-01
9.333333333333333481e-01,1.643074941465345621e+09,0.000000000000000000e+00,2.011120332541596334e-01,0.000000000000000000e+00,2.011120332541596334e-01
9.499999999999999556e-01,1.643074941484269857e+09,0.000000000000000000e+00,2.011120332541596334e-01,0.000000000000000000e+00,2.011120332541596334e-01
9.666666666666666741e-01,1.643074941499548674e+09,0.000000000000000000e+00,1.930996016504084034e-01,0.000000000000000000e+00,1.930996016504084034e-01
9.833333333333332815e-01,1.643074941516520739e+09,0.000000000000000000e+00,1.930996016504084034e-01,0.000000000000000000e+00,1.930996016504084034e-01
1.000000000000000000e+00,1.643074941536448240e+09,0.000000000000000000e+00,2.011120332541596334e-01,0.000000000000000000e+00,2.011120332541596334e-01
1.016666666666666607e+00,1.643074941549413204e+09,0.000000000000000000e+00,1.930996016504084034e-01,0.000000000000000000e+00,1.930996016504084034e-01
1.033333333333333215e+00,1.643074941567362785e+09,0.000000000000000000e+00,2.011120332541596334e-01,0.000000000000000000e+00,2.011120332541596334e-01
1.050000000000000044e+00,1.643074941585341692e+09,0.000000000000000000e+00,2.011120332541596334e-01,0.000000000000000000e+00,2.011120332541596334e-01
1.066666666666666652e+00,1.643074941601293802e+09,0.000000000000000000e+00,2.011120332541596334e-01,0.000000000000000000e+00,2.011120332541596334e-01
1.083333333333333259e+00,1.643074941620195150e+09,0.000000000000000000e+00,1.930996016504084034e-01,0.000000000000000000e+00,1.930996016504084034e-01
1.100000000000000089e+00,1.643074941634208918e+09,0.000000000000000000e+00,2.011120332541596334e-01,0.000000000000000000e+00,2.011120332541596334e-01
1.116666666666666696e+00,1.643074941652845383e+09,0.000000000000000000e+00,2.011120332541596334e-01,0.000000000000000000e+00,2.011120332541596334e-01
1.133333333333333304e+00,1.643074941667798519e+09,0.000000000000000000e+00,2.011120332541596334e-01,0.000000000000000000e+00,2.011120332541596334e-01
1.149999999999999911e+00,1.643074941685704947e+09,0.000000000000000000e+00,2.011120332541596334e-01,0.000000000000000000e+00,2.011120332541596334e-01
1.166666666666666741e+00,1.643074941702697277e+09,0.000000000000000000e+00,2.011120332541596334e-01,0.000000000000000000e+00,2.011120332541596334e-01
1.183333333333333348e+00,1.643074941719621658e+09,0.000000000000000000e+00,2.011120332541596334e-01,0.000000000000000000e+00,2.011120332541596334e-01
1.199999999999999956e+00,1.643074941736602783e+09,0.000000000000000000e+00,2.011120332541596334e-01,0.000000000000000000e+00,2.011120332541596334e-01
1.216666666666666563e+00,1.643074941752552509e+09,0.000000000000000000e+00,2.011120332541596334e-01,0.000000000000000000e+00,2.011120332541596334e-01
1.233333333333333393e+00,1.643074941771501064e+09,0.000000000000000000e+00,2.011120332541596334e-01,0.000000000000000000e+00,2.011120332541596334e-01
1.250000000000000000e+00,1.643074941789453506e+09,0.000000000000000000e+00,1.930996016504084034e-01,0.000000000000000000e+00,1.930996016504084034e-01
1.266666666666666607e+00,1.643074941806381941e+09,0.000000000000000000e+00,1.930996016504084034e-01,0.000000000000000000e+00,1.930996016504084034e-01
1.283333333333333215e+00,1.643074941820368290e+09,0.000000000000000000e+00,2.011120332541596334e-01,0.000000000000000000e+00,2.011120332541596334e-01
1.300000000000000044e+00,1.643074941840317965e+09,0.000000000000000000e+00,2.011120332541596334e-01,0.000000000000000000e+00,2.011120332541596334e-01
1.316666666666666652e+00,1.643074941857279778e+09,0.000000000000000000e+00,2.011120332541596334e-01,0.000000000000000000e+00,2.011120332541596334e-01
1.333333333333333259e+00,1.643074941876196861e+09,0.000000000000000000e+00,1.930996016504084034e-01,0.000000000000000000e+00,1.930996016504084034e-01
1.350000000000000089e+00,1.643074941892153740e+09,0.000000000000000000e+00,1.930996016504084034e-01,0.000000000000000000e+00,1.930996016504084034e-01
1.366666666666666696e+00,1.643074941908113003e+09,0.000000000000000000e+00,2.011120332541596334e-01,0.000000000000000000e+00,2.011120332541596334e-01
1.383333333333333304e+00,1.643074941928058147e+09,0.000000000000000000e+00,1.930996016504084034e-01,0.000000000000000000e+00,1.930996016504084034e-01
1.399999999999999911e+00,1.643074941941067696e+09,0.000000000000000000e+00,2.011120332541596334e-01,0.000000000000000000e+00,2.011120332541596334e-01
1.416666666666666741e+00,1.643074941958319426e+09,0.000000000000000000e+00,2.011120332541596334e-01,0.000000000000000000e+00,2.011120332541596334e-01
1.433333333333333348e+00,1.643074941973670959e+09,0.000000000000000000e+00,1.930996016504084034e-01,0.000000000000000000e+00,1.930996016504084034e-01
1.449999999999999956e+00,1.643074941990616083e+09,0.000000000000000000e+00,1.930996016504084034e-01,0.000000000000000000e+00,1.930996016504084034e-01
1.466666666666666563e+00,1.643074942006573200e+09,0.000000000000000000e+00,1.930996016504084034e-01,0.000000000000000000e+00,1.930996016504084034e-01
1.483333333333333393e+00,1.643074942025521994e+09,0.000000000000000000e+00,1.930996016504084034e-01,0.000000000000000000e+00,1.930996016504084034e-01
1.500000000000000000e+00,1.643074942041482210e+09,0.000000000000000000e+00,2.011120332541596334e-01,0.000000000000000000e+00,2.011120332541596334e-01
1.516666666666666607e+00,1.643074942059431791e+09,0.000000000000000000e+00,2.011120332541596334e-01,0.000000000000000000e+00,2.011120332541596334e-01
1.533333333333333215e+00,1.643074942076387882e+09,0.000000000000000000e+00,2.011120332541596334e-01,0.000000000000000000e+00,2.011120332541596334e-01
1.550000000000000044e+00,1.643074942093582869e+09,0.000000000000000000e+00,2.011120332541596334e-01,0.000000000000000000e+00,2.011120332541596334e-01
1.566666666666666652e+00,1.643074942111390591e+09,0.000000000000000000e+00,2.011120332541596334e-01,0.000000000000000000e+00,2.011120332541596334e-01
1.583333333333333259e+00,1.643074942125647783e+09,0.000000000000000000e+00,2.011120332541596334e-01,0.000000000000000000e+00,2.011120332541596334e-01
1.600000000000000089e+00,1.643074942142956734e+09,0.000000000000000000e+00,2.011120332541596334e-01,0.000000000000000000e+00,2.011120332541596334e-01
1.616666666666666696e+00,1.643074942161897182e+09,0.000000000000000000e+00,2.011120332541596334e-01,0.000000000000000000e+00,2.011120332541596334e-01
1.633333333333333304e+00,1.643074942178998709e+09,0.000000000000000000e+00,2.011120332541596334e-01,0.000000000000000000e+00,2.011120332541596334e-01
1.649999999999999911e+00,1.643074942196222782e+09,0.000000000000000000e+00,2.011120332541596334e-01,0.000000000000000000e+00,2.011120332541596334e-01
1.666666666666666741e+00,1.643074942211646318e+09,0.000000000000000000e+00,2.011120332541596334e-01,0.000000000000000000e+00,2.011120332541596334e-01
1.683333333333333348e+00,1.643074942227607250e+09,0.000000000000000000e+00,1.930996016504084034e-01,0.000000000000000000e+00,1.930996016504084034e-01
1.699999999999999956e+00,1.643074942246553183e+09,0.000000000000000000e+00,1.930996016504084034e-01,0.000000000000000000e+00,1.930996016504084034e-01
1.716666666666666563e+00,1.643074942265504599e+09,0.000000000000000000e+00,1.930996016504084034e-01,0.000000000000000000e+00,1.930996016504084034e-01
1.733333333333333393e+00,1.643074942278581858e+09,0.000000000000000000e+00,1.930996016504084034e-01,0.000000000000000000e+00,1.930996016504084034e-01
1.750000000000000000e+00,1.643074942297955990e+09,0.000000000000000000e+00,2.011120332541596334e-01,0.000000000000000000e+00,2.011120332541596334e-01
1.766666666666666607e+00,1.643074942316905737e+09,0.000000000000000000e+00,1.930996016504084034e-01,0.000000000000000000e+00,1.930996016504084034e-01
1.783333333333333215e+00,1.643074942333861351e+09,0.000000000000000000e+00,1.930996016504084034e-01,0.000000000000000000e+00,1.930996016504084034e-01
1.800000000000000044e+00,1.643074942348064184e+09,0.000000000000000000e+00,1.930996016504084034e-01,0.000000000000000000e+00,1.930996016504084034e-01
1.816666666666666652e+00,1.643074942366012812e+09,0.000000000000000000e+00,2.011120332541596334e-01,0.000000000000000000e+00,2.011120332541596334e-01
1.833333333333333259e+00,1.643074942382966995e+09,0.000000000000000000e+00,1.930996016504084034e-01,0.000000000000000000e+00,1.930996016504084034e-01
1.849999999999999867e+00,1.643074942400939465e+09,0.000000000000000000e+00,2.011120332541596334e-01,0.000000000000000000e+00,2.011120332541596334e-01
1.866666666666666696e+00,1.643074942419874668e+09,0.000000000000000000e+00,2.011120332541596334e-01,0.000000000000000000e+00,2.011120332541596334e-01
1.883333333333333304e+00,1.643074942433852911e+09,0.000000000000000000e+00,2.011120332541596334e-01,0.000000000000000000e+00,2.011120332541596334e-01
1.899999999999999911e+00,1.643074942452950001e+09,0.000000000000000000e+00,2.011120332541596334e-01,0.000000000000000000e+00,2.011120332541596334e-01
1.916666666666666741e+00,1.643074942470101833e+09,0.000000000000000000e+00,2.011120332541596334e-01,0.000000000000000000e+00,2.011120332541596334e-01
1.933333333333333348e+00,1.643074942484825373e+09,0.000000000000000000e+00,2.011120332541596334e-01,0.000000000000000000e+00,2.011120332541596334e-01
1.949999999999999956e+00,1.643074942503028154e+09,0.000000000000000000e+00,1.930996016504084034e-01,0.000000000000000000e+00,1.930996016504084034e-01
1.966666666666666563e+00,1.643074942520020485e+09,0.000000000000000000e+00,1.930996016504084034e-01,0.000000000000000000e+00,1.930996016504084034e-01
1.983333333333333393e+00,1.643074942537950516e+09,0.000000000000000000e+00,2.011120332541596334e-01,0.000000000000000000e+00,2.011120332541596334e-01
2.000000000000000000e+00,1.643074942556474209e+09,0.000000000000000000e+00,1.930996016504084034e-01,0.000000000000000000e+00,1.930996016504084034e-01
2.016666666666666607e+00,1.643074942567819118e+09,0.000000000000000000e+00,1.930996016504084034e-01,0.000000000000000000e+00,1.930996016504084034e-01
2.033333333333333215e+00,1.643074942588758945e+09,0.000000000000000000e+00,2.011120332541596334e-01,0.000000000000000000e+00,2.011120332541596334e-01
2.049999999999999822e+00,1.643074942602111101e+09,0.000000000000000000e+00,1.930996016504084034e-01,0.000000000000000000e+00,1.930996016504084034e-01
2.066666666666666430e+00,1.643074942618747234e+09,0.000000000000000000e+00,1.930996016504084034e-01,0.000000000000000000e+00,1.930996016504084034e-01
2.083333333333333481e+00,1.643074942635701895e+09,0.000000000000000000e+00,2.011120332541596334e-01,0.000000000000000000e+00,2.011120332541596334e-01
2.100000000000000089e+00,1.643074942653825998e+09,0.000000000000000000e+00,1.930996016504084034e-01,0.000000000000000000e+00,1.930996016504084034e-01
2.116666666666666696e+00,1.643074942670162201e+09,0.000000000000000000e+00,1.930996016504084034e-01,0.000000000000000000e+00,1.930996016504084034e-01
2.133333333333333304e+00,1.643074942686184883e+09,0.000000000000000000e+00,2.011120332541596334e-01,0.000000000000000000e+00,2.011120332541596334e-01
2.149999999999999911e+00,1.643074942703188181e+09,0.000000000000000000e+00,2.011120332541596334e-01,0.000000000000000000e+00,2.011120332541596334e-01
2.166666666666666519e+00,1.643074942719145536e+09,0.000000000000000000e+00,2.011120332541596334e-01,0.000000000000000000e+00,2.011120332541596334e-01
2.183333333333333126e+00,1.643074942737480879e+09,0.000000000000000000e+00,2.011120332541596334e-01,0.000000000000000000e+00,2.011120332541596334e-01
2.200000000000000178e+00,1.643074942752441168e+09,0.000000000000000000e+00,2.011120332541596334e-01,0.000000000000000000e+00,2.011120332541596334e-01
2.216666666666666785e+00,1.643074942769400358e+09,0.000000000000000000e+00,2.011120332541596334e-01,0.000000000000000000e+00,2.011120332541596334e-01
2.233333333333333393e+00,1.643074942786336899e+09,0.000000000000000000e+00,1.930996016504084034e-01,0.000000000000000000e+00,1.930996016504084034e-01
2.250000000000000000e+00,1.643074942804303646e+09,0.000000000000000000e+00,2.011120332541596334e-01,0.000000000000000000e+00,2.011120332541596334e-01
2.266666666666666607e+00,1.643074942819576263e+09,0.000000000000000000e+00,1.930996016504084034e-01,0.000000000000000000e+00,1.930996016504084034e-01
2.283333333333333215e+00,1.643074942837905645e+09,0.000000000000000000e+00,2.011120332541596334e-01,0.000000000000000000e+00,2.011120332541596334e-01
2.299999999999999822e+00,1.643074942854859829e+09,0.000000000000000000e+00,2.011120332541596334e-01,0.000000000000000000e+00,2.011120332541596334e-01
2.316666666666666430e+00,1.643074942872209311e+09,0.000000000000000000e+00,1.930996016504084034e-01,0.000000000000000000e+00,1.930996016504084034e-01
2.333333333333333481e+00,1.643074942888171911e+09,0.000000000000000000e+00,2.011120332541596334e-01,0.000000000000000000e+00,2.011120332541596334e-01
2.350000000000000089e+00,1.643074942906629086e+09,0.000000000000000000e+00,1.930996016504084034e-01,0.000000000000000000e+00,1.930996016504084034e-01
2.366666666666666696e+00,1.643074942923141718e+09,0.000000000000000000e+00,2.011120332541596334e-01,0.000000000000000000e+00,2.011120332541596334e-01
2.383333333333333304e+00,1.643074942940201283e+09,0.000000000000000000e+00,1.930996016504084034e-01,0.000000000000000000e+00,1.930996016504084034e-01
2.399999999999999911e+00,1.643074942957906246e+09,0.000000000000000000e+00,2.011120332541596334e-01,0.000000000000000000e+00,2.011120332541596334e-01
2.416666666666666519e+00,1.643074942973222256e+09,0.000000000000000000e+00,1.930996016504084034e-01,0.000000000000000000e+00,1.930996016504084034e-01
2.433333333333333126e+00,1.643074942992172003e+09,0.000000000000000000e+00,1.930996016504084034e-01,0.000000000000000000e+00,1.930996016504084034e-01
2.450000000000000178e+00,1.643074943009126663e+09,0.000000000000000000e+00,2.011120332541596334e-01,0.000000000000000000e+00,2.011120332541596334e-01
2.466666666666666785e+00,1.643074943023829222e+09,0.000000000000000000e+00,2.011120332541596334e-01,0.000000000000000000e+00,2.011120332541596334e-01
2.483333333333333393e+00,1.643074943042358398e+09,0.000000000000000000e+00,2.011120332541596334e-01,0.000000000000000000e+00,2.011120332541596334e-01
2.500000000000000000e+00,1.643074943058547497e+09,0.000000000000000000e+00,1.930996016504084034e-01,0.000000000000000000e+00,1.930996016504084034e-01
2.516666666666666607e+00,1.643074943075861454e+09,0.000000000000000000e+00,2.011120332541596334e-01,0.000000000000000000e+00,2.011120332541596334e-01
2.533333333333333215e+00,1.643074943093287706e+09,0.000000000000000000e+00,2.011120332541596334e-01,0.000000000000000000e+00,2.011120332541596334e-01
2.549999999999999822e+00,1.643074943110345602e+09,0.000000000000000000e+00,1.930996016504084034e-01,0.000000000000000000e+00,1.930996016504084034e-01
2.566666666666666430e+00,1.643074943126303434e+09,0.000000000000000000e+00,1.930996016504084034e-01,0.000000000000000000e+00,1.930996016504084034e-01
2.583333333333333481e+00,1.643074943143278360e+09,0.000000000000000000e+00,2.011120332541596334e-01,0.000000000000000000e+00,2.011120332541596334e-01
2.600000000000000089e+00,1.643074943160575390e+09,0.000000000000000000e+00,1.930996016504084034e-01,0.000000000000000000e+00,1.930996016504084034e-01
2.616666666666666696e+00,1.643074943176956892e+09,0.000000000000000000e+00,2.011120332541596334e-01,0.000000000000000000e+00,2.011120332541596334e-01
2.633333333333333304e+00,1.643074943191414356e+09,0.000000000000000000e+00,2.011120332541596334e-01,0.000000000000000000e+00,2.011120332541596334e-01
2.649999999999999911e+00,1.643074943211361408e+09,0.000000000000000000e+00,1.930996016504084034e-01,0.000000000000000000e+00,1.930996016504084034e-01
2.666666666666666519e+00,1.643074943225040674e+09,0.000000000000000000e+00,2.011120332541596334e-01,0.000000000000000000e+00,2.011120332541596334e-01
2.683333333333333126e+00,1.643074943243968248e+09,0.000000000000000000e+00,1.930996016504084034e-01,0.000000000000000000e+00,1.930996016504084034e-01
2.700000000000000178e+00,1.643074943260254383e+09,0.000000000000000000e+00,1.930996016504084034e-01,0.000000000000000000e+00,1.930996016504084034e-01
2.716666666666666785e+00,1.643074943277231932e+09,0.000000000000000000e+00,2.011120332541596334e-01,0.000000000000000000e+00,2.011120332541596334e-01
2.733333333333333393e+00,1.643074943294772625e+09,0.000000000000000000e+00,2.011120332541596334e-01,0.000000000000000000e+00,2.011120332541596334e-01
2.750000000000000000e+00,1.643074943310719490e+09,0.000000000000000000e+00,1.930996016504084034e-01,0.000000000000000000e+00,1.930996016504084034e-01
2.766666666666666607e+00,1.643074943326687336e+09,0.000000000000000000e+00,1.930996016504084034e-01,0.000000000000000000e+00,1.930996016504084034e-01
2.783333333333333215e+00,1.643074943342887402e+09,0.000000000000000000e+00,2.011120332541596334e-01,0.000000000000000000e+00,2.011120332541596334e-01
2.799999999999999822e+00,1.643074943359842539e+09,0.000000000000000000e+00,2.011120332541596334e-01,0.000000000000000000e+00,2.011120332541596334e-01
2.816666666666666430e+00,1.643074943378183365e+09,0.000000000000000000e+00,2.011120332541596334e-01,0.000000000000000000e+00,2.011120332541596334e-01
2.833333333333333481e+00,1.643074943393193245e+09,0.000000000000000000e+00,2.011120332541596334e-01,0.000000000000000000e+00,2.011120332541596334e-01
2.850000000000000089e+00,1.643074943410387516e+09,0.000000000000000000e+00,2.011120332541596334e-01,0.000000000000000000e+00,2.011120332541596334e-01
2.866666666666666696e+00,1.643074943428787708e+09,0.000000000000000000e+00,1.930996016504084034e-01,0.000000000000000000e+00,1.930996016504084034e-01
2.883333333333333304e+00,1.643074943444818020e+09,0.000000000000000000e+00,1.930996016504084034e-01,0.000000000000000000e+00,1.930996016504084034e-01
2.899999999999999911e+00,1.643074943463867426e+09,0.000000000000000000e+00,2.011120332541596334e-01,0.000000000000000000e+00,2.011120332541596334e-01
2.916666666666666519e+00,1.643074943479183912e+09,0.000000000000000000e+00,2.011120332541596334e-01,0.000000000000000000e+00,2.011120332541596334e-01
2.933333333333333126e+00,1.643074943496439934e+09,0.000000000000000000e+00,2.011120332541596334e-01,0.000000000000000000e+00,2.011120332541596334e-01
2.950000000000000178e+00,1.643074943511076450e+09,0.000000000000000000e+00,2.011120332541596334e-01,0.000000000000000000e+00,2.011120332541596334e-01
2.966666666666666785e+00,1.643074943530027151e+09,0.000000000000000000e+00,2.011120332541596334e-01,0.000000000000000000e+00,2.011120332541596334e-01
2.983333333333333393e+00,1.643074943545205593e+09,0.000000000000000000e+00,2.011120332541596334e-01,0.000000000000000000e+00,2.011120332541596334e-01
3.000000000000000000e+00,1.643074943565139055e+09,0.000000000000000000e+00,2.011120332541596334e-01,0.000000000000000000e+00,2.011120332541596334e-01
