# 
# 
# 
# 
# 
# 
# 
# 
# 
# 
# time,realtime,ref,inp,dis,state...
0.000000000000000000e+00,1.639787829898493528e+09,0.000000000000000000e+00,-5.520565374984692797e-01,0.000000000000000000e+00,-5.280192426872150069e-01
1.666666666666666644e-02,1.639787829899497271e+09,0.000000000000000000e+00,-5.280192426872150069e-01,1.330478127482641604e+00,-5.280192426872150069e-01
3.333333333333333287e-02,1.639787829900492191e+09,0.000000000000000000e+00,-5.520565374984692797e-01,0.000000000000000000e+00,-5.520565374984692797e-01
5.000000000000000278e-02,1.639787829917419672e+09,0.000000000000000000e+00,-5.520565374984692797e-01,0.000000000000000000e+00,-5.520565374984692797e-01
6.666666666666666574e-02,1.639787829934400082e+09,0.000000000000000000e+00,-5.520565374984692797e-01,0.000000000000000000e+00,-5.520565374984692797e-01
8.333333333333332871e-02,1.639787829951353788e+09,0.000000000000000000e+00,-5.520565374984692797e-01,0.000000000000000000e+00,-5.520565374984692797e-01
1.000000000000000056e-01,1.639787829967864513e+09,0.000000000000000000e+00,-5.520565374984692797e-01,0.000000000000000000e+00,-5.520565374984692797e-01
1.166666666666666685e-01,1.639787829984708309e+09,0.000000000000000000e+00,-5.520565374984692797e-01,0.000000000000000000e+00,-5.520565374984692797e-01
1.333333333333333315e-01,1.639787830000155926e+09,0.000000000000000000e+00,-5.520565374984692797e-01,0.000000000000000000e+00,-5.520565374984692797e-01
1.499999999999999944e-01,1.639787830017215014e+09,0.000000000000000000e+00,-5.520565374984692797e-01,0.000000000000000000e+00,-5.520565374984692797e-01
1.666666666666666574e-01,1.639787830036451340e+09,0.000000000000000000e+00,-5.520565374984692797e-01,0.000000000000000000e+00,-5.520565374984692797e-01
1.833333333333333204e-01,1.639787830056616783e+09,0.000000000000000000e+00,-5.520565374984692797e-01,0.000000000000000000e+00,-5.520565374984692797e-01
2.000000000000000111e-01,1.639787830071643829e+09,0.000000000000000000e+00,-5.520565374984692797e-01,0.000000000000000000e+00,-5.520565374984692797e-01
2.166666666666666741e-01,1.639787830089552641e+09,0.000000000000000000e+00,-5.600689691022204819e-01,0.000000000000000000e+00,-5.600689691022204819e-01
2.333333333333333370e-01,1.639787830103779316e+09,0.000000000000000000e+00,-5.600689691022204819e-01,0.000000000000000000e+00,-5.600689691022204819e-01
2.500000000000000000e-01,1.639787830121319056e+09,0.000000000000000000e+00,-5.600689691022204819e-01,0.000000000000000000e+00,-5.600689691022204819e-01
2.666666666666666630e-01,1.639787830139175177e+09,0.000000000000000000e+00,-5.600689691022204819e-01,0.000000000000000000e+00,-5.600689691022204819e-01
2.833333333333333259e-01,1.639787830160608053e+09,0.000000000000000000e+00,-5.600689691022204819e-01,0.000000000000000000e+00,-5.600689691022204819e-01
2.999999999999999889e-01,1.639787830175560474e+09,0.000000000000000000e+00,-5.600689691022204819e-01,0.000000000000000000e+00,-5.600689691022204819e-01
3.166666666666666519e-01,1.639787830191517830e+09,0.000000000000000000e+00,-5.600689691022204819e-01,0.000000000000000000e+00,-5.600689691022204819e-01
3.333333333333333148e-01,1.639787830207474947e+09,0.000000000000000000e+00,-5.600689691022204819e-01,0.000000000000000000e+00,-5.600689691022204819e-01
3.499999999999999778e-01,1.639787830223695993e+09,0.000000000000000000e+00,-5.600689691022204819e-01,0.000000000000000000e+00,-5.600689691022204819e-01
3.666666666666666408e-01,1.639787830241828203e+09,0.000000000000000000e+00,-5.600689691022204819e-01,0.000000000000000000e+00,-5.600689691022204819e-01
3.833333333333333037e-01,1.639787830259912968e+09,0.000000000000000000e+00,-5.600689691022204819e-01,0.000000000000000000e+00,-5.600689691022204819e-01
4.000000000000000222e-01,1.639787830274856806e+09,0.000000000000000000e+00,-5.600689691022204819e-01,0.000000000000000000e+00,-5.600689691022204819e-01
4.166666666666666852e-01,1.639787830289265156e+09,0.000000000000000000e+00,-5.600689691022204819e-01,0.000000000000000000e+00,-5.600689691022204819e-01
4.333333333333333481e-01,1.639787830307610273e+09,0.000000000000000000e+00,-5.680814007059720172e-01,0.000000000000000000e+00,-5.680814007059720172e-01
4.500000000000000111e-01,1.639787830325756311e+09,0.000000000000000000e+00,-5.600689691022204819e-01,0.000000000000000000e+00,-5.600689691022204819e-01
4.666666666666666741e-01,1.639787830342971087e+09,0.000000000000000000e+00,-5.680814007059720172e-01,0.000000000000000000e+00,-5.680814007059720172e-01
4.833333333333333370e-01,1.639787830360764503e+09,0.000000000000000000e+00,-5.600689691022204819e-01,0.000000000000000000e+00,-5.600689691022204819e-01
5.000000000000000000e-01,1.639787830375357151e+09,0.000000000000000000e+00,-5.600689691022204819e-01,0.000000000000000000e+00,-5.600689691022204819e-01
5.166666666666666075e-01,1.639787830392556190e+09,0.000000000000000000e+00,-5.680814007059720172e-01,0.000000000000000000e+00,-5.680814007059720172e-01
5.333333333333333259e-01,1.639787830408512592e+09,0.000000000000000000e+00,-5.680814007059720172e-01,0.000000000000000000e+00,-5.680814007059720172e-01
5.500000000000000444e-01,1.639787830425465107e+09,0.000000000000000000e+00,-5.680814007059720172e-01,0.000000000000000000e+00,-5.680814007059720172e-01
5.666666666666666519e-01,1.639787830441575289e+09,0.000000000000000000e+00,-5.680814007059720172e-01,0.000000000000000000e+00,-5.680814007059720172e-01
5.833333333333333703e-01,1.639787830459250212e+09,0.000000000000000000e+00,-5.760938323097232194e-01,0.000000000000000000e+00,-5.760938323097232194e-01
5.999999999999999778e-01,1.639787830476177931e+09,0.000000000000000000e+00,-5.760938323097232194e-01,0.000000000000000000e+00,-5.760938323097232194e-01
6.166666666666666963e-01,1.639787830494246483e+09,0.000000000000000000e+00,-5.680814007059720172e-01,0.000000000000000000e+00,-5.680814007059720172e-01
6.333333333333333037e-01,1.639787830510197163e+09,0.000000000000000000e+00,-5.680814007059720172e-01,0.000000000000000000e+00,-5.680814007059720172e-01
6.500000000000000222e-01,1.639787830529792547e+09,0.000000000000000000e+00,-5.760938323097232194e-01,0.000000000000000000e+00,-5.760938323097232194e-01
6.666666666666666297e-01,1.639787830545172691e+09,0.000000000000000000e+00,-5.680814007059720172e-01,0.000000000000000000e+00,-5.680814007059720172e-01
6.833333333333333481e-01,1.639787830562202930e+09,0.000000000000000000e+00,-5.680814007059720172e-01,0.000000000000000000e+00,-5.680814007059720172e-01
6.999999999999999556e-01,1.639787830583092451e+09,0.000000000000000000e+00,-5.680814007059720172e-01,0.000000000000000000e+00,-5.680814007059720172e-01
7.166666666666666741e-01,1.639787830598591566e+09,0.000000000000000000e+00,-5.680814007059720172e-01,0.000000000000000000e+00,-5.680814007059720172e-01
7.333333333333332815e-01,1.639787830615217447e+09,0.000000000000000000e+00,-5.680814007059720172e-01,0.000000000000000000e+00,-5.680814007059720172e-01
7.500000000000000000e-01,1.639787830634079933e+09,0.000000000000000000e+00,-5.680814007059720172e-01,0.000000000000000000e+00,-5.680814007059720172e-01
7.666666666666666075e-01,1.639787830648561001e+09,0.000000000000000000e+00,-5.760938323097232194e-01,0.000000000000000000e+00,-5.760938323097232194e-01
7.833333333333333259e-01,1.639787830665579557e+09,0.000000000000000000e+00,-5.680814007059720172e-01,0.000000000000000000e+00,-5.680814007059720172e-01
8.000000000000000444e-01,1.639787830681099892e+09,0.000000000000000000e+00,-5.680814007059720172e-01,0.000000000000000000e+00,-5.680814007059720172e-01
8.166666666666666519e-01,1.639787830698690414e+09,0.000000000000000000e+00,-5.680814007059720172e-01,0.000000000000000000e+00,-5.680814007059720172e-01
8.333333333333333703e-01,1.639787830715689659e+09,0.000000000000000000e+00,-5.680814007059720172e-01,0.000000000000000000e+00,-5.680814007059720172e-01
8.499999999999999778e-01,1.639787830730934143e+09,0.000000000000000000e+00,-5.680814007059720172e-01,0.000000000000000000e+00,-5.680814007059720172e-01
8.666666666666666963e-01,1.639787830748398781e+09,0.000000000000000000e+00,-5.760938323097232194e-01,0.000000000000000000e+00,-5.760938323097232194e-01
8.833333333333333037e-01,1.639787830763514519e+09,0.000000000000000000e+00,-5.680814007059720172e-01,0.000000000000000000e+00,-5.680814007059720172e-01
9.000000000000000222e-01,1.639787830782880068e+09,0.000000000000000000e+00,-5.680814007059720172e-01,0.000000000000000000e+00,-5.680814007059720172e-01
9.166666666666666297e-01,1.639787830796288490e+09,0.000000000000000000e+00,-5.680814007059720172e-01,0.000000000000000000e+00,-5.680814007059720172e-01
9.333333333333333481e-01,1.639787830814326525e+09,0.000000000000000000e+00,-5.680814007059720172e-01,0.000000000000000000e+00,-5.680814007059720172e-01
9.499999999999999556e-01,1.639787830831769705e+09,0.000000000000000000e+00,-5.680814007059720172e-01,0.000000000000000000e+00,-5.680814007059720172e-01
9.666666666666666741e-01,1.639787830846895933e+09,0.000000000000000000e+00,-5.680814007059720172e-01,0.000000000000000000e+00,-5.680814007059720172e-01
9.833333333333332815e-01,1.639787830864404440e+09,0.000000000000000000e+00,-5.680814007059720172e-01,0.000000000000000000e+00,-5.680814007059720172e-01
1.000000000000000000e+00,1.639787830884362698e+09,0.000000000000000000e+00,-5.680814007059720172e-01,0.000000000000000000e+00,-5.680814007059720172e-01
1.016666666666666607e+00,1.639787830897307396e+09,0.000000000000000000e+00,-5.680814007059720172e-01,0.000000000000000000e+00,-5.680814007059720172e-01
1.033333333333333215e+00,1.639787830913261890e+09,0.000000000000000000e+00,-5.680814007059720172e-01,0.000000000000000000e+00,-5.680814007059720172e-01
1.050000000000000044e+00,1.639787830929646492e+09,0.000000000000000000e+00,-5.680814007059720172e-01,0.000000000000000000e+00,-5.680814007059720172e-01
1.066666666666666652e+00,1.639787830948728085e+09,0.000000000000000000e+00,-5.680814007059720172e-01,0.000000000000000000e+00,-5.680814007059720172e-01
1.083333333333333259e+00,1.639787830963424206e+09,0.000000000000000000e+00,-5.680814007059720172e-01,0.000000000000000000e+00,-5.680814007059720172e-01
1.100000000000000089e+00,1.639787830979727268e+09,0.000000000000000000e+00,-5.680814007059720172e-01,0.000000000000000000e+00,-5.680814007059720172e-01
1.116666666666666696e+00,1.639787830996682167e+09,0.000000000000000000e+00,-5.760938323097232194e-01,0.000000000000000000e+00,-5.760938323097232194e-01
1.133333333333333304e+00,1.639787831013661385e+09,0.000000000000000000e+00,-5.680814007059720172e-01,0.000000000000000000e+00,-5.680814007059720172e-01
1.149999999999999911e+00,1.639787831030619144e+09,0.000000000000000000e+00,-5.760938323097232194e-01,0.000000000000000000e+00,-5.760938323097232194e-01
1.166666666666666741e+00,1.639787831047571898e+09,0.000000000000000000e+00,-5.760938323097232194e-01,0.000000000000000000e+00,-5.760938323097232194e-01
1.183333333333333348e+00,1.639787831063538313e+09,0.000000000000000000e+00,-5.680814007059720172e-01,0.000000000000000000e+00,-5.680814007059720172e-01
1.199999999999999956e+00,1.639787831078463078e+09,0.000000000000000000e+00,-5.680814007059720172e-01,0.000000000000000000e+00,-5.680814007059720172e-01
1.216666666666666563e+00,1.639787831098410368e+09,0.000000000000000000e+00,-5.680814007059720172e-01,0.000000000000000000e+00,-5.680814007059720172e-01
1.233333333333333393e+00,1.639787831114400864e+09,0.000000000000000000e+00,-5.680814007059720172e-01,0.000000000000000000e+00,-5.680814007059720172e-01
1.250000000000000000e+00,1.639787831132345676e+09,0.000000000000000000e+00,-5.680814007059720172e-01,0.000000000000000000e+00,-5.680814007059720172e-01
1.266666666666666607e+00,1.639787831149274826e+09,0.000000000000000000e+00,-5.680814007059720172e-01,0.000000000000000000e+00,-5.680814007059720172e-01
1.283333333333333215e+00,1.639787831166229010e+09,0.000000000000000000e+00,-5.680814007059720172e-01,0.000000000000000000e+00,-5.680814007059720172e-01
1.300000000000000044e+00,1.639787831183207989e+09,0.000000000000000000e+00,-5.680814007059720172e-01,0.000000000000000000e+00,-5.680814007059720172e-01
1.316666666666666652e+00,1.639787831200162888e+09,0.000000000000000000e+00,-5.760938323097232194e-01,0.000000000000000000e+00,-5.760938323097232194e-01
1.333333333333333259e+00,1.639787831216096401e+09,0.000000000000000000e+00,-5.680814007059720172e-01,0.000000000000000000e+00,-5.680814007059720172e-01
1.350000000000000089e+00,1.639787831233052015e+09,0.000000000000000000e+00,-5.680814007059720172e-01,0.000000000000000000e+00,-5.680814007059720172e-01
1.366666666666666696e+00,1.639787831249006987e+09,0.000000000000000000e+00,-5.680814007059720172e-01,0.000000000000000000e+00,-5.680814007059720172e-01
1.383333333333333304e+00,1.639787831267984629e+09,0.000000000000000000e+00,-5.680814007059720172e-01,0.000000000000000000e+00,-5.680814007059720172e-01
1.399999999999999911e+00,1.639787831284960032e+09,0.000000000000000000e+00,-5.680814007059720172e-01,0.000000000000000000e+00,-5.680814007059720172e-01
1.416666666666666741e+00,1.639787831301912308e+09,0.000000000000000000e+00,-5.680814007059720172e-01,0.000000000000000000e+00,-5.680814007059720172e-01
1.433333333333333348e+00,1.639787831318972826e+09,0.000000000000000000e+00,-5.680814007059720172e-01,0.000000000000000000e+00,-5.680814007059720172e-01
1.449999999999999956e+00,1.639787831335891485e+09,0.000000000000000000e+00,-5.680814007059720172e-01,0.000000000000000000e+00,-5.680814007059720172e-01
1.466666666666666563e+00,1.639787831353847027e+09,0.000000000000000000e+00,-5.680814007059720172e-01,0.000000000000000000e+00,-5.680814007059720172e-01
1.483333333333333393e+00,1.639787831370800018e+09,0.000000000000000000e+00,-5.680814007059720172e-01,0.000000000000000000e+00,-5.680814007059720172e-01
1.500000000000000000e+00,1.639787831387752056e+09,0.000000000000000000e+00,-5.680814007059720172e-01,0.000000000000000000e+00,-5.680814007059720172e-01
1.516666666666666607e+00,1.639787831402687788e+09,0.000000000000000000e+00,-5.680814007059720172e-01,0.000000000000000000e+00,-5.680814007059720172e-01
1.533333333333333215e+00,1.639787831420948505e+09,0.000000000000000000e+00,-5.760938323097232194e-01,0.000000000000000000e+00,-5.760938323097232194e-01
1.550000000000000044e+00,1.639787831437904119e+09,0.000000000000000000e+00,-5.680814007059720172e-01,0.000000000000000000e+00,-5.680814007059720172e-01
1.566666666666666652e+00,1.639787831457200050e+09,0.000000000000000000e+00,-5.680814007059720172e-01,0.000000000000000000e+00,-5.680814007059720172e-01
1.583333333333333259e+00,1.639787831472440481e+09,0.000000000000000000e+00,-5.680814007059720172e-01,0.000000000000000000e+00,-5.680814007059720172e-01
1.600000000000000089e+00,1.639787831489437819e+09,0.000000000000000000e+00,-5.680814007059720172e-01,0.000000000000000000e+00,-5.680814007059720172e-01
1.616666666666666696e+00,1.639787831505468130e+09,0.000000000000000000e+00,-5.680814007059720172e-01,0.000000000000000000e+00,-5.680814007059720172e-01
1.633333333333333304e+00,1.639787831519979715e+09,0.000000000000000000e+00,-5.680814007059720172e-01,0.000000000000000000e+00,-5.680814007059720172e-01
1.649999999999999911e+00,1.639787831538909435e+09,0.000000000000000000e+00,-5.680814007059720172e-01,0.000000000000000000e+00,-5.680814007059720172e-01
1.666666666666666741e+00,1.639787831556984425e+09,0.000000000000000000e+00,-5.680814007059720172e-01,0.000000000000000000e+00,-5.680814007059720172e-01
1.683333333333333348e+00,1.639787831571588993e+09,0.000000000000000000e+00,-5.680814007059720172e-01,0.000000000000000000e+00,-5.680814007059720172e-01
1.699999999999999956e+00,1.639787831590481520e+09,0.000000000000000000e+00,-5.680814007059720172e-01,0.000000000000000000e+00,-5.680814007059720172e-01
1.716666666666666563e+00,1.639787831608788729e+09,0.000000000000000000e+00,-5.680814007059720172e-01,0.000000000000000000e+00,-5.680814007059720172e-01
1.733333333333333393e+00,1.639787831625227928e+09,0.000000000000000000e+00,-5.680814007059720172e-01,0.000000000000000000e+00,-5.680814007059720172e-01
1.750000000000000000e+00,1.639787831639666796e+09,0.000000000000000000e+00,-5.680814007059720172e-01,0.000000000000000000e+00,-5.680814007059720172e-01
1.766666666666666607e+00,1.639787831659776449e+09,0.000000000000000000e+00,-5.680814007059720172e-01,0.000000000000000000e+00,-5.680814007059720172e-01
1.783333333333333215e+00,1.639787831671552420e+09,0.000000000000000000e+00,-5.680814007059720172e-01,0.000000000000000000e+00,-5.680814007059720172e-01
1.800000000000000044e+00,1.639787831688678503e+09,0.000000000000000000e+00,-5.680814007059720172e-01,0.000000000000000000e+00,-5.680814007059720172e-01
1.816666666666666652e+00,1.639787831704479456e+09,0.000000000000000000e+00,-5.680814007059720172e-01,0.000000000000000000e+00,-5.680814007059720172e-01
1.833333333333333259e+00,1.639787831721806288e+09,0.000000000000000000e+00,-5.680814007059720172e-01,0.000000000000000000e+00,-5.680814007059720172e-01
1.849999999999999867e+00,1.639787831739339590e+09,0.000000000000000000e+00,-5.680814007059720172e-01,0.000000000000000000e+00,-5.680814007059720172e-01
1.866666666666666696e+00,1.639787831755977631e+09,0.000000000000000000e+00,-5.680814007059720172e-01,0.000000000000000000e+00,-5.680814007059720172e-01
1.883333333333333304e+00,1.639787831772271633e+09,0.000000000000000000e+00,-5.680814007059720172e-01,0.000000000000000000e+00,-5.680814007059720172e-01
1.899999999999999911e+00,1.639787831788531065e+09,0.000000000000000000e+00,-5.680814007059720172e-01,0.000000000000000000e+00,-5.680814007059720172e-01
1.916666666666666741e+00,1.639787831808525801e+09,0.000000000000000000e+00,-5.680814007059720172e-01,0.000000000000000000e+00,-5.680814007059720172e-01
1.933333333333333348e+00,1.639787831823284864e+09,0.000000000000000000e+00,-5.680814007059720172e-01,0.000000000000000000e+00,-5.680814007059720172e-01
1.949999999999999956e+00,1.639787831843872309e+09,0.000000000000000000e+00,-5.680814007059720172e-01,0.000000000000000000e+00,-5.680814007059720172e-01
1.966666666666666563e+00,1.639787831859520435e+09,0.000000000000000000e+00,-5.680814007059720172e-01,0.000000000000000000e+00,-5.680814007059720172e-01
1.983333333333333393e+00,1.639787831874238968e+09,0.000000000000000000e+00,-5.680814007059720172e-01,0.000000000000000000e+00,-5.680814007059720172e-01
2.000000000000000000e+00,1.639787831896478891e+09,0.000000000000000000e+00,-5.680814007059720172e-01,0.000000000000000000e+00,-5.680814007059720172e-01
2.016666666666666607e+00,1.639787831910524130e+09,0.000000000000000000e+00,-5.680814007059720172e-01,0.000000000000000000e+00,-5.680814007059720172e-01
2.033333333333333215e+00,1.639787831929106236e+09,0.000000000000000000e+00,-5.760938323097232194e-01,0.000000000000000000e+00,-5.760938323097232194e-01
2.049999999999999822e+00,1.639787831945322752e+09,0.000000000000000000e+00,-5.760938323097232194e-01,0.000000000000000000e+00,-5.760938323097232194e-01
2.066666666666666430e+00,1.639787831960642099e+09,0.000000000000000000e+00,-5.680814007059720172e-01,0.000000000000000000e+00,-5.680814007059720172e-01
2.083333333333333481e+00,1.639787831976172924e+09,0.000000000000000000e+00,-5.680814007059720172e-01,0.000000000000000000e+00,-5.680814007059720172e-01
2.100000000000000089e+00,1.639787831994722366e+09,0.000000000000000000e+00,-5.680814007059720172e-01,0.000000000000000000e+00,-5.680814007059720172e-01
2.116666666666666696e+00,1.639787832010992289e+09,0.000000000000000000e+00,-5.680814007059720172e-01,0.000000000000000000e+00,-5.680814007059720172e-01
2.133333333333333304e+00,1.639787832029025793e+09,0.000000000000000000e+00,-5.680814007059720172e-01,0.000000000000000000e+00,-5.680814007059720172e-01
2.149999999999999911e+00,1.639787832045728207e+09,0.000000000000000000e+00,-5.680814007059720172e-01,0.000000000000000000e+00,-5.680814007059720172e-01
2.166666666666666519e+00,1.639787832063723326e+09,0.000000000000000000e+00,-5.680814007059720172e-01,0.000000000000000000e+00,-5.680814007059720172e-01
2.183333333333333126e+00,1.639787832079902172e+09,0.000000000000000000e+00,-5.760938323097232194e-01,0.000000000000000000e+00,-5.760938323097232194e-01
2.200000000000000178e+00,1.639787832096988201e+09,0.000000000000000000e+00,-5.680814007059720172e-01,0.000000000000000000e+00,-5.680814007059720172e-01
2.216666666666666785e+00,1.639787832113944530e+09,0.000000000000000000e+00,-5.760938323097232194e-01,0.000000000000000000e+00,-5.760938323097232194e-01
2.233333333333333393e+00,1.639787832130918026e+09,0.000000000000000000e+00,-5.680814007059720172e-01,0.000000000000000000e+00,-5.680814007059720172e-01
2.250000000000000000e+00,1.639787832148878336e+09,0.000000000000000000e+00,-5.680814007059720172e-01,0.000000000000000000e+00,-5.680814007059720172e-01
2.266666666666666607e+00,1.639787832166826010e+09,0.000000000000000000e+00,-5.680814007059720172e-01,0.000000000000000000e+00,-5.680814007059720172e-01
2.283333333333333215e+00,1.639787832183756113e+09,0.000000000000000000e+00,-5.680814007059720172e-01,0.000000000000000000e+00,-5.680814007059720172e-01
2.299999999999999822e+00,1.639787832198748112e+09,0.000000000000000000e+00,-5.680814007059720172e-01,0.000000000000000000e+00,-5.680814007059720172e-01
2.316666666666666430e+00,1.639787832216701746e+09,0.000000000000000000e+00,-5.760938323097232194e-01,0.000000000000000000e+00,-5.760938323097232194e-01
2.333333333333333481e+00,1.639787832233022690e+09,0.000000000000000000e+00,-5.680814007059720172e-01,0.000000000000000000e+00,-5.680814007059720172e-01
2.350000000000000089e+00,1.639787832249640703e+09,0.000000000000000000e+00,-5.680814007059720172e-01,0.000000000000000000e+00,-5.680814007059720172e-01
2.366666666666666696e+00,1.639787832266428709e+09,0.000000000000000000e+00,-5.680814007059720172e-01,0.000000000000000000e+00,-5.680814007059720172e-01
2.383333333333333304e+00,1.639787832283354521e+09,0.000000000000000000e+00,-5.760938323097232194e-01,0.000000000000000000e+00,-5.760938323097232194e-01
2.399999999999999911e+00,1.639787832299066782e+09,0.000000000000000000e+00,-5.680814007059720172e-01,0.000000000000000000e+00,-5.680814007059720172e-01
2.416666666666666519e+00,1.639787832315778255e+09,0.000000000000000000e+00,-5.680814007059720172e-01,0.000000000000000000e+00,-5.680814007059720172e-01
2.433333333333333126e+00,1.639787832333640575e+09,0.000000000000000000e+00,-5.680814007059720172e-01,0.000000000000000000e+00,-5.680814007059720172e-01
2.450000000000000178e+00,1.639787832348942995e+09,0.000000000000000000e+00,-5.680814007059720172e-01,0.000000000000000000e+00,-5.680814007059720172e-01
2.466666666666666785e+00,1.639787832370133400e+09,0.000000000000000000e+00,-5.680814007059720172e-01,0.000000000000000000e+00,-5.680814007059720172e-01
2.483333333333333393e+00,1.639787832385808468e+09,0.000000000000000000e+00,-5.680814007059720172e-01,0.000000000000000000e+00,-5.680814007059720172e-01
2.500000000000000000e+00,1.639787832402735233e+09,0.000000000000000000e+00,-5.680814007059720172e-01,0.000000000000000000e+00,-5.680814007059720172e-01
2.516666666666666607e+00,1.639787832419236183e+09,0.000000000000000000e+00,-5.680814007059720172e-01,0.000000000000000000e+00,-5.680814007059720172e-01
2.533333333333333215e+00,1.639787832437160015e+09,0.000000000000000000e+00,-5.680814007059720172e-01,0.000000000000000000e+00,-5.680814007059720172e-01
2.549999999999999822e+00,1.639787832453879118e+09,0.000000000000000000e+00,-5.680814007059720172e-01,0.000000000000000000e+00,-5.680814007059720172e-01
2.566666666666666430e+00,1.639787832472373009e+09,0.000000000000000000e+00,-5.760938323097232194e-01,0.000000000000000000e+00,-5.760938323097232194e-01
2.583333333333333481e+00,1.639787832488329887e+09,0.000000000000000000e+00,-5.760938323097232194e-01,0.000000000000000000e+00,-5.760938323097232194e-01
2.600000000000000089e+00,1.639787832504688501e+09,0.000000000000000000e+00,-5.680814007059720172e-01,0.000000000000000000e+00,-5.680814007059720172e-01
2.616666666666666696e+00,1.639787832520884037e+09,0.000000000000000000e+00,-5.680814007059720172e-01,0.000000000000000000e+00,-5.680814007059720172e-01
2.633333333333333304e+00,1.639787832541410208e+09,0.000000000000000000e+00,-5.680814007059720172e-01,0.000000000000000000e+00,-5.680814007059720172e-01
2.649999999999999911e+00,1.639787832558240175e+09,0.000000000000000000e+00,-5.680814007059720172e-01,0.000000000000000000e+00,-5.680814007059720172e-01
2.666666666666666519e+00,1.639787832575482368e+09,0.000000000000000000e+00,-5.680814007059720172e-01,0.000000000000000000e+00,-5.680814007059720172e-01
2.683333333333333126e+00,1.639787832589921474e+09,0.000000000000000000e+00,-5.680814007059720172e-01,0.000000000000000000e+00,-5.680814007059720172e-01
2.700000000000000178e+00,1.639787832607122183e+09,0.000000000000000000e+00,-5.680814007059720172e-01,0.000000000000000000e+00,-5.680814007059720172e-01
2.716666666666666785e+00,1.639787832623613119e+09,0.000000000000000000e+00,-5.680814007059720172e-01,0.000000000000000000e+00,-5.680814007059720172e-01
2.733333333333333393e+00,1.639787832640043736e+09,0.000000000000000000e+00,-5.680814007059720172e-01,0.000000000000000000e+00,-5.680814007059720172e-01
2.750000000000000000e+00,1.639787832656482220e+09,0.000000000000000000e+00,-5.680814007059720172e-01,0.000000000000000000e+00,-5.680814007059720172e-01
2.766666666666666607e+00,1.639787832674894333e+09,0.000000000000000000e+00,-5.680814007059720172e-01,0.000000000000000000e+00,-5.680814007059720172e-01
2.783333333333333215e+00,1.639787832688303709e+09,0.000000000000000000e+00,-5.680814007059720172e-01,0.000000000000000000e+00,-5.680814007059720172e-01
2.799999999999999822e+00,1.639787832705399275e+09,0.000000000000000000e+00,-5.680814007059720172e-01,0.000000000000000000e+00,-5.680814007059720172e-01
2.816666666666666430e+00,1.639787832722523451e+09,0.000000000000000000e+00,-5.680814007059720172e-01,0.000000000000000000e+00,-5.680814007059720172e-01
2.833333333333333481e+00,1.639787832740208626e+09,0.000000000000000000e+00,-5.760938323097232194e-01,0.000000000000000000e+00,-5.760938323097232194e-01
2.850000000000000089e+00,1.639787832757190943e+09,0.000000000000000000e+00,-5.680814007059720172e-01,0.000000000000000000e+00,-5.680814007059720172e-01
2.866666666666666696e+00,1.639787832775500774e+09,0.000000000000000000e+00,-5.680814007059720172e-01,0.000000000000000000e+00,-5.680814007059720172e-01
2.883333333333333304e+00,1.639787832791235209e+09,0.000000000000000000e+00,-5.680814007059720172e-01,0.000000000000000000e+00,-5.680814007059720172e-01
2.899999999999999911e+00,1.639787832809606075e+09,0.000000000000000000e+00,-5.680814007059720172e-01,0.000000000000000000e+00,-5.680814007059720172e-01
2.916666666666666519e+00,1.639787832825686932e+09,0.000000000000000000e+00,-5.680814007059720172e-01,0.000000000000000000e+00,-5.680814007059720172e-01
2.933333333333333126e+00,1.639787832843001842e+09,0.000000000000000000e+00,-5.680814007059720172e-01,0.000000000000000000e+00,-5.680814007059720172e-01
2.950000000000000178e+00,1.639787832860045671e+09,0.000000000000000000e+00,-5.760938323097232194e-01,0.000000000000000000e+00,-5.760938323097232194e-01
2.966666666666666785e+00,1.639787832877211094e+09,0.000000000000000000e+00,-5.760938323097232194e-01,0.000000000000000000e+00,-5.760938323097232194e-01
2.983333333333333393e+00,1.639787832893485308e+09,0.000000000000000000e+00,-5.680814007059720172e-01,0.000000000000000000e+00,-5.680814007059720172e-01
3.000000000000000000e+00,1.639787832915316582e+09,0.000000000000000000e+00,-5.680814007059720172e-01,0.000000000000000000e+00,-5.680814007059720172e-01
