# 
# 
# 
# 
# 
# 
# 
# 
# 
# 
# time,realtime,ref,inp,dis,state...
0.000000000000000000e+00,1.639788227007616997e+09,0.000000000000000000e+00,2.091244648579108634e-01,0.000000000000000000e+00,2.011120332541596334e-01
1.666666666666666644e-02,1.639788227011633396e+09,0.000000000000000000e+00,2.011120332541596334e-01,0.000000000000000000e+00,2.011120332541596334e-01
3.333333333333333287e-02,1.639788227013625860e+09,0.000000000000000000e+00,2.011120332541596334e-01,0.000000000000000000e+00,2.011120332541596334e-01
5.000000000000000278e-02,1.639788227029602289e+09,0.000000000000000000e+00,2.011120332541596334e-01,0.000000000000000000e+00,2.011120332541596334e-01
6.666666666666666574e-02,1.639788227046866655e+09,0.000000000000000000e+00,2.011120332541596334e-01,0.000000000000000000e+00,2.011120332541596334e-01
8.333333333333332871e-02,1.639788227064411402e+09,0.000000000000000000e+00,2.011120332541596334e-01,0.000000000000000000e+00,2.011120332541596334e-01
1.000000000000000056e-01,1.639788227081588268e+09,0.000000000000000000e+00,2.011120332541596334e-01,0.000000000000000000e+00,2.011120332541596334e-01
1.166666666666666685e-01,1.639788227097358704e+09,0.000000000000000000e+00,2.011120332541596334e-01,0.000000000000000000e+00,2.011120332541596334e-01
1.333333333333333315e-01,1.639788227114140749e+09,0.000000000000000000e+00,2.091244648579108634e-01,0.000000000000000000e+00,2.091244648579108634e-01
1.499999999999999944e-01,1.639788227130330801e+09,0.000000000000000000e+00,2.091244648579108634e-01,0.000000000000000000e+00,2.091244648579108634e-01
1.666666666666666574e-01,1.639788227146040678e+09,0.000000000000000000e+00,2.011120332541596334e-01,0.000000000000000000e+00,2.011120332541596334e-01
1.833333333333333204e-01,1.639788227161170006e+09,0.000000000000000000e+00,2.011120332541596334e-01,0.000000000000000000e+00,2.011120332541596334e-01
2.000000000000000111e-01,1.639788227179805756e+09,0.000000000000000000e+00,2.091244648579108634e-01,0.000000000000000000e+00,2.091244648579108634e-01
2.166666666666666741e-01,1.639788227194023371e+09,0.000000000000000000e+00,2.091244648579108634e-01,0.000000000000000000e+00,2.091244648579108634e-01
2.333333333333333370e-01,1.639788227212528229e+09,0.000000000000000000e+00,2.011120332541596334e-01,0.000000000000000000e+00,2.011120332541596334e-01
2.500000000000000000e-01,1.639788227231575966e+09,0.000000000000000000e+00,2.011120332541596334e-01,0.000000000000000000e+00,2.011120332541596334e-01
2.666666666666666630e-01,1.639788227246051073e+09,0.000000000000000000e+00,2.011120332541596334e-01,0.000000000000000000e+00,2.011120332541596334e-01
2.833333333333333259e-01,1.639788227264471054e+09,0.000000000000000000e+00,2.011120332541596334e-01,0.000000000000000000e+00,2.011120332541596334e-01
2.999999999999999889e-01,1.639788227280411482e+09,0.000000000000000000e+00,2.011120332541596334e-01,0.000000000000000000e+00,2.011120332541596334e-01
3.166666666666666519e-01,1.639788227299337387e+09,0.000000000000000000e+00,2.011120332541596334e-01,0.000000000000000000e+00,2.011120332541596334e-01
3.333333333333333148e-01,1.639788227313941240e+09,0.000000000000000000e+00,2.011120332541596334e-01,0.000000000000000000e+00,2.011120332541596334e-01
3.499999999999999778e-01,1.639788227330587387e+09,0.000000000000000000e+00,2.011120332541596334e-01,0.000000000000000000e+00,2.011120332541596334e-01
3.666666666666666408e-01,1.639788227348664045e+09,0.000000000000000000e+00,2.011120332541596334e-01,0.000000000000000000e+00,2.011120332541596334e-01
3.833333333333333037e-01,1.639788227364621401e+09,0.000000000000000000e+00,2.011120332541596334e-01,0.000000000000000000e+00,2.011120332541596334e-01
4.000000000000000222e-01,1.639788227382353306e+09,0.000000000000000000e+00,2.011120332541596334e-01,0.000000000000000000e+00,2.011120332541596334e-01
4.166666666666666852e-01,1.639788227398937225e+09,0.000000000000000000e+00,2.011120332541596334e-01,0.000000000000000000e+00,2.011120332541596334e-01
4.333333333333333481e-01,1.639788227415515900e+09,0.000000000000000000e+00,2.091244648579108634e-01,0.000000000000000000e+00,2.091244648579108634e-01
4.500000000000000111e-01,1.639788227429480791e+09,0.000000000000000000e+00,2.011120332541596334e-01,0.000000000000000000e+00,2.011120332541596334e-01
4.666666666666666741e-01,1.639788227449412823e+09,0.000000000000000000e+00,2.011120332541596334e-01,0.000000000000000000e+00,2.011120332541596334e-01
4.833333333333333370e-01,1.639788227464027405e+09,0.000000000000000000e+00,2.011120332541596334e-01,0.000000000000000000e+00,2.011120332541596334e-01
5.000000000000000000e-01,1.639788227480032682e+09,0.000000000000000000e+00,2.011120332541596334e-01,0.000000000000000000e+00,2.011120332541596334e-01
5.166666666666666075e-01,1.639788227497352362e+09,0.000000000000000000e+00,2.011120332541596334e-01,0.000000000000000000e+00,2.011120332541596334e-01
5.333333333333333259e-01,1.639788227515165567e+09,0.000000000000000000e+00,2.091244648579108634e-01,0.000000000000000000e+00,2.091244648579108634e-01
5.500000000000000444e-01,1.639788227531243563e+09,0.000000000000000000e+00,2.011120332541596334e-01,0.000000000000000000e+00,2.011120332541596334e-01
5.666666666666666519e-01,1.639788227548443317e+09,0.000000000000000000e+00,2.011120332541596334e-01,0.000000000000000000e+00,2.011120332541596334e-01
5.833333333333333703e-01,1.639788227568199873e+09,0.000000000000000000e+00,2.011120332541596334e-01,0.000000000000000000e+00,2.011120332541596334e-01
5.999999999999999778e-01,1.639788227584968328e+09,0.000000000000000000e+00,2.011120332541596334e-01,0.000000000000000000e+00,2.011120332541596334e-01
6.166666666666666963e-01,1.639788227601946592e+09,0.000000000000000000e+00,2.011120332541596334e-01,0.000000000000000000e+00,2.011120332541596334e-01
6.333333333333333037e-01,1.639788227617311478e+09,0.000000000000000000e+00,2.011120332541596334e-01,0.000000000000000000e+00,2.011120332541596334e-01
6.500000000000000222e-01,1.639788227635695457e+09,0.000000000000000000e+00,2.011120332541596334e-01,0.000000000000000000e+00,2.011120332541596334e-01
6.666666666666666297e-01,1.639788227653114319e+09,0.000000000000000000e+00,2.011120332541596334e-01,0.000000000000000000e+00,2.011120332541596334e-01
6.833333333333333481e-01,1.639788227672338009e+09,0.000000000000000000e+00,2.011120332541596334e-01,0.000000000000000000e+00,2.011120332541596334e-01
6.999999999999999556e-01,1.639788227686298609e+09,0.000000000000000000e+00,2.011120332541596334e-01,0.000000000000000000e+00,2.011120332541596334e-01
7.166666666666666741e-01,1.639788227705313206e+09,0.000000000000000000e+00,2.091244648579108634e-01,0.000000000000000000e+00,2.091244648579108634e-01
7.333333333333332815e-01,1.639788227720894337e+09,0.000000000000000000e+00,2.011120332541596334e-01,0.000000000000000000e+00,2.011120332541596334e-01
7.500000000000000000e-01,1.639788227738801003e+09,0.000000000000000000e+00,2.011120332541596334e-01,0.000000000000000000e+00,2.011120332541596334e-01
7.666666666666666075e-01,1.639788227755862713e+09,0.000000000000000000e+00,2.011120332541596334e-01,0.000000000000000000e+00,2.011120332541596334e-01
7.833333333333333259e-01,1.639788227772811413e+09,0.000000000000000000e+00,2.091244648579108634e-01,0.000000000000000000e+00,2.091244648579108634e-01
8.000000000000000444e-01,1.639788227791767597e+09,0.000000000000000000e+00,2.011120332541596334e-01,0.000000000000000000e+00,2.011120332541596334e-01
8.166666666666666519e-01,1.639788227808359385e+09,0.000000000000000000e+00,2.091244648579108634e-01,0.000000000000000000e+00,2.091244648579108634e-01
8.333333333333333703e-01,1.639788227827721834e+09,0.000000000000000000e+00,2.011120332541596334e-01,0.000000000000000000e+00,2.011120332541596334e-01
8.499999999999999778e-01,1.639788227843343258e+09,0.000000000000000000e+00,2.011120332541596334e-01,0.000000000000000000e+00,2.011120332541596334e-01
8.666666666666666963e-01,1.639788227860492706e+09,0.000000000000000000e+00,2.011120332541596334e-01,0.000000000000000000e+00,2.011120332541596334e-01
8.833333333333333037e-01,1.639788227877505302e+09,0.000000000000000000e+00,2.011120332541596334e-01,0.000000000000000000e+00,2.011120332541596334e-01
9.000000000000000222e-01,1.639788227893459082e+09,0.000000000000000000e+00,2.091244648579108634e-01,0.000000000000000000e+00,2.091244648579108634e-01
9.166666666666666297e-01,1.639788227912845135e+09,0.000000000000000000e+00,2.091244648579108634e-01,0.000000000000000000e+00,2.091244648579108634e-01
9.333333333333333481e-01,1.639788227929932594e+09,0.000000000000000000e+00,2.011120332541596334e-01,0.000000000000000000e+00,2.011120332541596334e-01
9.499999999999999556e-01,1.639788227945490599e+09,0.000000000000000000e+00,2.091244648579108634e-01,0.000000000000000000e+00,2.091244648579108634e-01
9.666666666666666741e-01,1.639788227960958481e+09,0.000000000000000000e+00,2.091244648579108634e-01,0.000000000000000000e+00,2.091244648579108634e-01
9.833333333333332815e-01,1.639788227980147600e+09,0.000000000000000000e+00,2.091244648579108634e-01,0.000000000000000000e+00,2.091244648579108634e-01
1.000000000000000000e+00,1.639788227999619246e+09,0.000000000000000000e+00,2.011120332541596334e-01,0.000000000000000000e+00,2.011120332541596334e-01
1.016666666666666607e+00,1.639788228013588428e+09,0.000000000000000000e+00,2.091244648579108634e-01,0.000000000000000000e+00,2.091244648579108634e-01
1.033333333333333215e+00,1.639788228030138493e+09,0.000000000000000000e+00,2.011120332541596334e-01,0.000000000000000000e+00,2.011120332541596334e-01
1.050000000000000044e+00,1.639788228051243782e+09,0.000000000000000000e+00,2.011120332541596334e-01,0.000000000000000000e+00,2.011120332541596334e-01
1.066666666666666652e+00,1.639788228065652370e+09,0.000000000000000000e+00,2.091244648579108634e-01,0.000000000000000000e+00,2.091244648579108634e-01
1.083333333333333259e+00,1.639788228082741976e+09,0.000000000000000000e+00,2.011120332541596334e-01,0.000000000000000000e+00,2.011120332541596334e-01
1.100000000000000089e+00,1.639788228098045349e+09,0.000000000000000000e+00,2.011120332541596334e-01,0.000000000000000000e+00,2.011120332541596334e-01
1.116666666666666696e+00,1.639788228117516756e+09,0.000000000000000000e+00,2.011120332541596334e-01,0.000000000000000000e+00,2.011120332541596334e-01
1.133333333333333304e+00,1.639788228130477190e+09,0.000000000000000000e+00,2.011120332541596334e-01,0.000000000000000000e+00,2.011120332541596334e-01
1.149999999999999911e+00,1.639788228149187803e+09,0.000000000000000000e+00,2.011120332541596334e-01,0.000000000000000000e+00,2.011120332541596334e-01
1.166666666666666741e+00,1.639788228165693521e+09,0.000000000000000000e+00,2.091244648579108634e-01,0.000000000000000000e+00,2.091244648579108634e-01
1.183333333333333348e+00,1.639788228182042837e+09,0.000000000000000000e+00,2.011120332541596334e-01,0.000000000000000000e+00,2.011120332541596334e-01
1.199999999999999956e+00,1.639788228200440645e+09,0.000000000000000000e+00,2.011120332541596334e-01,0.000000000000000000e+00,2.011120332541596334e-01
1.216666666666666563e+00,1.639788228216885328e+09,0.000000000000000000e+00,2.011120332541596334e-01,0.000000000000000000e+00,2.011120332541596334e-01
1.233333333333333393e+00,1.639788228233229876e+09,0.000000000000000000e+00,2.011120332541596334e-01,0.000000000000000000e+00,2.011120332541596334e-01
1.250000000000000000e+00,1.639788228251837492e+09,0.000000000000000000e+00,2.011120332541596334e-01,0.000000000000000000e+00,2.011120332541596334e-01
1.266666666666666607e+00,1.639788228267413855e+09,0.000000000000000000e+00,2.091244648579108634e-01,0.000000000000000000e+00,2.091244648579108634e-01
1.283333333333333215e+00,1.639788228284847975e+09,0.000000000000000000e+00,2.091244648579108634e-01,0.000000000000000000e+00,2.091244648579108634e-01
1.300000000000000044e+00,1.639788228299254894e+09,0.000000000000000000e+00,2.011120332541596334e-01,0.000000000000000000e+00,2.011120332541596334e-01
1.316666666666666652e+00,1.639788228316441298e+09,0.000000000000000000e+00,2.011120332541596334e-01,0.000000000000000000e+00,2.011120332541596334e-01
1.333333333333333259e+00,1.639788228331884146e+09,0.000000000000000000e+00,2.091244648579108634e-01,0.000000000000000000e+00,2.091244648579108634e-01
1.350000000000000089e+00,1.639788228349503994e+09,0.000000000000000000e+00,2.011120332541596334e-01,0.000000000000000000e+00,2.011120332541596334e-01
1.366666666666666696e+00,1.639788228367836714e+09,0.000000000000000000e+00,2.011120332541596334e-01,0.000000000000000000e+00,2.011120332541596334e-01
1.383333333333333304e+00,1.639788228384715796e+09,0.000000000000000000e+00,2.011120332541596334e-01,0.000000000000000000e+00,2.011120332541596334e-01
1.399999999999999911e+00,1.639788228400379419e+09,0.000000000000000000e+00,2.011120332541596334e-01,0.000000000000000000e+00,2.011120332541596334e-01
1.416666666666666741e+00,1.639788228418874979e+09,0.000000000000000000e+00,2.011120332541596334e-01,0.000000000000000000e+00,2.011120332541596334e-01
1.433333333333333348e+00,1.639788228435854197e+09,0.000000000000000000e+00,2.011120332541596334e-01,0.000000000000000000e+00,2.011120332541596334e-01
1.449999999999999956e+00,1.639788228453443766e+09,0.000000000000000000e+00,2.011120332541596334e-01,0.000000000000000000e+00,2.011120332541596334e-01
1.466666666666666563e+00,1.639788228472119331e+09,0.000000000000000000e+00,2.011120332541596334e-01,0.000000000000000000e+00,2.011120332541596334e-01
1.483333333333333393e+00,1.639788228489650011e+09,0.000000000000000000e+00,2.011120332541596334e-01,0.000000000000000000e+00,2.011120332541596334e-01
1.500000000000000000e+00,1.639788228504910231e+09,0.000000000000000000e+00,2.011120332541596334e-01,0.000000000000000000e+00,2.011120332541596334e-01
1.516666666666666607e+00,1.639788228525128126e+09,0.000000000000000000e+00,2.011120332541596334e-01,0.000000000000000000e+00,2.011120332541596334e-01
1.533333333333333215e+00,1.639788228541306019e+09,0.000000000000000000e+00,2.091244648579108634e-01,0.000000000000000000e+00,2.091244648579108634e-01
1.550000000000000044e+00,1.639788228557913303e+09,0.000000000000000000e+00,2.011120332541596334e-01,0.000000000000000000e+00,2.011120332541596334e-01
1.566666666666666652e+00,1.639788228578526974e+09,0.000000000000000000e+00,2.091244648579108634e-01,0.000000000000000000e+00,2.091244648579108634e-01
1.583333333333333259e+00,1.639788228594480515e+09,0.000000000000000000e+00,2.011120332541596334e-01,0.000000000000000000e+00,2.011120332541596334e-01
1.600000000000000089e+00,1.639788228611186504e+09,0.000000000000000000e+00,2.011120332541596334e-01,0.000000000000000000e+00,2.011120332541596334e-01
1.616666666666666696e+00,1.639788228629906893e+09,0.000000000000000000e+00,2.011120332541596334e-01,0.000000000000000000e+00,2.011120332541596334e-01
1.633333333333333304e+00,1.639788228645137310e+09,0.000000000000000000e+00,2.011120332541596334e-01,0.000000000000000000e+00,2.011120332541596334e-01
1.649999999999999911e+00,1.639788228662251234e+09,0.000000000000000000e+00,2.011120332541596334e-01,0.000000000000000000e+00,2.011120332541596334e-01
1.666666666666666741e+00,1.639788228680194378e+09,0.000000000000000000e+00,2.011120332541596334e-01,0.000000000000000000e+00,2.011120332541596334e-01
1.683333333333333348e+00,1.639788228697151423e+09,0.000000000000000000e+00,2.011120332541596334e-01,0.000000000000000000e+00,2.011120332541596334e-01
1.699999999999999956e+00,1.639788228712111712e+09,0.000000000000000000e+00,2.011120332541596334e-01,0.000000000000000000e+00,2.011120332541596334e-01
1.716666666666666563e+00,1.639788228730822563e+09,0.000000000000000000e+00,2.011120332541596334e-01,0.000000000000000000e+00,2.011120332541596334e-01
1.733333333333333393e+00,1.639788228748717308e+09,0.000000000000000000e+00,2.011120332541596334e-01,0.000000000000000000e+00,2.011120332541596334e-01
1.750000000000000000e+00,1.639788228763868809e+09,0.000000000000000000e+00,2.011120332541596334e-01,0.000000000000000000e+00,2.011120332541596334e-01
1.766666666666666607e+00,1.639788228780822277e+09,0.000000000000000000e+00,2.091244648579108634e-01,0.000000000000000000e+00,2.091244648579108634e-01
1.783333333333333215e+00,1.639788228798758030e+09,0.000000000000000000e+00,2.011120332541596334e-01,0.000000000000000000e+00,2.011120332541596334e-01
1.800000000000000044e+00,1.639788228816765070e+09,0.000000000000000000e+00,2.011120332541596334e-01,0.000000000000000000e+00,2.011120332541596334e-01
1.816666666666666652e+00,1.639788228833352327e+09,0.000000000000000000e+00,2.091244648579108634e-01,0.000000000000000000e+00,2.091244648579108634e-01
1.833333333333333259e+00,1.639788228848999500e+09,0.000000000000000000e+00,2.011120332541596334e-01,0.000000000000000000e+00,2.011120332541596334e-01
1.849999999999999867e+00,1.639788228867303848e+09,0.000000000000000000e+00,2.011120332541596334e-01,0.000000000000000000e+00,2.011120332541596334e-01
1.866666666666666696e+00,1.639788228882786512e+09,0.000000000000000000e+00,2.011120332541596334e-01,0.000000000000000000e+00,2.011120332541596334e-01
1.883333333333333304e+00,1.639788228899981260e+09,0.000000000000000000e+00,2.011120332541596334e-01,0.000000000000000000e+00,2.011120332541596334e-01
1.899999999999999911e+00,1.639788228916235209e+09,0.000000000000000000e+00,2.091244648579108634e-01,0.000000000000000000e+00,2.091244648579108634e-01
1.916666666666666741e+00,1.639788228934353590e+09,0.000000000000000000e+00,2.011120332541596334e-01,0.000000000000000000e+00,2.011120332541596334e-01
1.933333333333333348e+00,1.639788228954621553e+09,0.000000000000000000e+00,2.011120332541596334e-01,0.000000000000000000e+00,2.011120332541596334e-01
1.949999999999999956e+00,1.639788228971068621e+09,0.000000000000000000e+00,2.011120332541596334e-01,0.000000000000000000e+00,2.011120332541596334e-01
1.966666666666666563e+00,1.639788228984869957e+09,0.000000000000000000e+00,2.091244648579108634e-01,0.000000000000000000e+00,2.091244648579108634e-01
1.983333333333333393e+00,1.639788229001051903e+09,0.000000000000000000e+00,2.011120332541596334e-01,0.000000000000000000e+00,2.011120332541596334e-01
2.000000000000000000e+00,1.639788229021040916e+09,0.000000000000000000e+00,2.011120332541596334e-01,0.000000000000000000e+00,2.011120332541596334e-01
2.016666666666666607e+00,1.639788229038024187e+09,0.000000000000000000e+00,2.011120332541596334e-01,0.000000000000000000e+00,2.011120332541596334e-01
2.033333333333333215e+00,1.639788229055524349e+09,0.000000000000000000e+00,2.011120332541596334e-01,0.000000000000000000e+00,2.011120332541596334e-01
2.049999999999999822e+00,1.639788229071223736e+09,0.000000000000000000e+00,2.091244648579108634e-01,0.000000000000000000e+00,2.091244648579108634e-01
2.066666666666666430e+00,1.639788229087913275e+09,0.000000000000000000e+00,2.011120332541596334e-01,0.000000000000000000e+00,2.011120332541596334e-01
2.083333333333333481e+00,1.639788229105187416e+09,0.000000000000000000e+00,2.091244648579108634e-01,0.000000000000000000e+00,2.091244648579108634e-01
2.100000000000000089e+00,1.639788229122763634e+09,0.000000000000000000e+00,2.011120332541596334e-01,0.000000000000000000e+00,2.011120332541596334e-01
2.116666666666666696e+00,1.639788229139675379e+09,0.000000000000000000e+00,2.011120332541596334e-01,0.000000000000000000e+00,2.011120332541596334e-01
2.133333333333333304e+00,1.639788229157598019e+09,0.000000000000000000e+00,2.011120332541596334e-01,0.000000000000000000e+00,2.011120332541596334e-01
2.149999999999999911e+00,1.639788229172436476e+09,0.000000000000000000e+00,2.011120332541596334e-01,0.000000000000000000e+00,2.011120332541596334e-01
2.166666666666666519e+00,1.639788229189380646e+09,0.000000000000000000e+00,2.011120332541596334e-01,0.000000000000000000e+00,2.011120332541596334e-01
2.183333333333333126e+00,1.639788229207721710e+09,0.000000000000000000e+00,2.011120332541596334e-01,0.000000000000000000e+00,2.011120332541596334e-01
2.200000000000000178e+00,1.639788229224562168e+09,0.000000000000000000e+00,2.011120332541596334e-01,0.000000000000000000e+00,2.011120332541596334e-01
2.216666666666666785e+00,1.639788229241962194e+09,0.000000000000000000e+00,2.011120332541596334e-01,0.000000000000000000e+00,2.011120332541596334e-01
2.233333333333333393e+00,1.639788229259392738e+09,0.000000000000000000e+00,2.011120332541596334e-01,0.000000000000000000e+00,2.011120332541596334e-01
2.250000000000000000e+00,1.639788229277588844e+09,0.000000000000000000e+00,2.011120332541596334e-01,0.000000000000000000e+00,2.011120332541596334e-01
2.266666666666666607e+00,1.639788229294158220e+09,0.000000000000000000e+00,2.011120332541596334e-01,0.000000000000000000e+00,2.011120332541596334e-01
2.283333333333333215e+00,1.639788229310581207e+09,0.000000000000000000e+00,2.011120332541596334e-01,0.000000000000000000e+00,2.011120332541596334e-01
2.299999999999999822e+00,1.639788229327788830e+09,0.000000000000000000e+00,2.011120332541596334e-01,0.000000000000000000e+00,2.011120332541596334e-01
2.316666666666666430e+00,1.639788229344438314e+09,0.000000000000000000e+00,2.011120332541596334e-01,0.000000000000000000e+00,2.011120332541596334e-01
2.333333333333333481e+00,1.639788229364874840e+09,0.000000000000000000e+00,2.091244648579108634e-01,0.000000000000000000e+00,2.091244648579108634e-01
2.350000000000000089e+00,1.639788229380832195e+09,0.000000000000000000e+00,2.091244648579108634e-01,0.000000000000000000e+00,2.091244648579108634e-01
2.366666666666666696e+00,1.639788229396209717e+09,0.000000000000000000e+00,2.011120332541596334e-01,0.000000000000000000e+00,2.011120332541596334e-01
2.383333333333333304e+00,1.639788229414578438e+09,0.000000000000000000e+00,2.091244648579108634e-01,0.000000000000000000e+00,2.091244648579108634e-01
2.399999999999999911e+00,1.639788229431344509e+09,0.000000000000000000e+00,2.091244648579108634e-01,0.000000000000000000e+00,2.091244648579108634e-01
2.416666666666666519e+00,1.639788229450387716e+09,0.000000000000000000e+00,2.011120332541596334e-01,0.000000000000000000e+00,2.011120332541596334e-01
2.433333333333333126e+00,1.639788229466295004e+09,0.000000000000000000e+00,2.011120332541596334e-01,0.000000000000000000e+00,2.011120332541596334e-01
2.450000000000000178e+00,1.639788229482089758e+09,0.000000000000000000e+00,2.011120332541596334e-01,0.000000000000000000e+00,2.011120332541596334e-01
2.466666666666666785e+00,1.639788229501538277e+09,0.000000000000000000e+00,2.011120332541596334e-01,0.000000000000000000e+00,2.011120332541596334e-01
2.483333333333333393e+00,1.639788229518720865e+09,0.000000000000000000e+00,2.011120332541596334e-01,0.000000000000000000e+00,2.011120332541596334e-01
2.500000000000000000e+00,1.639788229535163879e+09,0.000000000000000000e+00,2.011120332541596334e-01,0.000000000000000000e+00,2.011120332541596334e-01
2.516666666666666607e+00,1.639788229553462505e+09,0.000000000000000000e+00,2.011120332541596334e-01,0.000000000000000000e+00,2.011120332541596334e-01
2.533333333333333215e+00,1.639788229570128441e+09,0.000000000000000000e+00,1.770747384429053606e-01,0.000000000000000000e+00,1.770747384429053606e-01
2.549999999999999822e+00,1.639788229587326765e+09,0.000000000000000000e+00,1.290001488203974256e-01,0.000000000000000000e+00,1.290001488203974256e-01
2.566666666666666430e+00,1.639788229603029251e+09,0.000000000000000000e+00,7.291312759413763611e-02,0.000000000000000000e+00,7.291312759413763611e-02
2.583333333333333481e+00,1.639788229619820595e+09,0.000000000000000000e+00,3.285096957538091722e-02,0.000000000000000000e+00,3.285096957538091722e-02
2.600000000000000089e+00,1.639788229636602879e+09,0.000000000000000000e+00,-2.323605165087885144e-02,0.000000000000000000e+00,-2.323605165087885144e-02
2.616666666666666696e+00,1.639788229655981064e+09,0.000000000000000000e+00,-1.113727992921438176e-01,0.000000000000000000e+00,-1.113727992921438176e-01
2.633333333333333304e+00,1.639788229670334339e+09,0.000000000000000000e+00,-1.914971153296575745e-01,0.000000000000000000e+00,-1.914971153296575745e-01
2.649999999999999911e+00,1.639788229690238237e+09,0.000000000000000000e+00,-3.277084525934307879e-01,0.000000000000000000e+00,-3.277084525934307879e-01
2.666666666666666519e+00,1.639788229707901716e+09,0.000000000000000000e+00,-4.398824950459500061e-01,0.000000000000000000e+00,-4.398824950459500061e-01
2.683333333333333126e+00,1.639788229722555399e+09,0.000000000000000000e+00,-5.520565374984692797e-01,0.000000000000000000e+00,-5.520565374984692797e-01
