2022-02-03-18:03:37.814937,10.0,16.0,308.0
2022-02-03-18:03:37.814937,20.0,24.0,308.0
2022-02-03-18:03:37.815969,2.0,31.0,308.0
2022-02-03-18:03:37.816932,2.0,20.0,308.0
2022-02-03-18:03:37.817940,4.0,11.0,308.0
2022-02-03-18:03:37.818962,19.0,28.0,308.0
2022-02-03-18:03:37.820962,5.0,25.0,307.0
2022-02-03-18:03:37.821919,1.0,17.0,308.0
2022-02-03-18:03:37.821919,3.0,18.0,307.0
2022-02-03-18:03:37.822937,9.0,16.0,308.0
2022-02-03-18:03:37.823913,3.0,4.0,307.0
2022-02-03-18:03:37.824945,9.0,25.0,308.0
2022-02-03-18:03:37.825943,15.0,31.0,308.0
2022-02-03-18:03:37.826906,18.0,30.0,308.0
2022-02-03-18:03:37.827940,21.0,14.0,308.0
2022-02-03-18:03:37.828935,5.0,29.0,308.0
2022-02-03-18:03:37.829931,2.0,28.0,308.0
2022-02-03-18:03:37.830929,1.0,23.0,308.0
2022-02-03-18:03:37.831926,1.0,16.0,308.0
2022-02-03-18:03:37.832923,10.0,21.0,308.0
2022-02-03-18:03:37.833934,3.0,15.0,308.0
2022-02-03-18:03:37.834920,2.0,29.0,307.0
2022-02-03-18:03:37.835915,0.0,21.0,308.0
2022-02-03-18:03:37.836879,1.0,14.0,308.0
2022-02-03-18:03:37.837876,10.0,26.0,308.0
2022-02-03-18:03:37.838907,21.0,10.0,308.0
2022-02-03-18:03:37.839871,1.0,21.0,308.0
2022-02-03-18:03:37.840868,7.0,19.0,308.0
2022-02-03-18:03:37.841866,7.0,20.0,308.0
2022-02-03-18:03:37.842899,13.0,31.0,308.0
2022-02-03-18:03:37.843902,26.0,35.0,308.0
2022-02-03-18:03:37.844892,22.0,16.0,308.0
2022-02-03-18:03:37.845854,11.0,7.0,308.0
2022-02-03-18:03:37.846887,2.0,32.0,308.0
2022-02-03-18:03:37.847884,3.0,22.0,307.0
2022-02-03-18:03:37.848880,3.0,22.0,307.0
2022-02-03-18:03:37.849844,0.0,13.0,307.0
2022-02-03-18:03:37.850876,3.0,8.0,307.0
2022-02-03-18:03:37.851872,1.0,6.0,308.0
2022-02-03-18:03:37.852876,13.0,29.0,308.0
2022-02-03-18:03:37.853866,13.0,29.0,308.0
2022-02-03-18:03:37.855863,21.0,31.0,308.0
2022-02-03-18:03:37.855863,7.0,26.0,307.0
2022-02-03-18:03:37.856850,0.0,30.0,307.0
2022-02-03-18:03:37.857863,1.0,19.0,308.0
2022-02-03-18:03:37.858856,2.0,17.0,308.0
2022-02-03-18:03:37.859818,9.0,10.0,308.0
2022-02-03-18:03:37.860815,12.0,34.0,307.0
2022-02-03-18:03:37.861846,23.0,31.0,308.0
2022-02-03-18:03:37.862843,10.0,19.0,308.0
2022-02-03-18:03:37.863841,1.0,31.0,308.0
2022-02-03-18:03:37.864842,2.0,19.0,308.0
2022-02-03-18:03:37.865835,3.0,13.0,308.0
2022-02-03-18:03:37.866799,3.0,13.0,308.0
2022-02-03-18:03:37.867838,9.0,18.0,308.0
2022-02-03-18:03:37.868829,24.0,30.0,308.0
2022-02-03-18:03:37.869825,16.0,1.0,308.0
2022-02-03-18:03:37.870821,16.0,1.0,308.0
2022-02-03-18:03:37.871820,3.0,25.0,308.0
2022-02-03-18:03:37.872816,2.0,16.0,308.0
2022-02-03-18:03:37.873814,2.0,8.0,307.0
2022-02-03-18:03:37.874778,6.0,22.0,308.0
2022-02-03-18:03:37.875808,12.0,32.0,308.0
2022-02-03-18:03:37.876806,18.0,3.0,308.0
2022-02-03-18:03:37.877803,0.0,34.0,308.0
2022-02-03-18:03:37.878767,1.0,20.0,308.0
2022-02-03-18:03:37.879798,5.0,16.0,308.0
2022-02-03-18:03:37.880795,1.0,11.0,308.0
2022-02-03-18:03:37.881792,10.0,29.0,308.0
2022-02-03-18:03:37.882755,18.0,31.0,308.0
2022-02-03-18:03:37.883754,20.0,12.0,308.0
2022-02-03-18:03:37.884785,3.0,31.0,308.0
2022-02-03-18:03:37.885782,1.0,30.0,308.0
2022-02-03-18:03:37.886779,2.0,18.0,308.0
2022-02-03-18:03:37.887777,1.0,18.0,308.0
2022-02-03-18:03:37.889764,2.0,2.0,307.0
2022-02-03-18:03:37.890734,15.0,30.0,308.0
2022-02-03-18:03:37.890734,15.0,3.0,308.0
2022-02-03-18:03:37.891731,1.0,33.0,308.0
2022-02-03-18:03:37.892747,3.0,17.0,308.0
2022-02-03-18:03:37.893761,6.0,20.0,308.0
2022-02-03-18:03:37.894759,14.0,30.0,308.0
2022-02-03-18:03:37.895756,18.0,5.0,308.0
2022-02-03-18:03:37.896752,3.0,29.0,308.0
2022-02-03-18:03:37.897716,0.0,17.0,308.0
2022-02-03-18:03:37.898715,1.0,11.0,309.0
2022-02-03-18:03:37.899710,8.0,14.0,307.0
2022-02-03-18:03:37.900708,24.0,32.0,308.0
2022-02-03-18:03:37.901706,11.0,12.0,308.0
2022-02-03-18:03:37.902736,2.0,22.0,308.0
2022-02-03-18:03:37.903734,1.0,14.0,308.0
2022-02-03-18:03:37.904729,5.0,0.0,308.0
2022-02-03-18:03:37.905695,4.0,23.0,308.0
2022-02-03-18:03:37.906692,13.0,31.0,308.0
2022-02-03-18:03:37.907689,23.0,20.0,308.0
2022-02-03-18:03:37.908686,2.0,29.0,308.0
2022-02-03-18:03:37.909684,1.0,12.0,308.0
2022-02-03-18:03:37.910681,1.0,14.0,308.0
2022-02-03-18:03:37.911678,20.0,30.0,307.0
2022-02-03-18:03:37.912676,1.0,33.0,308.0
2022-02-03-18:03:37.913673,1.0,33.0,308.0
2022-02-03-18:03:37.914670,2.0,18.0,307.0
2022-02-03-18:03:37.915667,0.0,0.0,308.0
2022-02-03-18:03:37.916665,26.0,32.0,308.0
2022-02-03-18:03:37.917662,12.0,7.0,307.0
2022-02-03-18:03:37.918694,3.0,28.0,308.0
2022-02-03-18:03:37.919658,2.0,10.0,308.0
2022-02-03-18:03:37.920688,7.0,21.0,308.0
2022-02-03-18:03:37.921653,19.0,31.0,308.0
2022-02-03-18:03:37.922649,23.0,30.0,308.0
2022-02-03-18:03:37.923646,20.0,1.0,308.0
2022-02-03-18:03:37.924644,5.0,32.0,308.0
2022-02-03-18:03:37.926674,5.0,32.0,308.0
2022-02-03-18:03:37.926674,2.0,15.0,308.0
2022-02-03-18:03:37.927636,10.0,19.0,308.0
2022-02-03-18:03:37.928667,11.0,33.0,308.0
2022-02-03-18:03:37.929670,3.0,27.0,308.0
2022-02-03-18:03:37.930664,1.0,19.0,308.0
2022-02-03-18:03:37.931658,8.0,14.0,308.0
2022-02-03-18:03:37.932659,13.0,32.0,308.0
2022-02-03-18:03:37.933620,13.0,10.0,307.0
2022-02-03-18:03:37.934650,3.0,16.0,308.0
2022-02-03-18:03:37.935649,10.0,20.0,308.0
2022-02-03-18:03:37.936645,14.0,31.0,308.0
2022-02-03-18:03:37.937609,19.0,7.0,308.0
2022-02-03-18:03:37.938607,2.0,32.0,308.0
2022-02-03-18:03:37.939604,0.0,22.0,308.0
2022-02-03-18:03:37.940603,1.0,14.0,308.0
2022-02-03-18:03:37.941601,3.0,10.0,308.0
2022-02-03-18:03:37.942596,10.0,16.0,308.0
2022-02-03-18:03:37.943594,3.0,6.0,308.0
2022-02-03-18:03:37.944591,10.0,33.0,308.0
2022-02-03-18:03:37.945614,20.0,8.0,308.0
2022-02-03-18:03:37.946612,0.0,32.0,308.0
2022-02-03-18:03:37.947582,4.0,22.0,308.0
2022-02-03-18:03:37.948580,0.0,17.0,307.0
2022-02-03-18:03:37.949577,2.0,1.0,308.0
2022-02-03-18:03:37.950575,17.0,30.0,308.0
2022-02-03-18:03:37.951572,3.0,30.0,308.0
2022-02-03-18:03:37.952569,2.0,15.0,308.0
2022-02-03-18:03:37.953567,4.0,3.0,308.0
2022-02-03-18:03:37.954564,23.0,29.0,308.0
2022-02-03-18:03:37.955561,0.0,32.0,308.0
2022-02-03-18:03:37.956559,2.0,20.0,308.0
2022-02-03-18:03:37.957556,3.0,15.0,308.0
2022-02-03-18:03:37.958553,18.0,31.0,307.0
2022-02-03-18:03:37.960548,4.0,30.0,308.0
2022-02-03-18:03:37.960548,4.0,22.0,308.0
2022-02-03-18:03:37.961546,0.0,12.0,308.0
2022-02-03-18:03:37.962578,7.0,21.0,308.0
2022-02-03-18:03:37.963541,15.0,35.0,308.0
2022-02-03-18:03:37.964537,20.0,18.0,307.0
2022-02-03-18:03:37.965571,4.0,31.0,308.0
2022-02-03-18:03:37.966532,2.0,11.0,308.0
2022-02-03-18:03:37.967565,12.0,30.0,308.0
2022-02-03-18:03:37.968564,23.0,29.0,308.0
2022-02-03-18:03:37.969558,4.0,31.0,308.0
2022-02-03-18:03:37.970558,1.0,16.0,307.0
2022-02-03-18:03:37.971553,2.0,6.0,308.0
2022-02-03-18:03:37.972551,16.0,34.0,308.0
2022-02-03-18:03:37.973547,16.0,34.0,308.0
2022-02-03-18:03:37.974545,19.0,14.0,308.0
2022-02-03-18:03:37.975543,12.0,13.0,308.0
2022-02-03-18:03:37.976541,12.0,13.0,308.0
2022-02-03-18:03:37.977537,12.0,13.0,308.0
2022-02-03-18:03:37.978536,0.0,29.0,308.0
2022-02-03-18:03:37.979531,1.0,23.0,308.0
2022-02-03-18:03:37.980532,1.0,23.0,308.0
2022-02-03-18:03:37.981528,1.0,23.0,308.0
2022-02-03-18:03:37.982523,4.0,10.0,307.0
2022-02-03-18:03:37.983487,4.0,10.0,307.0
2022-02-03-18:03:37.984518,4.0,10.0,307.0
2022-02-03-18:03:37.985515,4.0,10.0,307.0
2022-02-03-18:03:37.986515,7.0,1.0,308.0
2022-02-03-18:03:37.987511,14.0,32.0,307.0
2022-02-03-18:03:37.988508,14.0,32.0,307.0
2022-02-03-18:03:37.989470,14.0,32.0,307.0
2022-02-03-18:03:37.990504,21.0,33.0,308.0
2022-02-03-18:03:37.991506,17.0,2.0,308.0
2022-02-03-18:03:37.992495,17.0,2.0,308.0
2022-02-03-18:03:37.994493,17.0,2.0,308.0
2022-02-03-18:03:37.994493,2.0,31.0,308.0
2022-02-03-18:03:37.995487,2.0,26.0,308.0
2022-02-03-18:03:37.996493,2.0,26.0,308.0
2022-02-03-18:03:37.997450,2.0,26.0,308.0
2022-02-03-18:03:37.998480,2.0,6.0,308.0
2022-02-03-18:03:37.999481,2.0,6.0,308.0
2022-02-03-18:03:38.000443,2.0,6.0,308.0
2022-02-03-18:03:38.001440,2.0,6.0,308.0
2022-02-03-18:03:38.002472,1.0,14.0,308.0
2022-02-03-18:03:38.003467,14.0,29.0,308.0
2022-02-03-18:03:38.004466,14.0,29.0,308.0
2022-02-03-18:03:38.005462,14.0,29.0,308.0
2022-02-03-18:03:38.006460,14.0,30.0,308.0
2022-02-03-18:03:38.007457,22.0,10.0,307.0
2022-02-03-18:03:38.008420,22.0,10.0,307.0
2022-02-03-18:03:38.009418,22.0,10.0,307.0
2022-02-03-18:03:38.010451,22.0,10.0,307.0
2022-02-03-18:03:38.011447,22.0,10.0,307.0
2022-02-03-18:03:38.012444,0.0,33.0,308.0
2022-02-03-18:03:38.013441,3.0,22.0,307.0
2022-02-03-18:03:38.014437,3.0,22.0,307.0
2022-02-03-18:03:38.015436,2.0,15.0,308.0
2022-02-03-18:03:38.016431,4.0,12.0,308.0
2022-02-03-18:03:38.017430,4.0,12.0,308.0
2022-02-03-18:03:38.018428,4.0,12.0,308.0
2022-02-03-18:03:38.019426,3.0,8.0,308.0
2022-02-03-18:03:38.020423,6.0,22.0,308.0
2022-02-03-18:03:38.021420,6.0,22.0,308.0
2022-02-03-18:03:38.022415,6.0,22.0,308.0
2022-02-03-18:03:38.023415,15.0,31.0,308.0
2022-02-03-18:03:38.024412,18.0,13.0,308.0
2022-02-03-18:03:38.025409,18.0,13.0,308.0
2022-02-03-18:03:38.027408,18.0,13.0,308.0
2022-02-03-18:03:38.027408,1.0,30.0,308.0
2022-02-03-18:03:38.028402,4.0,29.0,308.0
2022-02-03-18:03:38.029398,4.0,29.0,308.0
2022-02-03-18:03:38.030362,4.0,29.0,308.0
2022-02-03-18:03:38.031395,2.0,19.0,308.0
2022-02-03-18:03:38.032389,2.0,9.0,308.0
2022-02-03-18:03:38.033354,2.0,9.0,308.0
2022-02-03-18:03:38.034351,2.0,9.0,308.0
2022-02-03-18:03:38.035381,2.0,10.0,307.0
2022-02-03-18:03:38.036380,8.0,21.0,307.0
2022-02-03-18:03:38.037343,4.0,0.0,308.0
2022-02-03-18:03:38.038373,7.0,20.0,307.0
2022-02-03-18:03:38.039372,10.0,29.0,308.0
2022-02-03-18:03:38.040368,16.0,31.0,308.0
2022-02-03-18:03:38.041371,21.0,32.0,308.0
2022-02-03-18:03:38.042366,22.0,22.0,308.0
2022-02-03-18:03:38.043359,22.0,22.0,308.0
2022-02-03-18:03:38.044358,5.0,30.0,307.0
2022-02-03-18:03:38.045355,5.0,30.0,307.0
2022-02-03-18:03:38.046353,5.0,30.0,307.0
2022-02-03-18:03:38.047351,2.0,24.0,308.0
2022-02-03-18:03:38.048346,1.0,21.0,308.0
2022-02-03-18:03:38.049343,1.0,13.0,308.0
2022-02-03-18:03:38.050309,2.0,14.0,308.0
2022-02-03-18:03:38.051338,2.0,14.0,308.0
2022-02-03-18:03:38.052338,2.0,8.0,307.0
2022-02-03-18:03:38.053340,11.0,22.0,308.0
2022-02-03-18:03:38.054330,4.0,8.0,308.0
2022-02-03-18:03:38.055329,3.0,9.0,307.0
2022-02-03-18:03:38.056325,8.0,26.0,308.0
2022-02-03-18:03:38.057322,21.0,30.0,307.0
2022-02-03-18:03:38.058317,23.0,26.0,308.0
2022-02-03-18:03:38.059319,23.0,26.0,308.0
2022-02-03-18:03:38.060288,21.0,9.0,307.0
2022-02-03-18:03:38.061279,2.0,29.0,308.0
2022-02-03-18:03:38.062309,2.0,32.0,308.0
2022-02-03-18:03:38.063308,2.0,32.0,308.0
2022-02-03-18:03:38.065301,4.0,28.0,308.0
2022-02-03-18:03:38.065301,2.0,22.0,308.0
2022-02-03-18:03:38.066302,1.0,16.0,307.0
2022-02-03-18:03:38.067262,1.0,16.0,307.0
2022-02-03-18:03:38.068260,2.0,9.0,307.0
2022-02-03-18:03:38.069257,3.0,14.0,308.0
2022-02-03-18:03:38.070254,10.0,16.0,307.0
2022-02-03-18:03:38.071252,5.0,3.0,308.0
2022-02-03-18:03:38.072249,8.0,24.0,308.0
2022-02-03-18:03:38.073246,17.0,31.0,307.0
2022-02-03-18:03:38.074244,26.0,35.0,307.0
2022-02-03-18:03:38.075241,26.0,35.0,307.0
2022-02-03-18:03:38.076239,23.0,17.0,307.0
2022-02-03-18:03:38.077236,3.0,29.0,308.0
2022-02-03-18:03:38.078233,2.0,32.0,308.0
2022-02-03-18:03:38.079231,2.0,32.0,308.0
2022-02-03-18:03:38.080228,3.0,31.0,308.0
2022-02-03-18:03:38.081225,2.0,21.0,308.0
2022-02-03-18:03:38.082222,2.0,19.0,308.0
2022-02-03-18:03:38.083220,2.0,19.0,308.0
2022-02-03-18:03:38.084217,2.0,19.0,308.0
2022-02-03-18:03:38.085215,2.0,19.0,308.0
2022-02-03-18:03:38.086212,11.0,20.0,308.0
2022-02-03-18:03:38.087209,5.0,4.0,308.0
2022-02-03-18:03:38.088206,5.0,4.0,308.0
2022-02-03-18:03:38.089204,5.0,17.0,307.0
2022-02-03-18:03:38.090201,18.0,31.0,307.0
2022-02-03-18:03:38.091199,23.0,33.0,307.0
2022-02-03-18:03:38.092196,23.0,33.0,307.0
2022-02-03-18:03:38.093226,22.0,7.0,308.0
2022-02-03-18:03:38.094225,0.0,29.0,308.0
2022-02-03-18:03:38.095223,0.0,29.0,308.0
2022-02-03-18:03:38.096220,0.0,29.0,308.0
2022-02-03-18:03:38.098216,0.0,29.0,308.0
2022-02-03-18:03:38.098216,1.0,15.0,307.0
2022-02-03-18:03:38.099212,1.0,15.0,307.0
2022-02-03-18:03:38.100175,1.0,15.0,307.0
2022-02-03-18:03:38.101206,1.0,15.0,308.0
2022-02-03-18:03:38.102203,4.0,7.0,308.0
2022-02-03-18:03:38.103201,4.0,7.0,308.0
2022-02-03-18:03:38.104164,4.0,7.0,308.0
2022-02-03-18:03:38.105195,15.0,30.0,308.0
2022-02-03-18:03:38.106195,19.0,28.0,308.0
2022-02-03-18:03:38.107189,19.0,28.0,308.0
2022-02-03-18:03:38.108154,19.0,28.0,308.0
2022-02-03-18:03:38.109185,19.0,28.0,308.0
2022-02-03-18:03:38.110181,5.0,29.0,308.0
2022-02-03-18:03:38.111180,1.0,32.0,308.0
2022-02-03-18:03:38.112143,1.0,32.0,308.0
2022-02-03-18:03:38.113173,3.0,19.0,308.0
2022-02-03-18:03:38.114173,3.0,19.0,308.0
2022-02-03-18:03:38.115167,0.0,14.0,308.0
2022-02-03-18:03:38.116167,0.0,14.0,308.0
2022-02-03-18:03:38.117130,1.0,12.0,308.0
2022-02-03-18:03:38.118161,3.0,2.0,308.0
2022-02-03-18:03:38.119124,3.0,2.0,308.0
2022-02-03-18:03:38.120121,3.0,2.0,308.0
2022-02-03-18:03:38.121119,3.0,2.0,308.0
2022-02-03-18:03:38.122116,14.0,31.0,308.0
2022-02-03-18:03:38.123114,25.0,33.0,307.0
2022-02-03-18:03:38.124111,25.0,33.0,307.0
2022-02-03-18:03:38.125108,25.0,33.0,307.0
2022-02-03-18:03:38.126105,23.0,12.0,308.0
2022-02-03-18:03:38.127102,0.0,29.0,308.0
2022-02-03-18:03:38.128100,0.0,29.0,308.0
2022-02-03-18:03:38.129097,0.0,29.0,308.0
2022-02-03-18:03:38.131092,1.0,22.0,308.0
2022-02-03-18:03:38.131092,1.0,13.0,308.0
2022-02-03-18:03:38.132089,1.0,13.0,308.0
2022-02-03-18:03:38.133086,1.0,13.0,308.0
2022-02-03-18:03:38.134084,5.0,19.0,307.0
2022-02-03-18:03:38.135081,5.0,0.0,307.0
2022-02-03-18:03:38.136078,5.0,0.0,307.0
2022-02-03-18:03:38.137076,5.0,0.0,307.0
2022-02-03-18:03:38.138073,1.0,18.0,308.0
2022-02-03-18:03:38.139070,19.0,35.0,307.0
2022-02-03-18:03:38.140068,18.0,31.0,307.0
2022-02-03-18:03:38.141100,18.0,31.0,307.0
2022-02-03-18:03:38.142098,19.0,7.0,308.0
2022-02-03-18:03:38.143095,4.0,29.0,308.0
2022-02-03-18:03:38.144091,4.0,29.0,308.0
2022-02-03-18:03:38.145055,4.0,29.0,308.0
2022-02-03-18:03:38.146088,4.0,19.0,308.0
2022-02-03-18:03:38.147083,4.0,19.0,308.0
2022-02-03-18:03:38.148082,4.0,19.0,308.0
2022-02-03-18:03:38.149045,4.0,19.0,308.0
2022-02-03-18:03:38.150055,2.0,12.0,308.0
2022-02-03-18:03:38.151040,2.0,12.0,308.0
2022-02-03-18:03:38.152071,2.0,12.0,308.0
2022-02-03-18:03:38.153067,2.0,12.0,308.0
2022-02-03-18:03:38.154066,2.0,12.0,308.0
2022-02-03-18:03:38.155029,10.0,29.0,308.0
2022-02-03-18:03:38.156025,17.0,24.0,307.0
2022-02-03-18:03:38.157022,17.0,24.0,307.0
2022-02-03-18:03:38.158020,17.0,24.0,307.0
2022-02-03-18:03:38.159017,26.0,30.0,307.0
2022-02-03-18:03:38.160015,10.0,16.0,308.0
2022-02-03-18:03:38.161012,1.0,33.0,308.0
2022-02-03-18:03:38.162009,1.0,33.0,308.0
2022-02-03-18:03:38.163007,1.0,30.0,308.0
2022-02-03-18:03:38.164004,0.0,17.0,308.0
2022-02-03-18:03:38.165999,0.0,17.0,308.0
2022-02-03-18:03:38.165999,1.0,11.0,308.0
2022-02-03-18:03:38.166996,7.0,17.0,308.0
2022-02-03-18:03:38.167993,7.0,17.0,308.0
2022-02-03-18:03:38.168991,7.0,17.0,308.0
2022-02-03-18:03:38.169988,7.0,17.0,308.0
2022-02-03-18:03:38.170985,3.0,5.0,308.0
2022-02-03-18:03:38.171983,7.0,22.0,308.0
2022-02-03-18:03:38.173007,13.0,30.0,308.0
2022-02-03-18:03:38.173977,18.0,28.0,308.0
2022-02-03-18:03:38.174974,19.0,17.0,308.0
2022-02-03-18:03:38.175972,12.0,2.0,308.0
2022-02-03-18:03:38.177004,1.0,29.0,308.0
2022-02-03-18:03:38.178003,1.0,29.0,308.0
2022-02-03-18:03:38.178998,1.0,31.0,308.0
2022-02-03-18:03:38.179999,2.0,25.0,308.0
2022-02-03-18:03:38.180997,3.0,22.0,308.0
2022-02-03-18:03:38.181956,3.0,22.0,308.0
2022-02-03-18:03:38.182988,2.0,16.0,308.0
2022-02-03-18:03:38.183951,1.0,14.0,309.0
2022-02-03-18:03:38.184982,6.0,19.0,308.0
2022-02-03-18:03:38.185945,6.0,19.0,308.0
2022-02-03-18:03:38.186943,6.0,3.0,308.0
2022-02-03-18:03:38.187940,15.0,32.0,308.0
2022-02-03-18:03:38.188938,15.0,32.0,308.0
2022-02-03-18:03:38.189935,15.0,32.0,308.0
2022-02-03-18:03:38.190932,23.0,28.0,307.0
2022-02-03-18:03:38.191929,19.0,5.0,308.0
2022-02-03-18:03:38.192927,4.0,25.0,308.0
2022-02-03-18:03:38.193924,4.0,25.0,308.0
2022-02-03-18:03:38.194921,4.0,25.0,308.0
2022-02-03-18:03:38.195919,2.0,31.0,308.0
2022-02-03-18:03:38.196916,3.0,21.0,308.0
2022-02-03-18:03:38.197914,3.0,21.0,308.0
2022-02-03-18:03:38.198911,3.0,21.0,308.0
2022-02-03-18:03:38.199908,1.0,10.0,307.0
2022-02-03-18:03:38.201902,1.0,10.0,307.0
2022-02-03-18:03:38.201902,2.0,5.0,308.0
2022-02-03-18:03:38.202933,15.0,35.0,308.0
2022-02-03-18:03:38.203932,15.0,35.0,308.0
2022-02-03-18:03:38.204929,15.0,35.0,308.0
2022-02-03-18:03:38.205929,15.0,35.0,308.0
2022-02-03-18:03:38.206924,15.0,35.0,308.0
2022-02-03-18:03:38.207920,24.0,12.0,307.0
2022-02-03-18:03:38.208918,9.0,14.0,307.0
2022-02-03-18:03:38.209918,9.0,14.0,307.0
2022-02-03-18:03:38.210913,9.0,14.0,307.0
2022-02-03-18:03:38.211912,1.0,31.0,308.0
2022-02-03-18:03:38.212908,4.0,23.0,308.0
2022-02-03-18:03:38.213907,4.0,23.0,308.0
2022-02-03-18:03:38.214903,4.0,23.0,308.0
2022-02-03-18:03:38.215898,2.0,16.0,308.0
2022-02-03-18:03:38.216863,4.0,14.0,308.0
2022-02-03-18:03:38.217861,4.0,14.0,308.0
2022-02-03-18:03:38.218858,4.0,14.0,308.0
2022-02-03-18:03:38.219889,10.0,20.0,308.0
2022-02-03-18:03:38.220886,6.0,23.0,308.0
2022-02-03-18:03:38.221883,10.0,30.0,307.0
2022-02-03-18:03:38.222847,10.0,30.0,307.0
2022-02-03-18:03:38.223879,23.0,20.0,308.0
2022-02-03-18:03:38.224875,14.0,3.0,308.0
2022-02-03-18:03:38.225875,14.0,3.0,308.0
2022-02-03-18:03:38.226837,14.0,3.0,308.0
2022-02-03-18:03:38.227868,0.0,28.0,307.0
2022-02-03-18:03:38.228865,0.0,21.0,307.0
2022-02-03-18:03:38.229864,0.0,21.0,307.0
2022-02-03-18:03:38.230825,0.0,21.0,307.0
2022-02-03-18:03:38.231857,0.0,20.0,308.0
2022-02-03-18:03:38.232855,2.0,15.0,308.0
2022-02-03-18:03:38.233819,1.0,11.0,307.0
2022-02-03-18:03:38.235847,1.0,11.0,307.0
2022-02-03-18:03:38.235847,8.0,6.0,308.0
2022-02-03-18:03:38.236851,13.0,29.0,308.0
2022-02-03-18:03:38.237841,13.0,29.0,308.0
2022-02-03-18:03:38.238839,13.0,29.0,308.0
2022-02-03-18:03:38.239836,13.0,29.0,308.0
2022-02-03-18:03:38.240833,14.0,30.0,308.0
2022-02-03-18:03:38.241807,24.0,27.0,308.0
2022-02-03-18:03:38.242794,24.0,7.0,308.0
2022-02-03-18:03:38.243825,24.0,7.0,308.0
2022-02-03-18:03:38.244823,6.0,23.0,308.0
2022-02-03-18:03:38.245786,1.0,30.0,308.0
2022-02-03-18:03:38.246783,2.0,20.0,307.0
2022-02-03-18:03:38.247780,2.0,20.0,307.0
2022-02-03-18:03:38.248777,4.0,15.0,308.0
2022-02-03-18:03:38.249774,4.0,8.0,307.0
2022-02-03-18:03:38.250773,4.0,8.0,307.0
2022-02-03-18:03:38.251770,4.0,8.0,307.0
2022-02-03-18:03:38.252806,4.0,16.0,307.0
2022-02-03-18:03:38.253798,10.0,27.0,308.0
2022-02-03-18:03:38.254802,10.0,27.0,308.0
2022-02-03-18:03:38.255780,10.0,27.0,308.0
2022-02-03-18:03:38.256790,18.0,31.0,308.0
2022-02-03-18:03:38.257792,21.0,13.0,307.0
2022-02-03-18:03:38.258785,21.0,13.0,307.0
2022-02-03-18:03:38.259749,21.0,13.0,307.0
2022-02-03-18:03:38.260779,12.0,14.0,308.0
2022-02-03-18:03:38.261777,3.0,30.0,308.0
2022-02-03-18:03:38.262775,0.0,26.0,308.0
2022-02-03-18:03:38.263738,0.0,26.0,308.0
2022-02-03-18:03:38.264769,6.0,24.0,308.0
2022-02-03-18:03:38.265732,1.0,18.0,307.0
2022-02-03-18:03:38.266729,2.0,12.0,308.0
2022-02-03-18:03:38.267727,2.0,12.0,308.0
2022-02-03-18:03:38.269722,2.0,12.0,308.0
2022-02-03-18:03:38.269722,6.0,19.0,308.0
2022-02-03-18:03:38.270759,6.0,19.0,308.0
2022-02-03-18:03:38.271750,6.0,19.0,308.0
2022-02-03-18:03:38.272747,6.0,19.0,308.0
2022-02-03-18:03:38.273746,19.0,18.0,308.0
2022-02-03-18:03:38.274741,19.0,18.0,308.0
2022-02-03-18:03:38.275742,19.0,18.0,308.0
2022-02-03-18:03:38.276735,19.0,18.0,308.0
2022-02-03-18:03:38.277734,3.0,26.0,308.0
2022-02-03-18:03:38.278738,2.0,30.0,308.0
2022-02-03-18:03:38.279727,2.0,30.0,308.0
2022-02-03-18:03:38.280693,2.0,30.0,308.0
2022-02-03-18:03:38.281691,3.0,19.0,308.0
2022-02-03-18:03:38.282688,3.0,13.0,308.0
2022-02-03-18:03:38.283685,3.0,13.0,308.0
2022-02-03-18:03:38.284683,3.0,13.0,308.0
2022-02-03-18:03:38.285680,10.0,22.0,308.0
2022-02-03-18:03:38.286677,0.0,11.0,308.0
2022-02-03-18:03:38.287675,0.0,11.0,308.0
2022-02-03-18:03:38.288672,0.0,11.0,308.0
2022-02-03-18:03:38.289669,13.0,34.0,308.0
2022-02-03-18:03:38.290667,22.0,26.0,308.0
2022-02-03-18:03:38.291664,22.0,26.0,308.0
2022-02-03-18:03:38.292661,22.0,26.0,308.0
2022-02-03-18:03:38.293659,9.0,22.0,308.0
2022-02-03-18:03:38.294656,1.0,31.0,308.0
2022-02-03-18:03:38.295654,1.0,31.0,308.0
2022-02-03-18:03:38.296651,1.0,31.0,308.0
2022-02-03-18:03:38.297648,1.0,16.0,308.0
2022-02-03-18:03:38.298645,1.0,16.0,308.0
2022-02-03-18:03:38.299643,1.0,16.0,308.0
2022-02-03-18:03:38.301637,1.0,16.0,308.0
2022-02-03-18:03:38.301637,7.0,15.0,308.0
2022-02-03-18:03:38.302635,3.0,3.0,308.0
2022-02-03-18:03:38.303632,3.0,3.0,308.0
2022-02-03-18:03:38.304628,3.0,3.0,308.0
2022-02-03-18:03:38.305627,20.0,30.0,308.0
2022-02-03-18:03:38.306624,25.0,31.0,307.0
2022-02-03-18:03:38.307621,25.0,31.0,307.0
2022-02-03-18:03:38.308619,25.0,31.0,307.0
2022-02-03-18:03:38.309616,2.0,28.0,307.0
2022-02-03-18:03:38.310647,0.0,29.0,308.0
2022-02-03-18:03:38.311642,0.0,29.0,308.0
2022-02-03-18:03:38.312639,0.0,29.0,308.0
2022-02-03-18:03:38.313639,0.0,29.0,308.0
2022-02-03-18:03:38.314634,2.0,19.0,307.0
2022-02-03-18:03:38.315633,5.0,17.0,308.0
2022-02-03-18:03:38.316628,5.0,17.0,308.0
2022-02-03-18:03:38.317628,0.0,11.0,307.0
2022-02-03-18:03:38.318626,2.0,3.0,308.0
2022-02-03-18:03:38.319621,2.0,3.0,308.0
2022-02-03-18:03:38.320619,2.0,3.0,308.0
2022-02-03-18:03:38.321618,2.0,3.0,308.0
2022-02-03-18:03:38.322617,16.0,32.0,308.0
2022-02-03-18:03:38.323617,24.0,32.0,308.0
2022-02-03-18:03:38.324609,24.0,32.0,308.0
2022-02-03-18:03:38.325572,24.0,32.0,308.0
2022-02-03-18:03:38.326570,23.0,23.0,307.0
2022-02-03-18:03:38.327567,6.0,24.0,307.0
2022-02-03-18:03:38.328564,1.0,32.0,308.0
2022-02-03-18:03:38.329561,1.0,32.0,308.0
2022-02-03-18:03:38.330559,1.0,26.0,308.0
2022-02-03-18:03:38.331556,0.0,15.0,308.0
2022-02-03-18:03:38.332553,1.0,15.0,308.0
2022-02-03-18:03:38.333551,1.0,15.0,308.0
2022-02-03-18:03:38.334548,4.0,7.0,307.0
2022-02-03-18:03:38.336543,1.0,10.0,307.0
2022-02-03-18:03:38.336543,1.0,10.0,307.0
2022-02-03-18:03:38.337540,1.0,10.0,307.0
2022-02-03-18:03:38.338537,23.0,29.0,308.0
2022-02-03-18:03:38.339535,23.0,29.0,308.0
2022-02-03-18:03:38.340532,23.0,29.0,308.0
2022-02-03-18:03:38.341529,23.0,29.0,308.0
2022-02-03-18:03:38.342526,22.0,8.0,307.0
2022-02-03-18:03:38.343524,2.0,30.0,308.0
2022-02-03-18:03:38.344521,1.0,32.0,307.0
2022-02-03-18:03:38.345519,1.0,32.0,307.0
2022-02-03-18:03:38.346516,1.0,32.0,307.0
2022-02-03-18:03:38.347513,2.0,12.0,308.0
2022-02-03-18:03:38.348511,2.0,12.0,308.0
2022-02-03-18:03:38.349508,2.0,12.0,308.0
2022-02-03-18:03:38.350505,4.0,8.0,307.0
2022-02-03-18:03:38.351503,1.0,2.0,308.0
2022-02-03-18:03:38.352500,1.0,2.0,308.0
2022-02-03-18:03:38.353497,1.0,2.0,308.0
2022-02-03-18:03:38.354495,1.0,2.0,308.0
2022-02-03-18:03:38.355492,7.0,27.0,308.0
2022-02-03-18:03:38.356522,12.0,29.0,308.0
2022-02-03-18:03:38.357523,29.0,37.0,308.0
2022-02-03-18:03:38.358485,29.0,37.0,308.0
2022-02-03-18:03:38.359514,29.0,37.0,308.0
2022-02-03-18:03:38.360511,21.0,16.0,308.0
2022-02-03-18:03:38.361511,6.0,30.0,308.0
2022-02-03-18:03:38.362506,6.0,30.0,308.0
2022-02-03-18:03:38.363506,1.0,29.0,308.0
2022-02-03-18:03:38.364500,1.0,17.0,308.0
2022-02-03-18:03:38.365504,3.0,14.0,308.0
2022-02-03-18:03:38.366497,3.0,14.0,308.0
2022-02-03-18:03:38.367484,4.0,3.0,308.0
2022-02-03-18:03:38.369481,4.0,3.0,308.0
2022-02-03-18:03:38.369481,4.0,3.0,308.0
2022-02-03-18:03:38.370477,4.0,3.0,308.0
2022-02-03-18:03:38.371476,12.0,29.0,308.0
2022-02-03-18:03:38.372471,25.0,30.0,308.0
2022-02-03-18:03:38.373468,25.0,30.0,308.0
2022-02-03-18:03:38.374442,25.0,30.0,308.0
2022-02-03-18:03:38.375469,25.0,30.0,308.0
2022-02-03-18:03:38.376460,6.0,22.0,308.0
2022-02-03-18:03:38.377460,2.0,32.0,308.0
2022-02-03-18:03:38.378430,2.0,32.0,308.0
2022-02-03-18:03:38.379456,2.0,25.0,308.0
2022-02-03-18:03:38.380450,0.0,16.0,307.0
2022-02-03-18:03:38.381447,0.0,16.0,307.0
2022-02-03-18:03:38.382452,0.0,16.0,307.0
2022-02-03-18:03:38.383417,1.0,11.0,308.0
2022-02-03-18:03:38.384437,4.0,10.0,308.0
2022-02-03-18:03:38.385443,4.0,10.0,308.0
2022-02-03-18:03:38.386433,4.0,10.0,308.0
2022-02-03-18:03:38.387433,4.0,10.0,308.0
2022-02-03-18:03:38.388428,12.0,30.0,308.0
2022-02-03-18:03:38.389406,19.0,31.0,308.0
2022-02-03-18:03:38.390443,19.0,31.0,308.0
2022-02-03-18:03:38.391653,19.0,31.0,308.0
2022-02-03-18:03:38.391653,22.0,29.0,308.0
2022-02-03-18:03:38.392711,8.0,17.0,308.0
2022-02-03-18:03:38.393755,4.0,29.0,307.0
2022-02-03-18:03:38.393755,4.0,29.0,307.0
2022-02-03-18:03:38.394790,4.0,29.0,307.0
2022-02-03-18:03:38.396009,4.0,29.0,307.0
2022-02-03-18:03:38.396009,1.0,30.0,308.0
2022-02-03-18:03:38.397062,2.0,20.0,308.0
2022-02-03-18:03:38.398059,2.0,19.0,308.0
2022-02-03-18:03:38.399003,2.0,19.0,308.0
2022-02-03-18:03:38.400055,2.0,19.0,308.0
2022-02-03-18:03:38.401050,6.0,16.0,308.0
2022-02-03-18:03:38.402048,6.0,16.0,308.0
2022-02-03-18:03:38.403990,6.0,16.0,308.0
2022-02-03-18:03:38.404989,18.0,27.0,308.0
2022-02-03-18:03:38.404989,18.0,27.0,308.0
2022-02-03-18:03:38.406018,18.0,27.0,308.0
2022-02-03-18:03:38.407016,18.0,27.0,308.0
2022-02-03-18:03:38.408014,18.0,27.0,308.0
2022-02-03-18:03:38.409011,19.0,13.0,308.0
2022-02-03-18:03:38.410116,6.0,26.0,308.0
2022-02-03-18:03:38.410116,6.0,26.0,308.0
2022-02-03-18:03:38.411149,6.0,26.0,308.0
2022-02-03-18:03:38.412147,3.0,27.0,308.0
2022-02-03-18:03:38.413359,3.0,19.0,308.0
2022-02-03-18:03:38.413359,3.0,19.0,308.0
2022-02-03-18:03:38.414393,3.0,19.0,308.0
2022-02-03-18:03:38.415356,3.0,19.0,308.0
2022-02-03-18:03:38.416387,3.0,19.0,308.0
2022-02-03-18:03:38.417351,0.0,10.0,308.0
2022-02-03-18:03:38.418381,9.0,24.0,308.0
2022-02-03-18:03:38.419378,9.0,24.0,308.0
2022-02-03-18:03:38.420378,14.0,32.0,308.0
2022-02-03-18:03:38.421441,14.0,32.0,308.0
2022-02-03-18:03:38.421441,14.0,32.0,308.0
2022-02-03-18:03:38.422494,14.0,32.0,308.0
2022-02-03-18:03:38.423663,14.0,32.0,308.0
2022-02-03-18:03:38.423663,24.0,23.0,308.0
2022-02-03-18:03:38.424717,6.0,27.0,308.0
2022-02-03-18:03:38.425770,6.0,27.0,308.0
2022-02-03-18:03:38.425770,6.0,27.0,308.0
2022-02-03-18:03:38.426813,6.0,27.0,308.0
2022-02-03-18:03:38.427812,6.0,27.0,308.0
2022-02-03-18:03:38.428808,3.0,31.0,309.0
2022-02-03-18:03:38.429806,5.0,26.0,309.0
2022-02-03-18:03:38.430803,1.0,20.0,309.0
2022-02-03-18:03:38.431781,1.0,20.0,309.0
2022-02-03-18:03:38.432798,4.0,17.0,308.0
2022-02-03-18:03:38.434773,4.0,17.0,308.0
2022-02-03-18:03:38.434773,9.0,21.0,308.0
2022-02-03-18:03:38.435946,9.0,21.0,308.0
2022-02-03-18:03:38.435946,4.0,5.0,309.0
2022-02-03-18:03:38.436998,10.0,29.0,309.0
2022-02-03-18:03:38.437996,12.0,31.0,308.0
2022-02-03-18:03:38.439037,12.0,31.0,308.0
2022-02-03-18:03:38.439037,12.0,31.0,308.0
2022-02-03-18:03:38.440091,12.0,31.0,308.0
2022-02-03-18:03:38.441087,15.0,30.0,308.0
2022-02-03-18:03:38.442088,21.0,11.0,309.0
2022-02-03-18:03:38.443083,11.0,19.0,308.0
2022-02-03-18:03:38.444051,11.0,19.0,308.0
2022-02-03-18:03:38.445078,1.0,31.0,309.0
2022-02-03-18:03:38.446075,2.0,29.0,308.0
2022-02-03-18:03:38.447073,2.0,21.0,309.0
2022-02-03-18:03:38.448050,2.0,21.0,309.0
2022-02-03-18:03:38.449014,3.0,11.0,308.0
2022-02-03-18:03:38.450038,3.0,11.0,308.0
2022-02-03-18:03:38.451034,3.0,11.0,308.0
2022-02-03-18:03:38.452051,3.0,11.0,308.0
2022-02-03-18:03:38.453048,8.0,16.0,309.0
2022-02-03-18:03:38.454046,8.0,18.0,309.0
2022-02-03-18:03:38.455043,14.0,27.0,308.0
2022-02-03-18:03:38.456040,14.0,27.0,308.0
2022-02-03-18:03:38.457238,14.0,27.0,308.0
2022-02-03-18:03:38.457238,15.0,32.0,309.0
2022-02-03-18:03:38.458292,21.0,17.0,308.0
2022-02-03-18:03:38.459291,14.0,4.0,308.0
2022-02-03-18:03:38.460290,14.0,4.0,308.0
2022-02-03-18:03:38.461288,14.0,4.0,308.0
2022-02-03-18:03:38.462282,1.0,33.0,308.0
2022-02-03-18:03:38.463278,3.0,23.0,309.0
2022-02-03-18:03:38.464276,3.0,23.0,309.0
2022-02-03-18:03:38.465253,3.0,23.0,309.0
2022-02-03-18:03:38.466218,3.0,10.0,308.0
2022-02-03-18:03:38.468211,3.0,10.0,308.0
2022-02-03-18:03:38.468211,3.0,10.0,308.0
2022-02-03-18:03:38.469244,13.0,27.0,308.0
2022-02-03-18:03:38.470314,13.0,27.0,308.0
2022-02-03-18:03:38.470314,13.0,27.0,308.0
2022-02-03-18:03:38.471362,13.0,27.0,308.0
2022-02-03-18:03:38.472357,13.0,27.0,308.0
2022-02-03-18:03:38.473363,13.0,27.0,308.0
2022-02-03-18:03:38.474571,13.0,27.0,308.0
2022-02-03-18:03:38.474571,14.0,30.0,308.0
2022-02-03-18:03:38.475604,14.0,30.0,308.0
2022-02-03-18:03:38.476600,22.0,9.0,308.0
2022-02-03-18:03:38.477600,22.0,9.0,308.0
2022-02-03-18:03:38.478733,3.0,24.0,308.0
2022-02-03-18:03:38.478733,4.0,28.0,309.0
2022-02-03-18:03:38.479789,4.0,28.0,309.0
2022-02-03-18:03:38.480787,4.0,28.0,309.0
2022-02-03-18:03:38.481788,2.0,19.0,308.0
2022-02-03-18:03:38.482778,1.0,13.0,308.0
2022-02-03-18:03:38.483722,1.0,9.0,308.0
2022-02-03-18:03:38.484753,1.0,9.0,308.0
2022-02-03-18:03:38.485751,1.0,9.0,308.0
2022-02-03-18:03:38.486748,4.0,12.0,308.0
2022-02-03-18:03:38.487745,11.0,25.0,309.0
2022-02-03-18:03:38.488783,11.0,25.0,309.0
2022-02-03-18:03:38.488783,11.0,25.0,309.0
2022-02-03-18:03:38.490037,11.0,25.0,309.0
2022-02-03-18:03:38.490037,16.0,27.0,308.0
2022-02-03-18:03:38.491070,21.0,14.0,309.0
2022-02-03-18:03:38.492073,21.0,14.0,309.0
2022-02-03-18:03:38.493069,21.0,14.0,309.0
2022-02-03-18:03:38.494064,10.0,15.0,308.0
2022-02-03-18:03:38.495063,1.0,29.0,309.0
2022-02-03-18:03:38.496057,3.0,23.0,308.0
2022-02-03-18:03:38.497056,3.0,23.0,308.0
2022-02-03-18:03:38.499017,3.0,23.0,308.0
2022-02-03-18:03:38.500012,2.0,12.0,308.0
2022-02-03-18:03:38.500012,2.0,12.0,308.0
2022-02-03-18:03:38.501046,2.0,12.0,308.0
2022-02-03-18:03:38.502248,2.0,12.0,308.0
2022-02-03-18:03:38.502248,1.0,10.0,308.0
2022-02-03-18:03:38.503282,1.0,10.0,308.0
2022-02-03-18:03:38.504385,6.0,20.0,308.0
2022-02-03-18:03:38.504385,6.0,20.0,308.0
2022-02-03-18:03:38.505432,6.0,20.0,308.0
2022-02-03-18:03:38.506429,13.0,30.0,308.0
2022-02-03-18:03:38.507427,23.0,34.0,308.0
2022-02-03-18:03:38.508407,20.0,20.0,309.0
2022-02-03-18:03:38.509375,20.0,20.0,309.0
2022-02-03-18:03:38.510419,20.0,20.0,309.0
2022-02-03-18:03:38.511416,12.0,1.0,308.0
2022-02-03-18:03:38.512413,2.0,28.0,309.0
2022-02-03-18:03:38.513410,2.0,28.0,309.0
2022-02-03-18:03:38.514408,2.0,28.0,309.0
2022-02-03-18:03:38.515358,0.0,21.0,309.0
2022-02-03-18:03:38.516390,1.0,12.0,308.0
2022-02-03-18:03:38.516390,1.0,12.0,308.0
2022-02-03-18:03:38.517390,1.0,12.0,308.0
2022-02-03-18:03:38.518419,1.0,12.0,308.0
2022-02-03-18:03:38.519420,2.0,11.0,308.0
2022-02-03-18:03:38.520524,1.0,12.0,308.0
2022-02-03-18:03:38.520524,1.0,12.0,308.0
2022-02-03-18:03:38.521579,1.0,12.0,308.0
2022-02-03-18:03:38.522577,1.0,12.0,308.0
2022-02-03-18:03:38.523576,14.0,37.0,308.0
2022-02-03-18:03:38.524576,24.0,28.0,308.0
2022-02-03-18:03:38.525570,24.0,28.0,308.0
2022-02-03-18:03:38.526568,24.0,28.0,308.0
2022-02-03-18:03:38.527565,24.0,28.0,308.0
2022-02-03-18:03:38.528565,8.0,24.0,308.0
2022-02-03-18:03:38.529557,4.0,31.0,308.0
2022-02-03-18:03:38.530555,4.0,31.0,308.0
2022-02-03-18:03:38.531553,4.0,28.0,308.0
2022-02-03-18:03:38.533546,4.0,28.0,308.0
2022-02-03-18:03:38.533546,0.0,17.0,309.0
2022-02-03-18:03:38.534774,4.0,16.0,309.0
2022-02-03-18:03:38.534774,3.0,2.0,308.0
2022-02-03-18:03:38.535808,3.0,2.0,308.0
2022-02-03-18:03:38.536802,3.0,2.0,308.0
2022-02-03-18:03:38.537802,3.0,2.0,308.0
2022-02-03-18:03:38.538797,3.0,2.0,308.0
2022-02-03-18:03:38.539816,9.0,24.0,309.0
2022-02-03-18:03:38.540819,19.0,31.0,308.0
2022-02-03-18:03:38.541784,24.0,32.0,308.0
2022-02-03-18:03:38.542755,24.0,32.0,308.0
2022-02-03-18:03:38.543785,9.0,17.0,308.0
2022-02-03-18:03:38.544894,0.0,30.0,308.0
2022-02-03-18:03:38.544894,0.0,30.0,308.0
2022-02-03-18:03:38.545943,0.0,30.0,308.0
2022-02-03-18:03:38.546942,0.0,30.0,308.0
2022-02-03-18:03:38.547936,0.0,23.0,308.0
2022-02-03-18:03:38.549213,0.0,23.0,308.0
2022-02-03-18:03:38.549565,2.0,15.0,309.0
2022-02-03-18:03:38.549565,2.0,15.0,309.0
2022-02-03-18:03:38.550564,2.0,15.0,309.0
2022-02-03-18:03:38.551561,3.0,15.0,308.0
2022-02-03-18:03:38.552722,4.0,2.0,308.0
2022-02-03-18:03:38.552722,4.0,2.0,308.0
2022-02-03-18:03:38.553756,4.0,2.0,308.0
2022-02-03-18:03:38.554751,4.0,2.0,308.0
2022-02-03-18:03:38.555747,7.0,22.0,308.0
2022-02-03-18:03:38.556749,19.0,34.0,308.0
2022-02-03-18:03:38.557743,26.0,31.0,308.0
2022-02-03-18:03:38.558711,23.0,21.0,308.0
2022-02-03-18:03:38.559740,16.0,0.0,309.0
2022-02-03-18:03:38.560735,0.0,33.0,308.0
2022-02-03-18:03:38.561734,1.0,29.0,308.0
2022-02-03-18:03:38.562729,1.0,29.0,308.0
2022-02-03-18:03:38.563726,0.0,24.0,308.0
2022-02-03-18:03:38.564727,2.0,16.0,309.0
2022-02-03-18:03:38.565728,2.0,16.0,309.0
2022-02-03-18:03:38.566718,1.0,14.0,308.0
2022-02-03-18:03:38.568714,1.0,14.0,308.0
2022-02-03-18:03:38.569319,0.0,9.0,308.0
2022-02-03-18:03:38.569319,0.0,9.0,308.0
2022-02-03-18:03:38.570353,0.0,9.0,308.0
2022-02-03-18:03:38.571348,0.0,9.0,308.0
2022-02-03-18:03:38.572345,10.0,29.0,308.0
2022-02-03-18:03:38.573344,23.0,28.0,308.0
2022-02-03-18:03:38.574309,23.0,28.0,308.0
2022-02-03-18:03:38.575337,23.0,28.0,308.0
2022-02-03-18:03:38.576417,23.0,28.0,308.0
2022-02-03-18:03:38.576417,1.0,31.0,308.0
2022-02-03-18:03:38.577471,4.0,30.0,308.0
2022-02-03-18:03:38.578468,4.0,30.0,308.0
2022-02-03-18:03:38.579466,4.0,30.0,308.0
2022-02-03-18:03:38.580464,2.0,22.0,308.0
2022-02-03-18:03:38.581852,1.0,23.0,308.0
2022-02-03-18:03:38.581852,5.0,15.0,308.0
2022-02-03-18:03:38.582883,3.0,12.0,307.0
2022-02-03-18:03:38.583883,3.0,12.0,307.0
2022-02-03-18:03:38.584878,5.0,21.0,308.0
2022-02-03-18:03:38.585986,0.0,0.0,308.0
2022-02-03-18:03:38.585986,0.0,0.0,308.0
2022-02-03-18:03:38.587033,0.0,0.0,308.0
2022-02-03-18:03:38.588030,0.0,0.0,308.0
2022-02-03-18:03:38.589032,9.0,27.0,308.0
2022-02-03-18:03:38.590022,10.0,32.0,308.0
2022-02-03-18:03:38.590022,21.0,31.0,308.0
2022-02-03-18:03:38.591058,21.0,31.0,308.0
2022-02-03-18:03:38.592055,21.0,31.0,308.0
2022-02-03-18:03:38.593050,23.0,13.0,308.0
2022-02-03-18:03:38.594046,0.0,30.0,308.0
2022-02-03-18:03:38.595114,0.0,30.0,308.0
2022-02-03-18:03:38.595114,0.0,30.0,308.0
2022-02-03-18:03:38.596162,0.0,30.0,308.0
2022-02-03-18:03:38.597158,1.0,28.0,308.0
2022-02-03-18:03:38.598155,4.0,23.0,308.0
2022-02-03-18:03:38.599105,3.0,20.0,308.0
2022-02-03-18:03:38.601149,3.0,16.0,307.0
2022-02-03-18:03:38.601149,6.0,5.0,308.0
2022-02-03-18:03:38.602098,6.0,5.0,308.0
2022-02-03-18:03:38.603142,6.0,5.0,308.0
2022-02-03-18:03:38.604141,6.0,5.0,308.0
2022-02-03-18:03:38.605437,6.0,18.0,308.0
2022-02-03-18:03:38.605437,13.0,30.0,308.0
2022-02-03-18:03:38.606490,18.0,32.0,308.0
2022-02-03-18:03:38.607489,18.0,32.0,308.0
2022-02-03-18:03:38.608440,18.0,32.0,308.0
2022-02-03-18:03:38.609429,25.0,24.0,308.0
2022-02-03-18:03:38.610480,4.0,27.0,308.0
2022-02-03-18:03:38.611478,0.0,32.0,308.0
2022-02-03-18:03:38.612649,0.0,32.0,308.0
2022-02-03-18:03:38.612649,4.0,30.0,308.0
2022-02-03-18:03:38.613706,1.0,20.0,308.0
2022-02-03-18:03:38.614699,2.0,14.0,308.0
2022-02-03-18:03:38.615699,2.0,14.0,308.0
2022-02-03-18:03:38.616694,2.0,14.0,308.0
2022-02-03-18:03:38.617637,5.0,4.0,308.0
2022-02-03-18:03:38.618668,5.0,4.0,308.0
2022-02-03-18:03:38.619665,5.0,4.0,308.0
2022-02-03-18:03:38.620663,5.0,4.0,308.0
2022-02-03-18:03:38.621660,12.0,29.0,308.0
2022-02-03-18:03:38.622781,19.0,30.0,309.0
2022-02-03-18:03:38.622781,19.0,30.0,309.0
2022-02-03-18:03:38.623827,19.0,30.0,309.0
2022-02-03-18:03:38.624824,19.0,30.0,309.0
2022-02-03-18:03:38.625822,25.0,30.0,308.0
2022-02-03-18:03:38.627036,6.0,20.0,309.0
2022-02-03-18:03:38.627036,6.0,20.0,309.0
2022-02-03-18:03:38.628090,3.0,30.0,308.0
2022-02-03-18:03:38.629091,3.0,30.0,308.0
2022-02-03-18:03:38.630133,2.0,27.0,308.0
2022-02-03-18:03:38.630133,1.0,17.0,308.0
2022-02-03-18:03:38.631179,1.0,17.0,308.0
2022-02-03-18:03:38.632176,1.0,17.0,308.0
2022-02-03-18:03:38.633174,1.0,17.0,308.0
2022-02-03-18:03:38.635168,9.0,16.0,308.0
2022-02-03-18:03:38.635168,9.0,16.0,308.0
2022-02-03-18:03:38.636171,9.0,16.0,308.0
2022-02-03-18:03:38.637165,9.0,16.0,308.0
2022-02-03-18:03:38.638160,2.0,1.0,308.0
2022-02-03-18:03:38.639382,11.0,30.0,308.0
2022-02-03-18:03:38.639382,16.0,31.0,308.0
2022-02-03-18:03:38.640436,16.0,31.0,308.0
2022-02-03-18:03:38.641435,16.0,31.0,308.0
2022-02-03-18:03:38.642481,21.0,13.0,308.0
2022-02-03-18:03:38.642481,5.0,28.0,308.0
2022-02-03-18:03:38.643737,5.0,28.0,308.0
2022-02-03-18:03:38.643878,5.0,28.0,308.0
2022-02-03-18:03:38.643878,5.0,28.0,308.0
2022-02-03-18:03:38.645146,5.0,28.0,308.0
2022-02-03-18:03:38.645146,4.0,30.0,308.0
2022-02-03-18:03:38.646201,4.0,16.0,308.0
2022-02-03-18:03:38.647199,4.0,16.0,308.0
2022-02-03-18:03:38.648201,4.0,16.0,308.0
2022-02-03-18:03:38.649193,4.0,16.0,308.0
2022-02-03-18:03:38.650191,1.0,17.0,308.0
2022-02-03-18:03:38.651133,9.0,19.0,308.0
2022-02-03-18:03:38.652186,9.0,19.0,308.0
2022-02-03-18:03:38.653182,9.0,19.0,308.0
2022-02-03-18:03:38.654180,4.0,2.0,308.0
2022-02-03-18:03:38.655178,18.0,31.0,308.0
2022-02-03-18:03:38.656175,18.0,31.0,308.0
2022-02-03-18:03:38.657291,18.0,31.0,308.0
2022-02-03-18:03:38.657291,22.0,35.0,308.0
2022-02-03-18:03:38.658345,20.0,1.0,308.0
2022-02-03-18:03:38.659348,5.0,23.0,308.0
2022-02-03-18:03:38.660341,5.0,23.0,308.0
2022-02-03-18:03:38.661521,5.0,23.0,308.0
2022-02-03-18:03:38.661521,2.0,29.0,309.0
2022-02-03-18:03:38.662570,0.0,26.0,309.0
2022-02-03-18:03:38.663565,2.0,21.0,309.0
2022-02-03-18:03:38.664565,2.0,21.0,309.0
2022-02-03-18:03:38.665570,2.0,21.0,309.0
2022-02-03-18:03:38.666538,1.0,16.0,308.0
2022-02-03-18:03:38.668557,10.0,18.0,308.0
2022-02-03-18:03:38.668557,10.0,18.0,308.0
2022-02-03-18:03:38.669551,10.0,18.0,308.0
2022-02-03-18:03:38.670587,5.0,11.0,308.0
2022-02-03-18:03:38.670587,11.0,26.0,309.0
2022-02-03-18:03:38.671635,12.0,33.0,308.0
2022-02-03-18:03:38.672633,12.0,33.0,308.0
2022-02-03-18:03:38.673628,12.0,33.0,308.0
2022-02-03-18:03:38.674626,20.0,33.0,308.0
2022-02-03-18:03:38.675624,19.0,11.0,308.0
2022-02-03-18:03:38.676620,9.0,17.0,309.0
2022-02-03-18:03:38.677620,9.0,17.0,309.0
2022-02-03-18:03:38.678615,5.0,30.0,308.0
2022-02-03-18:03:38.679613,3.0,28.0,309.0
2022-02-03-18:03:38.680610,4.0,19.0,309.0
2022-02-03-18:03:38.681583,4.0,19.0,309.0
2022-02-03-18:03:38.682605,3.0,17.0,308.0
2022-02-03-18:03:38.683602,4.0,17.0,309.0
2022-02-03-18:03:38.684551,4.0,17.0,309.0
2022-02-03-18:03:38.685588,4.0,17.0,309.0
2022-02-03-18:03:38.686573,4.0,17.0,309.0
2022-02-03-18:03:38.687543,15.0,29.0,309.0
2022-02-03-18:03:38.688589,15.0,29.0,309.0
2022-02-03-18:03:38.689584,15.0,29.0,309.0
2022-02-03-18:03:38.690814,15.0,29.0,309.0
2022-02-03-18:03:38.690814,23.0,33.0,308.0
2022-02-03-18:03:38.691871,11.0,8.0,309.0
2022-02-03-18:03:38.692914,11.0,8.0,309.0
2022-02-03-18:03:38.692914,11.0,8.0,309.0
2022-02-03-18:03:38.694149,11.0,8.0,309.0
2022-02-03-18:03:38.694149,2.0,31.0,308.0
2022-02-03-18:03:38.695204,2.0,29.0,308.0
2022-02-03-18:03:38.696201,5.0,21.0,308.0
2022-02-03-18:03:38.697200,5.0,21.0,308.0
2022-02-03-18:03:38.698196,5.0,21.0,308.0
2022-02-03-18:03:38.699193,1.0,17.0,308.0
2022-02-03-18:03:38.700191,1.0,17.0,308.0
2022-02-03-18:03:38.701188,1.0,10.0,308.0
2022-02-03-18:03:38.702305,1.0,10.0,308.0
2022-02-03-18:03:38.703304,2.0,6.0,309.0
2022-02-03-18:03:38.703304,14.0,29.0,308.0
2022-02-03-18:03:38.704362,14.0,29.0,308.0
2022-02-03-18:03:38.705354,14.0,29.0,308.0
2022-02-03-18:03:38.706464,14.0,29.0,308.0
2022-02-03-18:03:38.706464,17.0,32.0,308.0
2022-02-03-18:03:38.707519,24.0,26.0,308.0
2022-02-03-18:03:38.708461,18.0,3.0,308.0
2022-02-03-18:03:38.709458,18.0,3.0,308.0
2022-02-03-18:03:38.710512,18.0,3.0,308.0
2022-02-03-18:03:38.711508,9.0,24.0,309.0
2022-02-03-18:03:38.712505,3.0,28.0,308.0
2022-02-03-18:03:38.713496,0.0,23.0,308.0
2022-02-03-18:03:38.714445,0.0,23.0,308.0
2022-02-03-18:03:38.715540,0.0,23.0,308.0
2022-02-03-18:03:38.715540,4.0,14.0,309.0
2022-02-03-18:03:38.716589,2.0,9.0,308.0
2022-02-03-18:03:38.717536,2.0,9.0,308.0
2022-02-03-18:03:38.718586,2.0,9.0,308.0
2022-02-03-18:03:38.719579,3.0,11.0,309.0
2022-02-03-18:03:38.720921,9.0,27.0,309.0
2022-02-03-18:03:38.720921,9.0,27.0,309.0
2022-02-03-18:03:38.721977,9.0,27.0,309.0
2022-02-03-18:03:38.722975,9.0,27.0,309.0
2022-02-03-18:03:38.723965,16.0,31.0,308.0
2022-02-03-18:03:38.724989,23.0,29.0,309.0
2022-02-03-18:03:38.725958,19.0,12.0,308.0
2022-02-03-18:03:38.726963,19.0,12.0,308.0
2022-02-03-18:03:38.727955,11.0,15.0,308.0
2022-02-03-18:03:38.728950,0.0,34.0,309.0
2022-02-03-18:03:38.729948,1.0,27.0,308.0
2022-02-03-18:03:38.730946,1.0,27.0,308.0
2022-02-03-18:03:38.731947,0.0,22.0,308.0
2022-02-03-18:03:38.732940,1.0,16.0,309.0
2022-02-03-18:03:38.733893,0.0,11.0,308.0
2022-02-03-18:03:38.734886,0.0,11.0,308.0
2022-02-03-18:03:38.735934,4.0,16.0,308.0
2022-02-03-18:03:38.736929,8.0,20.0,308.0
2022-02-03-18:03:38.738876,8.0,20.0,308.0
2022-02-03-18:03:38.738876,8.0,20.0,308.0
2022-02-03-18:03:38.739920,22.0,34.0,309.0
2022-02-03-18:03:38.740919,21.0,18.0,309.0
2022-02-03-18:03:38.741868,21.0,18.0,309.0
2022-02-03-18:03:38.742865,21.0,18.0,309.0
2022-02-03-18:03:38.743909,21.0,18.0,309.0
2022-02-03-18:03:38.744906,4.0,27.0,308.0
2022-02-03-18:03:38.745905,4.0,27.0,308.0
2022-02-03-18:03:38.746881,4.0,26.0,308.0
2022-02-03-18:03:38.747880,5.0,20.0,309.0
2022-02-03-18:03:38.748876,5.0,16.0,308.0
2022-02-03-18:03:38.749871,1.0,16.0,308.0
2022-02-03-18:03:38.750844,1.0,16.0,308.0
2022-02-03-18:03:38.751866,1.0,16.0,308.0
2022-02-03-18:03:38.752863,2.0,7.0,308.0
2022-02-03-18:03:38.754089,4.0,15.0,308.0
2022-02-03-18:03:38.754089,4.0,15.0,308.0
2022-02-03-18:03:38.755113,4.0,15.0,308.0
2022-02-03-18:03:38.756293,4.0,15.0,308.0
2022-02-03-18:03:38.756293,10.0,30.0,308.0
2022-02-03-18:03:38.757319,20.0,30.0,308.0
2022-02-03-18:03:38.758333,22.0,30.0,308.0
2022-02-03-18:03:38.759311,22.0,30.0,308.0
2022-02-03-18:03:38.760309,22.0,30.0,308.0
2022-02-03-18:03:38.761306,22.0,9.0,308.0
2022-02-03-18:03:38.762305,3.0,24.0,308.0
2022-02-03-18:03:38.763301,1.0,28.0,309.0
2022-02-03-18:03:38.764299,1.0,28.0,309.0
2022-02-03-18:03:38.765296,2.0,20.0,308.0
2022-02-03-18:03:38.766293,0.0,15.0,308.0
2022-02-03-18:03:38.767291,0.0,15.0,308.0
2022-02-03-18:03:38.768288,0.0,15.0,308.0
2022-02-03-18:03:38.769287,2.0,13.0,309.0
2022-02-03-18:03:38.771304,2.0,1.0,308.0
2022-02-03-18:03:38.771304,2.0,1.0,308.0
2022-02-03-18:03:38.772299,17.0,27.0,308.0
2022-02-03-18:03:38.773297,26.0,31.0,309.0
2022-02-03-18:03:38.774296,26.0,31.0,309.0
2022-02-03-18:03:38.775244,26.0,31.0,309.0
2022-02-03-18:03:38.776242,26.0,31.0,309.0
2022-02-03-18:03:38.777285,26.0,31.0,309.0
2022-02-03-18:03:38.778273,8.0,13.0,308.0
2022-02-03-18:03:38.779382,1.0,31.0,308.0
2022-02-03-18:03:38.779382,1.0,31.0,308.0
2022-02-03-18:03:38.780437,1.0,31.0,308.0
2022-02-03-18:03:38.781434,1.0,31.0,308.0
2022-02-03-18:03:38.782431,2.0,29.0,309.0
2022-02-03-18:03:38.783429,3.0,16.0,308.0
2022-02-03-18:03:38.784428,3.0,16.0,308.0
2022-02-03-18:03:38.785422,1.0,12.0,309.0
2022-02-03-18:03:38.786423,11.0,19.0,309.0
2022-02-03-18:03:38.787417,11.0,19.0,309.0
2022-02-03-18:03:38.788444,4.0,21.0,308.0
2022-02-03-18:03:38.788444,21.0,34.0,308.0
2022-02-03-18:03:38.789492,24.0,17.0,309.0
2022-02-03-18:03:38.790487,24.0,17.0,309.0
2022-02-03-18:03:38.791485,24.0,17.0,309.0
2022-02-03-18:03:38.792538,24.0,17.0,309.0
2022-02-03-18:03:38.792538,17.0,3.0,308.0
2022-02-03-18:03:38.793572,17.0,3.0,308.0
2022-02-03-18:03:38.794570,2.0,34.0,309.0
2022-02-03-18:03:38.795564,0.0,27.0,309.0
2022-02-03-18:03:38.796563,0.0,27.0,309.0
2022-02-03-18:03:38.797559,0.0,27.0,309.0
2022-02-03-18:03:38.798559,5.0,23.0,309.0
2022-02-03-18:03:38.799558,3.0,16.0,309.0
2022-02-03-18:03:38.800523,3.0,16.0,309.0
2022-02-03-18:03:38.801548,9.0,21.0,309.0
2022-02-03-18:03:38.802550,2.0,6.0,309.0
2022-02-03-18:03:38.803544,6.0,14.0,309.0
2022-02-03-18:03:38.804509,6.0,14.0,309.0
2022-02-03-18:03:38.805545,20.0,31.0,308.0
2022-02-03-18:03:38.806543,23.0,25.0,308.0
2022-02-03-18:03:38.808497,23.0,25.0,308.0
2022-02-03-18:03:38.808497,6.0,18.0,308.0
2022-02-03-18:03:38.809527,3.0,31.0,308.0
2022-02-03-18:03:38.810520,3.0,31.0,308.0
2022-02-03-18:03:38.811518,3.0,31.0,308.0
2022-02-03-18:03:38.812487,3.0,31.0,308.0
2022-02-03-18:03:38.813485,3.0,31.0,308.0
2022-02-03-18:03:38.814508,1.0,19.0,308.0
2022-02-03-18:03:38.815507,3.0,14.0,308.0
2022-02-03-18:03:38.816502,3.0,14.0,308.0
2022-02-03-18:03:38.817474,3.0,14.0,308.0
2022-02-03-18:03:38.818471,8.0,18.0,309.0
2022-02-03-18:03:38.819469,4.0,4.0,308.0
2022-02-03-18:03:38.820491,4.0,4.0,308.0
2022-02-03-18:03:38.821489,4.0,4.0,308.0
2022-02-03-18:03:38.822486,10.0,27.0,308.0
2022-02-03-18:03:38.823485,23.0,34.0,309.0
2022-02-03-18:03:38.824480,23.0,34.0,309.0
2022-02-03-18:03:38.825479,23.0,34.0,309.0
2022-02-03-18:03:38.826476,5.0,26.0,308.0
2022-02-03-18:03:38.827474,0.0,32.0,309.0
2022-02-03-18:03:38.828471,0.0,32.0,309.0
2022-02-03-18:03:38.829468,0.0,32.0,309.0
2022-02-03-18:03:38.830477,2.0,20.0,308.0
2022-02-03-18:03:38.831436,2.0,16.0,308.0
2022-02-03-18:03:38.832461,2.0,16.0,308.0
2022-02-03-18:03:38.833457,2.0,16.0,308.0
2022-02-03-18:03:38.834429,1.0,14.0,308.0
2022-02-03-18:03:38.835426,0.0,11.0,308.0
2022-02-03-18:03:38.836450,3.0,2.0,308.0
2022-02-03-18:03:38.837451,3.0,2.0,308.0
2022-02-03-18:03:38.838445,4.0,18.0,309.0
2022-02-03-18:03:38.839443,16.0,30.0,308.0
2022-02-03-18:03:38.840440,24.0,35.0,308.0
2022-02-03-18:03:38.842454,24.0,35.0,308.0
2022-02-03-18:03:38.842454,2.0,30.0,308.0
2022-02-03-18:03:38.843453,2.0,30.0,308.0
2022-02-03-18:03:38.844449,2.0,30.0,308.0
2022-02-03-18:03:38.845412,2.0,30.0,308.0
2022-02-03-18:03:38.846445,0.0,19.0,309.0
2022-02-03-18:03:38.847441,3.0,15.0,308.0
2022-02-03-18:03:38.848437,3.0,15.0,308.0
2022-02-03-18:03:38.849434,3.0,15.0,308.0
2022-02-03-18:03:38.850432,0.0,10.0,308.0
2022-02-03-18:03:38.851409,3.0,9.0,308.0
2022-02-03-18:03:38.852406,3.0,9.0,308.0
2022-02-03-18:03:38.853403,3.0,9.0,308.0
2022-02-03-18:03:38.854399,3.0,9.0,308.0
2022-02-03-18:03:38.855397,18.0,29.0,309.0
2022-02-03-18:03:38.856394,18.0,29.0,309.0
2022-02-03-18:03:38.857393,18.0,29.0,309.0
2022-02-03-18:03:38.858365,18.0,29.0,309.0
2022-02-03-18:03:38.859362,19.0,9.0,308.0
2022-02-03-18:03:38.860384,2.0,28.0,308.0
2022-02-03-18:03:38.861381,2.0,28.0,308.0
2022-02-03-18:03:38.862378,2.0,28.0,308.0
2022-02-03-18:03:38.863379,2.0,28.0,308.0
2022-02-03-18:03:38.864373,1.0,26.0,309.0
2022-02-03-18:03:38.865375,3.0,22.0,309.0
2022-02-03-18:03:38.866369,1.0,18.0,309.0
2022-02-03-18:03:38.867340,1.0,18.0,309.0
2022-02-03-18:03:38.868363,6.0,18.0,308.0
2022-02-03-18:03:38.869363,6.0,14.0,308.0
2022-02-03-18:03:38.870333,6.0,14.0,308.0
2022-02-03-18:03:38.871357,6.0,14.0,308.0
2022-02-03-18:03:38.872352,4.0,0.0,308.0
2022-02-03-18:03:38.873350,4.0,0.0,308.0
2022-02-03-18:03:38.874348,13.0,30.0,309.0
2022-02-03-18:03:38.876343,24.0,32.0,308.0
2022-02-03-18:03:38.876343,7.0,31.0,308.0
2022-02-03-18:03:38.877360,7.0,31.0,308.0
2022-02-03-18:03:38.878311,7.0,31.0,308.0
2022-02-03-18:03:38.879359,0.0,33.0,308.0
2022-02-03-18:03:38.880355,3.0,29.0,308.0
2022-02-03-18:03:38.881350,1.0,20.0,309.0
2022-02-03-18:03:38.882301,1.0,20.0,309.0
2022-02-03-18:03:38.883347,5.0,17.0,308.0
2022-02-03-18:03:38.884296,1.0,8.0,308.0
2022-02-03-18:03:38.885339,10.0,23.0,309.0
2022-02-03-18:03:38.886318,10.0,23.0,309.0
2022-02-03-18:03:38.887333,2.0,2.0,308.0
2022-02-03-18:03:38.888285,7.0,17.0,308.0
2022-02-03-18:03:38.889281,12.0,31.0,309.0
2022-02-03-18:03:38.890306,12.0,31.0,309.0
2022-02-03-18:03:38.891295,22.0,22.0,309.0
2022-02-03-18:03:38.892274,5.0,25.0,309.0
2022-02-03-18:03:38.893271,5.0,25.0,309.0
2022-02-03-18:03:38.894268,5.0,25.0,309.0
2022-02-03-18:03:38.895266,5.0,25.0,309.0
2022-02-03-18:03:38.896263,3.0,28.0,309.0
2022-02-03-18:03:38.897261,2.0,22.0,309.0
2022-02-03-18:03:38.898292,2.0,22.0,309.0
2022-02-03-18:03:38.899282,2.0,22.0,309.0
2022-02-03-18:03:38.900277,2.0,15.0,308.0
2022-02-03-18:03:38.901258,1.0,12.0,308.0
2022-02-03-18:03:38.902248,9.0,20.0,309.0
2022-02-03-18:03:38.903244,9.0,20.0,309.0
2022-02-03-18:03:38.904267,6.0,9.0,309.0
2022-02-03-18:03:38.905268,2.0,5.0,308.0
2022-02-03-18:03:38.906263,16.0,30.0,308.0
2022-02-03-18:03:38.907258,16.0,30.0,308.0
2022-02-03-18:03:38.909254,24.0,30.0,308.0
2022-02-03-18:03:38.909254,10.0,19.0,308.0
2022-02-03-18:03:38.910252,10.0,19.0,308.0
2022-02-03-18:03:38.911251,10.0,19.0,308.0
2022-02-03-18:03:38.912246,5.0,32.0,308.0
2022-02-03-18:03:38.913219,2.0,22.0,309.0
2022-02-03-18:03:38.914216,2.0,22.0,309.0
2022-02-03-18:03:38.915213,2.0,22.0,309.0
2022-02-03-18:03:38.916210,2.0,17.0,309.0
2022-02-03-18:03:38.917217,1.0,15.0,308.0
2022-02-03-18:03:38.918236,5.0,14.0,309.0
2022-02-03-18:03:38.919225,5.0,14.0,309.0
2022-02-03-18:03:38.920200,7.0,25.0,308.0
2022-02-03-18:03:38.921198,14.0,32.0,308.0
2022-02-03-18:03:38.922229,14.0,32.0,308.0
2022-02-03-18:03:38.923212,14.0,32.0,308.0
2022-02-03-18:03:38.924188,19.0,28.0,308.0
2022-02-03-18:03:38.925186,26.0,33.0,308.0
2022-02-03-18:03:38.926184,24.0,16.0,308.0
2022-02-03-18:03:38.927180,11.0,8.0,309.0
2022-02-03-18:03:38.928180,2.0,21.0,309.0
2022-02-03-18:03:38.929200,2.0,21.0,309.0
2022-02-03-18:03:38.930199,2.0,21.0,309.0
2022-02-03-18:03:38.931201,2.0,21.0,309.0
2022-02-03-18:03:38.932192,2.0,21.0,309.0
2022-02-03-18:03:38.933189,1.0,17.0,308.0
2022-02-03-18:03:38.934162,2.0,13.0,308.0
2022-02-03-18:03:38.935162,3.0,10.0,309.0
2022-02-03-18:03:38.936157,3.0,10.0,309.0
2022-02-03-18:03:38.937154,7.0,20.0,309.0
2022-02-03-18:03:38.938153,3.0,1.0,308.0
2022-02-03-18:03:38.939152,4.0,18.0,309.0
2022-02-03-18:03:38.940179,12.0,32.0,309.0
2022-02-03-18:03:38.941175,12.0,32.0,309.0
2022-02-03-18:03:38.943173,19.0,3.0,309.0
2022-02-03-18:03:38.943173,19.0,3.0,309.0
2022-02-03-18:03:38.944168,19.0,3.0,309.0
2022-02-03-18:03:38.945172,4.0,26.0,309.0
2022-02-03-18:03:38.946165,1.0,24.0,310.0
2022-02-03-18:03:38.947128,1.0,24.0,310.0
2022-02-03-18:03:38.948166,1.0,24.0,310.0
2022-02-03-18:03:38.949160,2.0,13.0,311.0
2022-02-03-18:03:38.950152,3.0,9.0,311.0
2022-02-03-18:03:38.951117,3.0,9.0,311.0
2022-02-03-18:03:38.952148,3.0,9.0,311.0
2022-02-03-18:03:38.953144,1.0,9.0,311.0
2022-02-03-18:03:38.954109,8.0,31.0,312.0
2022-02-03-18:03:38.955140,8.0,31.0,312.0
2022-02-03-18:03:38.956104,8.0,31.0,312.0
2022-02-03-18:03:38.957101,15.0,31.0,312.0
2022-02-03-18:03:38.958130,24.0,29.0,312.0
2022-02-03-18:03:38.959132,20.0,7.0,313.0
2022-02-03-18:03:38.960092,20.0,7.0,313.0
2022-02-03-18:03:38.961090,2.0,21.0,313.0
2022-02-03-18:03:38.962122,0.0,31.0,313.0
2022-02-03-18:03:38.963118,3.0,25.0,313.0
2022-02-03-18:03:38.964082,3.0,25.0,313.0
2022-02-03-18:03:38.965079,3.0,25.0,313.0
2022-02-03-18:03:38.966110,3.0,18.0,314.0
2022-02-03-18:03:38.967110,2.0,12.0,314.0
2022-02-03-18:03:38.968071,2.0,12.0,314.0
2022-02-03-18:03:38.969069,2.0,12.0,314.0
2022-02-03-18:03:38.970066,10.0,15.0,315.0
2022-02-03-18:03:38.971092,7.0,26.0,316.0
2022-02-03-18:03:38.972086,7.0,26.0,316.0
2022-02-03-18:03:38.973084,7.0,26.0,316.0
2022-02-03-18:03:38.974081,12.0,30.0,316.0
2022-02-03-18:03:38.975053,15.0,27.0,316.0
2022-02-03-18:03:38.977073,25.0,31.0,317.0
2022-02-03-18:03:38.977073,19.0,18.0,317.0
2022-02-03-18:03:38.978071,5.0,28.0,317.0
2022-02-03-18:03:38.979042,3.0,26.0,318.0
2022-02-03-18:03:38.980039,3.0,26.0,318.0
2022-02-03-18:03:38.981076,3.0,26.0,318.0
2022-02-03-18:03:38.982059,2.0,19.0,318.0
2022-02-03-18:03:38.983032,1.0,13.0,320.0
2022-02-03-18:03:38.984028,1.0,13.0,320.0
2022-02-03-18:03:38.985051,1.0,13.0,320.0
2022-02-03-18:03:38.986023,8.0,23.0,320.0
2022-02-03-18:03:38.987047,3.0,17.0,320.0
2022-02-03-18:03:38.988017,3.0,17.0,320.0
2022-02-03-18:03:38.989016,3.0,17.0,320.0
2022-02-03-18:03:38.990013,9.0,32.0,320.0
2022-02-03-18:03:38.991011,20.0,31.0,321.0
2022-02-03-18:03:38.992008,24.0,27.0,322.0
2022-02-03-18:03:38.993005,24.0,27.0,322.0
2022-02-03-18:03:38.994002,8.0,25.0,322.0
2022-02-03-18:03:38.995000,2.0,34.0,323.0
2022-02-03-18:03:38.996021,2.0,30.0,323.0
2022-02-03-18:03:38.996994,2.0,30.0,323.0
2022-02-03-18:03:38.998016,5.0,23.0,323.0
2022-02-03-18:03:38.998988,2.0,14.0,324.0
2022-02-03-18:03:39.000012,2.0,14.0,324.0
2022-02-03-18:03:39.000994,2.0,14.0,324.0
2022-02-03-18:03:39.001980,1.0,6.0,324.0
2022-02-03-18:03:39.002978,8.0,30.0,325.0
2022-02-03-18:03:39.003976,8.0,30.0,325.0
2022-02-03-18:03:39.004997,8.0,30.0,325.0
2022-02-03-18:03:39.005995,8.0,30.0,325.0
2022-02-03-18:03:39.006967,16.0,32.0,325.0
2022-02-03-18:03:39.007964,26.0,33.0,325.0
2022-02-03-18:03:39.008962,20.0,11.0,326.0
2022-02-03-18:03:39.010956,6.0,17.0,326.0
2022-02-03-18:03:39.010956,3.0,29.0,326.0
2022-02-03-18:03:39.011953,3.0,29.0,326.0
2022-02-03-18:03:39.012951,3.0,29.0,326.0
2022-02-03-18:03:39.013948,3.0,29.0,326.0
2022-02-03-18:03:39.014974,2.0,22.0,327.0
2022-02-03-18:03:39.015975,1.0,16.0,328.0
2022-02-03-18:03:39.016965,2.0,14.0,327.0
2022-02-03-18:03:39.017964,2.0,14.0,327.0
2022-02-03-18:03:39.018960,0.0,13.0,328.0
2022-02-03-18:03:39.019957,4.0,3.0,328.0
2022-02-03-18:03:39.020956,3.0,21.0,329.0
2022-02-03-18:03:39.021927,3.0,21.0,329.0
2022-02-03-18:03:39.022952,15.0,31.0,328.0
2022-02-03-18:03:39.023950,26.0,34.0,328.0
2022-02-03-18:03:39.024922,19.0,18.0,329.0
2022-02-03-18:03:39.025918,19.0,18.0,329.0
2022-02-03-18:03:39.026940,7.0,28.0,330.0
2022-02-03-18:03:39.027911,2.0,30.0,330.0
2022-02-03-18:03:39.028934,2.0,30.0,330.0
2022-02-03-18:03:39.029906,2.0,30.0,330.0
2022-02-03-18:03:39.030903,2.0,18.0,330.0
2022-02-03-18:03:39.031901,4.0,16.0,330.0
2022-02-03-18:03:39.032924,2.0,13.0,330.0
2022-02-03-18:03:39.033896,2.0,13.0,330.0
2022-02-03-18:03:39.034895,8.0,20.0,331.0
2022-02-03-18:03:39.035890,2.0,3.0,331.0
2022-02-03-18:03:39.036887,3.0,15.0,331.0
2022-02-03-18:03:39.037884,3.0,15.0,331.0
2022-02-03-18:03:39.038906,17.0,30.0,331.0
2022-02-03-18:03:39.039903,27.0,24.0,331.0
2022-02-03-18:03:39.040907,27.0,24.0,331.0
2022-02-03-18:03:39.041900,27.0,24.0,331.0
2022-02-03-18:03:39.042896,27.0,24.0,331.0
2022-02-03-18:03:39.043869,5.0,25.0,332.0
2022-02-03-18:03:39.045893,1.0,28.0,332.0
2022-02-03-18:03:39.045893,1.0,28.0,332.0
2022-02-03-18:03:39.046861,3.0,20.0,333.0
2022-02-03-18:03:39.047857,2.0,13.0,332.0
2022-02-03-18:03:39.048855,2.0,13.0,332.0
2022-02-03-18:03:39.049854,2.0,13.0,332.0
2022-02-03-18:03:39.050850,2.0,13.0,332.0
2022-02-03-18:03:39.051848,2.0,7.0,333.0
2022-02-03-18:03:39.052845,2.0,7.0,333.0
2022-02-03-18:03:39.053843,7.0,12.0,333.0
2022-02-03-18:03:39.054841,2.0,7.0,334.0
2022-02-03-18:03:39.055836,9.0,29.0,333.0
2022-02-03-18:03:39.056835,27.0,36.0,334.0
2022-02-03-18:03:39.057831,27.0,36.0,334.0
2022-02-03-18:03:39.058828,27.0,36.0,334.0
2022-02-03-18:03:39.059829,27.0,36.0,334.0
2022-02-03-18:03:39.060824,11.0,17.0,334.0
2022-02-03-18:03:39.061821,0.0,31.0,334.0
2022-02-03-18:03:39.062818,0.0,31.0,334.0
2022-02-03-18:03:39.063816,3.0,27.0,335.0
2022-02-03-18:03:39.064812,4.0,25.0,335.0
2022-02-03-18:03:39.065810,0.0,15.0,335.0
2022-02-03-18:03:39.066807,0.0,15.0,335.0
2022-02-03-18:03:39.067805,0.0,13.0,336.0
2022-02-03-18:03:39.068802,9.0,20.0,335.0
2022-02-03-18:03:39.069799,4.0,1.0,336.0
2022-02-03-18:03:39.070797,4.0,1.0,336.0
2022-02-03-18:03:39.071794,5.0,21.0,336.0
2022-02-03-18:03:39.072792,12.0,32.0,336.0
2022-02-03-18:03:39.073823,22.0,32.0,337.0
2022-02-03-18:03:39.074786,22.0,32.0,337.0
2022-02-03-18:03:39.075784,22.0,20.0,337.0
2022-02-03-18:03:39.076781,5.0,25.0,337.0
2022-02-03-18:03:39.077778,4.0,35.0,338.0
2022-02-03-18:03:39.078776,4.0,35.0,338.0
2022-02-03-18:03:39.080770,3.0,29.0,338.0
2022-02-03-18:03:39.080770,1.0,25.0,337.0
2022-02-03-18:03:39.081770,3.0,22.0,338.0
2022-02-03-18:03:39.082766,4.0,15.0,338.0
2022-02-03-18:03:39.083762,4.0,15.0,338.0
2022-02-03-18:03:39.084759,2.0,14.0,339.0
2022-02-03-18:03:39.085756,9.0,21.0,339.0
2022-02-03-18:03:39.086754,5.0,4.0,339.0
2022-02-03-18:03:39.087751,5.0,4.0,339.0
2022-02-03-18:03:39.088751,1.0,11.0,340.0
2022-02-03-18:03:39.089746,22.0,32.0,340.0
2022-02-03-18:03:39.090777,22.0,32.0,340.0
2022-02-03-18:03:39.091742,22.0,32.0,340.0
2022-02-03-18:03:39.092739,21.0,28.0,340.0
2022-02-03-18:03:39.093736,21.0,6.0,340.0
2022-02-03-18:03:39.094733,10.0,22.0,340.0
2022-02-03-18:03:39.095731,3.0,29.0,340.0
2022-02-03-18:03:39.096728,3.0,32.0,341.0
2022-02-03-18:03:39.097727,3.0,32.0,341.0
2022-02-03-18:03:39.098756,2.0,26.0,341.0
2022-02-03-18:03:39.099754,0.0,18.0,341.0
2022-02-03-18:03:39.100717,1.0,20.0,342.0
2022-02-03-18:03:39.101748,4.0,11.0,341.0
2022-02-03-18:03:39.102747,6.0,13.0,341.0
2022-02-03-18:03:39.103746,6.0,13.0,341.0
2022-02-03-18:03:39.104739,2.0,2.0,342.0
2022-02-03-18:03:39.105739,16.0,33.0,343.0
2022-02-03-18:03:39.106733,17.0,29.0,343.0
2022-02-03-18:03:39.107698,17.0,29.0,343.0
2022-02-03-18:03:39.108731,21.0,13.0,343.0
2022-02-03-18:03:39.109727,1.0,28.0,343.0
2022-02-03-18:03:39.110726,1.0,28.0,343.0
2022-02-03-18:03:39.111691,1.0,28.0,343.0
2022-02-03-18:03:39.112719,1.0,16.0,344.0
2022-02-03-18:03:39.114712,1.0,16.0,344.0
2022-02-03-18:03:39.114712,1.0,16.0,344.0
2022-02-03-18:03:39.115676,1.0,16.0,344.0
2022-02-03-18:03:39.116676,1.0,11.0,345.0
2022-02-03-18:03:39.117671,10.0,18.0,344.0
2022-02-03-18:03:39.118669,10.0,18.0,344.0
2022-02-03-18:03:39.119667,10.0,18.0,344.0
2022-02-03-18:03:39.120664,10.0,18.0,344.0
2022-02-03-18:03:39.121661,2.0,0.0,344.0
2022-02-03-18:03:39.122658,4.0,18.0,345.0
2022-02-03-18:03:39.123682,14.0,28.0,345.0
2022-02-03-18:03:39.124652,14.0,28.0,345.0
2022-02-03-18:03:39.125651,19.0,33.0,345.0
2022-02-03-18:03:39.126648,22.0,23.0,346.0
2022-02-03-18:03:39.127645,3.0,26.0,346.0
2022-02-03-18:03:39.128642,3.0,26.0,346.0
2022-02-03-18:03:39.129666,2.0,34.0,346.0
2022-02-03-18:03:39.130662,3.0,27.0,346.0
2022-02-03-18:03:39.131660,3.0,26.0,346.0
2022-02-03-18:03:39.132657,1.0,18.0,346.0
2022-02-03-18:03:39.133654,8.0,21.0,347.0
2022-02-03-18:03:39.134626,8.0,21.0,347.0
2022-02-03-18:03:39.135655,8.0,21.0,347.0
2022-02-03-18:03:39.136621,8.0,21.0,347.0
2022-02-03-18:03:39.137619,5.0,8.0,347.0
2022-02-03-18:03:39.138640,12.0,28.0,348.0
2022-02-03-18:03:39.139639,12.0,28.0,348.0
2022-02-03-18:03:39.140636,12.0,28.0,348.0
2022-02-03-18:03:39.141608,23.0,32.0,348.0
2022-02-03-18:03:39.142644,7.0,19.0,348.0
2022-02-03-18:03:39.143602,7.0,19.0,348.0
2022-02-03-18:03:39.144600,7.0,19.0,348.0
2022-02-03-18:03:39.145596,2.0,31.0,348.0
2022-02-03-18:03:39.146594,1.0,26.0,348.0
2022-02-03-18:03:39.147592,1.0,18.0,349.0
2022-02-03-18:03:39.149612,1.0,18.0,349.0
2022-02-03-18:03:39.149612,2.0,8.0,349.0
2022-02-03-18:03:39.150611,5.0,14.0,349.0
2022-02-03-18:03:39.151607,5.0,14.0,349.0
2022-02-03-18:03:39.152579,5.0,14.0,349.0
2022-02-03-18:03:39.153576,8.0,17.0,350.0
2022-02-03-18:03:39.154598,2.0,2.0,350.0
2022-02-03-18:03:39.155606,10.0,33.0,350.0
2022-02-03-18:03:39.156568,10.0,33.0,350.0
2022-02-03-18:03:39.157590,10.0,33.0,350.0
2022-02-03-18:03:39.158595,19.0,33.0,350.0
2022-02-03-18:03:39.159584,22.0,16.0,350.0
2022-02-03-18:03:39.160582,13.0,11.0,350.0
2022-02-03-18:03:39.161581,13.0,11.0,350.0
2022-02-03-18:03:39.162576,3.0,30.0,351.0
2022-02-03-18:03:39.163575,1.0,30.0,350.0
2022-02-03-18:03:39.164576,1.0,21.0,351.0
2022-02-03-18:03:39.165568,1.0,21.0,351.0
2022-02-03-18:03:39.166568,1.0,12.0,351.0
2022-02-03-18:03:39.167541,2.0,11.0,351.0
2022-02-03-18:03:39.168536,2.0,11.0,351.0
2022-02-03-18:03:39.169564,2.0,11.0,351.0
2022-02-03-18:03:39.170556,10.0,21.0,352.0
2022-02-03-18:03:39.171552,5.0,17.0,352.0
2022-02-03-18:03:39.172555,12.0,29.0,352.0
2022-02-03-18:03:39.173547,12.0,29.0,352.0
2022-02-03-18:03:39.174547,16.0,33.0,352.0
2022-02-03-18:03:39.175541,24.0,22.0,353.0
2022-02-03-18:03:39.176541,20.0,3.0,353.0
2022-02-03-18:03:39.177540,20.0,3.0,353.0
2022-02-03-18:03:39.178535,6.0,26.0,354.0
2022-02-03-18:03:39.179531,0.0,27.0,354.0
2022-02-03-18:03:39.180528,1.0,23.0,354.0
2022-02-03-18:03:39.181525,1.0,23.0,354.0
2022-02-03-18:03:39.183543,1.0,22.0,354.0
2022-02-03-18:03:39.183543,2.0,9.0,355.0
2022-02-03-18:03:39.184493,2.0,9.0,355.0
2022-02-03-18:03:39.185490,2.0,9.0,355.0
2022-02-03-18:03:39.186533,7.0,23.0,354.0
2022-02-03-18:03:39.187530,2.0,10.0,355.0
2022-02-03-18:03:39.188528,9.0,27.0,356.0
2022-02-03-18:03:39.189480,9.0,27.0,356.0
2022-02-03-18:03:39.190522,15.0,33.0,356.0
2022-02-03-18:03:39.191519,23.0,30.0,356.0
2022-02-03-18:03:39.192518,20.0,7.0,356.0
2022-02-03-18:03:39.193514,20.0,7.0,356.0
2022-02-03-18:03:39.194492,4.0,26.0,356.0
2022-02-03-18:03:39.195496,4.0,26.0,356.0
2022-02-03-18:03:39.196486,4.0,26.0,356.0
2022-02-03-18:03:39.197459,4.0,26.0,356.0
2022-02-03-18:03:39.198482,2.0,22.0,358.0
2022-02-03-18:03:39.199478,4.0,17.0,357.0
2022-02-03-18:03:39.200476,1.0,15.0,358.0
2022-02-03-18:03:39.201448,1.0,9.0,357.0
2022-02-03-18:03:39.202471,1.0,9.0,357.0
2022-02-03-18:03:39.203467,10.0,19.0,358.0
2022-02-03-18:03:39.204441,9.0,26.0,358.0
2022-02-03-18:03:39.205462,9.0,26.0,358.0
2022-02-03-18:03:39.206461,9.0,26.0,358.0
2022-02-03-18:03:39.207457,19.0,30.0,358.0
2022-02-03-18:03:39.208429,19.0,17.0,358.0
2022-02-03-18:03:39.209452,19.0,17.0,358.0
2022-02-03-18:03:39.210448,19.0,17.0,358.0
2022-02-03-18:03:39.211445,4.0,29.0,359.0
2022-02-03-18:03:39.212443,1.0,30.0,359.0
2022-02-03-18:03:39.213440,1.0,30.0,359.0
2022-02-03-18:03:39.214441,1.0,30.0,359.0
2022-02-03-18:03:39.215435,0.0,15.0,360.0
2022-02-03-18:03:39.216408,0.0,15.0,360.0
2022-02-03-18:03:39.218427,0.0,15.0,360.0
2022-02-03-18:03:39.218427,0.0,15.0,360.0
2022-02-03-18:03:39.219425,4.0,5.0,360.0
2022-02-03-18:03:39.220422,3.0,15.0,361.0
2022-02-03-18:03:39.221419,3.0,15.0,361.0
2022-02-03-18:03:39.222392,3.0,15.0,361.0
2022-02-03-18:03:39.223414,11.0,29.0,361.0
2022-02-03-18:03:39.224411,23.0,24.0,361.0
2022-02-03-18:03:39.225410,23.0,24.0,361.0
2022-02-03-18:03:39.226381,23.0,24.0,361.0
2022-02-03-18:03:39.227403,6.0,25.0,362.0
2022-02-03-18:03:39.228401,5.0,31.0,362.0
2022-02-03-18:03:39.229399,5.0,26.0,362.0
2022-02-03-18:03:39.230370,5.0,26.0,362.0
2022-02-03-18:03:39.231405,2.0,22.0,362.0
2022-02-03-18:03:39.232399,2.0,12.0,362.0
2022-02-03-18:03:39.233396,0.0,16.0,362.0
2022-02-03-18:03:39.234360,0.0,16.0,362.0
2022-02-03-18:03:39.235357,0.0,16.0,362.0
2022-02-03-18:03:39.236387,4.0,6.0,362.0
2022-02-03-18:03:39.237391,9.0,25.0,362.0
2022-02-03-18:03:39.238381,9.0,25.0,362.0
2022-02-03-18:03:39.239379,9.0,25.0,362.0
2022-02-03-18:03:39.240376,17.0,30.0,363.0
2022-02-03-18:03:39.241375,23.0,14.0,363.0
2022-02-03-18:03:39.242371,23.0,14.0,363.0
2022-02-03-18:03:39.243369,23.0,14.0,363.0
2022-02-03-18:03:39.244366,3.0,32.0,363.0
2022-02-03-18:03:39.245363,3.0,27.0,364.0
2022-02-03-18:03:39.246360,3.0,27.0,364.0
2022-02-03-18:03:39.247358,3.0,27.0,364.0
2022-02-03-18:03:39.248355,4.0,17.0,364.0
2022-02-03-18:03:39.249354,3.0,13.0,364.0
2022-02-03-18:03:39.250350,3.0,13.0,364.0
2022-02-03-18:03:39.252346,3.0,13.0,364.0
2022-02-03-18:03:39.252346,7.0,23.0,364.0
2022-02-03-18:03:39.253343,7.0,23.0,364.0
2022-02-03-18:03:39.254342,7.0,23.0,364.0
2022-02-03-18:03:39.255337,7.0,23.0,364.0
2022-02-03-18:03:39.256334,20.0,33.0,364.0
2022-02-03-18:03:39.257333,21.0,18.0,365.0
2022-02-03-18:03:39.258296,21.0,18.0,365.0
2022-02-03-18:03:39.259293,21.0,18.0,365.0
2022-02-03-18:03:39.260323,2.0,29.0,365.0
2022-02-03-18:03:39.261327,1.0,26.0,366.0
2022-02-03-18:03:39.262321,1.0,26.0,366.0
2022-02-03-18:03:39.263282,1.0,26.0,366.0
2022-02-03-18:03:39.264280,1.0,18.0,365.0
2022-02-03-18:03:39.265278,2.0,14.0,366.0
2022-02-03-18:03:39.266307,2.0,14.0,366.0
2022-02-03-18:03:39.267272,2.0,14.0,366.0
2022-02-03-18:03:39.268305,9.0,22.0,366.0
2022-02-03-18:03:39.269301,6.0,14.0,366.0
2022-02-03-18:03:39.270302,6.0,14.0,366.0
2022-02-03-18:03:39.271295,6.0,14.0,366.0
2022-02-03-18:03:39.272292,6.0,14.0,366.0
2022-02-03-18:03:39.273290,23.0,25.0,366.0
2022-02-03-18:03:39.274287,23.0,25.0,366.0
2022-02-03-18:03:39.275284,23.0,25.0,366.0
2022-02-03-18:03:39.276282,23.0,25.0,366.0
2022-02-03-18:03:39.277278,2.0,33.0,366.0
2022-02-03-18:03:39.278241,4.0,31.0,366.0
2022-02-03-18:03:39.279241,4.0,31.0,366.0
2022-02-03-18:03:39.280237,4.0,31.0,366.0
2022-02-03-18:03:39.281269,1.0,22.0,367.0
2022-02-03-18:03:39.282264,1.0,12.0,366.0
2022-02-03-18:03:39.283261,1.0,12.0,366.0
2022-02-03-18:03:39.285256,1.0,12.0,366.0
2022-02-03-18:03:39.285256,0.0,3.0,366.0
2022-02-03-18:03:39.286261,0.0,3.0,366.0
2022-02-03-18:03:39.287250,0.0,3.0,366.0
2022-02-03-18:03:39.288248,0.0,3.0,366.0
2022-02-03-18:03:39.289247,19.0,29.0,366.0
2022-02-03-18:03:39.290243,23.0,31.0,366.0
2022-02-03-18:03:39.291240,23.0,31.0,366.0
2022-02-03-18:03:39.292237,23.0,31.0,366.0
2022-02-03-18:03:39.293234,1.0,30.0,367.0
2022-02-03-18:03:39.294232,2.0,33.0,366.0
2022-02-03-18:03:39.295229,2.0,33.0,366.0
2022-02-03-18:03:39.296195,2.0,33.0,366.0
2022-02-03-18:03:39.297226,0.0,22.0,367.0
2022-02-03-18:03:39.298221,0.0,15.0,366.0
2022-02-03-18:03:39.299219,0.0,15.0,366.0
2022-02-03-18:03:39.300184,0.0,15.0,366.0
2022-02-03-18:03:39.301197,7.0,15.0,366.0
2022-02-03-18:03:39.302214,4.0,0.0,367.0
2022-02-03-18:03:39.303210,4.0,0.0,367.0
2022-02-03-18:03:39.304173,4.0,0.0,367.0
2022-02-03-18:03:39.305205,16.0,33.0,367.0
2022-02-03-18:03:39.306199,23.0,32.0,367.0
2022-02-03-18:03:39.307197,23.0,32.0,367.0
2022-02-03-18:03:39.308195,23.0,32.0,367.0
2022-02-03-18:03:39.309193,18.0,2.0,366.0
2022-02-03-18:03:39.310196,3.0,28.0,367.0
2022-02-03-18:03:39.311188,0.0,32.0,367.0
2022-02-03-18:03:39.312185,0.0,32.0,367.0
2022-02-03-18:03:39.313183,0.0,32.0,367.0
2022-02-03-18:03:39.314178,0.0,21.0,367.0
2022-02-03-18:03:39.315176,2.0,19.0,367.0
2022-02-03-18:03:39.316173,2.0,19.0,367.0
2022-02-03-18:03:39.318171,2.0,19.0,367.0
2022-02-03-18:03:39.318171,7.0,5.0,366.0
2022-02-03-18:03:39.319166,7.0,5.0,366.0
2022-02-03-18:03:39.320163,7.0,5.0,366.0
2022-02-03-18:03:39.321162,7.0,5.0,366.0
2022-02-03-18:03:39.322162,15.0,33.0,367.0
2022-02-03-18:03:39.323156,18.0,29.0,367.0
2022-02-03-18:03:39.324153,18.0,29.0,367.0
2022-02-03-18:03:39.325117,18.0,29.0,367.0
2022-02-03-18:03:39.326154,10.0,25.0,366.0
2022-02-03-18:03:39.327144,0.0,32.0,367.0
2022-02-03-18:03:39.328142,0.0,32.0,367.0
2022-02-03-18:03:39.329141,0.0,32.0,367.0
2022-02-03-18:03:39.330140,2.0,27.0,367.0
2022-02-03-18:03:39.331134,1.0,17.0,366.0
2022-02-03-18:03:39.332131,1.0,17.0,366.0
2022-02-03-18:03:39.333129,1.0,17.0,366.0
2022-02-03-18:03:39.334128,4.0,17.0,367.0
2022-02-03-18:03:39.335124,4.0,17.0,367.0
2022-02-03-18:03:39.336121,4.0,17.0,367.0
2022-02-03-18:03:39.337087,4.0,17.0,367.0
2022-02-03-18:03:39.338115,6.0,24.0,367.0
2022-02-03-18:03:39.339113,17.0,27.0,366.0
2022-02-03-18:03:39.340110,17.0,27.0,366.0
2022-02-03-18:03:39.341075,17.0,27.0,366.0
2022-02-03-18:03:39.342107,11.0,14.0,367.0
2022-02-03-18:03:39.343102,4.0,29.0,366.0
2022-02-03-18:03:39.344100,4.0,29.0,366.0
2022-02-03-18:03:39.345080,4.0,29.0,366.0
2022-02-03-18:03:39.346095,4.0,27.0,367.0
2022-02-03-18:03:39.347092,4.0,19.0,367.0
2022-02-03-18:03:39.348090,4.0,19.0,367.0
2022-02-03-18:03:39.349086,4.0,19.0,367.0
2022-02-03-18:03:39.350086,4.0,19.0,367.0
2022-02-03-18:03:39.351050,1.0,12.0,367.0
2022-02-03-18:03:39.352083,8.0,19.0,367.0
2022-02-03-18:03:39.354096,8.0,19.0,367.0
2022-02-03-18:03:39.354096,6.0,21.0,366.0
2022-02-03-18:03:39.355091,17.0,32.0,366.0
2022-02-03-18:03:39.356068,17.0,32.0,366.0
2022-02-03-18:03:39.357065,17.0,32.0,366.0
2022-02-03-18:03:39.358064,17.0,32.0,366.0
2022-02-03-18:03:39.359061,4.0,29.0,367.0
2022-02-03-18:03:39.360066,4.0,29.0,367.0
2022-02-03-18:03:39.361075,4.0,29.0,367.0
2022-02-03-18:03:39.362075,4.0,29.0,367.0
2022-02-03-18:03:39.363070,1.0,32.0,367.0
2022-02-03-18:03:39.364068,2.0,19.0,366.0
2022-02-03-18:03:39.365067,2.0,19.0,366.0
2022-02-03-18:03:39.366062,2.0,19.0,366.0
2022-02-03-18:03:39.367059,1.0,16.0,367.0
2022-02-03-18:03:39.368002,8.0,22.0,367.0
2022-02-03-18:03:39.369054,8.0,22.0,367.0
2022-02-03-18:03:39.370054,8.0,22.0,367.0
2022-02-03-18:03:39.371048,6.0,5.0,366.0
2022-02-03-18:03:39.372032,10.0,32.0,366.0
2022-02-03-18:03:39.373023,12.0,33.0,367.0
2022-02-03-18:03:39.373988,12.0,33.0,367.0
2022-02-03-18:03:39.374984,21.0,29.0,367.0
2022-02-03-18:03:39.375983,6.0,22.0,366.0
2022-02-03-18:03:39.376979,6.0,22.0,366.0
2022-02-03-18:03:39.377977,6.0,22.0,366.0
2022-02-03-18:03:39.378975,3.0,28.0,366.0
2022-02-03-18:03:39.379970,5.0,28.0,367.0
2022-02-03-18:03:39.380996,3.0,23.0,366.0
2022-02-03-18:03:39.381966,1.0,24.0,366.0
2022-02-03-18:03:39.382963,1.0,16.0,367.0
2022-02-03-18:03:39.383960,6.0,15.0,367.0
2022-02-03-18:03:39.384960,6.0,15.0,367.0
2022-02-03-18:03:39.385955,6.0,15.0,367.0
2022-02-03-18:03:39.386952,2.0,5.0,366.0
2022-02-03-18:03:39.388963,12.0,26.0,367.0
2022-02-03-18:03:39.388963,12.0,26.0,367.0
2022-02-03-18:03:39.389945,12.0,26.0,367.0
2022-02-03-18:03:39.390942,12.0,26.0,367.0
2022-02-03-18:03:39.391939,19.0,30.0,366.0
2022-02-03-18:03:39.392937,25.0,31.0,366.0
2022-02-03-18:03:39.393934,24.0,8.0,366.0
2022-02-03-18:03:39.394932,15.0,12.0,366.0
2022-02-03-18:03:39.395928,6.0,29.0,366.0
2022-02-03-18:03:39.396960,1.0,29.0,367.0
2022-02-03-18:03:39.397958,0.0,25.0,366.0
2022-02-03-18:03:39.398920,0.0,25.0,366.0
2022-02-03-18:03:39.399917,1.0,22.0,366.0
2022-02-03-18:03:39.400914,1.0,18.0,367.0
2022-02-03-18:03:39.401911,2.0,10.0,366.0
2022-02-03-18:03:39.403907,2.0,10.0,366.0
2022-02-03-18:03:39.404916,3.0,1.0,366.0
2022-02-03-18:03:39.404916,13.0,31.0,366.0
2022-02-03-18:03:39.405929,13.0,31.0,366.0
2022-02-03-18:03:39.406917,13.0,31.0,366.0
2022-02-03-18:03:39.407915,22.0,37.0,366.0
2022-02-03-18:03:39.408913,18.0,4.0,366.0
2022-02-03-18:03:39.409915,18.0,4.0,366.0
2022-02-03-18:03:39.410921,18.0,4.0,366.0
2022-02-03-18:03:39.411909,8.0,27.0,367.0
2022-02-03-18:03:39.412906,5.0,30.0,366.0
2022-02-03-18:03:39.413904,1.0,25.0,366.0
2022-02-03-18:03:39.414877,1.0,25.0,366.0
2022-02-03-18:03:39.415904,3.0,21.0,367.0
2022-02-03-18:03:39.416898,1.0,10.0,366.0
2022-02-03-18:03:39.417881,0.0,9.0,367.0
2022-02-03-18:03:39.418867,0.0,9.0,367.0
2022-02-03-18:03:39.420893,7.0,9.0,367.0
2022-02-03-18:03:39.420893,7.0,26.0,367.0
2022-02-03-18:03:39.421890,7.0,26.0,367.0
2022-02-03-18:03:39.422887,7.0,26.0,367.0
2022-02-03-18:03:39.423885,7.0,26.0,367.0
2022-02-03-18:03:39.424884,21.0,9.0,366.0
2022-02-03-18:03:39.425880,21.0,9.0,366.0
2022-02-03-18:03:39.426877,21.0,9.0,366.0
2022-02-03-18:03:39.427875,21.0,9.0,366.0
2022-02-03-18:03:39.428874,5.0,28.0,367.0
2022-02-03-18:03:39.429869,5.0,28.0,367.0
2022-02-03-18:03:39.430866,5.0,28.0,367.0
2022-02-03-18:03:39.431863,5.0,28.0,367.0
2022-02-03-18:03:39.432863,3.0,22.0,366.0
2022-02-03-18:03:39.433859,1.0,16.0,366.0
2022-02-03-18:03:39.434824,0.0,10.0,367.0
2022-02-03-18:03:39.435853,0.0,10.0,367.0
2022-02-03-18:03:39.436851,9.0,26.0,366.0
2022-02-03-18:03:39.437856,9.0,26.0,366.0
2022-02-03-18:03:39.438846,9.0,26.0,366.0
2022-02-03-18:03:39.439842,9.0,26.0,366.0
2022-02-03-18:03:39.440843,14.0,31.0,367.0
2022-02-03-18:03:39.441837,20.0,16.0,367.0
2022-02-03-18:03:39.442834,20.0,16.0,367.0
2022-02-03-18:03:39.443833,20.0,16.0,367.0
2022-02-03-18:03:39.444821,14.0,8.0,366.0
2022-02-03-18:03:39.445827,1.0,32.0,366.0
2022-02-03-18:03:39.446824,4.0,28.0,366.0
2022-02-03-18:03:39.447822,4.0,28.0,366.0
2022-02-03-18:03:39.448830,5.0,24.0,367.0
2022-02-03-18:03:39.449816,2.0,18.0,367.0
2022-02-03-18:03:39.450814,0.0,10.0,366.0
2022-02-03-18:03:39.451779,0.0,10.0,366.0
2022-02-03-18:03:39.452808,1.0,8.0,366.0
2022-02-03-18:03:39.454803,5.0,3.0,367.0
2022-02-03-18:03:39.454803,12.0,31.0,367.0
2022-02-03-18:03:39.455768,12.0,31.0,367.0
2022-02-03-18:03:39.456799,23.0,26.0,367.0
2022-02-03-18:03:39.457795,21.0,7.0,366.0
2022-02-03-18:03:39.458792,21.0,7.0,366.0
2022-02-03-18:03:39.459814,21.0,7.0,366.0
2022-02-03-18:03:39.459814,21.0,7.0,366.0
2022-02-03-18:03:39.460846,1.0,31.0,366.0
2022-02-03-18:03:39.461843,1.0,24.0,366.0
2022-02-03-18:03:39.462840,1.0,24.0,366.0
2022-02-03-18:03:39.463839,1.0,24.0,366.0
2022-02-03-18:03:39.464834,1.0,24.0,366.0
2022-02-03-18:03:39.465832,1.0,18.0,366.0
2022-02-03-18:03:39.466829,1.0,9.0,366.0
2022-02-03-18:03:39.467795,1.0,9.0,366.0
2022-02-03-18:03:39.468830,1.0,9.0,366.0
2022-02-03-18:03:39.469822,9.0,21.0,367.0
2022-02-03-18:03:39.470787,10.0,25.0,367.0
2022-02-03-18:03:39.471818,10.0,25.0,367.0
2022-02-03-18:03:39.472813,10.0,25.0,367.0
2022-02-03-18:03:39.473878,10.0,25.0,367.0
2022-02-03-18:03:39.473878,14.0,30.0,367.0
2022-02-03-18:03:39.474939,14.0,30.0,367.0
2022-02-03-18:03:39.476172,24.0,31.0,366.0
2022-02-03-18:03:39.476172,18.0,9.0,366.0
2022-02-03-18:03:39.477204,18.0,9.0,366.0
2022-02-03-18:03:39.478200,2.0,29.0,366.0
2022-02-03-18:03:39.479200,6.0,27.0,366.0
2022-02-03-18:03:39.480197,6.0,27.0,366.0
2022-02-03-18:03:39.481193,6.0,27.0,366.0
2022-02-03-18:03:39.482210,1.0,13.0,367.0
2022-02-03-18:03:39.483211,2.0,10.0,367.0
2022-02-03-18:03:39.484205,2.0,10.0,367.0
2022-02-03-18:03:39.485204,2.0,10.0,367.0
2022-02-03-18:03:39.486199,6.0,18.0,367.0
2022-02-03-18:03:39.487196,7.0,26.0,366.0
2022-02-03-18:03:39.488194,7.0,26.0,366.0
2022-02-03-18:03:39.489195,7.0,26.0,366.0
2022-02-03-18:03:39.491134,26.0,32.0,367.0
2022-02-03-18:03:39.491134,23.0,19.0,367.0
2022-02-03-18:03:39.492183,23.0,19.0,367.0
2022-02-03-18:03:39.493181,23.0,19.0,367.0
2022-02-03-18:03:39.494170,23.0,19.0,367.0
2022-02-03-18:03:39.495167,12.0,6.0,366.0
2022-02-03-18:03:39.496146,2.0,24.0,367.0
2022-02-03-18:03:39.497143,2.0,24.0,367.0
2022-02-03-18:03:39.498115,2.0,18.0,367.0
2022-02-03-18:03:39.499113,1.0,12.0,366.0
2022-02-03-18:03:39.500141,1.0,12.0,366.0
2022-02-03-18:03:39.501107,1.0,12.0,366.0
2022-02-03-18:03:39.502130,6.0,20.0,366.0
2022-02-03-18:03:39.503146,4.0,16.0,367.0
2022-02-03-18:03:39.504143,4.0,16.0,367.0
2022-02-03-18:03:39.505141,4.0,16.0,367.0
2022-02-03-18:03:39.506118,16.0,33.0,367.0
2022-02-03-18:03:39.507139,22.0,26.0,367.0
2022-02-03-18:03:39.508117,22.0,26.0,367.0
2022-02-03-18:03:39.509086,22.0,26.0,367.0
2022-02-03-18:03:39.510128,21.0,6.0,367.0
2022-02-03-18:03:39.511125,1.0,30.0,367.0
2022-02-03-18:03:39.512122,1.0,30.0,367.0
2022-02-03-18:03:39.513083,1.0,27.0,367.0
2022-02-03-18:03:39.514116,1.0,24.0,367.0
2022-02-03-18:03:39.515118,3.0,15.0,368.0
2022-02-03-18:03:39.516115,3.0,15.0,368.0
2022-02-03-18:03:39.517108,3.0,15.0,368.0
2022-02-03-18:03:39.518062,3.0,8.0,367.0
2022-02-03-18:03:39.519188,0.0,7.0,368.0
2022-02-03-18:03:39.519188,0.0,7.0,368.0
2022-02-03-18:03:39.520241,0.0,7.0,368.0
2022-02-03-18:03:39.521235,0.0,7.0,368.0
2022-02-03-18:03:39.522237,19.0,29.0,368.0
2022-02-03-18:03:39.523438,19.0,29.0,368.0
2022-02-03-18:03:39.523658,24.0,31.0,368.0
2022-02-03-18:03:39.523658,24.0,31.0,368.0
2022-02-03-18:03:39.525655,24.0,31.0,368.0
2022-02-03-18:03:39.526220,3.0,29.0,367.0
2022-02-03-18:03:39.526220,1.0,30.0,367.0
2022-02-03-18:03:39.527277,1.0,30.0,367.0
2022-02-03-18:03:39.528250,1.0,30.0,367.0
2022-02-03-18:03:39.529249,1.0,30.0,367.0
2022-02-03-18:03:39.530459,1.0,30.0,367.0
2022-02-03-18:03:39.530459,0.0,25.0,367.0
2022-02-03-18:03:39.531490,2.0,17.0,368.0
2022-02-03-18:03:39.532491,2.0,15.0,368.0
2022-02-03-18:03:39.533485,2.0,15.0,368.0
2022-02-03-18:03:39.534451,2.0,15.0,368.0
2022-02-03-18:03:39.535600,5.0,4.0,368.0
2022-02-03-18:03:39.535600,5.0,4.0,368.0
2022-02-03-18:03:39.536634,5.0,4.0,368.0
2022-02-03-18:03:39.537631,5.0,4.0,368.0
2022-02-03-18:03:39.538630,15.0,31.0,368.0
2022-02-03-18:03:39.539617,26.0,33.0,368.0
2022-02-03-18:03:39.540870,26.0,33.0,368.0
2022-02-03-18:03:39.540870,26.0,33.0,368.0
2022-02-03-18:03:39.541870,26.0,33.0,368.0
2022-02-03-18:03:39.542901,22.0,15.0,368.0
2022-02-03-18:03:39.543898,6.0,26.0,368.0
2022-02-03-18:03:39.544895,1.0,31.0,368.0
2022-02-03-18:03:39.545860,1.0,31.0,368.0
2022-02-03-18:03:39.546890,1.0,26.0,368.0
2022-02-03-18:03:39.547889,1.0,21.0,369.0
2022-02-03-18:03:39.548890,1.0,17.0,368.0
2022-02-03-18:03:39.549882,1.0,17.0,368.0
2022-02-03-18:03:39.550884,1.0,17.0,368.0
2022-02-03-18:03:39.551878,7.0,8.0,369.0
2022-02-03-18:03:39.552914,7.0,8.0,369.0
2022-02-03-18:03:39.552914,7.0,8.0,369.0
2022-02-03-18:03:39.553940,7.0,8.0,369.0
2022-02-03-18:03:39.554936,7.0,8.0,369.0
2022-02-03-18:03:39.555935,12.0,27.0,369.0
2022-02-03-18:03:39.556933,18.0,35.0,368.0
2022-02-03-18:03:39.557929,21.0,31.0,369.0
2022-02-03-18:03:39.559926,21.0,31.0,369.0
2022-02-03-18:03:39.559926,1.0,30.0,369.0
2022-02-03-18:03:39.561037,1.0,30.0,369.0
2022-02-03-18:03:39.561037,1.0,30.0,369.0
2022-02-03-18:03:39.562069,1.0,30.0,369.0
2022-02-03-18:03:39.563066,1.0,30.0,369.0
2022-02-03-18:03:39.564067,2.0,26.0,370.0
2022-02-03-18:03:39.565061,2.0,16.0,369.0
2022-02-03-18:03:39.566058,2.0,16.0,369.0
2022-02-03-18:03:39.567062,2.0,16.0,369.0
2022-02-03-18:03:39.568020,1.0,15.0,370.0
2022-02-03-18:03:39.569052,5.0,19.0,369.0
2022-02-03-18:03:39.570048,8.0,12.0,370.0
2022-02-03-18:03:39.571045,8.0,12.0,370.0
2022-02-03-18:03:39.572044,3.0,3.0,369.0
2022-02-03-18:03:39.573039,3.0,3.0,369.0
2022-02-03-18:03:39.574037,19.0,29.0,370.0
2022-02-03-18:03:39.575002,19.0,29.0,370.0
2022-02-03-18:03:39.576022,22.0,10.0,369.0
2022-02-03-18:03:39.577031,2.0,32.0,369.0
2022-02-03-18:03:39.578026,2.0,32.0,369.0
2022-02-03-18:03:39.579058,2.0,32.0,369.0
2022-02-03-18:03:39.579058,2.0,30.0,370.0
2022-02-03-18:03:39.580090,2.0,30.0,370.0
2022-02-03-18:03:39.581090,2.0,23.0,370.0
2022-02-03-18:03:39.582084,0.0,19.0,370.0
2022-02-03-18:03:39.583105,0.0,19.0,370.0
2022-02-03-18:03:39.584105,3.0,16.0,370.0
2022-02-03-18:03:39.585166,9.0,18.0,370.0
2022-02-03-18:03:39.585166,9.0,18.0,370.0
2022-02-03-18:03:39.586192,9.0,18.0,370.0
2022-02-03-18:03:39.587190,9.0,18.0,370.0
2022-02-03-18:03:39.588190,6.0,1.0,370.0
2022-02-03-18:03:39.589184,11.0,31.0,370.0
2022-02-03-18:03:39.590180,19.0,35.0,370.0
2022-02-03-18:03:39.591153,19.0,35.0,370.0
2022-02-03-18:03:39.593147,19.0,35.0,370.0
2022-02-03-18:03:39.593889,13.0,1.0,370.0
2022-02-03-18:03:39.593889,5.0,26.0,370.0
2022-02-03-18:03:39.594914,5.0,26.0,370.0
2022-02-03-18:03:39.595932,5.0,26.0,370.0
2022-02-03-18:03:39.596930,0.0,29.0,370.0
2022-02-03-18:03:39.597929,0.0,28.0,370.0
2022-02-03-18:03:39.598924,4.0,18.0,370.0
2022-02-03-18:03:39.599921,4.0,18.0,370.0
2022-02-03-18:03:39.600921,0.0,14.0,371.0
2022-02-03-18:03:39.601870,8.0,23.0,371.0
2022-02-03-18:03:39.602892,8.0,23.0,371.0
2022-02-03-18:03:39.603890,8.0,23.0,371.0
2022-02-03-18:03:39.604889,2.0,8.0,371.0
2022-02-03-18:03:39.605885,8.0,29.0,370.0
2022-02-03-18:03:39.606882,8.0,29.0,370.0
2022-02-03-18:03:39.607854,17.0,31.0,370.0
2022-02-03-18:03:39.608851,20.0,7.0,371.0
2022-02-03-18:03:39.609906,8.0,25.0,370.0
2022-02-03-18:03:39.609906,8.0,25.0,370.0
2022-02-03-18:03:39.610941,8.0,25.0,370.0
2022-02-03-18:03:39.611937,8.0,25.0,370.0
2022-02-03-18:03:39.612925,1.0,31.0,370.0
2022-02-03-18:03:39.613922,1.0,24.0,370.0
2022-02-03-18:03:39.614922,1.0,18.0,370.0
2022-02-03-18:03:39.615916,1.0,18.0,370.0
2022-02-03-18:03:39.616919,1.0,16.0,370.0
2022-02-03-18:03:39.617887,1.0,13.0,371.0
2022-02-03-18:03:39.618911,6.0,19.0,371.0
2022-02-03-18:03:39.619908,6.0,19.0,371.0
2022-02-03-18:03:39.620905,2.0,13.0,371.0
2022-02-03-18:03:39.621902,15.0,32.0,370.0
2022-02-03-18:03:39.622903,15.0,32.0,370.0
2022-02-03-18:03:39.623897,15.0,32.0,370.0
2022-02-03-18:03:39.624903,15.0,32.0,370.0
2022-02-03-18:03:39.626910,18.0,32.0,370.0
2022-02-03-18:03:39.627411,23.0,37.0,370.0
2022-02-03-18:03:39.627411,12.0,11.0,371.0
2022-02-03-18:03:39.628691,12.0,11.0,371.0
2022-02-03-18:03:39.628691,3.0,33.0,371.0
2022-02-03-18:03:39.629844,3.0,23.0,371.0
2022-02-03-18:03:39.629844,3.0,23.0,371.0
2022-02-03-18:03:39.630891,3.0,23.0,371.0
2022-02-03-18:03:39.631867,3.0,23.0,371.0
2022-02-03-18:03:39.633116,1.0,14.0,370.0
2022-02-03-18:03:39.633116,0.0,12.0,370.0
2022-02-03-18:03:39.634171,2.0,11.0,370.0
2022-02-03-18:03:39.635167,2.0,11.0,370.0
2022-02-03-18:03:39.636111,2.0,11.0,370.0
2022-02-03-18:03:39.637162,8.0,20.0,370.0
2022-02-03-18:03:39.638163,2.0,1.0,370.0
2022-02-03-18:03:39.639158,12.0,33.0,371.0
2022-02-03-18:03:39.640100,12.0,33.0,371.0
2022-02-03-18:03:39.641830,16.0,34.0,371.0
2022-02-03-18:03:39.642034,16.0,0.0,370.0
2022-02-03-18:03:39.642034,16.0,0.0,370.0
2022-02-03-18:03:39.643080,16.0,0.0,370.0
2022-02-03-18:03:39.644077,16.0,0.0,370.0
2022-02-03-18:03:39.645076,16.0,0.0,370.0
2022-02-03-18:03:39.646071,1.0,32.0,371.0
2022-02-03-18:03:39.647073,2.0,25.0,370.0
2022-02-03-18:03:39.648067,2.0,25.0,370.0
2022-02-03-18:03:39.649064,2.0,25.0,370.0
2022-02-03-18:03:39.650061,1.0,19.0,371.0
2022-02-03-18:03:39.651063,1.0,14.0,371.0
2022-02-03-18:03:39.652009,0.0,9.0,370.0
2022-02-03-18:03:39.653054,0.0,9.0,370.0
2022-02-03-18:03:39.654030,9.0,20.0,371.0
2022-02-03-18:03:39.655052,2.0,7.0,371.0
2022-02-03-18:03:39.656046,8.0,30.0,371.0
2022-02-03-18:03:39.657385,8.0,30.0,371.0
2022-02-03-18:03:39.657385,20.0,29.0,371.0
2022-02-03-18:03:39.658698,20.0,11.0,371.0
2022-02-03-18:03:39.659697,20.0,11.0,371.0
2022-02-03-18:03:39.659697,20.0,11.0,371.0
2022-02-03-18:03:39.660913,20.0,11.0,371.0
2022-02-03-18:03:39.660913,5.0,24.0,371.0
2022-02-03-18:03:39.661944,5.0,24.0,371.0
2022-02-03-18:03:39.663050,0.0,26.0,371.0
2022-02-03-18:03:39.663050,0.0,26.0,371.0
2022-02-03-18:03:39.664097,0.0,26.0,371.0
2022-02-03-18:03:39.665094,0.0,26.0,371.0
2022-02-03-18:03:39.666093,3.0,16.0,371.0
2022-02-03-18:03:39.666441,1.0,9.0,370.0
2022-02-03-18:03:39.666441,1.0,9.0,370.0
2022-02-03-18:03:39.667488,1.0,9.0,370.0
2022-02-03-18:03:39.668439,1.0,9.0,370.0
2022-02-03-18:03:39.669683,1.0,9.0,370.0
2022-02-03-18:03:39.669683,2.0,19.0,371.0
2022-02-03-18:03:39.670736,2.0,4.0,371.0
2022-02-03-18:03:39.671733,8.0,25.0,371.0
2022-02-03-18:03:39.672731,8.0,25.0,371.0
2022-02-03-18:03:39.673729,11.0,34.0,371.0
2022-02-03-18:03:39.674729,23.0,34.0,371.0
2022-02-03-18:03:39.675703,14.0,12.0,371.0
2022-02-03-18:03:39.676720,14.0,12.0,371.0
2022-02-03-18:03:39.677710,14.0,12.0,371.0
2022-02-03-18:03:39.678707,2.0,28.0,371.0
2022-02-03-18:03:39.679705,2.0,25.0,371.0
2022-02-03-18:03:39.680702,2.0,25.0,371.0
2022-02-03-18:03:39.681699,2.0,25.0,371.0
2022-02-03-18:03:39.682700,0.0,19.0,371.0
2022-02-03-18:03:39.683694,1.0,12.0,371.0
2022-02-03-18:03:39.684645,1.0,13.0,371.0
2022-02-03-18:03:39.685642,1.0,13.0,371.0
2022-02-03-18:03:39.686667,7.0,1.0,372.0
2022-02-03-18:03:39.687663,13.0,33.0,371.0
2022-02-03-18:03:39.688681,13.0,33.0,371.0
2022-02-03-18:03:39.689690,13.0,33.0,371.0
2022-02-03-18:03:39.690678,14.0,33.0,371.0
2022-02-03-18:03:39.691645,19.0,22.0,371.0
2022-02-03-18:03:39.692671,17.0,3.0,371.0
2022-02-03-18:03:39.694705,17.0,3.0,371.0
2022-02-03-18:03:39.695048,5.0,25.0,372.0
2022-02-03-18:03:39.695048,3.0,26.0,371.0
2022-02-03-18:03:39.696097,3.0,24.0,372.0
2022-02-03-18:03:39.697091,3.0,24.0,372.0
2022-02-03-18:03:39.698089,3.0,24.0,372.0
2022-02-03-18:03:39.699086,2.0,20.0,371.0
2022-02-03-18:03:39.700088,3.0,15.0,371.0
2022-02-03-18:03:39.701081,2.0,13.0,372.0
2022-02-03-18:03:39.702057,2.0,13.0,372.0
2022-02-03-18:03:39.703122,8.0,19.0,372.0
2022-02-03-18:03:39.703453,1.0,7.0,371.0
2022-02-03-18:03:39.703599,13.0,29.0,372.0
2022-02-03-18:03:39.703599,13.0,29.0,372.0
2022-02-03-18:03:39.704622,13.0,29.0,372.0
2022-02-03-18:03:39.705828,13.0,29.0,372.0
2022-02-03-18:03:39.705828,16.0,30.0,371.0
2022-02-03-18:03:39.706874,22.0,32.0,371.0
2022-02-03-18:03:39.707873,20.0,7.0,372.0
2022-02-03-18:03:39.708869,20.0,7.0,372.0
2022-02-03-18:03:39.709820,20.0,7.0,372.0
2022-02-03-18:03:39.710864,0.0,32.0,371.0
2022-02-03-18:03:39.711860,2.0,25.0,371.0
2022-02-03-18:03:39.712857,2.0,25.0,371.0
2022-02-03-18:03:39.713808,2.0,25.0,371.0
2022-02-03-18:03:39.714852,3.0,20.0,372.0
2022-02-03-18:03:39.715851,1.0,18.0,372.0
2022-02-03-18:03:39.716851,2.0,10.0,371.0
2022-02-03-18:03:39.717845,2.0,10.0,371.0
2022-02-03-18:03:39.718843,7.0,17.0,372.0
2022-02-03-18:03:39.719839,10.0,24.0,371.0
2022-02-03-18:03:39.720836,10.0,24.0,371.0
2022-02-03-18:03:39.721838,10.0,24.0,371.0
2022-02-03-18:03:39.722877,10.0,24.0,371.0
2022-02-03-18:03:39.723213,22.0,34.0,372.0
2022-02-03-18:03:39.723355,23.0,18.0,372.0
2022-02-03-18:03:39.723355,23.0,18.0,372.0
2022-02-03-18:03:39.724378,23.0,18.0,372.0
2022-02-03-18:03:39.725378,23.0,18.0,372.0
2022-02-03-18:03:39.726373,23.0,18.0,372.0
2022-02-03-18:03:39.728344,3.0,28.0,371.0
2022-02-03-18:03:39.728344,4.0,25.0,371.0
2022-02-03-18:03:39.729341,4.0,25.0,371.0
2022-02-03-18:03:39.730362,4.0,25.0,371.0
2022-02-03-18:03:39.731360,1.0,25.0,372.0
2022-02-03-18:03:39.732473,4.0,13.0,372.0
2022-02-03-18:03:39.732473,4.0,13.0,372.0
2022-02-03-18:03:39.733527,4.0,13.0,372.0
2022-02-03-18:03:39.734531,4.0,13.0,372.0
2022-02-03-18:03:39.735467,1.0,10.0,371.0
2022-02-03-18:03:39.736519,5.0,4.0,372.0
2022-02-03-18:03:39.737517,3.0,16.0,371.0
2022-02-03-18:03:39.738507,3.0,16.0,371.0
2022-02-03-18:03:39.739511,14.0,28.0,371.0
2022-02-03-18:03:39.740509,21.0,31.0,372.0
2022-02-03-18:03:39.741505,22.0,25.0,371.0
2022-02-03-18:03:39.742483,22.0,25.0,371.0
2022-02-03-18:03:39.743500,0.0,31.0,371.0
2022-02-03-18:03:39.744502,0.0,31.0,371.0
2022-02-03-18:03:39.745495,0.0,31.0,371.0
2022-02-03-18:03:39.746494,0.0,31.0,371.0
2022-02-03-18:03:39.747489,2.0,15.0,371.0
2022-02-03-18:03:39.748487,2.0,15.0,371.0
2022-02-03-18:03:39.749484,2.0,15.0,371.0
2022-02-03-18:03:39.750482,2.0,15.0,371.0
2022-02-03-18:03:39.751425,2.0,15.0,371.0
2022-02-03-18:03:39.752481,0.0,12.0,371.0
2022-02-03-18:03:39.753473,6.0,11.0,371.0
2022-02-03-18:03:39.754473,2.0,12.0,372.0
2022-02-03-18:03:39.755468,2.0,12.0,372.0
2022-02-03-18:03:39.756466,6.0,28.0,372.0
2022-02-03-18:03:39.757463,18.0,31.0,372.0
2022-02-03-18:03:39.758406,21.0,32.0,372.0
2022-02-03-18:03:39.759458,21.0,32.0,372.0
2022-02-03-18:03:39.760427,9.0,21.0,372.0
2022-02-03-18:03:39.762444,1.0,31.0,372.0
2022-02-03-18:03:39.762444,1.0,31.0,372.0
2022-02-03-18:03:39.763439,1.0,31.0,372.0
2022-02-03-18:03:39.764416,5.0,22.0,372.0
2022-02-03-18:03:39.765433,0.0,18.0,372.0
2022-02-03-18:03:39.766431,1.0,15.0,371.0
2022-02-03-18:03:39.767428,1.0,15.0,371.0
2022-02-03-18:03:39.768379,1.0,15.0,371.0
2022-02-03-18:03:39.769422,1.0,13.0,372.0
2022-02-03-18:03:39.770650,9.0,17.0,371.0
2022-02-03-18:03:39.770800,4.0,0.0,372.0
2022-02-03-18:03:39.770800,4.0,0.0,372.0
2022-02-03-18:03:39.771854,4.0,0.0,372.0
2022-02-03-18:03:39.773054,4.0,0.0,372.0
2022-02-03-18:03:39.773054,6.0,26.0,371.0
2022-02-03-18:03:39.774108,17.0,31.0,372.0
2022-02-03-18:03:39.775051,25.0,35.0,371.0
2022-02-03-18:03:39.776049,25.0,35.0,371.0
2022-02-03-18:03:39.777079,5.0,28.0,372.0
2022-02-03-18:03:39.778077,2.0,31.0,372.0
2022-02-03-18:03:39.779095,2.0,31.0,372.0
2022-02-03-18:03:39.780091,2.0,31.0,372.0
2022-02-03-18:03:39.781090,6.0,28.0,372.0
2022-02-03-18:03:39.782086,3.0,17.0,371.0
2022-02-03-18:03:39.783084,0.0,18.0,372.0
2022-02-03-18:03:39.784292,0.0,18.0,372.0
2022-02-03-18:03:39.784292,3.0,12.0,372.0
2022-02-03-18:03:39.785291,5.0,19.0,372.0
2022-02-03-18:03:39.786345,5.0,5.0,371.0
2022-02-03-18:03:39.787340,5.0,5.0,371.0
2022-02-03-18:03:39.788338,5.0,5.0,371.0
2022-02-03-18:03:39.789457,21.0,34.0,371.0
2022-02-03-18:03:39.789457,21.0,34.0,371.0
2022-02-03-18:03:39.790513,21.0,34.0,371.0
2022-02-03-18:03:39.791508,21.0,34.0,371.0
2022-02-03-18:03:39.792505,21.0,34.0,371.0
2022-02-03-18:03:39.794554,6.0,24.0,372.0
2022-02-03-18:03:39.795119,0.0,31.0,372.0
2022-02-03-18:03:39.795119,0.0,31.0,372.0
2022-02-03-18:03:39.796174,0.0,31.0,372.0
2022-02-03-18:03:39.797171,2.0,25.0,372.0
2022-02-03-18:03:39.798168,5.0,22.0,372.0
2022-02-03-18:03:39.799382,0.0,13.0,372.0
2022-02-03-18:03:39.799382,0.0,13.0,372.0
2022-02-03-18:03:39.800438,0.0,13.0,372.0
2022-02-03-18:03:39.801379,1.0,11.0,372.0
2022-02-03-18:03:39.802432,1.0,11.0,372.0
2022-02-03-18:03:39.803427,8.0,19.0,372.0
2022-02-03-18:03:39.804425,8.0,14.0,372.0
2022-02-03-18:03:39.805425,0.0,7.0,372.0
2022-02-03-18:03:39.806419,11.0,30.0,372.0
2022-02-03-18:03:39.807417,16.0,32.0,372.0
2022-02-03-18:03:39.808386,16.0,32.0,372.0
2022-02-03-18:03:39.809357,27.0,31.0,373.0
2022-02-03-18:03:39.810381,1.0,33.0,373.0
2022-02-03-18:03:39.811398,1.0,33.0,373.0
2022-02-03-18:03:39.812395,1.0,33.0,373.0
2022-02-03-18:03:39.813396,1.0,33.0,373.0
2022-02-03-18:03:39.814441,1.0,31.0,373.0
2022-02-03-18:03:39.814441,4.0,19.0,373.0
2022-02-03-18:03:39.815722,4.0,19.0,373.0
2022-02-03-18:03:39.815856,2.0,20.0,372.0
2022-02-03-18:03:39.815856,2.0,20.0,372.0
2022-02-03-18:03:39.816910,2.0,20.0,372.0
2022-02-03-18:03:39.817908,2.0,20.0,372.0
2022-02-03-18:03:39.819106,2.0,11.0,373.0
2022-02-03-18:03:39.819106,4.0,17.0,373.0
2022-02-03-18:03:39.820130,4.0,17.0,373.0
2022-02-03-18:03:39.821131,3.0,0.0,372.0
2022-02-03-18:03:39.822125,12.0,32.0,373.0
2022-02-03-18:03:39.823124,18.0,32.0,373.0
2022-02-03-18:03:39.824120,18.0,32.0,373.0
2022-02-03-18:03:39.825117,18.0,32.0,373.0
2022-02-03-18:03:39.826116,18.0,32.0,373.0
2022-02-03-18:03:39.827111,26.0,39.0,374.0
2022-02-03-18:03:39.828084,16.0,1.0,373.0
2022-02-03-18:03:39.829110,1.0,28.0,374.0
2022-02-03-18:03:39.830103,5.0,34.0,373.0
2022-02-03-18:03:39.831102,3.0,24.0,374.0
2022-02-03-18:03:39.833071,1.0,19.0,374.0
2022-02-03-18:03:39.833071,1.0,19.0,374.0
2022-02-03-18:03:39.834068,1.0,11.0,374.0
2022-02-03-18:03:39.835066,7.0,19.0,374.0
2022-02-03-18:03:39.836095,7.0,19.0,374.0
2022-02-03-18:03:39.837092,7.0,19.0,374.0
2022-02-03-18:03:39.838085,1.0,15.0,375.0
2022-02-03-18:03:39.839081,9.0,30.0,375.0
2022-02-03-18:03:39.840078,14.0,32.0,374.0
2022-02-03-18:03:39.841050,14.0,32.0,374.0
2022-02-03-18:03:39.842073,20.0,33.0,375.0
2022-02-03-18:03:39.843069,6.0,22.0,375.0
2022-02-03-18:03:39.844070,6.0,22.0,375.0
2022-02-03-18:03:39.845039,6.0,22.0,375.0
2022-02-03-18:03:39.846062,1.0,33.0,375.0
2022-02-03-18:03:39.847060,0.0,23.0,376.0
2022-02-03-18:03:39.848031,0.0,23.0,376.0
2022-02-03-18:03:39.849029,0.0,23.0,376.0
2022-02-03-18:03:39.850053,0.0,15.0,375.0
2022-02-03-18:03:39.851049,5.0,19.0,376.0
2022-02-03-18:03:39.852025,5.0,19.0,376.0
2022-02-03-18:03:39.853048,5.0,19.0,376.0
2022-02-03-18:03:39.854062,4.0,17.0,376.0
2022-02-03-18:03:39.855058,10.0,25.0,376.0
2022-02-03-18:03:39.856056,11.0,31.0,376.0
2022-02-03-18:03:39.857053,11.0,31.0,376.0
2022-02-03-18:03:39.858054,11.0,31.0,376.0
2022-02-03-18:03:39.859049,24.0,32.0,377.0
2022-02-03-18:03:39.860045,9.0,13.0,376.0
2022-02-03-18:03:39.861045,9.0,13.0,376.0
2022-02-03-18:03:39.862046,9.0,13.0,376.0
2022-02-03-18:03:39.863021,2.0,34.0,376.0
2022-02-03-18:03:39.864036,1.0,22.0,377.0
2022-02-03-18:03:39.865983,1.0,22.0,377.0
2022-02-03-18:03:39.865983,0.0,8.0,377.0
2022-02-03-18:03:39.867214,1.0,13.0,377.0
2022-02-03-18:03:39.867214,1.0,13.0,377.0
2022-02-03-18:03:39.868024,1.0,13.0,377.0
2022-02-03-18:03:39.869004,1.0,13.0,377.0
2022-02-03-18:03:39.870000,1.0,13.0,377.0
2022-02-03-18:03:39.870997,10.0,18.0,377.0
2022-02-03-18:03:39.872014,6.0,1.0,378.0
2022-02-03-18:03:39.873016,12.0,35.0,377.0
2022-02-03-18:03:39.874008,12.0,35.0,377.0
2022-02-03-18:03:39.874989,15.0,33.0,377.0
2022-02-03-18:03:39.875984,23.0,19.0,377.0
2022-02-03-18:03:39.877004,17.0,0.0,378.0
2022-02-03-18:03:39.878002,17.0,0.0,378.0
2022-02-03-18:03:39.878995,3.0,26.0,378.0
2022-02-03-18:03:39.880083,2.0,26.0,378.0
2022-02-03-18:03:39.880083,2.0,26.0,378.0
2022-02-03-18:03:39.881296,2.0,26.0,378.0
2022-02-03-18:03:39.881296,2.0,26.0,378.0
2022-02-03-18:03:39.882522,2.0,26.0,378.0
2022-02-03-18:03:39.882522,1.0,16.0,378.0
2022-02-03-18:03:39.883570,1.0,11.0,378.0
2022-02-03-18:03:39.884569,1.0,11.0,379.0
2022-02-03-18:03:39.885545,1.0,11.0,379.0
2022-02-03-18:03:39.886542,1.0,11.0,379.0
2022-02-03-18:03:39.887538,10.0,20.0,379.0
2022-02-03-18:03:39.888541,1.0,12.0,379.0
2022-02-03-18:03:39.889573,13.0,30.0,378.0
2022-02-03-18:03:39.889573,13.0,30.0,378.0
2022-02-03-18:03:39.890768,13.0,30.0,378.0
2022-02-03-18:03:39.890768,16.0,31.0,379.0
2022-02-03-18:03:39.891793,26.0,25.0,379.0
2022-02-03-18:03:39.892790,21.0,10.0,379.0
2022-02-03-18:03:39.893825,21.0,10.0,379.0
2022-02-03-18:03:39.893825,21.0,10.0,379.0
2022-02-03-18:03:39.894852,21.0,10.0,379.0
2022-02-03-18:03:39.896168,6.0,22.0,379.0
2022-02-03-18:03:39.897195,1.0,33.0,379.0
2022-02-03-18:03:39.897195,3.0,23.0,379.0
2022-02-03-18:03:39.898167,3.0,23.0,379.0
2022-02-03-18:03:39.899188,5.0,18.0,380.0
2022-02-03-18:03:39.900186,1.0,10.0,380.0
2022-02-03-18:03:39.901183,6.0,18.0,380.0
2022-02-03-18:03:39.902186,6.0,18.0,380.0
2022-02-03-18:03:39.903181,10.0,16.0,380.0
2022-02-03-18:03:39.904176,7.0,25.0,381.0
2022-02-03-18:03:39.905173,15.0,31.0,380.0
2022-02-03-18:03:39.906169,15.0,31.0,380.0
2022-02-03-18:03:39.907211,16.0,33.0,380.0
2022-02-03-18:03:39.907211,20.0,12.0,381.0
2022-02-03-18:03:39.908236,12.0,11.0,381.0
2022-02-03-18:03:39.909227,12.0,11.0,381.0
2022-02-03-18:03:39.910232,12.0,11.0,381.0
2022-02-03-18:03:39.911404,12.0,11.0,381.0
2022-02-03-18:03:39.911404,2.0,29.0,381.0
2022-02-03-18:03:39.912430,1.0,29.0,381.0
2022-02-03-18:03:39.913427,2.0,23.0,381.0
2022-02-03-18:03:39.914424,2.0,23.0,381.0
2022-02-03-18:03:39.915421,2.0,23.0,381.0
2022-02-03-18:03:39.916419,2.0,15.0,382.0
2022-02-03-18:03:39.917417,2.0,9.0,381.0
2022-02-03-18:03:39.918387,3.0,9.0,381.0
2022-02-03-18:03:39.919411,3.0,9.0,381.0
2022-02-03-18:03:39.920459,11.0,20.0,382.0
2022-02-03-18:03:39.920751,6.0,21.0,382.0
2022-02-03-18:03:39.920885,14.0,35.0,382.0
2022-02-03-18:03:39.920885,14.0,35.0,382.0
2022-02-03-18:03:39.921911,14.0,35.0,382.0
2022-02-03-18:03:39.923079,14.0,35.0,382.0
2022-02-03-18:03:39.923079,19.0,33.0,382.0
2022-02-03-18:03:39.924104,24.0,24.0,382.0
2022-02-03-18:03:39.925152,17.0,2.0,382.0
2022-02-03-18:03:39.925152,17.0,2.0,382.0
2022-02-03-18:03:39.926184,17.0,2.0,382.0
2022-02-03-18:03:39.927336,17.0,2.0,382.0
2022-02-03-18:03:39.927336,7.0,24.0,382.0
2022-02-03-18:03:39.928362,2.0,28.0,383.0
2022-02-03-18:03:39.929366,1.0,24.0,382.0
2022-02-03-18:03:39.930359,1.0,24.0,382.0
2022-02-03-18:03:39.931354,1.0,24.0,382.0
2022-02-03-18:03:39.933323,0.0,14.0,383.0
2022-02-03-18:03:39.933323,1.0,10.0,383.0
2022-02-03-18:03:39.934458,1.0,10.0,383.0
2022-02-03-18:03:39.934458,1.0,10.0,383.0
2022-02-03-18:03:39.935512,1.0,10.0,383.0
2022-02-03-18:03:39.936510,7.0,20.0,383.0
2022-02-03-18:03:39.937508,11.0,31.0,383.0
2022-02-03-18:03:39.938508,11.0,31.0,383.0
2022-02-03-18:03:39.939502,11.0,31.0,383.0
2022-02-03-18:03:39.940500,16.0,35.0,383.0
2022-02-03-18:03:39.941496,23.0,29.0,384.0
2022-02-03-18:03:39.942496,19.0,7.0,383.0
2022-02-03-18:03:39.943495,19.0,7.0,383.0
2022-02-03-18:03:39.944488,9.0,19.0,383.0
2022-02-03-18:03:39.945431,6.0,29.0,383.0
2022-02-03-18:03:39.946428,2.0,27.0,384.0
2022-02-03-18:03:39.947425,2.0,27.0,384.0
2022-02-03-18:03:39.948422,7.0,20.0,384.0
2022-02-03-18:03:39.949421,7.0,20.0,384.0
2022-02-03-18:03:39.950452,2.0,12.0,384.0
2022-02-03-18:03:39.951485,2.0,12.0,384.0
2022-02-03-18:03:39.952469,2.0,12.0,384.0
2022-02-03-18:03:39.953466,8.0,16.0,384.0
2022-02-03-18:03:39.954465,5.0,22.0,384.0
2022-02-03-18:03:39.955461,5.0,22.0,384.0
2022-02-03-18:03:39.956458,16.0,29.0,385.0
2022-02-03-18:03:39.957454,24.0,16.0,384.0
2022-02-03-18:03:39.958397,24.0,16.0,384.0
2022-02-03-18:03:39.959449,24.0,16.0,384.0
2022-02-03-18:03:39.960446,24.0,16.0,384.0
2022-02-03-18:03:39.961444,1.0,33.0,385.0
2022-02-03-18:03:39.962444,3.0,27.0,385.0
2022-02-03-18:03:39.963438,3.0,27.0,385.0
2022-02-03-18:03:39.964415,1.0,24.0,384.0
2022-02-03-18:03:39.966429,1.0,15.0,385.0
2022-02-03-18:03:39.967062,2.0,11.0,384.0
2022-02-03-18:03:39.967062,2.0,11.0,384.0
2022-02-03-18:03:39.968110,2.0,11.0,384.0
2022-02-03-18:03:39.969292,2.0,11.0,384.0
2022-02-03-18:03:39.969292,2.0,12.0,384.0
2022-02-03-18:03:39.970324,2.0,12.0,384.0
2022-02-03-18:03:39.971438,6.0,18.0,384.0
2022-02-03-18:03:39.971438,6.0,18.0,384.0
2022-02-03-18:03:39.972484,6.0,18.0,384.0
2022-02-03-18:03:39.973486,9.0,30.0,385.0
2022-02-03-18:03:39.974696,24.0,33.0,385.0
2022-02-03-18:03:39.974696,25.0,24.0,384.0
2022-02-03-18:03:39.975846,25.0,24.0,384.0
2022-02-03-18:03:39.976233,25.0,24.0,384.0
2022-02-03-18:03:39.976233,2.0,31.0,385.0
2022-02-03-18:03:39.977264,2.0,31.0,385.0
2022-02-03-18:03:39.978262,4.0,28.0,385.0
2022-02-03-18:03:39.979261,4.0,28.0,385.0
2022-02-03-18:03:39.980256,4.0,28.0,385.0
2022-02-03-18:03:39.981222,2.0,27.0,385.0
2022-02-03-18:03:39.982252,1.0,15.0,385.0
2022-02-03-18:03:39.983250,1.0,15.0,385.0
2022-02-03-18:03:39.984214,1.0,15.0,385.0
2022-02-03-18:03:39.985212,2.0,12.0,385.0
2022-02-03-18:03:39.986242,4.0,11.0,385.0
2022-02-03-18:03:39.987262,2.0,7.0,385.0
2022-02-03-18:03:39.988257,2.0,7.0,385.0
2022-02-03-18:03:39.989260,5.0,33.0,385.0
2022-02-03-18:03:39.990252,20.0,33.0,385.0
2022-02-03-18:03:39.991249,24.0,32.0,385.0
2022-02-03-18:03:39.992247,24.0,32.0,385.0
2022-02-03-18:03:39.993244,19.0,10.0,385.0
2022-02-03-18:03:39.994242,19.0,10.0,385.0
2022-02-03-18:03:39.995241,0.0,31.0,386.0
2022-02-03-18:03:39.996236,4.0,28.0,385.0
2022-02-03-18:03:39.997216,5.0,23.0,385.0
2022-02-03-18:03:39.999174,1.0,14.0,385.0
2022-02-03-18:03:39.999174,1.0,14.0,385.0
2022-02-03-18:03:40.000226,1.0,14.0,385.0
2022-02-03-18:03:40.001223,1.0,14.0,385.0
2022-02-03-18:03:40.002220,1.0,14.0,385.0
2022-02-03-18:03:40.003214,2.0,15.0,385.0
2022-02-03-18:03:40.004207,4.0,2.0,384.0
2022-02-03-18:03:40.005208,4.0,2.0,384.0
2022-02-03-18:03:40.006202,10.0,22.0,385.0
2022-02-03-18:03:40.007199,20.0,30.0,385.0
2022-02-03-18:03:40.008197,23.0,34.0,385.0
2022-02-03-18:03:40.009193,23.0,34.0,385.0
2022-02-03-18:03:40.010191,24.0,13.0,385.0
2022-02-03-18:03:40.011191,4.0,28.0,385.0
2022-02-03-18:03:40.012185,1.0,33.0,385.0
2022-02-03-18:03:40.013166,1.0,33.0,385.0
2022-02-03-18:03:40.014181,3.0,29.0,385.0
2022-02-03-18:03:40.015178,3.0,20.0,385.0
2022-02-03-18:03:40.016220,2.0,15.0,385.0
2022-02-03-18:03:40.016220,2.0,15.0,385.0
2022-02-03-18:03:40.017266,2.0,15.0,385.0
2022-02-03-18:03:40.018217,1.0,10.0,384.0
2022-02-03-18:03:40.019277,3.0,2.0,385.0
2022-02-03-18:03:40.020258,3.0,2.0,385.0
2022-02-03-18:03:40.021441,3.0,2.0,385.0
2022-02-03-18:03:40.021441,4.0,17.0,385.0
2022-02-03-18:03:40.022487,17.0,35.0,385.0
2022-02-03-18:03:40.023487,21.0,35.0,384.0
2022-02-03-18:03:40.024482,21.0,35.0,384.0
2022-02-03-18:03:40.025479,21.0,35.0,384.0
2022-02-03-18:03:40.026478,25.0,23.0,385.0
2022-02-03-18:03:40.027474,3.0,31.0,385.0
2022-02-03-18:03:40.028451,3.0,31.0,385.0
2022-02-03-18:03:40.029475,3.0,31.0,385.0
2022-02-03-18:03:40.030466,2.0,30.0,384.0
2022-02-03-18:03:40.031465,6.0,21.0,385.0
2022-02-03-18:03:40.032461,0.0,19.0,385.0
2022-02-03-18:03:40.034409,0.0,19.0,385.0
2022-02-03-18:03:40.034409,7.0,9.0,384.0
2022-02-03-18:03:40.035434,7.0,9.0,384.0
2022-02-03-18:03:40.036427,7.0,9.0,384.0
2022-02-03-18:03:40.037426,7.0,9.0,384.0
2022-02-03-18:03:40.038425,1.0,4.0,385.0
2022-02-03-18:03:40.039444,12.0,32.0,385.0
2022-02-03-18:03:40.040440,17.0,30.0,385.0
2022-02-03-18:03:40.041436,17.0,30.0,385.0
2022-02-03-18:03:40.042436,17.0,30.0,385.0
2022-02-03-18:03:40.043431,23.0,34.0,385.0
2022-02-03-18:03:40.044428,10.0,18.0,384.0
2022-02-03-18:03:40.045426,0.0,29.0,385.0
2022-02-03-18:03:40.046424,0.0,29.0,385.0
2022-02-03-18:03:40.047422,1.0,30.0,385.0
2022-02-03-18:03:40.048418,4.0,20.0,385.0
2022-02-03-18:03:40.049415,0.0,20.0,385.0
2022-02-03-18:03:40.050394,2.0,10.0,384.0
2022-02-03-18:03:40.051411,7.0,12.0,385.0
2022-02-03-18:03:40.052435,7.0,17.0,385.0
2022-02-03-18:03:40.052435,7.0,17.0,385.0
2022-02-03-18:03:40.053489,7.0,17.0,385.0
2022-02-03-18:03:40.054684,7.0,17.0,385.0
2022-02-03-18:03:40.054684,3.0,2.0,385.0
2022-02-03-18:03:40.055730,15.0,34.0,385.0
2022-02-03-18:03:40.056729,20.0,32.0,385.0
2022-02-03-18:03:40.057705,20.0,32.0,385.0
2022-02-03-18:03:40.058722,20.0,32.0,385.0
2022-02-03-18:03:40.059720,16.0,6.0,385.0
2022-02-03-18:03:40.060722,3.0,26.0,385.0
2022-02-03-18:03:40.061771,3.0,26.0,385.0
2022-02-03-18:03:40.061771,3.0,26.0,385.0
2022-02-03-18:03:40.062825,3.0,26.0,385.0
2022-02-03-18:03:40.063823,3.0,26.0,385.0
2022-02-03-18:03:40.064820,1.0,29.0,385.0
2022-02-03-18:03:40.067276,1.0,29.0,385.0
2022-02-03-18:03:40.067276,0.0,11.0,385.0
2022-02-03-18:03:40.068275,8.0,20.0,386.0
2022-02-03-18:03:40.069303,8.0,20.0,386.0
2022-02-03-18:03:40.070269,8.0,20.0,386.0
2022-02-03-18:03:40.071297,3.0,8.0,385.0
2022-02-03-18:03:40.072295,14.0,28.0,385.0
2022-02-03-18:03:40.073294,14.0,28.0,385.0
2022-02-03-18:03:40.074258,14.0,28.0,385.0
2022-02-03-18:03:40.075380,22.0,31.0,385.0
2022-02-03-18:03:40.075380,19.0,6.0,385.0
2022-02-03-18:03:40.076677,19.0,6.0,385.0
2022-02-03-18:03:40.076677,8.0,26.0,384.0
2022-02-03-18:03:40.077709,8.0,26.0,384.0
2022-02-03-18:03:40.078708,8.0,26.0,384.0
2022-02-03-18:03:40.079704,2.0,29.0,385.0
2022-02-03-18:03:40.080707,0.0,27.0,385.0
2022-02-03-18:03:40.081699,4.0,20.0,385.0
2022-02-03-18:03:40.082695,4.0,20.0,385.0
2022-02-03-18:03:40.083685,1.0,10.0,385.0
2022-02-03-18:03:40.084683,8.0,21.0,385.0
2022-02-03-18:03:40.085680,8.0,21.0,385.0
2022-02-03-18:03:40.086653,8.0,21.0,385.0
2022-02-03-18:03:40.087674,8.0,21.0,385.0
2022-02-03-18:03:40.088672,4.0,12.0,385.0
2022-02-03-18:03:40.089747,5.0,7.0,385.0
2022-02-03-18:03:40.089747,16.0,31.0,385.0
2022-02-03-18:03:40.091007,16.0,31.0,385.0
2022-02-03-18:03:40.091007,27.0,33.0,385.0
2022-02-03-18:03:40.092030,27.0,33.0,385.0
2022-02-03-18:03:40.093028,11.0,14.0,385.0
2022-02-03-18:03:40.094107,11.0,14.0,385.0
2022-02-03-18:03:40.094107,11.0,14.0,385.0
2022-02-03-18:03:40.095162,11.0,14.0,385.0
2022-02-03-18:03:40.096161,11.0,14.0,385.0
2022-02-03-18:03:40.097155,2.0,33.0,385.0
2022-02-03-18:03:40.099150,2.0,33.0,385.0
2022-02-03-18:03:40.099150,1.0,20.0,385.0
2022-02-03-18:03:40.100392,0.0,16.0,384.0
2022-02-03-18:03:40.100392,1.0,8.0,384.0
2022-02-03-18:03:40.101423,1.0,8.0,384.0
2022-02-03-18:03:40.102421,2.0,15.0,385.0
2022-02-03-18:03:40.103444,2.0,15.0,385.0
2022-02-03-18:03:40.104430,7.0,17.0,385.0
2022-02-03-18:03:40.105427,7.0,22.0,385.0
2022-02-03-18:03:40.106424,11.0,30.0,385.0
2022-02-03-18:03:40.107430,11.0,30.0,385.0
2022-02-03-18:03:40.108373,17.0,33.0,384.0
2022-02-03-18:03:40.109370,24.0,17.0,385.0
2022-02-03-18:03:40.110414,13.0,1.0,385.0
2022-02-03-18:03:40.111423,13.0,1.0,385.0
2022-02-03-18:03:40.112409,5.0,25.0,385.0
2022-02-03-18:03:40.113406,3.0,29.0,385.0
2022-02-03-18:03:40.114403,4.0,24.0,385.0
2022-02-03-18:03:40.115354,4.0,24.0,385.0
2022-02-03-18:03:40.116385,0.0,15.0,385.0
2022-02-03-18:03:40.117396,1.0,10.0,385.0
2022-02-03-18:03:40.118346,1.0,10.0,385.0
2022-02-03-18:03:40.119354,1.0,10.0,385.0
2022-02-03-18:03:40.120388,7.0,22.0,385.0
2022-02-03-18:03:40.121366,7.0,5.0,385.0
2022-02-03-18:03:40.122477,12.0,29.0,385.0
2022-02-03-18:03:40.122477,12.0,29.0,385.0
2022-02-03-18:03:40.123509,12.0,29.0,385.0
2022-02-03-18:03:40.124529,12.0,29.0,385.0
2022-02-03-18:03:40.125526,19.0,29.0,385.0
2022-02-03-18:03:40.126736,21.0,8.0,385.0
2022-02-03-18:03:40.126903,9.0,20.0,385.0
2022-02-03-18:03:40.126903,9.0,20.0,385.0
2022-02-03-18:03:40.127957,9.0,20.0,385.0
2022-02-03-18:03:40.129173,9.0,20.0,385.0
2022-02-03-18:03:40.129173,1.0,33.0,385.0
2022-02-03-18:03:40.130226,2.0,28.0,385.0
2022-02-03-18:03:40.131224,0.0,23.0,385.0
2022-02-03-18:03:40.132221,0.0,23.0,385.0
2022-02-03-18:03:40.133220,1.0,15.0,385.0
2022-02-03-18:03:40.134219,3.0,12.0,385.0
2022-02-03-18:03:40.135158,4.0,16.0,385.0
2022-02-03-18:03:40.137192,4.0,16.0,385.0
2022-02-03-18:03:40.137192,7.0,27.0,384.0
2022-02-03-18:03:40.138198,15.0,32.0,385.0
2022-02-03-18:03:40.139194,15.0,32.0,385.0
2022-02-03-18:03:40.140192,15.0,32.0,385.0
2022-02-03-18:03:40.141237,14.0,30.0,385.0
2022-02-03-18:03:40.141237,11.0,13.0,385.0
2022-02-03-18:03:40.142270,11.0,13.0,385.0
2022-02-03-18:03:40.143267,11.0,13.0,385.0
2022-02-03-18:03:40.144264,11.0,13.0,385.0
2022-02-03-18:03:40.145260,4.0,32.0,385.0
2022-02-03-18:03:40.146264,1.0,21.0,385.0
2022-02-03-18:03:40.147258,1.0,21.0,385.0
2022-02-03-18:03:40.148256,1.0,21.0,385.0
2022-02-03-18:03:40.149250,2.0,21.0,385.0
2022-02-03-18:03:40.150247,2.0,17.0,385.0
2022-02-03-18:03:40.151251,2.0,17.0,385.0
2022-02-03-18:03:40.152211,3.0,13.0,384.0
2022-02-03-18:03:40.153232,8.0,17.0,385.0
2022-02-03-18:03:40.154230,14.0,32.0,385.0
2022-02-03-18:03:40.155226,14.0,32.0,385.0
2022-02-03-18:03:40.156453,14.0,32.0,385.0
2022-02-03-18:03:40.156453,18.0,34.0,385.0
2022-02-03-18:03:40.157510,21.0,18.0,385.0
2022-02-03-18:03:40.158505,15.0,2.0,384.0
2022-02-03-18:03:40.159555,15.0,2.0,384.0
2022-02-03-18:03:40.159555,15.0,2.0,384.0
2022-02-03-18:03:40.160775,15.0,2.0,384.0
2022-02-03-18:03:40.160775,5.0,27.0,385.0
2022-02-03-18:03:40.161830,4.0,30.0,385.0
2022-02-03-18:03:40.162827,3.0,27.0,385.0
2022-02-03-18:03:40.163825,3.0,27.0,385.0
2022-02-03-18:03:40.164821,3.0,27.0,385.0
2022-02-03-18:03:40.165819,3.0,21.0,385.0
2022-02-03-18:03:40.166817,2.0,13.0,385.0
2022-02-03-18:03:40.167815,1.0,9.0,384.0
2022-02-03-18:03:40.168830,1.0,9.0,384.0
2022-02-03-18:03:40.169854,1.0,9.0,384.0
2022-02-03-18:03:40.169854,11.0,29.0,385.0
2022-02-03-18:03:40.170827,11.0,29.0,385.0
2022-02-03-18:03:40.171851,11.0,29.0,385.0
2022-02-03-18:03:40.173088,11.0,29.0,385.0
2022-02-03-18:03:40.173088,17.0,33.0,385.0
2022-02-03-18:03:40.174143,24.0,28.0,385.0
2022-02-03-18:03:40.175085,19.0,10.0,385.0
2022-02-03-18:03:40.176082,19.0,10.0,385.0
2022-02-03-18:03:40.177338,19.0,10.0,385.0
2022-02-03-18:03:40.177338,5.0,22.0,385.0
2022-02-03-18:03:40.178392,0.0,28.0,384.0
2022-02-03-18:03:40.179392,4.0,27.0,385.0
2022-02-03-18:03:40.180387,4.0,27.0,385.0
2022-02-03-18:03:40.181385,4.0,27.0,385.0
2022-02-03-18:03:40.182384,2.0,22.0,384.0
2022-02-03-18:03:40.183385,2.0,14.0,385.0
2022-02-03-18:03:40.184323,2.0,10.0,385.0
2022-02-03-18:03:40.185334,2.0,10.0,385.0
2022-02-03-18:03:40.186316,9.0,14.0,385.0
2022-02-03-18:03:40.187362,1.0,3.0,385.0
2022-02-03-18:03:40.188365,6.0,22.0,385.0
2022-02-03-18:03:40.189363,6.0,22.0,385.0
2022-02-03-18:03:40.190403,11.0,32.0,384.0
2022-02-03-18:03:40.190727,24.0,36.0,385.0
2022-02-03-18:03:40.190870,23.0,13.0,385.0
2022-02-03-18:03:40.190870,23.0,13.0,385.0
2022-02-03-18:03:40.191896,23.0,13.0,385.0
2022-02-03-18:03:40.192891,23.0,13.0,385.0
2022-02-03-18:03:40.193888,23.0,13.0,385.0
2022-02-03-18:03:40.194886,10.0,12.0,385.0
2022-02-03-18:03:40.196115,0.0,29.0,385.0
2022-02-03-18:03:40.196115,0.0,29.0,385.0
2022-02-03-18:03:40.197162,0.0,29.0,385.0
2022-02-03-18:03:40.198159,1.0,23.0,385.0
2022-02-03-18:03:40.199158,1.0,17.0,385.0
2022-02-03-18:03:40.200154,1.0,17.0,385.0
2022-02-03-18:03:40.201151,1.0,15.0,385.0
2022-02-03-18:03:40.203149,7.0,22.0,384.0
2022-02-03-18:03:40.203149,8.0,17.0,384.0
2022-02-03-18:03:40.204242,8.0,17.0,384.0
2022-02-03-18:03:40.204242,8.0,17.0,384.0
2022-02-03-18:03:40.205298,8.0,17.0,384.0
2022-02-03-18:03:40.206294,11.0,28.0,385.0
2022-02-03-18:03:40.207296,20.0,31.0,385.0
2022-02-03-18:03:40.208265,22.0,21.0,385.0
2022-02-03-18:03:40.209287,22.0,21.0,385.0
2022-02-03-18:03:40.210289,22.0,21.0,385.0
2022-02-03-18:03:40.211281,16.0,0.0,384.0
2022-02-03-18:03:40.212278,3.0,31.0,384.0
2022-02-03-18:03:40.213276,3.0,26.0,385.0
2022-02-03-18:03:40.214273,3.0,26.0,385.0
2022-02-03-18:03:40.215270,0.0,23.0,385.0
2022-02-03-18:03:40.216268,3.0,18.0,385.0
2022-02-03-18:03:40.217264,2.0,17.0,385.0
2022-02-03-18:03:40.218262,1.0,11.0,385.0
2022-02-03-18:03:40.219467,11.0,25.0,385.0
2022-02-03-18:03:40.219467,1.0,6.0,385.0
2022-02-03-18:03:40.220615,1.0,6.0,385.0
2022-02-03-18:03:40.220615,1.0,6.0,385.0
2022-02-03-18:03:40.221667,1.0,6.0,385.0
2022-02-03-18:03:40.222660,1.0,6.0,385.0
2022-02-03-18:03:40.223655,17.0,29.0,385.0
2022-02-03-18:03:40.224653,22.0,29.0,385.0
2022-02-03-18:03:40.225650,22.0,29.0,385.0
2022-02-03-18:03:40.226648,22.0,29.0,385.0
2022-02-03-18:03:40.227647,2.0,30.0,385.0
2022-02-03-18:03:40.228644,2.0,30.0,385.0
2022-02-03-18:03:40.229645,2.0,30.0,385.0
2022-02-03-18:03:40.230967,2.0,30.0,385.0
2022-02-03-18:03:40.230967,2.0,26.0,384.0
2022-02-03-18:03:40.232022,3.0,18.0,384.0
2022-02-03-18:03:40.233024,3.0,18.0,384.0
2022-02-03-18:03:40.234020,3.0,18.0,384.0
2022-02-03-18:03:40.234993,10.0,19.0,384.0
2022-02-03-18:03:40.236954,3.0,3.0,383.0
2022-02-03-18:03:40.236954,3.0,3.0,383.0
2022-02-03-18:03:40.237985,3.0,3.0,383.0
2022-02-03-18:03:40.238981,3.0,3.0,383.0
2022-02-03-18:03:40.240098,14.0,26.0,383.0
2022-02-03-18:03:40.240098,25.0,33.0,382.0
2022-02-03-18:03:40.241144,25.0,33.0,382.0
2022-02-03-18:03:40.242147,25.0,33.0,382.0
2022-02-03-18:03:40.243211,3.0,30.0,382.0
2022-02-03-18:03:40.243211,2.0,30.0,382.0
2022-02-03-18:03:40.244262,2.0,30.0,382.0
2022-02-03-18:03:40.245255,2.0,30.0,382.0
2022-02-03-18:03:40.246254,2.0,30.0,382.0
2022-02-03-18:03:40.247249,0.0,26.0,382.0
2022-02-03-18:03:40.248247,3.0,23.0,382.0
2022-02-03-18:03:40.249244,2.0,22.0,382.0
2022-02-03-18:03:40.250241,2.0,16.0,381.0
2022-02-03-18:03:40.251192,0.0,3.0,380.0
2022-02-03-18:03:40.252189,0.0,3.0,380.0
2022-02-03-18:03:40.253239,0.0,3.0,380.0
2022-02-03-18:03:40.254233,0.0,3.0,380.0
2022-02-03-18:03:40.255424,0.0,3.0,380.0
2022-02-03-18:03:40.255424,5.0,18.0,380.0
2022-02-03-18:03:40.256458,5.0,18.0,380.0
2022-02-03-18:03:40.257454,23.0,29.0,379.0
2022-02-03-18:03:40.258450,23.0,29.0,379.0
2022-02-03-18:03:40.259449,23.0,29.0,379.0
2022-02-03-18:03:40.260445,18.0,1.0,378.0
2022-02-03-18:03:40.261443,0.0,29.0,378.0
2022-02-03-18:03:40.262441,0.0,29.0,378.0
2022-02-03-18:03:40.263438,0.0,29.0,378.0
2022-02-03-18:03:40.264504,4.0,30.0,378.0
2022-02-03-18:03:40.264723,1.0,23.0,378.0
2022-02-03-18:03:40.264723,4.0,17.0,376.0
2022-02-03-18:03:40.265769,4.0,17.0,376.0
2022-02-03-18:03:40.266767,4.0,17.0,376.0
2022-02-03-18:03:40.267764,4.0,17.0,376.0
2022-02-03-18:03:40.269759,0.0,16.0,377.0
2022-02-03-18:03:40.269759,7.0,8.0,375.0
2022-02-03-18:03:40.270756,7.0,8.0,375.0
2022-02-03-18:03:40.271756,7.0,8.0,375.0
2022-02-03-18:03:40.272751,0.0,4.0,375.0
2022-02-03-18:03:40.273971,13.0,32.0,374.0
2022-02-03-18:03:40.273971,17.0,29.0,374.0
2022-02-03-18:03:40.275002,17.0,29.0,374.0
2022-02-03-18:03:40.275968,3.0,29.0,373.0
2022-02-03-18:03:40.276997,3.0,29.0,373.0
2022-02-03-18:03:40.277995,3.0,29.0,373.0
2022-02-03-18:03:40.278995,3.0,29.0,373.0
2022-02-03-18:03:40.279989,3.0,29.0,373.0
2022-02-03-18:03:40.280989,2.0,23.0,372.0
2022-02-03-18:03:40.282051,2.0,21.0,372.0
2022-02-03-18:03:40.282051,2.0,21.0,372.0
2022-02-03-18:03:40.283097,2.0,21.0,372.0
2022-02-03-18:03:40.284095,2.0,21.0,372.0
2022-02-03-18:03:40.285081,3.0,9.0,371.0
2022-02-03-18:03:40.286043,8.0,17.0,370.0
2022-02-03-18:03:40.287087,8.0,17.0,370.0
2022-02-03-18:03:40.288084,8.0,17.0,370.0
2022-02-03-18:03:40.289087,2.0,1.0,369.0
2022-02-03-18:03:40.290079,8.0,27.0,370.0
2022-02-03-18:03:40.291076,20.0,31.0,369.0
2022-02-03-18:03:40.292073,20.0,31.0,369.0
2022-02-03-18:03:40.293074,25.0,33.0,368.0
2022-02-03-18:03:40.294071,2.0,31.0,368.0
2022-02-03-18:03:40.295069,2.0,31.0,368.0
2022-02-03-18:03:40.296262,2.0,31.0,368.0
2022-02-03-18:03:40.296262,2.0,34.0,367.0
2022-02-03-18:03:40.297294,2.0,34.0,367.0
2022-02-03-18:03:40.298291,0.0,17.0,366.0
2022-02-03-18:03:40.299288,0.0,17.0,366.0
2022-02-03-18:03:40.300286,0.0,17.0,366.0
2022-02-03-18:03:40.301283,1.0,17.0,367.0
2022-02-03-18:03:40.302249,9.0,22.0,366.0
2022-02-03-18:03:40.303277,9.0,22.0,366.0
2022-02-03-18:03:40.305273,9.0,22.0,366.0
2022-02-03-18:03:40.305273,9.0,29.0,365.0
2022-02-03-18:03:40.306261,15.0,33.0,365.0
2022-02-03-18:03:40.307262,15.0,33.0,365.0
2022-02-03-18:03:40.308249,15.0,33.0,365.0
2022-02-03-18:03:40.309233,23.0,33.0,365.0
2022-02-03-18:03:40.310347,5.0,25.0,364.0
2022-02-03-18:03:40.310347,5.0,25.0,364.0
2022-02-03-18:03:40.311371,5.0,25.0,364.0
2022-02-03-18:03:40.312368,5.0,25.0,364.0
2022-02-03-18:03:40.313368,1.0,32.0,364.0
2022-02-03-18:03:40.314587,6.0,31.0,363.0
2022-02-03-18:03:40.314587,4.0,18.0,362.0
2022-02-03-18:03:40.315619,4.0,18.0,362.0
2022-02-03-18:03:40.316618,4.0,18.0,362.0
2022-02-03-18:03:40.317613,1.0,19.0,362.0
2022-02-03-18:03:40.318599,2.0,10.0,362.0
2022-02-03-18:03:40.319621,5.0,23.0,361.0
2022-02-03-18:03:40.320605,5.0,23.0,361.0
2022-02-03-18:03:40.321609,7.0,29.0,361.0
2022-02-03-18:03:40.322602,14.0,28.0,361.0
2022-02-03-18:03:40.323600,14.0,28.0,361.0
2022-02-03-18:03:40.324597,14.0,28.0,361.0
2022-02-03-18:03:40.325587,15.0,29.0,360.0
2022-02-03-18:03:40.326582,9.0,19.0,360.0
2022-02-03-18:03:40.327580,9.0,19.0,360.0
2022-02-03-18:03:40.328584,9.0,19.0,360.0
2022-02-03-18:03:40.329579,2.0,35.0,360.0
2022-02-03-18:03:40.330571,1.0,26.0,359.0
2022-02-03-18:03:40.331570,1.0,26.0,359.0
2022-02-03-18:03:40.332752,1.0,26.0,359.0
2022-02-03-18:03:40.332752,2.0,18.0,359.0
2022-02-03-18:03:40.333775,2.0,18.0,359.0
2022-02-03-18:03:40.334773,0.0,16.0,358.0
2022-02-03-18:03:40.335772,0.0,16.0,358.0
2022-02-03-18:03:40.337740,0.0,16.0,358.0
2022-02-03-18:03:40.337740,13.0,31.0,357.0
2022-02-03-18:03:40.338738,13.0,31.0,357.0
2022-02-03-18:03:40.339759,13.0,31.0,357.0
2022-02-03-18:03:40.340760,13.0,31.0,357.0
2022-02-03-18:03:40.341803,17.0,32.0,358.0
2022-02-03-18:03:40.341803,22.0,13.0,357.0
2022-02-03-18:03:40.342852,22.0,13.0,357.0
2022-02-03-18:03:40.343847,2.0,29.0,356.0
2022-02-03-18:03:40.344844,2.0,29.0,356.0
2022-02-03-18:03:40.345841,3.0,34.0,357.0
2022-02-03-18:03:40.346838,0.0,18.0,355.0
2022-02-03-18:03:40.347835,0.0,18.0,355.0
2022-02-03-18:03:40.348833,0.0,18.0,355.0
2022-02-03-18:03:40.349831,2.0,18.0,356.0
2022-02-03-18:03:40.350834,1.0,11.0,355.0
2022-02-03-18:03:40.351801,8.0,21.0,354.0
2022-02-03-18:03:40.352838,8.0,21.0,354.0
2022-02-03-18:03:40.353820,2.0,4.0,354.0
2022-02-03-18:03:40.354816,2.0,4.0,354.0
2022-02-03-18:03:40.355823,12.0,28.0,354.0
2022-02-03-18:03:40.357044,16.0,32.0,354.0
2022-02-03-18:03:40.357044,23.0,24.0,353.0
2022-02-03-18:03:40.358098,19.0,5.0,353.0
2022-02-03-18:03:40.359095,8.0,22.0,353.0
2022-02-03-18:03:40.360140,8.0,22.0,353.0
2022-02-03-18:03:40.360140,8.0,22.0,353.0
2022-02-03-18:03:40.361372,8.0,22.0,353.0
2022-02-03-18:03:40.361372,1.0,32.0,353.0
2022-02-03-18:03:40.362426,0.0,25.0,352.0
2022-02-03-18:03:40.363425,1.0,20.0,353.0
2022-02-03-18:03:40.364471,1.0,20.0,353.0
2022-02-03-18:03:40.364471,1.0,20.0,353.0
2022-02-03-18:03:40.365698,1.0,20.0,353.0
2022-02-03-18:03:40.365698,1.0,17.0,352.0
2022-02-03-18:03:40.366753,2.0,12.0,352.0
2022-02-03-18:03:40.367751,9.0,22.0,352.0
2022-02-03-18:03:40.368693,9.0,22.0,352.0
2022-02-03-18:03:40.369750,9.0,22.0,352.0
2022-02-03-18:03:40.371732,9.0,13.0,352.0
2022-02-03-18:03:40.372683,12.0,29.0,351.0
2022-02-03-18:03:40.372683,12.0,29.0,351.0
2022-02-03-18:03:40.373894,12.0,29.0,351.0
2022-02-03-18:03:40.373894,17.0,28.0,351.0
2022-02-03-18:03:40.374989,22.0,9.0,351.0
2022-02-03-18:03:40.374989,10.0,14.0,350.0
2022-02-03-18:03:40.375988,10.0,14.0,350.0
2022-02-03-18:03:40.377038,10.0,14.0,350.0
2022-02-03-18:03:40.378029,10.0,14.0,350.0
2022-02-03-18:03:40.379255,3.0,31.0,350.0
2022-02-03-18:03:40.379255,5.0,27.0,350.0
2022-02-03-18:03:40.380303,4.0,25.0,350.0
2022-02-03-18:03:40.381299,4.0,25.0,350.0
2022-02-03-18:03:40.382296,4.0,25.0,350.0
2022-02-03-18:03:40.383295,4.0,14.0,350.0
2022-02-03-18:03:40.384290,4.0,14.0,350.0
2022-02-03-18:03:40.385248,4.0,14.0,350.0
2022-02-03-18:03:40.386294,4.0,14.0,350.0
2022-02-03-18:03:40.387283,11.0,22.0,349.0
2022-02-03-18:03:40.388287,6.0,19.0,349.0
2022-02-03-18:03:40.389277,10.0,31.0,349.0
2022-02-03-18:03:40.390275,10.0,31.0,349.0
2022-02-03-18:03:40.391274,20.0,29.0,348.0
2022-02-03-18:03:40.392306,14.0,1.0,348.0
2022-02-03-18:03:40.392306,14.0,1.0,348.0
2022-02-03-18:03:40.393357,14.0,1.0,348.0
2022-02-03-18:03:40.394529,14.0,1.0,348.0
2022-02-03-18:03:40.394529,3.0,26.0,347.0
2022-02-03-18:03:40.395577,3.0,31.0,347.0
2022-02-03-18:03:40.396609,4.0,26.0,348.0
2022-02-03-18:03:40.396609,4.0,26.0,348.0
2022-02-03-18:03:40.397632,4.0,26.0,348.0
2022-02-03-18:03:40.398638,4.0,26.0,348.0
2022-02-03-18:03:40.399636,1.0,25.0,347.0
2022-02-03-18:03:40.400633,0.0,11.0,346.0
2022-02-03-18:03:40.401630,1.0,12.0,347.0
2022-02-03-18:03:40.402783,1.0,12.0,347.0
2022-02-03-18:03:40.402783,7.0,25.0,347.0
2022-02-03-18:03:40.403830,1.0,10.0,347.0
2022-02-03-18:03:40.404826,12.0,27.0,346.0
2022-02-03-18:03:40.405836,12.0,27.0,346.0
2022-02-03-18:03:40.406821,12.0,27.0,346.0
2022-02-03-18:03:40.408819,22.0,31.0,346.0
2022-02-03-18:03:40.408819,20.0,4.0,346.0
2022-02-03-18:03:40.409877,20.0,4.0,346.0
2022-02-03-18:03:40.409877,20.0,4.0,346.0
2022-02-03-18:03:40.411131,20.0,4.0,346.0
2022-02-03-18:03:40.411131,6.0,21.0,346.0
2022-02-03-18:03:40.412184,1.0,30.0,345.0
2022-02-03-18:03:40.413180,2.0,30.0,345.0
2022-02-03-18:03:40.414172,2.0,30.0,345.0
2022-02-03-18:03:40.415148,0.0,21.0,345.0
2022-02-03-18:03:40.416166,1.0,13.0,345.0
2022-02-03-18:03:40.417165,3.0,11.0,344.0
2022-02-03-18:03:40.418129,3.0,11.0,344.0
2022-02-03-18:03:40.419194,3.0,11.0,344.0
2022-02-03-18:03:40.419194,3.0,17.0,344.0
2022-02-03-18:03:40.420248,3.0,17.0,344.0
2022-02-03-18:03:40.421246,8.0,23.0,344.0
2022-02-03-18:03:40.422242,8.0,23.0,344.0
2022-02-03-18:03:40.423244,22.0,30.0,343.0
2022-02-03-18:03:40.424238,23.0,10.0,343.0
2022-02-03-18:03:40.425236,23.0,10.0,343.0
2022-02-03-18:03:40.426232,23.0,10.0,343.0
2022-02-03-18:03:40.427230,23.0,10.0,343.0
2022-02-03-18:03:40.428227,13.0,19.0,343.0
2022-02-03-18:03:40.429225,2.0,29.0,343.0
2022-02-03-18:03:40.430335,4.0,33.0,342.0
2022-02-03-18:03:40.430335,4.0,33.0,342.0
2022-02-03-18:03:40.431381,4.0,33.0,342.0
2022-02-03-18:03:40.432659,1.0,23.0,342.0
2022-02-03-18:03:40.432659,3.0,22.0,342.0
2022-02-03-18:03:40.433693,3.0,22.0,342.0
2022-02-03-18:03:40.434696,2.0,17.0,343.0
2022-02-03-18:03:40.435654,2.0,16.0,342.0
2022-02-03-18:03:40.436792,5.0,18.0,341.0
2022-02-03-18:03:40.436792,5.0,18.0,341.0
2022-02-03-18:03:40.437847,5.0,18.0,341.0
2022-02-03-18:03:40.439842,5.0,18.0,341.0
2022-02-03-18:03:40.440784,23.0,22.0,341.0
2022-02-03-18:03:40.440982,23.0,22.0,341.0
2022-02-03-18:03:40.440982,23.0,22.0,341.0
2022-02-03-18:03:40.442029,23.0,22.0,341.0
2022-02-03-18:03:40.443196,23.0,22.0,341.0
2022-02-03-18:03:40.443196,15.0,2.0,341.0
2022-02-03-18:03:40.444230,15.0,2.0,341.0
2022-02-03-18:03:40.445225,2.0,29.0,342.0
2022-02-03-18:03:40.446223,2.0,29.0,342.0
2022-02-03-18:03:40.447188,2.0,29.0,342.0
2022-02-03-18:03:40.448217,4.0,26.0,341.0
2022-02-03-18:03:40.449215,2.0,14.0,341.0
2022-02-03-18:03:40.450273,2.0,15.0,341.0
2022-02-03-18:03:40.450273,2.0,15.0,341.0
2022-02-03-18:03:40.451497,2.0,15.0,341.0
2022-02-03-18:03:40.451497,1.0,11.0,341.0
2022-02-03-18:03:40.452497,1.0,11.0,341.0
2022-02-03-18:03:40.453526,1.0,9.0,340.0
2022-02-03-18:03:40.454590,1.0,9.0,340.0
2022-02-03-18:03:40.454590,1.0,9.0,340.0
2022-02-03-18:03:40.455636,1.0,9.0,340.0
2022-02-03-18:03:40.456994,11.0,29.0,341.0
2022-02-03-18:03:40.456994,11.0,29.0,341.0
2022-02-03-18:03:40.458025,11.0,29.0,341.0
2022-02-03-18:03:40.459083,20.0,28.0,341.0
2022-02-03-18:03:40.459083,24.0,28.0,341.0
2022-02-03-18:03:40.460138,7.0,24.0,340.0
2022-02-03-18:03:40.461255,1.0,32.0,341.0
2022-02-03-18:03:40.461255,1.0,32.0,341.0
2022-02-03-18:03:40.462301,1.0,32.0,341.0
2022-02-03-18:03:40.463578,1.0,32.0,341.0
2022-02-03-18:03:40.463752,4.0,30.0,340.0
2022-02-03-18:03:40.463752,3.0,14.0,340.0
2022-02-03-18:03:40.464806,1.0,17.0,341.0
2022-02-03-18:03:40.465804,1.0,17.0,341.0
2022-02-03-18:03:40.466802,1.0,17.0,341.0
2022-02-03-18:03:40.467799,1.0,17.0,341.0
2022-02-03-18:03:40.468742,1.0,13.0,341.0
2022-02-03-18:03:40.469793,7.0,18.0,340.0
2022-02-03-18:03:40.470791,0.0,4.0,340.0
2022-02-03-18:03:40.471734,0.0,4.0,340.0
2022-02-03-18:03:40.472787,6.0,20.0,340.0
2022-02-03-18:03:40.474725,13.0,28.0,340.0
2022-02-03-18:03:40.474725,27.0,32.0,340.0
2022-02-03-18:03:40.475723,27.0,32.0,340.0
2022-02-03-18:03:40.476755,21.0,10.0,340.0
2022-02-03-18:03:40.477749,2.0,32.0,340.0
2022-02-03-18:03:40.478749,2.0,32.0,340.0
2022-02-03-18:03:40.479744,2.0,32.0,340.0
2022-02-03-18:03:40.480741,2.0,32.0,340.0
2022-02-03-18:03:40.481747,2.0,20.0,340.0
2022-02-03-18:03:40.482798,0.0,19.0,340.0
2022-02-03-18:03:40.482798,0.0,19.0,340.0
2022-02-03-18:03:40.484050,0.0,19.0,340.0
2022-02-03-18:03:40.484050,4.0,15.0,340.0
2022-02-03-18:03:40.485082,4.0,15.0,340.0
2022-02-03-18:03:40.486079,2.0,7.0,339.0
2022-02-03-18:03:40.487145,2.0,7.0,339.0
2022-02-03-18:03:40.487145,2.0,7.0,339.0
2022-02-03-18:03:40.488191,2.0,7.0,339.0
2022-02-03-18:03:40.489188,8.0,13.0,340.0
2022-02-03-18:03:40.490186,14.0,30.0,339.0
2022-02-03-18:03:40.491136,25.0,29.0,340.0
