2022-02-08-11:32:18.798500,3.0,4.0,432.0
2022-02-08-11:32:18.799441,3.0,14.0,432.0
2022-02-08-11:32:18.800439,9.0,18.0,431.0
2022-02-08-11:32:18.801465,4.0,15.0,432.0
2022-02-08-11:32:18.801465,2.0,6.0,432.0
2022-02-08-11:32:18.802477,3.0,2.0,431.0
2022-02-08-11:32:18.803433,8.0,1.0,431.0
2022-02-08-11:32:18.805451,8.0,11.0,431.0
2022-02-08-11:32:18.806423,12.0,38.0,432.0
2022-02-08-11:32:18.806423,11.0,18.0,431.0
2022-02-08-11:32:18.807459,8.0,8.0,431.0
2022-02-08-11:32:18.808442,5.0,28.0,431.0
2022-02-08-11:32:18.809415,4.0,13.0,432.0
2022-02-08-11:32:18.810411,7.0,9.0,432.0
2022-02-08-11:32:18.811437,3.0,13.0,431.0
2022-02-08-11:32:18.812432,12.0,0.0,431.0
2022-02-08-11:32:18.813451,7.0,11.0,431.0
2022-02-08-11:32:18.814403,10.0,6.0,431.0
2022-02-08-11:32:18.815457,14.0,7.0,432.0
2022-02-08-11:32:18.816418,11.0,1.0,432.0
2022-02-08-11:32:18.817395,2.0,33.0,432.0
2022-02-08-11:32:18.818398,6.0,4.0,431.0
2022-02-08-11:32:18.819425,5.0,11.0,431.0
2022-02-08-11:32:18.820385,12.0,29.0,431.0
2022-02-08-11:32:18.821402,7.0,1.0,432.0
2022-02-08-11:32:18.822384,2.0,1.0,431.0
2022-02-08-11:32:18.823404,3.0,5.0,431.0
2022-02-08-11:32:18.824400,0.0,3.0,431.0
2022-02-08-11:32:18.825375,5.0,52.0,432.0
2022-02-08-11:32:18.826414,3.0,7.0,431.0
2022-02-08-11:32:18.827397,4.0,34.0,432.0
2022-02-08-11:32:18.828397,6.0,16.0,431.0
2022-02-08-11:32:18.829404,9.0,26.0,432.0
2022-02-08-11:32:18.830394,5.0,24.0,431.0
2022-02-08-11:32:18.831406,8.0,12.0,431.0
2022-02-08-11:32:18.832400,12.0,4.0,431.0
2022-02-08-11:32:18.833382,7.0,2.0,431.0
2022-02-08-11:32:18.834371,7.0,2.0,431.0
2022-02-08-11:32:18.835364,0.0,15.0,431.0
2022-02-08-11:32:18.836360,6.0,19.0,431.0
2022-02-08-11:32:18.837354,2.0,6.0,432.0
2022-02-08-11:32:18.840334,11.0,2.0,432.0
2022-02-08-11:32:18.840334,2.0,13.0,432.0
2022-02-08-11:32:18.841364,1.0,23.0,432.0
2022-02-08-11:32:18.842360,4.0,7.0,431.0
2022-02-08-11:32:18.843325,1.0,17.0,432.0
2022-02-08-11:32:18.844370,4.0,12.0,431.0
2022-02-08-11:32:18.845362,5.0,10.0,431.0
2022-02-08-11:32:18.846351,12.0,11.0,432.0
2022-02-08-11:32:18.847316,5.0,15.0,431.0
2022-02-08-11:32:18.848375,16.0,8.0,432.0
2022-02-08-11:32:18.849329,12.0,1.0,431.0
2022-02-08-11:32:18.850437,8.0,5.0,431.0
2022-02-08-11:32:18.851359,6.0,4.0,431.0
2022-02-08-11:32:18.852408,2.0,9.0,431.0
2022-02-08-11:32:18.853300,2.0,7.0,431.0
2022-02-08-11:32:18.854337,1.0,1.0,432.0
2022-02-08-11:32:18.855335,7.0,1.0,431.0
2022-02-08-11:32:18.856291,6.0,14.0,431.0
2022-02-08-11:32:18.857287,1.0,1.0,432.0
2022-02-08-11:32:18.858349,1.0,8.0,432.0
2022-02-08-11:32:18.859337,3.0,3.0,431.0
2022-02-08-11:32:18.860344,0.0,1.0,431.0
2022-02-08-11:32:18.861332,3.0,6.0,431.0
2022-02-08-11:32:18.862338,4.0,8.0,432.0
2022-02-08-11:32:18.863321,3.0,1.0,432.0
2022-02-08-11:32:18.864268,9.0,5.0,431.0
2022-02-08-11:32:18.865276,9.0,6.0,431.0
2022-02-08-11:32:18.866276,11.0,9.0,432.0
2022-02-08-11:32:18.867260,4.0,4.0,432.0
2022-02-08-11:32:18.868292,3.0,4.0,431.0
2022-02-08-11:32:18.869297,2.0,2.0,431.0
2022-02-08-11:32:18.870288,6.0,2.0,431.0
2022-02-08-11:32:18.871284,9.0,20.0,431.0
2022-02-08-11:32:18.872257,11.0,21.0,431.0
2022-02-08-11:32:18.873284,0.0,3.0,432.0
2022-02-08-11:32:18.874242,4.0,3.0,431.0
2022-02-08-11:32:18.876236,2.0,18.0,431.0
2022-02-08-11:32:18.877237,4.0,3.0,432.0
2022-02-08-11:32:18.877237,12.0,2.0,432.0
2022-02-08-11:32:18.878239,1.0,27.0,432.0
2022-02-08-11:32:18.879296,1.0,16.0,431.0
2022-02-08-11:32:18.880251,1.0,13.0,432.0
2022-02-08-11:32:18.881268,12.0,7.0,432.0
2022-02-08-11:32:18.882222,2.0,2.0,431.0
2022-02-08-11:32:18.883263,3.0,0.0,432.0
2022-02-08-11:32:18.884215,5.0,6.0,431.0
2022-02-08-11:32:18.885256,9.0,6.0,432.0
2022-02-08-11:32:18.886263,8.0,13.0,432.0
2022-02-08-11:32:18.887252,0.0,51.0,432.0
2022-02-08-11:32:18.888205,6.0,55.0,431.0
2022-02-08-11:32:18.889201,3.0,48.0,432.0
2022-02-08-11:32:18.890245,8.0,1.0,431.0
2022-02-08-11:32:18.891246,11.0,20.0,432.0
2022-02-08-11:32:18.892223,2.0,13.0,432.0
2022-02-08-11:32:18.893264,1.0,12.0,431.0
2022-02-08-11:32:18.894235,0.0,7.0,431.0
2022-02-08-11:32:18.895185,0.0,5.0,431.0
2022-02-08-11:32:18.896190,8.0,5.0,431.0
2022-02-08-11:32:18.897187,2.0,11.0,432.0
2022-02-08-11:32:18.898223,3.0,3.0,432.0
2022-02-08-11:32:18.899201,11.0,4.0,431.0
2022-02-08-11:32:18.900211,9.0,37.0,431.0
2022-02-08-11:32:18.901206,1.0,12.0,431.0
2022-02-08-11:32:18.902193,7.0,25.0,431.0
2022-02-08-11:32:18.903188,4.0,3.0,431.0
2022-02-08-11:32:18.904210,9.0,5.0,431.0
2022-02-08-11:32:18.906156,7.0,19.0,432.0
2022-02-08-11:32:18.907154,3.0,5.0,431.0
2022-02-08-11:32:18.908175,0.0,0.0,432.0
2022-02-08-11:32:18.908175,0.0,0.0,432.0
2022-02-08-11:32:18.909149,0.0,0.0,432.0
2022-02-08-11:32:18.910171,11.0,18.0,431.0
2022-02-08-11:32:18.911168,11.0,18.0,431.0
2022-02-08-11:32:18.912151,11.0,18.0,431.0
2022-02-08-11:32:18.913138,11.0,18.0,431.0
2022-02-08-11:32:18.914135,4.0,11.0,431.0
2022-02-08-11:32:18.915161,2.0,11.0,432.0
2022-02-08-11:32:18.916155,2.0,11.0,432.0
2022-02-08-11:32:18.917172,2.0,11.0,432.0
2022-02-08-11:32:18.918168,2.0,6.0,431.0
2022-02-08-11:32:18.919153,1.0,0.0,432.0
2022-02-08-11:32:18.920171,1.0,0.0,432.0
2022-02-08-11:32:18.921154,1.0,0.0,432.0
2022-02-08-11:32:18.922162,5.0,19.0,431.0
2022-02-08-11:32:18.923114,5.0,19.0,431.0
2022-02-08-11:32:18.924146,5.0,19.0,431.0
2022-02-08-11:32:18.925108,5.0,19.0,431.0
2022-02-08-11:32:18.926118,9.0,4.0,431.0
2022-02-08-11:32:18.927148,8.0,5.0,432.0
2022-02-08-11:32:18.928100,8.0,5.0,432.0
2022-02-08-11:32:18.929107,8.0,5.0,432.0
2022-02-08-11:32:18.930137,10.0,13.0,431.0
2022-02-08-11:32:18.931142,4.0,0.0,432.0
2022-02-08-11:32:18.932130,4.0,0.0,432.0
2022-02-08-11:32:18.933132,4.0,0.0,432.0
2022-02-08-11:32:18.934128,4.0,0.0,432.0
2022-02-08-11:32:18.935126,1.0,7.0,431.0
2022-02-08-11:32:18.936115,1.0,7.0,431.0
2022-02-08-11:32:18.937085,1.0,7.0,431.0
2022-02-08-11:32:18.938103,1.0,7.0,431.0
2022-02-08-11:32:18.939088,1.0,2.0,431.0
2022-02-08-11:32:18.941095,1.0,2.0,431.0
2022-02-08-11:32:18.941095,10.0,9.0,431.0
2022-02-08-11:32:18.942107,10.0,7.0,432.0
2022-02-08-11:32:18.943058,10.0,7.0,432.0
2022-02-08-11:32:18.944103,10.0,7.0,432.0
2022-02-08-11:32:18.945086,10.0,7.0,432.0
2022-02-08-11:32:18.946093,10.0,7.0,432.0
2022-02-08-11:32:18.947081,9.0,9.0,431.0
2022-02-08-11:32:18.948098,0.0,2.0,432.0
2022-02-08-11:32:18.949073,0.0,2.0,432.0
2022-02-08-11:32:18.950041,0.0,2.0,432.0
2022-02-08-11:32:18.951090,5.0,3.0,431.0
2022-02-08-11:32:18.952070,5.0,3.0,431.0
2022-02-08-11:32:18.953064,5.0,3.0,431.0
2022-02-08-11:32:18.954077,5.0,3.0,431.0
2022-02-08-11:32:18.955067,4.0,16.0,432.0
2022-02-08-11:32:18.956054,2.0,10.0,431.0
2022-02-08-11:32:18.957032,2.0,10.0,431.0
2022-02-08-11:32:18.958057,2.0,10.0,431.0
2022-02-08-11:32:18.959067,6.0,4.0,432.0
2022-02-08-11:32:18.960055,10.0,1.0,432.0
2022-02-08-11:32:18.961042,10.0,1.0,432.0
2022-02-08-11:32:18.962007,10.0,1.0,432.0
2022-02-08-11:32:18.963005,3.0,3.0,431.0
2022-02-08-11:32:18.964038,3.0,3.0,431.0
2022-02-08-11:32:18.965039,3.0,3.0,431.0
2022-02-08-11:32:18.965999,3.0,3.0,431.0
2022-02-08-11:32:18.967040,1.0,1.0,432.0
2022-02-08-11:32:18.968034,2.0,5.0,431.0
2022-02-08-11:32:18.969025,2.0,5.0,431.0
2022-02-08-11:32:18.970018,2.0,5.0,431.0
2022-02-08-11:32:18.971032,2.0,6.0,432.0
2022-02-08-11:32:18.972013,1.0,2.0,431.0
2022-02-08-11:32:18.974008,1.0,2.0,431.0
2022-02-08-11:32:18.974008,8.0,8.0,432.0
2022-02-08-11:32:18.975004,11.0,2.0,432.0
2022-02-08-11:32:18.975970,11.0,2.0,432.0
2022-02-08-11:32:18.977000,11.0,2.0,432.0
2022-02-08-11:32:18.978013,11.0,2.0,432.0
2022-02-08-11:32:18.979004,11.0,2.0,432.0
2022-02-08-11:32:18.979991,3.0,9.0,431.0
2022-02-08-11:32:18.981005,3.0,9.0,431.0
2022-02-08-11:32:18.981987,3.0,9.0,431.0
2022-02-08-11:32:18.982993,3.0,9.0,431.0
2022-02-08-11:32:18.983980,1.0,1.0,431.0
2022-02-08-11:32:18.984978,3.0,0.0,431.0
2022-02-08-11:32:18.985988,3.0,0.0,431.0
2022-02-08-11:32:18.986987,3.0,0.0,431.0
2022-02-08-11:32:18.987970,5.0,3.0,431.0
2022-02-08-11:32:18.988935,1.0,5.0,431.0
2022-02-08-11:32:18.989982,1.0,5.0,431.0
2022-02-08-11:32:18.990978,1.0,5.0,431.0
2022-02-08-11:32:18.991971,4.0,7.0,431.0
2022-02-08-11:32:18.992930,8.0,5.0,432.0
2022-02-08-11:32:18.993971,8.0,5.0,432.0
2022-02-08-11:32:18.994964,8.0,5.0,432.0
2022-02-08-11:32:18.995961,10.0,5.0,431.0
2022-02-08-11:32:18.996957,3.0,0.0,431.0
2022-02-08-11:32:18.997959,3.0,0.0,431.0
2022-02-08-11:32:18.998917,3.0,0.0,431.0
2022-02-08-11:32:18.999947,6.0,7.0,432.0
2022-02-08-11:32:19.000936,6.0,7.0,432.0
2022-02-08-11:32:19.001899,6.0,7.0,432.0
2022-02-08-11:32:19.002898,6.0,7.0,432.0
2022-02-08-11:32:19.003939,3.0,6.0,431.0
2022-02-08-11:32:19.004936,2.0,3.0,432.0
2022-02-08-11:32:19.005890,0.0,1.0,431.0
2022-02-08-11:32:19.007916,0.0,1.0,431.0
2022-02-08-11:32:19.008915,12.0,6.0,431.0
2022-02-08-11:32:19.008915,12.0,6.0,431.0
2022-02-08-11:32:19.009935,12.0,6.0,431.0
2022-02-08-11:32:19.010910,12.0,6.0,431.0
2022-02-08-11:32:19.011906,12.0,6.0,432.0
2022-02-08-11:32:19.012913,4.0,9.0,432.0
2022-02-08-11:32:19.013915,4.0,4.0,431.0
2022-02-08-11:32:19.014866,4.0,4.0,431.0
2022-02-08-11:32:19.015894,4.0,4.0,431.0
2022-02-08-11:32:19.016904,5.0,4.0,431.0
2022-02-08-11:32:19.017889,1.0,5.0,431.0
2022-02-08-11:32:19.018899,1.0,5.0,431.0
2022-02-08-11:32:19.019885,1.0,5.0,431.0
2022-02-08-11:32:19.020901,2.0,5.0,432.0
2022-02-08-11:32:19.021890,4.0,1.0,432.0
2022-02-08-11:32:19.022876,5.0,3.0,432.0
2022-02-08-11:32:19.023862,5.0,3.0,432.0
2022-02-08-11:32:19.024879,8.0,7.0,431.0
2022-02-08-11:32:19.025868,8.0,7.0,431.0
2022-02-08-11:32:19.026887,8.0,7.0,431.0
2022-02-08-11:32:19.027831,8.0,7.0,431.0
2022-02-08-11:32:19.028870,11.0,13.0,432.0
2022-02-08-11:32:19.029861,7.0,14.0,432.0
2022-02-08-11:32:19.030873,7.0,14.0,432.0
2022-02-08-11:32:19.031863,7.0,14.0,432.0
2022-02-08-11:32:19.032850,4.0,4.0,431.0
2022-02-08-11:32:19.033846,3.0,3.0,432.0
2022-02-08-11:32:19.034846,3.0,3.0,432.0
2022-02-08-11:32:19.035818,3.0,3.0,432.0
2022-02-08-11:32:19.036851,1.0,9.0,431.0
2022-02-08-11:32:19.037838,4.0,6.0,431.0
2022-02-08-11:32:19.038851,4.0,6.0,431.0
2022-02-08-11:32:19.039800,4.0,6.0,431.0
2022-02-08-11:32:19.041832,4.0,3.0,431.0
2022-02-08-11:32:19.041832,4.0,3.0,431.0
2022-02-08-11:32:19.042820,5.0,2.0,432.0
2022-02-08-11:32:19.043789,5.0,2.0,432.0
2022-02-08-11:32:19.044830,5.0,2.0,432.0
2022-02-08-11:32:19.045816,6.0,6.0,431.0
2022-02-08-11:32:19.046830,6.0,6.0,431.0
2022-02-08-11:32:19.047821,6.0,6.0,431.0
2022-02-08-11:32:19.048817,1.0,2.0,432.0
2022-02-08-11:32:19.049813,4.0,2.0,431.0
2022-02-08-11:32:19.050811,4.0,2.0,431.0
2022-02-08-11:32:19.051818,4.0,2.0,431.0
2022-02-08-11:32:19.052796,4.0,2.0,431.0
2022-02-08-11:32:19.053762,3.0,2.0,431.0
2022-02-08-11:32:19.054799,1.0,4.0,431.0
2022-02-08-11:32:19.055767,1.0,4.0,431.0
2022-02-08-11:32:19.056792,1.0,4.0,431.0
2022-02-08-11:32:19.057783,0.0,5.0,432.0
2022-02-08-11:32:19.058782,9.0,17.0,431.0
2022-02-08-11:32:19.059779,9.0,17.0,431.0
2022-02-08-11:32:19.060787,9.0,17.0,431.0
2022-02-08-11:32:19.061792,7.0,12.0,432.0
2022-02-08-11:32:19.062781,6.0,5.0,431.0
2022-02-08-11:32:19.063774,6.0,5.0,431.0
2022-02-08-11:32:19.064765,6.0,5.0,431.0
2022-02-08-11:32:19.065777,6.0,3.0,431.0
2022-02-08-11:32:19.066728,7.0,2.0,432.0
2022-02-08-11:32:19.067774,7.0,2.0,432.0
2022-02-08-11:32:19.068754,7.0,2.0,432.0
2022-02-08-11:32:19.069776,7.0,6.0,431.0
2022-02-08-11:32:19.070748,4.0,2.0,432.0
2022-02-08-11:32:19.071717,4.0,2.0,432.0
2022-02-08-11:32:19.072711,4.0,2.0,432.0
2022-02-08-11:32:19.074741,11.0,6.0,432.0
2022-02-08-11:32:19.074741,11.0,6.0,432.0
2022-02-08-11:32:19.075745,11.0,6.0,432.0
2022-02-08-11:32:19.076700,11.0,6.0,432.0
2022-02-08-11:32:19.077742,8.0,10.0,431.0
2022-02-08-11:32:19.078743,12.0,4.0,432.0
2022-02-08-11:32:19.079706,8.0,10.0,431.0
2022-02-08-11:32:19.080699,8.0,10.0,431.0
2022-02-08-11:32:19.081719,7.0,9.0,432.0
2022-02-08-11:32:19.082735,4.0,9.0,431.0
2022-02-08-11:32:19.083713,2.0,4.0,431.0
2022-02-08-11:32:19.084712,2.0,4.0,431.0
2022-02-08-11:32:19.085722,1.0,6.0,431.0
2022-02-08-11:32:19.086705,2.0,4.0,431.0
2022-02-08-11:32:19.087719,2.0,4.0,431.0
2022-02-08-11:32:19.088705,0.0,9.0,431.0
2022-02-08-11:32:19.089713,0.0,9.0,431.0
2022-02-08-11:32:19.090689,2.0,7.0,432.0
2022-02-08-11:32:19.091693,4.0,3.0,431.0
2022-02-08-11:32:19.092705,9.0,1.0,431.0
2022-02-08-11:32:19.093708,9.0,1.0,431.0
2022-02-08-11:32:19.094699,9.0,4.0,431.0
2022-02-08-11:32:19.095698,11.0,14.0,432.0
2022-02-08-11:32:19.096680,11.0,14.0,432.0
2022-02-08-11:32:19.097688,11.0,14.0,432.0
2022-02-08-11:32:19.098676,8.0,7.0,431.0
2022-02-08-11:32:19.099682,3.0,1.0,431.0
2022-02-08-11:32:19.100677,3.0,1.0,431.0
2022-02-08-11:32:19.101683,3.0,1.0,431.0
2022-02-08-11:32:19.102686,2.0,2.0,432.0
2022-02-08-11:32:19.103666,1.0,13.0,432.0
2022-02-08-11:32:19.104659,1.0,13.0,432.0
2022-02-08-11:32:19.105674,1.0,13.0,432.0
2022-02-08-11:32:19.106656,1.0,5.0,432.0
2022-02-08-11:32:19.108647,1.0,5.0,432.0
2022-02-08-11:32:19.108647,7.0,5.0,431.0
2022-02-08-11:32:19.109613,9.0,6.0,432.0
2022-02-08-11:32:19.110625,7.0,4.0,431.0
2022-02-08-11:32:19.111645,13.0,11.0,431.0
2022-02-08-11:32:19.112629,13.0,11.0,431.0
2022-02-08-11:32:19.113602,13.0,11.0,431.0
2022-02-08-11:32:19.114643,10.0,7.0,431.0
2022-02-08-11:32:19.115628,2.0,3.0,431.0
2022-02-08-11:32:19.116632,1.0,2.0,432.0
2022-02-08-11:32:19.117592,1.0,2.0,432.0
2022-02-08-11:32:19.118620,8.0,1.0,432.0
2022-02-08-11:32:19.119634,2.0,1.0,432.0
2022-02-08-11:32:19.120630,2.0,1.0,432.0
2022-02-08-11:32:19.121626,2.0,1.0,432.0
2022-02-08-11:32:19.122585,0.0,9.0,431.0
2022-02-08-11:32:19.123616,8.0,2.0,431.0
2022-02-08-11:32:19.124616,8.0,2.0,431.0
2022-02-08-11:32:19.125618,8.0,2.0,431.0
2022-02-08-11:32:19.126614,8.0,2.0,431.0
2022-02-08-11:32:19.127615,9.0,6.0,432.0
2022-02-08-11:32:19.128611,12.0,15.0,431.0
2022-02-08-11:32:19.129603,12.0,15.0,431.0
2022-02-08-11:32:19.130617,12.0,15.0,431.0
2022-02-08-11:32:19.131588,3.0,3.0,431.0
2022-02-08-11:32:19.132602,3.0,2.0,431.0
2022-02-08-11:32:19.133547,3.0,2.0,431.0
2022-02-08-11:32:19.134552,3.0,2.0,431.0
2022-02-08-11:32:19.135584,1.0,11.0,431.0
2022-02-08-11:32:19.136588,5.0,16.0,431.0
2022-02-08-11:32:19.137570,5.0,16.0,431.0
2022-02-08-11:32:19.138582,5.0,16.0,431.0
2022-02-08-11:32:19.139533,3.0,11.0,432.0
2022-02-08-11:32:19.140562,7.0,6.0,431.0
2022-02-08-11:32:19.142556,7.0,6.0,431.0
2022-02-08-11:32:19.142556,8.0,5.0,431.0
2022-02-08-11:32:19.143523,8.0,2.0,431.0
2022-02-08-11:32:19.144553,8.0,2.0,431.0
2022-02-08-11:32:19.145559,8.0,2.0,431.0
2022-02-08-11:32:19.146567,8.0,2.0,431.0
2022-02-08-11:32:19.147554,7.0,3.0,431.0
2022-02-08-11:32:19.148540,5.0,9.0,432.0
2022-02-08-11:32:19.149540,5.0,9.0,432.0
2022-02-08-11:32:19.150534,5.0,9.0,432.0
2022-02-08-11:32:19.151545,2.0,3.0,432.0
2022-02-08-11:32:19.152548,5.0,8.0,431.0
2022-02-08-11:32:19.153535,5.0,8.0,431.0
2022-02-08-11:32:19.154494,5.0,8.0,431.0
2022-02-08-11:32:19.155534,1.0,6.0,432.0
2022-02-08-11:32:19.156522,1.0,5.0,432.0
2022-02-08-11:32:19.157516,1.0,5.0,432.0
2022-02-08-11:32:19.158488,1.0,5.0,432.0
2022-02-08-11:32:19.159497,6.0,3.0,431.0
2022-02-08-11:32:19.160499,9.0,6.0,431.0
2022-02-08-11:32:19.161506,9.0,6.0,431.0
2022-02-08-11:32:19.162524,9.0,6.0,431.0
2022-02-08-11:32:19.163513,9.0,6.0,431.0
2022-02-08-11:32:19.164516,12.0,12.0,431.0
2022-02-08-11:32:19.165496,3.0,11.0,432.0
2022-02-08-11:32:19.166493,3.0,5.0,431.0
2022-02-08-11:32:19.167489,3.0,5.0,431.0
2022-02-08-11:32:19.168493,4.0,5.0,432.0
2022-02-08-11:32:19.169494,4.0,7.0,432.0
2022-02-08-11:32:19.170450,4.0,7.0,432.0
2022-02-08-11:32:19.171494,4.0,7.0,432.0
2022-02-08-11:32:19.172476,5.0,6.0,431.0
2022-02-08-11:32:19.173490,4.0,7.0,432.0
2022-02-08-11:32:19.174471,4.0,7.0,432.0
2022-02-08-11:32:19.175484,4.0,7.0,432.0
2022-02-08-11:32:19.177464,8.0,6.0,431.0
2022-02-08-11:32:19.177464,8.0,6.0,431.0
2022-02-08-11:32:19.178480,12.0,5.0,431.0
2022-02-08-11:32:19.179470,8.0,8.0,432.0
2022-02-08-11:32:19.180428,13.0,17.0,432.0
2022-02-08-11:32:19.181426,7.0,13.0,432.0
2022-02-08-11:32:19.182472,3.0,6.0,432.0
2022-02-08-11:32:19.183467,3.0,6.0,432.0
2022-02-08-11:32:19.184461,4.0,2.0,431.0
2022-02-08-11:32:19.185441,4.0,2.0,431.0
2022-02-08-11:32:19.186444,4.0,2.0,431.0
2022-02-08-11:32:19.187436,4.0,2.0,431.0
2022-02-08-11:32:19.188445,2.0,1.0,431.0
2022-02-08-11:32:19.189399,1.0,2.0,432.0
2022-02-08-11:32:19.190430,2.0,4.0,431.0
2022-02-08-11:32:19.191394,2.0,4.0,431.0
2022-02-08-11:32:19.192424,6.0,1.0,431.0
2022-02-08-11:32:19.193428,10.0,5.0,431.0
2022-02-08-11:32:19.194422,6.0,0.0,432.0
2022-02-08-11:32:19.195384,6.0,0.0,432.0
2022-02-08-11:32:19.196413,13.0,14.0,431.0
2022-02-08-11:32:19.197419,5.0,5.0,431.0
2022-02-08-11:32:19.198398,5.0,5.0,431.0
2022-02-08-11:32:19.199396,5.0,5.0,431.0
2022-02-08-11:32:19.200395,1.0,15.0,432.0
2022-02-08-11:32:19.201391,3.0,16.0,431.0
2022-02-08-11:32:19.202419,3.0,16.0,431.0
2022-02-08-11:32:19.203386,3.0,16.0,431.0
2022-02-08-11:32:19.204391,3.0,16.0,431.0
2022-02-08-11:32:19.205403,1.0,6.0,432.0
2022-02-08-11:32:19.206393,1.0,6.0,432.0
2022-02-08-11:32:19.207351,1.0,6.0,432.0
2022-02-08-11:32:19.210343,1.0,6.0,432.0
2022-02-08-11:32:19.210343,8.0,2.0,431.0
2022-02-08-11:32:19.211384,8.0,2.0,431.0
2022-02-08-11:32:19.212389,8.0,2.0,431.0
2022-02-08-11:32:19.213370,10.0,6.0,432.0
2022-02-08-11:32:19.214379,3.0,1.0,431.0
2022-02-08-11:32:19.215364,3.0,1.0,431.0
2022-02-08-11:32:19.216364,3.0,1.0,431.0
2022-02-08-11:32:19.217356,2.0,3.0,432.0
2022-02-08-11:32:19.218357,0.0,4.0,432.0
2022-02-08-11:32:19.219370,0.0,4.0,432.0
2022-02-08-11:32:19.220359,0.0,4.0,432.0
2022-02-08-11:32:19.221363,5.0,3.0,431.0
2022-02-08-11:32:19.222343,7.0,3.0,431.0
2022-02-08-11:32:19.223310,1.0,3.0,431.0
2022-02-08-11:32:19.224347,1.0,3.0,431.0
2022-02-08-11:32:19.225327,6.0,4.0,432.0
2022-02-08-11:32:19.226315,6.0,4.0,432.0
2022-02-08-11:32:19.227298,9.0,7.0,431.0
2022-02-08-11:32:19.228302,9.0,7.0,431.0
2022-02-08-11:32:19.229327,12.0,13.0,431.0
2022-02-08-11:32:19.230314,4.0,4.0,431.0
2022-02-08-11:32:19.231340,4.0,4.0,431.0
2022-02-08-11:32:19.232285,4.0,4.0,431.0
2022-02-08-11:32:19.233309,1.0,1.0,432.0
2022-02-08-11:32:19.234323,5.0,2.0,432.0
2022-02-08-11:32:19.235301,2.0,1.0,432.0
2022-02-08-11:32:19.236275,2.0,1.0,432.0
2022-02-08-11:32:19.237305,3.0,12.0,431.0
2022-02-08-11:32:19.238315,1.0,5.0,432.0
2022-02-08-11:32:19.239282,1.0,5.0,432.0
2022-02-08-11:32:19.240273,1.0,5.0,432.0
2022-02-08-11:32:19.241302,1.0,5.0,432.0
2022-02-08-11:32:19.242311,6.0,1.0,431.0
2022-02-08-11:32:19.243287,6.0,1.0,431.0
2022-02-08-11:32:19.245283,6.0,1.0,431.0
2022-02-08-11:32:19.245283,6.0,2.0,431.0
2022-02-08-11:32:19.246279,1.0,1.0,431.0
2022-02-08-11:32:19.247278,1.0,1.0,431.0
2022-02-08-11:32:19.248287,1.0,1.0,431.0
2022-02-08-11:32:19.249275,1.0,1.0,431.0
2022-02-08-11:32:19.250271,5.0,4.0,431.0
2022-02-08-11:32:19.251280,3.0,9.0,431.0
2022-02-08-11:32:19.252263,1.0,4.0,432.0
2022-02-08-11:32:19.253262,1.0,4.0,432.0
2022-02-08-11:32:19.254258,2.0,1.0,432.0
2022-02-08-11:32:19.255264,6.0,8.0,431.0
2022-02-08-11:32:19.256261,6.0,8.0,431.0
2022-02-08-11:32:19.257264,6.0,8.0,431.0
2022-02-08-11:32:19.258249,4.0,4.0,431.0
2022-02-08-11:32:19.259244,4.0,6.0,431.0
2022-02-08-11:32:19.260261,4.0,4.0,432.0
2022-02-08-11:32:19.261258,4.0,4.0,432.0
2022-02-08-11:32:19.262242,7.0,9.0,431.0
2022-02-08-11:32:19.263235,9.0,24.0,432.0
2022-02-08-11:32:19.264247,7.0,29.0,431.0
2022-02-08-11:32:19.265228,7.0,29.0,431.0
2022-02-08-11:32:19.266238,5.0,14.0,431.0
2022-02-08-11:32:19.267225,2.0,1.0,432.0
2022-02-08-11:32:19.268236,2.0,1.0,432.0
2022-02-08-11:32:19.269209,2.0,1.0,432.0
2022-02-08-11:32:19.270216,2.0,12.0,432.0
2022-02-08-11:32:19.271212,4.0,20.0,431.0
2022-02-08-11:32:19.272221,4.0,20.0,431.0
2022-02-08-11:32:19.273176,4.0,20.0,431.0
2022-02-08-11:32:19.274224,0.0,24.0,432.0
2022-02-08-11:32:19.275201,12.0,2.0,431.0
2022-02-08-11:32:19.276186,12.0,2.0,431.0
2022-02-08-11:32:19.277202,12.0,2.0,431.0
2022-02-08-11:32:19.279191,12.0,2.0,431.0
2022-02-08-11:32:19.279191,3.0,14.0,432.0
2022-02-08-11:32:19.280190,3.0,14.0,432.0
2022-02-08-11:32:19.281153,3.0,14.0,432.0
2022-02-08-11:32:19.282151,3.0,14.0,432.0
2022-02-08-11:32:19.283195,2.0,14.0,432.0
2022-02-08-11:32:19.284166,2.0,3.0,431.0
2022-02-08-11:32:19.285181,2.0,3.0,431.0
2022-02-08-11:32:19.286182,2.0,3.0,431.0
2022-02-08-11:32:19.287188,2.0,1.0,432.0
2022-02-08-11:32:19.288175,3.0,7.0,431.0
2022-02-08-11:32:19.289176,3.0,7.0,431.0
2022-02-08-11:32:19.290130,3.0,7.0,431.0
2022-02-08-11:32:19.291161,0.0,3.0,431.0
2022-02-08-11:32:19.292173,4.0,5.0,431.0
2022-02-08-11:32:19.293122,10.0,1.0,432.0
2022-02-08-11:32:19.294119,10.0,1.0,432.0
2022-02-08-11:32:19.295153,7.0,13.0,431.0
2022-02-08-11:32:19.296147,5.0,4.0,432.0
2022-02-08-11:32:19.297144,5.0,4.0,432.0
2022-02-08-11:32:19.298156,5.0,4.0,432.0
2022-02-08-11:32:19.299149,6.0,4.0,431.0
2022-02-08-11:32:19.300147,1.0,8.0,432.0
2022-02-08-11:32:19.301101,1.0,8.0,432.0
2022-02-08-11:32:19.302141,1.0,8.0,432.0
2022-02-08-11:32:19.303136,5.0,6.0,431.0
2022-02-08-11:32:19.304136,1.0,8.0,432.0
2022-02-08-11:32:19.305147,1.0,4.0,432.0
2022-02-08-11:32:19.306106,1.0,4.0,432.0
2022-02-08-11:32:19.307085,2.0,0.0,432.0
2022-02-08-11:32:19.308136,4.0,11.0,431.0
2022-02-08-11:32:19.309147,9.0,2.0,432.0
2022-02-08-11:32:19.310077,9.0,2.0,432.0
2022-02-08-11:32:19.311147,11.0,6.0,432.0
2022-02-08-11:32:19.313123,11.0,6.0,432.0
2022-02-08-11:32:19.314066,7.0,8.0,431.0
2022-02-08-11:32:19.314066,7.0,8.0,431.0
2022-02-08-11:32:19.315117,4.0,10.0,432.0
2022-02-08-11:32:19.316115,7.0,4.0,431.0
2022-02-08-11:32:19.317113,7.0,4.0,431.0
2022-02-08-11:32:19.318129,7.0,4.0,431.0
2022-02-08-11:32:19.319125,7.0,4.0,431.0
2022-02-08-11:32:19.320112,2.0,2.0,431.0
2022-02-08-11:32:19.321102,6.0,2.0,431.0
2022-02-08-11:32:19.322099,6.0,2.0,431.0
2022-02-08-11:32:19.323041,6.0,2.0,431.0
2022-02-08-11:32:19.324110,1.0,3.0,431.0
2022-02-08-11:32:19.325105,3.0,3.0,431.0
2022-02-08-11:32:19.326071,5.0,2.0,431.0
2022-02-08-11:32:19.327086,5.0,2.0,431.0
2022-02-08-11:32:19.328029,10.0,9.0,432.0
2022-02-08-11:32:19.329091,10.0,11.0,431.0
2022-02-08-11:32:19.330098,10.0,11.0,431.0
2022-02-08-11:32:19.331094,10.0,11.0,431.0
2022-02-08-11:32:19.332079,10.0,7.0,432.0
2022-02-08-11:32:19.333078,4.0,4.0,432.0
2022-02-08-11:32:19.334080,2.0,4.0,431.0
2022-02-08-11:32:19.335073,2.0,4.0,431.0
2022-02-08-11:32:19.336072,3.0,6.0,431.0
2022-02-08-11:32:19.337066,3.0,3.0,431.0
2022-02-08-11:32:19.338056,1.0,2.0,432.0
2022-02-08-11:32:19.339053,1.0,2.0,432.0
2022-02-08-11:32:19.339997,0.0,2.0,432.0
2022-02-08-11:32:19.340999,2.0,1.0,431.0
2022-02-08-11:32:19.342025,2.0,1.0,431.0
2022-02-08-11:32:19.342989,2.0,1.0,431.0
2022-02-08-11:32:19.344020,9.0,6.0,431.0
2022-02-08-11:32:19.346008,9.0,6.0,431.0
2022-02-08-11:32:19.346008,15.0,18.0,431.0
2022-02-08-11:32:19.346978,15.0,18.0,431.0
2022-02-08-11:32:19.348009,6.0,1.0,431.0
2022-02-08-11:32:19.349000,5.0,4.0,431.0
2022-02-08-11:32:19.350013,2.0,5.0,431.0
2022-02-08-11:32:19.350996,2.0,5.0,431.0
2022-02-08-11:32:19.351994,1.0,3.0,431.0
2022-02-08-11:32:19.352961,2.0,1.0,431.0
2022-02-08-11:32:19.354012,2.0,1.0,431.0
2022-02-08-11:32:19.354971,2.0,1.0,431.0
2022-02-08-11:32:19.356104,2.0,1.0,431.0
2022-02-08-11:32:19.356954,0.0,6.0,432.0
2022-02-08-11:32:19.358055,3.0,0.0,432.0
2022-02-08-11:32:19.358951,3.0,0.0,432.0
2022-02-08-11:32:19.359949,3.0,0.0,432.0
2022-02-08-11:32:19.360947,9.0,6.0,432.0
2022-02-08-11:32:19.362053,8.0,5.0,432.0
2022-02-08-11:32:19.363008,8.0,5.0,432.0
2022-02-08-11:32:19.363935,8.0,5.0,432.0
2022-02-08-11:32:19.365094,8.0,7.0,432.0
2022-02-08-11:32:19.366024,2.0,7.0,432.0
2022-02-08-11:32:19.366934,2.0,7.0,432.0
2022-02-08-11:32:19.367965,2.0,7.0,432.0
2022-02-08-11:32:19.368951,3.0,8.0,431.0
2022-02-08-11:32:19.369966,0.0,2.0,431.0
2022-02-08-11:32:19.370954,1.0,4.0,432.0
2022-02-08-11:32:19.371958,1.0,4.0,432.0
2022-02-08-11:32:19.372920,2.0,1.0,431.0
2022-02-08-11:32:19.373926,2.0,2.0,431.0
2022-02-08-11:32:19.374946,0.0,1.0,431.0
2022-02-08-11:32:19.375936,0.0,1.0,431.0
2022-02-08-11:32:19.376943,8.0,2.0,432.0
2022-02-08-11:32:19.378925,8.0,2.0,432.0
2022-02-08-11:32:19.379892,11.0,0.0,431.0
2022-02-08-11:32:19.379892,2.0,6.0,432.0
2022-02-08-11:32:19.380931,1.0,10.0,431.0
2022-02-08-11:32:19.381920,1.0,10.0,431.0
2022-02-08-11:32:19.382913,1.0,10.0,431.0
2022-02-08-11:32:19.383879,1.0,10.0,431.0
2022-02-08-11:32:19.384909,2.0,5.0,431.0
2022-02-08-11:32:19.385911,3.0,13.0,431.0
2022-02-08-11:32:19.386911,3.0,13.0,431.0
2022-02-08-11:32:19.387869,3.0,13.0,431.0
2022-02-08-11:32:19.388917,5.0,3.0,431.0
2022-02-08-11:32:19.389873,3.0,8.0,431.0
2022-02-08-11:32:19.390892,3.0,8.0,431.0
2022-02-08-11:32:19.391903,3.0,8.0,431.0
2022-02-08-11:32:19.392855,3.0,8.0,431.0
2022-02-08-11:32:19.393873,8.0,8.0,431.0
2022-02-08-11:32:19.394882,11.0,13.0,432.0
2022-02-08-11:32:19.395889,11.0,13.0,432.0
2022-02-08-11:32:19.396887,11.0,13.0,432.0
2022-02-08-11:32:19.397874,4.0,1.0,431.0
2022-02-08-11:32:19.398871,3.0,6.0,432.0
2022-02-08-11:32:19.399856,3.0,6.0,432.0
2022-02-08-11:32:19.400965,3.0,6.0,432.0
2022-02-08-11:32:19.401941,1.0,2.0,431.0
2022-02-08-11:32:19.402872,1.0,4.0,431.0
2022-02-08-11:32:19.403990,1.0,4.0,431.0
2022-02-08-11:32:19.404958,1.0,4.0,431.0
2022-02-08-11:32:19.405820,3.0,9.0,431.0
2022-02-08-11:32:19.406824,4.0,2.0,431.0
2022-02-08-11:32:19.407866,4.0,2.0,431.0
2022-02-08-11:32:19.408857,4.0,2.0,431.0
2022-02-08-11:32:19.409852,4.0,2.0,431.0
2022-02-08-11:32:19.410853,9.0,8.0,432.0
2022-02-08-11:32:19.411846,9.0,8.0,432.0
2022-02-08-11:32:19.413831,9.0,8.0,432.0
2022-02-08-11:32:19.413831,6.0,6.0,431.0
2022-02-08-11:32:19.414796,6.0,2.0,431.0
2022-02-08-11:32:19.415802,3.0,0.0,431.0
2022-02-08-11:32:19.416798,3.0,0.0,431.0
2022-02-08-11:32:19.417833,4.0,1.0,431.0
2022-02-08-11:32:19.418835,5.0,9.0,431.0
2022-02-08-11:32:19.419825,3.0,1.0,431.0
2022-02-08-11:32:19.420786,3.0,1.0,431.0
2022-02-08-11:32:19.421810,2.0,5.0,431.0
2022-02-08-11:32:19.422786,1.0,2.0,431.0
2022-02-08-11:32:19.423822,1.0,2.0,431.0
2022-02-08-11:32:19.424781,1.0,2.0,431.0
2022-02-08-11:32:19.425805,5.0,6.0,431.0
2022-02-08-11:32:19.426797,14.0,9.0,431.0
2022-02-08-11:32:19.427801,14.0,9.0,431.0
2022-02-08-11:32:19.428806,14.0,9.0,431.0
2022-02-08-11:32:19.429756,12.0,7.0,432.0
2022-02-08-11:32:19.430755,7.0,5.0,431.0
2022-02-08-11:32:19.431754,1.0,7.0,432.0
2022-02-08-11:32:19.432748,2.0,23.0,432.0
2022-02-08-11:32:19.433792,2.0,23.0,432.0
2022-02-08-11:32:19.434793,3.0,3.0,431.0
2022-02-08-11:32:19.435773,1.0,1.0,432.0
2022-02-08-11:32:19.436784,1.0,1.0,432.0
2022-02-08-11:32:19.437767,1.0,1.0,432.0
2022-02-08-11:32:19.438772,3.0,2.0,432.0
2022-02-08-11:32:19.439777,1.0,2.0,431.0
2022-02-08-11:32:19.440756,1.0,2.0,431.0
2022-02-08-11:32:19.441759,1.0,2.0,431.0
2022-02-08-11:32:19.442738,5.0,0.0,432.0
2022-02-08-11:32:19.443764,10.0,5.0,432.0
2022-02-08-11:32:19.444750,10.0,5.0,432.0
2022-02-08-11:32:19.446744,10.0,5.0,432.0
2022-02-08-11:32:19.446744,10.0,5.0,432.0
2022-02-08-11:32:19.447709,4.0,5.0,432.0
2022-02-08-11:32:19.448708,4.0,5.0,432.0
2022-02-08-11:32:19.449749,4.0,5.0,432.0
2022-02-08-11:32:19.450749,2.0,3.0,431.0
2022-02-08-11:32:19.451731,4.0,6.0,431.0
2022-02-08-11:32:19.452728,4.0,6.0,431.0
2022-02-08-11:32:19.453727,4.0,6.0,431.0
2022-02-08-11:32:19.454722,3.0,6.0,431.0
2022-02-08-11:32:19.455722,2.0,4.0,431.0
2022-02-08-11:32:19.456728,2.0,4.0,431.0
2022-02-08-11:32:19.457683,2.0,4.0,431.0
2022-02-08-11:32:19.458711,9.0,6.0,432.0
2022-02-08-11:32:19.459703,4.0,5.0,432.0
2022-02-08-11:32:19.460690,4.0,5.0,432.0
2022-02-08-11:32:19.461683,4.0,5.0,432.0
2022-02-08-11:32:19.462708,11.0,15.0,431.0
2022-02-08-11:32:19.463699,5.0,9.0,431.0
2022-02-08-11:32:19.464695,5.0,9.0,431.0
2022-02-08-11:32:19.465687,5.0,9.0,431.0
2022-02-08-11:32:19.466690,4.0,7.0,431.0
2022-02-08-11:32:19.467701,4.0,2.0,431.0
2022-02-08-11:32:19.468686,4.0,2.0,431.0
2022-02-08-11:32:19.469693,4.0,2.0,431.0
2022-02-08-11:32:19.470681,4.0,2.0,431.0
2022-02-08-11:32:19.471687,2.0,3.0,431.0
2022-02-08-11:32:19.472674,2.0,3.0,431.0
2022-02-08-11:32:19.473639,2.0,3.0,431.0
2022-02-08-11:32:19.474684,2.0,3.0,431.0
2022-02-08-11:32:19.475676,2.0,1.0,431.0
2022-02-08-11:32:19.476666,9.0,5.0,431.0
2022-02-08-11:32:19.477660,9.0,5.0,431.0
2022-02-08-11:32:19.478660,9.0,5.0,431.0
2022-02-08-11:32:19.480653,7.0,1.0,431.0
2022-02-08-11:32:19.480653,0.0,0.0,432.0
2022-02-08-11:32:19.481662,0.0,0.0,432.0
2022-02-08-11:32:19.482657,0.0,0.0,432.0
2022-02-08-11:32:19.483646,1.0,0.0,432.0
2022-02-08-11:32:19.484643,6.0,8.0,431.0
2022-02-08-11:32:19.485640,6.0,8.0,432.0
2022-02-08-11:32:19.486643,6.0,8.0,432.0
2022-02-08-11:32:19.487645,6.0,4.0,431.0
2022-02-08-11:32:19.488631,4.0,9.0,431.0
2022-02-08-11:32:19.489597,2.0,6.0,431.0
2022-02-08-11:32:19.490629,2.0,6.0,431.0
2022-02-08-11:32:19.491623,1.0,5.0,432.0
2022-02-08-11:32:19.492633,13.0,7.0,431.0
2022-02-08-11:32:19.493619,13.0,7.0,431.0
2022-02-08-11:32:19.494594,13.0,7.0,431.0
2022-02-08-11:32:19.495626,10.0,14.0,431.0
2022-02-08-11:32:19.496610,10.0,14.0,431.0
2022-02-08-11:32:19.497619,6.0,2.0,431.0
2022-02-08-11:32:19.498573,6.0,2.0,431.0
2022-02-08-11:32:19.499602,3.0,2.0,432.0
2022-02-08-11:32:19.500615,2.0,1.0,431.0
2022-02-08-11:32:19.501606,6.0,2.0,431.0
2022-02-08-11:32:19.502563,6.0,2.0,431.0
2022-02-08-11:32:19.503595,0.0,4.0,431.0
2022-02-08-11:32:19.504603,4.0,4.0,431.0
2022-02-08-11:32:19.505601,4.0,4.0,431.0
2022-02-08-11:32:19.506586,4.0,4.0,431.0
2022-02-08-11:32:19.507561,5.0,2.0,431.0
2022-02-08-11:32:19.508585,9.0,9.0,431.0
2022-02-08-11:32:19.509547,9.0,9.0,431.0
2022-02-08-11:32:19.510573,9.0,9.0,431.0
2022-02-08-11:32:19.511571,9.0,9.0,431.0
2022-02-08-11:32:19.512585,3.0,9.0,430.0
2022-02-08-11:32:19.514562,3.0,9.0,430.0
2022-02-08-11:32:19.515528,1.0,5.0,431.0
2022-02-08-11:32:19.515528,0.0,1.0,430.0
2022-02-08-11:32:19.516565,0.0,1.0,430.0
2022-02-08-11:32:19.517573,0.0,1.0,430.0
2022-02-08-11:32:19.518554,0.0,1.0,430.0
2022-02-08-11:32:19.519568,0.0,1.0,430.0
2022-02-08-11:32:19.520565,1.0,2.0,430.0
2022-02-08-11:32:19.521546,1.0,8.0,429.0
2022-02-08-11:32:19.522544,1.0,8.0,429.0
2022-02-08-11:32:19.523552,1.0,8.0,429.0
2022-02-08-11:32:19.524547,6.0,3.0,429.0
2022-02-08-11:32:19.525532,6.0,1.0,429.0
2022-02-08-11:32:19.526498,6.0,1.0,429.0
2022-02-08-11:32:19.527532,6.0,1.0,429.0
2022-02-08-11:32:19.528536,7.0,10.0,429.0
2022-02-08-11:32:19.529535,9.0,13.0,429.0
2022-02-08-11:32:19.530530,9.0,13.0,429.0
2022-02-08-11:32:19.531547,9.0,13.0,429.0
2022-02-08-11:32:19.532515,7.0,7.0,429.0
2022-02-08-11:32:19.533512,0.0,5.0,428.0
2022-02-08-11:32:19.534519,0.0,5.0,428.0
2022-02-08-11:32:19.535492,0.0,5.0,428.0
2022-02-08-11:32:19.536503,4.0,7.0,428.0
2022-02-08-11:32:19.537521,2.0,7.0,427.0
2022-02-08-11:32:19.538498,2.0,7.0,427.0
2022-02-08-11:32:19.539484,2.0,7.0,427.0
2022-02-08-11:32:19.540494,7.0,0.0,427.0
2022-02-08-11:32:19.541498,6.0,14.0,426.0
2022-02-08-11:32:19.542487,6.0,14.0,426.0
2022-02-08-11:32:19.543500,6.0,14.0,426.0
2022-02-08-11:32:19.544485,8.0,21.0,426.0
2022-02-08-11:32:19.545498,7.0,10.0,425.0
2022-02-08-11:32:19.546476,7.0,10.0,425.0
2022-02-08-11:32:19.548473,7.0,10.0,425.0
2022-02-08-11:32:19.548473,1.0,0.0,425.0
2022-02-08-11:32:19.549484,1.0,0.0,425.0
2022-02-08-11:32:19.550468,1.0,0.0,425.0
2022-02-08-11:32:19.551469,1.0,0.0,425.0
2022-02-08-11:32:19.552460,1.0,0.0,425.0
2022-02-08-11:32:19.553471,5.0,2.0,425.0
2022-02-08-11:32:19.554467,2.0,0.0,425.0
2022-02-08-11:32:19.555453,2.0,0.0,425.0
2022-02-08-11:32:19.556428,2.0,0.0,425.0
2022-02-08-11:32:19.557460,2.0,3.0,424.0
2022-02-08-11:32:19.558445,7.0,6.0,424.0
2022-02-08-11:32:19.559425,7.0,6.0,424.0
2022-02-08-11:32:19.560408,7.0,6.0,424.0
2022-02-08-11:32:19.561450,11.0,2.0,424.0
2022-02-08-11:32:19.562453,12.0,6.0,423.0
2022-02-08-11:32:19.563432,12.0,6.0,423.0
2022-02-08-11:32:19.564467,12.0,6.0,423.0
2022-02-08-11:32:19.565434,3.0,3.0,423.0
2022-02-08-11:32:19.566445,6.0,5.0,423.0
2022-02-08-11:32:19.567441,6.0,5.0,423.0
2022-02-08-11:32:19.568427,6.0,5.0,423.0
2022-02-08-11:32:19.569422,2.0,8.0,422.0
2022-02-08-11:32:19.570413,4.0,1.0,422.0
2022-02-08-11:32:19.571409,4.0,1.0,422.0
2022-02-08-11:32:19.572376,4.0,1.0,422.0
2022-02-08-11:32:19.573431,2.0,3.0,422.0
2022-02-08-11:32:19.574398,1.0,2.0,422.0
2022-02-08-11:32:19.575409,4.0,4.0,422.0
2022-02-08-11:32:19.576368,4.0,4.0,422.0
2022-02-08-11:32:19.577414,8.0,3.0,422.0
2022-02-08-11:32:19.578391,13.0,6.0,421.0
2022-02-08-11:32:19.579399,13.0,6.0,421.0
2022-02-08-11:32:19.580395,13.0,6.0,421.0
2022-02-08-11:32:19.582380,5.0,7.0,421.0
2022-02-08-11:32:19.582380,3.0,2.0,421.0
2022-02-08-11:32:19.583392,3.0,2.0,421.0
2022-02-08-11:32:19.584377,3.0,2.0,421.0
2022-02-08-11:32:19.585394,3.0,2.0,421.0
2022-02-08-11:32:19.586370,1.0,3.0,421.0
2022-02-08-11:32:19.587379,1.0,8.0,421.0
2022-02-08-11:32:19.588366,1.0,8.0,421.0
2022-02-08-11:32:19.589374,1.0,8.0,421.0
2022-02-08-11:32:19.590328,1.0,3.0,420.0
2022-02-08-11:32:19.591357,3.0,1.0,420.0
2022-02-08-11:32:19.592367,7.0,4.0,421.0
2022-02-08-11:32:19.593369,7.0,4.0,421.0
2022-02-08-11:32:19.594349,13.0,3.0,420.0
2022-02-08-11:32:19.595352,9.0,12.0,420.0
2022-02-08-11:32:19.596345,9.0,12.0,420.0
2022-02-08-11:32:19.597357,9.0,12.0,420.0
2022-02-08-11:32:19.598331,5.0,2.0,419.0
2022-02-08-11:32:19.599328,0.0,4.0,420.0
2022-02-08-11:32:19.600324,0.0,4.0,420.0
2022-02-08-11:32:19.601348,0.0,4.0,420.0
2022-02-08-11:32:19.602338,1.0,3.0,419.0
2022-02-08-11:32:19.603299,0.0,9.0,419.0
2022-02-08-11:32:19.604328,1.0,10.0,419.0
2022-02-08-11:32:19.605336,1.0,10.0,419.0
2022-02-08-11:32:19.606285,2.0,1.0,419.0
2022-02-08-11:32:19.607318,2.0,5.0,419.0
2022-02-08-11:32:19.608332,3.0,4.0,418.0
2022-02-08-11:32:19.609283,3.0,4.0,418.0
2022-02-08-11:32:19.610306,5.0,6.0,419.0
2022-02-08-11:32:19.611303,8.0,14.0,419.0
2022-02-08-11:32:19.612302,8.0,14.0,419.0
2022-02-08-11:32:19.613280,8.0,14.0,419.0
2022-02-08-11:32:19.614314,11.0,13.0,418.0
2022-02-08-11:32:19.616260,11.0,13.0,418.0
2022-02-08-11:32:19.616260,8.0,17.0,418.0
2022-02-08-11:32:19.617257,6.0,11.0,419.0
2022-02-08-11:32:19.618277,1.0,1.0,418.0
2022-02-08-11:32:19.619295,1.0,1.0,418.0
2022-02-08-11:32:19.620278,1.0,1.0,418.0
2022-02-08-11:32:19.621276,1.0,1.0,418.0
2022-02-08-11:32:19.622274,1.0,1.0,418.0
2022-02-08-11:32:19.623248,6.0,3.0,418.0
2022-02-08-11:32:19.624277,6.0,3.0,418.0
2022-02-08-11:32:19.625260,6.0,3.0,418.0
2022-02-08-11:32:19.626232,6.0,3.0,418.0
2022-02-08-11:32:19.627231,11.0,3.0,418.0
2022-02-08-11:32:19.628264,8.0,9.0,418.0
2022-02-08-11:32:19.629226,8.0,9.0,418.0
2022-02-08-11:32:19.630269,8.0,9.0,418.0
2022-02-08-11:32:19.631251,7.0,10.0,418.0
2022-02-08-11:32:19.632259,7.0,10.0,418.0
2022-02-08-11:32:19.633239,2.0,1.0,418.0
2022-02-08-11:32:19.634235,2.0,1.0,418.0
2022-02-08-11:32:19.635235,2.0,2.0,418.0
2022-02-08-11:32:19.636232,1.0,6.0,419.0
2022-02-08-11:32:19.637227,1.0,5.0,418.0
2022-02-08-11:32:19.638224,1.0,5.0,418.0
2022-02-08-11:32:19.639222,4.0,5.0,418.0
2022-02-08-11:32:19.640233,4.0,1.0,419.0
2022-02-08-11:32:19.641192,4.0,1.0,419.0
2022-02-08-11:32:19.642190,4.0,1.0,419.0
2022-02-08-11:32:19.643227,10.0,1.0,418.0
2022-02-08-11:32:19.644209,11.0,6.0,418.0
2022-02-08-11:32:19.645205,11.0,6.0,418.0
2022-02-08-11:32:19.646210,11.0,6.0,418.0
2022-02-08-11:32:19.647219,9.0,11.0,418.0
2022-02-08-11:32:19.648201,4.0,0.0,418.0
2022-02-08-11:32:19.650167,4.0,0.0,418.0
2022-02-08-11:32:19.650167,4.0,0.0,418.0
2022-02-08-11:32:19.651165,4.0,7.0,418.0
2022-02-08-11:32:19.652191,4.0,7.0,418.0
2022-02-08-11:32:19.653203,4.0,7.0,418.0
2022-02-08-11:32:19.654157,4.0,7.0,418.0
2022-02-08-11:32:19.655157,5.0,3.0,418.0
2022-02-08-11:32:19.656183,3.0,2.0,418.0
2022-02-08-11:32:19.657199,3.0,2.0,418.0
2022-02-08-11:32:19.658187,3.0,2.0,418.0
2022-02-08-11:32:19.659175,5.0,6.0,418.0
2022-02-08-11:32:19.660192,10.0,5.0,418.0
2022-02-08-11:32:19.661180,10.0,5.0,418.0
2022-02-08-11:32:19.662185,10.0,5.0,418.0
2022-02-08-11:32:19.663174,10.0,5.0,418.0
2022-02-08-11:32:19.664173,9.0,4.0,418.0
2022-02-08-11:32:19.665171,1.0,3.0,418.0
2022-02-08-11:32:19.666167,1.0,3.0,418.0
2022-02-08-11:32:19.667166,2.0,9.0,419.0
2022-02-08-11:32:19.668122,2.0,9.0,419.0
2022-02-08-11:32:19.669149,4.0,5.0,418.0
2022-02-08-11:32:19.670163,4.0,5.0,418.0
2022-02-08-11:32:19.671144,4.0,5.0,418.0
2022-02-08-11:32:19.672141,3.0,2.0,418.0
2022-02-08-11:32:19.673119,4.0,8.0,418.0
2022-02-08-11:32:19.674125,4.0,8.0,418.0
2022-02-08-11:32:19.675125,4.0,8.0,418.0
2022-02-08-11:32:19.676099,3.0,1.0,418.0
2022-02-08-11:32:19.677120,7.0,10.0,418.0
2022-02-08-11:32:19.678121,8.0,12.0,418.0
2022-02-08-11:32:19.679115,8.0,12.0,418.0
2022-02-08-11:32:19.680111,12.0,11.0,418.0
2022-02-08-11:32:19.681085,2.0,4.0,418.0
2022-02-08-11:32:19.682106,2.0,4.0,418.0
2022-02-08-11:32:19.684102,2.0,4.0,418.0
2022-02-08-11:32:19.684102,0.0,4.0,418.0
2022-02-08-11:32:19.685098,0.0,4.0,418.0
2022-02-08-11:32:19.686115,0.0,4.0,418.0
2022-02-08-11:32:19.687077,0.0,4.0,418.0
2022-02-08-11:32:19.688109,1.0,2.0,419.0
2022-02-08-11:32:19.689107,6.0,7.0,419.0
2022-02-08-11:32:19.690071,4.0,6.0,418.0
2022-02-08-11:32:19.691061,4.0,6.0,418.0
2022-02-08-11:32:19.692099,10.0,1.0,418.0
2022-02-08-11:32:19.693062,13.0,5.0,418.0
2022-02-08-11:32:19.694078,13.0,5.0,418.0
2022-02-08-11:32:19.695080,13.0,5.0,418.0
2022-02-08-11:32:19.696078,9.0,9.0,418.0
2022-02-08-11:32:19.697091,4.0,13.0,418.0
2022-02-08-11:32:19.698071,4.0,13.0,418.0
2022-02-08-11:32:19.699069,4.0,13.0,418.0
2022-02-08-11:32:19.700067,2.0,9.0,418.0
2022-02-08-11:32:19.701084,1.0,18.0,419.0
2022-02-08-11:32:19.702054,1.0,12.0,418.0
2022-02-08-11:32:19.703051,1.0,12.0,418.0
2022-02-08-11:32:19.704055,1.0,12.0,418.0
2022-02-08-11:32:19.705055,6.0,1.0,418.0
2022-02-08-11:32:19.706050,2.0,8.0,418.0
2022-02-08-11:32:19.707016,2.0,8.0,418.0
2022-02-08-11:32:19.708058,2.0,8.0,418.0
2022-02-08-11:32:19.709049,4.0,5.0,418.0
2022-02-08-11:32:19.710040,7.0,5.0,418.0
2022-02-08-11:32:19.711050,7.0,5.0,418.0
2022-02-08-11:32:19.712040,7.0,5.0,418.0
2022-02-08-11:32:19.713059,12.0,5.0,418.0
2022-02-08-11:32:19.714029,10.0,10.0,418.0
2022-02-08-11:32:19.715037,6.0,8.0,417.0
2022-02-08-11:32:19.716039,6.0,8.0,417.0
2022-02-08-11:32:19.718019,4.0,2.0,418.0
2022-02-08-11:32:19.718019,4.0,2.0,418.0
2022-02-08-11:32:19.719029,4.0,2.0,418.0
2022-02-08-11:32:19.719981,4.0,2.0,418.0
2022-02-08-11:32:19.721013,1.0,2.0,418.0
2022-02-08-11:32:19.722012,0.0,1.0,418.0
2022-02-08-11:32:19.722991,1.0,1.0,418.0
2022-02-08-11:32:19.723970,1.0,1.0,418.0
2022-02-08-11:32:19.725009,4.0,1.0,417.0
2022-02-08-11:32:19.726015,11.0,5.0,418.0
2022-02-08-11:32:19.727011,11.0,5.0,418.0
2022-02-08-11:32:19.727967,11.0,5.0,418.0
2022-02-08-11:32:19.728993,7.0,5.0,417.0
2022-02-08-11:32:19.729986,4.0,6.0,417.0
2022-02-08-11:32:19.730984,4.0,6.0,417.0
2022-02-08-11:32:19.731950,4.0,6.0,417.0
2022-02-08-11:32:19.732955,5.0,2.0,417.0
2022-02-08-11:32:19.733975,3.0,6.0,417.0
2022-02-08-11:32:19.734978,3.0,6.0,417.0
2022-02-08-11:32:19.735982,3.0,6.0,417.0
2022-02-08-11:32:19.736988,3.0,6.0,417.0
2022-02-08-11:32:19.737964,0.0,4.0,417.0
2022-02-08-11:32:19.738978,0.0,4.0,417.0
2022-02-08-11:32:19.739963,0.0,4.0,417.0
2022-02-08-11:32:19.740937,7.0,7.0,417.0
2022-02-08-11:32:19.741955,7.0,7.0,417.0
2022-02-08-11:32:19.742928,7.0,7.0,417.0
2022-02-08-11:32:19.743948,7.0,7.0,417.0
2022-02-08-11:32:19.744969,7.0,7.0,417.0
2022-02-08-11:32:19.745911,11.0,14.0,417.0
2022-02-08-11:32:19.746947,9.0,6.0,416.0
2022-02-08-11:32:19.747939,5.0,4.0,416.0
2022-02-08-11:32:19.748943,5.0,4.0,416.0
2022-02-08-11:32:19.749943,0.0,0.0,417.0
2022-02-08-11:32:19.751927,0.0,0.0,417.0
2022-02-08-11:32:19.752894,3.0,8.0,417.0
2022-02-08-11:32:19.752894,1.0,2.0,416.0
2022-02-08-11:32:19.753930,1.0,2.0,416.0
2022-02-08-11:32:19.754936,1.0,2.0,416.0
2022-02-08-11:32:19.755918,1.0,2.0,416.0
2022-02-08-11:32:19.756883,1.0,2.0,416.0
2022-02-08-11:32:19.757929,2.0,3.0,416.0
2022-02-08-11:32:19.758893,10.0,10.0,416.0
2022-02-08-11:32:19.759907,10.0,10.0,416.0
2022-02-08-11:32:19.760872,10.0,10.0,416.0
2022-02-08-11:32:19.761923,7.0,6.0,416.0
2022-02-08-11:32:19.762904,8.0,6.0,416.0
2022-02-08-11:32:19.763897,8.0,6.0,416.0
2022-02-08-11:32:19.764872,8.0,6.0,416.0
2022-02-08-11:32:19.765891,5.0,2.0,416.0
2022-02-08-11:32:19.766904,3.0,3.0,416.0
2022-02-08-11:32:19.767890,3.0,3.0,416.0
2022-02-08-11:32:19.768851,3.0,3.0,416.0
2022-02-08-11:32:19.769890,5.0,4.0,415.0
2022-02-08-11:32:19.770885,4.0,15.0,416.0
2022-02-08-11:32:19.771843,2.0,15.0,415.0
2022-02-08-11:32:19.772872,2.0,15.0,415.0
2022-02-08-11:32:19.773837,6.0,5.0,415.0
2022-02-08-11:32:19.774882,9.0,4.0,415.0
2022-02-08-11:32:19.775876,9.0,4.0,415.0
2022-02-08-11:32:19.776871,9.0,4.0,415.0
2022-02-08-11:32:19.777858,9.0,4.0,415.0
2022-02-08-11:32:19.778867,10.0,8.0,415.0
2022-02-08-11:32:19.779872,4.0,6.0,415.0
2022-02-08-11:32:19.780851,4.0,6.0,415.0
2022-02-08-11:32:19.781847,4.0,6.0,415.0
2022-02-08-11:32:19.782846,3.0,7.0,415.0
2022-02-08-11:32:19.783857,1.0,4.0,415.0
2022-02-08-11:32:19.784825,2.0,4.0,415.0
2022-02-08-11:32:19.786835,2.0,4.0,415.0
2022-02-08-11:32:19.787806,4.0,7.0,414.0
2022-02-08-11:32:19.788798,4.0,7.0,414.0
2022-02-08-11:32:19.789805,4.0,7.0,414.0
2022-02-08-11:32:19.790791,5.0,3.0,414.0
2022-02-08-11:32:19.791837,9.0,1.0,414.0
2022-02-08-11:32:19.792787,9.0,1.0,414.0
2022-02-08-11:32:19.793822,9.0,1.0,414.0
2022-02-08-11:32:19.794838,9.0,1.0,414.0
2022-02-08-11:32:19.795813,10.0,3.0,415.0
2022-02-08-11:32:19.796818,11.0,14.0,414.0
2022-02-08-11:32:19.797785,12.0,13.0,415.0
2022-02-08-11:32:19.798772,8.0,8.0,415.0
2022-02-08-11:32:19.799813,0.0,2.0,415.0
2022-02-08-11:32:19.800807,3.0,1.0,414.0
2022-02-08-11:32:19.801763,3.0,1.0,414.0
2022-02-08-11:32:19.802806,0.0,1.0,415.0
2022-02-08-11:32:19.803810,1.0,1.0,415.0
2022-02-08-11:32:19.804796,1.0,1.0,415.0
2022-02-08-11:32:19.805753,1.0,1.0,415.0
2022-02-08-11:32:19.806779,3.0,0.0,415.0
2022-02-08-11:32:19.807783,1.0,2.0,415.0
2022-02-08-11:32:19.808795,4.0,1.0,415.0
2022-02-08-11:32:19.809780,4.0,1.0,415.0
2022-02-08-11:32:19.810777,10.0,7.0,415.0
2022-02-08-11:32:19.811782,14.0,11.0,415.0
2022-02-08-11:32:19.812733,7.0,15.0,415.0
2022-02-08-11:32:19.813770,7.0,15.0,415.0
2022-02-08-11:32:19.814770,7.0,15.0,415.0
2022-02-08-11:32:19.815777,0.0,10.0,414.0
2022-02-08-11:32:19.816771,3.0,6.0,415.0
2022-02-08-11:32:19.817767,3.0,6.0,415.0
2022-02-08-11:32:19.819749,0.0,1.0,415.0
2022-02-08-11:32:19.819749,2.0,0.0,415.0
2022-02-08-11:32:19.820747,2.0,0.0,415.0
2022-02-08-11:32:19.821760,2.0,0.0,415.0
2022-02-08-11:32:19.822741,2.0,0.0,415.0
2022-02-08-11:32:19.823766,0.0,4.0,415.0
2022-02-08-11:32:19.824706,2.0,5.0,415.0
2022-02-08-11:32:19.825735,1.0,3.0,415.0
2022-02-08-11:32:19.826740,8.0,10.0,415.0
2022-02-08-11:32:19.827732,6.0,9.0,414.0
2022-02-08-11:32:19.828709,9.0,1.0,415.0
2022-02-08-11:32:19.829727,8.0,15.0,414.0
2022-02-08-11:32:19.830717,8.0,15.0,414.0
2022-02-08-11:32:19.831722,8.0,15.0,414.0
2022-02-08-11:32:19.832714,2.0,0.0,415.0
2022-02-08-11:32:19.833718,2.0,8.0,415.0
2022-02-08-11:32:19.834722,2.0,4.0,415.0
2022-02-08-11:32:19.835703,1.0,2.0,414.0
2022-02-08-11:32:19.836695,1.0,2.0,414.0
2022-02-08-11:32:19.837694,1.0,2.0,414.0
2022-02-08-11:32:19.838667,1.0,2.0,414.0
2022-02-08-11:32:19.839697,6.0,2.0,415.0
2022-02-08-11:32:19.840658,4.0,2.0,415.0
2022-02-08-11:32:19.841692,7.0,2.0,415.0
2022-02-08-11:32:19.842702,7.0,2.0,415.0
2022-02-08-11:32:19.843649,13.0,4.0,414.0
2022-02-08-11:32:19.844770,8.0,17.0,415.0
2022-02-08-11:32:19.845705,8.0,17.0,415.0
2022-02-08-11:32:19.846684,8.0,17.0,415.0
2022-02-08-11:32:19.847663,7.0,16.0,415.0
2022-02-08-11:32:19.848766,2.0,0.0,415.0
2022-02-08-11:32:19.849681,2.0,0.0,415.0
2022-02-08-11:32:19.850631,2.0,0.0,415.0
2022-02-08-11:32:19.851726,2.0,0.0,415.0
2022-02-08-11:32:19.853663,1.0,3.0,415.0
2022-02-08-11:32:19.853663,4.0,7.0,415.0
2022-02-08-11:32:19.854655,4.0,7.0,415.0
2022-02-08-11:32:19.855650,4.0,7.0,415.0
2022-02-08-11:32:19.856622,6.0,10.0,415.0
2022-02-08-11:32:19.857624,6.0,10.0,415.0
2022-02-08-11:32:19.858651,6.0,10.0,415.0
2022-02-08-11:32:19.859609,6.0,10.0,415.0
2022-02-08-11:32:19.860612,11.0,8.0,415.0
2022-02-08-11:32:19.861653,9.0,8.0,415.0
2022-02-08-11:32:19.862634,13.0,15.0,415.0
2022-02-08-11:32:19.863653,13.0,15.0,415.0
2022-02-08-11:32:19.864629,7.0,10.0,415.0
2022-02-08-11:32:19.865626,3.0,3.0,414.0
2022-02-08-11:32:19.866624,2.0,1.0,415.0
2022-02-08-11:32:19.867636,2.0,1.0,415.0
2022-02-08-11:32:19.868628,4.0,12.0,414.0
2022-02-08-11:32:19.869614,4.0,12.0,414.0
2022-02-08-11:32:19.870578,2.0,0.0,415.0
2022-02-08-11:32:19.871582,2.0,0.0,415.0
2022-02-08-11:32:19.872614,4.0,7.0,415.0
2022-02-08-11:32:19.873570,4.0,0.0,415.0
2022-02-08-11:32:19.874580,4.0,0.0,415.0
2022-02-08-11:32:19.875574,4.0,0.0,415.0
2022-02-08-11:32:19.876563,9.0,2.0,415.0
2022-02-08-11:32:19.877559,10.0,5.0,415.0
2022-02-08-11:32:19.878606,10.0,11.0,415.0
2022-02-08-11:32:19.879554,10.0,15.0,415.0
2022-02-08-11:32:19.880596,6.0,14.0,415.0
2022-02-08-11:32:19.881601,3.0,3.0,415.0
2022-02-08-11:32:19.882546,3.0,3.0,415.0
2022-02-08-11:32:19.883549,3.0,3.0,415.0
2022-02-08-11:32:19.884540,3.0,3.0,415.0
2022-02-08-11:32:19.885539,0.0,0.0,415.0
2022-02-08-11:32:19.886569,0.0,0.0,415.0
2022-02-08-11:32:19.888530,0.0,1.0,415.0
2022-02-08-11:32:19.888530,1.0,7.0,415.0
2022-02-08-11:32:19.889528,4.0,6.0,415.0
2022-02-08-11:32:19.890532,4.0,6.0,415.0
2022-02-08-11:32:19.891528,4.0,6.0,415.0
2022-02-08-11:32:19.892519,4.0,6.0,415.0
2022-02-08-11:32:19.893558,8.0,9.0,415.0
2022-02-08-11:32:19.894546,11.0,10.0,415.0
2022-02-08-11:32:19.895549,9.0,8.0,415.0
2022-02-08-11:32:19.896541,9.0,8.0,415.0
2022-02-08-11:32:19.897532,8.0,8.0,415.0
2022-02-08-11:32:19.898528,3.0,1.0,415.0
2022-02-08-11:32:19.899547,3.0,1.0,415.0
2022-02-08-11:32:19.900523,3.0,1.0,415.0
2022-02-08-11:32:19.901521,2.0,3.0,415.0
2022-02-08-11:32:19.902492,3.0,2.0,415.0
2022-02-08-11:32:19.903498,3.0,2.0,415.0
2022-02-08-11:32:19.904487,3.0,2.0,415.0
2022-02-08-11:32:19.905491,5.0,5.0,415.0
2022-02-08-11:32:19.906482,2.0,4.0,415.0
2022-02-08-11:32:19.907493,2.0,4.0,415.0
2022-02-08-11:32:19.908491,2.0,4.0,415.0
2022-02-08-11:32:19.909474,10.0,11.0,415.0
2022-02-08-11:32:19.910471,9.0,3.0,415.0
2022-02-08-11:32:19.911478,9.0,3.0,415.0
2022-02-08-11:32:19.912501,9.0,3.0,415.0
2022-02-08-11:32:19.913499,9.0,10.0,415.0
2022-02-08-11:32:19.914507,6.0,2.0,415.0
2022-02-08-11:32:19.915459,6.0,2.0,415.0
2022-02-08-11:32:19.916455,6.0,2.0,415.0
2022-02-08-11:32:19.917456,1.0,12.0,414.0
2022-02-08-11:32:19.918457,0.0,5.0,414.0
2022-02-08-11:32:19.919456,0.0,5.0,414.0
2022-02-08-11:32:19.920445,0.0,5.0,414.0
2022-02-08-11:32:19.921450,3.0,3.0,415.0
2022-02-08-11:32:19.923439,4.0,10.0,415.0
2022-02-08-11:32:19.924435,5.0,4.0,414.0
2022-02-08-11:32:19.924435,5.0,4.0,414.0
2022-02-08-11:32:19.925457,6.0,2.0,415.0
2022-02-08-11:32:19.926436,9.0,6.0,414.0
2022-02-08-11:32:19.927427,11.0,5.0,415.0
2022-02-08-11:32:19.928433,11.0,5.0,415.0
2022-02-08-11:32:19.929427,11.0,5.0,415.0
2022-02-08-11:32:19.930419,11.0,6.0,415.0
2022-02-08-11:32:19.931416,2.0,2.0,415.0
2022-02-08-11:32:19.932413,2.0,2.0,415.0
2022-02-08-11:32:19.933427,2.0,2.0,415.0
2022-02-08-11:32:19.934407,5.0,6.0,415.0
2022-02-08-11:32:19.935404,5.0,6.0,415.0
2022-02-08-11:32:19.936413,1.0,8.0,415.0
2022-02-08-11:32:19.937405,1.0,8.0,415.0
2022-02-08-11:32:19.938397,1.0,1.0,415.0
2022-02-08-11:32:19.939394,2.0,2.0,415.0
2022-02-08-11:32:19.940393,1.0,4.0,415.0
2022-02-08-11:32:19.941397,1.0,4.0,415.0
2022-02-08-11:32:19.942387,12.0,10.0,414.0
2022-02-08-11:32:19.943385,12.0,10.0,414.0
2022-02-08-11:32:19.944415,12.0,10.0,414.0
2022-02-08-11:32:19.945410,12.0,10.0,414.0
2022-02-08-11:32:19.946424,9.0,13.0,415.0
2022-02-08-11:32:19.947417,0.0,11.0,415.0
2022-02-08-11:32:19.948408,0.0,11.0,415.0
2022-02-08-11:32:19.949368,0.0,11.0,415.0
2022-02-08-11:32:19.950398,1.0,4.0,415.0
2022-02-08-11:32:19.951395,5.0,2.0,415.0
2022-02-08-11:32:19.952409,2.0,9.0,414.0
2022-02-08-11:32:19.953364,2.0,9.0,414.0
2022-02-08-11:32:19.954395,4.0,12.0,415.0
2022-02-08-11:32:19.955361,1.0,3.0,415.0
2022-02-08-11:32:19.956349,1.0,3.0,414.0
2022-02-08-11:32:19.958377,1.0,3.0,414.0
2022-02-08-11:32:19.958377,12.0,8.0,415.0
2022-02-08-11:32:19.959358,12.0,8.0,415.0
2022-02-08-11:32:19.960345,12.0,8.0,415.0
2022-02-08-11:32:19.961340,12.0,8.0,415.0
2022-02-08-11:32:19.962365,11.0,15.0,415.0
2022-02-08-11:32:19.963384,2.0,7.0,414.0
2022-02-08-11:32:19.964350,2.0,7.0,414.0
2022-02-08-11:32:19.965373,2.0,7.0,414.0
2022-02-08-11:32:19.966370,3.0,3.0,415.0
2022-02-08-11:32:19.967323,3.0,3.0,415.0
2022-02-08-11:32:19.968338,3.0,3.0,415.0
2022-02-08-11:32:19.969356,3.0,3.0,415.0
2022-02-08-11:32:19.970351,3.0,3.0,415.0
2022-02-08-11:32:19.971309,1.0,4.0,415.0
2022-02-08-11:32:19.972313,0.0,3.0,415.0
2022-02-08-11:32:19.973310,0.0,3.0,415.0
2022-02-08-11:32:19.974301,0.0,3.0,415.0
2022-02-08-11:32:19.975345,1.0,5.0,415.0
2022-02-08-11:32:19.976299,7.0,14.0,415.0
2022-02-08-11:32:19.977295,8.0,7.0,415.0
2022-02-08-11:32:19.978295,8.0,7.0,415.0
2022-02-08-11:32:19.979288,11.0,9.0,415.0
2022-02-08-11:32:19.980287,9.0,1.0,415.0
2022-02-08-11:32:19.981309,9.0,1.0,415.0
2022-02-08-11:32:19.982314,9.0,1.0,415.0
2022-02-08-11:32:19.983317,4.0,7.0,415.0
2022-02-08-11:32:19.984281,4.0,9.0,415.0
2022-02-08-11:32:19.985306,4.0,9.0,415.0
2022-02-08-11:32:19.986276,4.0,9.0,415.0
2022-02-08-11:32:19.987274,6.0,12.0,415.0
2022-02-08-11:32:19.988264,2.0,12.0,415.0
2022-02-08-11:32:19.989267,4.0,7.0,415.0
2022-02-08-11:32:19.990267,4.0,7.0,415.0
2022-02-08-11:32:19.991255,0.0,2.0,415.0
2022-02-08-11:32:19.993250,4.0,5.0,415.0
2022-02-08-11:32:19.993250,8.0,7.0,415.0
2022-02-08-11:32:19.994247,8.0,7.0,415.0
2022-02-08-11:32:19.995245,10.0,2.0,415.0
2022-02-08-11:32:19.996247,3.0,13.0,414.0
2022-02-08-11:32:19.997243,3.0,13.0,414.0
2022-02-08-11:32:19.998249,3.0,13.0,414.0
2022-02-08-11:32:19.999235,2.0,2.0,414.0
2022-02-08-11:32:20.000233,2.0,4.0,415.0
2022-02-08-11:32:20.001243,4.0,2.0,414.0
2022-02-08-11:32:20.002277,4.0,2.0,414.0
2022-02-08-11:32:20.003228,6.0,8.0,414.0
2022-02-08-11:32:20.004266,6.0,5.0,415.0
2022-02-08-11:32:20.005258,6.0,5.0,415.0
2022-02-08-11:32:20.006262,6.0,5.0,415.0
2022-02-08-11:32:20.007244,1.0,0.0,415.0
2022-02-08-11:32:20.008255,10.0,1.0,414.0
2022-02-08-11:32:20.009207,9.0,9.0,415.0
2022-02-08-11:32:20.010205,9.0,9.0,415.0
2022-02-08-11:32:20.011202,9.0,9.0,415.0
2022-02-08-11:32:20.012200,7.0,9.0,415.0
2022-02-08-11:32:20.013212,8.0,10.0,415.0
2022-02-08-11:32:20.014197,9.0,19.0,415.0
2022-02-08-11:32:20.015191,9.0,19.0,415.0
2022-02-08-11:32:20.016191,4.0,13.0,414.0
2022-02-08-11:32:20.017214,3.0,2.0,415.0
2022-02-08-11:32:20.018210,0.0,3.0,415.0
2022-02-08-11:32:20.019180,0.0,3.0,415.0
2022-02-08-11:32:20.020224,2.0,0.0,414.0
2022-02-08-11:32:20.021223,1.0,0.0,415.0
2022-02-08-11:32:20.022199,0.0,0.0,415.0
2022-02-08-11:32:20.023197,4.0,1.0,415.0
2022-02-08-11:32:20.024195,3.0,12.0,415.0
2022-02-08-11:32:20.025189,7.0,24.0,415.0
2022-02-08-11:32:20.027160,7.0,24.0,415.0
2022-02-08-11:32:20.027160,7.0,24.0,415.0
2022-02-08-11:32:20.028157,9.0,18.0,414.0
2022-02-08-11:32:20.029154,12.0,21.0,415.0
2022-02-08-11:32:20.030152,9.0,11.0,415.0
2022-02-08-11:32:20.031149,9.0,11.0,415.0
2022-02-08-11:32:20.032156,5.0,6.0,415.0
2022-02-08-11:32:20.033145,1.0,2.0,415.0
2022-02-08-11:32:20.034141,4.0,6.0,415.0
2022-02-08-11:32:20.035140,3.0,5.0,414.0
2022-02-08-11:32:20.036147,5.0,16.0,415.0
2022-02-08-11:32:20.037144,7.0,21.0,415.0
2022-02-08-11:32:20.038144,9.0,23.0,415.0
2022-02-08-11:32:20.039162,9.0,23.0,415.0
2022-02-08-11:32:20.040133,1.0,8.0,415.0
2022-02-08-11:32:20.041129,2.0,1.0,415.0
2022-02-08-11:32:20.042167,1.0,3.0,415.0
2022-02-08-11:32:20.043143,1.0,3.0,415.0
2022-02-08-11:32:20.044114,7.0,8.0,415.0
2022-02-08-11:32:20.045118,10.0,22.0,415.0
2022-02-08-11:32:20.046109,10.0,28.0,415.0
2022-02-08-11:32:20.047106,8.0,25.0,415.0
2022-02-08-11:32:20.048103,8.0,25.0,415.0
2022-02-08-11:32:20.049105,6.0,16.0,414.0
2022-02-08-11:32:20.050098,0.0,10.0,415.0
2022-02-08-11:32:20.051097,4.0,14.0,415.0
2022-02-08-11:32:20.052094,4.0,14.0,415.0
2022-02-08-11:32:20.053090,1.0,1.0,415.0
2022-02-08-11:32:20.054087,2.0,0.0,415.0
2022-02-08-11:32:20.055089,3.0,1.0,415.0
2022-02-08-11:32:20.056082,2.0,7.0,415.0
2022-02-08-11:32:20.057079,5.0,0.0,414.0
2022-02-08-11:32:20.058097,4.0,5.0,415.0
2022-02-08-11:32:20.059076,5.0,3.0,415.0
2022-02-08-11:32:20.060073,5.0,3.0,415.0
2022-02-08-11:32:20.062068,11.0,3.0,414.0
2022-02-08-11:32:20.062068,7.0,5.0,415.0
2022-02-08-11:32:20.063066,8.0,3.0,415.0
2022-02-08-11:32:20.064190,9.0,14.0,415.0
2022-02-08-11:32:20.065113,11.0,12.0,415.0
2022-02-08-11:32:20.066055,5.0,3.0,414.0
2022-02-08-11:32:20.067178,1.0,2.0,415.0
2022-02-08-11:32:20.068099,1.0,2.0,415.0
2022-02-08-11:32:20.069071,3.0,5.0,415.0
2022-02-08-11:32:20.070155,4.0,7.0,415.0
2022-02-08-11:32:20.071070,8.0,11.0,415.0
2022-02-08-11:32:20.072195,8.0,11.0,415.0
2022-02-08-11:32:20.073045,3.0,8.0,415.0
2022-02-08-11:32:20.074068,3.0,11.0,415.0
2022-02-08-11:32:20.075049,3.0,11.0,415.0
2022-02-08-11:32:20.076042,10.0,25.0,414.0
2022-02-08-11:32:20.077026,10.0,25.0,414.0
2022-02-08-11:32:20.078024,9.0,7.0,415.0
2022-02-08-11:32:20.079029,9.0,7.0,415.0
2022-02-08-11:32:20.080020,9.0,7.0,415.0
2022-02-08-11:32:20.081035,9.0,7.0,415.0
2022-02-08-11:32:20.082015,3.0,30.0,415.0
2022-02-08-11:32:20.083013,3.0,30.0,415.0
2022-02-08-11:32:20.084011,3.0,30.0,415.0
2022-02-08-11:32:20.085005,3.0,30.0,415.0
2022-02-08-11:32:20.086002,4.0,11.0,415.0
2022-02-08-11:32:20.086999,1.0,1.0,415.0
2022-02-08-11:32:20.087996,4.0,2.0,415.0
2022-02-08-11:32:20.088999,4.0,2.0,415.0
2022-02-08-11:32:20.089995,1.0,11.0,414.0
2022-02-08-11:32:20.090989,6.0,13.0,414.0
2022-02-08-11:32:20.091986,6.0,13.0,414.0
2022-02-08-11:32:20.092983,6.0,13.0,414.0
2022-02-08-11:32:20.093981,11.0,7.0,415.0
2022-02-08-11:32:20.095976,9.0,5.0,414.0
2022-02-08-11:32:20.096974,6.0,8.0,415.0
2022-02-08-11:32:20.096974,4.0,2.0,415.0
2022-02-08-11:32:20.097970,1.0,1.0,415.0
2022-02-08-11:32:20.098968,1.0,1.0,415.0
2022-02-08-11:32:20.099965,1.0,1.0,415.0
2022-02-08-11:32:20.100970,1.0,1.0,415.0
2022-02-08-11:32:20.101960,1.0,8.0,415.0
2022-02-08-11:32:20.102958,0.0,12.0,415.0
2022-02-08-11:32:20.103961,0.0,12.0,415.0
2022-02-08-11:32:20.104952,0.0,12.0,415.0
2022-02-08-11:32:20.105957,2.0,15.0,415.0
2022-02-08-11:32:20.106946,1.0,14.0,415.0
2022-02-08-11:32:20.107970,5.0,9.0,415.0
2022-02-08-11:32:20.108946,5.0,9.0,415.0
2022-02-08-11:32:20.109950,9.0,1.0,414.0
2022-02-08-11:32:20.110948,9.0,1.0,415.0
2022-02-08-11:32:20.111958,10.0,5.0,415.0
2022-02-08-11:32:20.112930,10.0,5.0,415.0
2022-02-08-11:32:20.113935,6.0,13.0,415.0
2022-02-08-11:32:20.114925,3.0,9.0,415.0
2022-02-08-11:32:20.115969,4.0,6.0,414.0
2022-02-08-11:32:20.116919,4.0,6.0,414.0
2022-02-08-11:32:20.117917,6.0,3.0,414.0
2022-02-08-11:32:20.118943,3.0,4.0,415.0
2022-02-08-11:32:20.119949,3.0,4.0,415.0
2022-02-08-11:32:20.120954,3.0,4.0,415.0
2022-02-08-11:32:20.121940,3.0,4.0,415.0
2022-02-08-11:32:20.122903,8.0,3.0,415.0
2022-02-08-11:32:20.123903,8.0,3.0,415.0
2022-02-08-11:32:20.124917,8.0,3.0,415.0
2022-02-08-11:32:20.125933,8.0,3.0,415.0
2022-02-08-11:32:20.126928,9.0,9.0,415.0
2022-02-08-11:32:20.129885,11.0,12.0,415.0
2022-02-08-11:32:20.130883,10.0,13.0,415.0
2022-02-08-11:32:20.130883,13.0,14.0,415.0
2022-02-08-11:32:20.131899,2.0,1.0,415.0
2022-02-08-11:32:20.132903,1.0,8.0,416.0
2022-02-08-11:32:20.133919,6.0,8.0,415.0
2022-02-08-11:32:20.134872,5.0,2.0,415.0
2022-02-08-11:32:20.135902,4.0,2.0,414.0
2022-02-08-11:32:20.136871,6.0,3.0,415.0
2022-02-08-11:32:20.137867,0.0,6.0,415.0
2022-02-08-11:32:20.138861,0.0,19.0,415.0
2022-02-08-11:32:20.139858,2.0,5.0,414.0
2022-02-08-11:32:20.140868,2.0,5.0,414.0
2022-02-08-11:32:20.141880,2.0,5.0,414.0
2022-02-08-11:32:20.142853,7.0,1.0,414.0
2022-02-08-11:32:20.143847,9.0,3.0,415.0
2022-02-08-11:32:20.144845,9.0,3.0,415.0
2022-02-08-11:32:20.145843,12.0,4.0,415.0
2022-02-08-11:32:20.146846,11.0,11.0,415.0
2022-02-08-11:32:20.147839,5.0,11.0,415.0
2022-02-08-11:32:20.148834,3.0,4.0,414.0
2022-02-08-11:32:20.149832,1.0,2.0,415.0
2022-02-08-11:32:20.150830,1.0,6.0,415.0
2022-02-08-11:32:20.151859,1.0,3.0,414.0
2022-02-08-11:32:20.152838,1.0,3.0,414.0
2022-02-08-11:32:20.153822,1.0,3.0,414.0
2022-02-08-11:32:20.154824,4.0,3.0,414.0
2022-02-08-11:32:20.155819,2.0,1.0,415.0
2022-02-08-11:32:20.156819,3.0,4.0,414.0
2022-02-08-11:32:20.157819,3.0,4.0,414.0
2022-02-08-11:32:20.158816,3.0,4.0,414.0
2022-02-08-11:32:20.159805,7.0,3.0,415.0
2022-02-08-11:32:20.160803,12.0,5.0,414.0
2022-02-08-11:32:20.161800,10.0,1.0,415.0
2022-02-08-11:32:20.163795,10.0,8.0,415.0
2022-02-08-11:32:20.164792,3.0,9.0,414.0
2022-02-08-11:32:20.164792,3.0,9.0,414.0
2022-02-08-11:32:20.165789,3.0,9.0,414.0
2022-02-08-11:32:20.166791,3.0,9.0,414.0
2022-02-08-11:32:20.167795,1.0,8.0,415.0
2022-02-08-11:32:20.168781,1.0,1.0,415.0
2022-02-08-11:32:20.169788,1.0,1.0,415.0
2022-02-08-11:32:20.170783,1.0,1.0,415.0
2022-02-08-11:32:20.171782,1.0,2.0,415.0
2022-02-08-11:32:20.172771,1.0,6.0,414.0
2022-02-08-11:32:20.173768,1.0,6.0,414.0
2022-02-08-11:32:20.174771,1.0,6.0,414.0
2022-02-08-11:32:20.175763,8.0,10.0,415.0
2022-02-08-11:32:20.176760,8.0,12.0,415.0
2022-02-08-11:32:20.177757,8.0,12.0,415.0
2022-02-08-11:32:20.178788,8.0,12.0,415.0
2022-02-08-11:32:20.179751,13.0,14.0,415.0
2022-02-08-11:32:20.180789,12.0,19.0,414.0
2022-02-08-11:32:20.181790,6.0,12.0,414.0
2022-02-08-11:32:20.182743,1.0,5.0,415.0
2022-02-08-11:32:20.183741,1.0,2.0,415.0
2022-02-08-11:32:20.184738,6.0,8.0,414.0
2022-02-08-11:32:20.185741,6.0,8.0,414.0
2022-02-08-11:32:20.186740,6.0,8.0,414.0
2022-02-08-11:32:20.187759,6.0,2.0,415.0
2022-02-08-11:32:20.188728,5.0,6.0,414.0
2022-02-08-11:32:20.189743,6.0,9.0,414.0
2022-02-08-11:32:20.190724,2.0,14.0,415.0
2022-02-08-11:32:20.191721,6.0,2.0,415.0
2022-02-08-11:32:20.192721,3.0,4.0,415.0
2022-02-08-11:32:20.193716,11.0,5.0,415.0
2022-02-08-11:32:20.194715,11.0,5.0,415.0
2022-02-08-11:32:20.195710,11.0,5.0,415.0
2022-02-08-11:32:20.196716,11.0,2.0,415.0
2022-02-08-11:32:20.198726,16.0,2.0,415.0
2022-02-08-11:32:20.198726,11.0,1.0,415.0
2022-02-08-11:32:20.199699,2.0,0.0,415.0
2022-02-08-11:32:20.200697,3.0,13.0,415.0
2022-02-08-11:32:20.201700,3.0,9.0,415.0
2022-02-08-11:32:20.202690,3.0,9.0,415.0
2022-02-08-11:32:20.203687,3.0,9.0,415.0
2022-02-08-11:32:20.204687,4.0,12.0,414.0
2022-02-08-11:32:20.205682,3.0,13.0,415.0
2022-02-08-11:32:20.206698,1.0,6.0,415.0
2022-02-08-11:32:20.207696,3.0,2.0,415.0
2022-02-08-11:32:20.208799,3.0,2.0,415.0
2022-02-08-11:32:20.209768,5.0,1.0,415.0
2022-02-08-11:32:20.210779,7.0,3.0,415.0
2022-02-08-11:32:20.211714,15.0,0.0,414.0
2022-02-08-11:32:20.212683,13.0,7.0,415.0
2022-02-08-11:32:20.213660,13.0,7.0,415.0
2022-02-08-11:32:20.214689,6.0,16.0,415.0
2022-02-08-11:32:20.215706,6.0,16.0,415.0
2022-02-08-11:32:20.216682,0.0,9.0,415.0
2022-02-08-11:32:20.217660,0.0,2.0,415.0
2022-02-08-11:32:20.218779,2.0,6.0,415.0
2022-02-08-11:32:20.219688,4.0,11.0,414.0
2022-02-08-11:32:20.220642,4.0,7.0,415.0
2022-02-08-11:32:20.221690,1.0,4.0,414.0
2022-02-08-11:32:20.222639,3.0,3.0,415.0
2022-02-08-11:32:20.223635,0.0,1.0,415.0
2022-02-08-11:32:20.224666,1.0,11.0,415.0
2022-02-08-11:32:20.225630,5.0,4.0,415.0
2022-02-08-11:32:20.226686,8.0,2.0,414.0
2022-02-08-11:32:20.227624,8.0,2.0,414.0
2022-02-08-11:32:20.228626,11.0,6.0,415.0
2022-02-08-11:32:20.229652,12.0,7.0,415.0
2022-02-08-11:32:20.230622,7.0,6.0,415.0
2022-02-08-11:32:20.232644,7.0,6.0,415.0
2022-02-08-11:32:20.232644,2.0,7.0,415.0
2022-02-08-11:32:20.233607,3.0,4.0,415.0
2022-02-08-11:32:20.234606,3.0,4.0,415.0
2022-02-08-11:32:20.235650,5.0,2.0,415.0
2022-02-08-11:32:20.236600,5.0,2.0,415.0
2022-02-08-11:32:20.237598,1.0,5.0,415.0
2022-02-08-11:32:20.238620,1.0,15.0,415.0
2022-02-08-11:32:20.239639,3.0,8.0,415.0
2022-02-08-11:32:20.240591,2.0,10.0,414.0
2022-02-08-11:32:20.241631,1.0,8.0,414.0
2022-02-08-11:32:20.242632,5.0,4.0,415.0
2022-02-08-11:32:20.243613,8.0,0.0,415.0
2022-02-08-11:32:20.244578,8.0,0.0,415.0
2022-02-08-11:32:20.245577,11.0,26.0,414.0
2022-02-08-11:32:20.246576,6.0,17.0,415.0
2022-02-08-11:32:20.247621,6.0,17.0,415.0
2022-02-08-11:32:20.248607,6.0,17.0,415.0
2022-02-08-11:32:20.249607,3.0,8.0,415.0
2022-02-08-11:32:20.250589,3.0,0.0,414.0
2022-02-08-11:32:20.251610,2.0,6.0,415.0
2022-02-08-11:32:20.252588,2.0,6.0,415.0
2022-02-08-11:32:20.253583,1.0,4.0,415.0
2022-02-08-11:32:20.254557,2.0,11.0,415.0
2022-02-08-11:32:20.255553,2.0,12.0,415.0
2022-02-08-11:32:20.256546,0.0,13.0,415.0
2022-02-08-11:32:20.257547,4.0,5.0,415.0
2022-02-08-11:32:20.258558,8.0,6.0,414.0
2022-02-08-11:32:20.259551,8.0,6.0,414.0
2022-02-08-11:32:20.260537,8.0,6.0,414.0
2022-02-08-11:32:20.261584,12.0,9.0,415.0
2022-02-08-11:32:20.262563,6.0,11.0,415.0
2022-02-08-11:32:20.263582,6.0,11.0,415.0
2022-02-08-11:32:20.264526,6.0,11.0,415.0
2022-02-08-11:32:20.267518,7.0,7.0,415.0
2022-02-08-11:32:20.267518,2.0,2.0,415.0
2022-02-08-11:32:20.268550,2.0,2.0,415.0
2022-02-08-11:32:20.269588,0.0,6.0,414.0
2022-02-08-11:32:20.270551,4.0,0.0,415.0
2022-02-08-11:32:20.271506,4.0,0.0,415.0
2022-02-08-11:32:20.272548,4.0,0.0,415.0
2022-02-08-11:32:20.273512,4.0,0.0,415.0
2022-02-08-11:32:20.274554,4.0,3.0,415.0
2022-02-08-11:32:20.275529,6.0,1.0,415.0
2022-02-08-11:32:20.276534,6.0,1.0,415.0
2022-02-08-11:32:20.277525,6.0,1.0,415.0
2022-02-08-11:32:20.278538,9.0,1.0,415.0
2022-02-08-11:32:20.279529,11.0,6.0,415.0
2022-02-08-11:32:20.280529,12.0,6.0,414.0
2022-02-08-11:32:20.281517,12.0,6.0,414.0
2022-02-08-11:32:20.282525,8.0,7.0,415.0
2022-02-08-11:32:20.283513,1.0,13.0,415.0
2022-02-08-11:32:20.284505,4.0,4.0,415.0
2022-02-08-11:32:20.285513,4.0,4.0,415.0
2022-02-08-11:32:20.286512,2.0,9.0,415.0
2022-02-08-11:32:20.287496,0.0,6.0,415.0
2022-02-08-11:32:20.288495,1.0,15.0,414.0
2022-02-08-11:32:20.289485,7.0,20.0,415.0
2022-02-08-11:32:20.290485,3.0,13.0,415.0
2022-02-08-11:32:20.291490,4.0,9.0,414.0
2022-02-08-11:32:20.292486,10.0,25.0,414.0
2022-02-08-11:32:20.293451,10.0,25.0,414.0
2022-02-08-11:32:20.294471,8.0,7.0,415.0
2022-02-08-11:32:20.295484,9.0,7.0,415.0
2022-02-08-11:32:20.296440,7.0,1.0,415.0
2022-02-08-11:32:20.297444,7.0,1.0,415.0
2022-02-08-11:32:20.298473,2.0,7.0,414.0
2022-02-08-11:32:20.299458,1.0,15.0,415.0
2022-02-08-11:32:20.300461,2.0,10.0,415.0
2022-02-08-11:32:20.301430,2.0,10.0,415.0
2022-02-08-11:32:20.302450,2.0,10.0,415.0
2022-02-08-11:32:20.304445,1.0,9.0,415.0
2022-02-08-11:32:20.304445,0.0,4.0,415.0
2022-02-08-11:32:20.305426,5.0,8.0,415.0
2022-02-08-11:32:20.306440,4.0,7.0,414.0
2022-02-08-11:32:20.307453,13.0,5.0,414.0
2022-02-08-11:32:20.308435,13.0,5.0,414.0
2022-02-08-11:32:20.309411,13.0,5.0,414.0
2022-02-08-11:32:20.310403,13.0,5.0,414.0
2022-02-08-11:32:20.311430,12.0,11.0,415.0
2022-02-08-11:32:20.312441,13.0,10.0,415.0
2022-02-08-11:32:20.313421,8.0,13.0,415.0
2022-02-08-11:32:20.314421,8.0,13.0,415.0
2022-02-08-11:32:20.315416,5.0,14.0,415.0
2022-02-08-11:32:20.316424,1.0,12.0,415.0
2022-02-08-11:32:20.317429,2.0,13.0,415.0
2022-02-08-11:32:20.318406,1.0,8.0,415.0
2022-02-08-11:32:20.319405,5.0,4.0,415.0
2022-02-08-11:32:20.320401,0.0,1.0,415.0
2022-02-08-11:32:20.321411,2.0,8.0,414.0
2022-02-08-11:32:20.322371,2.0,8.0,414.0
2022-02-08-11:32:20.323409,5.0,15.0,415.0
2022-02-08-11:32:20.324405,6.0,16.0,415.0
2022-02-08-11:32:20.325389,6.0,16.0,415.0
2022-02-08-11:32:20.326386,6.0,16.0,415.0
2022-02-08-11:32:20.327384,10.0,19.0,415.0
2022-02-08-11:32:20.328379,8.0,12.0,415.0
2022-02-08-11:32:20.329380,8.0,12.0,415.0
2022-02-08-11:32:20.330378,8.0,12.0,415.0
2022-02-08-11:32:20.331373,6.0,9.0,415.0
2022-02-08-11:32:20.332373,6.0,7.0,414.0
2022-02-08-11:32:20.333370,1.0,3.0,414.0
2022-02-08-11:32:20.334365,1.0,3.0,414.0
2022-02-08-11:32:20.336358,3.0,5.0,415.0
2022-02-08-11:32:20.336358,3.0,8.0,415.0
2022-02-08-11:32:20.337356,3.0,8.0,415.0
2022-02-08-11:32:20.338328,3.0,8.0,415.0
2022-02-08-11:32:20.339364,5.0,6.0,415.0
2022-02-08-11:32:20.340323,4.0,1.0,415.0
2022-02-08-11:32:20.341353,4.0,1.0,415.0
2022-02-08-11:32:20.342327,4.0,1.0,415.0
2022-02-08-11:32:20.343347,7.0,7.0,415.0
2022-02-08-11:32:20.344339,7.0,7.0,415.0
2022-02-08-11:32:20.345343,7.0,8.0,415.0
2022-02-08-11:32:20.346345,10.0,11.0,415.0
2022-02-08-11:32:20.347348,9.0,6.0,415.0
2022-02-08-11:32:20.348307,2.0,2.0,415.0
2022-02-08-11:32:20.349345,3.0,0.0,415.0
2022-02-08-11:32:20.350321,1.0,3.0,414.0
2022-02-08-11:32:20.351321,1.0,3.0,414.0
2022-02-08-11:32:20.352317,0.0,2.0,415.0
2022-02-08-11:32:20.353289,0.0,2.0,415.0
2022-02-08-11:32:20.354312,4.0,4.0,415.0
2022-02-08-11:32:20.355308,1.0,0.0,415.0
2022-02-08-11:32:20.356285,4.0,3.0,415.0
2022-02-08-11:32:20.357279,1.0,5.0,415.0
2022-02-08-11:32:20.358288,1.0,5.0,415.0
2022-02-08-11:32:20.359314,3.0,3.0,415.0
2022-02-08-11:32:20.360296,7.0,3.0,415.0
2022-02-08-11:32:20.361310,9.0,5.0,415.0
2022-02-08-11:32:20.362263,9.0,4.0,415.0
2022-02-08-11:32:20.363303,12.0,10.0,415.0
2022-02-08-11:32:20.364284,8.0,4.0,415.0
2022-02-08-11:32:20.365282,5.0,9.0,415.0
2022-02-08-11:32:20.366278,1.0,1.0,415.0
2022-02-08-11:32:20.367278,0.0,3.0,415.0
2022-02-08-11:32:20.369271,0.0,1.0,415.0
2022-02-08-11:32:20.369271,1.0,5.0,415.0
2022-02-08-11:32:20.370274,2.0,3.0,415.0
2022-02-08-11:32:20.371269,2.0,3.0,415.0
2022-02-08-11:32:20.372262,5.0,3.0,414.0
2022-02-08-11:32:20.373272,5.0,6.0,415.0
2022-02-08-11:32:20.374271,5.0,2.0,415.0
2022-02-08-11:32:20.375232,8.0,1.0,415.0
2022-02-08-11:32:20.376237,6.0,0.0,415.0
2022-02-08-11:32:20.377224,10.0,7.0,415.0
2022-02-08-11:32:20.378255,11.0,6.0,415.0
2022-02-08-11:32:20.379219,11.0,6.0,415.0
2022-02-08-11:32:20.380247,10.0,9.0,415.0
2022-02-08-11:32:20.381239,5.0,4.0,414.0
2022-02-08-11:32:20.382236,3.0,3.0,414.0
2022-02-08-11:32:20.383252,1.0,6.0,415.0
2022-02-08-11:32:20.384243,2.0,4.0,415.0
2022-02-08-11:32:20.385245,2.0,4.0,415.0
2022-02-08-11:32:20.386226,2.0,6.0,415.0
2022-02-08-11:32:20.387330,3.0,2.0,415.0
2022-02-08-11:32:20.388195,3.0,3.0,414.0
2022-02-08-11:32:20.389339,6.0,2.0,415.0
2022-02-08-11:32:20.390229,6.0,2.0,415.0
2022-02-08-11:32:20.391192,6.0,2.0,415.0
2022-02-08-11:32:20.392247,6.0,2.0,415.0
2022-02-08-11:32:20.393250,13.0,3.0,414.0
2022-02-08-11:32:20.394280,13.0,6.0,415.0
2022-02-08-11:32:20.395188,13.0,6.0,415.0
2022-02-08-11:32:20.396218,13.0,6.0,415.0
2022-02-08-11:32:20.397231,6.0,7.0,415.0
2022-02-08-11:32:20.398273,2.0,2.0,415.0
2022-02-08-11:32:20.399227,1.0,1.0,415.0
2022-02-08-11:32:20.400175,1.0,1.0,415.0
2022-02-08-11:32:20.401172,1.0,0.0,414.0
2022-02-08-11:32:20.402160,0.0,2.0,415.0
2022-02-08-11:32:20.404184,1.0,7.0,415.0
2022-02-08-11:32:20.404184,1.0,7.0,415.0
2022-02-08-11:32:20.405192,0.0,3.0,415.0
2022-02-08-11:32:20.406192,0.0,3.0,415.0
2022-02-08-11:32:20.407143,4.0,1.0,415.0
2022-02-08-11:32:20.408141,4.0,1.0,415.0
2022-02-08-11:32:20.409140,7.0,4.0,415.0
2022-02-08-11:32:20.410136,14.0,9.0,415.0
2022-02-08-11:32:20.411133,14.0,9.0,415.0
2022-02-08-11:32:20.412130,14.0,9.0,415.0
2022-02-08-11:32:20.413127,10.0,13.0,415.0
2022-02-08-11:32:20.414124,7.0,1.0,415.0
2022-02-08-11:32:20.415127,0.0,5.0,414.0
2022-02-08-11:32:20.416123,0.0,5.0,414.0
2022-02-08-11:32:20.417122,4.0,0.0,415.0
2022-02-08-11:32:20.418119,2.0,0.0,415.0
2022-02-08-11:32:20.419119,1.0,1.0,415.0
2022-02-08-11:32:20.420111,1.0,1.0,415.0
2022-02-08-11:32:20.421106,2.0,2.0,415.0
2022-02-08-11:32:20.422103,1.0,7.0,415.0
2022-02-08-11:32:20.423100,1.0,7.0,415.0
2022-02-08-11:32:20.424127,1.0,7.0,415.0
2022-02-08-11:32:20.425107,1.0,7.0,415.0
2022-02-08-11:32:20.426094,8.0,4.0,414.0
2022-02-08-11:32:20.427124,9.0,4.0,415.0
2022-02-08-11:32:20.428131,12.0,11.0,414.0
2022-02-08-11:32:20.429134,10.0,24.0,415.0
2022-02-08-11:32:20.430121,7.0,14.0,415.0
2022-02-08-11:32:20.431124,10.0,14.0,415.0
2022-02-08-11:32:20.432085,10.0,5.0,415.0
2022-02-08-11:32:20.433107,1.0,2.0,414.0
2022-02-08-11:32:20.434071,5.0,3.0,415.0
2022-02-08-11:32:20.435072,0.0,2.0,415.0
2022-02-08-11:32:20.437066,0.0,2.0,415.0
2022-02-08-11:32:20.438063,3.0,12.0,415.0
2022-02-08-11:32:20.439109,2.0,6.0,414.0
2022-02-08-11:32:20.440099,1.0,1.0,414.0
2022-02-08-11:32:20.441102,1.0,1.0,414.0
2022-02-08-11:32:20.442084,4.0,1.0,415.0
2022-02-08-11:32:20.443048,10.0,5.0,415.0
2022-02-08-11:32:20.444051,10.0,1.0,415.0
2022-02-08-11:32:20.445068,14.0,0.0,414.0
2022-02-08-11:32:20.446070,12.0,5.0,415.0
2022-02-08-11:32:20.447073,12.0,8.0,415.0
2022-02-08-11:32:20.448036,7.0,6.0,415.0
2022-02-08-11:32:20.449056,0.0,2.0,415.0
2022-02-08-11:32:20.450055,1.0,0.0,415.0
2022-02-08-11:32:20.451052,2.0,1.0,415.0
2022-02-08-11:32:20.452048,0.0,2.0,414.0
2022-02-08-11:32:20.453022,0.0,8.0,415.0
2022-02-08-11:32:20.454044,2.0,8.0,415.0
2022-02-08-11:32:20.455058,4.0,11.0,415.0
2022-02-08-11:32:20.456048,1.0,6.0,415.0
2022-02-08-11:32:20.457047,2.0,7.0,415.0
2022-02-08-11:32:20.458035,3.0,3.0,415.0
2022-02-08-11:32:20.459033,7.0,2.0,414.0
2022-02-08-11:32:20.460031,9.0,5.0,415.0
2022-02-08-11:32:20.461027,10.0,7.0,415.0
2022-02-08-11:32:20.462027,10.0,7.0,415.0
2022-02-08-11:32:20.463029,13.0,5.0,415.0
2022-02-08-11:32:20.464017,13.0,10.0,415.0
2022-02-08-11:32:20.465023,8.0,8.0,415.0
2022-02-08-11:32:20.466014,2.0,3.0,415.0
2022-02-08-11:32:20.467031,2.0,2.0,415.0
2022-02-08-11:32:20.468017,2.0,3.0,414.0
2022-02-08-11:32:20.469028,1.0,6.0,415.0
2022-02-08-11:32:20.470025,1.0,5.0,415.0
2022-02-08-11:32:20.471037,2.0,2.0,415.0
2022-02-08-11:32:20.472021,1.0,4.0,414.0
2022-02-08-11:32:20.473966,3.0,3.0,415.0
2022-02-08-11:32:20.473966,3.0,3.0,415.0
2022-02-08-11:32:20.474963,7.0,2.0,415.0
2022-02-08-11:32:20.475994,7.0,2.0,415.0
2022-02-08-11:32:20.477020,13.0,17.0,415.0
2022-02-08-11:32:20.478003,13.0,17.0,415.0
2022-02-08-11:32:20.479008,14.0,12.0,415.0
2022-02-08-11:32:20.479996,9.0,7.0,415.0
2022-02-08-11:32:20.480953,6.0,8.0,415.0
2022-02-08-11:32:20.481944,6.0,8.0,415.0
2022-02-08-11:32:20.482941,2.0,5.0,414.0
2022-02-08-11:32:20.483939,2.0,4.0,415.0
2022-02-08-11:32:20.484936,2.0,2.0,414.0
2022-02-08-11:32:20.485933,2.0,2.0,414.0
2022-02-08-11:32:20.486936,2.0,2.0,415.0
2022-02-08-11:32:20.487930,0.0,3.0,415.0
2022-02-08-11:32:20.488925,0.0,3.0,415.0
2022-02-08-11:32:20.489925,0.0,3.0,415.0
2022-02-08-11:32:20.490920,1.0,1.0,415.0
2022-02-08-11:32:20.491928,8.0,4.0,415.0
2022-02-08-11:32:20.492915,8.0,4.0,415.0
2022-02-08-11:32:20.493912,8.0,4.0,415.0
2022-02-08-11:32:20.494941,12.0,5.0,415.0
2022-02-08-11:32:20.495906,16.0,14.0,415.0
2022-02-08-11:32:20.496903,12.0,22.0,415.0
2022-02-08-11:32:20.497902,6.0,13.0,415.0
2022-02-08-11:32:20.498907,1.0,3.0,415.0
2022-02-08-11:32:20.499897,0.0,1.0,414.0
2022-02-08-11:32:20.500893,0.0,1.0,414.0
2022-02-08-11:32:20.501891,0.0,1.0,414.0
2022-02-08-11:32:20.502888,0.0,1.0,414.0
2022-02-08-11:32:20.503894,0.0,5.0,415.0
2022-02-08-11:32:20.504883,2.0,2.0,414.0
2022-02-08-11:32:20.505881,5.0,5.0,414.0
2022-02-08-11:32:20.506878,1.0,5.0,415.0
2022-02-08-11:32:20.507875,3.0,6.0,415.0
2022-02-08-11:32:20.509870,2.0,3.0,415.0
2022-02-08-11:32:20.509870,3.0,2.0,415.0
2022-02-08-11:32:20.510883,11.0,1.0,415.0
2022-02-08-11:32:20.511865,11.0,5.0,415.0
2022-02-08-11:32:20.512862,9.0,16.0,414.0
2022-02-08-11:32:20.513861,9.0,6.0,415.0
2022-02-08-11:32:20.514859,9.0,6.0,415.0
2022-02-08-11:32:20.515862,1.0,0.0,415.0
2022-02-08-11:32:20.516853,2.0,1.0,415.0
2022-02-08-11:32:20.517880,1.0,2.0,415.0
2022-02-08-11:32:20.518891,1.0,2.0,415.0
2022-02-08-11:32:20.519893,4.0,1.0,415.0
2022-02-08-11:32:20.520887,2.0,5.0,415.0
2022-02-08-11:32:20.521871,7.0,1.0,415.0
2022-02-08-11:32:20.522882,6.0,4.0,415.0
2022-02-08-11:32:20.523834,4.0,10.0,415.0
2022-02-08-11:32:20.524876,14.0,19.0,415.0
2022-02-08-11:32:20.525873,14.0,19.0,415.0
2022-02-08-11:32:20.526824,14.0,19.0,415.0
2022-02-08-11:32:20.527879,12.0,8.0,415.0
2022-02-08-11:32:20.528868,8.0,6.0,415.0
2022-02-08-11:32:20.529863,8.0,6.0,415.0
2022-02-08-11:32:20.530814,8.0,6.0,415.0
2022-02-08-11:32:20.531860,0.0,1.0,415.0
2022-02-08-11:32:20.532859,3.0,1.0,415.0
2022-02-08-11:32:20.533850,3.0,1.0,415.0
2022-02-08-11:32:20.534826,3.0,1.0,415.0
2022-02-08-11:32:20.535846,3.0,0.0,414.0
2022-02-08-11:32:20.536843,0.0,1.0,415.0
2022-02-08-11:32:20.537841,0.0,1.0,415.0
2022-02-08-11:32:20.538840,0.0,1.0,415.0
2022-02-08-11:32:20.539835,9.0,4.0,415.0
2022-02-08-11:32:20.540813,11.0,4.0,415.0
2022-02-08-11:32:20.541786,11.0,4.0,415.0
2022-02-08-11:32:20.543824,11.0,4.0,415.0
2022-02-08-11:32:20.543824,11.0,4.0,415.0
2022-02-08-11:32:20.544829,4.0,8.0,415.0
2022-02-08-11:32:20.545819,4.0,8.0,415.0
2022-02-08-11:32:20.546802,4.0,8.0,415.0
2022-02-08-11:32:20.547813,4.0,8.0,415.0
2022-02-08-11:32:20.548803,2.0,1.0,415.0
2022-02-08-11:32:20.549789,1.0,1.0,414.0
2022-02-08-11:32:20.550797,1.0,1.0,414.0
2022-02-08-11:32:20.551789,1.0,1.0,414.0
2022-02-08-11:32:20.552803,2.0,5.0,415.0
2022-02-08-11:32:20.553780,2.0,2.0,414.0
2022-02-08-11:32:20.554777,2.0,2.0,414.0
2022-02-08-11:32:20.555781,2.0,2.0,414.0
2022-02-08-11:32:20.556781,2.0,2.0,415.0
2022-02-08-11:32:20.557768,12.0,11.0,415.0
2022-02-08-11:32:20.558767,12.0,11.0,415.0
2022-02-08-11:32:20.559736,12.0,11.0,415.0
2022-02-08-11:32:20.560778,11.0,5.0,415.0
2022-02-08-11:32:20.561774,8.0,5.0,415.0
2022-02-08-11:32:20.562766,8.0,5.0,415.0
2022-02-08-11:32:20.563732,8.0,5.0,415.0
2022-02-08-11:32:20.564749,1.0,6.0,415.0
2022-02-08-11:32:20.565756,2.0,1.0,415.0
2022-02-08-11:32:20.566746,3.0,5.0,415.0
2022-02-08-11:32:20.567722,3.0,5.0,415.0
2022-02-08-11:32:20.568739,1.0,3.0,415.0
2022-02-08-11:32:20.569754,2.0,7.0,415.0
2022-02-08-11:32:20.570736,2.0,7.0,415.0
2022-02-08-11:32:20.571706,2.0,7.0,415.0
2022-02-08-11:32:20.572745,1.0,1.0,414.0
2022-02-08-11:32:20.573702,9.0,0.0,415.0
2022-02-08-11:32:20.574697,9.0,0.0,415.0
2022-02-08-11:32:20.576691,9.0,0.0,415.0
2022-02-08-11:32:20.576691,13.0,5.0,415.0
2022-02-08-11:32:20.577689,10.0,8.0,415.0
2022-02-08-11:32:20.578731,10.0,8.0,415.0
2022-02-08-11:32:20.579727,10.0,8.0,415.0
2022-02-08-11:32:20.580715,10.0,8.0,415.0
2022-02-08-11:32:20.581714,3.0,9.0,415.0
2022-02-08-11:32:20.582727,3.0,9.0,415.0
2022-02-08-11:32:20.583717,3.0,9.0,415.0
2022-02-08-11:32:20.584705,3.0,9.0,415.0
2022-02-08-11:32:20.585718,0.0,4.0,415.0
2022-02-08-11:32:20.586698,2.0,1.0,415.0
2022-02-08-11:32:20.587710,2.0,1.0,415.0
2022-02-08-11:32:20.588710,2.0,1.0,415.0
2022-02-08-11:32:20.589703,2.0,2.0,415.0
2022-02-08-11:32:20.590655,10.0,2.0,415.0
2022-02-08-11:32:20.591686,10.0,2.0,415.0
2022-02-08-11:32:20.592654,9.0,3.0,415.0
2022-02-08-11:32:20.593646,8.0,9.0,415.0
2022-02-08-11:32:20.594676,8.0,9.0,415.0
2022-02-08-11:32:20.595674,8.0,9.0,415.0
2022-02-08-11:32:20.596672,8.0,9.0,415.0
2022-02-08-11:32:20.597667,3.0,9.0,415.0
2022-02-08-11:32:20.598679,3.0,21.0,415.0
2022-02-08-11:32:20.599665,3.0,21.0,415.0
2022-02-08-11:32:20.600660,3.0,21.0,415.0
2022-02-08-11:32:20.601665,1.0,2.0,415.0
2022-02-08-11:32:20.602665,1.0,2.0,415.0
2022-02-08-11:32:20.603619,1.0,2.0,415.0
2022-02-08-11:32:20.604616,1.0,2.0,415.0
2022-02-08-11:32:20.605621,3.0,4.0,415.0
2022-02-08-11:32:20.606622,6.0,6.0,414.0
2022-02-08-11:32:20.607611,6.0,6.0,414.0
2022-02-08-11:32:20.608619,6.0,6.0,414.0
2022-02-08-11:32:20.610609,13.0,9.0,415.0
2022-02-08-11:32:20.610609,13.0,9.0,415.0
2022-02-08-11:32:20.611606,13.0,9.0,415.0
2022-02-08-11:32:20.612622,13.0,9.0,415.0
2022-02-08-11:32:20.613615,13.0,9.0,415.0
2022-02-08-11:32:20.614607,1.0,0.0,415.0
2022-02-08-11:32:20.615591,1.0,0.0,415.0
2022-02-08-11:32:20.616592,1.0,0.0,415.0
2022-02-08-11:32:20.617615,2.0,3.0,415.0
2022-02-08-11:32:20.618617,1.0,2.0,415.0
2022-02-08-11:32:20.619614,1.0,2.0,415.0
2022-02-08-11:32:20.620606,1.0,2.0,415.0
2022-02-08-11:32:20.621612,1.0,2.0,415.0
2022-02-08-11:32:20.622603,7.0,3.0,415.0
2022-02-08-11:32:20.623597,7.0,3.0,415.0
2022-02-08-11:32:20.624597,7.0,3.0,415.0
2022-02-08-11:32:20.625595,9.0,11.0,415.0
2022-02-08-11:32:20.626592,16.0,1.0,414.0
2022-02-08-11:32:20.627600,16.0,1.0,414.0
2022-02-08-11:32:20.628587,16.0,1.0,414.0
2022-02-08-11:32:20.629603,16.0,1.0,414.0
2022-02-08-11:32:20.630583,6.0,2.0,415.0
2022-02-08-11:32:20.631590,2.0,3.0,415.0
2022-02-08-11:32:20.632584,2.0,3.0,415.0
2022-02-08-11:32:20.633586,2.0,3.0,415.0
2022-02-08-11:32:20.634570,0.0,16.0,415.0
2022-02-08-11:32:20.635587,0.0,2.0,415.0
2022-02-08-11:32:20.636569,0.0,2.0,415.0
2022-02-08-11:32:20.637562,0.0,2.0,415.0
2022-02-08-11:32:20.638566,1.0,8.0,415.0
2022-02-08-11:32:20.639569,1.0,5.0,415.0
2022-02-08-11:32:20.640523,1.0,5.0,415.0
2022-02-08-11:32:20.641527,1.0,5.0,415.0
2022-02-08-11:32:20.643566,6.0,7.0,415.0
2022-02-08-11:32:20.644510,10.0,4.0,415.0
2022-02-08-11:32:20.644510,10.0,4.0,415.0
2022-02-08-11:32:20.645511,10.0,4.0,415.0
2022-02-08-11:32:20.646568,15.0,6.0,415.0
2022-02-08-11:32:20.647575,1.0,3.0,415.0
2022-02-08-11:32:20.648552,1.0,0.0,414.0
2022-02-08-11:32:20.649536,1.0,0.0,414.0
2022-02-08-11:32:20.650557,1.0,5.0,415.0
2022-02-08-11:32:20.651544,1.0,4.0,415.0
2022-02-08-11:32:20.652534,0.0,4.0,414.0
2022-02-08-11:32:20.653520,0.0,4.0,414.0
2022-02-08-11:32:20.654524,0.0,4.0,414.0
2022-02-08-11:32:20.655514,7.0,5.0,415.0
2022-02-08-11:32:20.656512,7.0,5.0,415.0
2022-02-08-11:32:20.657484,7.0,5.0,415.0
2022-02-08-11:32:20.658525,7.0,5.0,415.0
2022-02-08-11:32:20.659471,6.0,13.0,415.0
2022-02-08-11:32:20.660475,9.0,11.0,415.0
2022-02-08-11:32:20.661513,12.0,2.0,415.0
2022-02-08-11:32:20.662511,12.0,2.0,415.0
2022-02-08-11:32:20.663501,7.0,12.0,415.0
2022-02-08-11:32:20.664509,3.0,7.0,414.0
2022-02-08-11:32:20.665489,3.0,7.0,414.0
2022-02-08-11:32:20.666502,3.0,7.0,414.0
2022-02-08-11:32:20.667481,2.0,2.0,414.0
2022-02-08-11:32:20.668480,3.0,0.0,415.0
2022-02-08-11:32:20.669489,1.0,5.0,415.0
2022-02-08-11:32:20.670490,1.0,5.0,415.0
2022-02-08-11:32:20.671472,0.0,4.0,415.0
2022-02-08-11:32:20.672488,0.0,2.0,415.0
2022-02-08-11:32:20.673467,2.0,3.0,415.0
2022-02-08-11:32:20.674432,2.0,3.0,415.0
2022-02-08-11:32:20.675427,10.0,2.0,414.0
2022-02-08-11:32:20.677447,10.0,2.0,414.0
2022-02-08-11:32:20.677447,11.0,5.0,414.0
2022-02-08-11:32:20.678420,10.0,9.0,415.0
2022-02-08-11:32:20.679466,1.0,1.0,414.0
2022-02-08-11:32:20.680464,1.0,1.0,414.0
2022-02-08-11:32:20.681459,1.0,1.0,414.0
2022-02-08-11:32:20.682408,1.0,1.0,414.0
2022-02-08-11:32:20.683460,2.0,5.0,415.0
2022-02-08-11:32:20.684459,2.0,0.0,415.0
2022-02-08-11:32:20.685469,0.0,4.0,415.0
2022-02-08-11:32:20.686399,0.0,4.0,415.0
2022-02-08-11:32:20.687464,1.0,1.0,415.0
2022-02-08-11:32:20.688447,4.0,2.0,415.0
2022-02-08-11:32:20.689457,2.0,2.0,414.0
2022-02-08-11:32:20.690447,2.0,2.0,414.0
2022-02-08-11:32:20.691461,1.0,1.0,415.0
2022-02-08-11:32:20.692448,12.0,5.0,415.0
2022-02-08-11:32:20.693394,13.0,1.0,415.0
2022-02-08-11:32:20.694431,13.0,1.0,415.0
2022-02-08-11:32:20.695443,13.0,1.0,415.0
2022-02-08-11:32:20.696444,8.0,3.0,415.0
2022-02-08-11:32:20.697429,3.0,5.0,415.0
2022-02-08-11:32:20.698439,3.0,5.0,415.0
2022-02-08-11:32:20.699409,0.0,0.0,414.0
2022-02-08-11:32:20.700396,1.0,1.0,415.0
2022-02-08-11:32:20.701391,2.0,1.0,415.0
2022-02-08-11:32:20.702400,2.0,1.0,415.0
2022-02-08-11:32:20.703397,2.0,1.0,415.0
2022-02-08-11:32:20.704403,0.0,4.0,415.0
2022-02-08-11:32:20.705391,4.0,0.0,415.0
2022-02-08-11:32:20.706357,3.0,1.0,415.0
2022-02-08-11:32:20.707342,3.0,1.0,415.0
2022-02-08-11:32:20.708344,1.0,3.0,415.0
2022-02-08-11:32:20.710380,11.0,12.0,415.0
2022-02-08-11:32:20.711331,12.0,12.0,415.0
2022-02-08-11:32:20.711331,9.0,4.0,415.0
2022-02-08-11:32:20.712392,7.0,3.0,415.0
2022-02-08-11:32:20.713374,7.0,3.0,415.0
2022-02-08-11:32:20.714372,7.0,3.0,415.0
2022-02-08-11:32:20.715320,7.0,3.0,415.0
2022-02-08-11:32:20.716367,2.0,2.0,415.0
2022-02-08-11:32:20.717383,1.0,6.0,415.0
2022-02-08-11:32:20.718360,1.0,4.0,415.0
2022-02-08-11:32:20.719310,1.0,4.0,415.0
2022-02-08-11:32:20.720333,0.0,1.0,415.0
2022-02-08-11:32:20.721367,3.0,6.0,414.0
2022-02-08-11:32:20.722368,3.0,6.0,414.0
2022-02-08-11:32:20.723304,3.0,6.0,414.0
2022-02-08-11:32:20.724297,1.0,0.0,415.0
2022-02-08-11:32:20.725341,10.0,3.0,415.0
2022-02-08-11:32:20.726291,12.0,4.0,414.0
2022-02-08-11:32:20.727343,12.0,4.0,414.0
2022-02-08-11:32:20.728332,4.0,8.0,415.0
2022-02-08-11:32:20.729331,4.0,8.0,415.0
2022-02-08-11:32:20.730330,4.0,8.0,415.0
2022-02-08-11:32:20.731325,4.0,8.0,415.0
2022-02-08-11:32:20.732277,4.0,8.0,415.0
2022-02-08-11:32:20.733298,0.0,2.0,415.0
2022-02-08-11:32:20.734316,1.0,4.0,415.0
2022-02-08-11:32:20.735326,1.0,4.0,415.0
2022-02-08-11:32:20.736311,1.0,4.0,415.0
2022-02-08-11:32:20.737316,2.0,2.0,415.0
2022-02-08-11:32:20.738311,1.0,3.0,415.0
2022-02-08-11:32:20.739316,4.0,1.0,414.0
2022-02-08-11:32:20.740253,4.0,1.0,414.0
2022-02-08-11:32:20.741260,3.0,0.0,415.0
2022-02-08-11:32:20.742258,3.0,0.0,415.0
2022-02-08-11:32:20.743292,8.0,8.0,415.0
2022-02-08-11:32:20.745241,11.0,7.0,415.0
2022-02-08-11:32:20.745241,6.0,3.0,415.0
2022-02-08-11:32:20.746238,6.0,3.0,415.0
2022-02-08-11:32:20.747286,6.0,3.0,415.0
2022-02-08-11:32:20.748297,6.0,3.0,415.0
2022-02-08-11:32:20.749276,2.0,6.0,415.0
2022-02-08-11:32:20.750275,4.0,4.0,415.0
2022-02-08-11:32:20.751274,5.0,6.0,414.0
2022-02-08-11:32:20.752268,5.0,6.0,414.0
2022-02-08-11:32:20.753268,0.0,2.0,415.0
2022-02-08-11:32:20.754266,4.0,5.0,415.0
2022-02-08-11:32:20.755261,3.0,3.0,415.0
2022-02-08-11:32:20.756215,3.0,3.0,415.0
2022-02-08-11:32:20.757209,0.0,3.0,415.0
2022-02-08-11:32:20.758205,13.0,4.0,414.0
2022-02-08-11:32:20.759267,13.0,4.0,414.0
2022-02-08-11:32:20.760201,13.0,4.0,414.0
2022-02-08-11:32:20.761216,8.0,6.0,415.0
2022-02-08-11:32:20.762245,8.0,4.0,414.0
2022-02-08-11:32:20.763242,8.0,4.0,414.0
2022-02-08-11:32:20.764202,8.0,4.0,414.0
2022-02-08-11:32:20.765187,2.0,0.0,415.0
2022-02-08-11:32:20.766231,3.0,1.0,415.0
2022-02-08-11:32:20.767236,3.0,3.0,415.0
2022-02-08-11:32:20.768225,3.0,3.0,415.0
2022-02-08-11:32:20.769225,4.0,4.0,415.0
2022-02-08-11:32:20.770224,3.0,4.0,415.0
2022-02-08-11:32:20.771170,1.0,1.0,415.0
2022-02-08-11:32:20.772218,1.0,1.0,415.0
2022-02-08-11:32:20.773216,1.0,1.0,415.0
2022-02-08-11:32:20.774189,1.0,4.0,415.0
2022-02-08-11:32:20.775165,14.0,9.0,415.0
2022-02-08-11:32:20.776163,14.0,9.0,415.0
2022-02-08-11:32:20.778202,14.0,9.0,415.0
2022-02-08-11:32:20.779150,8.0,1.0,415.0
2022-02-08-11:32:20.779150,8.0,1.0,415.0
2022-02-08-11:32:20.780194,8.0,1.0,415.0
2022-02-08-11:32:20.781191,8.0,1.0,415.0
2022-02-08-11:32:20.782188,1.0,1.0,415.0
2022-02-08-11:32:20.783186,3.0,6.0,415.0
2022-02-08-11:32:20.784136,0.0,7.0,415.0
2022-02-08-11:32:20.785185,0.0,7.0,415.0
2022-02-08-11:32:20.786181,2.0,3.0,414.0
2022-02-08-11:32:20.787181,1.0,9.0,415.0
2022-02-08-11:32:20.788192,2.0,8.0,415.0
2022-02-08-11:32:20.789181,2.0,8.0,415.0
2022-02-08-11:32:20.790167,1.0,8.0,415.0
2022-02-08-11:32:20.791164,6.0,4.0,415.0
2022-02-08-11:32:20.792166,10.0,16.0,415.0
2022-02-08-11:32:20.793118,10.0,16.0,415.0
2022-02-08-11:32:20.794119,12.0,5.0,415.0
2022-02-08-11:32:20.795160,10.0,4.0,415.0
2022-02-08-11:32:20.796159,10.0,4.0,415.0
2022-02-08-11:32:20.797102,10.0,4.0,415.0
2022-02-08-11:32:20.798149,3.0,4.0,415.0
2022-02-08-11:32:20.799172,0.0,6.0,415.0
2022-02-08-11:32:20.800152,2.0,7.0,415.0
2022-02-08-11:32:20.801090,2.0,7.0,415.0
2022-02-08-11:32:20.802141,1.0,4.0,415.0
2022-02-08-11:32:20.803133,3.0,2.0,415.0
2022-02-08-11:32:20.804134,2.0,1.0,415.0
2022-02-08-11:32:20.805135,2.0,1.0,415.0
2022-02-08-11:32:20.806124,3.0,4.0,415.0
2022-02-08-11:32:20.807125,5.0,4.0,415.0
2022-02-08-11:32:20.808111,9.0,0.0,415.0
2022-02-08-11:32:20.809097,9.0,0.0,415.0
2022-02-08-11:32:20.810094,9.0,0.0,415.0
2022-02-08-11:32:20.811090,13.0,8.0,414.0
2022-02-08-11:32:20.812089,12.0,10.0,414.0
2022-02-08-11:32:20.813129,10.0,10.0,414.0
2022-02-08-11:32:20.814083,1.0,5.0,415.0
2022-02-08-11:32:20.816076,2.0,2.0,415.0
2022-02-08-11:32:20.816076,2.0,2.0,415.0
2022-02-08-11:32:20.817048,2.0,2.0,415.0
2022-02-08-11:32:20.818076,2.0,2.0,415.0
2022-02-08-11:32:20.819043,2.0,1.0,415.0
2022-02-08-11:32:20.820082,2.0,1.0,415.0
2022-02-08-11:32:20.821037,2.0,1.0,415.0
2022-02-08-11:32:20.822076,2.0,1.0,415.0
2022-02-08-11:32:20.823077,4.0,6.0,414.0
2022-02-08-11:32:20.824048,2.0,4.0,415.0
2022-02-08-11:32:20.825065,6.0,2.0,415.0
2022-02-08-11:32:20.826034,6.0,2.0,415.0
2022-02-08-11:32:20.827023,10.0,10.0,415.0
2022-02-08-11:32:20.828019,10.0,12.0,415.0
2022-02-08-11:32:20.829043,10.0,12.0,415.0
2022-02-08-11:32:20.830013,10.0,12.0,415.0
2022-02-08-11:32:20.831023,6.0,8.0,415.0
2022-02-08-11:32:20.832018,6.0,4.0,415.0
2022-02-08-11:32:20.833006,0.0,2.0,414.0
2022-02-08-11:32:20.834003,0.0,2.0,414.0
2022-02-08-11:32:20.835047,2.0,1.0,415.0
2022-02-08-11:32:20.836045,3.0,3.0,415.0
2022-02-08-11:32:20.837043,1.0,4.0,415.0
2022-02-08-11:32:20.838001,1.0,4.0,415.0
2022-02-08-11:32:20.839043,3.0,3.0,414.0
2022-02-08-11:32:20.839997,7.0,1.0,414.0
2022-02-08-11:32:20.840986,7.0,1.0,414.0
2022-02-08-11:32:20.842006,7.0,1.0,414.0
2022-02-08-11:32:20.843004,11.0,4.0,415.0
2022-02-08-11:32:20.844023,9.0,25.0,414.0
2022-02-08-11:32:20.845004,13.0,21.0,415.0
2022-02-08-11:32:20.845971,13.0,21.0,415.0
2022-02-08-11:32:20.847992,8.0,7.0,414.0
2022-02-08-11:32:20.847992,0.0,1.0,414.0
2022-02-08-11:32:20.849005,0.0,1.0,414.0
2022-02-08-11:32:20.849985,0.0,1.0,414.0
2022-02-08-11:32:20.850958,0.0,1.0,414.0
2022-02-08-11:32:20.851981,2.0,3.0,415.0
2022-02-08-11:32:20.852953,1.0,9.0,415.0
2022-02-08-11:32:20.853949,1.0,9.0,415.0
2022-02-08-11:32:20.854947,1.0,9.0,415.0
2022-02-08-11:32:20.855948,1.0,2.0,415.0
2022-02-08-11:32:20.856950,0.0,0.0,415.0
2022-02-08-11:32:20.857941,7.0,0.0,415.0
2022-02-08-11:32:20.858946,7.0,0.0,415.0
2022-02-08-11:32:20.859965,6.0,3.0,415.0
2022-02-08-11:32:20.861159,12.0,7.0,415.0
2022-02-08-11:32:20.861159,12.0,7.0,415.0
2022-02-08-11:32:20.861953,12.0,7.0,415.0
2022-02-08-11:32:20.862954,12.0,7.0,415.0
2022-02-08-11:32:20.863969,6.0,4.0,415.0
2022-02-08-11:32:20.864949,3.0,1.0,415.0
2022-02-08-11:32:20.865944,1.0,1.0,415.0
2022-02-08-11:32:20.866947,1.0,1.0,415.0
2022-02-08-11:32:20.867915,1.0,0.0,415.0
2022-02-08-11:32:20.868937,2.0,2.0,415.0
2022-02-08-11:32:20.869970,2.0,2.0,415.0
2022-02-08-11:32:20.870905,2.0,2.0,415.0
2022-02-08-11:32:20.871965,2.0,6.0,415.0
2022-02-08-11:32:20.872954,2.0,9.0,415.0
2022-02-08-11:32:20.873946,3.0,2.0,415.0
2022-02-08-11:32:20.874894,3.0,2.0,415.0
2022-02-08-11:32:20.875918,11.0,7.0,415.0
2022-02-08-11:32:20.876936,7.0,3.0,415.0
2022-02-08-11:32:20.877932,7.0,3.0,415.0
2022-02-08-11:32:20.878902,7.0,3.0,415.0
2022-02-08-11:32:20.880929,4.0,2.0,414.0
2022-02-08-11:32:20.880929,2.0,3.0,414.0
2022-02-08-11:32:20.881911,2.0,3.0,414.0
2022-02-08-11:32:20.882917,2.0,3.0,414.0
2022-02-08-11:32:20.883916,1.0,3.0,415.0
2022-02-08-11:32:20.884916,2.0,7.0,415.0
2022-02-08-11:32:20.885932,2.0,3.0,415.0
2022-02-08-11:32:20.886908,2.0,3.0,415.0
2022-02-08-11:32:20.887905,2.0,3.0,415.0
2022-02-08-11:32:20.888883,4.0,1.0,415.0
2022-02-08-11:32:20.889903,4.0,1.0,415.0
2022-02-08-11:32:20.890850,4.0,1.0,415.0
2022-02-08-11:32:20.891876,4.0,1.0,415.0
2022-02-08-11:32:20.892845,6.0,1.0,415.0
2022-02-08-11:32:20.893844,12.0,5.0,415.0
2022-02-08-11:32:20.894912,12.0,3.0,415.0
2022-02-08-11:32:20.895893,12.0,3.0,415.0
2022-02-08-11:32:20.896835,1.0,6.0,415.0
2022-02-08-11:32:20.897877,1.0,6.0,415.0
2022-02-08-11:32:20.898877,1.0,6.0,415.0
2022-02-08-11:32:20.899881,1.0,6.0,415.0
2022-02-08-11:32:20.900881,1.0,8.0,415.0
2022-02-08-11:32:20.901880,1.0,8.0,415.0
2022-02-08-11:32:20.902882,1.0,4.0,414.0
2022-02-08-11:32:20.903883,1.0,4.0,414.0
2022-02-08-11:32:20.904816,0.0,3.0,415.0
2022-02-08-11:32:20.905814,2.0,5.0,415.0
2022-02-08-11:32:20.906811,2.0,5.0,415.0
2022-02-08-11:32:20.907806,1.0,2.0,414.0
2022-02-08-11:32:20.908803,14.0,5.0,415.0
2022-02-08-11:32:20.909801,14.0,5.0,415.0
2022-02-08-11:32:20.910851,14.0,5.0,415.0
2022-02-08-11:32:20.911797,14.0,5.0,415.0
2022-02-08-11:32:20.912852,13.0,4.0,415.0
2022-02-08-11:32:20.914840,13.0,4.0,415.0
2022-02-08-11:32:20.915784,2.0,1.0,415.0
2022-02-08-11:32:20.915784,2.0,1.0,415.0
2022-02-08-11:32:20.916843,2.0,2.0,415.0
2022-02-08-11:32:20.917845,0.0,0.0,415.0
2022-02-08-11:32:20.918835,0.0,0.0,415.0
2022-02-08-11:32:20.919773,0.0,0.0,415.0
2022-02-08-11:32:20.920774,0.0,2.0,415.0
2022-02-08-11:32:20.921775,5.0,0.0,415.0
2022-02-08-11:32:20.922808,5.0,0.0,415.0
2022-02-08-11:32:20.923809,5.0,0.0,415.0
2022-02-08-11:32:20.924793,5.0,0.0,415.0
2022-02-08-11:32:20.925793,4.0,2.0,415.0
2022-02-08-11:32:20.926789,9.0,6.0,415.0
2022-02-08-11:32:20.927785,12.0,8.0,415.0
2022-02-08-11:32:20.928799,12.0,8.0,415.0
2022-02-08-11:32:20.929779,11.0,17.0,415.0
2022-02-08-11:32:20.930788,5.0,4.0,415.0
2022-02-08-11:32:20.931783,3.0,2.0,415.0
2022-02-08-11:32:20.932782,3.0,2.0,415.0
2022-02-08-11:32:20.933737,2.0,5.0,415.0
2022-02-08-11:32:20.934780,1.0,0.0,415.0
2022-02-08-11:32:20.935767,2.0,3.0,415.0
2022-02-08-11:32:20.936728,2.0,3.0,415.0
2022-02-08-11:32:20.937736,2.0,5.0,415.0
2022-02-08-11:32:20.938760,2.0,4.0,415.0
2022-02-08-11:32:20.939757,2.0,4.0,415.0
2022-02-08-11:32:20.940720,2.0,4.0,415.0
2022-02-08-11:32:20.941742,1.0,3.0,415.0
2022-02-08-11:32:20.942714,11.0,6.0,415.0
2022-02-08-11:32:20.943742,11.0,6.0,415.0
2022-02-08-11:32:20.944741,11.0,6.0,415.0
2022-02-08-11:32:20.945748,14.0,6.0,415.0
2022-02-08-11:32:20.947734,5.0,12.0,415.0
2022-02-08-11:32:20.948697,5.0,12.0,415.0
2022-02-08-11:32:20.948697,1.0,3.0,415.0
2022-02-08-11:32:20.949736,3.0,4.0,415.0
2022-02-08-11:32:20.950725,3.0,4.0,415.0
2022-02-08-11:32:20.951723,3.0,4.0,415.0
2022-02-08-11:32:20.952697,3.0,4.0,415.0
2022-02-08-11:32:20.953718,0.0,3.0,415.0
2022-02-08-11:32:20.954712,1.0,0.0,415.0
2022-02-08-11:32:20.955719,4.0,5.0,415.0
2022-02-08-11:32:20.956720,4.0,5.0,415.0
2022-02-08-11:32:20.957693,6.0,0.0,415.0
2022-02-08-11:32:20.958713,14.0,14.0,415.0
2022-02-08-11:32:20.959667,10.0,12.0,414.0
2022-02-08-11:32:20.960667,10.0,12.0,414.0
2022-02-08-11:32:20.961696,10.0,12.0,414.0
2022-02-08-11:32:20.962712,8.0,6.0,415.0
2022-02-08-11:32:20.963700,4.0,1.0,415.0
2022-02-08-11:32:20.964702,4.0,1.0,415.0
2022-02-08-11:32:20.965703,1.0,12.0,414.0
2022-02-08-11:32:20.966686,1.0,12.0,414.0
2022-02-08-11:32:20.967686,2.0,0.0,415.0
2022-02-08-11:32:20.968676,2.0,0.0,415.0
2022-02-08-11:32:20.969687,2.0,0.0,415.0
2022-02-08-11:32:20.970681,1.0,1.0,414.0
2022-02-08-11:32:20.971687,3.0,2.0,415.0
2022-02-08-11:32:20.972665,3.0,2.0,415.0
2022-02-08-11:32:20.973632,3.0,2.0,415.0
2022-02-08-11:32:20.974643,4.0,6.0,415.0
2022-02-08-11:32:20.975637,5.0,7.0,415.0
2022-02-08-11:32:20.976657,11.0,11.0,415.0
2022-02-08-11:32:20.977651,12.0,15.0,415.0
2022-02-08-11:32:20.978666,11.0,9.0,415.0
2022-02-08-11:32:20.979663,4.0,4.0,415.0
2022-02-08-11:32:20.980643,4.0,4.0,415.0
2022-02-08-11:32:20.981654,4.0,4.0,415.0
2022-02-08-11:32:20.983635,3.0,4.0,414.0
2022-02-08-11:32:20.984602,0.0,5.0,415.0
2022-02-08-11:32:20.984602,2.0,5.0,415.0
2022-02-08-11:32:20.985608,2.0,5.0,415.0
2022-02-08-11:32:20.986596,0.0,5.0,415.0
2022-02-08-11:32:20.987618,0.0,4.0,415.0
2022-02-08-11:32:20.988615,2.0,6.0,414.0
2022-02-08-11:32:20.989599,2.0,6.0,414.0
2022-02-08-11:32:20.990616,3.0,4.0,415.0
2022-02-08-11:32:20.991628,13.0,5.0,415.0
2022-02-08-11:32:20.992613,13.0,5.0,415.0
2022-02-08-11:32:20.993578,13.0,5.0,415.0
2022-02-08-11:32:20.994615,13.0,7.0,415.0
2022-02-08-11:32:20.995615,7.0,8.0,415.0
2022-02-08-11:32:20.996608,7.0,8.0,415.0
2022-02-08-11:32:20.997612,7.0,8.0,415.0
2022-02-08-11:32:20.998609,7.0,8.0,415.0
2022-02-08-11:32:20.999567,4.0,3.0,414.0
2022-02-08-11:32:21.000603,4.0,3.0,414.0
2022-02-08-11:32:21.001587,4.0,3.0,414.0
2022-02-08-11:32:21.002584,4.0,3.0,414.0
2022-02-08-11:32:21.003583,1.0,2.0,415.0
2022-02-08-11:32:21.004595,2.0,2.0,415.0
2022-02-08-11:32:21.005597,2.0,2.0,415.0
2022-02-08-11:32:21.006574,2.0,2.0,415.0
2022-02-08-11:32:21.007540,3.0,0.0,415.0
2022-02-08-11:32:21.008589,5.0,6.0,415.0
2022-02-08-11:32:21.009543,12.0,6.0,415.0
2022-02-08-11:32:21.010563,12.0,6.0,415.0
2022-02-08-11:32:21.011561,16.0,6.0,415.0
2022-02-08-11:32:21.012535,2.0,7.0,415.0
2022-02-08-11:32:21.013569,2.0,7.0,415.0
2022-02-08-11:32:21.014552,2.0,7.0,415.0
2022-02-08-11:32:21.016548,3.0,2.0,415.0
2022-02-08-11:32:21.016548,1.0,1.0,415.0
2022-02-08-11:32:21.017557,1.0,1.0,415.0
2022-02-08-11:32:21.018557,1.0,1.0,415.0
2022-02-08-11:32:21.019557,1.0,0.0,415.0
2022-02-08-11:32:21.020552,1.0,4.0,415.0
2022-02-08-11:32:21.021536,1.0,4.0,415.0
2022-02-08-11:32:21.022536,1.0,4.0,415.0
2022-02-08-11:32:21.023530,1.0,6.0,415.0
2022-02-08-11:32:21.024494,16.0,9.0,415.0
2022-02-08-11:32:21.025499,16.0,9.0,415.0
2022-02-08-11:32:21.026490,16.0,9.0,415.0
2022-02-08-11:32:21.027529,10.0,4.0,415.0
2022-02-08-11:32:21.028515,2.0,2.0,415.0
2022-02-08-11:32:21.029515,2.0,2.0,415.0
2022-02-08-11:32:21.030487,2.0,2.0,415.0
2022-02-08-11:32:21.031507,3.0,6.0,415.0
2022-02-08-11:32:21.032506,3.0,5.0,415.0
2022-02-08-11:32:21.033511,3.0,5.0,415.0
2022-02-08-11:32:21.034499,3.0,5.0,415.0
2022-02-08-11:32:21.035507,5.0,3.0,414.0
2022-02-08-11:32:21.036508,0.0,1.0,415.0
2022-02-08-11:32:21.037493,0.0,1.0,415.0
2022-02-08-11:32:21.038457,0.0,1.0,415.0
2022-02-08-11:32:21.039486,0.0,1.0,415.0
2022-02-08-11:32:21.040485,4.0,4.0,415.0
2022-02-08-11:32:21.041459,8.0,6.0,415.0
2022-02-08-11:32:21.042446,8.0,6.0,415.0
2022-02-08-11:32:21.043487,8.0,6.0,415.0
2022-02-08-11:32:21.044472,11.0,6.0,415.0
2022-02-08-11:32:21.045474,9.0,10.0,415.0
2022-02-08-11:32:21.046478,9.0,10.0,415.0
2022-02-08-11:32:21.047482,9.0,10.0,415.0
2022-02-08-11:32:21.049428,6.0,17.0,415.0
2022-02-08-11:32:21.050427,1.0,4.0,414.0
2022-02-08-11:32:21.050427,1.0,2.0,415.0
2022-02-08-11:32:21.051422,2.0,1.0,415.0
2022-02-08-11:32:21.052470,0.0,2.0,415.0
2022-02-08-11:32:21.053455,0.0,2.0,415.0
2022-02-08-11:32:21.054446,0.0,2.0,415.0
2022-02-08-11:32:21.055458,0.0,2.0,415.0
2022-02-08-11:32:21.056453,3.0,2.0,414.0
2022-02-08-11:32:21.057423,5.0,4.0,415.0
2022-02-08-11:32:21.058436,5.0,4.0,415.0
2022-02-08-11:32:21.059417,5.0,4.0,415.0
2022-02-08-11:32:21.060434,8.0,0.0,415.0
2022-02-08-11:32:21.061441,8.0,3.0,415.0
2022-02-08-11:32:21.062435,9.0,6.0,415.0
2022-02-08-11:32:21.063391,9.0,6.0,415.0
2022-02-08-11:32:21.064393,10.0,6.0,414.0
2022-02-08-11:32:21.065417,1.0,14.0,415.0
2022-02-08-11:32:21.066435,2.0,12.0,415.0
2022-02-08-11:32:21.067381,2.0,12.0,415.0
2022-02-08-11:32:21.068421,0.0,9.0,415.0
2022-02-08-11:32:21.069421,3.0,1.0,415.0
2022-02-08-11:32:21.070403,1.0,5.0,415.0
2022-02-08-11:32:21.071418,1.0,5.0,415.0
2022-02-08-11:32:21.072412,4.0,6.0,415.0
2022-02-08-11:32:21.073408,7.0,0.0,415.0
2022-02-08-11:32:21.074398,7.0,0.0,415.0
2022-02-08-11:32:21.075378,7.0,0.0,415.0
2022-02-08-11:32:21.076399,7.0,0.0,415.0
2022-02-08-11:32:21.077399,14.0,8.0,415.0
2022-02-08-11:32:21.078383,14.0,8.0,415.0
2022-02-08-11:32:21.079394,14.0,8.0,415.0
2022-02-08-11:32:21.080347,14.0,8.0,415.0
2022-02-08-11:32:21.081394,9.0,7.0,415.0
2022-02-08-11:32:21.082385,3.0,4.0,415.0
2022-02-08-11:32:21.083374,3.0,4.0,415.0
2022-02-08-11:32:21.085365,3.0,4.0,415.0
2022-02-08-11:32:21.085365,2.0,3.0,415.0
2022-02-08-11:32:21.086329,1.0,2.0,414.0
2022-02-08-11:32:21.087357,1.0,2.0,414.0
2022-02-08-11:32:21.088366,1.0,2.0,414.0
2022-02-08-11:32:21.089353,3.0,0.0,415.0
2022-02-08-11:32:21.090362,9.0,15.0,415.0
2022-02-08-11:32:21.091325,9.0,15.0,415.0
2022-02-08-11:32:21.092356,9.0,15.0,415.0
2022-02-08-11:32:21.093348,14.0,16.0,414.0
2022-02-08-11:32:21.094348,7.0,4.0,415.0
2022-02-08-11:32:21.095336,7.0,4.0,415.0
2022-02-08-11:32:21.096335,7.0,4.0,415.0
2022-02-08-11:32:21.097339,8.0,2.0,415.0
2022-02-08-11:32:21.098350,2.0,3.0,414.0
2022-02-08-11:32:21.099332,2.0,3.0,414.0
2022-02-08-11:32:21.100292,2.0,3.0,414.0
2022-02-08-11:32:21.101323,4.0,6.0,415.0
2022-02-08-11:32:21.102321,2.0,4.0,415.0
2022-02-08-11:32:21.103315,2.0,4.0,415.0
2022-02-08-11:32:21.104283,2.0,4.0,415.0
2022-02-08-11:32:21.105326,3.0,14.0,414.0
2022-02-08-11:32:21.106326,4.0,7.0,415.0
2022-02-08-11:32:21.107314,4.0,7.0,415.0
2022-02-08-11:32:21.108271,4.0,7.0,415.0
2022-02-08-11:32:21.109280,10.0,6.0,414.0
2022-02-08-11:32:21.110297,12.0,5.0,415.0
2022-02-08-11:32:21.111294,12.0,3.0,415.0
2022-02-08-11:32:21.112303,12.0,3.0,415.0
2022-02-08-11:32:21.113307,12.0,3.0,415.0
2022-02-08-11:32:21.114304,2.0,5.0,415.0
2022-02-08-11:32:21.115292,1.0,4.0,415.0
2022-02-08-11:32:21.117280,1.0,4.0,415.0
2022-02-08-11:32:21.118275,2.0,12.0,415.0
2022-02-08-11:32:21.118275,2.0,12.0,415.0
2022-02-08-11:32:21.119291,2.0,12.0,415.0
2022-02-08-11:32:21.120271,2.0,12.0,415.0
2022-02-08-11:32:21.121275,2.0,12.0,415.0
2022-02-08-11:32:21.122267,4.0,16.0,415.0
2022-02-08-11:32:21.123263,6.0,1.0,415.0
2022-02-08-11:32:21.124228,6.0,1.0,415.0
2022-02-08-11:32:21.125278,6.0,1.0,415.0
2022-02-08-11:32:21.126241,11.0,4.0,415.0
2022-02-08-11:32:21.127220,10.0,0.0,415.0
2022-02-08-11:32:21.128255,10.0,0.0,415.0
2022-02-08-11:32:21.129258,10.0,0.0,415.0
2022-02-08-11:32:21.130245,13.0,4.0,415.0
2022-02-08-11:32:21.131241,1.0,6.0,415.0
2022-02-08-11:32:21.132238,1.0,6.0,415.0
2022-02-08-11:32:21.133238,1.0,6.0,415.0
2022-02-08-11:32:21.134232,0.0,5.0,415.0
2022-02-08-11:32:21.135248,0.0,5.0,415.0
2022-02-08-11:32:21.136248,0.0,5.0,415.0
2022-02-08-11:32:21.137243,0.0,5.0,415.0
2022-02-08-11:32:21.138222,0.0,7.0,414.0
2022-02-08-11:32:21.139220,2.0,0.0,415.0
2022-02-08-11:32:21.140227,2.0,0.0,415.0
2022-02-08-11:32:21.141182,2.0,0.0,415.0
2022-02-08-11:32:21.142182,2.0,0.0,415.0
2022-02-08-11:32:21.143230,10.0,4.0,415.0
2022-02-08-11:32:21.144174,10.0,4.0,415.0
2022-02-08-11:32:21.145175,10.0,4.0,415.0
2022-02-08-11:32:21.146184,10.0,4.0,415.0
2022-02-08-11:32:21.147213,8.0,3.0,415.0
2022-02-08-11:32:21.148195,1.0,2.0,415.0
2022-02-08-11:32:21.149196,1.0,2.0,415.0
2022-02-08-11:32:21.150200,1.0,1.0,414.0
2022-02-08-11:32:21.152186,1.0,1.0,414.0
2022-02-08-11:32:21.152186,4.0,2.0,415.0
2022-02-08-11:32:21.153190,4.0,2.0,415.0
2022-02-08-11:32:21.154190,4.0,2.0,415.0
2022-02-08-11:32:21.155146,1.0,5.0,414.0
2022-02-08-11:32:21.156146,1.0,5.0,414.0
2022-02-08-11:32:21.157139,1.0,5.0,414.0
2022-02-08-11:32:21.158170,1.0,5.0,414.0
2022-02-08-11:32:21.159169,4.0,1.0,415.0
2022-02-08-11:32:21.160165,11.0,4.0,415.0
2022-02-08-11:32:21.161161,11.0,10.0,414.0
2022-02-08-11:32:21.162177,11.0,10.0,414.0
2022-02-08-11:32:21.163156,10.0,19.0,415.0
2022-02-08-11:32:21.164172,7.0,10.0,415.0
2022-02-08-11:32:21.165166,4.0,4.0,414.0
2022-02-08-11:32:21.166159,4.0,4.0,414.0
2022-02-08-11:32:21.167145,2.0,1.0,415.0
2022-02-08-11:32:21.168144,2.0,1.0,415.0
2022-02-08-11:32:21.169108,1.0,1.0,414.0
2022-02-08-11:32:21.170153,2.0,0.0,415.0
2022-02-08-11:32:21.171145,2.0,3.0,415.0
2022-02-08-11:32:21.172143,1.0,6.0,415.0
2022-02-08-11:32:21.173140,2.0,5.0,414.0
2022-02-08-11:32:21.174132,2.0,5.0,414.0
2022-02-08-11:32:21.175142,8.0,5.0,415.0
2022-02-08-11:32:21.176089,10.0,3.0,414.0
2022-02-08-11:32:21.177119,10.0,3.0,414.0
2022-02-08-11:32:21.178084,10.0,3.0,414.0
2022-02-08-11:32:21.179127,14.0,5.0,414.0
2022-02-08-11:32:21.180110,7.0,6.0,415.0
2022-02-08-11:32:21.181109,4.0,1.0,415.0
2022-02-08-11:32:21.182073,4.0,1.0,415.0
2022-02-08-11:32:21.183114,1.0,0.0,415.0
2022-02-08-11:32:21.184106,4.0,6.0,415.0
2022-02-08-11:32:21.186094,4.0,7.0,415.0
2022-02-08-11:32:21.186094,4.0,7.0,415.0
2022-02-08-11:32:21.187092,6.0,0.0,415.0
2022-02-08-11:32:21.188085,4.0,7.0,415.0
2022-02-08-11:32:21.189081,4.0,7.0,415.0
2022-02-08-11:32:21.190051,4.0,7.0,415.0
2022-02-08-11:32:21.191053,4.0,7.0,415.0
2022-02-08-11:32:21.192090,12.0,10.0,415.0
2022-02-08-11:32:21.193044,15.0,3.0,414.0
2022-02-08-11:32:21.194072,15.0,3.0,414.0
2022-02-08-11:32:21.195082,15.0,3.0,414.0
2022-02-08-11:32:21.196035,11.0,9.0,414.0
2022-02-08-11:32:21.197086,2.0,2.0,415.0
2022-02-08-11:32:21.198069,2.0,2.0,415.0
2022-02-08-11:32:21.199059,2.0,2.0,415.0
2022-02-08-11:32:21.200060,1.0,2.0,415.0
2022-02-08-11:32:21.201054,0.0,5.0,415.0
2022-02-08-11:32:21.202056,0.0,1.0,415.0
2022-02-08-11:32:21.203062,0.0,1.0,415.0
2022-02-08-11:32:21.204046,0.0,11.0,415.0
2022-02-08-11:32:21.205045,4.0,3.0,414.0
2022-02-08-11:32:21.206051,1.0,0.0,415.0
2022-02-08-11:32:21.207047,1.0,0.0,415.0
2022-02-08-11:32:21.208044,0.0,2.0,414.0
2022-02-08-11:32:21.209006,5.0,1.0,415.0
2022-02-08-11:32:21.210047,14.0,1.0,415.0
2022-02-08-11:32:21.211040,14.0,1.0,415.0
2022-02-08-11:32:21.212047,14.0,3.0,415.0
2022-02-08-11:32:21.213036,1.0,9.0,415.0
2022-02-08-11:32:21.214035,1.0,9.0,415.0
2022-02-08-11:32:21.214985,1.0,9.0,415.0
2022-02-08-11:32:21.216029,1.0,5.0,415.0
2022-02-08-11:32:21.217011,2.0,1.0,415.0
2022-02-08-11:32:21.218021,2.0,1.0,415.0
2022-02-08-11:32:21.218975,2.0,1.0,415.0
2022-02-08-11:32:21.220969,2.0,1.0,414.0
2022-02-08-11:32:21.220969,2.0,6.0,415.0
2022-02-08-11:32:21.221998,2.0,6.0,415.0
2022-02-08-11:32:21.222995,2.0,6.0,415.0
2022-02-08-11:32:21.224005,3.0,5.0,415.0
2022-02-08-11:32:21.225008,10.0,18.0,415.0
2022-02-08-11:32:21.225986,10.0,18.0,415.0
2022-02-08-11:32:21.226956,10.0,18.0,415.0
2022-02-08-11:32:21.227995,10.0,18.0,415.0
2022-02-08-11:32:21.228985,6.0,8.0,415.0
2022-02-08-11:32:21.229988,6.0,8.0,415.0
2022-02-08-11:32:21.230983,6.0,8.0,415.0
2022-02-08-11:32:21.231986,6.0,8.0,415.0
2022-02-08-11:32:21.232981,0.0,3.0,414.0
2022-02-08-11:32:21.233982,0.0,3.0,414.0
2022-02-08-11:32:21.234968,0.0,3.0,414.0
2022-02-08-11:32:21.235961,0.0,3.0,414.0
2022-02-08-11:32:21.236934,5.0,7.0,415.0
2022-02-08-11:32:21.237969,5.0,7.0,415.0
2022-02-08-11:32:21.238952,5.0,7.0,415.0
2022-02-08-11:32:21.239952,5.0,7.0,415.0
2022-02-08-11:32:21.240925,2.0,4.0,415.0
2022-02-08-11:32:21.241964,11.0,11.0,415.0
2022-02-08-11:32:21.242954,11.0,11.0,415.0
2022-02-08-11:32:21.243954,11.0,11.0,415.0
2022-02-08-11:32:21.244951,10.0,8.0,415.0
2022-02-08-11:32:21.245903,6.0,9.0,415.0
2022-02-08-11:32:21.246938,6.0,9.0,415.0
2022-02-08-11:32:21.247945,6.0,9.0,415.0
2022-02-08-11:32:21.248936,2.0,4.0,414.0
2022-02-08-11:32:21.249927,0.0,4.0,415.0
2022-02-08-11:32:21.250930,0.0,4.0,415.0
2022-02-08-11:32:21.251893,0.0,4.0,415.0
2022-02-08-11:32:21.253881,3.0,5.0,414.0
2022-02-08-11:32:21.254909,0.0,5.0,414.0
2022-02-08-11:32:21.254909,1.0,3.0,415.0
2022-02-08-11:32:21.255887,1.0,3.0,415.0
2022-02-08-11:32:21.256904,3.0,3.0,414.0
2022-02-08-11:32:21.257922,11.0,3.0,415.0
2022-02-08-11:32:21.258868,11.0,3.0,415.0
2022-02-08-11:32:21.259867,11.0,3.0,415.0
2022-02-08-11:32:21.260904,8.0,5.0,415.0
2022-02-08-11:32:21.261905,7.0,3.0,415.0
2022-02-08-11:32:21.262896,7.0,3.0,415.0
2022-02-08-11:32:21.263887,7.0,3.0,415.0
2022-02-08-11:32:21.264899,3.0,2.0,414.0
2022-02-08-11:32:21.265894,1.0,6.0,415.0
2022-02-08-11:32:21.266879,1.0,6.0,415.0
2022-02-08-11:32:21.267887,1.0,6.0,415.0
2022-02-08-11:32:21.268878,1.0,6.0,415.0
2022-02-08-11:32:21.269886,3.0,17.0,415.0
2022-02-08-11:32:21.270869,4.0,15.0,415.0
2022-02-08-11:32:21.271866,4.0,15.0,415.0
2022-02-08-11:32:21.272861,1.0,1.0,415.0
2022-02-08-11:32:21.273864,9.0,5.0,414.0
2022-02-08-11:32:21.274892,9.0,5.0,414.0
2022-02-08-11:32:21.275843,9.0,5.0,414.0
2022-02-08-11:32:21.276851,9.0,5.0,414.0
2022-02-08-11:32:21.277841,10.0,6.0,415.0
2022-02-08-11:32:21.278839,8.0,15.0,415.0
2022-02-08-11:32:21.279839,8.0,15.0,415.0
2022-02-08-11:32:21.280841,8.0,15.0,415.0
2022-02-08-11:32:21.281838,6.0,11.0,415.0
2022-02-08-11:32:21.282836,1.0,0.0,415.0
2022-02-08-11:32:21.283835,1.0,0.0,415.0
2022-02-08-11:32:21.284800,1.0,0.0,415.0
2022-02-08-11:32:21.285847,4.0,3.0,415.0
2022-02-08-11:32:21.286827,2.0,4.0,415.0
2022-02-08-11:32:21.287828,2.0,4.0,415.0
2022-02-08-11:32:21.289816,2.0,4.0,415.0
2022-02-08-11:32:21.289816,2.0,4.0,415.0
2022-02-08-11:32:21.290815,7.0,2.0,415.0
2022-02-08-11:32:21.291812,8.0,7.0,414.0
2022-02-08-11:32:21.292782,8.0,7.0,414.0
2022-02-08-11:32:21.293802,13.0,9.0,415.0
2022-02-08-11:32:21.294823,11.0,7.0,415.0
2022-02-08-11:32:21.295812,11.0,7.0,415.0
2022-02-08-11:32:21.296767,11.0,7.0,415.0
2022-02-08-11:32:21.297764,4.0,5.0,415.0
2022-02-08-11:32:21.298805,6.0,6.0,415.0
2022-02-08-11:32:21.299790,6.0,6.0,415.0
2022-02-08-11:32:21.300794,6.0,6.0,415.0
2022-02-08-11:32:21.301803,4.0,6.0,415.0
2022-02-08-11:32:21.302796,2.0,2.0,415.0
2022-02-08-11:32:21.303781,2.0,2.0,415.0
2022-02-08-11:32:21.304791,2.0,2.0,415.0
2022-02-08-11:32:21.305796,0.0,1.0,415.0
2022-02-08-11:32:21.306794,0.0,1.0,415.0
2022-02-08-11:32:21.307738,6.0,3.0,415.0
2022-02-08-11:32:21.308784,6.0,3.0,415.0
2022-02-08-11:32:21.309774,6.0,3.0,415.0
2022-02-08-11:32:21.310762,11.0,7.0,414.0
2022-02-08-11:32:21.311777,10.0,14.0,415.0
2022-02-08-11:32:21.312755,10.0,14.0,415.0
2022-02-08-11:32:21.313761,10.0,14.0,415.0
2022-02-08-11:32:21.314752,9.0,10.0,414.0
2022-02-08-11:32:21.315760,4.0,1.0,415.0
2022-02-08-11:32:21.316750,4.0,1.0,415.0
2022-02-08-11:32:21.317758,4.0,1.0,415.0
2022-02-08-11:32:21.318740,4.0,5.0,415.0
2022-02-08-11:32:21.319749,3.0,0.0,414.0
2022-02-08-11:32:21.320734,3.0,0.0,414.0
2022-02-08-11:32:21.321753,3.0,0.0,414.0
2022-02-08-11:32:21.323729,7.0,1.0,415.0
2022-02-08-11:32:21.323729,9.0,3.0,415.0
2022-02-08-11:32:21.324701,9.0,3.0,415.0
2022-02-08-11:32:21.325737,9.0,3.0,415.0
2022-02-08-11:32:21.326721,9.0,5.0,415.0
2022-02-08-11:32:21.327730,12.0,7.0,414.0
2022-02-08-11:32:21.328726,11.0,5.0,414.0
2022-02-08-11:32:21.329716,11.0,5.0,414.0
2022-02-08-11:32:21.330721,9.0,7.0,415.0
2022-02-08-11:32:21.331714,2.0,4.0,415.0
2022-02-08-11:32:21.332709,2.0,4.0,415.0
2022-02-08-11:32:21.333677,2.0,4.0,415.0
2022-02-08-11:32:21.334699,3.0,3.0,415.0
2022-02-08-11:32:21.335696,4.0,4.0,415.0
2022-02-08-11:32:21.336711,2.0,1.0,415.0
2022-02-08-11:32:21.337689,2.0,1.0,415.0
2022-02-08-11:32:21.338698,2.0,4.0,415.0
2022-02-08-11:32:21.339652,3.0,1.0,415.0
2022-02-08-11:32:21.340684,5.0,1.0,415.0
2022-02-08-11:32:21.341668,5.0,1.0,415.0
2022-02-08-11:32:21.342644,12.0,0.0,415.0
2022-02-08-11:32:21.343674,15.0,3.0,414.0
2022-02-08-11:32:21.344674,15.0,3.0,414.0
2022-02-08-11:32:21.345692,15.0,3.0,414.0
2022-02-08-11:32:21.346684,15.0,3.0,414.0
2022-02-08-11:32:21.347663,2.0,5.0,415.0
2022-02-08-11:32:21.348671,2.0,5.0,415.0
2022-02-08-11:32:21.349658,2.0,5.0,415.0
2022-02-08-11:32:21.350654,2.0,5.0,415.0
2022-02-08-11:32:21.351665,2.0,6.0,414.0
2022-02-08-11:32:21.352657,3.0,3.0,415.0
2022-02-08-11:32:21.353653,3.0,3.0,415.0
2022-02-08-11:32:21.354659,3.0,3.0,415.0
2022-02-08-11:32:21.355656,1.0,6.0,415.0
2022-02-08-11:32:21.357635,1.0,6.0,415.0
2022-02-08-11:32:21.358602,3.0,2.0,415.0
2022-02-08-11:32:21.358602,12.0,7.0,415.0
2022-02-08-11:32:21.359607,12.0,7.0,415.0
2022-02-08-11:32:21.360603,12.0,7.0,415.0
2022-02-08-11:32:21.361628,12.0,7.0,415.0
2022-02-08-11:32:21.362623,12.0,7.0,415.0
2022-02-08-11:32:21.363628,13.0,10.0,414.0
2022-02-08-11:32:21.364584,7.0,8.0,414.0
2022-02-08-11:32:21.365583,5.0,4.0,415.0
2022-02-08-11:32:21.366612,3.0,6.0,414.0
2022-02-08-11:32:21.367626,3.0,4.0,415.0
2022-02-08-11:32:21.368606,3.0,2.0,414.0
2022-02-08-11:32:21.369611,3.0,2.0,414.0
2022-02-08-11:32:21.370570,3.0,2.0,414.0
2022-02-08-11:32:21.371611,2.0,6.0,415.0
2022-02-08-11:32:21.372608,4.0,1.0,414.0
2022-02-08-11:32:21.373593,4.0,1.0,414.0
2022-02-08-11:32:21.374562,4.0,1.0,414.0
2022-02-08-11:32:21.375555,9.0,4.0,414.0
2022-02-08-11:32:21.376552,11.0,6.0,415.0
2022-02-08-11:32:21.377550,11.0,6.0,415.0
2022-02-08-11:32:21.378547,11.0,6.0,415.0
2022-02-08-11:32:21.379546,11.0,6.0,415.0
2022-02-08-11:32:21.380595,12.0,5.0,414.0
2022-02-08-11:32:21.381589,2.0,1.0,415.0
2022-02-08-11:32:21.382582,2.0,1.0,415.0
2022-02-08-11:32:21.383568,2.0,1.0,415.0
2022-02-08-11:32:21.384574,2.0,2.0,414.0
2022-02-08-11:32:21.385561,2.0,5.0,415.0
2022-02-08-11:32:21.386571,2.0,5.0,415.0
2022-02-08-11:32:21.387562,2.0,5.0,415.0
2022-02-08-11:32:21.388564,2.0,6.0,415.0
2022-02-08-11:32:21.389529,8.0,9.0,415.0
2022-02-08-11:32:21.390567,2.0,10.0,415.0
2022-02-08-11:32:21.392543,2.0,10.0,415.0
2022-02-08-11:32:21.392543,13.0,1.0,415.0
2022-02-08-11:32:21.393551,13.0,1.0,415.0
2022-02-08-11:32:21.394546,13.0,1.0,415.0
2022-02-08-11:32:21.395545,13.0,1.0,415.0
2022-02-08-11:32:21.396534,13.0,4.0,415.0
2022-02-08-11:32:21.397542,1.0,4.0,415.0
2022-02-08-11:32:21.398534,1.0,4.0,415.0
2022-02-08-11:32:21.399525,1.0,4.0,415.0
2022-02-08-11:32:21.400532,2.0,0.0,415.0
2022-02-08-11:32:21.401528,1.0,7.0,415.0
2022-02-08-11:32:21.402485,1.0,7.0,415.0
2022-02-08-11:32:21.403527,1.0,7.0,415.0
2022-02-08-11:32:21.404512,3.0,9.0,415.0
2022-02-08-11:32:21.405525,0.0,3.0,415.0
2022-02-08-11:32:21.406514,3.0,5.0,415.0
2022-02-08-11:32:21.407470,3.0,5.0,415.0
2022-02-08-11:32:21.408485,10.0,6.0,415.0
2022-02-08-11:32:21.409465,12.0,11.0,415.0
2022-02-08-11:32:21.410480,12.0,11.0,415.0
2022-02-08-11:32:21.411471,12.0,11.0,415.0
2022-02-08-11:32:21.412456,11.0,10.0,415.0
2022-02-08-11:32:21.413493,7.0,3.0,415.0
2022-02-08-11:32:21.414523,5.0,6.0,415.0
2022-02-08-11:32:21.415510,1.0,4.0,415.0
2022-02-08-11:32:21.416449,0.0,1.0,415.0
2022-02-08-11:32:21.417506,2.0,5.0,415.0
2022-02-08-11:32:21.418497,1.0,1.0,415.0
2022-02-08-11:32:21.419509,1.0,1.0,415.0
2022-02-08-11:32:21.420502,1.0,1.0,415.0
2022-02-08-11:32:21.421489,2.0,6.0,415.0
2022-02-08-11:32:21.422486,2.0,1.0,415.0
2022-02-08-11:32:21.423483,2.0,1.0,415.0
2022-02-08-11:32:21.424450,3.0,3.0,415.0
2022-02-08-11:32:21.425423,10.0,6.0,414.0
2022-02-08-11:32:21.427421,10.0,6.0,414.0
2022-02-08-11:32:21.427421,10.0,6.0,414.0
2022-02-08-11:32:21.428478,9.0,9.0,415.0
2022-02-08-11:32:21.429443,4.0,1.0,415.0
2022-02-08-11:32:21.430450,4.0,1.0,415.0
2022-02-08-11:32:21.431439,4.0,1.0,415.0
2022-02-08-11:32:21.432438,4.0,1.0,415.0
2022-02-08-11:32:21.433442,0.0,8.0,415.0
2022-02-08-11:32:21.434442,1.0,6.0,415.0
2022-02-08-11:32:21.435428,1.0,2.0,415.0
2022-02-08-11:32:21.436427,1.0,2.0,415.0
2022-02-08-11:32:21.437435,3.0,3.0,415.0
2022-02-08-11:32:21.438427,5.0,3.0,415.0
2022-02-08-11:32:21.439420,1.0,1.0,415.0
2022-02-08-11:32:21.440415,1.0,1.0,415.0
2022-02-08-11:32:21.441385,12.0,4.0,415.0
2022-02-08-11:32:21.442376,12.0,4.0,415.0
2022-02-08-11:32:21.443381,12.0,4.0,415.0
2022-02-08-11:32:21.444373,12.0,4.0,415.0
2022-02-08-11:32:21.445369,13.0,6.0,415.0
2022-02-08-11:32:21.446371,13.0,6.0,415.0
2022-02-08-11:32:21.447414,11.0,9.0,415.0
2022-02-08-11:32:21.448372,1.0,3.0,415.0
2022-02-08-11:32:21.449408,3.0,3.0,414.0
2022-02-08-11:32:21.450407,2.0,9.0,415.0
2022-02-08-11:32:21.451396,2.0,9.0,415.0
2022-02-08-11:32:21.452363,2.0,9.0,415.0
2022-02-08-11:32:21.453398,0.0,1.0,415.0
2022-02-08-11:32:21.454403,1.0,1.0,415.0
2022-02-08-11:32:21.455376,1.0,1.0,415.0
2022-02-08-11:32:21.456385,1.0,1.0,415.0
2022-02-08-11:32:21.457380,1.0,1.0,415.0
2022-02-08-11:32:21.458360,1.0,5.0,414.0
2022-02-08-11:32:21.460363,12.0,11.0,415.0
2022-02-08-11:32:21.460363,12.0,11.0,415.0
2022-02-08-11:32:21.461358,12.0,5.0,415.0
2022-02-08-11:32:21.462371,2.0,6.0,415.0
2022-02-08-11:32:21.463365,2.0,6.0,415.0
2022-02-08-11:32:21.464370,2.0,6.0,415.0
2022-02-08-11:32:21.465365,2.0,6.0,415.0
2022-02-08-11:32:21.466346,0.0,1.0,415.0
2022-02-08-11:32:21.467343,1.0,5.0,415.0
2022-02-08-11:32:21.468342,1.0,5.0,415.0
2022-02-08-11:32:21.469354,1.0,5.0,415.0
2022-02-08-11:32:21.470345,4.0,4.0,415.0
2022-02-08-11:32:21.471344,4.0,2.0,414.0
2022-02-08-11:32:21.472306,4.0,2.0,414.0
2022-02-08-11:32:21.473345,4.0,2.0,414.0
2022-02-08-11:32:21.474338,4.0,3.0,415.0
2022-02-08-11:32:21.475324,10.0,10.0,414.0
2022-02-08-11:32:21.476290,10.0,10.0,414.0
2022-02-08-11:32:21.477294,10.0,10.0,414.0
2022-02-08-11:32:21.478314,14.0,7.0,415.0
2022-02-08-11:32:21.479312,7.0,4.0,415.0
2022-02-08-11:32:21.480324,7.0,4.0,415.0
2022-02-08-11:32:21.481323,7.0,4.0,415.0
2022-02-08-11:32:21.482303,1.0,4.0,414.0
2022-02-08-11:32:21.483299,4.0,10.0,415.0
2022-02-08-11:32:21.484308,4.0,10.0,415.0
2022-02-08-11:32:21.485269,4.0,10.0,415.0
2022-02-08-11:32:21.486292,0.0,4.0,415.0
2022-02-08-11:32:21.487309,4.0,6.0,414.0
2022-02-08-11:32:21.488299,4.0,6.0,414.0
2022-02-08-11:32:21.489264,4.0,6.0,414.0
2022-02-08-11:32:21.490297,0.0,4.0,414.0
2022-02-08-11:32:21.491247,7.0,1.0,415.0
2022-02-08-11:32:21.492293,7.0,1.0,415.0
2022-02-08-11:32:21.493285,7.0,1.0,415.0
2022-02-08-11:32:21.495269,11.0,4.0,415.0
2022-02-08-11:32:21.495269,5.0,9.0,414.0
2022-02-08-11:32:21.496280,5.0,9.0,414.0
2022-02-08-11:32:21.497280,5.0,9.0,414.0
2022-02-08-11:32:21.498227,5.0,9.0,414.0
2022-02-08-11:32:21.499273,2.0,4.0,415.0
2022-02-08-11:32:21.500257,1.0,4.0,415.0
2022-02-08-11:32:21.501251,1.0,4.0,415.0
2022-02-08-11:32:21.502249,1.0,4.0,415.0
2022-02-08-11:32:21.503255,0.0,5.0,415.0
2022-02-08-11:32:21.504244,6.0,2.0,415.0
2022-02-08-11:32:21.505241,6.0,2.0,415.0
2022-02-08-11:32:21.506248,6.0,2.0,415.0
2022-02-08-11:32:21.507247,4.0,5.0,415.0
2022-02-08-11:32:21.508201,11.0,11.0,415.0
2022-02-08-11:32:21.509230,11.0,11.0,415.0
2022-02-08-11:32:21.510245,13.0,4.0,415.0
2022-02-08-11:32:21.511211,6.0,6.0,415.0
2022-02-08-11:32:21.512225,6.0,6.0,415.0
2022-02-08-11:32:21.513219,6.0,6.0,415.0
2022-02-08-11:32:21.514228,6.0,6.0,415.0
2022-02-08-11:32:21.515223,6.0,2.0,415.0
2022-02-08-11:32:21.516214,2.0,2.0,415.0
2022-02-08-11:32:21.517214,2.0,2.0,415.0
2022-02-08-11:32:21.518180,2.0,2.0,415.0
2022-02-08-11:32:21.519205,2.0,2.0,414.0
2022-02-08-11:32:21.520217,3.0,5.0,415.0
2022-02-08-11:32:21.521213,3.0,5.0,415.0
2022-02-08-11:32:21.522164,3.0,5.0,415.0
2022-02-08-11:32:21.523192,4.0,3.0,415.0
2022-02-08-11:32:21.524164,8.0,0.0,415.0
2022-02-08-11:32:21.525155,8.0,0.0,415.0
2022-02-08-11:32:21.527184,8.0,0.0,415.0
2022-02-08-11:32:21.528148,12.0,5.0,415.0
2022-02-08-11:32:21.528148,8.0,13.0,415.0
2022-02-08-11:32:21.529177,8.0,13.0,415.0
2022-02-08-11:32:21.530177,8.0,13.0,415.0
2022-02-08-11:32:21.531192,3.0,8.0,415.0
2022-02-08-11:32:21.532171,0.0,1.0,415.0
2022-02-08-11:32:21.533175,2.0,1.0,415.0
2022-02-08-11:32:21.534181,2.0,1.0,415.0
2022-02-08-11:32:21.535178,2.0,1.0,415.0
2022-02-08-11:32:21.536170,2.0,7.0,415.0
2022-02-08-11:32:21.537124,2.0,7.0,415.0
2022-02-08-11:32:21.538154,2.0,7.0,415.0
2022-02-08-11:32:21.539160,2.0,7.0,415.0
2022-02-08-11:32:21.540156,0.0,10.0,415.0
2022-02-08-11:32:21.541155,7.0,9.0,415.0
2022-02-08-11:32:21.542155,7.0,9.0,415.0
2022-02-08-11:32:21.543145,7.0,9.0,415.0
2022-02-08-11:32:21.544164,13.0,10.0,415.0
2022-02-08-11:32:21.545134,13.0,10.0,415.0
2022-02-08-11:32:21.546148,10.0,9.0,414.0
2022-02-08-11:32:21.547141,10.0,9.0,414.0
2022-02-08-11:32:21.548132,5.0,7.0,415.0
2022-02-08-11:32:21.549133,5.0,6.0,414.0
2022-02-08-11:32:21.550089,5.0,6.0,414.0
2022-02-08-11:32:21.551135,5.0,6.0,414.0
2022-02-08-11:32:21.552124,3.0,0.0,415.0
2022-02-08-11:32:21.553122,1.0,1.0,415.0
2022-02-08-11:32:21.554118,1.0,1.0,415.0
2022-02-08-11:32:21.555118,1.0,1.0,415.0
2022-02-08-11:32:21.556112,1.0,10.0,415.0
2022-02-08-11:32:21.557104,6.0,6.0,415.0
2022-02-08-11:32:21.558110,6.0,6.0,415.0
2022-02-08-11:32:21.559091,6.0,6.0,415.0
2022-02-08-11:32:21.560087,14.0,2.0,415.0
2022-02-08-11:32:21.562082,14.0,7.0,415.0
2022-02-08-11:32:21.562082,14.0,7.0,415.0
2022-02-08-11:32:21.563055,14.0,7.0,415.0
2022-02-08-11:32:21.564078,11.0,3.0,415.0
2022-02-08-11:32:21.565073,2.0,0.0,415.0
2022-02-08-11:32:21.566071,2.0,0.0,415.0
2022-02-08-11:32:21.567055,2.0,0.0,415.0
2022-02-08-11:32:21.568066,0.0,3.0,415.0
2022-02-08-11:32:21.569072,0.0,0.0,415.0
2022-02-08-11:32:21.570087,0.0,0.0,415.0
2022-02-08-11:32:21.571075,0.0,0.0,415.0
2022-02-08-11:32:21.572076,0.0,0.0,415.0
2022-02-08-11:32:21.573060,5.0,3.0,415.0
2022-02-08-11:32:21.574059,5.0,3.0,415.0
2022-02-08-11:32:21.575023,5.0,3.0,415.0
2022-02-08-11:32:21.576020,5.0,3.0,415.0
2022-02-08-11:32:21.577032,11.0,7.0,415.0
2022-02-08-11:32:21.578058,12.0,5.0,414.0
2022-02-08-11:32:21.579044,12.0,5.0,414.0
2022-02-08-11:32:21.580059,12.0,5.0,414.0
2022-02-08-11:32:21.581042,10.0,13.0,415.0
2022-02-08-11:32:21.582059,1.0,1.0,415.0
2022-02-08-11:32:21.583046,1.0,1.0,415.0
2022-02-08-11:32:21.584048,1.0,1.0,415.0
2022-02-08-11:32:21.585029,1.0,9.0,415.0
2022-02-08-11:32:21.586034,1.0,9.0,415.0
2022-02-08-11:32:21.587023,1.0,9.0,415.0
2022-02-08-11:32:21.588039,1.0,9.0,415.0
2022-02-08-11:32:21.588985,2.0,10.0,415.0
2022-02-08-11:32:21.590026,0.0,1.0,415.0
2022-02-08-11:32:21.591026,2.0,6.0,415.0
2022-02-08-11:32:21.591979,2.0,6.0,415.0
2022-02-08-11:32:21.592987,7.0,1.0,414.0
2022-02-08-11:32:21.595002,12.0,4.0,415.0
2022-02-08-11:32:21.595967,12.0,4.0,415.0
2022-02-08-11:32:21.595967,14.0,10.0,415.0
2022-02-08-11:32:21.596996,3.0,6.0,414.0
2022-02-08-11:32:21.597993,0.0,5.0,415.0
2022-02-08-11:32:21.598992,0.0,5.0,415.0
2022-02-08-11:32:21.599956,0.0,5.0,415.0
2022-02-08-11:32:21.600998,1.0,4.0,415.0
2022-02-08-11:32:21.602094,5.0,5.0,415.0
2022-02-08-11:32:21.603038,5.0,5.0,415.0
2022-02-08-11:32:21.603994,5.0,5.0,415.0
2022-02-08-11:32:21.605018,5.0,2.0,415.0
2022-02-08-11:32:21.605939,2.0,1.0,415.0
2022-02-08-11:32:21.607041,2.0,1.0,415.0
2022-02-08-11:32:21.607934,2.0,1.0,415.0
2022-02-08-11:32:21.608940,4.0,5.0,415.0
2022-02-08-11:32:21.609934,11.0,1.0,415.0
2022-02-08-11:32:21.610996,11.0,1.0,415.0
2022-02-08-11:32:21.611945,11.0,1.0,415.0
2022-02-08-11:32:21.612994,7.0,9.0,415.0
2022-02-08-11:32:21.613934,0.0,7.0,415.0
2022-02-08-11:32:21.614915,0.0,7.0,415.0
2022-02-08-11:32:21.615961,0.0,7.0,415.0
2022-02-08-11:32:21.616943,0.0,7.0,415.0
2022-02-08-11:32:21.617953,2.0,3.0,415.0
2022-02-08-11:32:21.618950,2.0,3.0,415.0
2022-02-08-11:32:21.619956,2.0,3.0,415.0
2022-02-08-11:32:21.620932,2.0,3.0,415.0
2022-02-08-11:32:21.621929,1.0,6.0,414.0
2022-02-08-11:32:21.622928,1.0,5.0,415.0
2022-02-08-11:32:21.623924,1.0,5.0,415.0
2022-02-08-11:32:21.624923,1.0,5.0,415.0
2022-02-08-11:32:21.625901,4.0,2.0,415.0
2022-02-08-11:32:21.626916,13.0,3.0,415.0
2022-02-08-11:32:21.627883,13.0,3.0,415.0
2022-02-08-11:32:21.628910,13.0,3.0,415.0
2022-02-08-11:32:21.630906,1.0,0.0,415.0
2022-02-08-11:32:21.630906,1.0,3.0,415.0
2022-02-08-11:32:21.631909,1.0,3.0,415.0
2022-02-08-11:32:21.632868,1.0,3.0,415.0
2022-02-08-11:32:21.633900,1.0,2.0,415.0
2022-02-08-11:32:21.634910,2.0,21.0,414.0
2022-02-08-11:32:21.635899,2.0,21.0,414.0
2022-02-08-11:32:21.636857,2.0,21.0,414.0
2022-02-08-11:32:21.637886,2.0,12.0,414.0
2022-02-08-11:32:21.638896,4.0,6.0,415.0
2022-02-08-11:32:21.639890,4.0,6.0,415.0
2022-02-08-11:32:21.640847,4.0,6.0,415.0
2022-02-08-11:32:21.641844,5.0,6.0,415.0
2022-02-08-11:32:21.642862,8.0,1.0,415.0
2022-02-08-11:32:21.643840,10.0,6.0,414.0
2022-02-08-11:32:21.644868,10.0,6.0,414.0
2022-02-08-11:32:21.645875,14.0,6.0,415.0
2022-02-08-11:32:21.646873,14.0,6.0,415.0
2022-02-08-11:32:21.647860,10.0,4.0,415.0
2022-02-08-11:32:21.648865,0.0,9.0,415.0
2022-02-08-11:32:21.649867,4.0,2.0,415.0
2022-02-08-11:32:21.650867,4.0,2.0,415.0
2022-02-08-11:32:21.651860,4.0,2.0,415.0
2022-02-08-11:32:21.652851,4.0,2.0,415.0
2022-02-08-11:32:21.653811,4.0,2.0,415.0
2022-02-08-11:32:21.654842,5.0,3.0,415.0
2022-02-08-11:32:21.655846,1.0,2.0,415.0
2022-02-08-11:32:21.656850,1.0,2.0,415.0
2022-02-08-11:32:21.657850,1.0,2.0,415.0
2022-02-08-11:32:21.658851,10.0,8.0,414.0
2022-02-08-11:32:21.659831,10.0,3.0,415.0
2022-02-08-11:32:21.660830,10.0,3.0,415.0
2022-02-08-11:32:21.661833,10.0,3.0,415.0
2022-02-08-11:32:21.662834,10.0,3.0,414.0
2022-02-08-11:32:21.664814,10.0,3.0,414.0
2022-02-08-11:32:21.665780,0.0,5.0,415.0
2022-02-08-11:32:21.665780,5.0,2.0,415.0
2022-02-08-11:32:21.666777,5.0,2.0,415.0
2022-02-08-11:32:21.667822,5.0,2.0,415.0
2022-02-08-11:32:21.668819,5.0,2.0,415.0
2022-02-08-11:32:21.669769,5.0,2.0,415.0
2022-02-08-11:32:21.670809,5.0,6.0,415.0
2022-02-08-11:32:21.671806,0.0,5.0,415.0
2022-02-08-11:32:21.672794,4.0,2.0,415.0
2022-02-08-11:32:21.673763,4.0,2.0,415.0
2022-02-08-11:32:21.674757,4.0,0.0,415.0
2022-02-08-11:32:21.675787,11.0,2.0,415.0
2022-02-08-11:32:21.676793,9.0,3.0,415.0
2022-02-08-11:32:21.677760,9.0,3.0,415.0
2022-02-08-11:32:21.678778,11.0,6.0,415.0
2022-02-08-11:32:21.679755,7.0,6.0,415.0
2022-02-08-11:32:21.680741,3.0,3.0,415.0
2022-02-08-11:32:21.681742,3.0,3.0,415.0
2022-02-08-11:32:21.682779,2.0,5.0,414.0
2022-02-08-11:32:21.683777,2.0,5.0,414.0
2022-02-08-11:32:21.684785,2.0,5.0,414.0
2022-02-08-11:32:21.685758,2.0,5.0,414.0
2022-02-08-11:32:21.686769,2.0,5.0,414.0
2022-02-08-11:32:21.687771,0.0,10.0,415.0
2022-02-08-11:32:21.688751,3.0,5.0,415.0
2022-02-08-11:32:21.689749,3.0,5.0,415.0
2022-02-08-11:32:21.690747,3.0,5.0,415.0
2022-02-08-11:32:21.691756,6.0,2.0,414.0
2022-02-08-11:32:21.692728,10.0,5.0,414.0
2022-02-08-11:32:21.693737,10.0,5.0,414.0
2022-02-08-11:32:21.694751,10.0,5.0,414.0
2022-02-08-11:32:21.695732,11.0,2.0,415.0
2022-02-08-11:32:21.696736,9.0,4.0,415.0
