# 
# 
# 
# 
# 
# 
# 
# 
# 
# 
# time,realtime,ref,inp,inp0,inp1,dis,state...
0.000000000000000000e+00,1.684949218385465384e+09,0.000000000000000000e+00,-2.227455985842876351e-01,0.000000000000000000e+00,-4.454911971685752703e-01,-0.000000000000000000e+00,0.000000000000000000e+00,0.000000000000000000e+00
1.666666666666666644e-02,1.684949218389490366e+09,0.000000000000000000e+00,-2.227455985842876351e-01,0.000000000000000000e+00,-4.454911971685752703e-01,0.000000000000000000e+00,-3.076573322009895617e-05,-3.681660909851361147e-03
3.333333333333333287e-02,1.684949218393486500e+09,0.000000000000000000e+00,-2.227455985842876351e-01,0.000000000000000000e+00,-4.454911971685752703e-01,-2.610728091977515609e-05,-1.223875747131432921e-04,-7.302900832778440147e-03
5.000000000000000278e-02,1.684949218411492109e+09,0.000000000000000000e+00,-2.227455985842876351e-01,0.000000000000000000e+00,-4.454911971685752703e-01,-1.139577441227152216e-04,-2.738753814064022593e-04,-1.086573896489202024e-02
6.666666666666666574e-02,1.684949218425509691e+09,0.000000000000000000e+00,-2.227455985842876351e-01,0.000000000000000000e+00,-4.454911971685752703e-01,-2.777870054143536326e-04,-4.842743508336421181e-04,-1.437239642195981340e-02
8.333333333333332871e-02,1.684949218445509195e+09,0.000000000000000000e+00,-2.227455985842876351e-01,0.000000000000000000e+00,-4.454911971685752703e-01,-5.314298396224862667e-04,-7.526683032091418873e-04,-1.782528627664948379e-02
1.000000000000000056e-01,1.684949218460509539e+09,0.000000000000000000e+00,-2.227455985842876351e-01,0.000000000000000000e+00,-4.454911971685752703e-01,-8.879030728250262823e-04,-1.078182741220687054e-03,-2.122699686625648119e-02
1.166666666666666685e-01,1.684949218478512764e+09,0.000000000000000000e+00,-2.227455985842876351e-01,0.000000000000000000e+00,-4.454911971685752703e-01,-1.358981323264498711e-03,-1.459987575324695266e-03,-2.458026836394500841e-02
1.333333333333333315e-01,1.684949218494512320e+09,0.000000000000000000e+00,-2.227455985842876351e-01,0.000000000000000000e+00,-4.454911971685752703e-01,-1.954773751234102196e-03,-1.897299403338500046e-03,-2.788796274152323396e-02
1.499999999999999944e-01,1.684949218512508392e+09,0.000000000000000000e+00,-2.227455985842876351e-01,0.000000000000000000e+00,-4.454911971685752703e-01,-2.683310194873781990e-03,-2.389383236397847610e-03,-3.115302738811657687e-02
1.666666666666666574e-01,1.684949218529487371e+09,0.000000000000000000e+00,-2.067207353767851752e-01,0.000000000000000000e+00,-4.134414707535703504e-01,-3.550145152069717706e-03,-2.933340206783571595e-03,-3.411358509321176652e-02
1.833333333333333204e-01,1.684949218546510458e+09,0.000000000000000000e+00,-1.746710089617797002e-01,0.000000000000000000e+00,-3.493420179235594003e-01,-4.557988014974986325e-03,-3.521943371434865973e-03,-3.651213187817305139e-02
2.000000000000000111e-01,1.684949218563508272e+09,0.000000000000000000e+00,-1.586461457542766296e-01,0.000000000000000000e+00,-3.172922915085532591e-01,-5.706367771500304130e-03,-4.148136280039585455e-03,-3.862514752833128007e-02
2.166666666666666741e-01,1.684949218580508232e+09,0.000000000000000000e+00,-1.426212825467741974e-01,0.000000000000000000e+00,-2.852425650935483947e-01,-6.991340057913067105e-03,-4.807218384282206138e-03,-4.045960913416678240e-02
2.333333333333333370e-01,1.684949218597509861e+09,0.000000000000000000e+00,-1.265964193392711545e-01,0.000000000000000000e+00,-2.531928386785423091e-01,-8.405243980913218449e-03,-5.494603398882920431e-03,-4.202225184156914428e-02
2.500000000000000000e-01,1.684949218616508722e+09,0.000000000000000000e+00,-1.265964193392711545e-01,0.000000000000000000e+00,-2.531928386785423091e-01,-9.936515530729899195e-03,-6.208028125607068133e-03,-4.358437602934501359e-02
2.666666666666666630e-01,1.684949218631510496e+09,0.000000000000000000e+00,-1.265964193392711545e-01,0.000000000000000000e+00,-2.531928386785423091e-01,-1.156956368539045765e-02,-6.947498051514508673e-03,-4.514767248718193349e-02
2.833333333333333259e-01,1.684949218649509907e+09,0.000000000000000000e+00,-1.265964193392711545e-01,0.000000000000000000e+00,-2.531928386785423091e-01,-1.328471446875808745e-02,-7.713043892581110741e-03,-4.671347887624915235e-02
2.999999999999999889e-01,1.684949218666515112e+09,0.000000000000000000e+00,-1.265964193392711545e-01,0.000000000000000000e+00,-2.531928386785423091e-01,-1.505822728144620010e-02,-8.504715195313703943e-03,-4.828271835052851818e-02
3.166666666666666519e-01,1.684949218684487581e+09,0.000000000000000000e+00,-1.265964193392711545e-01,0.000000000000000000e+00,-2.531928386785423091e-01,-1.686238678623293644e-02,-9.322572936556118572e-03,-4.985584071137783707e-02
3.333333333333333148e-01,1.684949218700464010e+09,0.000000000000000000e+00,-1.265964193392711545e-01,0.000000000000000000e+00,-2.531928386785423091e-01,-1.866567251161948757e-02,-1.016668117409144298e-02,-5.143276733802402273e-02
3.499999999999999778e-01,1.684949218717508793e+09,0.000000000000000000e+00,-1.265964193392711545e-01,0.000000000000000000e+00,-2.531928386785423091e-01,-2.043300715359882072e-02,-1.103709782132095661e-02,-5.301284113234234346e-02
3.666666666666666408e-01,1.684949218734488487e+09,0.000000000000000000e+00,-1.265964193392711545e-01,0.000000000000000000e+00,-2.531928386785423091e-01,-2.212608332263707456e-02,-1.193386463973349076e-02,-5.459478269162828384e-02
3.833333333333333037e-01,1.684949218751508951e+09,0.000000000000000000e+00,-1.265964193392711545e-01,0.000000000000000000e+00,-2.531928386785423091e-01,-2.370376721743342602e-02,-1.285699656273004560e-02,-5.617665387791014042e-02
4.000000000000000222e-01,1.684949218769489288e+09,0.000000000000000000e+00,-1.426212825467741974e-01,0.000000000000000000e+00,-2.852425650935483947e-01,-2.512257642711418146e-02,-1.380868384539855886e-02,-5.802069757813976825e-02
4.166666666666666852e-01,1.684949218785509348e+09,0.000000000000000000e+00,-1.426212825467741974e-01,0.000000000000000000e+00,-2.852425650935483947e-01,-2.633722778758003716e-02,-1.479101825775354893e-02,-5.985433833802401848e-02
4.333333333333333481e-01,1.684949218803488016e+09,0.000000000000000000e+00,-1.426212825467741974e-01,0.000000000000000000e+00,-2.852425650935483947e-01,-2.730124996451157096e-02,-1.580379323728735297e-02,-6.167360556701164537e-02
4.500000000000000111e-01,1.684949218823461533e+09,0.000000000000000000e+00,-1.426212825467741974e-01,0.000000000000000000e+00,-2.852425650935483947e-01,-2.796765422384591207e-02,-1.684673010329566789e-02,-6.347381764718032504e-02
4.666666666666666741e-01,1.684949218839510202e+09,0.000000000000000000e+00,-1.426212825467741974e-01,0.000000000000000000e+00,-2.852425650935483947e-01,-2.828965569895772192e-02,-1.791946633278710538e-02,-6.524959705511775010e-02
4.833333333333333370e-01,1.684949218856487751e+09,0.000000000000000000e+00,-1.265964193392711545e-01,0.000000000000000000e+00,-2.531928386785423091e-01,-2.822143639043454486e-02,-1.901933082961918334e-02,-6.673003015378076164e-02
5.000000000000000000e-01,1.684949218872463703e+09,0.000000000000000000e+00,-1.265964193392711545e-01,0.000000000000000000e+00,-2.531928386785423091e-01,-2.771894015663363062e-02,-2.014359532824015406e-02,-6.817768831342486957e-02
5.166666666666666075e-01,1.684949218890488625e+09,0.000000000000000000e+00,-1.265964193392711545e-01,0.000000000000000000e+00,-2.531928386785423091e-01,-2.674068908757560453e-02,-2.129165239506206411e-02,-6.958524972038374057e-02
5.333333333333333259e-01,1.684949218907490730e+09,0.000000000000000000e+00,-1.265964193392711545e-01,0.000000000000000000e+00,-2.531928386785423091e-01,-2.524860991638827948e-02,-2.246276831886313136e-02,-7.094488428417700110e-02
5.500000000000000444e-01,1.684949218924461603e+09,0.000000000000000000e+00,-1.265964193392711545e-01,0.000000000000000000e+00,-2.531928386785423091e-01,-2.320885852524383688e-02,-2.365607529384312901e-02,-7.224833194027224792e-02
5.666666666666666519e-01,1.684949218941488028e+09,0.000000000000000000e+00,-1.265964193392711545e-01,0.000000000000000000e+00,-2.531928386785423091e-01,-2.059263015865990878e-02,-2.487056500881665647e-02,-7.348699305026423767e-02
5.833333333333333703e-01,1.684949218957463741e+09,0.000000000000000000e+00,-1.265964193392711545e-01,0.000000000000000000e+00,-2.531928386785423091e-01,-1.737694267644311966e-02,-2.610508383877323604e-02,-7.465203025390289293e-02
5.999999999999999778e-01,1.684949218974488735e+09,0.000000000000000000e+00,-1.265964193392711545e-01,0.000000000000000000e+00,-2.531928386785423091e-01,-1.354538006970847433e-02,-2.735832982259815693e-02,-7.573448092689430422e-02
6.166666666666666963e-01,1.684949218993488073e+09,0.000000000000000000e+00,-1.265964193392711545e-01,0.000000000000000000e+00,-2.531928386785423091e-01,-9.088783532406875115e-03,-2.862885159500842477e-02,-7.672537920234533126e-02
6.333333333333333037e-01,1.684949219008488655e+09,0.000000000000000000e+00,-1.426212825467741974e-01,0.000000000000000000e+00,-2.852425650935483947e-01,-4.005877631445436439e-03,-2.991726278391487748e-02,-7.788075401640920381e-02
6.500000000000000222e-01,1.684949219024461985e+09,0.000000000000000000e+00,-1.265964193392711545e-01,0.000000000000000000e+00,-2.531928386785423091e-01,1.696180447774280802e-03,-3.122176970556734751e-02,-7.865791774294834948e-02
6.666666666666666297e-01,1.684949219040461540e+09,0.000000000000000000e+00,-1.265964193392711545e-01,0.000000000000000000e+00,-2.531928386785423091e-01,8.001339987775801799e-03,-3.253825114197202162e-02,-7.931802096240193889e-02
6.833333333333333481e-01,1.684949219058510542e+09,0.000000000000000000e+00,-1.426212825467741974e-01,0.000000000000000000e+00,-2.852425650935483947e-01,1.488429477038599388e-02,-3.386690580986807114e-02,-8.011831609077903205e-02
6.999999999999999556e-01,1.684949219076510906e+09,0.000000000000000000e+00,-1.265964193392711545e-01,0.000000000000000000e+00,-2.531928386785423091e-01,2.231022969912046031e-02,-3.520554915680143560e-02,-8.051777590451485167e-02
7.166666666666666741e-01,1.684949219092508316e+09,0.000000000000000000e+00,-1.265964193392711545e-01,0.000000000000000000e+00,-2.531928386785423091e-01,3.023468452750606092e-02,-3.654970046405330020e-02,-8.077965351079240131e-02
7.333333333333332815e-01,1.684949219111489058e+09,0.000000000000000000e+00,-1.265964193392711545e-01,0.000000000000000000e+00,-2.531928386785423091e-01,3.860354192382661753e-02,-3.789702431665140786e-02,-8.089887761511836695e-02
7.500000000000000000e-01,1.684949219126508951e+09,0.000000000000000000e+00,-1.265964193392711545e-01,0.000000000000000000e+00,-2.531928386785423091e-01,4.735314567809864594e-02,-3.924511027072583036e-02,-8.087151288873015154e-02
7.666666666666666075e-01,1.684949219145488739e+09,0.000000000000000000e+00,-1.265964193392711545e-01,0.000000000000000000e+00,-2.531928386785423091e-01,5.641055330747256347e-02,-4.059149291199562470e-02,-8.069489468132366727e-02
7.833333333333333259e-01,1.684949219160488844e+09,0.000000000000000000e+00,-1.265964193392711545e-01,0.000000000000000000e+00,-2.531928386785423091e-01,6.569392565898055092e-02,-4.193367408704892080e-02,-8.036775506760855670e-02
8.000000000000000444e-01,1.684949219177492857e+09,0.000000000000000000e+00,-1.265964193392711545e-01,0.000000000000000000e+00,-2.531928386785423091e-01,7.511305436274762215e-02,-4.326914714513720173e-02,-7.989033809246233464e-02
8.166666666666666519e-01,1.684949219195486069e+09,0.000000000000000000e+00,-1.105715561317686946e-01,0.000000000000000000e+00,-2.211431122635373892e-01,8.457002617516877485e-02,-4.459320963094288298e-02,-7.899963443926664997e-02
8.333333333333333703e-01,1.684949219214512587e+09,0.000000000000000000e+00,-7.852182971676319179e-02,0.000000000000000000e+00,-1.570436594335263836e-01,9.396002139224401972e-02,-4.589682640526593360e-02,-7.743871447035224898e-02
8.499999999999999778e-01,1.684949219229509592e+09,0.000000000000000000e+00,-4.647210330175770288e-02,0.000000000000000000e+00,-9.294420660351540575e-02,1.031722416314848761e-01,-4.716894432115829872e-02,-7.522159424896443514e-02
8.666666666666666963e-01,1.684949219247509718e+09,0.000000000000000000e+00,-1.442237688675220356e-02,0.000000000000000000e+00,-2.884475377350440711e-02,1.120909604006268545e-01,-4.839875788102121490e-02,-7.236397096387027494e-02
8.833333333333333037e-01,1.684949219264509201e+09,0.000000000000000000e+00,1.602486320750845994e-03,0.000000000000000000e+00,3.204972641501691987e-03,1.205966880174431377e-01,-4.957795090504186347e-02,-6.914812503421306766e-02
9.000000000000000222e-01,1.684949219280512810e+09,0.000000000000000000e+00,1.762734952825329576e-02,0.000000000000000000e+00,3.525469905650659153e-02,1.285674406420949101e-01,-5.070067638471411481e-02,-6.558881971836834357e-02
9.166666666666666297e-01,1.684949219299509525e+09,0.000000000000000000e+00,1.602486320750845994e-03,0.000000000000000000e+00,3.204972641501691987e-03,1.358801014565211296e-01,-5.176577505589017442e-02,-6.223234458423775040e-02
9.333333333333333481e-01,1.684949219315509558e+09,0.000000000000000000e+00,3.365221273575574185e-02,0.000000000000000000e+00,6.730442547151148369e-02,1.424118603987370446e-01,-5.277006717884244469e-02,-5.829365124237726598e-02
9.499999999999999556e-01,1.684949219333487749e+09,0.000000000000000000e+00,4.967707594325939530e-02,0.000000000000000000e+00,9.935415188651879059e-02,1.480417173573395084e-01,-5.370626746629895282e-02,-5.406213773324410748e-02
9.666666666666666741e-01,1.684949219348507404e+09,0.000000000000000000e+00,3.633610281859434576e-01,5.953181780703631354e-01,1.314038783015236689e-01,1.526520323756643260e-01,-5.452856402434676925e-02,-4.463962349916949374e-02
9.833333333333332815e-01,1.684949219365510225e+09,0.000000000000000000e+00,9.775166556576674048e-02,0.000000000000000000e+00,1.955033311315334810e-01,1.561301052273100509e-01,-5.523132582539970470e-02,-3.970549885156527542e-02
1.000000000000000000e+00,1.684949219385488510e+09,0.000000000000000000e+00,4.319829657752169427e-01,6.684626004189004878e-01,1.955033311315334810e-01,1.583697657248552826e-01,-5.580606018243538385e-02,-2.929155230286172723e-02
1.016666666666666607e+00,1.684949219400507689e+09,0.000000000000000000e+00,4.553222712175740705e-01,6.830914848886073809e-01,2.275530575465407879e-01,1.592729553293950329e-01,-5.620531875764071816e-02,-1.864903995187357569e-02
1.033333333333333215e+00,1.684949219416488409e+09,0.000000000000000000e+00,1.298013919807728400e-01,0.000000000000000000e+00,2.596027839615456800e-01,1.587512800556776793e-01,-5.647370523642731427e-02,-1.357144227247947255e-02
1.050000000000000044e+00,1.684949219435508490e+09,0.000000000000000000e+00,1.458262551882752722e-01,0.000000000000000000e+00,2.916525103765505444e-01,1.567275143293661577e-01,-5.665623256897881627e-02,-8.346352114633949493e-03
1.066666666666666652e+00,1.684949219449461460e+09,0.000000000000000000e+00,4.434853442234568677e-01,5.953181780703631354e-01,2.916525103765505444e-01,1.531370353599080525e-01,-5.671177985447194841e-02,1.652901497248601692e-03
1.083333333333333259e+00,1.684949219467508554e+09,0.000000000000000000e+00,4.581142286931650931e-01,6.245759470097795862e-01,2.916525103765505444e-01,1.479291677524706139e-01,-5.660075277944875277e-02,1.164259769631933658e-02
1.100000000000000089e+00,1.684949219485508442e+09,0.000000000000000000e+00,4.800575553977254883e-01,6.684626004189004878e-01,2.916525103765505444e-01,1.410684185001883362e-01,-5.632252733647448439e-02,2.171647181831029907e-02
1.116666666666666696e+00,1.684949219501508951e+09,0.000000000000000000e+00,1.458262551882752722e-01,0.000000000000000000e+00,2.916525103765505444e-01,1.325355831753318725e-01,-5.592513815341676464e-02,2.595844660797936437e-02
1.133333333333333304e+00,1.684949219518512964e+09,0.000000000000000000e+00,1.458262551882752722e-01,0.000000000000000000e+00,2.916525103765505444e-01,1.223287050734389175e-01,-5.545904507330216837e-02,2.996160286556000599e-02
1.149999999999999911e+00,1.684949219537463903e+09,0.000000000000000000e+00,1.298013919807728400e-01,0.000000000000000000e+00,2.596027839615456800e-01,1.104638702532868832e-01,-5.493063777917538831e-02,3.343761660866755719e-02
1.166666666666666741e+00,1.684949219552487135e+09,0.000000000000000000e+00,1.137765287732703939e-01,0.000000000000000000e+00,2.275530575465407879e-01,9.697582284987420198e-02,-5.434885336935578459e-02,3.636837139256703100e-02
1.183333333333333348e+00,1.684949219569509029e+09,0.000000000000000000e+00,4.967707594325939530e-02,0.000000000000000000e+00,9.935415188651879059e-02,8.191838670615794737e-02,-5.372956103278636597e-02,3.794233676682123163e-02
1.199999999999999956e+00,1.684949219588508606e+09,0.000000000000000000e+00,-3.044724009425465311e-02,0.000000000000000000e+00,-6.089448018850930622e-02,6.536468125788102990e-02,-5.309760655342939117e-02,3.789233964019136924e-02
1.216666666666666563e+00,1.684949219605486870e+09,0.000000000000000000e+00,-6.249696650926014896e-02,0.000000000000000000e+00,-1.249939330185202979e-01,4.740712169705821322e-02,-5.247338548517935242e-02,3.701662115840462924e-02
1.233333333333333393e+00,1.684949219622488499e+09,0.000000000000000000e+00,-4.647210330175770288e-02,0.000000000000000000e+00,-9.294420660351540575e-02,2.815719571336165739e-02,-5.186408421756528997e-02,3.610207143098396326e-02
1.250000000000000000e+00,1.684949219640510321e+09,0.000000000000000000e+00,-6.249696650926014896e-02,0.000000000000000000e+00,-1.249939330185202979e-01,7.745011545834602773e-03,-5.127493183050802622e-02,3.460038646120294076e-02
1.266666666666666607e+00,1.684949219655510426e+09,0.000000000000000000e+00,-4.647210330175770288e-02,0.000000000000000000e+00,-9.294420660351540575e-02,-1.368138535537460898e-02,-5.071134617533210737e-02,3.303424266174148638e-02
1.283333333333333215e+00,1.684949219672509909e+09,0.000000000000000000e+00,-3.044724009425465311e-02,0.000000000000000000e+00,-6.089448018850930622e-02,-3.595692708381995062e-02,-5.017450994708706064e-02,3.139067031386186257e-02
1.300000000000000044e+00,1.684949219691461802e+09,0.000000000000000000e+00,-1.442237688675220356e-02,0.000000000000000000e+00,-2.884475377350440711e-02,-5.890066672401037678e-02,-4.966579521893909471e-02,2.965990485886785266e-02
1.316666666666666652e+00,1.684949219707461834e+09,0.000000000000000000e+00,1.762734952825329576e-02,0.000000000000000000e+00,3.525469905650659153e-02,-8.231714497068098879e-02,-4.918449509897469124e-02,2.810044148152965673e-02
1.333333333333333259e+00,1.684949219725464106e+09,0.000000000000000000e+00,3.365221273575574185e-02,0.000000000000000000e+00,6.730442547151148369e-02,-1.059979715900067898e-01,-4.873002808692600274e-02,2.644021182191011801e-02
1.350000000000000089e+00,1.684949219742487669e+09,0.000000000000000000e+00,4.967707594325939530e-02,0.000000000000000000e+00,9.935415188651879059e-02,-1.297236106032078895e-01,-4.830406589245206384e-02,2.468014071643703441e-02
1.366666666666666696e+00,1.684949219759463787e+09,0.000000000000000000e+00,4.967707594325939530e-02,0.000000000000000000e+00,9.935415188651879059e-02,-1.532653553374786481e-01,-4.791044671203271293e-02,2.256005021278069400e-02
1.383333333333333304e+00,1.684949219778511763e+09,0.000000000000000000e+00,4.967707594325939530e-02,0.000000000000000000e+00,9.935415188651879059e-02,-1.763874768417426353e-01,-4.755506318434217505e-02,2.009282667011543649e-02
1.399999999999999911e+00,1.684949219795486689e+09,0.000000000000000000e+00,4.967707594325939530e-02,0.000000000000000000e+00,9.935415188651879059e-02,-1.988495266390796490e-01,-4.724356174440853123e-02,1.729511771858478764e-02
1.416666666666666741e+00,1.684949219812507868e+09,0.000000000000000000e+00,4.967707594325939530e-02,0.000000000000000000e+00,9.935415188651879059e-02,-2.204087724169135620e-01,-4.698128013982831586e-02,1.418730783944366705e-02
1.433333333333333348e+00,1.684949219827508211e+09,0.000000000000000000e+00,4.967707594325939530e-02,0.000000000000000000e+00,9.935415188651879059e-02,-2.408227430721589790e-01,-4.677318570212878751e-02,1.079345228292914738e-02
1.449999999999999956e+00,1.684949219844508410e+09,0.000000000000000000e+00,4.967707594325939530e-02,0.000000000000000000e+00,9.935415188651879059e-02,-2.598518575620050175e-01,-4.662381507346991666e-02,7.141168627291184096e-03
1.466666666666666563e+00,1.684949219861510515e+09,0.000000000000000000e+00,4.967707594325939530e-02,0.000000000000000000e+00,9.935415188651879059e-02,-2.772621102904851975e-01,-4.653721609662485326e-02,3.261485744659022544e-03
1.483333333333333393e+00,1.684949219880508661e+09,0.000000000000000000e+00,6.570193915076183444e-02,0.000000000000000000e+00,1.314038783015236689e-01,-2.928277843127648494e-01,-4.651467921398200894e-02,-5.464818906838748817e-04
1.500000000000000000e+00,1.684949219896509886e+09,0.000000000000000000e+00,4.967707594325939530e-02,0.000000000000000000e+00,9.935415188651879059e-02,-3.063341624869342361e-01,-4.655916136999989352e-02,-4.779617843727239010e-03
1.516666666666666607e+00,1.684949219914492369e+09,0.000000000000000000e+00,6.570193915076183444e-02,0.000000000000000000e+00,1.314038783015236689e-01,-3.175802058677633655e-01,-4.667295105607283112e-02,-8.863799269604325307e-03
1.533333333333333215e+00,1.684949219930487156e+09,0.000000000000000000e+00,6.570193915076183444e-02,0.000000000000000000e+00,1.314038783015236689e-01,-3.263811681358813055e-01,-4.685546191670052207e-02,-1.302594222539529140e-02
1.550000000000000044e+00,1.684949219949461699e+09,0.000000000000000000e+00,6.570193915076183444e-02,0.000000000000000000e+00,1.314038783015236689e-01,-3.325711147031440440e-01,-4.710762190783802927e-02,-1.722160182679748769e-02
1.566666666666666652e+00,1.684949219968461037e+09,0.000000000000000000e+00,6.570193915076183444e-02,0.000000000000000000e+00,1.314038783015236689e-01,-3.360053153407775994e-01,-4.742960438590688305e-02,-2.140467561856222722e-02
1.583333333333333259e+00,1.684949219982495308e+09,0.000000000000000000e+00,6.570193915076183444e-02,0.000000000000000000e+00,1.314038783015236689e-01,-3.365624797474315311e-01,-4.782080394809165580e-02,-2.552781839965528529e-02
1.600000000000000089e+00,1.684949219999510288e+09,0.000000000000000000e+00,6.570193915076183444e-02,0.000000000000000000e+00,1.314038783015236689e-01,-3.341468064117021908e-01,-4.827981941208324412e-02,-2.954288405667937142e-02
1.616666666666666696e+00,1.684949220015463829e+09,0.000000000000000000e+00,6.570193915076183444e-02,0.000000000000000000e+00,1.314038783015236689e-01,-3.286898164258303390e-01,-4.880444435197354991e-02,-3.340139040470687520e-02
1.633333333333333304e+00,1.684949220032464027e+09,0.000000000000000000e+00,6.570193915076183444e-02,0.000000000000000000e+00,1.314038783015236689e-01,-3.201519455678092929e-01,-4.939166553719251396e-02,-3.705500265977203223e-02
1.649999999999999911e+00,1.684949220052488565e+09,0.000000000000000000e+00,6.570193915076183444e-02,0.000000000000000000e+00,1.314038783015236689e-01,-3.085238699772536730e-01,-5.003766954564553560e-02,-4.045603083176053938e-02
1.666666666666666741e+00,1.684949220067507505e+09,0.000000000000000000e+00,8.172680235826429440e-02,0.000000000000000000e+00,1.634536047165285888e-01,-2.938275430912558051e-01,-5.073564437915219910e-02,-4.329306834380373253e-02
1.683333333333333348e+00,1.684949220085510492e+09,0.000000000000000000e+00,1.298013919807728400e-01,0.000000000000000000e+00,2.596027839615456800e-01,-2.761169241607899782e-01,-5.147142503232589317e-02,-4.499587989363032503e-02
1.699999999999999956e+00,1.684949220103507280e+09,0.000000000000000000e+00,1.618511183957777322e-01,0.000000000000000000e+00,3.237022367915554644e-01,-2.554783816130108964e-01,-5.222807335481671059e-02,-4.579968595809338905e-02
1.716666666666666563e+00,1.684949220119510889e+09,0.000000000000000000e+00,1.778759816032801921e-01,0.000000000000000000e+00,3.557519632065603843e-01,-2.320307577328835913e-01,-5.299255546334170897e-02,-4.593778345172844918e-02
1.733333333333333393e+00,1.684949220136508703e+09,0.000000000000000000e+00,1.778759816032801921e-01,0.000000000000000000e+00,3.557519632065603843e-01,-2.059250845784448281e-01,-5.375571439406382629e-02,-4.564210957059241375e-02
1.750000000000000000e+00,1.684949220153508425e+09,0.000000000000000000e+00,1.778759816032801921e-01,0.000000000000000000e+00,3.557519632065603843e-01,-1.773439446835860522e-01,-5.451003862408755618e-02,-4.487891805857378152e-02
1.766666666666666607e+00,1.684949220169503212e+09,0.000000000000000000e+00,1.778759816032801921e-01,0.000000000000000000e+00,3.557519632065603843e-01,-1.465004739037144843e-01,-5.524748829239597980e-02,-4.361854326193926462e-02
1.783333333333333215e+00,1.684949220187488079e+09,0.000000000000000000e+00,1.778759816032801921e-01,0.000000000000000000e+00,3.557519632065603843e-01,-1.136370076832721038e-01,-5.595956667933733863e-02,-4.183581530966443834e-02
1.800000000000000044e+00,1.684949220205463409e+09,0.000000000000000000e+00,1.778759816032801921e-01,0.000000000000000000e+00,3.557519632065603843e-01,-7.902337602817287310e-02,-5.663739831293967270e-02,-3.951044024981031910e-02
1.816666666666666652e+00,1.684949220221510410e+09,0.000000000000000000e+00,4.901639551081700130e-01,6.245759470097795862e-01,3.557519632065603843e-01,-4.295485650699272517e-02,-5.722867970487138106e-02,-3.146567388119232006e-02
1.833333333333333259e+00,1.684949220237509727e+09,0.000000000000000000e+00,4.609061861687547834e-01,5.660604091309491270e-01,3.557519632065603843e-01,-5.749798637417957367e-03,-5.768589512095856353e-02,-2.342251867291619133e-02
1.849999999999999867e+00,1.684949220256463528e+09,0.000000000000000000e+00,4.828495128733165109e-01,6.099470625400725821e-01,3.557519632065603843e-01,3.225306300698257272e-02,-5.800188907740563143e-02,-1.452148178513080340e-02
1.866666666666666696e+00,1.684949220273509502e+09,0.000000000000000000e+00,5.486794929869991400e-01,7.416070227674378401e-01,3.557519632065603843e-01,7.069758575605251949e-02,-5.815635938834720631e-02,-4.044060161805036746e-03
1.883333333333333304e+00,1.684949220288509607e+09,0.000000000000000000e+00,1.778759816032801921e-01,0.000000000000000000e+00,3.557519632065603843e-01,1.092134609224412606e-01,-5.818354888638552214e-02,7.679533783286375537e-04
1.899999999999999911e+00,1.684949220305488110e+09,0.000000000000000000e+00,1.778759816032801921e-01,0.000000000000000000e+00,3.557519632065603843e-01,1.474196925141145476e-01,-5.812592573269491358e-02,6.131924793261274778e-03
1.916666666666666741e+00,1.684949220323509932e+09,0.000000000000000000e+00,1.778759816032801921e-01,0.000000000000000000e+00,3.557519632065603843e-01,1.849282807872871526e-01,-5.797446322490239917e-02,1.202719999197821368e-02
1.933333333333333348e+00,1.684949220339487791e+09,0.000000000000000000e+00,1.778759816032801921e-01,0.000000000000000000e+00,3.557519632065603843e-01,2.213480758190746467e-01,-5.772053006855439733e-02,1.842700112600279688e-02
1.949999999999999956e+00,1.684949220356512308e+09,0.000000000000000000e+00,1.778759816032801921e-01,0.000000000000000000e+00,3.557519632065603843e-01,2.562887635686919019e-01,-5.735599147847222912e-02,2.529854162212016172e-02
1.966666666666666563e+00,1.684949220373487234e+09,0.000000000000000000e+00,1.778759816032801921e-01,0.000000000000000000e+00,3.557519632065603843e-01,2.893649445404385401e-01,-5.687330781543691732e-02,3.260320672814683018e-02
1.983333333333333393e+00,1.684949220391462803e+09,0.000000000000000000e+00,1.939008448107838178e-01,0.000000000000000000e+00,3.878016896215676357e-01,3.202002631948557831e-01,-5.626341630625644047e-02,4.056166701906034622e-02
2.000000000000000000e+00,1.684949220411486864e+09,0.000000000000000000e+00,1.939008448107838178e-01,0.000000000000000000e+00,3.878016896215676357e-01,3.484315447067142801e-01,-5.551808370004481658e-02,4.885520757147368553e-02
2.016666666666666607e+00,1.684949220425487995e+09,0.000000000000000000e+00,1.939008448107838178e-01,0.000000000000000000e+00,3.878016896215676357e-01,3.737128945660277979e-01,-5.463217905326173823e-02,5.742953191430413135e-02
2.033333333333333215e+00,1.684949220442475557e+09,0.000000000000000000e+00,1.939008448107838178e-01,0.000000000000000000e+00,3.878016896215676357e-01,3.957197158828150152e-01,-5.360151369758034412e-02,6.622587590351605713e-02
2.049999999999999822e+00,1.684949220458462715e+09,0.000000000000000000e+00,2.099257080182862778e-01,0.000000000000000000e+00,4.198514160365725556e-01,4.141525991047960709e-01,-5.242069824303607212e-02,7.544636556768982705e-02
2.066666666666666430e+00,1.684949220477490902e+09,0.000000000000000000e+00,2.099257080182862778e-01,0.000000000000000000e+00,4.198514160365725556e-01,4.287410392014489036e-01,-5.108546653676337979e-02,8.475557964841272385e-02
2.083333333333333481e+00,1.684949220495508909e+09,0.000000000000000000e+00,2.099257080182862778e-01,0.000000000000000000e+00,4.198514160365725556e-01,4.392469362144185707e-01,-4.959491597603492979e-02,9.408457315822935096e-02
2.100000000000000089e+00,1.684949220511461496e+09,0.000000000000000000e+00,2.099257080182862778e-01,0.000000000000000000e+00,4.198514160365725556e-01,4.454678364242556921e-01,-4.794931148154030903e-02,1.033621944044437607e-01
2.116666666666666696e+00,1.684949220527508497e+09,0.000000000000000000e+00,2.099257080182862778e-01,0.000000000000000000e+00,4.198514160365725556e-01,4.472398732323294990e-01,-4.615011664134311548e-02,1.125157592517568306e-01
2.133333333333333304e+00,1.684949220543508768e+09,0.000000000000000000e+00,2.099257080182862778e-01,0.000000000000000000e+00,4.198514160365725556e-01,4.444403691943829560e-01,-4.420001335086271022e-02,1.214717572481542468e-01
2.149999999999999911e+00,1.684949220562464714e+09,0.000000000000000000e+00,1.939008448107838178e-01,0.000000000000000000e+00,3.878016896215676357e-01,4.369900634528333105e-01,-4.210512283606973605e-02,1.298917152044215539e-01
2.166666666666666519e+00,1.684949220578461170e+09,0.000000000000000000e+00,2.099257080182862778e-01,0.000000000000000000e+00,4.198514160365725556e-01,4.248549320771404236e-01,-3.987052540576507126e-02,1.382367951090406610e-01
2.183333333333333126e+00,1.684949220594519854e+09,0.000000000000000000e+00,2.099257080182862778e-01,0.000000000000000000e+00,4.198514160365725556e-01,4.080475725087651662e-01,-3.750031737787377223e-02,1.461661417566002263e-01
2.200000000000000178e+00,1.684949220613510609e+09,0.000000000000000000e+00,2.099257080182862778e-01,0.000000000000000000e+00,4.198514160365725556e-01,3.866281273873442004e-01,-3.500200724228647725e-02,1.536103955444401148e-01
2.216666666666666785e+00,1.684949220630508900e+09,0.000000000000000000e+00,2.099257080182862778e-01,0.000000000000000000e+00,4.198514160365725556e-01,3.607047274708456985e-01,-3.238423496721432732e-02,1.605031305275201603e-01
2.233333333333333393e+00,1.684949220645487547e+09,0.000000000000000000e+00,2.099257080182862778e-01,0.000000000000000000e+00,4.198514160365725556e-01,3.304334381131059373e-01,-2.965671688934324104e-02,1.667815982185056056e-01
2.250000000000000000e+00,1.684949220663511038e+09,0.000000000000000000e+00,2.099257080182862778e-01,0.000000000000000000e+00,4.198514160365725556e-01,2.960176987814396310e-01,-2.683017838746826894e-02,1.723874498299594049e-01
2.266666666666666607e+00,1.684949220679510832e+09,0.000000000000000000e+00,1.939008448107838178e-01,0.000000000000000000e+00,3.878016896215676357e-01,2.577072503353542432e-01,-2.391848812878148364e-02,1.770025611570415769e-01
2.283333333333333215e+00,1.684949220696511507e+09,0.000000000000000000e+00,2.099257080182862778e-01,0.000000000000000000e+00,4.198514160365725556e-01,2.157965501917970264e-01,-2.093409215416985880e-02,1.811135361525980092e-01
2.299999999999999822e+00,1.684949220712488413e+09,0.000000000000000000e+00,2.099257080182862778e-01,0.000000000000000000e+00,4.198514160365725556e-01,1.706226810170363983e-01,-1.788798717690081794e-02,1.844099043259176673e-01
2.316666666666666430e+00,1.684949220732462168e+09,0.000000000000000000e+00,1.939008448107838178e-01,0.000000000000000000e+00,3.878016896215676357e-01,1.225627641521872258e-01,-1.479624944789339341e-02,1.865925600796264350e-01
2.333333333333333481e+00,1.684949220747463703e+09,0.000000000000000000e+00,1.939008448107838178e-01,0.000000000000000000e+00,3.878016896215676357e-01,7.203089453879706061e-02,-1.167541507953755511e-02,1.879039213670969377e-01
2.350000000000000089e+00,1.684949220765488386e+09,0.000000000000000000e+00,1.939008448107838178e-01,0.000000000000000000e+00,3.878016896215676357e-01,1.947461940219121640e-02,-8.540164914545168157e-03,1.883249289389874737e-01
2.366666666666666696e+00,1.684949220782486200e+09,0.000000000000000000e+00,1.939008448107838178e-01,0.000000000000000000e+00,3.878016896215676357e-01,-3.462901168774912969e-02,-5.405428926986134870e-03,1.878447235034790275e-01
2.383333333333333304e+00,1.684949220798485994e+09,0.000000000000000000e+00,2.099257080182862778e-01,0.000000000000000000e+00,4.198514160365725556e-01,-8.977779258679077778e-02,-2.284033852171143963e-03,1.867257936858556233e-01
2.399999999999999911e+00,1.684949220816485882e+09,0.000000000000000000e+00,1.939008448107838178e-01,0.000000000000000000e+00,3.878016896215676357e-01,-1.454490644638810337e-01,8.089642335426571254e-04,1.844403252725901887e-01
2.416666666666666519e+00,1.684949220833486080e+09,0.000000000000000000e+00,2.099257080182862778e-01,0.000000000000000000e+00,4.198514160365725556e-01,-2.011047354783710439e-01,3.858713022124058822e-03,1.815375926930073713e-01
2.433333333333333126e+00,1.684949220849491358e+09,0.000000000000000000e+00,1.939008448107838178e-01,0.000000000000000000e+00,3.878016896215676357e-01,-2.561965696692718453e-01,6.850661187521501008e-03,1.775073824466351369e-01
2.450000000000000178e+00,1.684949220868508816e+09,0.000000000000000000e+00,1.939008448107838178e-01,0.000000000000000000e+00,3.878016896215676357e-01,-3.101716946456825608e-01,9.768540765602486825e-03,1.726516553713058344e-01
2.466666666666666785e+00,1.684949220884509087e+09,0.000000000000000000e+00,1.939008448107838178e-01,0.000000000000000000e+00,3.878016896215676357e-01,-3.624782743005727226e-01,1.259893762365975334e-02,1.670116346884187586e-01
2.483333333333333393e+00,1.684949220902488708e+09,0.000000000000000000e+00,1.778759816032801921e-01,0.000000000000000000e+00,3.557519632065603843e-01,-4.125712899144131085e-01,1.532698090505944105e-02,1.603720029351668463e-01
2.500000000000000000e+00,1.684949220916509151e+09,0.000000000000000000e+00,1.298013919807728400e-01,0.000000000000000000e+00,2.596027839615456800e-01,-4.599183707113551067e-01,1.793210103775801090e-02,1.522649331569585762e-01
2.516666666666666607e+00,1.684949220935481787e+09,0.000000000000000000e+00,4.967707594325939530e-02,0.000000000000000000e+00,9.935415188651879059e-02,-5.040056132134906886e-01,2.038606693089924787e-02,1.422388249759801437e-01
2.533333333333333215e+00,1.684949220951488256e+09,0.000000000000000000e+00,-6.249696650926014896e-02,0.000000000000000000e+00,-1.249939330185202979e-01,-5.443433276380891250e-01,2.265325083213003479e-02,1.298576361722935391e-01
2.549999999999999822e+00,1.684949220971486330e+09,0.000000000000000000e+00,-2.227455985842876351e-01,0.000000000000000000e+00,-4.454911971685752703e-01,-5.804716491213491869e-01,2.468866799979621898e-02,1.144352648762000796e-01
2.566666666666666430e+00,1.684949220986462593e+09,0.000000000000000000e+00,-3.509445042443096185e-01,0.000000000000000000e+00,-7.018890084886192371e-01,-6.119659517471573995e-01,2.644711888586883178e-02,9.662830639026968871e-02
2.583333333333333481e+00,1.684949221003486395e+09,0.000000000000000000e+00,-4.150439570743206241e-01,0.000000000000000000e+00,-8.300879141486412482e-01,-6.384420042203832191e-01,2.789873630251345563e-02,7.761858961871333229e-02
2.600000000000000089e+00,1.684949221020509005e+09,0.000000000000000000e+00,-4.631185466968285591e-01,0.000000000000000000e+00,-9.262370933936571182e-01,-6.595608075543193394e-01,2.902659371190394189e-02,5.777940963847038452e-02
2.616666666666666696e+00,1.684949221035513639e+09,0.000000000000000000e+00,-4.951682731118340897e-01,0.000000000000000000e+00,-9.903365462236681793e-01,-6.750330573366558617e-01,2.981997455999728722e-02,3.748267328290220968e-02
2.633333333333333304e+00,1.684949221055509090e+09,0.000000000000000000e+00,-5.111931363193371602e-01,0.000000000000000000e+00,-1.022386272638674320e+00,-6.846231759864723765e-01,3.027434191010881098e-02,1.709803406102719872e-02
2.649999999999999911e+00,1.684949221070488453e+09,0.000000000000000000e+00,-5.111931363193371602e-01,0.000000000000000000e+00,-1.022386272638674320e+00,-6.881528638972181922e-01,3.039129328747431150e-02,-3.008017319947559748e-03
2.666666666666666519e+00,1.684949221087509632e+09,0.000000000000000000e+00,-5.111931363193371602e-01,0.000000000000000000e+00,-1.022386272638674320e+00,-6.855041224518527709e-01,3.017628671182939412e-02,-2.273796505715580674e-02
2.683333333333333126e+00,1.684949221106511116e+09,0.000000000000000000e+00,-5.111931363193371602e-01,0.000000000000000000e+00,-1.022386272638674320e+00,-6.766217065631360272e-01,2.963639962783843132e-02,-4.199499202120605956e-02
2.700000000000000178e+00,1.684949221121508598e+09,0.000000000000000000e+00,-5.111931363193371602e-01,0.000000000000000000e+00,-1.022386272638674320e+00,-6.615149695951128006e-01,2.878030843466745578e-02,-6.068403592660925189e-02
2.716666666666666785e+00,1.684949221140508413e+09,0.000000000000000000e+00,-5.432428627343426353e-01,0.000000000000000000e+00,-1.086485725468685271e+00,-6.402590692149014995e-01,2.761382366783820402e-02,-7.924258335893406835e-02
2.733333333333333393e+00,1.684949221156509161e+09,0.000000000000000000e+00,-5.752925891493481103e-01,0.000000000000000000e+00,-1.150585178298696221e+00,-6.129955088550085307e-01,2.613993202532471222e-02,-9.757349334982651223e-02
2.750000000000000000e+00,1.684949221171508789e+09,0.000000000000000000e+00,-6.073423155643535853e-01,0.000000000000000000e+00,-1.214684631128707171e+00,-5.799319959779415390e-01,2.436319711542287575e-02,-1.155846636322962612e-01
2.766666666666666607e+00,1.684949221191515207e+09,0.000000000000000000e+00,-6.233671787718561008e-01,0.000000000000000000e+00,-1.246734357543712202e+00,-5.413416051641954940e-01,2.229188050790553710e-02,-1.329251600903797736e-01
2.783333333333333215e+00,1.684949221207511187e+09,0.000000000000000000e+00,-2.671925518578454062e-01,7.123492538280212782e-01,-1.246734357543712202e+00,-4.975612411246259081e-01,1.998919268702653226e-02,-1.433683688192086136e-01
2.799999999999999822e+00,1.684949221224488258e+09,0.000000000000000000e+00,-3.037647630321127501e-01,6.392048314794865904e-01,-1.246734357543712202e+00,-4.489894039980430462e-01,1.751555120285819972e-02,-1.534406301188762090e-01
2.816666666666666430e+00,1.684949221242462158e+09,0.000000000000000000e+00,-2.393307616562262985e-01,8.001225606462656348e-01,-1.278784083958718121e+00,-3.960832666604183205e-01,1.489163696129367984e-02,-1.614069496825890904e-01
2.833333333333333481e+00,1.684949221260508776e+09,0.000000000000000000e+00,-1.867336872744544962e-01,8.732669829948030982e-01,-1.246734357543712202e+00,-3.393550811673256562e-01,1.215115109847778735e-02,-1.674346099604695215e-01
2.850000000000000089e+00,1.684949221275475979e+09,0.000000000000000000e+00,-2.027585504819575390e-01,8.732669829948030982e-01,-1.278784083958718121e+00,-2.793679387980996243e-01,9.317108866409492055e-03,-1.726360092164021809e-01
2.866666666666666696e+00,1.684949221293488979e+09,0.000000000000000000e+00,-3.417329529441774927e-01,5.953181780703631354e-01,-1.278784083958718121e+00,-2.167309153901648411e-01,6.386551309717765183e-03,-1.790131827986161661e-01
2.883333333333333304e+00,1.684949221310508251e+09,0.000000000000000000e+00,-6.393920419793590604e-01,0.000000000000000000e+00,-1.278784083958718121e+00,-1.520936406665821528e-01,3.318403255789115734e-03,-1.891364627887865413e-01
2.899999999999999911e+00,1.684949221327508688e+09,0.000000000000000000e+00,-3.636762796487380545e-01,5.514315246612422339e-01,-1.278784083958718121e+00,-8.614033699141974976e-02,1.301236030541675845e-04,-1.934451267467209024e-01
2.916666666666666519e+00,1.684949221344486237e+09,0.000000000000000000e+00,-6.393920419793590604e-01,0.000000000000000000e+00,-1.278784083958718121e+00,-1.958337936031324250e-02,-3.158261119299899701e-03,-2.011396657133613652e-01
2.933333333333333126e+00,1.684949221359489918e+09,0.000000000000000000e+00,-6.393920419793590604e-01,0.000000000000000000e+00,-1.278784083958718121e+00,4.684356562580400257e-02,-6.564650461416601107e-03,-2.076090843104705930e-01
2.950000000000000178e+00,1.684949221377486229e+09,0.000000000000000000e+00,-6.393920419793590604e-01,0.000000000000000000e+00,-1.278784083958718121e+00,1.123927586169192333e-01,-1.006891620025067782e-02,-2.128881399610105252e-01
2.966666666666666785e+00,1.684949221393461704e+09,0.000000000000000000e+00,-6.233671787718561008e-01,0.000000000000000000e+00,-1.246734357543712202e+00,1.763098961420048738e-01,-1.364939542509659674e-02,-2.167586154466621395e-01
2.983333333333333393e+00,1.684949221414511442e+09,0.000000000000000000e+00,-6.233671787718561008e-01,0.000000000000000000e+00,-1.246734357543712202e+00,2.378418367074218165e-01,-1.728534916036448058e-02,-2.195480840791348143e-01
3.000000000000000000e+00,1.684949221431487799e+09,0.000000000000000000e+00,-6.233671787718561008e-01,0.000000000000000000e+00,-1.246734357543712202e+00,2.962444685039509196e-01,-2.095934215606256104e-02,-2.213261362545684841e-01
3.016666666666666607e+00,1.684949221447483778e+09,0.000000000000000000e+00,-6.073423155643535853e-01,0.000000000000000000e+00,-1.214684631128707171e+00,3.507906400320003337e-01,-2.465297646270028092e-02,-2.219083632068033218e-01
3.033333333333333215e+00,1.684949221464462996e+09,0.000000000000000000e+00,-5.752925891493481103e-01,0.000000000000000000e+00,-1.150585178298696221e+00,4.007780728987936358e-01,-2.834490312102390733e-02,-2.211250118193222591e-01
3.049999999999999822e+00,1.684949221481488466e+09,0.000000000000000000e+00,-5.272179995268395647e-01,0.000000000000000000e+00,-1.054435999053679129e+00,4.455371747929603443e-01,-3.201105988398040419e-02,-2.188202021352637361e-01
3.066666666666666430e+00,1.684949221496488810e+09,0.000000000000000000e+00,-4.631185466968285591e-01,0.000000000000000000e+00,-9.262370933936571182e-01,4.844386702266564870e-01,-3.562489495129749634e-02,-2.148510316757828442e-01
3.083333333333333481e+00,1.684949221515508890e+09,0.000000000000000000e+00,-3.990190938668175535e-01,0.000000000000000000e+00,-7.980381877336351071e-01,5.169009670709451276e-01,-3.915978824438106493e-02,-2.093514404959638253e-01
3.100000000000000089e+00,1.684949221531508923e+09,0.000000000000000000e+00,-3.509445042443096185e-01,0.000000000000000000e+00,-7.018890084886192371e-01,5.423971782057820379e-01,-4.259361965503522668e-02,-2.027267311859518029e-01
3.116666666666666696e+00,1.684949221548478842e+09,0.000000000000000000e+00,-3.349196410368071586e-01,0.000000000000000000e+00,-6.698392820736143172e-01,5.604617197613588342e-01,-4.591324580641578668e-02,-1.956480703891620432e-01
3.133333333333333304e+00,1.684949221566464901e+09,0.000000000000000000e+00,-3.028699146218016836e-01,0.000000000000000000e+00,-6.057398292436033671e-01,5.706964104341289978e-01,-4.911003164122428044e-02,-1.879875096241480914e-01
3.149999999999999911e+00,1.684949221583464384e+09,0.000000000000000000e+00,-2.387704617917906780e-01,0.000000000000000000e+00,-4.775409235835813559e-01,5.727760002002251216e-01,-5.217105886137299309e-02,-1.793597234305254751e-01
3.166666666666666519e+00,1.684949221600487232e+09,0.000000000000000000e+00,-1.746710089617797002e-01,0.000000000000000000e+00,-3.493420179235594003e-01,5.664530613943280501e-01,-5.508150119814958501e-02,-1.699195802198730787e-01
3.183333333333333126e+00,1.684949221617496967e+09,0.000000000000000000e+00,-1.105715561317686946e-01,0.000000000000000000e+00,-2.211431122635373892e-01,5.515621805373664976e-01,-5.782911497952467061e-02,-1.598221226984047061e-01
3.200000000000000178e+00,1.684949221633487463e+09,0.000000000000000000e+00,-6.249696650926014896e-02,0.000000000000000000e+00,-1.249939330185202979e-01,5.280233954371253979e-01,-6.040644357051654784e-02,-1.494860202919484071e-01
3.216666666666666785e+00,1.684949221651461124e+09,0.000000000000000000e+00,-4.647210330175770288e-02,0.000000000000000000e+00,-9.294420660351540575e-02,4.958448288993295150e-01,-6.281516257325349406e-02,-1.395877558625852610e-01
3.233333333333333393e+00,1.684949221666489601e+09,0.000000000000000000e+00,-4.647210330175770288e-02,0.000000000000000000e+00,-9.294420660351540575e-02,4.551244778122151002e-01,-6.506590197060009573e-02,-1.305261435567310335e-01
3.250000000000000000e+00,1.684949221686490297e+09,0.000000000000000000e+00,-1.442237688675220356e-02,0.000000000000000000e+00,-2.884475377350440711e-02,4.060511243373337020e-01,-6.716921740245943018e-02,-1.218956823340286710e-01
3.266666666666666607e+00,1.684949221702497959e+09,0.000000000000000000e+00,1.602486320750845994e-03,0.000000000000000000e+00,3.204972641501691987e-03,3.489043443787182008e-01,-6.913556363721114206e-02,-1.140875555876191411e-01
3.283333333333333215e+00,1.684949221719486713e+09,0.000000000000000000e+00,1.762734952825329576e-02,0.000000000000000000e+00,3.525469905650659153e-02,2.840535973310240325e-01,-7.097959674399031971e-02,-1.072155066998519979e-01
3.299999999999999822e+00,1.684949221735507727e+09,0.000000000000000000e+00,3.365221273575574185e-02,0.000000000000000000e+00,6.730442547151148369e-02,2.119563902391062293e-01,-7.271778961357718007e-02,-1.013838371140174388e-01
3.316666666666666430e+00,1.684949221753508091e+09,0.000000000000000000e+00,6.570193915076183444e-02,0.000000000000000000e+00,1.314038783015236689e-01,1.331555188467641038e-01,-7.436605075465158032e-02,-9.642128500631760857e-02
3.333333333333333481e+00,1.684949221768506765e+09,0.000000000000000000e+00,8.172680235826429440e-02,0.000000000000000000e+00,1.634536047165285888e-01,4.827539747699634981e-02,-7.594179844671843094e-02,-9.267883398366308367e-02
3.350000000000000089e+00,1.684949221787487268e+09,0.000000000000000000e+00,1.298013919807728400e-01,0.000000000000000000e+00,2.596027839615456800e-01,-4.198250082551851364e-02,-7.746151524392012877e-02,-8.969546900054048422e-02
3.366666666666666696e+00,1.684949221804464340e+09,0.000000000000000000e+00,1.618511183957777322e-01,0.000000000000000000e+00,3.237022367915554644e-01,-1.368450630452524297e-01,-7.894059709548634229e-02,-8.779961955979884158e-02
3.383333333333333304e+00,1.684949221822508574e+09,0.000000000000000000e+00,1.618511183957777322e-01,0.000000000000000000e+00,3.237022367915554644e-01,-2.354737737543018683e-01,-8.040196595878028318e-02,-8.756529495248030481e-02
3.399999999999999911e+00,1.684949221840486765e+09,0.000000000000000000e+00,1.778759816032801921e-01,0.000000000000000000e+00,3.557519632065603843e-01,-3.369717224223788277e-01,-8.187126736219635381e-02,-8.874758922938254246e-02
3.416666666666666519e+00,1.684949221856488466e+09,0.000000000000000000e+00,1.778759816032801921e-01,0.000000000000000000e+00,3.557519632065603843e-01,-4.403913228189166307e-01,-8.337439473796216804e-02,-9.161971754054400174e-02
3.433333333333333126e+00,1.684949221872486115e+09,0.000000000000000000e+00,1.778759816032801921e-01,0.000000000000000000e+00,3.557519632065603843e-01,-5.447426787056207642e-01,-8.493940728046195376e-02,-9.616914994974988529e-02
3.449999999999999734e+00,1.684949221891508102e+09,0.000000000000000000e+00,4.755350706384617876e-01,5.953181780703631354e-01,3.557519632065603843e-01,-6.490025224272848448e-01,-8.655290292631075133e-02,-9.744677850038147016e-02
3.466666666666666785e+00,1.684949221906510115e+09,0.000000000000000000e+00,4.755350706384617876e-01,5.953181780703631354e-01,3.557519632065603843e-01,-7.521236460557787495e-01,-8.820175905569387076e-02,-1.004077319612869668e-01
3.483333333333333393e+00,1.684949221922511339e+09,0.000000000000000000e+00,5.486794929869991400e-01,7.416070227674378401e-01,3.557519632065603843e-01,-8.530447385071292521e-01,-8.990339196859031823e-02,-1.037788531403926878e-01
3.500000000000000000e+00,1.684949221939507008e+09,0.000000000000000000e+00,8.719109300583554045e-01,1.356020170495143118e+00,3.878016896215676357e-01,-9.507005366092865506e-01,-9.162958799372233898e-02,-1.033658172244428519e-01
3.516666666666666607e+00,1.684949221957487583e+09,0.000000000000000000e+00,9.011686989977691908e-01,1.414535708373970913e+00,3.878016896215676357e-01,-1.044032193514862206e+00,-9.335780705302558491e-02,-1.040186564070911535e-01
3.533333333333333215e+00,1.684949221974488497e+09,0.000000000000000000e+00,1.010885332520573998e+00,1.633968975419580527e+00,3.878016896215676357e-01,-1.131997764188077404e+00,-9.509381232724536948e-02,-1.043011916606630812e-01
3.549999999999999822e+00,1.684949221993517160e+09,0.000000000000000000e+00,9.889420058160135474e-01,1.590082322010459404e+00,3.878016896215676357e-01,-1.213582704998674044e+00,-9.684878687441464407e-02,-1.062902287665381529e-01
3.566666666666666430e+00,1.684949222009488106e+09,0.000000000000000000e+00,9.757091000841008333e-01,1.531566784131628944e+00,4.198514160365725556e-01,-1.287810282768312442e+00,-9.864871739883912527e-02,-1.096919846201838689e-01
3.583333333333333481e+00,1.684949222026509285e+09,0.000000000000000000e+00,9.391368889098321571e-01,1.458422361783091814e+00,4.198514160365725556e-01,-1.353751787968042741e+00,-1.005190332475987824e-01,-1.147319170890610529e-01
3.600000000000000089e+00,1.684949222043487310e+09,0.000000000000000000e+00,9.185895409430672176e-01,1.385277939434557126e+00,4.519011424515774755e-01,-1.410536447179642439e+00,-1.024833329882702676e-01,-1.209667324523324844e-01
3.616666666666666696e+00,1.684949222061511040e+09,0.000000000000000000e+00,1.138022807988675611e+00,1.824144473525773469e+00,4.519011424515774755e-01,-1.457360931418432148e+00,-1.045268443513125561e-01,-1.242455231464528048e-01
3.633333333333333304e+00,1.684949222077463865e+09,0.000000000000000000e+00,1.233110557041773303e+00,2.014319971631969075e+00,4.519011424515774755e-01,-1.493498359470435854e+00,-1.066164071099656441e-01,-1.264957570949440946e-01
3.649999999999999911e+00,1.684949222095489740e+09,0.000000000000000000e+00,1.167280576928090507e+00,1.882660011404603706e+00,4.519011424515774755e-01,-1.518306699009466687e+00,-1.087556819742608177e-01,-1.302069175986718397e-01
3.666666666666666519e+00,1.684949222112486124e+09,0.000000000000000000e+00,1.181909461397797623e+00,1.911917780344017714e+00,4.519011424515774755e-01,-1.531236472907907098e+00,-1.109560622442776756e-01,-1.338286541871568092e-01
3.683333333333333126e+00,1.684949222129486084e+09,0.000000000000000000e+00,1.020991732231018467e+00,1.590082322010459404e+00,4.519011424515774755e-01,-1.531837683803673356e+00,-1.132386136312992786e-01,-1.400602019930127784e-01
3.699999999999999734e+00,1.684949222146476507e+09,0.000000000000000000e+00,8.673884452990915372e-01,1.282875748146605765e+00,4.519011424515774755e-01,-1.519765876591120168e+00,-1.156437118425251431e-01,-1.485280609699873855e-01
3.716666666666666785e+00,1.684949222162461519e+09,0.000000000000000000e+00,7.284140428368727216e-01,1.004926943222168134e+00,4.519011424515774755e-01,-1.494787266009920401e+00,-1.182045166074486842e-01,-1.587401432579479688e-01
3.733333333333333393e+00,1.684949222180508375e+09,0.000000000000000000e+00,7.677782114867323093e-01,1.019555827691875249e+00,5.160005952815897023e-01,-1.456782864848428005e+00,-1.209234260604700600e-01,-1.675046446942881906e-01
3.750000000000000000e+00,1.684949222197510719e+09,0.000000000000000000e+00,8.569474970427709559e-01,1.165844672388947290e+00,5.480503216965945112e-01,-1.405751557382150851e+00,-1.237678354042545253e-01,-1.738069696894933847e-01
3.766666666666666607e+00,1.684949222216487646e+09,0.000000000000000000e+00,6.988217253515814908e-01,7.854936761765587416e-01,6.121497745266043511e-01,-1.341812072450736748e+00,-1.267294220746095490e-01,-1.815618888041242718e-01
3.783333333333333215e+00,1.684949222231516123e+09,0.000000000000000000e+00,6.490166084454025430e-01,6.538337159491934836e-01,6.441995009416116025e-01,-1.265203820947027769e+00,-1.298154842212529136e-01,-1.887456135325080164e-01
3.799999999999999822e+00,1.684949222249487400e+09,0.000000000000000000e+00,7.030096615649679137e-01,6.977203693583143851e-01,7.082989537716214423e-01,-1.176286573351173148e+00,-1.330005440516824344e-01,-1.934485022318485903e-01
3.816666666666666430e+00,1.684949222267486572e+09,0.000000000000000000e+00,3.541494768858107212e-01,0.000000000000000000e+00,7.082989537716214423e-01,-1.075538964187016999e+00,-1.362976052278316863e-01,-2.021745991773860884e-01
3.833333333333333481e+00,1.684949222285508871e+09,0.000000000000000000e+00,3.701743400933131811e-01,0.000000000000000000e+00,7.403486801866263622e-01,-9.635558217974733441e-01,-1.397212155706036851e-01,-2.086406801963500979e-01
3.850000000000000089e+00,1.684949222301510096e+09,0.000000000000000000e+00,3.701743400933131811e-01,0.000000000000000000e+00,7.403486801866263622e-01,-8.410443335166971623e-01,-1.432347794841306310e-01,-2.129749495065462184e-01
3.866666666666666696e+00,1.684949222319489717e+09,0.000000000000000000e+00,3.861992033008168068e-01,0.000000000000000000e+00,7.723984066016336136e-01,-7.088190680426984525e-01,-1.467995061863083539e-01,-2.147872205500665210e-01
3.883333333333333304e+00,1.684949222336491346e+09,0.000000000000000000e+00,3.861992033008168068e-01,0.000000000000000000e+00,7.723984066016336136e-01,-5.677958884665503803e-01,-1.503747089021677252e-01,-2.142386292536360426e-01
3.899999999999999911e+00,1.684949222354488611e+09,0.000000000000000000e+00,4.182489297158217267e-01,0.000000000000000000e+00,8.364978594316434535e-01,-4.189848008739792129e-01,-1.539158636155817939e-01,-2.107097390595246145e-01
3.916666666666666519e+00,1.684949222369487286e+09,0.000000000000000000e+00,8.211021675145467880e-01,7.416070227674378401e-01,9.005973122616556248e-01,-2.634817945837653608e-01,-1.573215704614644994e-01,-1.980103593314622157e-01
3.933333333333333126e+00,1.684949222386512280e+09,0.000000000000000000e+00,4.983732457533351368e-01,0.000000000000000000e+00,9.967464915066702735e-01,-1.024597408082743299e-01,-1.605397100565041091e-01,-1.881936613206716125e-01
3.949999999999999734e+00,1.684949222404510021e+09,0.000000000000000000e+00,8.792831568474984705e-01,6.977203693583143851e-01,1.060845944336682445e+00,6.284157329892621491e-02,-1.635201509382895602e-01,-1.695111416031124252e-01
3.966666666666666785e+00,1.684949222420488119e+09,0.000000000000000000e+00,1.013735074550454751e+00,9.025247519342169955e-01,1.124945397166692285e+00,2.311261887143976901e-01,-1.661499828093833120e-01,-1.461336220109377970e-01
3.983333333333333393e+00,1.684949222438510895e+09,0.000000000000000000e+00,1.069124106407816743e+00,9.171536364039239997e-01,1.221094576411709376e+00,4.010534014666345959e-01,-1.683622974764798219e-01,-1.194183488792671111e-01
4.000000000000000000e+00,1.684949222457498550e+09,0.000000000000000000e+00,1.256173098492543883e+00,1.195102441328361298e+00,1.317243755656726467e+00,5.712497692167639585e-01,-1.700837046108813755e-01,-8.723989394971043421e-02
4.016666666666666607e+00,1.684949222471509218e+09,0.000000000000000000e+00,1.348134341524173330e+00,1.282875748146605765e+00,1.413392934901741116e+00,7.403215873255463153e-01,-1.712371946507219578e-01,-5.127880509570786893e-02
4.033333333333333215e+00,1.684949222491461515e+09,0.000000000000000000e+00,1.475271816992277385e+00,1.473051246252801372e+00,1.477492387731753398e+00,9.068677182745632503e-01,-1.717557364469405601e-01,-1.105793771170859169e-02
4.049999999999999822e+00,1.684949222507488489e+09,0.000000000000000000e+00,1.464830868735956804e+00,1.356020170495143118e+00,1.573641566976770489e+00,1.069492653444855890e+00,-1.715884660514900018e-01,3.101351726252104396e-02
4.066666666666666430e+00,1.684949222523488760e+09,0.000000000000000000e+00,1.548081690794935961e+00,1.458422361783091814e+00,1.637741019806780329e+00,1.226819682546021806e+00,-1.706925869373120963e-01,7.636599437069244156e-02
4.083333333333333037e+00,1.684949222541488171e+09,0.000000000000000000e+00,1.544955184773470158e+00,1.356020170495143118e+00,1.733890199051797421e+00,1.377504043483894769e+00,-1.690267165468842536e-01,1.234077777845540153e-01
4.099999999999999645e+00,1.684949222559508562e+09,0.000000000000000000e+00,1.715979313650693783e+00,1.633968975419580527e+00,1.797989651881807038e+00,1.520245924193035281e+00,-1.665399763496853980e-01,1.748581248847506375e-01
4.116666666666666252e+00,1.684949222575507402e+09,0.000000000000000000e+00,1.616369079838334777e+00,1.370649054964850011e+00,1.862089104711819321e+00,1.653803187967950672e+00,-1.631981479343799779e-01,2.260191675995499583e-01
4.133333333333332860e+00,1.684949222592487812e+09,0.000000000000000000e+00,1.708330322869964002e+00,1.458422361783091814e+00,1.958238283956836412e+00,1.777003695116820214e+00,-1.589809836142811184e-01,2.798909035792308542e-01
4.150000000000000355e+00,1.684949222609508753e+09,0.000000000000000000e+00,1.791581144928944713e+00,1.560824553071043175e+00,2.022337736786846030e+00,1.888757096334567454e+00,-1.538464637382877254e-01,3.360953543909626640e-01
4.166666666666666963e+00,1.684949222629492283e+09,0.000000000000000000e+00,1.612908025270991530e+00,1.107329134510119495e+00,2.118486916031863121e+00,1.988065977035725629e+00,-1.477939278305078208e-01,3.900590518549613694e-01
4.183333333333333570e+00,1.684949222644488811e+09,0.000000000000000000e+00,1.448863790082743686e+00,6.830914848886073809e-01,2.214636095276880212e+00,2.074036236975167924e+00,-1.408602340742327041e-01,4.418403585496514241e-01
4.200000000000000178e+00,1.684949222660495043e+09,0.000000000000000000e+00,1.155392637260947541e+00,0.000000000000000000e+00,2.310785274521895083e+00,2.145886595779670003e+00,-1.331012809742828651e-01,4.891027260003785182e-01
4.216666666666666785e+00,1.684949222679511309e+09,0.000000000000000000e+00,1.203467226883456087e+00,0.000000000000000000e+00,2.406934453766912174e+00,2.202957122461725703e+00,-1.245466269560007166e-01,5.373218111378493811e-01
4.233333333333333393e+00,1.684949222695486784e+09,0.000000000000000000e+00,1.267566679713467037e+00,0.000000000000000000e+00,2.535133359426934074e+00,2.244716695528468975e+00,-1.151803602613823835e-01,5.864936006972633065e-01
4.250000000000000000e+00,1.684949222713509798e+09,0.000000000000000000e+00,1.331666132543477987e+00,0.000000000000000000e+00,2.663332265086955974e+00,2.270769309855011464e+00,-1.049889035243841279e-01,6.363427346669064955e-01
4.266666666666666607e+00,1.684949222731510162e+09,0.000000000000000000e+00,1.427815311788493968e+00,0.000000000000000000e+00,2.855630623576987936e+00,2.280859156979371694e+00,-9.395883928781663397e-02,6.871239115764701255e-01
4.283333333333333215e+00,1.684949222746488571e+09,0.000000000000000000e+00,1.475889901411002514e+00,0.000000000000000000e+00,2.951779802822005028e+00,2.274874416797065813e+00,-8.208362255324319623e-02,7.377614334786978256e-01
4.299999999999999822e+00,1.684949222764487982e+09,0.000000000000000000e+00,1.523964491033511059e+00,0.000000000000000000e+00,3.047928982067022119e+00,2.252849710682668594e+00,-6.936784317718282245e-02,7.879925574645737507e-01
4.316666666666666430e+00,1.684949222781510592e+09,0.000000000000000000e+00,1.572039080656019605e+00,0.000000000000000000e+00,3.144078161312039210e+00,2.214967178728854513e+00,-5.582040861717591645e-02,8.375618938943147906e-01
4.333333333333333037e+00,1.684949222797515392e+09,0.000000000000000000e+00,1.652163396693532960e+00,0.000000000000000000e+00,3.304326793387065919e+00,2.161556156948851726e+00,-4.144997533795599653e-02,8.867534531758012317e-01
4.349999999999999645e+00,1.684949222818490982e+09,0.000000000000000000e+00,1.700237986316040395e+00,0.000000000000000000e+00,3.400475972632080790e+00,2.093091443808770880e+00,-2.626929339412542933e-02,9.347949284007175397e-01
4.366666666666666252e+00,1.684949222833488226e+09,0.000000000000000000e+00,1.716262849523544132e+00,0.000000000000000000e+00,3.432525699047088263e+00,2.010190159209050531e+00,-1.030379271376773501e-02,9.809369778659030592e-01
4.383333333333332860e+00,1.684949222851479530e+09,0.000000000000000000e+00,1.716262849523544132e+00,0.000000000000000000e+00,3.432525699047088263e+00,1.913607212884056219e+00,6.411028876708847052e-03,1.024719990648886414e+00
4.400000000000000355e+00,1.684949222866511583e+09,0.000000000000000000e+00,1.716262849523544132e+00,0.000000000000000000e+00,3.432525699047088263e+00,1.804229412996374515e+00,2.383441269903291762e-02,1.065971477868560946e+00
4.416666666666666963e+00,1.684949222886488438e+09,0.000000000000000000e+00,1.668188259901035586e+00,0.000000000000000000e+00,3.336376519802071172e+00,1.683068259330241290e+00,4.191624870704668826e-02,1.103743917181068568e+00
4.433333333333333570e+00,1.684949222903511524e+09,0.000000000000000000e+00,1.901747896106206204e+00,5.953181780703631354e-01,3.208177614142048828e+00,1.551251478796839445e+00,6.063646099609585477e-02,1.142573694473736801e+00
4.450000000000000178e+00,1.684949222920488358e+09,0.000000000000000000e+00,1.427815311788493968e+00,0.000000000000000000e+00,2.855630623576987936e+00,1.410013373817903704e+00,7.991350536925011239e-02,1.170593794860689263e+00
4.466666666666666785e+00,1.684949222936512947e+09,0.000000000000000000e+00,1.267566679713467037e+00,0.000000000000000000e+00,2.535133359426934074e+00,1.260684066419827998e+00,9.961092220580308743e-02,1.193033890459691104e+00
4.483333333333333393e+00,1.684949222953516722e+09,0.000000000000000000e+00,1.589234171282758012e+00,9.317825208736308928e-01,2.246685821691885465e+00,1.104677732420067615e+00,1.197021224002152995e-01,1.217841221993659406e+00
4.500000000000000000e+00,1.684949222971509457e+09,0.000000000000000000e+00,1.367343495307433709e+00,7.123492538280212782e-01,2.022337736786846030e+00,9.434799307999831575e-01,1.401504393475084542e-01,1.235906628814823272e+00
4.516666666666666607e+00,1.684949222990508795e+09,0.000000000000000000e+00,1.144391389140191340e+00,6.830914848886073809e-01,1.605691293391775298e+00,7.786341431179433226e-01,1.608437883668849822e-01,1.247263705333082395e+00
4.533333333333333215e+00,1.684949223006461859e+09,0.000000000000000000e+00,9.576769456013403126e-01,5.660604091309491270e-01,1.349293482071731276e+00,6.117276465192845736e-01,1.816760110491251468e-01,1.252588225852852677e+00
4.549999999999999822e+00,1.684949223022486448e+09,0.000000000000000000e+00,5.304229721683412224e-01,0.000000000000000000e+00,1.060845944336682445e+00,4.443768514481737930e-01,2.025141132072807437e-01,1.247996787421639109e+00
4.566666666666666430e+00,1.684949223040488720e+09,0.000000000000000000e+00,3.541494768858107212e-01,0.000000000000000000e+00,7.082989537716214423e-01,2.782122414771667773e-01,2.232290278413855134e-01,1.237821234760250633e+00
4.583333333333333037e+00,1.684949223057508469e+09,0.000000000000000000e+00,4.988743760808201366e-01,6.099470625400725821e-01,3.878016896215676357e-01,1.148630576691083149e-01,2.437731829880609713e-01,1.227506036842740622e+00
4.599999999999999645e+00,1.684949223074511766e+09,0.000000000000000000e+00,4.967707594325939530e-02,0.000000000000000000e+00,9.935415188651879059e-02,-4.405812648639439305e-02,2.640628492812437944e-01,1.207310019707172222e+00
4.616666666666666252e+00,1.684949223092508316e+09,0.000000000000000000e+00,-1.426212825467741974e-01,0.000000000000000000e+00,-2.852425650935483947e-01,-1.969707913115167075e-01,2.839710240540071484e-01,1.181741977036770752e+00
4.633333333333332860e+00,1.684949223107488155e+09,0.000000000000000000e+00,-3.028699146218016836e-01,0.000000000000000000e+00,-6.057398292436033671e-01,-3.423416693456410864e-01,3.034143839338435678e-01,1.151545090757476908e+00
4.650000000000000355e+00,1.684949223125486612e+09,0.000000000000000000e+00,-4.470936834893260992e-01,0.000000000000000000e+00,-8.941873669786521983e-01,-4.786996076232719055e-01,3.223198790992989338e-01,1.117209707406811470e+00
4.666666666666666963e+00,1.684949223143499374e+09,0.000000000000000000e+00,-5.913174523568505148e-01,0.000000000000000000e+00,-1.182634904713701030e+00,-6.046499477162780023e-01,3.406205437131185620e-01,1.078976252791773005e+00
4.683333333333333570e+00,1.684949223160485744e+09,0.000000000000000000e+00,-7.675909476393810715e-01,0.000000000000000000e+00,-1.535181895278762143e+00,-7.188882810823630232e-01,3.582491392684530873e-01,1.036573003424409389e+00
4.700000000000000178e+00,1.684949223180509806e+09,0.000000000000000000e+00,-9.759141693369165482e-01,0.000000000000000000e+00,-1.951828338673833096e+00,-8.202134423476649117e-01,3.751341019697984058e-01,9.897525805283210465e-01
4.716666666666666785e+00,1.684949223193510294e+09,0.000000000000000000e+00,-1.120137938204440964e+00,0.000000000000000000e+00,-2.240275876408881928e+00,-9.075396096336386664e-01,3.912132093569963831e-01,9.398788473438217661e-01
4.733333333333333393e+00,1.684949223214463472e+09,0.000000000000000000e+00,-1.328461159901977107e+00,0.000000000000000000e+00,-2.656922319803954213e+00,-9.799073888617593209e-01,4.064292072615944829e-01,8.861900402931613963e-01
4.750000000000000000e+00,1.684949223229490519e+09,0.000000000000000000e+00,-1.504734655184506886e+00,0.000000000000000000e+00,-3.009469310369013773e+00,-1.036493768064025378e+00,4.207256445181130622e-01,8.295397959825006051e-01
4.766666666666666607e+00,1.684949223246513367e+09,0.000000000000000000e+00,-1.648958424052031413e+00,0.000000000000000000e+00,-3.297916848104062826e+00,-1.076620838011855819e+00,4.340602729662886849e-01,7.707788464999267841e-01
4.783333333333333215e+00,1.684949223264519215e+09,0.000000000000000000e+00,-1.793182192919556384e+00,0.000000000000000000e+00,-3.586364385839112767e+00,-1.099763186853991215e+00,4.464005516563950282e-01,7.102228114802613401e-01
4.799999999999999822e+00,1.684949223280488014e+09,0.000000000000000000e+00,-1.921381098579577840e+00,0.000000000000000000e+00,-3.842762197159155679e+00,-1.105553888820441255e+00,4.577214204144839371e-01,6.484530262655053834e-01
4.816666666666666430e+00,1.684949223298512697e+09,0.000000000000000000e+00,-2.033555141032097335e+00,0.000000000000000000e+00,-4.067110282064194671e+00,-1.093789020285133251e+00,4.680074558606793778e-01,5.860445881306893812e-01
4.833333333333333037e+00,1.684949223316508532e+09,0.000000000000000000e+00,-2.113679457069610912e+00,0.000000000000000000e+00,-4.227358914139221824e+00,-1.064430650459496031e+00,4.772549587380882641e-01,5.238285834611287051e-01
4.849999999999999645e+00,1.684949223333487988e+09,0.000000000000000000e+00,-2.161754046692119235e+00,0.000000000000000000e+00,-4.323508093384238471e+00,-1.017608268575620034e+00,4.854739485543890787e-01,4.626202217236989322e-01
4.866666666666666252e+00,1.684949223350508451e+09,0.000000000000000000e+00,-2.193803773107124933e+00,0.000000000000000000e+00,-4.387607546214249865e+00,-9.536186244700025627e-01,4.926856646952322838e-01,4.029514656232369152e-01
4.883333333333332860e+00,1.684949223366508245e+09,0.000000000000000000e+00,-2.177778909899621862e+00,0.000000000000000000e+00,-4.355557819799243724e+00,-8.729239748481457672e-01,4.989245019934722691e-01,3.458675802458674453e-01
4.900000000000000355e+00,1.684949223384463549e+09,0.000000000000000000e+00,-2.177778909899621862e+00,0.000000000000000000e+00,-4.355557819799243724e+00,-7.761487430449014457e-01,5.042331923001257543e-01,2.913267623901386050e-01
4.916666666666666963e+00,1.684949223399511099e+09,0.000000000000000000e+00,-2.193803773107124933e+00,0.000000000000000000e+00,-4.387607546214249865e+00,-6.640746156404464529e-01,5.086536685531235502e-01,2.392749796580145860e-01
4.933333333333333570e+00,1.684949223415510893e+09,0.000000000000000000e+00,-2.177778909899621862e+00,0.000000000000000000e+00,-4.355557819799243724e+00,-5.376341146914362934e-01,5.122334818993060646e-01,1.904382825686478098e-01
4.950000000000000178e+00,1.684949223433486462e+09,0.000000000000000000e+00,-2.193803773107124933e+00,0.000000000000000000e+00,-4.387607546214249865e+00,-3.979026994361293257e-01,5.150231820536640415e-01,1.444534745385689378e-01
4.966666666666666785e+00,1.684949223451463223e+09,0.000000000000000000e+00,-2.177778909899621862e+00,0.000000000000000000e+00,-4.355557819799243724e+00,-2.460894659776373394e-01,5.170760020671421042e-01,1.020028482604698611e-01
4.983333333333333393e+00,1.684949223467486858e+09,0.000000000000000000e+00,-2.177778909899621862e+00,0.000000000000000000e+00,-4.355557819799243724e+00,-8.352652749232458707e-02,5.184496282185128146e-01,6.294079815256665988e-02
5.000000000000000000e+00,1.684949223489486933e+09,0.000000000000000000e+00,-1.804183441040312808e+00,6.830914848886073809e-01,-4.291458366969232330e+00,8.834282919454188032e-02,5.192529553451459279e-01,3.354012749517068515e-02
5.016666666666666607e+00,1.684949223501490593e+09,0.000000000000000000e+00,-1.824730789007077636e+00,6.099470625400725821e-01,-4.259408640554227965e+00,2.679771024122014067e-01,5.195923052949524834e-01,7.254882768782826286e-03
5.033333333333333215e+00,1.684949223518494606e+09,0.000000000000000000e+00,-1.690278871304121910e+00,8.147514451159726390e-01,-4.195309187724216571e+00,4.507405847157851531e-01,5.195410123131000146e-01,-1.335279569250368351e-02
5.049999999999999822e+00,1.684949223538491011e+09,0.000000000000000000e+00,-1.609820006720731111e+00,9.756691742827543479e-01,-4.195309187724216571e+00,6.354667772002814408e-01,5.191857318587931314e-01,-2.923673573020426492e-02
5.066666666666666430e+00,1.684949223553508520e+09,0.000000000000000000e+00,-2.081629730654605215e+00,0.000000000000000000e+00,-4.163259461309210430e+00,8.203903036653862335e-01,5.185282881035058189e-01,-4.959994909140395813e-02
5.083333333333333037e+00,1.684949223572509050e+09,0.000000000000000000e+00,-2.097654593862108285e+00,0.000000000000000000e+00,-4.195309187724216571e+00,1.003755135915084917e+00,5.175573831160772409e-01,-6.686070173642577608e-02
5.099999999999999645e+00,1.684949223586463213e+09,0.000000000000000000e+00,-2.097654593862108285e+00,0.000000000000000000e+00,-4.195309187724216571e+00,1.183830683814995011e+00,5.163260551061946702e-01,-8.085977222732845804e-02
5.116666666666666252e+00,1.684949223604488611e+09,0.000000000000000000e+00,-2.097654593862108285e+00,0.000000000000000000e+00,-4.195309187724216571e+00,1.358927511634461904e+00,5.148875272746251675e-01,-9.173336243288635061e-02
5.133333333333332860e+00,1.684949223621510983e+09,0.000000000000000000e+00,-2.097654593862108285e+00,0.000000000000000000e+00,-4.195309187724216571e+00,1.527412536886832317e+00,5.132925460410914242e-01,-9.964241548227392720e-02
5.150000000000000355e+00,1.684949223638530254e+09,0.000000000000000000e+00,-2.097654593862108285e+00,0.000000000000000000e+00,-4.195309187724216571e+00,1.687723574001451343e+00,5.115889818995250637e-01,-1.047710350050518324e-01
5.166666666666666963e+00,1.684949223657488346e+09,0.000000000000000000e+00,-2.097654593862108285e+00,0.000000000000000000e+00,-4.195309187724216571e+00,1.838383092551580500e+00,5.098214583012767864e-01,-1.073247030953123765e-01
5.183333333333333570e+00,1.684949223673513651e+09,0.000000000000000000e+00,-1.814624389296633833e+00,5.660604091309491270e-01,-4.195309187724216571e+00,1.978011068338643597e+00,5.080701040408662772e-01,-1.028502375175349981e-01
5.200000000000000178e+00,1.684949223691514492e+09,0.000000000000000000e+00,-2.097654593862108285e+00,0.000000000000000000e+00,-4.195309187724216571e+00,2.105336815306661613e+00,5.063712002139584278e-01,-1.010232966665512155e-01
5.216666666666666785e+00,1.684949223705488205e+09,0.000000000000000000e+00,-2.097654593862108285e+00,0.000000000000000000e+00,-4.195309187724216571e+00,2.219209696927175290e+00,5.047182212424803360e-01,-9.734439931065538842e-02
5.233333333333333393e+00,1.684949223723489046e+09,0.000000000000000000e+00,-1.814624389296633833e+00,5.660604091309491270e-01,-4.195309187724216571e+00,2.318608627244359788e+00,5.031788703987265521e-01,-8.740531116777283671e-02
5.250000000000000000e+00,1.684949223742488146e+09,0.000000000000000000e+00,-2.097654593862108285e+00,0.000000000000000000e+00,-4.195309187724216571e+00,2.402650284084026922e+00,5.017763138347057783e-01,-8.091949310005339124e-02
5.266666666666666607e+00,1.684949223759486914e+09,0.000000000000000000e+00,-2.081629730654605215e+00,0.000000000000000000e+00,-4.163259461309210430e+00,2.470595969882330767e+00,5.004925564681801387e-01,-7.315296507973230444e-02
5.283333333333333215e+00,1.684949223776490688e+09,0.000000000000000000e+00,-1.756108851417804706e+00,6.830914848886073809e-01,-4.195309187724216571e+00,2.521857069050992273e+00,4.993892098334617446e-01,-5.928714815112747644e-02
5.299999999999999822e+00,1.684949223791495085e+09,0.000000000000000000e+00,-1.748794409182951037e+00,6.977203693583143851e-01,-4.195309187724216571e+00,2.555999064629533191e+00,4.985207709778770035e-01,-4.496529837143301706e-02
5.316666666666666430e+00,1.684949223809486389e+09,0.000000000000000000e+00,-2.081629730654605215e+00,0.000000000000000000e+00,-4.163259461309210430e+00,2.572744091045247039e+00,4.978453929283096491e-01,-3.610468098202163079e-02
5.333333333333333037e+00,1.684949223828464031e+09,0.000000000000000000e+00,-2.081629730654605215e+00,0.000000000000000000e+00,-4.163259461309210430e+00,2.571972013968740534e+00,4.973163613626664370e-01,-2.740327802780947314e-02
5.349999999999999645e+00,1.684949223845486403e+09,0.000000000000000000e+00,-2.081629730654605215e+00,0.000000000000000000e+00,-4.163259461309210430e+00,2.553720042378743837e+00,4.969286303660523929e-01,-1.914737516912645710e-02
5.366666666666666252e+00,1.684949223860488892e+09,0.000000000000000000e+00,-2.065604867447103032e+00,0.000000000000000000e+00,-4.131209734894206065e+00,2.518180891897297435e+00,4.966746621178987353e-01,-1.135047318013625295e-02
5.383333333333332860e+00,1.684949223877487659e+09,0.000000000000000000e+00,-2.065604867447103032e+00,0.000000000000000000e+00,-4.131209734894206065e+00,2.465699532090112278e+00,4.965423165726318699e-01,-4.549883224152567393e-03
5.400000000000000355e+00,1.684949223896494865e+09,0.000000000000000000e+00,-2.065604867447103032e+00,0.000000000000000000e+00,-4.131209734894206065e+00,2.396768563618112857e+00,4.965128541126601069e-01,9.989741720026739519e-04
5.416666666666666963e+00,1.684949223911486864e+09,0.000000000000000000e+00,-2.065604867447103032e+00,0.000000000000000000e+00,-4.131209734894206065e+00,2.312022283747709572e+00,4.965634009998770027e-01,5.055384223129202187e-03
5.433333333333333570e+00,1.684949223928508043e+09,0.000000000000000000e+00,-2.065604867447103032e+00,0.000000000000000000e+00,-4.131209734894206065e+00,2.212229510662973908e+00,4.966672110202868806e-01,7.395318256317170297e-03
5.450000000000000178e+00,1.684949223946488142e+09,0.000000000000000000e+00,-2.049580004239599962e+00,0.000000000000000000e+00,-4.099160008479199924e+00,2.098285248159505123e+00,4.967961720721039698e-01,8.078111269831851973e-03
5.466666666666666785e+00,1.684949223962486506e+09,0.000000000000000000e+00,-2.033555141032097335e+00,0.000000000000000000e+00,-4.067110282064194671e+00,1.971201282537367261e+00,4.969210791611270994e-01,6.913973205896558824e-03
5.483333333333333393e+00,1.684949223980486155e+09,0.000000000000000000e+00,-2.001505414617091638e+00,0.000000000000000000e+00,-4.003010829234183277e+00,1.832095812755005326e+00,4.970119581477232540e-01,3.999600854932285413e-03
5.500000000000000000e+00,1.684949223997489214e+09,0.000000000000000000e+00,-2.001505414617091638e+00,0.000000000000000000e+00,-4.003010829234183277e+00,1.682182223076042149e+00,4.970339606565576385e-01,-1.344454846252916835e-03
5.516666666666666607e+00,1.684949224015486717e+09,0.000000000000000000e+00,-2.001505414617091638e+00,0.000000000000000000e+00,-4.003010829234183277e+00,1.522757114466230410e+00,4.969456138184625282e-01,-9.235246344005482860e-03
5.533333333333333215e+00,1.684949224029462099e+09,0.000000000000000000e+00,-2.001505414617091638e+00,0.000000000000000000e+00,-4.003010829234183277e+00,1.355187716818623045e+00,4.967036988999817826e-01,-1.976529305549918486e-02
5.549999999999999822e+00,1.684949224049488068e+09,0.000000000000000000e+00,-2.001505414617091638e+00,0.000000000000000000e+00,-4.003010829234183277e+00,1.180898808655676646e+00,4.962636647473214757e-01,-3.300203566886247136e-02
5.566666666666666430e+00,1.684949224064508915e+09,0.000000000000000000e+00,-1.725789652286470854e+00,5.514315246612422339e-01,-4.003010829234183277e+00,1.001359274243707631e+00,4.956181303918555936e-01,-4.443034094744263696e-02
5.583333333333333037e+00,1.684949224080461502e+09,0.000000000000000000e+00,-2.001505414617091638e+00,0.000000000000000000e+00,-4.003010829234183277e+00,8.180684300363717520e-01,4.947203045434480639e-01,-6.325646484204712483e-02
5.599999999999999645e+00,1.684949224098511934e+09,0.000000000000000000e+00,-2.001505414617091638e+00,0.000000000000000000e+00,-4.003010829234183277e+00,6.325422530338171700e-01,4.934856852689500362e-01,-8.483789826060365857e-02
5.616666666666666252e+00,1.684949224117511511e+09,0.000000000000000000e+00,-2.017530277824594265e+00,0.000000000000000000e+00,-4.035060555649188530e+00,4.462996430060319208e-01,4.918664189914994100e-01,-1.094058092301290891e-01
5.633333333333332860e+00,1.684949224133487940e+09,0.000000000000000000e+00,-2.017530277824594265e+00,0.000000000000000000e+00,-4.035060555649188530e+00,2.608488486037032761e-01,4.898154663070877213e-01,-1.366328803660655788e-01
5.650000000000000355e+00,1.684949224150488377e+09,0.000000000000000000e+00,-2.001505414617091638e+00,0.000000000000000000e+00,-4.003010829234183277e+00,7.767418419685051534e-02,4.872914029064500108e-01,-1.661726708057651991e-01
5.666666666666666963e+00,1.684949224168487310e+09,0.000000000000000000e+00,-1.725789652286470854e+00,5.514315246612422339e-01,-4.003010829234183277e+00,-1.017768401151599167e-01,4.842923858493941025e-01,-1.936330952887364842e-01
5.683333333333333570e+00,1.684949224185486794e+09,0.000000000000000000e+00,-2.001505414617091638e+00,0.000000000000000000e+00,-4.003010829234183277e+00,-2.761058584329971199e-01,4.807773274888243464e-01,-2.280782248123348621e-01
5.700000000000000178e+00,1.684949224202488422e+09,0.000000000000000000e+00,-2.001505414617091638e+00,0.000000000000000000e+00,-4.003010829234183277e+00,-4.439753486844185693e-01,4.766697549969159953e-01,-2.647286650421183385e-01
5.716666666666666785e+00,1.684949224220486403e+09,0.000000000000000000e+00,-1.985480551409588790e+00,0.000000000000000000e+00,-3.970961102819177579e+00,-6.041195893690112229e-01,4.719364981712747542e-01,-3.031554105627870532e-01
5.733333333333333393e+00,1.684949224238513708e+09,0.000000000000000000e+00,-1.969455688202086385e+00,0.000000000000000000e+00,-3.938911376404172771e+00,-7.553547794319970254e-01,4.665494277904094766e-01,-3.431818479758231843e-01
5.750000000000000000e+00,1.684949224251462936e+09,0.000000000000000000e+00,-1.953430824994583315e+00,0.000000000000000000e+00,-3.906861649989166629e+00,-8.965882367041779766e-01,4.604834847173467915e-01,-3.846162225977398652e-01
5.766666666666666607e+00,1.684949224271486044e+09,0.000000000000000000e+00,-1.937405961787080910e+00,0.000000000000000000e+00,-3.874811923574161820e+00,-1.026826600501485665e+00,4.537169164447254488e-01,-4.272535303632613024e-01
5.783333333333333215e+00,1.684949224288486719e+09,0.000000000000000000e+00,-1.937405961787080910e+00,0.000000000000000000e+00,-3.874811923574161820e+00,-1.145182974758330863e+00,4.462292680207666784e-01,-4.711423642150593949e-01
5.799999999999999822e+00,1.684949224305509806e+09,0.000000000000000000e+00,-1.544659123698801650e+00,7.854936761765587416e-01,-3.874811923574161820e+00,-1.250882959356309332e+00,4.380558480348743511e-01,-5.095613122800856098e-01
5.816666666666666430e+00,1.684949224322512865e+09,0.000000000000000000e+00,-1.937405961787080910e+00,0.000000000000000000e+00,-3.874811923574161820e+00,-1.343269528988612960e+00,4.291804118238329857e-01,-5.553638009153057942e-01
5.833333333333333037e+00,1.684949224339506388e+09,0.000000000000000000e+00,-1.647061314986752789e+00,5.806892936006561312e-01,-3.874811923574161820e+00,-1.421806730846796096e+00,4.195771820147702336e-01,-5.969083718701355679e-01
5.849999999999999645e+00,1.684949224357511282e+09,0.000000000000000000e+00,-1.937405961787080910e+00,0.000000000000000000e+00,-3.874811923574161820e+00,-1.486082184509063930e+00,4.092383005414423902e-01,-6.436276261684100719e-01
5.866666666666666252e+00,1.684949224373487949e+09,0.000000000000000000e+00,-1.937405961787080910e+00,0.000000000000000000e+00,-3.874811923574161820e+00,-1.535808379522666911e+00,3.981203495096579670e-01,-6.903965808251214531e-01
5.883333333333332860e+00,1.684949224389487743e+09,0.000000000000000000e+00,-1.953430824994583315e+00,0.000000000000000000e+00,-3.906861649989166629e+00,-1.570822778186806712e+00,3.862223260832984284e-01,-7.372361174517850779e-01
5.900000000000000355e+00,1.684949224408487797e+09,0.000000000000000000e+00,-1.629305924495578317e+00,7.123492538280212782e-01,-3.970961102819177579e+00,-1.591086742833625944e+00,3.735920826374093395e-01,-7.782790851280494415e-01
5.916666666666666963e+00,1.684949224422508478e+09,0.000000000000000000e+00,-1.690613419849997356e+00,6.538337159491934836e-01,-4.035060555649188530e+00,-1.596683318357873915e+00,3.602742177817709335e-01,-8.197494992425422566e-01
5.933333333333333570e+00,1.684949224442488432e+09,0.000000000000000000e+00,-1.706638283057500427e+00,6.538337159491934836e-01,-4.067110282064194671e+00,-1.587813911747023798e+00,3.462699189566121882e-01,-8.606527369974589226e-01
5.950000000000000178e+00,1.684949224459487438e+09,0.000000000000000000e+00,-2.017530277824594265e+00,0.000000000000000000e+00,-4.035060555649188530e+00,-1.564793920804975924e+00,3.315497880530049457e-01,-9.056380094043444684e-01
5.966666666666666785e+00,1.684949224478463650e+09,0.000000000000000000e+00,-2.017530277824594265e+00,0.000000000000000000e+00,-4.035060555649188530e+00,-1.528047374045474971e+00,3.160911914489279995e-01,-9.492723736647686872e-01
5.983333333333333393e+00,1.684949224493489504e+09,0.000000000000000000e+00,-2.017530277824594265e+00,0.000000000000000000e+00,-4.035060555649188530e+00,-1.478100652758867817e+00,2.999182809067406641e-01,-9.913599786323057383e-01
6.000000000000000000e+00,1.684949224517486811e+09,0.000000000000000000e+00,-2.017530277824594265e+00,0.000000000000000000e+00,-4.035060555649188530e+00,-1.415575374448465817e+00,2.830583594653982016e-01,-1.031718484728847640e+00
6.016666666666666607e+00,1.684949224528497696e+09,0.000000000000000000e+00,-2.001505414617091638e+00,0.000000000000000000e+00,-4.003010829234183277e+00,-1.341180524109867767e+00,2.655438594087316528e-01,-1.069915416984297041e+00
6.033333333333333215e+00,1.684949224544486761e+09,0.000000000000000000e+00,-2.001505414617091638e+00,0.000000000000000000e+00,-4.003010829234183277e+00,-1.255703926126838788e+00,2.474098256641803495e-01,-1.106068205585478026e+00
6.049999999999999822e+00,1.684949224561460495e+09,0.000000000000000000e+00,-1.985480551409588790e+00,0.000000000000000000e+00,-3.970961102819177579e+00,-1.160003154823649574e+00,2.286936704845299873e-01,-1.139776778843048399e+00
6.066666666666666430e+00,1.684949224578464746e+09,0.000000000000000000e+00,-1.627909945757782806e+00,6.830914848886073809e-01,-3.938911376404172771e+00,-1.054995985903567357e+00,2.094842530685815940e-01,-1.165282460288122435e+00
6.083333333333333037e+00,1.684949224596488476e+09,0.000000000000000000e+00,-1.953430824994583315e+00,0.000000000000000000e+00,-3.906861649989166629e+00,-9.416504940839103277e-01,1.898239580489503031e-01,-1.193873520586466119e+00
6.099999999999999645e+00,1.684949224611489296e+09,0.000000000000000000e+00,-1.632432430517044564e+00,6.099470625400725821e-01,-3.874811923574161820e+00,-8.209749041893170673e-01,1.697520986002985510e-01,-1.214691783382920276e+00
6.116666666666666252e+00,1.684949224628462315e+09,0.000000000000000000e+00,-1.937405961787080910e+00,0.000000000000000000e+00,-3.874811923574161820e+00,-6.940073037779942444e-01,1.493115572658943457e-01,-1.238108129807933944e+00
6.133333333333332860e+00,1.684949224644490004e+09,0.000000000000000000e+00,-1.937405961787080910e+00,0.000000000000000000e+00,-3.874811923574161820e+00,-5.618053250541937826e-01,1.285022375717918552e-01,-1.258952331561186133e+00
6.150000000000000355e+00,1.684949224661506653e+09,0.000000000000000000e+00,-1.921381098579577840e+00,0.000000000000000000e+00,-3.842762197159155679e+00,-4.254359023783900740e-01,1.073694423014885380e-01,-1.276933152973515728e+00
6.166666666666666963e+00,1.684949224680486441e+09,0.000000000000000000e+00,-1.889331372164572365e+00,0.000000000000000000e+00,-3.778662744329144729e+00,-2.859652091520700212e-01,8.596314068028304556e-02,-1.291781794374254222e+00
6.183333333333333570e+00,1.684949224696486235e+09,0.000000000000000000e+00,-1.857281645749567334e+00,0.000000000000000000e+00,-3.714563291499134667e+00,-1.444488742630271050e-01,6.433538563514967779e-02,-1.303516214662664208e+00
6.200000000000000178e+00,1.684949224712513924e+09,0.000000000000000000e+00,-1.841256782542064263e+00,0.000000000000000000e+00,-3.682513565084128526e+00,-1.922573679323580365e-03,4.253557684838348701e-02,-1.312436061812921162e+00
6.216666666666666785e+00,1.684949224731488943e+09,0.000000000000000000e+00,-1.793182192919556384e+00,0.000000000000000000e+00,-3.586364385839112767e+00,1.406069127669938856e-01,2.061466228627805569e-02,-1.318058068586691833e+00
6.233333333333333393e+00,1.684949224748486519e+09,0.000000000000000000e+00,-1.745107603297047838e+00,0.000000000000000000e+00,-3.490215206594095676e+00,2.821700957933076515e-01,-1.372983010560695910e-03,-1.320452715081582129e+00
6.250000000000000000e+00,1.684949224763509750e+09,0.000000000000000000e+00,-1.664983287259534483e+00,0.000000000000000000e+00,-3.329966574519068967e+00,4.218425458964677466e-01,-2.336984989353394979e-02,-1.319174860554660045e+00
6.266666666666666607e+00,1.684949224780488014e+09,0.000000000000000000e+00,-1.488709791977003816e+00,0.000000000000000000e+00,-2.977419583954007631e+00,5.587519689712249216e-01,-4.530233871801060686e-02,-1.312741668780279758e+00
6.283333333333333215e+00,1.684949224797488689e+09,0.000000000000000000e+00,-1.200262254241954984e+00,0.000000000000000000e+00,-2.400524508483909969e+00,6.920845284703442957e-01,-6.707023975775268376e-02,-1.299443396503397796e+00
6.299999999999999822e+00,1.684949224816488504e+09,0.000000000000000000e+00,-9.118147165069054871e-01,0.000000000000000000e+00,-1.823629433013810974e+00,8.210903633724269124e-01,-8.856068082208988501e-02,-1.279465027991302017e+00
6.316666666666666430e+00,1.684949224833508730e+09,0.000000000000000000e+00,-6.554169051868615758e-01,0.000000000000000000e+00,-1.310833810373723152e+00,9.450882607658871448e-01,-1.096683680550256668e-01,-1.253529484832049068e+00
6.333333333333333037e+00,1.684949224849488020e+09,0.000000000000000000e+00,-3.669693674518120785e-01,0.000000000000000000e+00,-7.339387349036241570e-01,1.063469451723548787e+00,-1.302911870784666248e-01,-1.221298331070745924e+00
6.349999999999999645e+00,1.684949224865509987e+09,0.000000000000000000e+00,-1.426212825467741974e-01,0.000000000000000000e+00,-2.852425650935483947e-01,1.175700509223968737e+00,-1.503347835098334528e-01,-1.184036747528092626e+00
6.366666666666666252e+00,1.684949224882491350e+09,0.000000000000000000e+00,9.775166556576674048e-02,0.000000000000000000e+00,1.955033311315334810e-01,1.281325337061944847e+00,-1.697147107518768849e-01,-1.141672203575587297e+00
6.383333333333332860e+00,1.684949224901488066e+09,0.000000000000000000e+00,3.381246136783082612e-01,0.000000000000000000e+00,6.762492273566165224e-01,1.379966248873516044e+00,-1.883475889098371048e-01,-1.094404477708430079e+00
6.400000000000000355e+00,1.684949224915488482e+09,0.000000000000000000e+00,4.663235193383302724e-01,0.000000000000000000e+00,9.326470386766605447e-01,1.471324146467788641e+00,-2.061688749833420209e-01,-1.044289063871489898e+00
6.416666666666666963e+00,1.684949224934489250e+09,0.000000000000000000e+00,5.624726985833461423e-01,0.000000000000000000e+00,1.124945397166692285e+00,1.555177816505515676e+00,-2.231369640421707601e-01,-9.920267995611801171e-01
6.433333333333333570e+00,1.684949224953461885e+09,0.000000000000000000e+00,6.425970146208608291e-01,0.000000000000000000e+00,1.285194029241721658e+00,1.631382374084297648e+00,-2.392196416304907536e-01,-9.380444654944408711e-01
6.450000000000000178e+00,1.684949224976461172e+09,0.000000000000000000e+00,6.746467410358656380e-01,0.000000000000000000e+00,1.349293482071731276e+00,1.699866890886430504e+00,-2.543961838781118590e-01,-8.832926960481148893e-01
6.466666666666666785e+00,1.684949224985460997e+09,0.000000000000000000e+00,7.066964674508705579e-01,0.000000000000000000e+00,1.413392934901741116e+00,1.760631254119488620e+00,-2.686549394483025988e-01,-8.279118117850848835e-01
6.483333333333333393e+00,1.684949225001489401e+09,0.000000000000000000e+00,7.227213306583742947e-01,0.000000000000000000e+00,1.445442661316748589e+00,1.813742310446053052e+00,-2.819887804284411659e-01,-7.723035767865391588e-01
6.500000000000000000e+00,1.684949225018508673e+09,0.000000000000000000e+00,7.387461938658766991e-01,0.000000000000000000e+00,1.477492387731753398e+00,1.859329356373974562e+00,-2.943949882614698144e-01,-7.165961097828462689e-01
6.516666666666666607e+00,1.684949225036463737e+09,0.000000000000000000e+00,7.547710570733791036e-01,0.000000000000000000e+00,1.509542114146758207e+00,1.897579043090031670e+00,-3.058729362263257201e-01,-6.609123268152669040e-01
6.533333333333333215e+00,1.684949225053508759e+09,0.000000000000000000e+00,8.028456466958876492e-01,0.000000000000000000e+00,1.605691293391775298e+00,1.928729769401606120e+00,-3.164195695734420832e-01,-6.048394365331923872e-01
6.549999999999999822e+00,1.684949225069508791e+09,0.000000000000000000e+00,8.509202363183961948e-01,0.000000000000000000e+00,1.701840472636792390e+00,1.953065641249659201e+00,-3.260293981957059772e-01,-5.484965099514609310e-01
6.566666666666666430e+00,1.684949225088488102e+09,0.000000000000000000e+00,9.150196891484072559e-01,0.000000000000000000e+00,1.830039378296814512e+00,1.970910080122855845e+00,-3.346966420235309436e-01,-4.917304366357815315e-01
6.583333333333333037e+00,1.684949225103508472e+09,0.000000000000000000e+00,9.791191419784182060e-01,0.000000000000000000e+00,1.958238283956836412e+00,1.982619165605670197e+00,-3.424151544746609210e-01,-4.346496190582501140e-01
6.599999999999999645e+00,1.684949225121488333e+09,0.000000000000000000e+00,1.043218594808429156e+00,0.000000000000000000e+00,2.086437189616858312e+00,1.988574799204017696e+00,-3.491805279536778772e-01,-3.773543556790256992e-01
6.616666666666666252e+00,1.684949225138489485e+09,0.000000000000000000e+00,1.075268321223434187e+00,0.000000000000000000e+00,2.150536642446868374e+00,1.989177777500000799e+00,-3.549943840188736210e-01,-3.204663979684393982e-01
6.633333333333332860e+00,1.684949225156489372e+09,0.000000000000000000e+00,1.123342910845942733e+00,0.000000000000000000e+00,2.246685821691885465e+00,1.984840862587029076e+00,-3.598619237792093362e-01,-2.637957953175541492e-01
6.649999999999999467e+00,1.684949225175486088e+09,0.000000000000000000e+00,1.139367774053445137e+00,0.000000000000000000e+00,2.278735548106890274e+00,1.975981936636831859e+00,-3.637917911044491470e-01,-2.079434328141430421e-01
6.666666666666666963e+00,1.684949225192508698e+09,0.000000000000000000e+00,1.155392637260947541e+00,0.000000000000000000e+00,2.310785274521895083e+00,1.963017325370705279e+00,-3.667980773939513717e-01,-1.529636471474466186e-01
6.683333333333333570e+00,1.684949225209489107e+09,0.000000000000000000e+00,1.171417500468451278e+00,0.000000000000000000e+00,2.342835000936902556e+00,1.946355372175065046e+00,-3.688957157529586528e-01,-9.890312757771407837e-02
6.700000000000000178e+00,1.684949225227487087e+09,0.000000000000000000e+00,1.187442363675953683e+00,0.000000000000000000e+00,2.374884727351907365e+00,1.926390340658588940e+00,-3.701003565364208714e-01,-4.580127505534282994e-02
6.716666666666666785e+00,1.684949225244486094e+09,0.000000000000000000e+00,1.187442363675953683e+00,0.000000000000000000e+00,2.374884727351907365e+00,1.903496718642072594e+00,-3.704304629773730873e-01,6.044482757576491450e-03
6.733333333333333393e+00,1.684949225259492159e+09,0.000000000000000000e+00,1.203467226883456087e+00,0.000000000000000000e+00,2.406934453766912174e+00,1.878023990961712242e+00,-3.699049393604705305e-01,5.687714610476006516e-02
6.750000000000000000e+00,1.684949225275487185e+09,0.000000000000000000e+00,1.203467226883456087e+00,0.000000000000000000e+00,2.406934453766912174e+00,1.850291942119309585e+00,-3.685430560850307402e-01,1.064112489793663519e-01
6.766666666666666607e+00,1.684949225293463707e+09,0.000000000000000000e+00,1.219492090090958492e+00,0.000000000000000000e+00,2.438984180181916983e+00,1.820586542801918339e+00,-3.663643356658263239e-01,1.549005057750432179e-01
6.783333333333333215e+00,1.684949225313487053e+09,0.000000000000000000e+00,1.235516953298460896e+00,0.000000000000000000e+00,2.471033906596921792e+00,1.789156466702416015e+00,-3.633862861027287172e-01,2.023336798786268820e-01
6.799999999999999822e+00,1.684949225328463554e+09,0.000000000000000000e+00,1.251541816505964633e+00,0.000000000000000000e+00,2.503083633011929265e+00,1.756210275987520220e+00,-3.596265723137782588e-01,2.487031676312345119e-01
6.816666666666666430e+00,1.684949225345474958e+09,0.000000000000000000e+00,1.251541816505964633e+00,0.000000000000000000e+00,2.503083633011929265e+00,1.721914305273949619e+00,-3.551051752823241037e-01,2.937393726294456053e-01
6.833333333333333037e+00,1.684949225362474203e+09,0.000000000000000000e+00,1.251541816505964633e+00,0.000000000000000000e+00,2.503083633011929265e+00,1.686391265184312926e+00,-3.498443017173613612e-01,3.374440504259875184e-01
6.849999999999999645e+00,1.684949225382509232e+09,0.000000000000000000e+00,1.251541816505964633e+00,0.000000000000000000e+00,2.503083633011929265e+00,1.649719577560746275e+00,-3.438661184794868930e-01,3.798202237558915839e-01
6.866666666666666252e+00,1.684949225398488998e+09,0.000000000000000000e+00,1.251541816505964633e+00,0.000000000000000000e+00,2.503083633011929265e+00,1.611933445318585623e+00,-3.371927377437583528e-01,4.208714307172388702e-01
6.883333333333332860e+00,1.684949225414508820e+09,0.000000000000000000e+00,1.251541816505964633e+00,0.000000000000000000e+00,2.503083633011929265e+00,1.573023650827457764e+00,-3.298462144787595030e-01,4.606009985744637381e-01
6.899999999999999467e+00,1.684949225431487799e+09,0.000000000000000000e+00,1.251541816505964633e+00,0.000000000000000000e+00,2.503083633011929265e+00,1.532939067714476522e+00,-3.218485557198305647e-01,4.990113545525421412e-01
6.916666666666666963e+00,1.684949225447485924e+09,0.000000000000000000e+00,1.251541816505964633e+00,0.000000000000000000e+00,2.503083633011929265e+00,1.491588862195729392e+00,-3.132217409298191368e-01,5.361033844075590027e-01
6.933333333333333570e+00,1.684949225465487242e+09,0.000000000000000000e+00,1.251541816505964633e+00,0.000000000000000000e+00,2.503083633011929265e+00,1.448845351556414585e+00,-3.039877525669127944e-01,5.718758488456923139e-01
6.950000000000000178e+00,1.684949225483487368e+09,0.000000000000000000e+00,1.251541816505964633e+00,0.000000000000000000e+00,2.503083633011929265e+00,1.404547479310322755e+00,-2.941686158182265642e-01,6.063248670272775032e-01
6.966666666666666785e+00,1.684949225498486042e+09,0.000000000000000000e+00,1.251541816505964633e+00,0.000000000000000000e+00,2.503083633011929265e+00,1.358504858969338258e+00,-2.837864463117896197e-01,6.394434754454290104e-01
6.983333333333333393e+00,1.684949225514508724e+09,0.000000000000000000e+00,1.235516953298460896e+00,0.000000000000000000e+00,2.471033906596921792e+00,1.310502331325228420e+00,-2.728657178522757021e-01,6.709564017296432148e-01
7.000000000000000000e+00,1.684949225534487486e+09,0.000000000000000000e+00,1.251541816505964633e+00,0.000000000000000000e+00,2.503083633011929265e+00,1.260304973769361458e+00,-2.614288464577644300e-01,7.013836435063873775e-01
7.016666666666666607e+00,1.684949225552461386e+09,0.000000000000000000e+00,1.235516953298460896e+00,0.000000000000000000e+00,2.471033906596921792e+00,1.207663494523034009e+00,-2.494985412222728849e-01,7.301730124012540957e-01
7.033333333333333215e+00,1.684949225567518473e+09,0.000000000000000000e+00,1.235516953298460896e+00,0.000000000000000000e+00,2.471033906596921792e+00,1.152319939783149394e+00,-2.371000336532592123e-01,7.575717863836005650e-01
7.049999999999999822e+00,1.684949225587460995e+09,0.000000000000000000e+00,1.235516953298460896e+00,0.000000000000000000e+00,2.471033906596921792e+00,1.094013637761843905e+00,-2.242567174790684181e-01,7.835539800604148786e-01
7.066666666666666430e+00,1.684949225602519274e+09,0.000000000000000000e+00,1.219492090090958492e+00,0.000000000000000000e+00,2.438984180181916983e+00,1.032487300458945434e+00,-2.109946648276627146e-01,8.078249172515076237e-01
7.083333333333333037e+00,1.684949225620489120e+09,0.000000000000000000e+00,1.203467226883456087e+00,0.000000000000000000e+00,2.406934453766912174e+00,9.674932017868238532e-01,-1.973426392498017490e-01,8.303555654848179257e-01
7.099999999999999645e+00,1.684949225635486603e+09,0.000000000000000000e+00,1.203467226883456087e+00,0.000000000000000000e+00,2.406934453766912174e+00,8.987993493978304604e-01,-1.833277028415966070e-01,8.513784053479676039e-01
7.116666666666666252e+00,1.684949225651487112e+09,0.000000000000000000e+00,1.203467226883456087e+00,0.000000000000000000e+00,2.406934453766912174e+00,8.261955672548431107e-01,-1.689753175247541150e-01,8.708537332667634079e-01
7.133333333333332860e+00,1.684949225669506788e+09,0.000000000000000000e+00,1.203467226883456087e+00,0.000000000000000000e+00,2.406934453766912174e+00,7.494994066451680093e-01,-1.543116266632473810e-01,8.887394862974004051e-01
7.149999999999999467e+00,1.684949225687506676e+09,0.000000000000000000e+00,1.187442363675953683e+00,0.000000000000000000e+00,2.374884727351907365e+00,6.685618049569628241e-01,-1.393657028110626417e-01,9.047269652557642372e-01
7.166666666666666963e+00,1.684949225703517914e+09,0.000000000000000000e+00,1.657856108872031609e+00,1.004926943222168134e+00,2.310785274521895083e+00,5.832724141015628305e-01,-1.241023356068220451e-01,9.268157401010835850e-01
7.183333333333333570e+00,1.684949225719487906e+09,0.000000000000000000e+00,1.444675853869357374e+00,7.708647917068517375e-01,2.118486916031863121e+00,4.935645239459370281e-01,-1.085157081295044790e-01,9.435331189206875857e-01
7.200000000000000178e+00,1.684949225738486767e+09,0.000000000000000000e+00,1.301848063739628580e+00,7.416070227674378401e-01,1.862089104711819321e+00,3.994195104805985941e-01,-9.268549748643938047e-02,9.560573678479595827e-01
7.216666666666666785e+00,1.684949225755489349e+09,0.000000000000000000e+00,7.387461938658766991e-01,0.000000000000000000e+00,1.477492387731753398e+00,3.008707436425311355e-01,-7.673966673285140261e-02,9.574384860528450947e-01
7.233333333333333393e+00,1.684949225770511150e+09,0.000000000000000000e+00,5.784975617908497680e-01,0.000000000000000000e+00,1.156995123581699536e+00,1.980068956844931449e-01,-6.080734933027864830e-02,9.544479096081947000e-01
7.250000000000000000e+00,1.684949225790509701e+09,0.000000000000000000e+00,6.329917452378989173e-01,6.538337159491934836e-01,6.121497745266043511e-01,9.097459766526422298e-02,-4.493171839913903676e-02,9.506383843921077936e-01
7.266666666666666607e+00,1.684949225807490110e+09,0.000000000000000000e+00,4.452158715071284356e-01,7.269781382977282824e-01,1.634536047165285888e-01,-2.001960103956407222e-02,-2.916031965289297978e-02,9.419535901536544298e-01
7.283333333333333215e+00,1.684949225823509455e+09,0.000000000000000000e+00,-2.227455985842876351e-01,0.000000000000000000e+00,-4.454911971685752703e-01,-1.347080074235484926e-01,-1.364056792063265793e-02,9.204762783212635524e-01
7.299999999999999822e+00,1.684949225840487957e+09,0.000000000000000000e+00,-5.592677259418450397e-01,0.000000000000000000e+00,-1.118535451883690079e+00,-2.527613225901975680e-01,1.461408884506503608e-03,8.918404840405903533e-01
7.316666666666666430e+00,1.684949225859509230e+09,0.000000000000000000e+00,-9.919390325444189527e-01,0.000000000000000000e+00,-1.983878065088837905e+00,-3.737889626660204634e-01,1.601360046703388315e-02,8.545261592045556576e-01
7.333333333333333037e+00,1.684949225873508692e+09,0.000000000000000000e+00,-1.264361707071965935e+00,0.000000000000000000e+00,-2.528723414143931869e+00,-4.973401739746661221e-01,2.989434839810121980e-02,8.112837132560444253e-01
7.349999999999999645e+00,1.684949225891485929e+09,0.000000000000000000e+00,-1.520759518392009291e+00,0.000000000000000000e+00,-3.041519036784018581e+00,-6.229059443452334976e-01,4.300760456441257706e-02,7.624426993774456873e-01
7.366666666666666252e+00,1.684949225908488512e+09,0.000000000000000000e+00,-1.825231919334561859e+00,0.000000000000000000e+00,-3.650463838669123717e+00,-7.499217031252959353e-01,5.525399241803341521e-02,7.072770844828272230e-01
7.383333333333332860e+00,1.684949225928488255e+09,0.000000000000000000e+00,-2.097654593862108285e+00,0.000000000000000000e+00,-4.195309187724216571e+00,-8.777707931836631339e-01,6.653328712315055571e-02,6.464073666602805357e-01
7.399999999999999467e+00,1.684949225944509506e+09,0.000000000000000000e+00,-2.241878362729632812e+00,0.000000000000000000e+00,-4.483756725459265624e+00,-1.005788689021221316e+00,7.676889173245332598e-02,5.820439778551301790e-01
7.416666666666666963e+00,1.684949225958510637e+09,0.000000000000000000e+00,-2.322002678767146833e+00,0.000000000000000000e+00,-4.644005357534293665e+00,-1.133267926163518791e+00,8.591198879202743832e-02,5.153130373800449693e-01
7.433333333333333570e+00,1.684949225976509809e+09,0.000000000000000000e+00,-2.354052405182152530e+00,0.000000000000000000e+00,-4.708104810364305060e+00,-1.259463698384587271e+00,9.393026347391381092e-02,4.470694943053795667e-01
7.450000000000000178e+00,1.684949225994509697e+09,0.000000000000000000e+00,-2.370077268389654712e+00,0.000000000000000000e+00,-4.740154536779309424e+00,-1.383600071106150464e+00,1.008012124636005202e-01,3.776372563240961155e-01
7.466666666666666785e+00,1.684949226011513948e+09,0.000000000000000000e+00,-2.370077268389654712e+00,0.000000000000000000e+00,-4.740154536779309424e+00,-1.504876751621228692e+00,1.065077967066608566e-01,3.073481050808544168e-01
7.483333333333333393e+00,1.684949226028509140e+09,0.000000000000000000e+00,-2.370077268389654712e+00,0.000000000000000000e+00,-4.740154536779309424e+00,-1.622476349693750874e+00,1.110363605531445585e-01,2.362769809329806348e-01
7.500000000000000000e+00,1.684949226045509100e+09,0.000000000000000000e+00,-2.370077268389654712e+00,0.000000000000000000e+00,-4.740154536779309424e+00,-1.735572055668424873e+00,1.143746012076193863e-01,1.645112515442044843e-01
7.516666666666666607e+00,1.684949226063462496e+09,0.000000000000000000e+00,-2.370077268389654712e+00,0.000000000000000000e+00,-4.740154536779309424e+00,-1.843335657561075980e+00,1.165117743281691431e-01,9.215052965780921868e-02
7.533333333333333215e+00,1.684949226078509569e+09,0.000000000000000000e+00,-2.370077268389654712e+00,0.000000000000000000e+00,-4.740154536779309424e+00,-1.944945813755096786e+00,1.174388954708177890e-01,1.930635714608137932e-02
7.549999999999999822e+00,1.684949226096463203e+09,0.000000000000000000e+00,-2.370077268389654712e+00,0.000000000000000000e+00,-4.740154536779309424e+00,-2.039596493964439095e+00,1.171489351458802897e-01,-5.389824523488268015e-02
7.566666666666666430e+00,1.684949226111490011e+09,0.000000000000000000e+00,-2.370077268389654712e+00,0.000000000000000000e+00,-4.740154536779309424e+00,-2.126505498083143042e+00,1.156370052557872674e-01,-1.273293614526696260e-01
7.583333333333333037e+00,1.684949226130461693e+09,0.000000000000000000e+00,-2.354052405182152530e+00,0.000000000000000000e+00,-4.708104810364305060e+00,-2.204922960468528981e+00,1.129027480742125777e-01,-2.005780270319396097e-01
7.599999999999999645e+00,1.684949226148509979e+09,0.000000000000000000e+00,-2.354052405182152530e+00,0.000000000000000000e+00,-4.708104810364305060e+00,-2.274139746125282358e+00,1.089482366849167522e-01,-2.737600514977677202e-01
7.616666666666666252e+00,1.684949226164509773e+09,0.000000000000000000e+00,-2.354052405182152530e+00,0.000000000000000000e+00,-4.708104810364305060e+00,-2.333495645190608592e+00,1.037759345591962729e-01,-3.467135502115932799e-01
7.633333333333332860e+00,1.684949226181487799e+09,0.000000000000000000e+00,-2.338027541974649459e+00,0.000000000000000000e+00,-4.676055083949298918e+00,-2.382387273074217937e+00,9.739327758795278400e-02,-4.190044734911642088e-01
7.649999999999999467e+00,1.684949226200508595e+09,0.000000000000000000e+00,-2.305977815559643762e+00,0.000000000000000000e+00,-4.611955631119287524e+00,-2.420275585575945243e+00,8.981495032535399825e-02,-4.901970362474918907e-01
7.666666666666666963e+00,1.684949226216509104e+09,0.000000000000000000e+00,-2.273928089144638065e+00,0.000000000000000000e+00,-4.547856178289276130e+00,-2.446692921276266475e+00,8.106069145105659901e-02,-5.601197942135428542e-01
7.683333333333333570e+00,1.684949226235465527e+09,0.000000000000000000e+00,-2.257903225937135883e+00,0.000000000000000000e+00,-4.515806451874271765e+00,-2.461249487443141870e+00,7.115091384546462505e-02,-6.288625618309555687e-01
7.700000000000000178e+00,1.684949226249479294e+09,0.000000000000000000e+00,-2.241878362729632812e+00,0.000000000000000000e+00,-4.483756725459265624e+00,-2.463639210589294137e+00,6.010680152396189607e-02,-6.962437423981016060e-01
7.716666666666666785e+00,1.684949226267509937e+09,0.000000000000000000e+00,-2.241878362729632812e+00,0.000000000000000000e+00,-4.483756725459265624e+00,-2.453644878600062196e+00,4.795035667074250274e-02,-7.623460182337105095e-01
7.733333333333333393e+00,1.684949226285488129e+09,0.000000000000000000e+00,-2.241878362729632812e+00,0.000000000000000000e+00,-4.483756725459265624e+00,-2.431142507976376876e+00,3.470444533824308675e-02,-8.269837880796445662e-01
7.750000000000000000e+00,1.684949226304487467e+09,0.000000000000000000e+00,-2.225853499522130186e+00,0.000000000000000000e+00,-4.451706999044260371e+00,-2.396104877139261458e+00,2.039721841982443384e-02,-8.897092007722491314e-01
7.766666666666666607e+00,1.684949226319462061e+09,0.000000000000000000e+00,-2.241878362729632812e+00,0.000000000000000000e+00,-4.483756725459265624e+00,-2.348604174843039072e+00,5.057579080428786442e-03,-9.508776037257313796e-01
7.783333333333333215e+00,1.684949226337510347e+09,0.000000000000000000e+00,-2.225853499522130186e+00,0.000000000000000000e+00,-4.451706999044260371e+00,-2.288813721466597784e+00,-1.128261338183146091e-02,-1.009781864946616592e+00
7.799999999999999822e+00,1.684949226354513168e+09,0.000000000000000000e+00,-2.209828636314627115e+00,0.000000000000000000e+00,-4.419657272629254230e+00,-2.217008730206268652e+00,-2.858427654183143263e-02,-1.066260824561964915e+00
7.816666666666666430e+00,1.684949226370491505e+09,0.000000000000000000e+00,-2.145729183484616165e+00,0.000000000000000000e+00,-4.291458366969232330e+00,-2.133566084883791625e+00,-4.679907620512102628e-02,-1.119367612704815551e+00
7.833333333333333037e+00,1.684949226387512922e+09,0.000000000000000000e+00,-2.017530277824594265e+00,0.000000000000000000e+00,-4.035060555649188530e+00,-2.038963121112778776e+00,-6.586088036267020995e-02,-1.167914031862889335e+00
7.849999999999999645e+00,1.684949226404489040e+09,0.000000000000000000e+00,-1.825231919334561859e+00,0.000000000000000000e+00,-3.650463838669123717e+00,-1.933775407828477011e+00,-8.568399732587947404e-02,-1.210741037019064104e+00
7.866666666666666252e+00,1.684949226421463728e+09,0.000000000000000000e+00,-1.568834108014517836e+00,0.000000000000000000e+00,-3.137668216029035673e+00,-1.818673536576496108e+00,-1.061636706995122137e-01,-1.246719824388614839e+00
7.883333333333332860e+00,1.684949226437511683e+09,0.000000000000000000e+00,-1.344486023109479511e+00,0.000000000000000000e+00,-2.688972046218959022e+00,-1.694418936363626838e+00,-1.271898719444291004e-01,-1.276342039134916506e+00
7.899999999999999467e+00,1.684949226455495834e+09,0.000000000000000000e+00,-1.072063348581933084e+00,0.000000000000000000e+00,-2.144126697163866169e+00,-1.561858742191895466e+00,-1.486497488974700687e-01,-1.298780863694772636e+00
7.916666666666666963e+00,1.684949226472486734e+09,0.000000000000000000e+00,-7.195163580168725259e-01,0.000000000000000000e+00,-1.439032716033745052e+00,-1.421919755513020966e+00,-1.704124845892842077e-01,-1.312708729895123438e+00
7.933333333333333570e+00,1.684949226487485886e+09,0.000000000000000000e+00,-4.310688202818230841e-01,0.000000000000000000e+00,-8.621376405636461682e-01,-1.275601544650368346e+00,-1.923453775984764191e-01,-1.319220342968134396e+00
7.950000000000000178e+00,1.684949226507511139e+09,0.000000000000000000e+00,-6.249696650926014896e-02,0.000000000000000000e+00,-1.249939330185202979e-01,-1.123968742630488293e+00,-2.143140471783468726e-01,-1.317026101873926436e+00
7.966666666666666785e+00,1.684949226524510145e+09,0.000000000000000000e+00,2.740251608482972556e-01,0.000000000000000000e+00,5.480503216965945112e-01,-9.681426087480726750e-01,-2.361784457554785832e-01,-1.306730327428457628e+00
7.983333333333333393e+00,1.684949226542487860e+09,0.000000000000000000e+00,5.143981089608388180e-01,0.000000000000000000e+00,1.028796217921677636e+00,-8.092919284581689965e-01,-2.578175291826001470e-01,-1.290006140992958183e+00
8.000000000000000000e+00,1.684949226561488152e+09,0.000000000000000000e+00,6.586218778283632336e-01,0.000000000000000000e+00,1.317243755656726467e+00,-6.486233337575271207e-01,-2.791380742367168821e-01,-1.268518953537660865e+00
8.016666666666665719e+00,1.684949226574486732e+09,0.000000000000000000e+00,7.227213306583742947e-01,0.000000000000000000e+00,1.445442661316748589e+00,-4.873711329996965880e-01,-3.000723416381272934e-01,-1.243662182841939190e+00
8.033333333333333215e+00,1.684949226591509819e+09,0.000000000000000000e+00,8.028456466958876492e-01,0.000000000000000000e+00,1.605691293391775298e+00,-3.267867450081826108e-01,-3.205625159512064393e-01,-1.215237693500731631e+00
8.050000000000000711e+00,1.684949226609508991e+09,0.000000000000000000e+00,8.829699627334011147e-01,0.000000000000000000e+00,1.765939925466802229e+00,-1.681278373424374140e-01,-3.405498939219124277e-01,-1.183336280106842997e+00
8.066666666666666430e+00,1.684949226625508785e+09,0.000000000000000000e+00,9.470694155634121758e-01,0.000000000000000000e+00,1.894138831126824352e+00,-1.264727257368902791e-02,-3.599796594069279432e-01,-1.148332812238665346e+00
8.083333333333333925e+00,1.684949226643508196e+09,0.000000000000000000e+00,9.951440051859207214e-01,0.000000000000000000e+00,1.990288010371841443e+00,1.384180306079711986e-01,-3.788033631558956338e-01,-1.110616407893132873e+00
8.099999999999999645e+00,1.684949226660489321e+09,0.000000000000000000e+00,1.043218594808429156e+00,0.000000000000000000e+00,2.086437189616858312e+00,2.838582127427504709e-01,-3.969769412175253032e-01,-1.070324883038983543e+00
8.116666666666667140e+00,1.684949226675486088e+09,0.000000000000000000e+00,1.059243458015931560e+00,0.000000000000000000e+00,2.118486916031863121e+00,4.225014559059800945e-01,-4.144631961144094601e-01,-1.028142879576734225e+00
8.133333333333332860e+00,1.684949226693486691e+09,0.000000000000000000e+00,1.091293184430936591e+00,0.000000000000000000e+00,2.182586368861873183e+00,5.532247237978482612e-01,-4.312297615324292566e-01,-9.839676823549013962e-01
8.150000000000000355e+00,1.684949226710498095e+09,0.000000000000000000e+00,1.107318047638440106e+00,0.000000000000000000e+00,2.214636095276880212e+00,6.749641518971489784e-01,-4.472471470910452385e-01,-9.382455934706922518e-01
8.166666666666666075e+00,1.684949226729487419e+09,0.000000000000000000e+00,1.107318047638440106e+00,0.000000000000000000e+00,2.214636095276880212e+00,7.867249825260100859e-01,-4.624933765309631739e-01,-8.914319801947001576e-01
8.183333333333333570e+00,1.684949226745489120e+09,0.000000000000000000e+00,1.123342910845942733e+00,0.000000000000000000e+00,2.246685821691885465e+00,8.875909433323683206e-01,-4.769496999836342899e-01,-8.434600925057238463e-01
8.199999999999999289e+00,1.684949226763500929e+09,0.000000000000000000e+00,1.123342910845942733e+00,0.000000000000000000e+00,2.246685821691885465e+00,9.767329724259110613e-01,-4.906008055343489827e-01,-7.948077222338115755e-01
8.216666666666666785e+00,1.684949226782486200e+09,0.000000000000000000e+00,1.139367774053445137e+00,0.000000000000000000e+00,2.278735548106890274e+00,1.053417199153347639e+00,-5.034349531110955400e-01,-7.454271584369517312e-01
8.233333333333332504e+00,1.684949226797489405e+09,0.000000000000000000e+00,1.139367774053445137e+00,0.000000000000000000e+00,2.278735548106890274e+00,1.117012096221900785e+00,-5.154441280004237180e-01,-6.958116523763677730e-01
8.250000000000000000e+00,1.684949226813462973e+09,0.000000000000000000e+00,1.139367774053445137e+00,0.000000000000000000e+00,2.278735548106890274e+00,1.166994726513071345e+00,-5.266263270813602571e-01,-6.461900782859892889e-01
8.266666666666665719e+00,1.684949226831491947e+09,0.000000000000000000e+00,1.155392637260947541e+00,0.000000000000000000e+00,2.310785274521895083e+00,1.202956016395155592e+00,-5.369811733306260049e-01,-5.965294211424552184e-01
8.283333333333333215e+00,1.684949226848508596e+09,0.000000000000000000e+00,1.155392637260947541e+00,0.000000000000000000e+00,2.310785274521895083e+00,1.224604996569559567e+00,-5.465122109476328038e-01,-5.473317562949400195e-01
8.300000000000000711e+00,1.684949226863493919e+09,0.000000000000000000e+00,1.171417500468451278e+00,0.000000000000000000e+00,2.342835000936902556e+00,1.231771961372774227e+00,-5.552268794230077464e-01,-4.985639301222113406e-01
8.316666666666666430e+00,1.684949226881508589e+09,0.000000000000000000e+00,1.187442363675953683e+00,0.000000000000000000e+00,2.374884727351907365e+00,1.224410507916191992e+00,-5.631342900375110316e-01,-4.504589716478389905e-01
8.333333333333333925e+00,1.684949226899480104e+09,0.000000000000000000e+00,1.187442363675953683e+00,0.000000000000000000e+00,2.374884727351907365e+00,1.202598427367605582e+00,-5.702496083204244837e-01,-4.035096401808661581e-01
8.349999999999999645e+00,1.684949226917463541e+09,0.000000000000000000e+00,1.187442363675953683e+00,0.000000000000000000e+00,2.374884727351907365e+00,1.166537431958436510e+00,-5.765939031733230413e-01,-3.579323487340611565e-01
8.366666666666667140e+00,1.684949226932489634e+09,0.000000000000000000e+00,1.187442363675953683e+00,0.000000000000000000e+00,2.374884727351907365e+00,1.116551712823575571e+00,-5.821917757128128867e-01,-3.139345749195792123e-01
8.383333333333332860e+00,1.684949226949489355e+09,0.000000000000000000e+00,1.203467226883456087e+00,0.000000000000000000e+00,2.406934453766912174e+00,1.053085335430089309e+00,-5.870689816621454948e-01,-2.714481595983541107e-01
8.400000000000000355e+00,1.684949226968509197e+09,0.000000000000000000e+00,1.203467226883456087e+00,0.000000000000000000e+00,2.406934453766912174e+00,9.766984910104286044e-01,-5.912544995234074729e-01,-2.309265464388607358e-01
8.416666666666666075e+00,1.684949226983508825e+09,0.000000000000000000e+00,1.219492090090958492e+00,0.000000000000000000e+00,2.438984180181916983e+00,8.880626339635395716e-01,-5.947802830974731059e-01,-1.922748507972200926e-01
8.433333333333333570e+00,1.684949227000509739e+09,0.000000000000000000e+00,1.613634906917033485e+00,7.562359072371448443e-01,2.471033906596921792e+00,7.879545465080441957e-01,-5.976265981121307025e-01,-1.494020448921445643e-01
8.449999999999999289e+00,1.684949227017496109e+09,0.000000000000000000e+00,1.686779329265569505e+00,9.025247519342169955e-01,2.471033906596921792e+00,6.772493828452899045e-01,-5.997694758833796991e-01,-1.078586885857146377e-01
8.466666666666666785e+00,1.684949227036486626e+09,0.000000000000000000e+00,1.718829055680575646e+00,9.025247519342169955e-01,2.535133359426934074e+00,5.569127556060329276e-01,-6.012378966027512872e-01,-6.846123767823293627e-02
8.483333333333332504e+00,1.684949227052485943e+09,0.000000000000000000e+00,1.654395054304688362e+00,7.416070227674378401e-01,2.567183085841938883e+00,4.279919372992386783e-01,-6.020818410000821075e-01,-3.291084342083670095e-02
8.500000000000000000e+00,1.684949227070509672e+09,0.000000000000000000e+00,1.658582990518074896e+00,6.538337159491934836e-01,2.663332265086955974e+00,2.916062587540686479e-01,-6.023564482827834521e-01,-1.330819835996047140e-04
8.516666666666665719e+00,1.684949227087495327e+09,0.000000000000000000e+00,1.379740722165986533e+00,0.000000000000000000e+00,2.759481444331973066e+00,1.489367950441959909e-01,-6.021475062330503558e-01,2.513593458683700127e-02
8.533333333333333215e+00,1.684949227100509167e+09,0.000000000000000000e+00,1.475889901411002514e+00,0.000000000000000000e+00,2.951779802822005028e+00,1.215437020379184219e-03,-6.015280272513865434e-01,4.913487791236283153e-02
8.550000000000000711e+00,1.684949227121509790e+09,0.000000000000000000e+00,1.604088807071024414e+00,0.000000000000000000e+00,3.208177614142048828e+00,-1.502865467352461071e-01,-6.005150992597649839e-01,7.235198759300420779e-02
8.566666666666666430e+00,1.684949227139487982e+09,0.000000000000000000e+00,1.700237986316040395e+00,0.000000000000000000e+00,3.400475972632080790e+00,-3.042703470487498896e-01,-5.991264143456263014e-01,9.422942999998697167e-02
8.583333333333333925e+00,1.684949227154489756e+09,0.000000000000000000e+00,1.780362302353555082e+00,0.000000000000000000e+00,3.560724604707110164e+00,-4.594217353198115639e-01,-5.973864898912858434e-01,1.145051816628756269e-01
8.599999999999999645e+00,1.684949227171508551e+09,0.000000000000000000e+00,1.844461755183566032e+00,0.000000000000000000e+00,3.688923510367132064e+00,-6.144233501945265408e-01,-5.953239921914798005e-01,1.329433240462202792e-01
8.616666666666667140e+00,1.684949227188488722e+09,0.000000000000000000e+00,1.876511481598570841e+00,0.000000000000000000e+00,3.753022963197141681e+00,-7.679670289570099673e-01,-5.929735196093643967e-01,1.490685923414641623e-01
8.633333333333332860e+00,1.684949227205511808e+09,0.000000000000000000e+00,1.892536344806073467e+00,0.000000000000000000e+00,3.785072689612146934e+00,-9.187660617892012827e-01,-5.903751348613215377e-01,1.626997123103691434e-01
8.650000000000000355e+00,1.684949227222488642e+09,0.000000000000000000e+00,1.908561208013576982e+00,0.000000000000000000e+00,3.817122416027153964e+00,-1.065567247209883162e+00,-5.875695104084329712e-01,1.739439872042087554e-01
8.666666666666666075e+00,1.684949227239508390e+09,0.000000000000000000e+00,1.908561208013576982e+00,0.000000000000000000e+00,3.817122416027153964e+00,-1.207162628400863191e+00,-5.845975916635414160e-01,1.826620447861957430e-01
8.683333333333333570e+00,1.684949227256508589e+09,0.000000000000000000e+00,1.908561208013576982e+00,0.000000000000000000e+00,3.817122416027153964e+00,-1.342400792744111504e+00,-5.815002552641523881e-01,1.890007153079644453e-01
8.699999999999999289e+00,1.684949227274508715e+09,0.000000000000000000e+00,1.908561208013576982e+00,0.000000000000000000e+00,3.817122416027153964e+00,-1.470197620719938758e+00,-5.783158012180493746e-01,1.931223210500887799e-01
8.716666666666666785e+00,1.684949227290515900e+09,0.000000000000000000e+00,1.924586071221079386e+00,0.000000000000000000e+00,3.849172142442158773e+00,-1.589546375309316861e+00,-5.750774941685860009e-01,1.954680089324881131e-01
8.733333333333332504e+00,1.684949227307489634e+09,0.000000000000000000e+00,1.924586071221079386e+00,0.000000000000000000e+00,3.849172142442158773e+00,-1.699527029170706971e+00,-5.718156068914518331e-01,1.959571056895268726e-01
8.750000000000000000e+00,1.684949227324509382e+09,0.000000000000000000e+00,1.940610934428582013e+00,0.000000000000000000e+00,3.881221868857164026e+00,-1.799314734056912002e+00,-5.685572049214764334e-01,1.950536403924126583e-01
