# 
# 
# 
# 
# 
# 
# 
# 
# 
# 
# time,realtime,ref,inp,dis,state...
0.000000000000000000e+00,1.643935147522957802e+09,0.000000000000000000e+00,0.000000000000000000e+00,0.000000000000000000e+00,5.819813305088545885e-01
1.666666666666666644e-02,1.643935147524952412e+09,0.000000000000000000e+00,5.819813305088545885e-01,0.000000000000000000e+00,5.819813305088545885e-01
3.333333333333333287e-02,1.643935147526992559e+09,0.000000000000000000e+00,0.000000000000000000e+00,0.000000000000000000e+00,0.000000000000000000e+00
5.000000000000000278e-02,1.643935147542168617e+09,0.000000000000000000e+00,0.000000000000000000e+00,0.000000000000000000e+00,0.000000000000000000e+00
6.666666666666666574e-02,1.643935147559333563e+09,0.000000000000000000e+00,0.000000000000000000e+00,0.000000000000000000e+00,0.000000000000000000e+00
8.333333333333332871e-02,1.643935147577283382e+09,0.000000000000000000e+00,0.000000000000000000e+00,0.000000000000000000e+00,0.000000000000000000e+00
1.000000000000000056e-01,1.643935147593245506e+09,0.000000000000000000e+00,0.000000000000000000e+00,0.000000000000000000e+00,0.000000000000000000e+00
1.166666666666666685e-01,1.643935147612192869e+09,0.000000000000000000e+00,5.781756841006805425e-01,0.000000000000000000e+00,5.781756841006805425e-01
1.333333333333333315e-01,1.643935147628520727e+09,0.000000000000000000e+00,6.771224907132085136e-01,0.000000000000000000e+00,6.771224907132085136e-01
1.499999999999999944e-01,1.643935147644432068e+09,0.000000000000000000e+00,7.151789547949503056e-01,0.000000000000000000e+00,7.151789547949503056e-01
1.666666666666666574e-01,1.643935147662430048e+09,0.000000000000000000e+00,9.701572641426191579e-01,0.000000000000000000e+00,9.701572641426191579e-01
1.833333333333333204e-01,1.643935147678768396e+09,0.000000000000000000e+00,1.074812540367408475e+00,0.000000000000000000e+00,1.074812540367408475e+00
2.000000000000000111e-01,1.643935147695714235e+09,0.000000000000000000e+00,1.114771827653237013e+00,0.000000000000000000e+00,1.114771827653237013e+00
2.166666666666666741e-01,1.643935147712667704e+09,0.000000000000000000e+00,1.164245230959501276e+00,0.000000000000000000e+00,1.164245230959501276e+00
2.333333333333333370e-01,1.643935147730269670e+09,0.000000000000000000e+00,1.067201247551060161e+00,0.000000000000000000e+00,1.067201247551060161e+00
2.500000000000000000e-01,1.643935147749191761e+09,0.000000000000000000e+00,1.034853253081579938e+00,0.000000000000000000e+00,1.034853253081579938e+00
2.666666666666666630e-01,1.643935147766172647e+09,0.000000000000000000e+00,1.050075838714276566e+00,0.000000000000000000e+00,1.050075838714276566e+00
2.833333333333333259e-01,1.643935147782149076e+09,0.000000000000000000e+00,1.141411352510456112e+00,0.000000000000000000e+00,1.141411352510456112e+00
2.999999999999999889e-01,1.643935147798106670e+09,0.000000000000000000e+00,1.112869004449150268e+00,0.000000000000000000e+00,1.112869004449150268e+00
3.166666666666666519e-01,1.643935147814064503e+09,0.000000000000000000e+00,9.834770265712288184e-01,0.000000000000000000e+00,9.834770265712288184e-01
3.333333333333333148e-01,1.643935147831018686e+09,0.000000000000000000e+00,1.219427103878026442e+00,0.000000000000000000e+00,1.219427103878026442e+00
3.499999999999999778e-01,1.643935147848969936e+09,0.000000000000000000e+00,1.624728446348574495e+00,0.000000000000000000e+00,1.624728446348574495e+00
3.666666666666666408e-01,1.643935147866691113e+09,0.000000000000000000e+00,1.476308236429782594e+00,0.000000000000000000e+00,1.476308236429782594e+00
3.833333333333333037e-01,1.643935147882779837e+09,0.000000000000000000e+00,1.339304965735512276e+00,0.000000000000000000e+00,1.339304965735512276e+00
4.000000000000000222e-01,1.643935147897908211e+09,0.000000000000000000e+00,1.215621457469852507e+00,0.000000000000000000e+00,1.215621457469852507e+00
4.166666666666666852e-01,1.643935147917828083e+09,0.000000000000000000e+00,1.118577474061411614e+00,0.000000000000000000e+00,1.118577474061411614e+00
4.333333333333333481e-01,1.643935147932054996e+09,0.000000000000000000e+00,1.126188766877759928e+00,0.000000000000000000e+00,1.126188766877759928e+00
4.500000000000000111e-01,1.643935147950009108e+09,0.000000000000000000e+00,1.116674650857324425e+00,0.000000000000000000e+00,1.116674650857324425e+00
4.666666666666666741e-01,1.643935147967952490e+09,0.000000000000000000e+00,1.116674650857324425e+00,0.000000000000000000e+00,1.116674650857324425e+00
4.833333333333333370e-01,1.643935147983304501e+09,0.000000000000000000e+00,1.194690402224894754e+00,0.000000000000000000e+00,1.194690402224894754e+00
5.000000000000000000e-01,1.643935148000490904e+09,0.000000000000000000e+00,1.088132302796018358e+00,0.000000000000000000e+00,1.088132302796018358e+00
5.166666666666666075e-01,1.643935148017104626e+09,0.000000000000000000e+00,1.139508529306369367e+00,0.000000000000000000e+00,1.139508529306369367e+00
5.333333333333333259e-01,1.643935148034059763e+09,0.000000000000000000e+00,1.187079109408546440e+00,0.000000000000000000e+00,1.187079109408546440e+00
5.500000000000000444e-01,1.643935148050016642e+09,0.000000000000000000e+00,1.044367369102015219e+00,0.000000000000000000e+00,1.044367369102015219e+00
5.666666666666666519e-01,1.643935148068967104e+09,0.000000000000000000e+00,0.000000000000000000e+00,0.000000000000000000e+00,0.000000000000000000e+00
5.833333333333333703e-01,1.643935148084317923e+09,0.000000000000000000e+00,0.000000000000000000e+00,0.000000000000000000e+00,0.000000000000000000e+00
5.999999999999999778e-01,1.643935148099274158e+09,0.000000000000000000e+00,0.000000000000000000e+00,0.000000000000000000e+00,0.000000000000000000e+00
6.166666666666666963e-01,1.643935148118042469e+09,0.000000000000000000e+00,0.000000000000000000e+00,0.000000000000000000e+00,0.000000000000000000e+00
6.333333333333333037e-01,1.643935148137989283e+09,0.000000000000000000e+00,0.000000000000000000e+00,0.000000000000000000e+00,0.000000000000000000e+00
6.500000000000000222e-01,1.643935148154000521e+09,0.000000000000000000e+00,0.000000000000000000e+00,0.000000000000000000e+00,0.000000000000000000e+00
6.666666666666666297e-01,1.643935148169903994e+09,0.000000000000000000e+00,0.000000000000000000e+00,0.000000000000000000e+00,0.000000000000000000e+00
6.833333333333333481e-01,1.643935148188077688e+09,0.000000000000000000e+00,0.000000000000000000e+00,0.000000000000000000e+00,0.000000000000000000e+00
6.999999999999999556e-01,1.643935148204974890e+09,0.000000000000000000e+00,0.000000000000000000e+00,0.000000000000000000e+00,0.000000000000000000e+00
7.166666666666666741e-01,1.643935148221739054e+09,0.000000000000000000e+00,0.000000000000000000e+00,0.000000000000000000e+00,0.000000000000000000e+00
7.333333333333332815e-01,1.643935148240873337e+09,0.000000000000000000e+00,0.000000000000000000e+00,0.000000000000000000e+00,0.000000000000000000e+00
7.500000000000000000e-01,1.643935148255833864e+09,0.000000000000000000e+00,0.000000000000000000e+00,0.000000000000000000e+00,0.000000000000000000e+00
7.666666666666666075e-01,1.643935148270708084e+09,0.000000000000000000e+00,0.000000000000000000e+00,0.000000000000000000e+00,0.000000000000000000e+00
7.833333333333333259e-01,1.643935148288984776e+09,0.000000000000000000e+00,0.000000000000000000e+00,0.000000000000000000e+00,0.000000000000000000e+00
8.000000000000000444e-01,1.643935148305588007e+09,0.000000000000000000e+00,0.000000000000000000e+00,0.000000000000000000e+00,0.000000000000000000e+00
8.166666666666666519e-01,1.643935148324604511e+09,0.000000000000000000e+00,0.000000000000000000e+00,0.000000000000000000e+00,0.000000000000000000e+00
8.333333333333333703e-01,1.643935148338476181e+09,0.000000000000000000e+00,0.000000000000000000e+00,0.000000000000000000e+00,0.000000000000000000e+00
8.499999999999999778e-01,1.643935148355702877e+09,0.000000000000000000e+00,0.000000000000000000e+00,0.000000000000000000e+00,0.000000000000000000e+00
8.666666666666666963e-01,1.643935148373184681e+09,0.000000000000000000e+00,5.591474520598097575e-01,0.000000000000000000e+00,5.591474520598097575e-01
8.833333333333333037e-01,1.643935148390143394e+09,0.000000000000000000e+00,0.000000000000000000e+00,0.000000000000000000e+00,0.000000000000000000e+00
9.000000000000000222e-01,1.643935148407433271e+09,0.000000000000000000e+00,6.638027282845989641e-01,0.000000000000000000e+00,6.638027282845989641e-01
9.166666666666666297e-01,1.643935148425389051e+09,0.000000000000000000e+00,5.838841537129415560e-01,0.000000000000000000e+00,5.838841537129415560e-01
9.333333333333333481e-01,1.643935148442685604e+09,0.000000000000000000e+00,0.000000000000000000e+00,0.000000000000000000e+00,0.000000000000000000e+00
9.499999999999999556e-01,1.643935148458643675e+09,0.000000000000000000e+00,0.000000000000000000e+00,0.000000000000000000e+00,0.000000000000000000e+00
9.666666666666666741e-01,1.643935148476005077e+09,0.000000000000000000e+00,0.000000000000000000e+00,0.000000000000000000e+00,0.000000000000000000e+00
9.833333333333332815e-01,1.643935148491950035e+09,0.000000000000000000e+00,0.000000000000000000e+00,0.000000000000000000e+00,0.000000000000000000e+00
1.000000000000000000e+00,1.643935148513952017e+09,0.000000000000000000e+00,0.000000000000000000e+00,0.000000000000000000e+00,0.000000000000000000e+00
1.016666666666666607e+00,1.643935148529934645e+09,0.000000000000000000e+00,0.000000000000000000e+00,0.000000000000000000e+00,0.000000000000000000e+00
1.033333333333333215e+00,1.643935148543899059e+09,0.000000000000000000e+00,0.000000000000000000e+00,0.000000000000000000e+00,0.000000000000000000e+00
1.050000000000000044e+00,1.643935148560045958e+09,0.000000000000000000e+00,0.000000000000000000e+00,0.000000000000000000e+00,0.000000000000000000e+00
1.066666666666666652e+00,1.643935148578000546e+09,0.000000000000000000e+00,0.000000000000000000e+00,0.000000000000000000e+00,0.000000000000000000e+00
1.083333333333333259e+00,1.643935148594931841e+09,0.000000000000000000e+00,0.000000000000000000e+00,0.000000000000000000e+00,0.000000000000000000e+00
1.100000000000000089e+00,1.643935148612344503e+09,0.000000000000000000e+00,0.000000000000000000e+00,0.000000000000000000e+00,0.000000000000000000e+00
1.116666666666666696e+00,1.643935148628437281e+09,0.000000000000000000e+00,0.000000000000000000e+00,0.000000000000000000e+00,0.000000000000000000e+00
1.133333333333333304e+00,1.643935148644581795e+09,0.000000000000000000e+00,0.000000000000000000e+00,0.000000000000000000e+00,0.000000000000000000e+00
1.149999999999999911e+00,1.643935148663565159e+09,0.000000000000000000e+00,0.000000000000000000e+00,0.000000000000000000e+00,0.000000000000000000e+00
1.166666666666666741e+00,1.643935148679640770e+09,0.000000000000000000e+00,0.000000000000000000e+00,0.000000000000000000e+00,0.000000000000000000e+00
1.183333333333333348e+00,1.643935148698582411e+09,0.000000000000000000e+00,0.000000000000000000e+00,0.000000000000000000e+00,0.000000000000000000e+00
1.199999999999999956e+00,1.643935148714539528e+09,0.000000000000000000e+00,0.000000000000000000e+00,0.000000000000000000e+00,0.000000000000000000e+00
1.216666666666666563e+00,1.643935148729910612e+09,0.000000000000000000e+00,0.000000000000000000e+00,0.000000000000000000e+00,0.000000000000000000e+00
1.233333333333333393e+00,1.643935148746867895e+09,0.000000000000000000e+00,0.000000000000000000e+00,0.000000000000000000e+00,0.000000000000000000e+00
1.250000000000000000e+00,1.643935148765815496e+09,0.000000000000000000e+00,0.000000000000000000e+00,0.000000000000000000e+00,0.000000000000000000e+00
1.266666666666666607e+00,1.643935148781752825e+09,0.000000000000000000e+00,0.000000000000000000e+00,0.000000000000000000e+00,0.000000000000000000e+00
1.283333333333333215e+00,1.643935148796866655e+09,0.000000000000000000e+00,0.000000000000000000e+00,0.000000000000000000e+00,0.000000000000000000e+00
1.300000000000000044e+00,1.643935148816535234e+09,0.000000000000000000e+00,0.000000000000000000e+00,0.000000000000000000e+00,0.000000000000000000e+00
1.316666666666666652e+00,1.643935148833489895e+09,0.000000000000000000e+00,0.000000000000000000e+00,0.000000000000000000e+00,0.000000000000000000e+00
1.333333333333333259e+00,1.643935148849480391e+09,0.000000000000000000e+00,5.743700376925063855e-01,0.000000000000000000e+00,5.743700376925063855e-01
1.350000000000000089e+00,1.643935148866441727e+09,0.000000000000000000e+00,0.000000000000000000e+00,0.000000000000000000e+00,0.000000000000000000e+00
1.366666666666666696e+00,1.643935148883356810e+09,0.000000000000000000e+00,0.000000000000000000e+00,0.000000000000000000e+00,0.000000000000000000e+00
1.383333333333333304e+00,1.643935148899348497e+09,0.000000000000000000e+00,0.000000000000000000e+00,0.000000000000000000e+00,0.000000000000000000e+00
1.399999999999999911e+00,1.643935148916309595e+09,0.000000000000000000e+00,0.000000000000000000e+00,0.000000000000000000e+00,0.000000000000000000e+00
1.416666666666666741e+00,1.643935148934255362e+09,0.000000000000000000e+00,0.000000000000000000e+00,0.000000000000000000e+00,0.000000000000000000e+00
1.433333333333333348e+00,1.643935148951230526e+09,0.000000000000000000e+00,0.000000000000000000e+00,0.000000000000000000e+00,0.000000000000000000e+00
1.449999999999999956e+00,1.643935148967179775e+09,0.000000000000000000e+00,0.000000000000000000e+00,0.000000000000000000e+00,0.000000000000000000e+00
1.466666666666666563e+00,1.643935148985084534e+09,0.000000000000000000e+00,0.000000000000000000e+00,0.000000000000000000e+00,0.000000000000000000e+00
1.483333333333333393e+00,1.643935149003062248e+09,0.000000000000000000e+00,0.000000000000000000e+00,0.000000000000000000e+00,0.000000000000000000e+00
1.500000000000000000e+00,1.643935149019992352e+09,0.000000000000000000e+00,0.000000000000000000e+00,0.000000000000000000e+00,0.000000000000000000e+00
1.516666666666666607e+00,1.643935149036287069e+09,0.000000000000000000e+00,0.000000000000000000e+00,0.000000000000000000e+00,0.000000000000000000e+00
1.533333333333333215e+00,1.643935149054954052e+09,0.000000000000000000e+00,0.000000000000000000e+00,0.000000000000000000e+00,0.000000000000000000e+00
1.550000000000000044e+00,1.643935149071882963e+09,0.000000000000000000e+00,0.000000000000000000e+00,0.000000000000000000e+00,0.000000000000000000e+00
1.566666666666666652e+00,1.643935149089857817e+09,0.000000000000000000e+00,0.000000000000000000e+00,0.000000000000000000e+00,0.000000000000000000e+00
1.583333333333333259e+00,1.643935149102118731e+09,0.000000000000000000e+00,0.000000000000000000e+00,0.000000000000000000e+00,0.000000000000000000e+00
1.600000000000000089e+00,1.643935149122420788e+09,0.000000000000000000e+00,0.000000000000000000e+00,0.000000000000000000e+00,0.000000000000000000e+00
1.616666666666666696e+00,1.643935149141324282e+09,0.000000000000000000e+00,0.000000000000000000e+00,0.000000000000000000e+00,0.000000000000000000e+00
1.633333333333333304e+00,1.643935149157456875e+09,0.000000000000000000e+00,0.000000000000000000e+00,0.000000000000000000e+00,0.000000000000000000e+00
1.649999999999999911e+00,1.643935149172645569e+09,0.000000000000000000e+00,0.000000000000000000e+00,0.000000000000000000e+00,0.000000000000000000e+00
1.666666666666666741e+00,1.643935149190210104e+09,0.000000000000000000e+00,0.000000000000000000e+00,0.000000000000000000e+00,0.000000000000000000e+00
1.683333333333333348e+00,1.643935149205204725e+09,0.000000000000000000e+00,0.000000000000000000e+00,0.000000000000000000e+00,0.000000000000000000e+00
1.699999999999999956e+00,1.643935149222286940e+09,0.000000000000000000e+00,0.000000000000000000e+00,0.000000000000000000e+00,0.000000000000000000e+00
1.716666666666666563e+00,1.643935149238586664e+09,0.000000000000000000e+00,0.000000000000000000e+00,0.000000000000000000e+00,0.000000000000000000e+00
1.733333333333333393e+00,1.643935149254575014e+09,0.000000000000000000e+00,0.000000000000000000e+00,0.000000000000000000e+00,0.000000000000000000e+00
1.750000000000000000e+00,1.643935149272546053e+09,0.000000000000000000e+00,0.000000000000000000e+00,0.000000000000000000e+00,0.000000000000000000e+00
1.766666666666666607e+00,1.643935149291494608e+09,0.000000000000000000e+00,0.000000000000000000e+00,0.000000000000000000e+00,0.000000000000000000e+00
1.783333333333333215e+00,1.643935149307452440e+09,0.000000000000000000e+00,0.000000000000000000e+00,0.000000000000000000e+00,0.000000000000000000e+00
1.800000000000000044e+00,1.643935149323759317e+09,0.000000000000000000e+00,0.000000000000000000e+00,0.000000000000000000e+00,0.000000000000000000e+00
1.816666666666666652e+00,1.643935149341943979e+09,0.000000000000000000e+00,0.000000000000000000e+00,0.000000000000000000e+00,0.000000000000000000e+00
1.833333333333333259e+00,1.643935149360270739e+09,0.000000000000000000e+00,0.000000000000000000e+00,0.000000000000000000e+00,0.000000000000000000e+00
1.849999999999999867e+00,1.643935149377248287e+09,0.000000000000000000e+00,0.000000000000000000e+00,0.000000000000000000e+00,0.000000000000000000e+00
1.866666666666666696e+00,1.643935149395201445e+09,0.000000000000000000e+00,0.000000000000000000e+00,0.000000000000000000e+00,0.000000000000000000e+00
1.883333333333333304e+00,1.643935149410355806e+09,0.000000000000000000e+00,0.000000000000000000e+00,0.000000000000000000e+00,0.000000000000000000e+00
1.899999999999999911e+00,1.643935149426120520e+09,0.000000000000000000e+00,0.000000000000000000e+00,0.000000000000000000e+00,0.000000000000000000e+00
1.916666666666666741e+00,1.643935149444459438e+09,0.000000000000000000e+00,0.000000000000000000e+00,0.000000000000000000e+00,0.000000000000000000e+00
1.933333333333333348e+00,1.643935149461728096e+09,0.000000000000000000e+00,0.000000000000000000e+00,0.000000000000000000e+00,0.000000000000000000e+00
1.949999999999999956e+00,1.643935149476913214e+09,0.000000000000000000e+00,0.000000000000000000e+00,0.000000000000000000e+00,0.000000000000000000e+00
1.966666666666666563e+00,1.643935149494102716e+09,0.000000000000000000e+00,0.000000000000000000e+00,0.000000000000000000e+00,0.000000000000000000e+00
1.983333333333333393e+00,1.643935149511405230e+09,0.000000000000000000e+00,0.000000000000000000e+00,0.000000000000000000e+00,0.000000000000000000e+00
2.000000000000000000e+00,1.643935149530728340e+09,0.000000000000000000e+00,0.000000000000000000e+00,0.000000000000000000e+00,0.000000000000000000e+00
2.016666666666666607e+00,1.643935149545885324e+09,0.000000000000000000e+00,0.000000000000000000e+00,0.000000000000000000e+00,0.000000000000000000e+00
2.033333333333333215e+00,1.643935149562017918e+09,0.000000000000000000e+00,0.000000000000000000e+00,0.000000000000000000e+00,0.000000000000000000e+00
2.049999999999999822e+00,1.643935149579022408e+09,0.000000000000000000e+00,0.000000000000000000e+00,0.000000000000000000e+00,0.000000000000000000e+00
2.066666666666666430e+00,1.643935149596973419e+09,0.000000000000000000e+00,0.000000000000000000e+00,0.000000000000000000e+00,0.000000000000000000e+00
2.083333333333333481e+00,1.643935149613924503e+09,0.000000000000000000e+00,0.000000000000000000e+00,0.000000000000000000e+00,0.000000000000000000e+00
2.100000000000000089e+00,1.643935149630985260e+09,0.000000000000000000e+00,0.000000000000000000e+00,0.000000000000000000e+00,0.000000000000000000e+00
2.116666666666666696e+00,1.643935149648570299e+09,0.000000000000000000e+00,0.000000000000000000e+00,0.000000000000000000e+00,0.000000000000000000e+00
2.133333333333333304e+00,1.643935149666522026e+09,0.000000000000000000e+00,0.000000000000000000e+00,0.000000000000000000e+00,0.000000000000000000e+00
2.149999999999999911e+00,1.643935149683477163e+09,0.000000000000000000e+00,0.000000000000000000e+00,0.000000000000000000e+00,0.000000000000000000e+00
2.166666666666666519e+00,1.643935149698437214e+09,0.000000000000000000e+00,0.000000000000000000e+00,0.000000000000000000e+00,0.000000000000000000e+00
2.183333333333333126e+00,1.643935149719080448e+09,0.000000000000000000e+00,0.000000000000000000e+00,0.000000000000000000e+00,0.000000000000000000e+00
2.200000000000000178e+00,1.643935149734694004e+09,0.000000000000000000e+00,0.000000000000000000e+00,0.000000000000000000e+00,0.000000000000000000e+00
2.216666666666666785e+00,1.643935149750026464e+09,0.000000000000000000e+00,0.000000000000000000e+00,0.000000000000000000e+00,0.000000000000000000e+00
2.233333333333333393e+00,1.643935149768210888e+09,0.000000000000000000e+00,0.000000000000000000e+00,0.000000000000000000e+00,0.000000000000000000e+00
2.250000000000000000e+00,1.643935149782619715e+09,0.000000000000000000e+00,0.000000000000000000e+00,0.000000000000000000e+00,0.000000000000000000e+00
2.266666666666666607e+00,1.643935149800214291e+09,0.000000000000000000e+00,0.000000000000000000e+00,0.000000000000000000e+00,0.000000000000000000e+00
2.283333333333333215e+00,1.643935149816564798e+09,0.000000000000000000e+00,0.000000000000000000e+00,0.000000000000000000e+00,0.000000000000000000e+00
2.299999999999999822e+00,1.643935149834513903e+09,0.000000000000000000e+00,0.000000000000000000e+00,0.000000000000000000e+00,0.000000000000000000e+00
2.316666666666666430e+00,1.643935149852445841e+09,0.000000000000000000e+00,0.000000000000000000e+00,0.000000000000000000e+00,0.000000000000000000e+00
2.333333333333333481e+00,1.643935149869420290e+09,0.000000000000000000e+00,0.000000000000000000e+00,0.000000000000000000e+00,0.000000000000000000e+00
