# 
# 
# 
# 
# 
# 
# 
# 
# 
# 
# time,realtime,ref,inp,inp0,inp1,dis,state...
0.000000000000000000e+00,1.684950981037844658e+09,0.000000000000000000e+00,1.602486320750845994e-03,0.000000000000000000e+00,3.204972641501691987e-03,-0.000000000000000000e+00,0.000000000000000000e+00,0.000000000000000000e+00
1.666666666666666644e-02,1.684950981041846275e+09,1.294841934427322557e-06,1.762734952825329576e-02,0.000000000000000000e+00,3.525469905650659153e-02,0.000000000000000000e+00,2.434698312381975835e-06,2.913544604918395548e-04
3.333333333333333287e-02,1.684950981044844389e+09,5.112353979204503813e-06,1.602486320750845994e-03,0.000000000000000000e+00,3.204972641501691987e-03,-1.773857567846165578e-05,7.469250113078223900e-06,3.127323711090163744e-04
5.000000000000000278e-02,1.684950981062863588e+09,1.139638837297105511e-05,1.762734952825329576e-02,0.000000000000000000e+00,3.525469905650659153e-02,-7.210426321789717137e-05,1.506300078265484298e-05,5.977260415233630114e-04
6.666666666666666574e-02,1.684950981079843283e+09,2.015514073703772877e-05,1.762734952825329576e-02,0.000000000000000000e+00,3.525469905650659153e-02,-1.636304361569794062e-04,2.735464085050071036e-05,8.764963863237889771e-04
8.333333333333332871e-02,1.684950981093810081e+09,3.146635026744819741e-05,1.762734952825329576e-02,0.000000000000000000e+00,3.525469905650659153e-02,-2.912779262733523953e-04,4.423631869753750492e-05,1.148549235176417847e-03
1.000000000000000056e-01,1.684950981113845587e+09,4.548088089552672071e-05,1.762734952825329576e-02,0.000000000000000000e+00,3.525469905650659153e-02,-4.524798169929855141e-04,6.559236933130675349e-05,1.413441013063653764e-03
1.166666666666666685e-01,1.684950981131808519e+09,6.242460143184579721e-05,1.602486320750845994e-03,0.000000000000000000e+00,3.204972641501691987e-03,-6.432148309123226961e-04,8.908698942786894828e-05,1.405934251131066856e-03
1.333333333333333315e-01,1.684950981149842739e+09,8.259851020780753224e-05,1.602486320750845994e-03,0.000000000000000000e+00,3.204972641501691987e-03,-8.581079780549758645e-04,1.124278525145496491e-04,1.394999693755983932e-03
1.499999999999999944e-01,1.684950981165844917e+09,1.063770782995606572e-04,1.602486320750845994e-03,0.000000000000000000e+00,3.204972641501691987e-03,-1.090556739527486678e-03,1.355558773259131565e-04,1.380403828631676395e-03
1.666666666666666574e-01,1.684950981182847977e+09,1.342048146412924030e-04,3.299153230331431375e-01,6.245759470097795862e-01,3.525469905650659153e-02,-1.332880692822974601e-03,2.037559166267337882e-04,6.788577828336190070e-03
1.833333333333333204e-01,1.684950981198843479e+09,1.665910857778818454e-04,1.762734952825329576e-02,0.000000000000000000e+00,3.525469905650659153e-02,-1.576492144805931002e-03,3.181781911060996022e-04,6.941669843580947422e-03
2.000000000000000111e-01,1.684950981215833187e+09,2.041032522336636099e-04,1.602486320750845994e-03,0.000000000000000000e+00,3.204972641501691987e-03,-1.812085030718162777e-03,4.328849517182222677e-04,6.823469771136036512e-03
2.166666666666666741e-01,1.684950981232833862e+09,2.473582120482537244e-04,1.762734952825329576e-02,0.000000000000000000e+00,3.525469905650659153e-02,-2.029839066310110476e-03,5.478213227820306896e-04,6.968491907771281156e-03
2.333333333333333370e-01,1.684950981249837399e+09,2.970124695222229488e-04,3.226008807982895799e-01,6.099470625400725821e-01,3.525469905650659153e-02,-2.219635908925613344e-03,7.072515804039717323e-04,1.214874906497207321e-02
2.500000000000000000e-01,1.684950981267845631e+09,3.537508732076704568e-04,1.602486320750845994e-03,0.000000000000000000e+00,3.204972641501691987e-03,-2.371283895079259046e-03,9.079465534995357799e-04,1.193524079897103490e-02
2.666666666666666630e-01,1.684950981283845901e+09,4.182741912728124762e-04,2.846326908862254479e-01,5.660604091309491270e-01,3.204972641501691987e-03,-2.474747779280995867e-03,1.144190527958507866e-03,1.640162920962780213e-02
2.833333333333333259e-01,1.684950981299845219e+09,4.912857141911033346e-04,2.773182486513719458e-01,5.514315246612422339e-01,3.204972641501691987e-03,-2.520379803558496327e-03,1.453240832336744190e-03,2.067254338604645678e-02
2.999999999999999889e-01,1.684950981317846298e+09,5.734770939093145406e-04,1.602486320750845994e-03,0.000000000000000000e+00,3.204972641501691987e-03,-2.499148380714649124e-03,1.794804072685569907e-03,2.031603577803156591e-02
3.166666666666666519e-01,1.684950981336845398e+09,6.655136449252004385e-04,1.602486320750845994e-03,0.000000000000000000e+00,3.204972641501691987e-03,-2.402860677662065503e-03,2.130488059881777314e-03,1.996701221822017036e-02
3.333333333333333148e-01,1.684950981352807760e+09,7.680193457827739351e-04,1.602486320750845994e-03,0.000000000000000000e+00,3.204972641501691987e-03,-2.224375438430150047e-03,2.460427847526330206e-03,1.962670761194762817e-02
3.499999999999999778e-01,1.684950981369812012e+09,8.815617891439951571e-04,1.762734952825329576e-02,0.000000000000000000e+00,3.525469905650659153e-02,-1.957802489273826989e-03,2.786993076065943237e-03,1.956130150072434015e-02
3.666666666666666408e-01,1.684950981385843515e+09,1.006637334638675390e-03,1.762734952825329576e-02,0.000000000000000000e+00,3.525469905650659153e-02,-1.598685519758251492e-03,3.112526838091570977e-03,1.950291213884029762e-02
3.833333333333333037e-01,1.684950981404809952e+09,1.143656720998047997e-03,1.602486320750845994e-03,0.000000000000000000e+00,3.204972641501691987e-03,-1.144164932192232075e-03,3.434944925361778194e-03,1.918813274137939895e-02
4.000000000000000222e-01,1.684950981421839237e+09,1.292931392462056545e-03,1.602486320750845994e-03,0.000000000000000000e+00,3.204972641501691987e-03,-5.931177952002184917e-04,3.752236277733931712e-03,1.888766419776642322e-02
4.166666666666666852e-01,1.684950981438866854e+09,1.454660789089377371e-03,1.762734952825329576e-02,0.000000000000000000e+00,3.525469905650659153e-02,5.372777712964165321e-05,4.066864026646410668e-03,1.886772107061032711e-02
4.333333333333333481e-01,1.684950981455845594e+09,1.628920841420459847e-03,1.602486320750845994e-03,0.000000000000000000e+00,3.204972641501691987e-03,7.937061744208063910e-04,4.379050988744258126e-03,1.859547065009867217e-02
4.500000000000000111e-01,1.684950981472842693e+09,1.815653897029068185e-03,1.762734952825329576e-02,0.000000000000000000e+00,3.525469905650659153e-02,1.622157761434403532e-03,4.689065835446241774e-03,1.860628092489148219e-02
4.666666666666666741e-01,1.684950981489851713e+09,2.014660289982761910e-03,1.762734952825329576e-02,0.000000000000000000e+00,3.525469905650659153e-02,2.532403874553463847e-03,4.999385083921554021e-03,1.863195756646295054e-02
4.833333333333333370e-01,1.684950981506809711e+09,2.225591744304879303e-03,1.602486320750845994e-03,0.000000000000000000e+00,3.204972641501691987e-03,3.515754528432448681e-03,5.308051188733323503e-03,1.840859547580423611e-02
5.000000000000000000e-01,1.684950981523809671e+09,2.447946779427969538e-03,1.602486320750845994e-03,0.000000000000000000e+00,3.204972641501691987e-03,4.561549578565910271e-03,5.613169888651674266e-03,1.820621070754116499e-02
5.166666666666666075e-01,1.684950981541865587e+09,2.681068259636125092e-03,1.762734952825329576e-02,0.000000000000000000e+00,3.525469905650659153e-02,5.657233629755206543e-03,5.917308161114180620e-03,1.829014882104546685e-02
5.333333333333333259e-01,1.684950981559844732e+09,2.924143200940586360e-03,1.762734952825329576e-02,0.000000000000000000e+00,3.525469905650659153e-02,6.788464513734176857e-03,6.222990054735118640e-03,1.839139716145765310e-02
5.500000000000000444e-01,1.684950981576846838e+09,3.176204918087828163e-03,1.602486320750845994e-03,0.000000000000000000e+00,3.204972641501691987e-03,7.939254687218472856e-03,6.528291021835769606e-03,1.824512521115649252e-02
5.666666666666666519e-01,1.684950981593844891e+09,3.436137561866301014e-03,1.602486320750845994e-03,0.000000000000000000e+00,3.204972641501691987e-03,9.092144430155305393e-03,6.831333563959381995e-03,1.812032651488131724e-02
5.833333333333333703e-01,1.684950981611866713e+09,3.702683062990949278e-03,1.762734952825329576e-02,0.000000000000000000e+00,3.525469905650659153e-02,1.022840525881789191e-02,7.134683668084723998e-03,1.828123899054049512e-02
5.999999999999999778e-01,1.684950981629846096e+09,3.974450464061697087e-03,1.762734952825329576e-02,0.000000000000000000e+00,3.525469905650659153e-02,1.132827151544544241e-02,7.440845335569123455e-03,1.845767100711774231e-02
6.166666666666666963e-01,1.684950981644867420e+09,4.249927585890580541e-03,1.602486320750845994e-03,0.000000000000000000e+00,3.204972641501691987e-03,1.237119766113842223e-02,7.747853855162447657e-03,1.838355722055590516e-02
6.333333333333333037e-01,1.684950981661843061e+09,4.527494939360237128e-03,1.602486320750845994e-03,0.000000000000000000e+00,3.204972641501691987e-03,1.333613838729895938e-02,8.053770659707496990e-03,1.832661749447835400e-02
6.500000000000000222e-01,1.684950981678848028e+09,4.805441759409132506e-03,1.602486320750845994e-03,0.000000000000000000e+00,3.204972641501691987e-03,1.420184827846728871e-02,8.358865905643430086e-03,1.828492782519605675e-02
6.666666666666666297e-01,1.684950981696845770e+09,5.081984004229236213e-03,1.602486320750845994e-03,0.000000000000000000e+00,3.204972641501691987e-03,1.494719741109188683e-02,8.663375029950020831e-03,1.825624676308684399e-02
6.833333333333333481e-01,1.684950981711865902e+09,5.355284130795683398e-03,1.602486320750845994e-03,0.000000000000000000e+00,3.204972641501691987e-03,1.555149896338672323e-02,8.967493564429333125e-03,1.823802798334315731e-02
6.999999999999999556e-01,1.684950981730845928e+09,5.623472427896261845e-03,1.602486320750845994e-03,0.000000000000000000e+00,3.204972641501691987e-03,1.599484464539767045e-02,9.271372204093348071e-03,1.822743819311494970e-02
7.166666666666666741e-01,1.684950981747864962e+09,5.884669660341878758e-03,1.762734952825329576e-02,0.000000000000000000e+00,3.525469905650659153e-02,1.625844353968821168e-02,9.577325580433643237e-03,1.848624803457368099e-02
7.333333333333332815e-01,1.684950981764843464e+09,6.137010753440037825e-03,1.762734952825329576e-02,0.000000000000000000e+00,3.525469905650659153e-02,1.632495977514480251e-02,9.887565894442774256e-03,1.874187954228785299e-02
7.500000000000000000e-01,1.684950981780809879e+09,6.378669225491497008e-03,1.762734952825329576e-02,0.000000000000000000e+00,3.525469905650659153e-02,1.617884434222936069e-02,1.020201124409257469e-02,1.899087075714609579e-02
7.666666666666666075e-01,1.684950981799842834e+09,6.607882058376124065e-03,1.762734952825329576e-02,0.000000000000000000e+00,3.525469905650659153e-02,1.580665629992789381e-02,1.052052064973439671e-02,1.922959478197396044e-02
7.833333333333333259e-01,1.684950981817844391e+09,6.822974682533628453e-03,1.762734952825329576e-02,0.000000000000000000e+00,3.525469905650659153e-02,1.519736862440420298e-02,1.084289166132416243e-02,1.945430240626181903e-02
8.000000000000000444e-01,1.684950981834845304e+09,7.022385743075621779e-03,1.602486320750845994e-03,0.000000000000000000e+00,3.204972641501691987e-03,1.434265400806787431e-02,1.116664534754475274e-02,1.939630105885487357e-02
8.166666666666666519e-01,1.684950981849843502e+09,7.204691308591752892e-03,1.602486320750845994e-03,0.000000000000000000e+00,3.204972641501691987e-03,1.323714603584705968e-02,1.148928766250419814e-02,1.932098594983872736e-02
8.333333333333333703e-01,1.684950981867809772e+09,7.368628183581546996e-03,1.602486320750845994e-03,0.000000000000000000e+00,3.204972641501691987e-03,1.187867134268193701e-02,1.181049749500468621e-02,1.922446207839545104e-02
8.499999999999999778e-01,1.684950981883844852e+09,7.513115989444577383e-03,1.762734952825329576e-02,0.000000000000000000e+00,3.525469905650659153e-02,1.026844859170880295e-02,1.213210288557208492e-02,1.936778665649408621e-02
8.666666666666666963e-01,1.684950981900809765e+09,7.637277687620939830e-03,1.762734952825329576e-02,0.000000000000000000e+00,3.525469905650659153e-02,8.411250404687717688e-03,1.245582070590527286e-02,1.947804550170991605e-02
8.833333333333333037e-01,1.684950981918843508e+09,7.740458231757168552e-03,1.762734952825329576e-02,0.000000000000000000e+00,3.525469905650659153e-02,6.315524722663866559e-03,1.278107148197510021e-02,1.955184262982204157e-02
9.000000000000000222e-01,1.684950981936853886e+09,7.822241053581769840e-03,1.602486320750845994e-03,0.000000000000000000e+00,3.204972641501691987e-03,3.993472472719301718e-03,1.310500793216640668e-02,1.932117215952190367e-02
9.166666666666666297e-01,1.684950981952808619e+09,7.882462109348679219e-03,1.602486320750845994e-03,0.000000000000000000e+00,3.204972641501691987e-03,1.461078862399322080e-03,1.342478195937078442e-02,1.905245755203669594e-02
9.333333333333333481e-01,1.684950981967844486e+09,7.921221240024999000e-03,1.602486320750845994e-03,0.000000000000000000e+00,3.204972641501691987e-03,-1.261903887181382812e-03,1.373973842504334734e-02,1.874317746025695730e-02
9.499999999999999556e-01,1.684950981986809492e+09,7.938890628580982933e-03,1.762734952825329576e-02,0.000000000000000000e+00,3.525469905650659153e-02,-4.152024030170101479e-03,1.405139711770610894e-02,1.865610752589558219e-02
9.666666666666666741e-01,1.684950982004842997e+09,7.936120171447555438e-03,1.602486320750845994e-03,0.000000000000000000e+00,3.204972641501691987e-03,-7.182249105287106215e-03,1.435898477263742451e-02,1.825552382455532946e-02
9.833333333333332815e-01,1.684950982020843267e+09,7.913839618051613997e-03,1.762734952825329576e-02,0.000000000000000000e+00,3.525469905650659153e-02,-1.032213657412323939e-02,1.466173104064536631e-02,1.807453110578288724e-02
1.000000000000000000e+00,1.684950982036845684e+09,7.873257371883216754e-03,1.602486320750845994e-03,0.000000000000000000e+00,3.204972641501691987e-03,-1.353805618508928908e-02,1.495882821562157829e-02,1.757850776640103307e-02
1.016666666666666607e+00,1.684950982054811239e+09,7.815855888311089641e-03,1.602486320750845994e-03,0.000000000000000000e+00,3.204972641501691987e-03,-1.679346333254165546e-02,1.524727720747300237e-02,1.703687582435309614e-02
1.033333333333333215e+00,1.684950982073246956e+09,7.743383647825321549e-03,1.762734952825329576e-02,0.000000000000000000e+00,3.525469905650659153e-02,-2.004922204498419541e-02,1.552853748584866189e-02,1.671525100403192104e-02
1.050000000000000044e+00,1.684950982090865135e+09,7.657843727999146324e-03,1.602486320750845994e-03,0.000000000000000000e+00,3.204972641501691987e-03,-2.326397559915155400e-02,1.580182438806582851e-02,1.608093928050807406e-02
1.066666666666666652e+00,1.684950982107867241e+09,7.561479042650872708e-03,1.602486320750845994e-03,0.000000000000000000e+00,3.204972641501691987e-03,-2.639456212540913435e-02,1.606419464150294144e-02,1.540536776365998908e-02
1.083333333333333259e+00,1.684950982126865387e+09,7.456754361861665965e-03,1.602486320750845994e-03,0.000000000000000000e+00,3.204972641501691987e-03,-2.939647195150327935e-02,1.631498405465120483e-02,1.469134525666585152e-02
1.100000000000000089e+00,1.684950982144815922e+09,7.346335271062598427e-03,1.762734952825329576e-02,0.000000000000000000e+00,3.525469905650659153e-02,-3.222434283352134526e-02,1.655579448899275816e-02,1.420725160056983058e-02
1.116666666666666696e+00,1.684950982159866333e+09,7.233064270743057300e-03,1.602486320750845994e-03,0.000000000000000000e+00,3.204972641501691987e-03,-3.483248865214345902e-02,1.678602995848601717e-02,1.342318275888669532e-02
1.133333333333333304e+00,1.684950982179845572e+09,7.119934259853185482e-03,1.602486320750845994e-03,0.000000000000000000e+00,3.204972641501691987e-03,-3.717545661590827138e-02,1.700298229802663444e-02,1.261334758109345332e-02
1.149999999999999911e+00,1.684950982196845055e+09,7.010059685092456631e-03,1.762734952825329576e-02,0.000000000000000000e+00,3.525469905650659153e-02,-3.920860751804733368e-02,1.720848178172795090e-02,1.204816046422890231e-02
1.166666666666666741e+00,1.684950982214844704e+09,6.906645674431309730e-03,1.762734952825329576e-02,0.000000000000000000e+00,3.525469905650659153e-02,-4.088871314593170436e-02,1.740440748704713894e-02,1.146454536528174195e-02
1.183333333333333348e+00,1.684950982231845140e+09,6.812955505869581346e-03,1.602486320750845994e-03,0.000000000000000000e+00,3.204972641501691987e-03,-4.217456454840705360e-02,1.758829591871973602e-02,1.060445562981487608e-02
1.199999999999999956e+00,1.684950982247843504e+09,6.732276791097135428e-03,1.762734952825329576e-02,0.000000000000000000e+00,3.525469905650659153e-02,-4.302758453188065824e-02,1.776006386004772356e-02,1.000935043842643250e-02
1.216666666666666563e+00,1.684950982264844894e+09,6.667886777934948703e-03,1.762734952825329576e-02,0.000000000000000000e+00,3.525469905650659153e-02,-4.341243748606286867e-02,1.792194242166314858e-02,9.417720410847514947e-03
1.233333333333333393e+00,1.684950982282845259e+09,6.623017194795275536e-03,1.602486320750845994e-03,0.000000000000000000e+00,3.204972641501691987e-03,-4.329762943926326185e-02,1.807184469429608600e-02,8.572899086239371691e-03
1.250000000000000000e+00,1.684950982302848101e+09,6.600819074560342233e-03,1.602486320750845994e-03,0.000000000000000000e+00,3.204972641501691987e-03,-4.265609111494836347e-02,1.820787190825524579e-02,7.752645125710251953e-03
1.266666666666666607e+00,1.684950982316845417e+09,6.604328003954243638e-03,1.602486320750845994e-03,0.000000000000000000e+00,3.204972641501691987e-03,-4.146573670904381281e-02,1.833050592910306226e-02,6.965623598390886101e-03
1.283333333333333215e+00,1.684950982333867550e+09,6.636430247453273604e-03,1.762734952825329576e-02,0.000000000000000000e+00,3.525469905650659153e-02,-3.970999113361607658e-02,1.844258749485871984e-02,6.485498005879181821e-03
1.300000000000000044e+00,1.684950982349844694e+09,6.699830191896155585e-03,1.762734952825329576e-02,0.000000000000000000e+00,3.525469905650659153e-02,-3.737827857873005089e-02,1.854705533989379346e-02,6.051848010002827856e-03
1.316666666666666652e+00,1.684950982366810083e+09,6.797019549142609487e-03,1.602486320750845994e-03,0.000000000000000000e+00,3.204972641501691987e-03,-3.446646543124522177e-02,1.864254439993407939e-02,5.408625964787633703e-03
1.333333333333333259e+00,1.684950982385865450e+09,6.930248739385055749e-03,1.602486320750845994e-03,0.000000000000000000e+00,3.204972641501691987e-03,-3.097725085707740342e-02,1.872788386676195113e-02,4.833707089020988085e-03
1.350000000000000089e+00,1.684950982401871204e+09,7.101500857121821608e-03,1.602486320750845994e-03,0.000000000000000000e+00,3.204972641501691987e-03,-2.692049870110825582e-02,1.880428108104101673e-02,4.335343001735964853e-03
1.366666666666666696e+00,1.684950982419844866e+09,7.312468595504489390e-03,1.602486320750845994e-03,0.000000000000000000e+00,3.204972641501691987e-03,-2.231350478475406171e-02,1.887307738179355709e-02,3.921363059916705904e-03
1.383333333333333304e+00,1.684950982435845375e+09,7.564534473007348062e-03,1.602486320750845994e-03,0.000000000000000000e+00,3.204972641501691987e-03,-1.718119418258897552e-02,1.893574007326648267e-02,3.599055237413145009e-03
1.399999999999999911e+00,1.684950982451845407e+09,7.858754669439317261e-03,1.602486320750845994e-03,0.000000000000000000e+00,3.204972641501691987e-03,-1.155624363291357475e-02,1.899385240599155839e-02,3.375046949485357561e-03
1.416666666666666741e+00,1.684950982467807770e+09,8.195846736606072699e-03,1.602486320750845994e-03,0.000000000000000000e+00,3.204972641501691987e-03,-5.479124878511943894e-03,1.904910158206233814e-02,3.255187130785226497e-03
1.433333333333333348e+00,1.684950982485846519e+09,8.576181402879235610e-03,1.602486320750845994e-03,0.000000000000000000e+00,3.204972641501691987e-03,1.001934562052757098e-03,1.910326481674987434e-02,3.244430910811084076e-03
1.449999999999999956e+00,1.684950982501864195e+09,8.999778641051199915e-03,1.602486320750845994e-03,0.000000000000000000e+00,3.204972641501691987e-03,7.831075931186894795e-03,1.915819351117242775e-02,3.346728253920826842e-03
1.466666666666666563e+00,1.684950982520845175e+09,9.466308115720328820e-03,1.602486320750845994e-03,0.000000000000000000e+00,3.204972641501691987e-03,1.494502100420496207e-02,1.921579561359654242e-02,3.564917940245976909e-03
1.483333333333333393e+00,1.684950982538845301e+09,9.975094070682690925e-03,1.762734952825329576e-02,0.000000000000000000e+00,3.525469905650659153e-02,2.227337216893728045e-02,1.928022963194607128e-02,4.165495950182958318e-03
1.500000000000000000e+00,1.684950982553843260e+09,1.052512465907475339e-02,1.602486320750845994e-03,0.000000000000000000e+00,3.204972641501691987e-03,2.973900099547741038e-02,1.935340812593663515e-02,4.614675578129531601e-03
1.516666666666666607e+00,1.684950982571845770e+09,1.111506566002220739e-02,1.762734952825329576e-02,0.000000000000000000e+00,3.525469905650659153e-02,3.725852456144459340e-02,1.943726286859442584e-02,5.445585403633373435e-03
1.533333333333333215e+00,1.684950982588809490e+09,1.174327846604107488e-02,1.602486320750845994e-03,0.000000000000000000e+00,3.204972641501691987e-03,4.474286786280898959e-02,1.953367172179333935e-02,6.121599120160458110e-03
1.550000000000000044e+00,1.684950982606867075e+09,1.240784216616831401e-02,1.762734952825329576e-02,0.000000000000000000e+00,3.525469905650659153e-02,5.209790969589250115e-02,1.964448334306596877e-02,7.172875152623590413e-03
1.566666666666666652e+00,1.684950982622808456e+09,1.310657949153853745e-02,1.602486320750845994e-03,0.000000000000000000e+00,3.204972641501691987e-03,5.922520845210126755e-02,1.977144209273451816e-02,8.059711315835910161e-03
1.583333333333333259e+00,1.684950982638808966e+09,1.383708633364772941e-02,1.602486320750845994e-03,0.000000000000000000e+00,3.204972641501691987e-03,6.602280333289624326e-02,1.991399784206664136e-02,9.044243727397902749e-03
1.600000000000000089e+00,1.684950982656866312e+09,1.459676449161622855e-02,1.762734952825329576e-02,0.000000000000000000e+00,3.525469905650659153e-02,7.238608557825833290e-02,2.007591874263784867e-02,1.038254674526855464e-02
1.616666666666666696e+00,1.684950982673866272e+09,1.538285725413508602e-02,1.762734952825329576e-02,0.000000000000000000e+00,3.525469905650659153e-02,7.820873341718784233e-02,2.026076407345114502e-02,1.179496946354594358e-02
1.633333333333333304e+00,1.684950982689808846e+09,1.619248737517213835e-02,1.762734952825329576e-02,0.000000000000000000e+00,3.525469905650659153e-02,8.338370360331409659e-02,2.046966946783606092e-02,1.326958162135381813e-02
1.649999999999999911e+00,1.684950982706865549e+09,1.702269696061374168e-02,1.602486320750845994e-03,0.000000000000000000e+00,3.204972641501691987e-03,8.780427160193046698e-02,2.070134526630628899e-02,1.452801845492827926e-02
1.666666666666666741e+00,1.684950982725865602e+09,1.787048874646741600e-02,1.602486320750845994e-03,0.000000000000000000e+00,3.204972641501691987e-03,9.136511175597158974e-02,2.095431302109821217e-02,1.582451066808172879e-02
1.683333333333333348e+00,1.684950982741846323e+09,1.873286821863524160e-02,1.602486320750845994e-03,0.000000000000000000e+00,3.204972641501691987e-03,9.396340808638205255e-02,2.122906878527693053e-02,1.714251981068855638e-02
1.699999999999999956e+00,1.684950982758846045e+09,1.960688600011227870e-02,1.762734952825329576e-02,0.000000000000000000e+00,3.525469905650659153e-02,9.549998578538318461e-02,2.152803491939933242e-02,1.872900926512676215e-02
1.716666666666666563e+00,1.684950982774843216e+09,2.048967991422212878e-02,3.152864385634348565e-01,5.953181780703631354e-01,3.525469905650659153e-02,9.588045294705743737e-02,2.189438878992903958e-02,2.521543691977192608e-02
1.733333333333333393e+00,1.684950982791843176e+09,2.137851612254988015e-02,1.602486320750845994e-03,0.000000000000000000e+00,3.204972641501691987e-03,9.501634165559738610e-02,2.232450834392620681e-02,2.639563116538056267e-02
1.750000000000000000e+00,1.684950982810811520e+09,2.227082873386224127e-02,3.212049020604941241e-01,6.392048314794865904e-01,3.204972641501691987e-03,9.282623722383892551e-02,2.281797593981622560e-02,3.280268255756275952e-02
1.766666666666666607e+00,1.684950982825848103e+09,2.316425728572224854e-02,2.992615753559323966e-01,5.953181780703631354e-01,3.204972641501691987e-03,8.923688414890308673e-02,2.341381619396950761e-02,3.868181662849006636e-02
1.783333333333333215e+00,1.684950982843844652e+09,2.405668151381772438e-02,2.919471331210788945e-01,5.806892936006561312e-01,3.204972641501691987e-03,8.418425723255779092e-02,2.410512184127821048e-02,4.425936748707531149e-02
1.800000000000000044e+00,1.684950982859811068e+09,2.494625284524922340e-02,3.591730919725569793e-01,6.830914848886073809e-01,3.525469905650659153e-02,7.761458630499463995e-02,2.489699417220949881e-02,5.074728979410321472e-02
1.816666666666666652e+00,1.684950982878843546e+09,2.583142208107288770e-02,3.299153230331431375e-01,6.245759470097795862e-01,3.525469905650659153e-02,6.948532309480985603e-02,2.579093851098936477e-02,5.651002289078923407e-02
1.833333333333333259e+00,1.684950982894865274e+09,2.671096277009086389e-02,1.602486320750845994e-03,0.000000000000000000e+00,3.204972641501691987e-03,5.976603900673240627e-02,2.673344328461665920e-02,5.659032687261999345e-02
1.849999999999999867e+00,1.684950982910845280e+09,2.758398981993685772e-02,1.762734952825329576e-02,0.000000000000000000e+00,3.525469905650659153e-02,4.843924290262479476e-02,2.767792426568761732e-02,5.674695576539700442e-02
1.866666666666666696e+00,1.684950982927865267e+09,2.844997294254300590e-02,1.762734952825329576e-02,0.000000000000000000e+00,3.525469905650659153e-02,3.550110842994882998e-02,2.862320707305491055e-02,5.668714725733307869e-02
1.883333333333333304e+00,1.684950982947865725e+09,2.930874458861695148e-02,1.602486320750845994e-03,0.000000000000000000e+00,3.204972641501691987e-03,2.096210100356106151e-02,2.956327983567300435e-02,5.612315095012018057e-02
1.899999999999999911e+00,1.684950982963866949e+09,3.016050208924236919e-02,1.762734952825329576e-02,0.000000000000000000e+00,3.525469905650659153e-02,4.847495218571596862e-03,3.049401816399933962e-02,5.556699336757425778e-02
1.916666666666666741e+00,1.684950982980865002e+09,3.100580379148725613e-02,1.762734952825329576e-02,0.000000000000000000e+00,3.525469905650659153e-02,-1.280222574988201280e-02,3.141312622777918395e-02,5.472830403343393463e-02
1.933333333333333348e+00,1.684950982995865345e+09,3.184555904823360012e-02,1.762734952825329576e-02,0.000000000000000000e+00,3.525469905650659153e-02,-3.193109632475545773e-02,3.231572988703078353e-02,5.358730459424063813e-02
1.949999999999999956e+00,1.684950983014809370e+09,3.268101199952348074e-02,1.762734952825329576e-02,0.000000000000000000e+00,3.525469905650659153e-02,-5.246752687353661154e-02,3.319663798233987717e-02,5.212572687651016029e-02
1.966666666666666563e+00,1.684950983029865265e+09,3.351371916268259393e-02,3.365221273575574185e-02,0.000000000000000000e+00,6.730442547151148369e-02,-7.432429975113333254e-02,3.405258281659019615e-02,5.059191392533687881e-02
1.983333333333333393e+00,1.684950983047844648e+09,3.434552093041181448e-02,4.967707594325939530e-02,0.000000000000000000e+00,9.935415188651879059e-02,-9.739870742533890402e-02,3.488220226606517788e-02,4.896693395116057113e-02
2.000000000000000000e+00,1.684950983067836285e+09,3.517850715895994712e-02,6.570193915076183444e-02,0.000000000000000000e+00,1.314038783015236689e-01,-1.215728358583933466e-01,3.568383757843620468e-02,4.723411702699568948e-02
2.016666666666666607e+00,1.684950983083835125e+09,3.601497711140843466e-02,6.570193915076183444e-02,0.000000000000000000e+00,1.314038783015236689e-01,-1.467139950449250774e-01,3.645335943682444929e-02,4.511439423703805796e-02
2.033333333333333215e+00,1.684950983099843502e+09,3.685739410298301960e-02,8.172680235826429440e-02,0.000000000000000000e+00,1.634536047165285888e-01,-1.726752972834353639e-01,3.718647293329920694e-02,4.286547249181045516e-02
2.049999999999999822e+00,1.684950983115844727e+09,3.770833527512800626e-02,8.172680235826429440e-02,0.000000000000000000e+00,1.634536047165285888e-01,-1.992963823969681747e-01,3.787873810532139951e-02,4.021371431914320255e-02
2.066666666666666430e+00,1.684950983133846760e+09,3.857043700180028817e-02,8.172680235826429440e-02,0.000000000000000000e+00,1.634536047165285888e-01,-2.264042877307006485e-01,3.852342941255033903e-02,3.715773158904032980e-02
2.083333333333333481e+00,1.684950983149845839e+09,3.944633650404195946e-02,8.172680235826429440e-02,0.000000000000000000e+00,1.634536047165285888e-01,-2.538144593525085146e-01,3.911382386155579788e-02,3.369920952346413395e-02
2.100000000000000089e+00,1.684950983167865515e+09,4.033861031638242417e-02,9.775166556576674048e-02,0.000000000000000000e+00,1.955033311315334810e-01,-2.813318994799711703e-01,3.964546660846973714e-02,3.010789621131345142e-02
2.116666666666666696e+00,1.684950983184842825e+09,4.124971031004949495e-02,8.172680235826429440e-02,0.000000000000000000e+00,1.634536047165285888e-01,-3.087524437670445265e-01,4.011174946613997594e-02,2.585785266349687264e-02
2.133333333333333304e+00,1.684950983201843023e+09,4.218189803242708424e-02,8.172680235826429440e-02,0.000000000000000000e+00,1.634536047165285888e-01,-3.358641607191005241e-01,4.050404059894203296e-02,2.122993889134754814e-02
2.149999999999999911e+00,1.684950983217843056e+09,4.313717816885278417e-02,8.172680235826429440e-02,0.000000000000000000e+00,1.634536047165285888e-01,-3.624488641795261534e-01,4.081616715279404867e-02,1.623911130714116718e-02
2.166666666666666519e+00,1.684950983238810301e+09,4.411723197092816406e-02,8.172680235826429440e-02,0.000000000000000000e+00,1.634536047165285888e-01,-3.882837285579787689e-01,4.104223425814669535e-02,1.090376209845994419e-02
2.183333333333333126e+00,1.684950983252844810e+09,4.512335152434688440e-02,9.775166556576674048e-02,0.000000000000000000e+00,1.955033311315334810e-01,-4.131429952626705093e-01,4.117889558556373647e-02,5.510578609427843610e-03
2.200000000000000178e+00,1.684950983268808365e+09,4.615637574823531347e-02,9.775166556576674048e-02,0.000000000000000000e+00,1.955033311315334810e-01,-4.367997576694352957e-01,4.122314794686379041e-02,-1.844752869333519951e-04
2.216666666666666785e+00,1.684950983287844896e+09,4.721662902667636552e-02,9.775166556576674048e-02,0.000000000000000000e+00,1.955033311315334810e-01,-4.590278109210351176e-01,4.117019919710405290e-02,-6.152795626428089054e-03
2.233333333333333393e+00,1.684950983308845520e+09,4.830386337106976763e-02,9.775166556576674048e-02,0.000000000000000000e+00,1.955033311315334810e-01,-4.796035519127901936e-01,4.101576085745690242e-02,-1.236255539256465863e-02
2.250000000000000000e+00,1.684950983325842857e+09,4.941720499902875485e-02,8.172680235826429440e-02,0.000000000000000000e+00,1.634536047165285888e-01,-4.983079139960616688e-01,4.075388739889881928e-02,-1.904370046130319724e-02
2.266666666666666607e+00,1.684950983339843988e+09,5.055510619148655821e-02,8.172680235826429440e-02,0.000000000000000000e+00,1.634536047165285888e-01,-5.149283202293828410e-01,4.037928870681696536e-02,-2.588912706707332048e-02
2.283333333333333215e+00,1.684950983358834505e+09,5.171530325459770816e-02,9.775166556576674048e-02,0.000000000000000000e+00,1.955033311315334810e-01,-5.292606384373007566e-01,3.989177884020394388e-02,-3.259343341498587010e-02
2.299999999999999822e+00,1.684950983377843142e+09,5.289478136698723409e-02,9.775166556576674048e-02,0.000000000000000000e+00,1.955033311315334810e-01,-5.411111209071899353e-01,3.929181974204528499e-02,-3.938279857251759941e-02
2.316666666666666430e+00,1.684950983393865585e+09,5.408974703619922469e-02,9.775166556576674048e-02,0.000000000000000000e+00,1.955033311315334810e-01,-5.502983112714296965e-01,3.857837336911377341e-02,-4.621179629468046696e-02
2.333333333333333481e+00,1.684950983410848618e+09,5.529560882121184462e-02,1.137765287732703939e-01,0.000000000000000000e+00,2.275530575465407879e-01,-5.566549009919864455e-01,3.775338897881060779e-02,-5.276811810802257280e-02
2.350000000000000089e+00,1.684950983425842762e+09,5.650696690114316578e-02,1.137765287732703939e-01,0.000000000000000000e+00,2.275530575465407879e-01,-5.600295178910201788e-01,3.681957201695541804e-02,-5.927185096479654913e-02
2.366666666666666696e+00,1.684950983445846081e+09,5.771761198442632718e-02,1.298013919807728400e-01,0.000000000000000000e+00,2.596027839615456800e-01,-5.602884293576170238e-01,3.578043540743588991e-02,-6.540749831155776017e-02
2.383333333333333304e+00,1.684950983460811138e+09,5.892053395854571912e-02,1.298013919807728400e-01,0.000000000000000000e+00,2.596027839615456800e-01,-5.573171432087068444e-01,3.464029586300219898e-02,-7.139262128758963599e-02
2.399999999999999911e+00,1.684950983478842974e+09,6.010794057879381008e-02,1.298013919807728400e-01,0.000000000000000000e+00,2.596027839615456800e-01,-5.510218896917608022e-01,3.340210044069674006e-02,-7.717476749380064449e-02
2.416666666666666519e+00,1.684950983495843410e+09,6.127128638641659436e-02,1.458262551882752722e-01,0.000000000000000000e+00,2.916525103765505444e-01,-5.413309687866396658e-01,3.207188642480662821e-02,-8.243629870454993736e-02
2.433333333333333126e+00,1.684950983514845610e+09,6.240131193306097668e-02,1.458262551882752722e-01,0.000000000000000000e+00,2.916525103765505444e-01,-5.281959477910481704e-01,3.065652116304078134e-02,-8.739376165283030407e-02
2.450000000000000178e+00,1.684950983526809454e+09,6.348809327079235620e-02,4.361709019886033656e-01,5.806892936006561312e-01,2.916525103765505444e-01,-5.115926951541309720e-01,2.920161204308807656e-02,-8.719588241896972236e-02
2.466666666666666785e+00,1.684950983545845032e+09,6.452110154637549777e-02,4.800575553977254883e-01,6.684626004189004878e-01,2.916525103765505444e-01,-4.915222376498961654e-01,2.775880736725997236e-02,-8.594415578067779449e-02
2.483333333333333393e+00,1.684950983563809633e+09,6.548927241631666285e-02,4.873719976325789904e-01,6.830914848886073809e-01,2.916525103765505444e-01,-4.680114292491365791e-01,2.634094951196091355e-02,-8.420362178565470035e-02
2.500000000000000000e+00,1.684950983579844713e+09,6.638108487671898206e-02,5.385730932765546708e-01,7.854936761765587416e-01,2.916525103765505444e-01,-4.411134214465157743e-01,2.496264724029228360e-02,-8.120099165015208509e-02
2.516666666666666607e+00,1.684950983597844839e+09,6.718464898070271307e-02,8.165218982009933013e-01,1.341391286025436003e+00,2.916525103765505444e-01,-4.109079263184832742e-01,2.367653650512618890e-02,-7.315464805027749318e-02
2.533333333333333215e+00,1.684950983615843534e+09,6.788780179740803999e-02,7.068052646781886050e-01,1.121958018979826610e+00,2.916525103765505444e-01,-3.775012652162605953e-01,2.251288016016455423e-02,-6.650259171428372917e-02
2.549999999999999822e+00,1.684950983632845402e+09,6.847821085184944978e-02,7.228301278856910095e-01,1.121958018979826610e+00,3.237022367915554644e-01,-3.410261977237161735e-01,2.146642395208674808e-02,-5.909273667017300724e-02
2.566666666666666430e+00,1.684950983646845579e+09,6.894348417553364250e-02,6.876538954492177336e-01,1.019555827691875249e+00,3.557519632065603843e-01,-3.016415273188194912e-01,2.054302314675354388e-02,-5.173579639599983071e-02
2.583333333333333481e+00,1.684950983665851116e+09,6.927128599517304308e-02,5.194217240475839104e-01,6.830914848886073809e-01,3.557519632065603843e-01,-2.595314820548715873e-01,1.972380181740154489e-02,-4.658507103343596106e-02
2.600000000000000089e+00,1.684950983682807684e+09,6.944945699234449099e-02,5.354465872550875361e-01,6.830914848886073809e-01,3.878016896215676357e-01,-2.149048705081801625e-01,1.899809170195819116e-02,-4.051699897221081731e-02
2.616666666666666696e+00,1.684950983700811148e+09,6.946613798184210486e-02,5.441570082277364939e-01,6.684626004189004878e-01,4.198514160365725556e-01,-1.679940152060061809e-01,1.838036043416019227e-02,-3.362988448738397917e-02
2.633333333333333304e+00,1.684950983717846155e+09,6.930989578193806622e-02,4.856414703489073670e-01,5.514315246612422339e-01,4.198514160365725556e-01,-1.190534677354188192e-01,1.787514065363403001e-02,-2.701486466329967168e-02
2.649999999999999911e+00,1.684950983734844923e+09,6.896984998689857649e-02,2.259505712257887378e-01,0.000000000000000000e+00,4.519011424515774755e-01,-6.835851172275177190e-02,1.745039090972509352e-02,-2.396358059434012047e-02
2.666666666666666519e+00,1.684950983750845432e+09,6.843579930190203664e-02,2.419754344332911700e-01,0.000000000000000000e+00,4.839508688665823399e-01,-1.620346184683183963e-02,1.708549149903560230e-02,-1.983581497387630968e-02
2.683333333333333126e+00,1.684950983767846584e+09,6.769834606383944020e-02,2.580002976407948512e-01,0.000000000000000000e+00,5.160005952815897023e-01,3.710023101095237530e-02,1.679839374773006364e-02,-1.463037507837498460e-02
2.700000000000000178e+00,1.684950983784812450e+09,6.674901754909055851e-02,2.740251608482972556e-01,0.000000000000000000e+00,5.480503216965945112e-01,9.122605648814850754e-02,1.660702359818478843e-02,-8.351484639888946682e-03
2.716666666666666785e+00,1.684950983801864624e+09,6.558038266185650667e-02,3.381246136783082612e-01,0.000000000000000000e+00,6.762492273566165224e-01,1.458346895236955765e-01,1.653583039918559566e-02,-2.143030541896899510e-04
2.733333333333333393e+00,1.684950983819808483e+09,6.418616260443796295e-02,3.701743400933131811e-01,0.000000000000000000e+00,7.403486801866263622e-01,2.005763876583435967e-01,1.661112065656577402e-02,9.222918817624412707e-03
2.750000000000000000e+00,1.684950983836846113e+09,6.256133415425689515e-02,4.342737929233241867e-01,0.000000000000000000e+00,8.685475858466483734e-01,2.550935236817416518e-01,1.685877785378771254e-02,2.046471689715357103e-02
2.766666666666666607e+00,1.684950983851848125e+09,6.070222421155117148e-02,4.823483825458327323e-01,0.000000000000000000e+00,9.646967650916654646e-01,3.090232349466111583e-01,1.730633451451082938e-02,3.320668719463784613e-02
2.783333333333333215e+00,1.684950983869845867e+09,5.860659433646047550e-02,5.143981089608388180e-01,0.000000000000000000e+00,1.028796217921677636e+00,3.620001692982193764e-01,1.797624134437425872e-02,4.714341833575871887e-02
2.799999999999999822e+00,1.684950983887844801e+09,5.627371406444506285e-02,5.624726985833461423e-01,0.000000000000000000e+00,1.124945397166692285e+00,4.136593063454935271e-01,1.889027735042235132e-02,6.249824907852462308e-02
2.816666666666666430e+00,1.684950983905866146e+09,5.370442187422248825e-02,5.784975617908497680e-01,0.000000000000000000e+00,1.156995123581699536e+00,4.636388317423075778e-01,2.006722294438771648e-02,7.869024337677854586e-02
2.833333333333333481e+00,1.684950983922808170e+09,5.090117278209484869e-02,6.105472882058546880e-01,0.000000000000000000e+00,1.221094576411709376e+00,5.115830412660712367e-01,2.152284746600536397e-02,9.593679101302632350e-02
2.850000000000000089e+00,1.684950983939846516e+09,4.786807164990992264e-02,6.425970146208608291e-01,0.000000000000000000e+00,1.285194029241721658e+00,5.571452507864651515e-01,2.327425214577961282e-02,1.141810907567075151e-01
2.866666666666666696e+00,1.684950983956844091e+09,4.461089142004031477e-02,6.586218778283632336e-01,0.000000000000000000e+00,1.317243755656726467e+00,5.999906877197265231e-01,2.533533977139459589e-02,1.330968792235606990e-01
2.883333333333333304e+00,1.684950983974865437e+09,4.113707562858851668e-02,6.586218778283632336e-01,0.000000000000000000e+00,1.317243755656726467e+00,6.397993392709186988e-01,2.771457627079794428e-02,1.523579963424787076e-01
2.899999999999999911e+00,1.684950983989809990e+09,3.745572469630235879e-02,3.489134094462209568e-01,-6.514666631792894735e-01,1.349293482071731276e+00,6.762687326842818925e-01,3.037443111636960180e-02,1.667845105324154420e-01
2.916666666666666519e+00,1.684950984008809566e+09,3.357756565405004695e-02,2.258742640946155289e-01,-8.654952274674954094e-01,1.317243755656726467e+00,7.091166228546101902e-01,3.326027800660006500e-02,1.794818450913387431e-01
2.933333333333333126e+00,1.684950984025843382e+09,2.951490512464110400e-02,1.961880031665891866e-01,-8.928180229085431741e-01,1.285194029241721658e+00,7.380835630029074501e-01,3.635589402434935558e-02,1.919574218430810664e-01
2.950000000000000178e+00,1.684950984039843798e+09,2.528156555369326028e-02,2.620449604153367029e-01,-6.970046555810360811e-01,1.221094576411709376e+00,7.629353346881196929e-01,3.967024192330984717e-02,2.057260788625115133e-01
2.966666666666666785e+00,1.684950984058809519e+09,2.089280485741177446e-02,5.624726985833461423e-01,0.000000000000000000e+00,1.124945397166692285e+00,7.834652142122219276e-01,4.325649653178739729e-02,2.245721228006267722e-01
2.983333333333333393e+00,1.684950984074845552e+09,1.636521983277174422e-02,5.143981089608388180e-01,0.000000000000000000e+00,1.028796217921677636e+00,7.994960534749948611e-01,4.714982294878591190e-02,2.425770324242254861e-01
3.000000000000000000e+00,1.684950984094810724e+09,1.171663385383574923e-02,4.182489297158217267e-01,0.000000000000000000e+00,8.364978594316434535e-01,8.108821545423807731e-01,5.132903682709102910e-02,2.588833366168903916e-01
3.016666666666666607e+00,1.684950984110809803e+09,6.965969554869355998e-03,3.701743400933131811e-01,0.000000000000000000e+00,7.403486801866263622e-01,8.175109186011036977e-01,5.577204568896194925e-02,2.742350820665930833e-01
3.033333333333333215e+00,1.684950984125808001e+09,2.133107374638968257e-03,3.381246136783082612e-01,0.000000000000000000e+00,6.762492273566165224e-01,8.193042515733333087e-01,6.046461755609360694e-02,2.888329912869888050e-01
3.049999999999999822e+00,1.684950984144844770e+09,-2.761268995159380565e-03,2.900500240557997156e-01,0.000000000000000000e+00,5.801000481115994312e-01,8.162197104475840126e-01,6.539140551506052168e-02,3.023440322364115973e-01
3.066666666666666430e+00,1.684950984157809734e+09,-7.695839052887365819e-03,2.580002976407948512e-01,0.000000000000000000e+00,5.160005952815897023e-01,8.082513763331621304e-01,7.053598402364541498e-02,3.149703149607259722e-01
3.083333333333333481e+00,1.684950984177845001e+09,-1.264882246434654439e-02,1.778759816032801921e-01,0.000000000000000000e+00,3.557519632065603843e-01,7.954304423508904431e-01,7.587641898485578129e-02,3.258516537320851336e-01
3.100000000000000089e+00,1.684950984194844723e+09,-1.759816507571760821e-02,9.775166556576674048e-02,0.000000000000000000e+00,1.955033311315334810e-01,7.778255067166076620e-01,8.138320824330989856e-02,3.349378173450039409e-01
3.116666666666666696e+00,1.684950984213872433e+09,-2.252173233388536644e-02,1.602486320750845994e-03,0.000000000000000000e+00,3.204972641501691987e-03,7.555425637386098403e-01,8.702382067271172139e-02,3.419162890832581070e-01
3.133333333333333304e+00,1.684950984227865219e+09,-2.739750837076374360e-02,-7.852182971676319179e-02,0.000000000000000000e+00,-1.570436594335263836e-01,7.287246879170103941e-01,9.276500618551858368e-02,3.470118178737887082e-01
3.149999999999999911e+00,1.684950984245846510e+09,-3.220379890865111144e-02,-1.906958721692821324e-01,0.000000000000000000e+00,-3.813917443385642647e-01,6.975514088818989267e-01,9.857061417761849020e-02,3.496538021602323965e-01
3.166666666666666519e+00,1.684950984261842966e+09,-3.691943606107227216e-02,-2.868450514142986130e-01,0.000000000000000000e+00,-5.736901028285972259e-01,6.622377775172612058e-01,1.044017326199736528e-01,3.500792291529266076e-01
3.183333333333333126e+00,1.684950984278848410e+09,-4.152398303921336215e-02,-4.310688202818230841e-01,0.000000000000000000e+00,-8.621376405636461682e-01,6.230331262668689085e-01,1.102145475271063546e-01,3.474658193455446575e-01
3.200000000000000178e+00,1.684950984295865774e+09,-4.599793672898209312e-02,-5.272179995268395647e-01,0.000000000000000000e+00,-1.054435999053679129e+00,5.802195292843445040e-01,1.159649729615916669e-01,3.425987527403511201e-01
3.216666666666666785e+00,1.684950984314865828e+09,-5.032292607879135238e-02,-6.554169051868615758e-01,0.000000000000000000e+00,-1.310833810373723152e+00,5.341099707490911674e-01,1.216108772889422374e-01,3.349310661723710614e-01
3.233333333333333393e+00,1.684950984330866098e+09,-5.448190423402351351e-02,-7.515660844318780009e-01,0.000000000000000000e+00,-1.503132168863756002e+00,4.850462322995954811e-01,1.271099890242055053e-01,3.249899569015697320e-01
3.250000000000000000e+00,1.684950984347867489e+09,-5.845933237125241350e-02,-8.156655372618890620e-01,0.000000000000000000e+00,-1.631331074523778124e+00,4.333965131120795511e-01,1.324288013425336530e-01,3.132999941807447231e-01
3.266666666666666607e+00,1.684950984364865303e+09,-6.224135322391341485e-02,-8.797649900919000121e-01,0.000000000000000000e+00,-1.759529980183800024e+00,3.795527986525246700e-01,1.375381052032157436e-01,2.998538204627397286e-01
3.283333333333333215e+00,1.684950984383809805e+09,-6.581595235121677490e-02,-9.598893061294134776e-01,0.000000000000000000e+00,-1.919778612258826955e+00,3.239279965302843123e-01,1.424064136248857915e-01,2.843861568810842066e-01
3.299999999999999822e+00,1.684950984399809837e+09,-6.917310528351175436e-02,-1.023988758959424539e+00,0.000000000000000000e+00,-2.047977517918849077e+00,2.669528601597839224e-01,1.470023411722669593e-01,2.671729643537090193e-01
3.316666666666666430e+00,1.684950984418843269e+09,-7.230490877954943996e-02,-1.088088211789435489e+00,0.000000000000000000e+00,-2.176176423578870978e+00,2.090727230710471285e-01,1.512969117904421068e-01,2.482281355902274111e-01
3.333333333333333481e+00,1.684950984433844805e+09,-7.520569455351357180e-02,-1.120137938204440964e+00,0.000000000000000000e+00,-2.240275876408881928e+00,1.507440686793028173e-01,1.552658688247077201e-01,2.281026140638761635e-01
3.350000000000000089e+00,1.684950984453809261e+09,-7.787212397138225384e-02,-1.168212527826949509e+00,0.000000000000000000e+00,-2.336425055653899019e+00,9.243096210900718368e-02,1.588874859255935412e-01,2.065513042010246325e-01
3.366666666666666696e+00,1.684950984468807936e+09,-8.030326237602646022e-02,-8.660309540325048516e-01,6.684626004189004878e-01,-2.400524508483909969e+00,3.460137224981820608e-02,1.621866412243826439e-01,1.893949892058574003e-01
3.383333333333333304e+00,1.684950984486823797e+09,-8.250063187712765311e-02,-7.211380880732267684e-01,9.902980587524613521e-01,-2.432574234898914778e+00,-2.227658641545130630e-02,1.652143842416189667e-01,1.739770016138097730e-01
3.399999999999999911e+00,1.684950984503808498e+09,-8.446824163397124996e-02,-5.995845275563066457e-01,1.297504632616312659e+00,-2.496673687728925728e+00,-7.773846154332070268e-02,1.679964189556909515e-01,1.599062504147439889e-01
3.416666666666666519e+00,1.684950984522827148e+09,-8.621259486471333222e-02,-6.257157904742535193e-01,1.341391286025436003e+00,-2.592822866973942819e+00,-1.313272886756964020e-01,1.705348736303392287e-01,1.447504110875965366e-01
3.433333333333333126e+00,1.684950984534808874e+09,-8.774267203297649032e-02,-7.295139605000002803e-01,1.165844672388947290e+00,-2.624872593388948072e+00,-1.825974028331756038e-01,1.728014062061725975e-01,1.272820224562102309e-01
3.449999999999999734e+00,1.684950984554848194e+09,-8.906988988950328978e-02,-9.458207215241426491e-01,8.293803295856796431e-01,-2.721021772633965163e+00,-2.311182034386056738e-01,1.747426335990832358e-01,1.057251463139204373e-01
3.466666666666666785e+00,1.684950984570853949e+09,-9.020803628097091853e-02,-1.096297502434600668e+00,6.245759470097795862e-01,-2.817170951878980922e+00,-2.764778399794788344e-01,1.763005081457496570e-01,8.128768272701937525e-02
3.483333333333333393e+00,1.684950984588836908e+09,-9.117318087758798095e-02,-1.142976113319314369e+00,5.953181780703631354e-01,-2.881270404708991872e+00,-3.182867860240539692e-01,1.774422450017827668e-01,5.579156421526344778e-02
3.500000000000000000e+00,1.684950984606810808e+09,-9.198356221342250671e-02,-1.456660065561998341e+00,0.000000000000000000e+00,-2.913320131123996681e+00,-3.561812696956171420e-01,1.781140078969013218e-01,2.490577906585131340e-02
3.516666666666666607e+00,1.684950984622808218e+09,-9.265945167605267596e-02,-1.131139186325197832e+00,6.830914848886073809e-01,-2.945369857539002822e+00,-3.898265294819561744e-01,1.783155876724483169e-01,-6.452293064815664558e-04
3.533333333333333215e+00,1.684950984638844013e+09,-9.322299532262250110e-02,-1.205679587411529363e+00,5.660604091309491270e-01,-2.977419583954007631e+00,-4.189198653103334835e-01,1.780805324830291025e-01,-2.748683166242674170e-02
3.549999999999999822e+00,1.684950984655843973e+09,-9.369803463517563380e-02,-1.488709791977003816e+00,0.000000000000000000e+00,-2.977419583954007631e+00,-4.431934561471038703e-01,1.773593796762980290e-01,-5.896406632443080414e-02
3.566666666666666430e+00,1.684950984675845623e+09,-9.410990755675846531e-02,-1.504734655184506886e+00,0.000000000000000000e+00,-3.009469310369013773e+00,-4.624169169778795663e-01,1.761130854271205914e-01,-9.050363161129312828e-02
3.583333333333333481e+00,1.684950984692810059e+09,-9.448523136872342965e-02,-1.488709791977003816e+00,0.000000000000000000e+00,-2.977419583954007631e+00,-4.763995698791646527e-01,1.743457700880966799e-01,-1.214881389698720393e-01
3.600000000000000089e+00,1.684950984708811998e+09,-9.485166917654148933e-02,-1.504734655184506886e+00,0.000000000000000000e+00,-3.009469310369013773e+00,-4.849924059929861531e-01,1.720629256797994167e-01,-1.523674122478663184e-01
3.616666666666666696e+00,1.684950984726810694e+09,-9.523768196390385021e-02,-1.504734655184506886e+00,0.000000000000000000e+00,-3.009469310369013773e+00,-4.880897175477958427e-01,1.692692639752845229e-01,-1.827874900888898091e-01
3.633333333333333304e+00,1.684950984744812250e+09,-9.567226835077655145e-02,-1.504734655184506886e+00,0.000000000000000000e+00,-3.009469310369013773e+00,-4.856303816148379027e-01,1.659731422944555890e-01,-2.126641190213832966e-01
3.649999999999999911e+00,1.684950984758834600e+09,-9.618469434826162900e-02,-1.504734655184506886e+00,0.000000000000000000e+00,-3.009469310369013773e+00,-4.775987800301454977e-01,1.621843127017992547e-01,-2.419141800156378308e-01
3.666666666666666519e+00,1.684950984777845621e+09,-9.680421553975346316e-02,-1.504734655184506886e+00,0.000000000000000000e+00,-3.009469310369013773e+00,-4.640253428276255865e-01,1.579138968955106359e-01,-2.704564308428847319e-01
3.683333333333333126e+00,1.684950984793844461e+09,-9.755979423219510172e-02,-1.504734655184506886e+00,0.000000000000000000e+00,-3.009469310369013773e+00,-4.449867055952069772e-01,1.531743488047681845e-01,-2.982122387651375273e-01
3.699999999999999734e+00,1.684950984810845852e+09,-9.847981421175691641e-02,-1.488709791977003816e+00,0.000000000000000000e+00,-2.977419583954007631e+00,-4.206054743596296386e-01,1.479816184712870464e-01,-3.248414295372669680e-01
3.716666666666666785e+00,1.684950984827867985e+09,-9.959179580366758766e-02,-1.504734655184506886e+00,0.000000000000000000e+00,-3.009469310369013773e+00,-3.910495948999064275e-01,1.423506152394367341e-01,-3.508068304734902054e-01
3.733333333333333393e+00,1.684950984845809460e+09,-1.009221139751912272e-01,-1.504734655184506886e+00,0.000000000000000000e+00,-3.009469310369013773e+00,-3.565313267581275425e-01,1.362952093598687187e-01,-3.757725242929660925e-01
3.750000000000000000e+00,1.684950984861843348e+09,-1.024957222330638434e-01,-1.504734655184506886e+00,0.000000000000000000e+00,-3.009469310369013773e+00,-3.173058256304027713e-01,1.298325747031850996e-01,-3.996772309831976289e-01
3.766666666666666607e+00,1.684950984878843069e+09,-1.043358850515670178e-01,-1.504734655184506886e+00,0.000000000000000000e+00,-3.009469310369013773e+00,-2.736693412517536284e-01,1.229808570913424881e-01,-4.224655799786260491e-01
3.783333333333333215e+00,1.684950984895843983e+09,-1.064639215245702097e-01,-1.504734655184506886e+00,0.000000000000000000e+00,-3.009469310369013773e+00,-2.259570413072060080e-01,1.157590712477187811e-01,-4.440886557431975579e-01
3.799999999999999822e+00,1.684950984914866209e+09,-1.088989628643604185e-01,-1.488709791977003816e+00,0.000000000000000000e+00,-2.977419583954007631e+00,-1.745404752769506573e-01,1.081892024418904252e-01,-4.642396247249351293e-01
3.816666666666666430e+00,1.684950984929845333e+09,-1.116577262722343450e-01,-1.504734655184506886e+00,0.000000000000000000e+00,-3.009469310369013773e+00,-1.198246954269543418e-01,1.002916114236359346e-01,-4.834180228835383009e-01
3.833333333333333481e+00,1.684950984947810650e+09,-1.147543075812509500e-01,-1.488709791977003816e+00,0.000000000000000000e+00,-2.977419583954007631e+00,-6.224505535764950082e-02,9.208719565671365237e-02,-5.010628545721935723e-01
3.850000000000000089e+00,1.684950984964809895e+09,-1.181999949211490625e-01,-1.488709791977003816e+00,0.000000000000000000e+00,-2.977419583954007631e+00,-2.263709593522642526e-03,8.359942112801012348e-02,-5.174246384029987933e-01
3.866666666666666696e+00,1.684950984980846167e+09,-1.220031054804080473e-01,-1.488709791977003816e+00,0.000000000000000000e+00,-2.977419583954007631e+00,5.963415939319240133e-02,7.484975946442297412e-02,-5.324929039491418381e-01
3.883333333333333304e+00,1.684950984998844624e+09,-1.261688472421998997e-01,-1.456660065561998341e+00,0.000000000000000000e+00,-2.913320131123996681e+00,1.229443576082875078e-01,6.586421243846106444e-02,-5.457359520557417687e-01
3.899999999999999911e+00,1.684950985016846657e+09,-1.306992073512942831e-01,-1.392560612731987391e+00,0.000000000000000000e+00,-2.785121225463974781e+00,1.871479077842170824e-01,5.667749835526289526e-02,-5.566394497216731185e-01
3.916666666666666519e+00,1.684950985031843662e+09,-1.355928685297692893e-01,-1.328461159901977107e+00,0.000000000000000000e+00,-2.656922319803954213e+00,2.517154555535012772e-01,4.732833685782791844e-02,-5.652360499633793944e-01
3.933333333333333126e+00,1.684950985047843218e+09,-1.408451547028394535e-01,-1.216287117449457389e+00,0.000000000000000000e+00,-2.432574234898914778e+00,3.161118176376934152e-01,3.786147404879083161e-02,-5.707721088178716595e-01
3.949999999999999734e+00,1.684950985066845655e+09,-1.464480067246504702e-01,-1.023988758959424539e+00,0.000000000000000000e+00,-2.047977517918849077e+00,3.798006344144939650e-01,2.833846531176827110e-02,-5.719855688232645674e-01
3.966666666666666785e+00,1.684950985084845543e+09,-1.523899888100657407e-01,-8.316904004693921326e-01,0.000000000000000000e+00,-1.663380800938784265e+00,4.422490877978558221e-01,1.883058560179119711e-02,-5.689683776578130514e-01
3.983333333333333393e+00,1.684950985102843046e+09,-1.586563259850384822e-01,-6.874666316018670509e-01,0.000000000000000000e+00,-1.374933263203734102e+00,5.029326442563140098e-01,9.400877577305928948e-03,-5.626142360890870053e-01
4.000000000000000000e+00,1.684950985117810965e+09,-1.652289725680128885e-01,-5.592677259418450397e-01,0.000000000000000000e+00,-1.118535451883690079e+00,5.613397820166448060e-01,1.019683949236814546e-04,-5.532807926387914854e-01
4.016666666666666607e+00,1.684950985134835005e+09,-1.720867113908763069e-01,-4.150439570743206241e-01,0.000000000000000000e+00,-8.300879141486412482e-01,6.169766610650121441e-01,-9.015067684071932652e-03,-5.407982114932843309e-01
4.033333333333333215e+00,1.684950985150865316e+09,-1.792052831634021737e-01,-1.906958721692821324e-01,0.000000000000000000e+00,-3.813917443385642647e-01,6.693716944744617647e-01,-1.788756094672358521e-02,-5.239477878588796322e-01
4.049999999999999822e+00,1.684950985169865847e+09,-1.865575450829401738e-01,3.365221273575574185e-02,0.000000000000000000e+00,6.730442547151148369e-02,7.180799798617124585e-01,-2.644382652227671854e-02,-5.028626524067020265e-01
4.066666666666666430e+00,1.684950985185807943e+09,-1.941136574944747617e-01,1.778759816032801921e-01,0.000000000000000000e+00,3.557519632065603843e-01,7.626875504100621983e-01,-3.462550398423490383e-02,-4.790049160778547810e-01
4.083333333333333037e+00,1.684950985202843189e+09,-2.018412971181721138e-01,3.220997504708058012e-01,0.000000000000000000e+00,6.441995009416116025e-01,8.028154058888827826e-01,-4.238738501148416049e-02,-4.524944491112773970e-01
4.099999999999999645e+00,1.684950985222809553e+09,-2.097058950852199732e-01,4.502986561308278124e-01,0.000000000000000000e+00,9.005973122616556248e-01,8.381232854494806706e-01,-4.968850292278933350e-02,-4.237196321736337312e-01
4.116666666666666252e+00,1.684950985237808228e+09,-2.176708977611100659e-01,5.464478353758437379e-01,0.000000000000000000e+00,1.092895670751687476e+00,8.683131456760090350e-01,-5.649656493270232421e-02,-3.933322204795232091e-01
4.133333333333332860e+00,1.684950985254843950e+09,-2.256980480913350628e-01,5.945224249983522835e-01,0.000000000000000000e+00,1.189044849996704567e+00,8.931323094083000180e-01,-6.279229908392719439e-02,-3.622422407548541168e-01
4.150000000000000355e+00,1.684950985272847652e+09,-2.337476849805263934e-01,6.746467410358656380e-01,0.000000000000000000e+00,1.349293482071731276e+00,9.123762532185218932e-01,-6.856043627628809201e-02,-3.300237203249201112e-01
4.166666666666666963e+00,1.684950985289844513e+09,-2.417790580147985702e-01,7.066964674508705579e-01,0.000000000000000000e+00,1.413392934901741116e+00,9.258910040993931778e-01,-7.378975477792851234e-02,-2.975846106307752925e-01
4.183333333333333570e+00,1.684950985305843592e+09,-2.497506546608893319e-01,7.066964674508705579e-01,0.000000000000000000e+00,1.413392934901741116e+00,9.335751188896739272e-01,-7.848184062358133650e-02,-2.655546650127800778e-01
4.200000000000000178e+00,1.684950985322844982e+09,-2.576205369265790468e-01,7.227213306583742947e-01,0.000000000000000000e+00,1.445442661316748589e+00,9.353812232012644889e-01,-8.264205521220747974e-02,-2.337594078598266290e-01
4.216666666666666785e+00,1.684950985340825081e+09,-2.653466843467745528e-01,7.227213306583742947e-01,0.000000000000000000e+00,1.445442661316748589e+00,9.313170900974443445e-01,-8.627730176515946425e-02,-2.025568542942776662e-01
4.233333333333333393e+00,1.684950985355867386e+09,-2.728873400699994289e-01,7.547710570733791036e-01,0.000000000000000000e+00,1.509542114146758207e+00,9.214462424768670168e-01,-8.939375211314756764e-02,-1.715034489537854423e-01
4.250000000000000000e+00,1.684950985370866776e+09,-2.802013567621574053e-01,7.707959202808816190e-01,0.000000000000000000e+00,1.541591840561763238e+00,9.058880670142638314e-01,-9.199687035815699854e-02,-1.409555975871902567e-01
4.266666666666666607e+00,1.684950985392843485e+09,-2.872485390192365817e-01,7.868207834883852447e-01,0.000000000000000000e+00,1.573641566976770489e+00,8.848174315653443145e-01,-9.409577395610943529e-02,-1.109960570716756606e-01
4.283333333333333215e+00,1.684950985407845259e+09,-2.939899789887001069e-01,7.868207834883852447e-01,0.000000000000000000e+00,1.573641566976770489e+00,8.584638021275668995e-01,-9.570312988193589721e-02,-8.196729138558332683e-02
4.299999999999999822e+00,1.684950985423807859e+09,-3.003883819409404188e-01,7.868207834883852447e-01,0.000000000000000000e+00,1.573641566976770489e+00,8.271098597262590557e-01,-9.683501313609775563e-02,-5.393656407784407081e-02
4.316666666666666430e+00,1.684950985441843987e+09,-3.064083786072737681e-01,7.868207834883852447e-01,0.000000000000000000e+00,1.573641566976770489e+00,7.910896219310763477e-01,-9.750856435305689518e-02,-2.696450610389390656e-02
4.333333333333333037e+00,1.684950985459856033e+09,-3.120168212090659865e-01,7.707959202808816190e-01,0.000000000000000000e+00,1.541591840561763238e+00,7.507860780652055865e-01,-9.774408677224706576e-02,-1.369283712268951070e-03
4.349999999999999645e+00,1.684950985477807760e+09,-3.171830602429890900e-01,7.547710570733791036e-01,0.000000000000000000e+00,1.509542114146758207e+00,7.066283515112955493e-01,-9.756486982579205824e-02,2.280815615102061572e-02
4.366666666666666252e+00,1.684950985492865562e+09,-3.218791992589035700e-01,1.096316799517682794e+00,6.830914848886073809e-01,1.509542114146758207e+00,6.590884068069461366e-01,-9.694542672085572355e-02,5.144546648482808959e-02
4.383333333333332860e+00,1.684950985510844707e+09,-3.260803250680636145e-01,7.387461938658766991e-01,0.000000000000000000e+00,1.477492387731753398e+00,6.086773234206174221e-01,-9.590900114440947810e-02,7.286609952982341099e-02
4.400000000000000355e+00,1.684950985528845787e+09,-3.297647110484169808e-01,7.387461938658766991e-01,0.000000000000000000e+00,1.477492387731753398e+00,5.559411621694047012e-01,-9.452580759064360683e-02,9.306102857664555472e-02
4.416666666666666963e+00,1.684950985544847488e+09,-3.329139914686373714e-01,6.746467410358656380e-01,0.000000000000000000e+00,1.349293482071731276e+00,5.014564541458081948e-01,-9.282520012324119163e-02,1.109621410289376997e-01
4.433333333333333570e+00,1.684950985561844826e+09,-3.355133050308036213e-01,6.105472882058546880e-01,0.000000000000000000e+00,1.221094576411709376e+00,4.458253457266518893e-01,-9.084525053707978581e-02,1.265884020083180572e-01
4.450000000000000178e+00,1.684950985576809883e+09,-3.375514061306670310e-01,5.624726985833461423e-01,0.000000000000000000e+00,1.124945397166692285e+00,3.896704367081435527e-01,-8.862141780525205348e-02,1.402336215313484957e-01
4.466666666666666785e+00,1.684950985594845533e+09,-3.390207426513136002e-01,5.143981089608388180e-01,0.000000000000000000e+00,1.028796217921677636e+00,3.336293518144521353e-01,-8.618642994148446868e-02,1.519324246805024148e-01
4.483333333333333393e+00,1.684950985612845182e+09,-3.399174994376483738e-01,4.502986561308278124e-01,0.000000000000000000e+00,9.005973122616556248e-01,2.783490887319613472e-01,-8.357456665568818721e-02,1.614646904757526258e-01
4.500000000000000000e+00,1.684950985628845692e+09,-3.402416069421367872e-01,3.701743400933131811e-01,0.000000000000000000e+00,7.403486801866263622e-01,2.244801883977769752e-01,-8.082365608451638761e-02,1.686246887127656469e-01
4.516666666666666607e+00,1.684950985647844791e+09,-3.399967148832674368e-01,2.580002976407948512e-01,0.000000000000000000e+00,5.160005952815897023e-01,1.726707754939824091e-01,-7.797705062860033065e-02,1.729559344757625461e-01
4.533333333333333215e+00,1.684950985661845684e+09,-3.391901311135605557e-01,1.458262551882752722e-01,0.000000000000000000e+00,2.916525103765505444e-01,1.235605189428293782e-01,-7.508113264498154915e-02,1.745497960609955213e-01
4.549999999999999822e+00,1.684950985679866552e+09,-3.378327262500842032e-01,4.967707594325939530e-02,0.000000000000000000e+00,9.935415188651879059e-02,7.777456364348565854e-02,-7.217847459817114397e-02,1.737713320072975243e-01
4.566666666666666430e+00,1.684950985696845770e+09,-3.359388049735739790e-01,3.110985023500490443e-01,6.830914848886073809e-01,-6.089448018850930622e-02,3.591748571853382865e-02,-6.925835709304357934e-02,1.766348143033130147e-01
4.583333333333333037e+00,1.684950985714866400e+09,-3.335259452486946663e-01,-1.265964193392711545e-01,0.000000000000000000e+00,-2.531928386785423091e-01,-1.432675865385500246e-03,-6.635652385252145680e-02,1.715991628093799515e-01
4.599999999999999645e+00,1.684950985732811213e+09,-3.306148070540618766e-01,1.741891757173775201e-01,6.977203693583143851e-01,-3.493420179235594003e-01,-3.373025828467199339e-02,-6.350083891192796759e-02,1.710844598259982363e-01
4.616666666666666252e+00,1.684950985749866486e+09,-3.272289125327243475e-01,2.372271983554697927e-01,8.878958674645099913e-01,-4.134414707535703504e-01,-6.046763173247236139e-02,-6.064864739957881445e-02,1.711782610906990298e-01
4.633333333333332860e+00,1.684950985765846729e+09,-3.233943997784055058e-01,2.577745463222347322e-01,9.610402898130447902e-01,-4.454911971685752703e-01,-8.118062220809585394e-02,-5.779492836732143951e-02,1.712677741270106357e-01
4.650000000000000355e+00,1.684950985785848379e+09,-3.191397527565652537e-01,1.188001438600160553e-01,6.830914848886073809e-01,-4.454911971685752703e-01,-9.545364945582922311e-02,-5.496089642616836662e-02,1.688228504259273455e-01
4.666666666666666963e+00,1.684950985802809000e+09,-3.144955101190845537e-01,-2.227455985842876351e-01,0.000000000000000000e+00,-4.454911971685752703e-01,-1.029245309406817133e-01,-5.221548186953148263e-02,1.606496003772076298e-01
4.683333333333333570e+00,1.684950985819867849e+09,-3.094939559041615107e-01,-2.067207353767851752e-01,0.000000000000000000e+00,-4.134414707535703504e-01,-1.032889048447689362e-01,-4.960299621906825995e-02,1.528702873897185011e-01
4.700000000000000178e+00,1.684950985835842848e+09,-3.041687953161447133e-01,-1.906958721692821324e-01,0.000000000000000000e+00,-3.813917443385642647e-01,-9.630422759435908198e-02,-4.711591321326255577e-02,1.455998693878521044e-01
4.716666666666666785e+00,1.684950985851843357e+09,-2.985548189510822126e-01,-1.906958721692821324e-01,0.000000000000000000e+00,-3.813917443385642647e-01,-8.179330436861546871e-02,-4.474699539110267577e-02,1.386894652900605984e-01
4.733333333333333393e+00,1.684950985869821072e+09,-2.926875589706698921e-01,-1.906958721692821324e-01,0.000000000000000000e+00,-3.813917443385642647e-01,-5.964731437766510741e-02,-4.248923768692281638e-02,1.322593211434316129e-01
4.750000000000000000e+00,1.684950985887809992e+09,-2.866029408282508295e-01,-1.906958721692821324e-01,0.000000000000000000e+00,-3.813917443385642647e-01,-2.982829640695647613e-02,-4.033364229949450153e-02,1.264283229463993297e-01
4.766666666666666607e+00,1.684950985903844833e+09,-2.803369342141588394e-01,-2.067207353767851752e-01,0.000000000000000000e+00,-4.134414707535703504e-01,7.628935819504143248e-03,-3.827146458546655527e-02,1.210479485730833610e-01
4.783333333333333215e+00,1.684950985919865608e+09,-2.739252069130173051e-01,-2.227455985842876351e-01,0.000000000000000000e+00,-4.454911971685752703e-01,5.261547453187444962e-02,-3.629421643659566654e-02,1.162351983566722591e-01
4.799999999999999822e+00,1.684950985939845324e+09,-2.674027852519160198e-01,-2.547953249992931379e-01,0.000000000000000000e+00,-5.095906499985862759e-01,1.049476164814011347e-01,-3.439371463451634803e-02,1.118372347459614113e-01
4.816666666666666430e+00,1.684950985952845573e+09,-2.608037247655509705e-01,-2.868450514142986130e-01,0.000000000000000000e+00,-5.736901028285972259e-01,1.643667956942066466e-01,-3.256212449454350816e-02,1.079643403439870392e-01
4.833333333333333037e+00,1.684950985969872236e+09,-2.541607946125475914e-01,-3.349196410368071586e-01,0.000000000000000000e+00,-6.698392820736143172e-01,2.305401618087456472e-01,-3.079204785645646425e-02,1.044546057187656363e-01
4.849999999999999645e+00,1.684950985987845182e+09,-2.475051791469435325e-01,-3.509445042443096185e-01,0.000000000000000000e+00,-7.018890084886192371e-01,3.030618101070364223e-01,-2.907217866501174419e-02,1.019366916250330352e-01
4.866666666666666252e+00,1.684950986005847216e+09,-2.408661998811850169e-01,-3.669693674518120785e-01,0.000000000000000000e+00,-7.339387349036241570e-01,3.814546639355604896e-01,-2.738531263492716833e-02,1.004912472030109333e-01
4.883333333333332860e+00,1.684950986022865534e+09,-2.342710608734291100e-01,-3.509445042443096185e-01,0.000000000000000000e+00,-7.018890084886192371e-01,4.651730047126978462e-01,-2.570856111860147716e-02,1.007183040278250424e-01
4.900000000000000355e+00,1.684950986039837837e+09,-2.277446203342259612e-01,-3.669693674518120785e-01,0.000000000000000000e+00,-7.339387349036241570e-01,5.536056391823078737e-01,-2.401805568556804327e-02,1.021384031236332035e-01
4.916666666666666963e+00,1.684950986055807829e+09,-2.213091909780520450e-01,-3.669693674518120785e-01,0.000000000000000000e+00,-7.339387349036241570e-01,6.460796880421496580e-01,-2.229130551729643223e-02,1.050634916318672202e-01
4.933333333333333570e+00,1.684950986072847605e+09,-2.149843713461414008e-01,-3.669693674518120785e-01,0.000000000000000000e+00,-7.339387349036241570e-01,7.418649745993100009e-01,-2.050297797699850849e-02,1.095234242106942618e-01
4.950000000000000178e+00,1.684950986089844704e+09,-2.087869100016198354e-01,-3.669693674518120785e-01,0.000000000000000000e+00,-7.339387349036241570e-01,8.401789867287262625e-01,-1.862735505475545533e-02,1.155346282763997784e-01
4.966666666666666785e+00,1.684950986107809782e+09,-2.027306041492152877e-01,-3.509445042443096185e-01,0.000000000000000000e+00,-7.018890084886192371e-01,9.401923801812738235e-01,-1.663634840667931741e-02,1.233644195606063698e-01
4.983333333333333393e+00,1.684950986123809814e+09,-1.968262338633316177e-01,-3.188947778293041435e-01,0.000000000000000000e+00,-6.377895556586082870e-01,1.041034986252494798e+00,-1.449757153660630876e-02,1.332613128309198813e-01
5.000000000000000000e+00,1.684950986142809868e+09,-1.910815327237709860e-01,-2.387704617917906780e-01,0.000000000000000000e+00,-4.775409235835813559e-01,1.141802282024076964e+00,-1.217022856951539139e-02,1.459845002010337345e-01
5.016666666666666607e+00,1.684950986158809900e+09,-1.842706766322928513e-01,-1.265964193392711545e-01,0.000000000000000000e+00,-2.531928386785423091e-01,1.241562276873934501e+00,-9.603317377596124610e-03,1.620003533013588681e-01
5.033333333333333215e+00,1.684950986178836107e+09,-1.777095621828666261e-01,6.570193915076183444e-02,0.000000000000000000e+00,1.314038783015236689e-01,1.330478127482617623e+00,-6.732845971414600991e-03,1.823995496724003240e-01
5.049999999999999822e+00,1.684950986194845438e+09,-1.713925067923562917e-01,2.099257080182862778e-01,0.000000000000000000e+00,4.198514160365725556e-01,1.415305248814422434e+00,-3.493568882986304146e-03,2.062474551978505100e-01
5.066666666666666430e+00,1.684950986211847544e+09,-1.653112199823990602e-01,3.220997504708058012e-01,0.000000000000000000e+00,6.441995009416116025e-01,1.495168075984101952e+00,1.664036411753197324e-04,2.328752797812706776e-01
5.083333333333333037e+00,1.684950986228808403e+09,-1.594550356627457699e-01,4.342737929233241867e-01,0.000000000000000000e+00,8.685475858466483734e-01,1.569217671280484616e+00,4.292216695075410163e-03,2.621409911307673868e-01
5.099999999999999645e+00,1.684950986245843649e+09,-1.538111676310905396e-01,5.143981089608388180e-01,0.000000000000000000e+00,1.028796217921677636e+00,1.636638916056542881e+00,8.922128476626659671e-03,2.933616964328391585e-01
5.116666666666666252e+00,1.684950986265845299e+09,-1.483649852256109791e-01,5.945224249983522835e-01,0.000000000000000000e+00,1.189044849996704567e+00,1.696657474298803869e+00,1.408742973087399701e-02,3.263827268335444121e-01
5.133333333333332860e+00,1.684950986280846119e+09,-1.431003058685344220e-01,6.586218778283632336e-01,0.000000000000000000e+00,1.317243755656726467e+00,1.748546471213054065e+00,1.981454099315783923e-02,3.607750880552841877e-01
5.150000000000000355e+00,1.684950986298851490e+09,-1.379997010756999765e-01,7.066964674508705579e-01,0.000000000000000000e+00,1.413392934901741116e+00,1.791632832294148603e+00,2.612269918170913655e-02,3.961057515291498410e-01
5.166666666666666963e+00,1.684950986314845324e+09,-1.330448123798816384e-01,7.227213306583742947e-01,0.000000000000000000e+00,1.445442661316748589e+00,1.825303230915798824e+00,3.302168580698388450e-02,4.316738409301112966e-01
5.183333333333333570e+00,1.684950986330846310e+09,-1.282166735258151169e-01,7.387461938658766991e-01,0.000000000000000000e+00,1.477492387731753398e+00,1.849009595461009958e+00,4.051404893702108267e-02,4.673107409555222191e-01
5.200000000000000178e+00,1.684950986347843647e+09,-1.234960352433114722e-01,7.387461938658766991e-01,0.000000000000000000e+00,1.477492387731753398e+00,1.862274130393522409e+00,4.859727031858533663e-02,5.025778583116146114e-01
5.216666666666666785e+00,1.684950986366843224e+09,-1.188636888919436807e-01,1.029090840666204709e+00,5.806892936006561312e-01,1.477492387731753398e+00,1.864693809416752890e+00,5.730384263233501141e-02,5.421010301659142661e-01
5.233333333333333393e+00,1.684950986383865595e+09,-1.143007852967277693e-01,1.013065977458702305e+00,5.806892936006561312e-01,1.445442661316748589e+00,1.855944302952039937e+00,6.666025366847141975e-02,5.805614571366235488e-01
5.250000000000000000e+00,1.684950986400866747e+09,-1.097891451585736033e-01,1.045450252419584558e+00,7.416070227674378401e-01,1.349293482071731276e+00,1.835783306558867123e+00,7.665404793275730488e-02,6.185882221886451759e-01
5.266666666666666607e+00,1.684950986416808367e+09,-1.053115575254085778e-01,1.083752990877523636e+00,9.464114053433378970e-01,1.221094576411709376e+00,1.804053241582735501e+00,8.727727715975452938e-02,6.560950968359856583e-01
5.283333333333333215e+00,1.684950986432866096e+09,-1.008520629486632791e-01,9.569500639552972476e-01,9.171536364039239997e-01,9.967464915066702735e-01,1.760683304214257117e+00,9.849693613503909817e-02,6.901693273301936493e-01
5.299999999999999822e+00,1.684950986450866461e+09,-9.639621812378240673e-02,6.883807770952609095e-01,6.684626004189004878e-01,7.082989537716214423e-01,1.705690844237407466e+00,1.102351020922547747e-01,7.183323550618557762e-01
5.316666666666666430e+00,1.684950986468859196e+09,-9.193133902079289599e-02,2.580002976407948512e-01,0.000000000000000000e+00,5.160005952815897023e-01,1.639182059995872187e+00,1.223701313605201901e-01,7.378170317542014356e-01
5.333333333333333037e+00,1.684950986484850407e+09,-8.744671974954025540e-02,2.259505712257887378e-01,0.000000000000000000e+00,4.519011424515774755e-01,1.561352001472230855e+00,1.348120373563350960e-01,7.551635019700202456e-01
5.349999999999999645e+00,1.684950986502808809e+09,-8.293382467153839754e-02,2.259505712257887378e-01,0.000000000000000000e+00,4.519011424515774755e-01,1.472483878813418690e+00,1.475283807765144506e-01,7.707543993838277263e-01
5.366666666666666252e+00,1.684950986518844843e+09,-7.838645156369647427e-02,1.939008448107838178e-01,0.000000000000000000e+00,3.878016896215676357e-01,1.372947679104146834e+00,1.604842443506198646e-01,7.839126778749712088e-01
5.383333333333332860e+00,1.684950986536868572e+09,-7.380086395547340306e-02,1.458262551882752722e-01,0.000000000000000000e+00,2.916525103765505444e-01,1.263198099645000960e+00,1.736357963852702413e-01,7.942448650875421068e-01
5.400000000000000355e+00,1.684950986554845095e+09,-6.917589109697322436e-02,6.570193915076183444e-02,0.000000000000000000e+00,1.314038783015236689e-01,1.143771811390369431e+00,1.869305624242420527e-01,8.011079948909224369e-01
5.416666666666666963e+00,1.684950986570865631e+09,-6.451299436772964246e-02,-1.442237688675220356e-02,0.000000000000000000e+00,-2.884475377350440711e-02,1.015284071500422991e+00,2.003099524197678172e-01,8.044096331389578580e-01
5.433333333333333570e+00,1.684950986587845087e+09,-5.981629930074770091e-02,-1.426212825467741974e-01,0.000000000000000000e+00,-2.852425650935483947e-01,8.784247091194723467e-01,2.137073037152669996e-01,8.032756722863370058e-01
5.450000000000000178e+00,1.684950986605873585e+09,-5.509259277007147459e-02,-2.547953249992931379e-01,0.000000000000000000e+00,-5.095906499985862759e-01,7.339535134687530382e-01,2.270504643181158744e-01,7.979184814913125035e-01
5.466666666666666785e+00,1.684950986621868372e+09,-5.035128526885754990e-02,-3.829942306593151491e-01,0.000000000000000000e+00,-7.659884613186302982e-01,5.826950580966916426e-01,2.402664795554331212e-01,7.880308133779515556e-01
5.483333333333333393e+00,1.684950986638843060e+09,-4.560433858476566071e-02,-5.592677259418450397e-01,0.000000000000000000e+00,-1.118535451883690079e+00,4.255329996241773993e-01,2.532730117287884108e-01,7.727953690993017988e-01
5.500000000000000000e+00,1.684950986655843496e+09,-4.086615955652654619e-02,-6.874666316018670509e-01,0.000000000000000000e+00,-1.374933263203734102e+00,2.634038935236715506e-01,2.659876239081490068e-01,7.530130446186379389e-01
5.516666666666666607e+00,1.684950986672809362e+09,-3.615346096592240988e-02,-8.637401268843969415e-01,0.000000000000000000e+00,-1.727480253768793883e+00,9.729057334226554055e-02,2.783279723862336352e-01,7.278985369148511797e-01
5.533333333333333215e+00,1.684950986690845013e+09,-3.148509097930280581e-02,-1.040013622166927609e+00,0.000000000000000000e+00,-2.080027244333855219e+00,-7.178485670733586455e-02,2.902055147983712002e-01,6.974910198548092133e-01
5.549999999999999822e+00,1.684950986707845688e+09,-2.688183289845443025e-02,-1.232311980656960460e+00,0.000000000000000000e+00,-2.464623961313920919e+00,-2.427683627389302656e-01,3.015302884885419643e-01,6.615815737747069436e-01
5.566666666666666430e+00,1.684950986724848032e+09,-2.236617730855780875e-02,-1.424610339146992866e+00,0.000000000000000000e+00,-2.849220678293985731e+00,-4.145816000040663529e-01,3.122112399660345039e-01,6.202474233113633995e-01
5.583333333333333037e+00,1.684950986740865946e+09,-1.796206901771321349e-02,-1.552809244807014988e+00,0.000000000000000000e+00,-3.105618489614029976e+00,-5.861297514795800190e-01,3.221675968161945014e-01,5.746420831897601778e-01
5.599999999999999645e+00,1.684950986757843971e+09,-1.369463146494568490e-02,-1.761132466504550909e+00,0.000000000000000000e+00,-3.522264933009101817e+00,-7.563095263592884976e-01,3.313178846739117667e-01,5.235344287843122224e-01
5.616666666666666252e+00,1.684950986775843620e+09,-9.589871528689689062e-03,-1.969455688202086385e+00,0.000000000000000000e+00,-3.938911376404172771e+00,-9.240172572178808608e-01,3.395714997234702826e-01,4.670562646444209043e-01
5.633333333333332860e+00,1.684950986791809797e+09,-5.674367892954763556e-03,-2.129704320277113982e+00,0.000000000000000000e+00,-4.259408640554227965e+00,-1.088157033730614121e+00,3.468468081407213299e-01,4.061499336603743848e-01
5.650000000000000355e+00,1.684950986810845375e+09,-1.974946321219275998e-03,-2.273928089144638065e+00,0.000000000000000000e+00,-4.547856178289276130e+00,-1.247648810435523004e+00,3.530734741116978159e-01,3.412303193630618625e-01
5.666666666666666963e+00,1.684950986826845646e+09,1.481654653406014408e-03,-2.322002678767146833e+00,0.000000000000000000e+00,-4.644005357534293665e+00,-1.401436426115303169e+00,3.581992319320524421e-01,2.740472431279997734e-01
5.683333333333333570e+00,1.684950986841809750e+09,4.669123990723582883e-03,-2.017029147497110486e+00,6.099470625400725821e-01,-4.644005357534293665e+00,-1.548495472955091934e+00,3.622363624025523032e-01,2.105847023166298460e-01
5.700000000000000178e+00,1.684950986861843109e+09,7.561920642630998515e-03,-2.040368452939467669e+00,5.953181780703631354e-01,-4.676055083949298918e+00,-1.687840954696841811e+00,3.652020792333512955e-01,1.454821620252257086e-01
5.716666666666666785e+00,1.684950986878845453e+09,1.013561452610538607e-02,-2.354052405182152530e+00,0.000000000000000000e+00,-4.708104810364305060e+00,-1.818534674549828090e+00,3.670303680555080383e-01,7.411075520753593326e-02
5.733333333333333393e+00,1.684950986895845413e+09,1.236722219932761581e-02,-2.098549442272419352e+00,6.392048314794865904e-01,-4.836303716024325183e+00,-1.939692295621953999e+00,3.676975471306743182e-01,6.139547167463454969e-03
5.750000000000000000e+00,1.684950986913845539e+09,1.423553350152153424e-02,-2.466226447634671359e+00,0.000000000000000000e+00,-4.932452895269342719e+00,-2.050490019089558302e+00,3.671751737873851229e-01,-6.861668726798450524e-02
5.766666666666666607e+00,1.684950986928844690e+09,1.572142548718086230e-02,-2.514301037257179239e+00,0.000000000000000000e+00,-5.028602074514358478e+00,-2.150170828207092377e+00,3.653967805225069032e-01,-1.445794917608441421e-01
5.783333333333333215e+00,1.684950986946846485e+09,1.680816009371595421e-02,-2.260194053085243127e+00,6.684626004189004878e-01,-5.188850706589386519e+00,-2.238050249549284665e+00,3.623857919704616126e-01,-2.165392415860409869e-01
5.799999999999999822e+00,1.684950986964865923e+09,1.748166212714507423e-02,-2.690574532539709907e+00,0.000000000000000000e+00,-5.381149065079419813e+00,-2.313521586551844589e+00,3.581155448659202323e-01,-2.956705964663588482e-01
5.816666666666666430e+00,1.684950986980844498e+09,1.773077433193945285e-02,-2.478958223039099629e+00,5.514315246612422339e-01,-5.509347970739441713e+00,-2.376060584443817625e+00,3.525579621415919074e-01,-3.710299938667457886e-01
5.833333333333333037e+00,1.684950986998865604e+09,1.754748652673569081e-02,-2.802748574992228736e+00,0.000000000000000000e+00,-5.605497149984457472e+00,-2.425229490013866229e+00,3.457032848194165342e-01,-4.513082842946720130e-01
5.849999999999999645e+00,1.684950987017865419e+09,1.692713603529715991e-02,-2.834798301407233989e+00,0.000000000000000000e+00,-5.669596602814467978e+00,-2.460680474290247055e+00,3.375124008357979211e-01,-5.313753799060113581e-01
5.866666666666666252e+00,1.684950987034865856e+09,1.586857691937556408e-02,-2.834798301407233989e+00,0.000000000000000000e+00,-5.669596602814467978e+00,-2.482158391103776118e+00,3.279951576252668199e-01,-6.104740815706637402e-01
5.883333333333332860e+00,1.684950987051868200e+09,1.437431582435235930e-02,-2.834798301407233989e+00,0.000000000000000000e+00,-5.669596602814467978e+00,-2.489502849606386903e+00,3.171695134521936854e-01,-6.883867899144843205e-01
5.900000000000000355e+00,1.684950987067842960e+09,1.245061257662775922e-02,-2.834798301407233989e+00,0.000000000000000000e+00,-5.669596602814467978e+00,-2.482649584095236506e+00,3.050570320586615258e-01,-7.648984399459933803e-01
5.916666666666666963e+00,1.684950987085865259e+09,1.010754402055262513e-02,-2.834798301407233989e+00,0.000000000000000000e+00,-5.669596602814467978e+00,-2.461631109902272740e+00,2.916828274073601790e-01,-8.397980588165171456e-01
5.933333333333333570e+00,1.684950987102809429e+09,7.359029948689192746e-03,-2.834798301407233989e+00,0.000000000000000000e+00,-5.669596602814467978e+00,-2.426576659609468223e+00,2.770754826857801389e-01,-9.128802967785488720e-01
5.950000000000000178e+00,1.684950987121845484e+09,4.222820358810781827e-03,-2.818773438199731807e+00,0.000000000000000000e+00,-5.637546876399463613e+00,-2.377711399397595571e+00,2.612691574762311397e-01,-9.836820521956219920e-01
5.966666666666666785e+00,1.684950987138866901e+09,7.204436604322170257e-04,-2.754673985369720857e+00,0.000000000000000000e+00,-5.509347970739441713e+00,-2.315354930887823404e+00,2.443100483384705035e-01,-1.051223424995487044e+00
5.983333333333333393e+00,1.684950987154866219e+09,-3.122884151001210917e-03,-2.546350763672184492e+00,0.000000000000000000e+00,-5.092701527344368984e+00,-2.239919089347443659e+00,2.262737714455597959e-01,-1.112958312319570098e+00
6.000000000000000000e+00,1.684950987174822569e+09,-7.278388936881208249e-03,-2.273928089144638065e+00,0.000000000000000000e+00,-4.547856178289276130e+00,-2.151905054559908326e+00,2.072668903154936126e-01,-1.167715316917913082e+00
6.016666666666666607e+00,1.684950987190856218e+09,-1.171390566451043641e-02,-1.921381098579577840e+00,0.000000000000000000e+00,-3.842762197159155679e+00,-2.051899795963546325e+00,1.874174622493837150e-01,-1.214087237094188643e+00
6.033333333333333215e+00,1.684950987204833508e+09,-1.639408226262560608e-02,-1.632933560844529008e+00,0.000000000000000000e+00,-3.265867121689058017e+00,-1.940571878799973060e+00,1.668567909450626163e-01,-1.253084989783942671e+00
6.049999999999999822e+00,1.684950987221809864e+09,-2.128061850415625261e-02,-1.264361707071965935e+00,0.000000000000000000e+00,-2.528723414143931869e+00,-1.818666662943555945e+00,1.457192884225636254e-01,-1.283331293428368935e+00
6.066666666666666430e+00,1.684950987238811731e+09,-2.633253797149706296e-02,-9.118147165069054871e-01,0.000000000000000000e+00,-1.823629433013810974e+00,-1.687000930767269313e+00,1.241487381767488324e-01,-1.305074337303790299e+00
6.083333333333333037e+00,1.684950987257843733e+09,-3.150649081148522435e-02,-6.073423155643535853e-01,0.000000000000000000e+00,-1.214684631128707171e+00,-1.546456984802505819e+00,1.022802729062980837e-01,-1.319102527039453854e+00
6.099999999999999645e+00,1.684950987271809340e+09,-3.675708466020102122e-02,-3.509445042443096185e-01,0.000000000000000000e+00,-7.018890084886192371e-01,-1.397976260035507234e+00,8.023586407957930544e-02,-1.326206797617398569e+00
6.116666666666666252e+00,1.684950987289844990e+09,-4.203724081503130983e-02,-1.105715561317686946e-01,0.000000000000000000e+00,-2.211431122635373892e-01,-1.242552499419259160e+00,5.812869962752593989e-02,-1.326651700757862429e+00
6.133333333333332860e+00,1.684950987305850506e+09,-4.729857245618995787e-02,1.137765287732703939e-01,0.000000000000000000e+00,2.275530575465407879e-01,-1.081224544538631038e+00,3.606745134043169015e-02,-1.320714586066857432e+00
6.150000000000000355e+00,1.684950987323845148e+09,-5.249178147495162094e-02,4.022240665083192668e-01,0.000000000000000000e+00,8.044481330166385336e-01,-9.150687963198268493e-01,1.416712496030050894e-02,-1.307361671850251428e+00
6.166666666666666963e+00,1.684950987339868307e+09,-5.756707025381400944e-02,5.945224249983522835e-01,0.000000000000000000e+00,1.189044849996704567e+00,-7.451914032029569590e-01,-7.462473265201004236e-03,-1.288243223261493320e+00
6.183333333333333570e+00,1.684950987357865572e+09,-6.247456456680389875e-02,8.829699627334011147e-01,0.000000000000000000e+00,1.765939925466802229e+00,-5.727202362751830922e-01,-2.871240900907533894e-02,-1.261822458743315334e+00
6.200000000000000178e+00,1.684950987374869823e+09,-6.716474362814454924e-02,1.091293184430936591e+00,0.000000000000000000e+00,2.182586368861873183e+00,-3.987967124791519935e-01,-4.947285181560747563e-02,-1.229520408070920112e+00
6.216666666666666785e+00,1.684950987391865969e+09,-7.158887321600747311e-02,1.299616406128472068e+00,0.000000000000000000e+00,2.599232812256944136e+00,-2.245675281514213084e-01,-6.964655035708684772e-02,-1.191429228229823334e+00
6.233333333333333393e+00,1.684950987406809807e+09,-7.569943773620647909e-02,1.411790448580991564e+00,0.000000000000000000e+00,2.823580897161983128e+00,-5.117636580157197690e-02,-8.915121466540454342e-02,-1.149247662541848625e+00
6.250000000000000000e+00,1.684950987425876617e+09,-7.945056706926580115e-02,1.556014217448515868e+00,0.000000000000000000e+00,3.112028434897031737e+00,1.202443627911405910e-01,-1.079150820423361579e-01,-1.102546152160922777e+00
6.266666666666666607e+00,1.684950987441843987e+09,-8.279845406359701010e-02,1.636138533486030555e+00,0.000000000000000000e+00,3.272277066972061110e+00,2.885816744114998444e-01,-1.258727237048482273e-01,-1.052509840366785188e+00
6.283333333333333215e+00,1.684950987458819151e+09,-8.570175859758952241e-02,1.732287712731046536e+00,0.000000000000000000e+00,3.464575425462093072e+00,4.527500112332458193e-01,-1.429673826925995928e-01,-9.989978859796289079e-01
6.299999999999999822e+00,1.684950987475841045e+09,-8.812199423375695340e-02,1.518555291860137046e+00,-5.877134738168457995e-01,3.624824057537119781e+00,6.116990159906334767e-01,-1.591851335845081983e-01,-9.472758966235408362e-01
6.316666666666666430e+00,1.684950987495843172e+09,-9.002389362785169491e-02,1.598766173764543330e+00,-6.195900684980673034e-01,3.817122416027153964e+00,7.644210266177924318e-01,-1.745158223801163699e-01,-8.925587544882270796e-01
6.333333333333333037e+00,1.684950987511809587e+09,-9.137574903387336855e-02,1.574066541411149656e+00,-7.971882388648765527e-01,3.945321321687175864e+00,9.099582337005909238e-01,-1.889254262196605749e-01,-8.367487377301539020e-01
6.349999999999999645e+00,1.684950987525809526e+09,-9.214972446046856835e-02,1.638165994241160606e+00,-7.971882388648765527e-01,4.073520227347198208e+00,1.047409446748301942e+00,-2.023847333420600858e-01,-7.785298399245966783e-01
6.366666666666666252e+00,1.684950987542810202e+09,-9.232213628346164214e-02,1.809279729215274468e+00,-5.831596745766712830e-01,4.201719133007220108e+00,1.175936418374123438e+00,-2.148403802003404361e-01,-7.163205906064930018e-01
6.383333333333332860e+00,1.684950987560868502e+09,-9.187369940075401642e-02,2.164959019333621004e+00,0.000000000000000000e+00,4.329918038667242008e+00,1.294769678949634795e+00,-2.262022586989388961e-01,-6.472965671365069618e-01
6.400000000000000355e+00,1.684950987578853369e+09,-9.078973632702250218e-02,2.245083335371134581e+00,0.000000000000000000e+00,4.490166670742269162e+00,1.403213838140691117e+00,-2.363972252670447916e-01,-5.762966476765373214e-01
6.416666666666666963e+00,1.684950987594865322e+09,-8.906034696353840041e-02,2.293157924993642016e+00,0.000000000000000000e+00,4.586315849987284032e+00,1.500652313911991609e+00,-2.453985680512549006e-01,-5.040651342438999816e-01
6.433333333333333570e+00,1.684950987611810207e+09,-8.668053713982631914e-02,2.341232514616150340e+00,0.000000000000000000e+00,4.682465029232300679e+00,1.586551454070125988e+00,-2.531875244125247892e-01,-4.308131117378588004e-01
6.450000000000000178e+00,1.684950987629868031e+09,-8.365030440535237144e-02,2.373282241031156481e+00,0.000000000000000000e+00,4.746564482062312962e+00,1.660464020166525057e+00,-2.597510957732127035e-01,-3.570204360238761754e-01
6.466666666666666785e+00,1.684950987645844936e+09,-7.997467994727305851e-02,2.389307104238659107e+00,0.000000000000000000e+00,4.778614208477318215e+00,1.722032008563350036e+00,-2.650842643231441365e-01,-2.831649489272446418e-01
6.483333333333333393e+00,1.684950987665850878e+09,-7.566372592075193415e-02,2.437381693861167431e+00,0.000000000000000000e+00,4.874763387722334862e+00,1.770988788639512368e+00,-2.691833070236626102e-01,-2.089263981850482121e-01
6.500000000000000000e+00,1.684950987679866314e+09,-7.073248789739844389e-02,2.453406557068670057e+00,0.000000000000000000e+00,4.906813114137340115e+00,1.807160543438421030e+00,-2.720480849878922358e-01,-1.350521685457004295e-01
6.516666666666666607e+00,1.684950987696809530e+09,-6.520090256106264581e-02,2.485456283483674866e+00,0.000000000000000000e+00,4.970912566967349733e+00,1.830467003492724398e+00,-2.736841835128286382e-01,-6.148401523782401346e-02
6.533333333333333215e+00,1.684950987713845491e+09,-5.909366120435071562e-02,2.517506009898681008e+00,0.000000000000000000e+00,5.035012019797362015e+00,1.840921470061432030e+00,-2.740984367190004711e-01,1.157069596768300901e-02
6.549999999999999822e+00,1.684950987731845140e+09,-5.244002999975644341e-02,2.549555736313685816e+00,0.000000000000000000e+00,5.099111472627371633e+00,1.838630129537758506e+00,-2.733010915151365405e-01,8.390978186134311068e-02
6.566666666666666430e+00,1.684950987746847391e+09,-4.527362843207979881e-02,2.581605462728691958e+00,0.000000000000000000e+00,5.163210925457383915e+00,1.823790666288817253e+00,-2.713057093002144149e-01,1.553376684633794858e-01
6.583333333333333037e+00,1.684950987763844967e+09,-3.763216767990461287e-02,2.597630325936194140e+00,0.000000000000000000e+00,5.195260651872388280e+00,1.796690186627723396e+00,-2.681312577336005809e-01,2.254018921061642922e-01
6.599999999999999645e+00,1.684950987783842564e+09,-2.955715111930383790e-02,2.629680052351200281e+00,0.000000000000000000e+00,5.259360104702400562e+00,1.757702471951421597e+00,-2.637997046902037512e-01,2.941933811344777938e-01
6.616666666666666252e+00,1.684950987799866915e+09,-2.109353948897567388e-02,2.629680052351200281e+00,0.000000000000000000e+00,5.259360104702400562e+00,1.707284584263051297e+00,-2.583380920882625276e-01,3.610145124761073854e-01
6.633333333333332860e+00,1.684950987817865849e+09,-1.228938359901504337e-02,2.645704915558702908e+00,0.000000000000000000e+00,5.291409831117405815e+00,1.645972852293677402e+00,-2.517782783768737764e-01,4.259826615622582802e-01
6.649999999999999467e+00,1.684950987833844900e+09,-3.195427782202015649e-03,2.661729778766205534e+00,0.000000000000000000e+00,5.323459557532411068e+00,1.574378271207298674e+00,-2.441523109310459738e-01,4.889584949493221977e-01
6.666666666666666963e+00,1.684950987855843782e+09,6.135312426163611749e-03,2.661729778766205534e+00,0.000000000000000000e+00,5.323459557532411068e+00,1.493181353376261011e+00,-2.354966594744367370e-01,5.495513623617540588e-01
6.683333333333333570e+00,1.684950987868809700e+09,1.564799463895339554e-02,2.661729778766205534e+00,0.000000000000000000e+00,5.323459557532411068e+00,1.403126471917838458e+00,-2.258519344365298998e-01,6.076542415019146048e-01
6.700000000000000178e+00,1.684950987888843298e+09,2.528641203751991196e-02,2.677754641973707717e+00,0.000000000000000000e+00,5.355509283947415433e+00,1.305015742552896096e+00,-2.152581910190710102e-01,6.634400044932324825e-01
6.716666666666666785e+00,1.684950987903867006e+09,3.499346971768552833e-02,2.677754641973707717e+00,0.000000000000000000e+00,5.355509283947415433e+00,1.199702492854513913e+00,-2.037569359611066389e-01,7.165630350157384809e-01
6.733333333333333393e+00,1.684950987920866251e+09,4.471167067339038015e-02,2.677754641973707717e+00,0.000000000000000000e+00,5.355509283947415433e+00,1.088084371071184941e+00,-1.913930511912580734e-01,7.669631337966381635e-01
6.750000000000000000e+00,1.684950987936844110e+09,5.438360702615022135e-02,2.677754641973707717e+00,0.000000000000000000e+00,5.355509283947415433e+00,9.710961494109000558e-01,-1.782122845334024597e-01,8.145965469951926829e-01
6.766666666666666607e+00,1.684950987953846693e+09,6.395245204611769985e-02,2.677754641973707717e+00,0.000000000000000000e+00,5.355509283947415433e+00,8.497022789387730368e-01,-1.642609737883312937e-01,8.594361849319961388e-01
6.783333333333333215e+00,1.684950987971867085e+09,7.336244849019626924e-02,2.677754641973707717e+00,0.000000000000000000e+00,5.355509283947415433e+00,7.248892550542195279e-01,-1.495857682546159473e-01,9.014717110154129021e-01
6.799999999999999822e+00,1.684950987988844633e+09,8.255938880468284558e-02,2.661729778766205534e+00,0.000000000000000000e+00,5.323459557532411068e+00,5.976578538600448853e-01,-1.342355632140673771e-01,9.404446331853018037e-01
6.816666666666666430e+00,1.684950988005843401e+09,9.149108280414564032e-02,2.645704915558702908e+00,0.000000000000000000e+00,5.291409831117405815e+00,4.690153006053784379e-01,-1.182611739658904343e-01,9.763822475398595824e-01
6.833333333333333037e+00,1.684950988022808552e+09,1.001078085440748888e-01,2.597630325936194140e+00,0.000000000000000000e+00,5.195260651872388280e+00,3.399674317703439419e-01,-1.017172524420385110e-01,1.008798288644449981e+00
6.849999999999999645e+00,1.684950988037842989e+09,1.083627422514050753e-01,2.517506009898681008e+00,0.000000000000000000e+00,5.035012019797362015e+00,2.115109122605978165e-01,-8.466635017529706986e-02,1.037231001747029868e+00
6.866666666666666252e+00,1.684950988055842876e+09,1.162123633628758673e-01,2.389307104238659107e+00,0.000000000000000000e+00,4.778614208477318215e+00,8.462556859534620113e-02,-6.718072886116328857e-02,1.060977591646796281e+00
6.883333333333332860e+00,1.684950988072846413e+09,1.236168309446661479e-01,2.261108198578636763e+00,0.000000000000000000e+00,4.522216397157273526e+00,-3.973310209153124717e-02,-4.933749431800987795e-02,1.080157275378427872e+00
6.899999999999999467e+00,1.684950988091808558e+09,1.305403280257429466e-01,2.132909292918614863e+00,0.000000000000000000e+00,4.265818585837229726e+00,-1.606411889522826320e-01,-3.121165426892058212e-02,1.094902570395444030e+00
6.916666666666666963e+00,1.684950988106845140e+09,1.369513706693753496e-01,2.036760113673599104e+00,0.000000000000000000e+00,4.073520227347198208e+00,-2.772133339355729031e-01,-1.287147710583047208e-02,1.105888172894654353e+00
6.933333333333333570e+00,1.684950988125843525e+09,1.428230789296429937e-01,1.924586071221079386e+00,0.000000000000000000e+00,3.849172142442158773e+00,-3.886093540480672903e-01,5.619396486751287306e-03,1.112996911254956034e+00
6.950000000000000178e+00,1.684950988140845537e+09,1.481334071893117554e-01,1.764337439146051345e+00,0.000000000000000000e+00,3.528674878292102690e+00,-4.940404683658392582e-01,2.419107137037704650e-02,1.115596852551000495e+00
6.966666666666666785e+00,1.684950988158844233e+09,1.528653317489834795e-01,1.588063943863522010e+00,0.000000000000000000e+00,3.176127887727044019e+00,-5.927750820488837391e-01,4.276773524651632241e-02,1.113608336371771923e+00
6.983333333333333393e+00,1.684950988177867651e+09,1.570069939312695451e-01,1.411790448580991564e+00,0.000000000000000000e+00,2.823580897161983128e+00,-6.841440832407259531e-01,6.127456492602307431e-02,1.107228946114602985e+00
7.000000000000000000e+00,1.684950988195845366e+09,1.605517973742117688e-01,1.235516953298460896e+00,0.000000000000000000e+00,2.471033906596921792e+00,-7.675456127062251221e-01,7.964008611515391300e-02,1.096662947268675969e+00
7.016666666666666607e+00,1.684950988211808205e+09,1.634984586113465421e-01,1.027193731600925641e+00,0.000000000000000000e+00,2.054387463201851283e+00,-8.424492703450163766e-01,9.779184726665604566e-02,1.081590260471438913e+00
7.033333333333333215e+00,1.684950988226839066e+09,1.658510104676285957e-01,8.829699627334011147e-01,0.000000000000000000e+00,1.765939925466802229e+00,-9.083997272782373678e-01,1.156654494496203445e-01,1.063292828879393914e+00
7.049999999999999822e+00,1.684950988246845007e+09,1.676187582367756335e-01,6.906716042433681535e-01,0.000000000000000000e+00,1.381343208486736307e+00,-9.650197170092793542e-01,1.332022409633059068e-01,1.041183568819609828e+00
7.066666666666666430e+00,1.684950988263866186e+09,1.688161890423248157e-01,5.624726985833461423e-01,0.000000000000000000e+00,1.124945397166692285e+00,-1.012012384163502032e+00,1.503494010039070905e-01,1.016544080686005991e+00
7.083333333333333037e+00,1.684950988277843714e+09,1.694628352176046904e-01,4.663235193383302724e-01,0.000000000000000000e+00,9.326470386766605447e-01,-1.049162974480132293e+00,1.670708946966590058e-01,9.901085960742240788e-01
7.099999999999999645e+00,1.684950988294809818e+09,1.695830929647961782e-01,6.929032618545247768e-01,7.416070227674378401e-01,6.441995009416116025e-01,-1.076339855018715541e+00,1.833829898843323258e-01,9.674058910004809109e-01
7.116666666666666252e+00,1.684950988312868834e+09,1.692059979662366986e-01,6.214893667896589369e-01,7.269781382977282824e-01,5.160005952815897023e-01,-1.093494858911465917e+00,1.993076091825453366e-01,9.436145135002377282e-01
7.133333333333332860e+00,1.684950988328867674e+09,1.683649600181666428e-01,6.831314106899551986e-01,9.464114053433378970e-01,4.198514160365725556e-01,-1.100662954398536453e+00,2.148465155682882655e-01,9.211167480526850637e-01
7.149999999999999467e+00,1.684950988345809698e+09,1.670974591344209781e-01,5.970886311553837977e-01,9.025247519342169955e-01,2.916525103765505444e-01,-1.097961243282864929e+00,2.300020554892065472e-01,8.976133312629754890e-01
7.166666666666666963e+00,1.684950988366845369e+09,1.654447059215869154e-01,3.647570069237388579e-01,5.660604091309491270e-01,1.634536047165285888e-01,-1.085587299291365326e+00,2.447387374360701917e-01,8.708628111099847580e-01
7.183333333333333570e+00,1.684950988382866144e+09,1.634512693544427075e-01,4.570527985012456940e-01,8.147514451159726390e-01,9.935415188651879059e-02,-1.063816862088155402e+00,2.590490270600102063e-01,8.464397870929295520e-01
7.200000000000000178e+00,1.684950988398843288e+09,1.611646753780253682e-01,1.762734952825329576e-02,0.000000000000000000e+00,3.525469905650659153e-02,-1.033000907810968982e+00,2.728992022566378295e-01,8.156667192582566228e-01
7.216666666666666785e+00,1.684950988414844751e+09,1.586349800275696498e-01,2.919471331210788945e-01,5.806892936006561312e-01,3.204972641501691987e-03,-9.935621219529147119e-01,2.862840798710075130e-01,7.905882584966896776e-01
7.233333333333333393e+00,1.684950988433844090e+09,1.559143209873494473e-01,-1.442237688675220356e-02,0.000000000000000000e+00,-2.884475377350440711e-02,-9.459908051502222692e-01,2.992187016532865673e-01,7.616467503471276990e-01
7.250000000000000000e+00,1.684950988451845884e+09,1.530564517019593063e-01,-1.442237688675220356e-02,0.000000000000000000e+00,-2.884475377350440711e-02,-8.908402469235053855e-01,3.116825798045736451e-01,7.340951617990030265e-01
7.266666666666666607e+00,1.684950988466809034e+09,1.501162623069912661e-01,3.417522500272584529e-01,7.123492538280212782e-01,-2.884475377350440711e-02,-8.287216066213189958e-01,3.237488451273338730e-01,7.139127405330084608e-01
7.283333333333333215e+00,1.684950988484842539e+09,1.471492917589934113e-01,3.344378077924050063e-01,6.977203693583143851e-01,-2.884475377350440711e-02,-7.602983446958235803e-01,3.354899647490904857e-01,6.950739452961949283e-01
7.299999999999999822e+00,1.684950988502843857e+09,1.442112356159721276e-01,-1.442237688675220356e-02,0.000000000000000000e+00,-2.884475377350440711e-02,-6.862802509717118582e-01,3.468817451472906432e-01,6.720037877670204107e-01
7.316666666666666430e+00,1.684950988518807888e+09,1.413574539489403925e-01,-1.442237688675220356e-02,0.000000000000000000e+00,-2.884475377350440711e-02,-6.074171197226678753e-01,3.579031019967123806e-01,6.506184393074416761e-01
7.333333333333333037e+00,1.684950988535844803e+09,1.386424838518518499e-01,-1.442237688675220356e-02,0.000000000000000000e+00,-2.884475377350440711e-02,-5.244921241194162587e-01,3.685824437685776278e-01,6.309571891854736103e-01
7.349999999999999645e+00,1.684950988554866791e+09,1.361195609619361424e-01,-2.877870172143894845e-01,-5.467292806552745965e-01,-2.884475377350440711e-02,-4.383149449396091524e-01,3.789109592345524247e-01,6.085269743502654816e-01
7.366666666666666252e+00,1.684950988570845366e+09,1.338401543055131038e-01,-1.442237688675220356e-02,0.000000000000000000e+00,-2.884475377350440711e-02,-3.497147103117774769e-01,3.889187306282110290e-01,5.924502515032979977e-01
7.383333333333332860e+00,1.684950988587848186e+09,1.318535186468516307e-01,-1.442237688675220356e-02,0.000000000000000000e+00,-2.884475377350440711e-02,-2.595328046919522791e-01,3.986732331358706638e-01,5.781298293026598811e-01
7.399999999999999467e+00,1.684950988604845762e+09,1.302062683409337118e-01,-1.442237688675220356e-02,0.000000000000000000e+00,-2.884475377350440711e-02,-1.686156062273084788e-01,4.082035974128631617e-01,5.655488319737663749e-01
7.416666666666666963e+00,1.684950988621845484e+09,1.289419764768413579e-01,-1.442237688675220356e-02,0.000000000000000000e+00,-2.884475377350440711e-02,-7.780721214322777746e-02,4.175385585953710899e-01,5.546767109740921020e-01
7.433333333333333570e+00,1.684950988639843941e+09,1.281008028490407957e-01,-1.442237688675220356e-02,0.000000000000000000e+00,-2.884475377350440711e-02,1.205778820930486495e-02,4.267062316226838403e-01,5.454696281354884935e-01
7.450000000000000178e+00,1.684950988656808138e+09,1.277191540115945600e-01,-1.442237688675220356e-02,0.000000000000000000e+00,-2.884475377350440711e-02,1.001614334852027888e-01,4.357338938756756264e-01,5.378709501591375508e-01
7.466666666666666785e+00,1.684950988673844099e+09,1.278293783580043141e-01,-1.442237688675220356e-02,0.000000000000000000e+00,-2.884475377350440711e-02,1.857093454486304918e-01,4.446477769492082066e-01,5.318118498949696571e-01
7.483333333333333393e+00,1.684950988690843344e+09,1.284594988301088758e-01,-1.442237688675220356e-02,0.000000000000000000e+00,-2.884475377350440711e-02,2.679374622594358213e-01,4.534728692928131633e-01,5.272120089742428073e-01
7.500000000000000000e+00,1.684950988707866192e+09,1.296329854965256601e-01,-1.442237688675220356e-02,0.000000000000000000e+00,-2.884475377350440711e-02,3.461184950295194129e-01,4.622327313566521045e-01,5.239804155461166291e-01
7.516666666666666607e+00,1.684950988722843170e+09,1.313685698580896732e-01,-1.442237688675220356e-02,0.000000000000000000e+00,-2.884475377350440711e-02,4.195680550506188933e-01,4.709493247691983742e-01,5.220162501029681490e-01
7.533333333333333215e+00,1.684950988741847038e+09,1.336801023383496489e-01,-1.442237688675220356e-02,0.000000000000000000e+00,-2.884475377350440711e-02,4.876504018317648903e-01,4.796428569502451111e-01,5.212098516710049756e-01
7.549999999999999822e+00,1.684950988758843184e+09,1.365764540053233389e-01,-1.442237688675220356e-02,0.000000000000000000e+00,-2.884475377350440711e-02,5.497837652203858561e-01,4.883316424287335589e-01,5.214437559980770187e-01
7.566666666666666430e+00,1.684950988775842667e+09,1.400614631503804275e-01,-1.442237688675220356e-02,0.000000000000000000e+00,-2.884475377350440711e-02,6.054451983910205115e-01,4.970319819906138248e-01,5.225937967946011620e-01
7.583333333333333037e+00,1.684950988792846441e+09,1.441339269254235667e-01,1.762734952825329576e-02,0.000000000000000000e+00,3.525469905650659153e-02,6.541749223414494718e-01,5.057624873528853149e-01,5.250599959634913994e-01
7.599999999999999645e+00,1.684950988809843540e+09,1.487876378145654988e-01,8.172680235826429440e-02,0.000000000000000000e+00,1.634536047165285888e-01,6.955801267066235027e-01,5.145483277578740688e-01,5.292292710429173930e-01
7.616666666666666252e+00,1.684950988825843334e+09,1.540114642953625823e-01,1.618511183957777322e-01,0.000000000000000000e+00,3.237022367915554644e-01,7.293381961527312107e-01,5.234188097104059967e-01,5.352119443328606785e-01
7.633333333333332860e+00,1.684950988843823433e+09,1.597894746314460768e-01,2.900500240557997156e-01,0.000000000000000000e+00,5.801000481115994312e-01,7.551993363113215230e-01,5.324094554050169403e-01,5.436421213110350648e-01
7.649999999999999467e+00,1.684950988860847712e+09,1.661011023370531081e-01,4.342737929233241867e-01,0.000000000000000000e+00,8.685475858466483734e-01,7.729885781188274851e-01,5.415618169868877674e-01,5.546107992465334480e-01
7.666666666666666963e+00,1.684950988875844479e+09,1.729213514683488051e-01,5.464478353758437379e-01,0.000000000000000000e+00,1.092895670751687476e+00,7.826071445008380145e-01,5.509122969243173129e-01,5.674112356403819835e-01
7.683333333333333570e+00,1.684950988896866083e+09,1.802210395302713541e-01,3.558306741733739953e-01,-6.696818601399883164e-01,1.381343208486736307e+00,7.840331685423469477e-01,5.604482182913835819e-01,5.768730449852443876e-01
7.700000000000000178e+00,1.684950988910868645e+09,1.879670754443663050e-01,3.287675763330017986e-01,-8.199572350657498010e-01,1.477492387731753398e+00,7.773217575732866980e-01,5.701358646590271029e-01,5.856202208493723749e-01
7.716666666666666785e+00,1.684950988925809622e+09,1.961227697060256570e-01,4.430453866718248035e-01,-7.516502464631306113e-01,1.637741019806780329e+00,7.626044029304337446e-01,5.799818404665963989e-01,5.958684082018407269e-01
7.733333333333333393e+00,1.684950988945844412e+09,2.046481735716595696e-01,5.915632571788497218e-01,-6.469128639391149571e-01,1.830039378296814512e+00,7.400877404897864276e-01,5.900146072616851978e-01,6.080298247012291268e-01
7.750000000000000000e+00,1.684950988963845253e+09,2.135004438603337329e-01,6.556627100088606719e-01,-6.469128639391149571e-01,1.958238283956836412e+00,7.100516723546619335e-01,6.002530894425394115e-01,6.205532488931002622e-01
7.766666666666666607e+00,1.684950988980843306e+09,2.226342297327066067e-01,7.061007651183478506e-01,-6.742356593801627218e-01,2.086437189616858312e+00,6.728468652921086868e-01,6.107003934011498991e-01,6.330884054413307149e-01
7.783333333333333215e+00,1.684950988997843742e+09,2.320020776246857763e-01,7.358735919132655123e-01,-6.787894586203371272e-01,2.150536642446868374e+00,6.288916465913914067e-01,6.213529263944403969e-01,6.451819597564510955e-01
7.799999999999999822e+00,1.684950989013847351e+09,2.415548503658641877e-01,1.075268321223434187e+00,0.000000000000000000e+00,2.150536642446868374e+00,5.786683229335574108e-01,6.322452887573968283e-01,6.618552081294445388e-01
7.816666666666666430e+00,1.684950989031844616e+09,2.512421564047018219e-01,1.075268321223434187e+00,0.000000000000000000e+00,2.150536642446868374e+00,5.227189525696611661e-01,6.434055079209000105e-01,6.773281101958262829e-01
7.833333333333333037e+00,1.684950989047846079e+09,2.610127849946054512e-01,1.059243458015931560e+00,0.000000000000000000e+00,2.118486916031863121e+00,4.616406055710690626e-01,6.548108221266896178e-01,6.912708637164867165e-01
7.849999999999999645e+00,1.684950989065866470e+09,2.708151431679545751e-01,1.043218594808429156e+00,0.000000000000000000e+00,2.086437189616858312e+00,3.960801511004903852e-01,6.664353211729638904e-01,7.036346771020277613e-01
7.866666666666666252e+00,1.684950989083868504e+09,2.805976903389234001e-01,9.791191419784182060e-01,0.000000000000000000e+00,1.958238283956836412e+00,3.267286145260330232e-01,6.782457437623450325e-01,7.135883837877208258e-01
7.883333333333332860e+00,1.684950989100845814e+09,2.903093664303191823e-01,8.669450995258987103e-01,0.000000000000000000e+00,1.733890199051797421e+00,2.543151507283029078e-01,6.901951913337532885e-01,7.203266070538826282e-01
7.899999999999999467e+00,1.684950989116848707e+09,2.999000095139348065e-01,7.868207834883852447e-01,0.000000000000000000e+00,1.573641566976770489e+00,1.796006831075788179e-01,7.022346255294454886e-01,7.243941973014564883e-01
7.916666666666666963e+00,1.684950989132865191e+09,3.093207590870237222e-01,6.906716042433681535e-01,0.000000000000000000e+00,1.381343208486736307e+00,1.033712605559032327e-01,7.143174820598439112e-01,7.255453885177125528e-01
7.933333333333333570e+00,1.684950989149844646e+09,3.185244412779810741e-01,5.945224249983522835e-01,0.000000000000000000e+00,1.189044849996704567e+00,2.643118699720489739e-02,7.263954589334442602e-01,7.238166385107047684e-01
7.950000000000000178e+00,1.684950989165808678e+09,3.274659324803590454e-01,5.143981089608388180e-01,0.000000000000000000e+00,1.028796217921677636e+00,-5.040402000186877673e-02,7.384231827551013261e-01,7.195221495050305727e-01
7.966666666666666785e+00,1.684950989183809280e+09,3.361024981537440448e-01,4.663235193383302724e-01,0.000000000000000000e+00,9.326470386766605447e-01,-1.263147836033405302e-01,7.503627999981089536e-01,7.132493445242726882e-01
7.983333333333333393e+00,1.684950989201809406e+09,3.443941038003511257e-01,3.861992033008168068e-01,0.000000000000000000e+00,7.723984066016336136e-01,-2.004846761249614306e-01,7.621774257013166354e-01,7.045299609406625585e-01
8.000000000000000000e+00,1.684950989220809698e+09,3.523036954245896690e-01,2.900500240557997156e-01,0.000000000000000000e+00,5.801000481115994312e-01,-2.721076220921000988e-01,7.738247599007610500e-01,6.931816667739464366e-01
8.016666666666665719e+00,1.684950989235835314e+09,3.597974471063014601e-01,2.259505712257887378e-01,0.000000000000000000e+00,4.519011424515774755e-01,-3.403950364569507947e-01,7.852662379559921524e-01,6.798327809648626596e-01
8.033333333333333215e+00,1.684950989251837015e+09,3.668449736635703284e-01,1.778759816032801921e-01,0.000000000000000000e+00,3.557519632065603843e-01,-4.045828389799848712e-01,7.964715725982216554e-01,6.648489986996880541e-01
8.050000000000000711e+00,1.684950989267845154e+09,3.734195067443736860e-01,1.458262551882752722e-01,0.000000000000000000e+00,2.916525103765505444e-01,-4.639382866964228413e-01,8.074166221752548944e-01,6.486020819308523366e-01
8.066666666666666430e+00,1.684950989287844181e+09,3.794980330643384914e-01,9.775166556576674048e-02,0.000000000000000000e+00,1.955033311315334810e-01,-5.177665677865137539e-01,8.180790589630423382e-01,6.309393967727191521e-01
8.083333333333333925e+00,1.684950989304868221e+09,3.850613938964883576e-01,6.570193915076183444e-02,0.000000000000000000e+00,1.314038783015236689e-01,-5.654171020216919308e-01,8.284385490039789524e-01,6.122513206839337307e-01
8.099999999999999645e+00,1.684950989319864988e+09,3.900943453143588258e-01,4.967707594325939530e-02,0.000000000000000000e+00,9.935415188651879059e-02,-6.062894952551856065e-01,8.384812936390469984e-01,5.929317023936669928e-01
8.116666666666667140e+00,1.684950989337864876e+09,3.945855790881844238e-01,1.762734952825329576e-02,0.000000000000000000e+00,3.525469905650659153e-02,-6.398390981461039573e-01,8.481956524591661717e-01,5.728471477632502973e-01
8.133333333333332860e+00,1.684950989356867790e+09,3.985277045309664756e-01,1.602486320750845994e-03,0.000000000000000000e+00,3.204972641501691987e-03,-6.655821224305765726e-01,8.575722737893575198e-01,5.524041991645618488e-01
8.150000000000000355e+00,1.684950989371843338e+09,4.019171919832999484e-01,1.602486320750845994e-03,0.000000000000000000e+00,3.204972641501691987e-03,-6.831002715557668026e-01,8.666085832843334336e-01,5.320095932490023216e-01
8.166666666666666075e+00,1.684950989390864611e+09,4.047542790087671483e-01,-3.044724009425465311e-02,0.000000000000000000e+00,-6.089448018850930622e-02,-6.920448463464329292e-01,8.753021374405245414e-01,5.112745043187997274e-01
8.183333333333333570e+00,1.684950989406869173e+09,4.070428407418869021e-01,-6.249696650926014896e-02,0.000000000000000000e+00,-1.249939330185202979e-01,-6.921402905469453692e-01,8.836485308150365814e-01,4.903508233266842264e-01
8.199999999999999289e+00,1.684950989426809311e+09,4.087902261841634410e-01,-1.105715561317686946e-01,0.000000000000000000e+00,-2.211431122635373892e-01,-6.831871455429479045e-01,8.916436826888211042e-01,4.691263597583210654e-01
8.216666666666666785e+00,1.684950989439843893e+09,4.100070625773981070e-01,-1.265964193392711545e-01,0.000000000000000000e+00,-2.531928386785423091e-01,-6.650643882791134054e-01,8.992883147988052217e-01,4.482873808546972150e-01
8.233333333333332504e+00,1.684950989457812786e+09,4.107070302936894901e-01,-1.746710089617797002e-01,0.000000000000000000e+00,-3.493420179235594003e-01,-6.377311313166552642e-01,9.065856440806768779e-01,4.274500159015183209e-01
8.250000000000000000e+00,1.684950989476845503e+09,4.109066109654330723e-01,-2.387704617917906780e-01,0.000000000000000000e+00,-4.775409235835813559e-01,-6.012276690761786391e-01,9.135347504419168985e-01,4.065009406924787738e-01
8.266666666666665719e+00,1.684950989492846012e+09,4.106248118334346886e-01,-3.028699146218016836e-01,0.000000000000000000e+00,-6.057398292436033671e-01,-5.556758595482296226e-01,9.201350372366462471e-01,3.855915576615822626e-01
8.283333333333333215e+00,1.684950989510809422e+09,4.098828695143267864e-01,-3.829942306593151491e-01,0.000000000000000000e+00,-7.659884613186302982e-01,-5.012788360836977208e-01,9.263861688621239932e-01,3.646025415903876299e-01
8.300000000000000711e+00,1.684950989527809381e+09,4.087039365779109867e-01,-4.310688202818230841e-01,0.000000000000000000e+00,-8.621376405636461682e-01,-4.383200492562355777e-01,9.322924383791991731e-01,3.442064575810114269e-01
8.316666666666666430e+00,1.684950989546809673e+09,4.071127544787323527e-01,-4.791434099043316297e-01,0.000000000000000000e+00,-9.582868198086632594e-01,-3.671616441769884887e-01,9.378647786281942844e-01,3.245290330973276682e-01
8.333333333333333925e+00,1.684950989563868523e+09,4.051353165029485948e-01,-4.951682731118340897e-01,0.000000000000000000e+00,-9.903365462236681793e-01,-2.882421839942871378e-01,9.431205666912663155e-01,3.062164040824869593e-01
8.349999999999999645e+00,1.684950989579868793e+09,4.027985244701191569e-01,-5.272179995268395647e-01,0.000000000000000000e+00,-1.054435999053679129e+00,-2.020737355859529849e-01,9.480811485251000592e-01,2.891009599967733767e-01
8.366666666666667140e+00,1.684950989596809626e+09,4.001298429692913272e-01,-5.432428627343426353e-01,0.000000000000000000e+00,-1.086485725468685271e+00,-1.092383386064086359e-01,9.527694460604333448e-01,2.735379757724276106e-01
8.383333333333332860e+00,1.684950989613809586e+09,3.971569549094345342e-01,-5.432428627343426353e-01,0.000000000000000000e+00,-1.086485725468685271e+00,-1.038388404415924171e-02,9.572141639190970830e-01,2.598661454674555671e-01
8.400000000000000355e+00,1.684950989633844614e+09,3.939074221258421216e-01,-5.432428627343426353e-01,0.000000000000000000e+00,-1.086485725468685271e+00,9.378056676192292329e-02,9.614472935452885727e-01,2.481419775750571266e-01
8.416666666666666075e+00,1.684950989649844408e+09,3.904083547072697002e-01,-5.592677259418450397e-01,0.000000000000000000e+00,-1.118535451883690079e+00,2.024899871467349399e-01,9.654994413584769841e-01,2.381435341152835783e-01
8.433333333333333570e+00,1.684950989670843363e+09,3.866860925939482607e-01,-5.752925891493481103e-01,0.000000000000000000e+00,-1.150585178298696221e+00,3.149290744046987500e-01,9.693996462180691776e-01,2.299039373432805455e-01
8.449999999999999289e+00,1.684950989684843302e+09,3.827659028456837920e-01,-6.073423155643535853e-01,0.000000000000000000e+00,-1.214684631128707171e+00,4.302383795923749865e-01,9.731751623765763082e-01,2.231766889185737290e-01
8.466666666666666785e+00,1.684950989701850653e+09,3.786716957934870287e-01,-6.393920419793590604e-01,0.000000000000000000e+00,-1.278784083958718121e+00,5.475208304770167178e-01,9.768512592853465515e-01,2.179694051514310948e-01
8.483333333333332504e+00,1.684950989719844818e+09,3.744257630696233852e-01,-6.714417683943646464e-01,0.000000000000000000e+00,-1.342883536788729293e+00,6.658485970075249671e-01,9.804532041299143241e-01,2.142742407837493479e-01
8.500000000000000000e+00,1.684950989734867334e+09,3.700485402619108077e-01,-7.355412212243755965e-01,0.000000000000000000e+00,-1.471082442448751193e+00,7.842702458265848886e-01,9.840015762884488648e-01,2.115380190352516288e-01
8.516666666666665719e+00,1.684950989753844738e+09,3.655583966611468671e-01,-7.996406740543865466e-01,0.000000000000000000e+00,-1.599281348108773093e+00,9.018181279079646728e-01,9.875121050032057424e-01,2.097304478847210607e-01
8.533333333333333215e+00,1.684950989770845890e+09,3.609714542685449334e-01,-8.637401268843969415e-01,0.000000000000000000e+00,-1.727480253768793883e+00,1.017515941406078595e+00,9.909998839860711950e-01,2.088055991438835801e-01
8.550000000000000711e+00,1.684950989787843227e+09,3.563014379062322545e-01,-9.118147165069054871e-01,0.000000000000000000e+00,-1.823629433013810974e+00,1.130386410266881470e+00,9.944813262029973400e-01,2.089670184896237348e-01
8.566666666666666430e+00,1.684950989806843042e+09,3.515595579314660379e-01,-9.919390325444189527e-01,0.000000000000000000e+00,-1.983878065088837905e+00,1.239459018078113761e+00,9.979694347995360371e-01,2.096042429853132993e-01
8.583333333333333925e+00,1.684950989822809219e+09,3.467544266978773715e-01,-1.072063348581933084e+00,0.000000000000000000e+00,-2.144126697163866169e+00,1.343777736046057214e+00,1.001471417533437824e+00,2.106308333758135642e-01
8.599999999999999645e+00,1.684950989840845108e+09,3.418920095383887192e-01,-1.120137938204440964e+00,0.000000000000000000e+00,-2.240275876408881928e+00,1.442408683877212106e+00,1.004997351183426257e+00,2.124760788203713113e-01
8.616666666666667140e+00,1.684950989857841015e+09,3.369756106682872954e-01,-1.184237391034451914e+00,0.000000000000000000e+00,-2.368474782068903828e+00,1.534447662719741645e+00,1.008557643079209587e+00,2.147526247860093995e-01
8.633333333333332860e+00,1.684950989875845194e+09,3.320058940271817249e-01,-1.248336843864462864e+00,0.000000000000000000e+00,-2.496673687728925728e+00,1.619027500178563894e+00,1.012158391731033058e+00,2.173300537394210197e-01
8.650000000000000355e+00,1.684950989892843246e+09,3.269809386990492617e-01,-1.296411433486971410e+00,0.000000000000000000e+00,-2.592822866973942819e+00,1.695325148752365951e+00,1.015805639719291831e+00,2.203313676722522541e-01
8.666666666666666075e+00,1.684950989909851313e+09,3.218963281742940885e-01,-1.344486023109479511e+00,0.000000000000000000e+00,-2.688972046218959022e+00,1.762568480842059415e+00,1.019505142659727248e+00,2.235999056940264906e-01
8.683333333333333570e+00,1.684950989925847769e+09,3.167452723504545209e-01,-1.392560612731987391e+00,0.000000000000000000e+00,-2.785121225463974781e+00,1.820042725732617495e+00,1.023259968066832171e+00,2.269697821702653384e-01
8.699999999999999289e+00,1.684950989943869114e+09,3.115187608127977237e-01,-1.456660065561998341e+00,0.000000000000000000e+00,-2.913320131123996681e+00,1.867096496638366077e+00,1.027068138274761511e+00,2.300022191469422161e-01
8.716666666666666785e+00,1.684950989960808277e+09,3.062057455960092156e-01,-1.536784381599512361e+00,0.000000000000000000e+00,-3.073568763199024723e+00,1.903147359003475980e+00,1.030920342809847678e+00,2.322560642352553550e-01
8.733333333333332504e+00,1.684950989976848602e+09,3.007933513072698073e-01,-1.568834108014517836e+00,0.000000000000000000e+00,-3.137668216029035673e+00,1.927686894741420298e+00,1.034808762816247230e+00,2.343485240076374765e-01
8.750000000000000000e+00,1.684950989994822264e+09,2.952671101922362817e-01,-1.600883834429523533e+00,0.000000000000000000e+00,-3.201767668859047067e+00,1.940285220951508682e+00,1.038729081503496632e+00,2.360848950957544490e-01
8.766666666666665719e+00,1.684950990011844873e+09,2.896112194521222594e-01,-1.664983287259534483e+00,0.000000000000000000e+00,-3.329966574519068967e+00,1.940594925838190044e+00,1.042669289208625116e+00,2.367382147002702331e-01
8.783333333333333215e+00,1.684950990027810097e+09,2.838088178748647827e-01,-1.713057876882042363e+00,0.000000000000000000e+00,-3.426115753764084726e+00,1.928354389045932926e+00,1.046611964581643184e+00,2.363838145299836935e-01
