# 
# 
# 
# 
# 
# 
# 
# 
# 
# 
# time,realtime,ref,inp,dis,state...
0.000000000000000000e+00,1.684950816912658691e+09,0.000000000000000000e+00,1.780362302353555082e+00,0.000000000000000000e+00,1.764337439146051345e+00
1.666666666666666644e-02,1.684950816912658691e+09,0.000000000000000000e+00,1.764337439146051345e+00,0.000000000000000000e+00,1.764337439146051345e+00
3.333333333333333287e-02,1.684950816913656950e+09,0.000000000000000000e+00,1.780362302353555082e+00,0.000000000000000000e+00,1.780362302353555082e+00
5.000000000000000278e-02,1.684950816932683468e+09,0.000000000000000000e+00,1.780362302353555082e+00,0.000000000000000000e+00,1.780362302353555082e+00
6.666666666666666574e-02,1.684950816950656891e+09,0.000000000000000000e+00,1.780362302353555082e+00,0.000000000000000000e+00,1.780362302353555082e+00
8.333333333333332871e-02,1.684950816964701653e+09,0.000000000000000000e+00,1.780362302353555082e+00,0.000000000000000000e+00,1.780362302353555082e+00
1.000000000000000056e-01,1.684950816983703136e+09,0.000000000000000000e+00,2.107279160328151768e+00,0.000000000000000000e+00,2.107279160328151768e+00
1.166666666666666685e-01,1.684950817000659227e+09,0.000000000000000000e+00,1.780362302353555082e+00,0.000000000000000000e+00,1.780362302353555082e+00
1.333333333333333315e-01,1.684950817016683578e+09,0.000000000000000000e+00,1.780362302353555082e+00,0.000000000000000000e+00,1.780362302353555082e+00
1.499999999999999944e-01,1.684950817033688068e+09,0.000000000000000000e+00,1.780362302353555082e+00,0.000000000000000000e+00,1.780362302353555082e+00
1.666666666666666574e-01,1.684950817049659014e+09,0.000000000000000000e+00,1.780362302353555082e+00,0.000000000000000000e+00,1.780362302353555082e+00
1.833333333333333204e-01,1.684950817068658113e+09,0.000000000000000000e+00,2.056078064684176088e+00,0.000000000000000000e+00,2.056078064684176088e+00
2.000000000000000111e-01,1.684950817084657431e+09,0.000000000000000000e+00,2.099964718093298544e+00,0.000000000000000000e+00,2.099964718093298544e+00
2.166666666666666741e-01,1.684950817103681564e+09,0.000000000000000000e+00,1.425029275702775156e+00,0.000000000000000000e+00,1.425029275702775156e+00
2.333333333333333370e-01,1.684950817119659185e+09,0.000000000000000000e+00,2.173109140441834342e+00,0.000000000000000000e+00,2.173109140441834342e+00
2.500000000000000000e-01,1.684950817138704062e+09,0.000000000000000000e+00,2.121908044797858661e+00,0.000000000000000000e+00,2.121908044797858661e+00
2.666666666666666630e-01,1.684950817154683828e+09,0.000000000000000000e+00,2.275511331729785702e+00,0.000000000000000000e+00,2.275511331729785702e+00
2.833333333333333259e-01,1.684950817169681549e+09,0.000000000000000000e+00,2.319397985138906826e+00,0.000000000000000000e+00,2.319397985138906826e+00
2.999999999999999889e-01,1.684950817187657833e+09,0.000000000000000000e+00,2.187738024911541235e+00,0.000000000000000000e+00,2.187738024911541235e+00
3.166666666666666519e-01,1.684950817205682516e+09,0.000000000000000000e+00,2.143851371502419223e+00,0.000000000000000000e+00,2.143851371502419223e+00
3.333333333333333148e-01,1.684950817220680952e+09,0.000000000000000000e+00,1.780362302353555082e+00,0.000000000000000000e+00,1.780362302353555082e+00
3.499999999999999778e-01,1.684950817237704992e+09,0.000000000000000000e+00,1.780362302353555082e+00,0.000000000000000000e+00,1.780362302353555082e+00
3.666666666666666408e-01,1.684950817255684614e+09,0.000000000000000000e+00,2.099964718093298544e+00,0.000000000000000000e+00,2.099964718093298544e+00
3.833333333333333037e-01,1.684950817272657156e+09,0.000000000000000000e+00,2.092650275858444875e+00,0.000000000000000000e+00,2.092650275858444875e+00
4.000000000000000222e-01,1.684950817288682699e+09,0.000000000000000000e+00,1.509274561646005264e+00,0.000000000000000000e+00,1.509274561646005264e+00
4.166666666666666852e-01,1.684950817305660009e+09,0.000000000000000000e+00,1.780362302353555082e+00,0.000000000000000000e+00,1.780362302353555082e+00
4.333333333333333481e-01,1.684950817324682236e+09,0.000000000000000000e+00,1.780362302353555082e+00,0.000000000000000000e+00,1.780362302353555082e+00
4.500000000000000111e-01,1.684950817340658903e+09,0.000000000000000000e+00,1.780362302353555082e+00,0.000000000000000000e+00,1.780362302353555082e+00
4.666666666666666741e-01,1.684950817355703354e+09,0.000000000000000000e+00,1.780362302353555082e+00,0.000000000000000000e+00,1.780362302353555082e+00
4.833333333333333370e-01,1.684950817373656988e+09,0.000000000000000000e+00,1.780362302353555082e+00,0.000000000000000000e+00,1.780362302353555082e+00
5.000000000000000000e-01,1.684950817391683102e+09,0.000000000000000000e+00,1.780362302353555082e+00,0.000000000000000000e+00,1.780362302353555082e+00
5.166666666666666075e-01,1.684950817408683300e+09,0.000000000000000000e+00,1.780362302353555082e+00,0.000000000000000000e+00,1.780362302353555082e+00
5.333333333333333259e-01,1.684950817424683332e+09,0.000000000000000000e+00,1.780362302353555082e+00,0.000000000000000000e+00,1.780362302353555082e+00
5.500000000000000444e-01,1.684950817442683697e+09,0.000000000000000000e+00,1.493336264305394234e+00,0.000000000000000000e+00,1.493336264305394234e+00
5.666666666666666519e-01,1.684950817459683180e+09,0.000000000000000000e+00,1.431859974563036930e+00,0.000000000000000000e+00,1.431859974563036930e+00
5.833333333333333703e-01,1.684950817477705002e+09,0.000000000000000000e+00,1.472844167724608688e+00,0.000000000000000000e+00,1.472844167724608688e+00
5.999999999999999778e-01,1.684950817494682789e+09,0.000000000000000000e+00,1.780362302353555082e+00,0.000000000000000000e+00,1.780362302353555082e+00
6.166666666666666963e-01,1.684950817512711287e+09,0.000000000000000000e+00,1.780362302353555082e+00,0.000000000000000000e+00,1.780362302353555082e+00
6.333333333333333037e-01,1.684950817528658390e+09,0.000000000000000000e+00,1.780362302353555082e+00,0.000000000000000000e+00,1.780362302353555082e+00
6.500000000000000222e-01,1.684950817544704676e+09,0.000000000000000000e+00,1.780362302353555082e+00,0.000000000000000000e+00,1.780362302353555082e+00
6.666666666666666297e-01,1.684950817562704802e+09,0.000000000000000000e+00,1.780362302353555082e+00,0.000000000000000000e+00,1.780362302353555082e+00
6.833333333333333481e-01,1.684950817579682589e+09,0.000000000000000000e+00,1.780362302353555082e+00,0.000000000000000000e+00,1.780362302353555082e+00
6.999999999999999556e-01,1.684950817598686934e+09,0.000000000000000000e+00,1.780362302353555082e+00,0.000000000000000000e+00,1.780362302353555082e+00
7.166666666666666741e-01,1.684950817613705158e+09,0.000000000000000000e+00,1.780362302353555082e+00,0.000000000000000000e+00,1.780362302353555082e+00
7.333333333333332815e-01,1.684950817631658316e+09,0.000000000000000000e+00,1.780362302353555082e+00,0.000000000000000000e+00,1.780362302353555082e+00
7.500000000000000000e-01,1.684950817648683548e+09,0.000000000000000000e+00,1.780362302353555082e+00,0.000000000000000000e+00,1.780362302353555082e+00
7.666666666666666075e-01,1.684950817666666031e+09,0.000000000000000000e+00,1.780362302353555082e+00,0.000000000000000000e+00,1.780362302353555082e+00
7.833333333333333259e-01,1.684950817685667038e+09,0.000000000000000000e+00,1.780362302353555082e+00,0.000000000000000000e+00,1.780362302353555082e+00
8.000000000000000444e-01,1.684950817700682878e+09,0.000000000000000000e+00,1.780362302353555082e+00,0.000000000000000000e+00,1.780362302353555082e+00
8.166666666666666519e-01,1.684950817721684694e+09,0.000000000000000000e+00,1.764337439146051345e+00,0.000000000000000000e+00,1.764337439146051345e+00
8.333333333333333703e-01,1.684950817736682177e+09,0.000000000000000000e+00,1.780362302353555082e+00,0.000000000000000000e+00,1.780362302353555082e+00
8.499999999999999778e-01,1.684950817753683567e+09,0.000000000000000000e+00,1.780362302353555082e+00,0.000000000000000000e+00,1.780362302353555082e+00
8.666666666666666963e-01,1.684950817771682978e+09,0.000000000000000000e+00,1.780362302353555082e+00,0.000000000000000000e+00,1.780362302353555082e+00
8.833333333333333037e-01,1.684950817789701462e+09,0.000000000000000000e+00,1.780362302353555082e+00,0.000000000000000000e+00,1.780362302353555082e+00
9.000000000000000222e-01,1.684950817807704687e+09,0.000000000000000000e+00,1.780362302353555082e+00,0.000000000000000000e+00,1.780362302353555082e+00
9.166666666666666297e-01,1.684950817823703766e+09,0.000000000000000000e+00,1.780362302353555082e+00,0.000000000000000000e+00,1.780362302353555082e+00
9.333333333333333481e-01,1.684950817839682102e+09,0.000000000000000000e+00,1.780362302353555082e+00,0.000000000000000000e+00,1.780362302353555082e+00
9.499999999999999556e-01,1.684950817855658770e+09,0.000000000000000000e+00,1.780362302353555082e+00,0.000000000000000000e+00,1.780362302353555082e+00
9.666666666666666741e-01,1.684950817874683619e+09,0.000000000000000000e+00,1.780362302353555082e+00,0.000000000000000000e+00,1.780362302353555082e+00
9.833333333333332815e-01,1.684950817891707182e+09,0.000000000000000000e+00,1.780362302353555082e+00,0.000000000000000000e+00,1.780362302353555082e+00
1.000000000000000000e+00,1.684950817909656525e+09,0.000000000000000000e+00,1.780362302353555082e+00,0.000000000000000000e+00,1.780362302353555082e+00
1.016666666666666607e+00,1.684950817926704645e+09,0.000000000000000000e+00,1.780362302353555082e+00,0.000000000000000000e+00,1.780362302353555082e+00
1.033333333333333215e+00,1.684950817941684484e+09,0.000000000000000000e+00,1.780362302353555082e+00,0.000000000000000000e+00,1.780362302353555082e+00
1.050000000000000044e+00,1.684950817959682941e+09,0.000000000000000000e+00,1.780362302353555082e+00,0.000000000000000000e+00,1.780362302353555082e+00
1.066666666666666652e+00,1.684950817975682974e+09,0.000000000000000000e+00,1.780362302353555082e+00,0.000000000000000000e+00,1.780362302353555082e+00
1.083333333333333259e+00,1.684950817993703842e+09,0.000000000000000000e+00,1.780362302353555082e+00,0.000000000000000000e+00,1.780362302353555082e+00
1.100000000000000089e+00,1.684950818009704113e+09,0.000000000000000000e+00,1.780362302353555082e+00,0.000000000000000000e+00,1.780362302353555082e+00
1.116666666666666696e+00,1.684950818026705027e+09,0.000000000000000000e+00,1.780362302353555082e+00,0.000000000000000000e+00,1.780362302353555082e+00
1.133333333333333304e+00,1.684950818044682980e+09,0.000000000000000000e+00,1.780362302353555082e+00,0.000000000000000000e+00,1.780362302353555082e+00
1.149999999999999911e+00,1.684950818061703682e+09,0.000000000000000000e+00,1.780362302353555082e+00,0.000000000000000000e+00,1.780362302353555082e+00
1.166666666666666741e+00,1.684950818077706575e+09,0.000000000000000000e+00,1.780362302353555082e+00,0.000000000000000000e+00,1.780362302353555082e+00
1.183333333333333348e+00,1.684950818095690489e+09,0.000000000000000000e+00,1.780362302353555082e+00,0.000000000000000000e+00,1.780362302353555082e+00
1.199999999999999956e+00,1.684950818111682892e+09,0.000000000000000000e+00,1.402260279501902573e+00,0.000000000000000000e+00,1.402260279501902573e+00
1.216666666666666563e+00,1.684950818130683899e+09,0.000000000000000000e+00,1.422752376082688119e+00,0.000000000000000000e+00,1.422752376082688119e+00
1.233333333333333393e+00,1.684950818145684004e+09,0.000000000000000000e+00,1.470567268104521430e+00,0.000000000000000000e+00,1.470567268104521430e+00
1.250000000000000000e+00,1.684950818164683342e+09,0.000000000000000000e+00,1.472844167724608688e+00,0.000000000000000000e+00,1.472844167724608688e+00
1.266666666666666607e+00,1.684950818178683519e+09,0.000000000000000000e+00,1.393152681021553096e+00,0.000000000000000000e+00,1.393152681021553096e+00
1.283333333333333215e+00,1.684950818197705984e+09,0.000000000000000000e+00,1.347528122752914781e+00,0.000000000000000000e+00,1.347528122752914781e+00
1.300000000000000044e+00,1.684950818215704918e+09,0.000000000000000000e+00,1.418198576842513603e+00,0.000000000000000000e+00,1.418198576842513603e+00
1.316666666666666652e+00,1.684950818230680704e+09,0.000000000000000000e+00,1.404537179121989832e+00,0.000000000000000000e+00,1.404537179121989832e+00
1.333333333333333259e+00,1.684950818247656822e+09,0.000000000000000000e+00,1.434136874183124633e+00,0.000000000000000000e+00,1.434136874183124633e+00
1.350000000000000089e+00,1.684950818264682055e+09,0.000000000000000000e+00,1.440967573043386407e+00,0.000000000000000000e+00,1.440967573043386407e+00
1.366666666666666696e+00,1.684950818282684326e+09,0.000000000000000000e+00,1.488782465065219496e+00,0.000000000000000000e+00,1.488782465065219496e+00
1.383333333333333304e+00,1.684950818298681259e+09,0.000000000000000000e+00,1.780362302353555082e+00,0.000000000000000000e+00,1.780362302353555082e+00
1.399999999999999911e+00,1.684950818315703154e+09,0.000000000000000000e+00,1.780362302353555082e+00,0.000000000000000000e+00,1.780362302353555082e+00
1.416666666666666741e+00,1.684950818331703424e+09,0.000000000000000000e+00,1.780362302353555082e+00,0.000000000000000000e+00,1.780362302353555082e+00
1.433333333333333348e+00,1.684950818351683140e+09,0.000000000000000000e+00,1.780362302353555082e+00,0.000000000000000000e+00,1.780362302353555082e+00
1.449999999999999956e+00,1.684950818367656946e+09,0.000000000000000000e+00,1.780362302353555082e+00,0.000000000000000000e+00,1.780362302353555082e+00
1.466666666666666563e+00,1.684950818385657310e+09,0.000000000000000000e+00,1.780362302353555082e+00,0.000000000000000000e+00,1.780362302353555082e+00
1.483333333333333393e+00,1.684950818401683807e+09,0.000000000000000000e+00,1.780362302353555082e+00,0.000000000000000000e+00,1.780362302353555082e+00
1.500000000000000000e+00,1.684950818417707205e+09,0.000000000000000000e+00,1.780362302353555082e+00,0.000000000000000000e+00,1.780362302353555082e+00
1.516666666666666607e+00,1.684950818436682940e+09,0.000000000000000000e+00,1.780362302353555082e+00,0.000000000000000000e+00,1.780362302353555082e+00
1.533333333333333215e+00,1.684950818454703331e+09,0.000000000000000000e+00,1.780362302353555082e+00,0.000000000000000000e+00,1.780362302353555082e+00
1.550000000000000044e+00,1.684950818471703053e+09,0.000000000000000000e+00,1.780362302353555082e+00,0.000000000000000000e+00,1.780362302353555082e+00
1.566666666666666652e+00,1.684950818487703085e+09,0.000000000000000000e+00,1.780362302353555082e+00,0.000000000000000000e+00,1.780362302353555082e+00
1.583333333333333259e+00,1.684950818502683401e+09,0.000000000000000000e+00,1.780362302353555082e+00,0.000000000000000000e+00,1.780362302353555082e+00
1.600000000000000089e+00,1.684950818522658825e+09,0.000000000000000000e+00,1.780362302353555082e+00,0.000000000000000000e+00,1.780362302353555082e+00
1.616666666666666696e+00,1.684950818535661936e+09,0.000000000000000000e+00,1.780362302353555082e+00,0.000000000000000000e+00,1.780362302353555082e+00
1.633333333333333304e+00,1.684950818555658817e+09,0.000000000000000000e+00,1.780362302353555082e+00,0.000000000000000000e+00,1.780362302353555082e+00
1.649999999999999911e+00,1.684950818572680712e+09,0.000000000000000000e+00,1.780362302353555082e+00,0.000000000000000000e+00,1.780362302353555082e+00
1.666666666666666741e+00,1.684950818589680910e+09,0.000000000000000000e+00,1.780362302353555082e+00,0.000000000000000000e+00,1.780362302353555082e+00
1.683333333333333348e+00,1.684950818605705023e+09,0.000000000000000000e+00,1.780362302353555082e+00,0.000000000000000000e+00,1.780362302353555082e+00
1.699999999999999956e+00,1.684950818622687101e+09,0.000000000000000000e+00,1.780362302353555082e+00,0.000000000000000000e+00,1.780362302353555082e+00
1.716666666666666563e+00,1.684950818639682531e+09,0.000000000000000000e+00,1.780362302353555082e+00,0.000000000000000000e+00,1.780362302353555082e+00
1.733333333333333393e+00,1.684950818658683777e+09,0.000000000000000000e+00,1.780362302353555082e+00,0.000000000000000000e+00,1.780362302353555082e+00
1.750000000000000000e+00,1.684950818674677610e+09,0.000000000000000000e+00,1.780362302353555082e+00,0.000000000000000000e+00,1.780362302353555082e+00
1.766666666666666607e+00,1.684950818691658497e+09,0.000000000000000000e+00,1.764337439146051345e+00,0.000000000000000000e+00,1.764337439146051345e+00
1.783333333333333215e+00,1.684950818706683874e+09,0.000000000000000000e+00,1.748312575938548941e+00,0.000000000000000000e+00,1.748312575938548941e+00
1.800000000000000044e+00,1.684950818723682880e+09,0.000000000000000000e+00,1.716262849523544132e+00,0.000000000000000000e+00,1.716262849523544132e+00
1.816666666666666652e+00,1.684950818741684675e+09,0.000000000000000000e+00,1.668188259901035586e+00,0.000000000000000000e+00,1.668188259901035586e+00
1.833333333333333259e+00,1.684950818758682966e+09,0.000000000000000000e+00,1.636138533486030555e+00,0.000000000000000000e+00,1.636138533486030555e+00
1.849999999999999867e+00,1.684950818776682138e+09,0.000000000000000000e+00,1.604088807071024414e+00,0.000000000000000000e+00,1.604088807071024414e+00
1.866666666666666696e+00,1.684950818792683363e+09,0.000000000000000000e+00,1.572039080656019605e+00,0.000000000000000000e+00,1.572039080656019605e+00
1.883333333333333304e+00,1.684950818809683323e+09,0.000000000000000000e+00,1.556014217448515868e+00,0.000000000000000000e+00,1.556014217448515868e+00
1.899999999999999911e+00,1.684950818827682972e+09,0.000000000000000000e+00,1.539989354241013464e+00,0.000000000000000000e+00,1.539989354241013464e+00
1.916666666666666741e+00,1.684950818843681097e+09,0.000000000000000000e+00,1.539989354241013464e+00,0.000000000000000000e+00,1.539989354241013464e+00
1.933333333333333348e+00,1.684950818861682415e+09,0.000000000000000000e+00,1.539989354241013464e+00,0.000000000000000000e+00,1.539989354241013464e+00
1.949999999999999956e+00,1.684950818878707886e+09,0.000000000000000000e+00,1.556014217448515868e+00,0.000000000000000000e+00,1.556014217448515868e+00
1.966666666666666563e+00,1.684950818895658970e+09,0.000000000000000000e+00,1.556014217448515868e+00,0.000000000000000000e+00,1.556014217448515868e+00
1.983333333333333393e+00,1.684950818912704706e+09,0.000000000000000000e+00,1.539989354241013464e+00,0.000000000000000000e+00,1.539989354241013464e+00
2.000000000000000000e+00,1.684950818930683851e+09,0.000000000000000000e+00,1.539989354241013464e+00,0.000000000000000000e+00,1.539989354241013464e+00
2.016666666666666607e+00,1.684950818946683884e+09,0.000000000000000000e+00,1.539989354241013464e+00,0.000000000000000000e+00,1.539989354241013464e+00
2.033333333333333215e+00,1.684950818962683916e+09,0.000000000000000000e+00,1.523964491033511059e+00,0.000000000000000000e+00,1.523964491033511059e+00
2.049999999999999822e+00,1.684950818980689287e+09,0.000000000000000000e+00,1.523964491033511059e+00,0.000000000000000000e+00,1.523964491033511059e+00
2.066666666666666430e+00,1.684950818996681213e+09,0.000000000000000000e+00,1.523964491033511059e+00,0.000000000000000000e+00,1.523964491033511059e+00
2.083333333333333481e+00,1.684950819013682842e+09,0.000000000000000000e+00,1.507939627826008655e+00,0.000000000000000000e+00,1.507939627826008655e+00
2.100000000000000089e+00,1.684950819031683207e+09,0.000000000000000000e+00,1.507939627826008655e+00,0.000000000000000000e+00,1.507939627826008655e+00
2.116666666666666696e+00,1.684950819047683239e+09,0.000000000000000000e+00,1.507939627826008655e+00,0.000000000000000000e+00,1.507939627826008655e+00
2.133333333333333304e+00,1.684950819065683603e+09,0.000000000000000000e+00,1.491914764618504918e+00,0.000000000000000000e+00,1.491914764618504918e+00
2.149999999999999911e+00,1.684950819082681179e+09,0.000000000000000000e+00,1.475889901411002514e+00,0.000000000000000000e+00,1.475889901411002514e+00
2.166666666666666519e+00,1.684950819098681211e+09,0.000000000000000000e+00,1.459865038203500109e+00,0.000000000000000000e+00,1.459865038203500109e+00
2.183333333333333126e+00,1.684950819116680861e+09,0.000000000000000000e+00,1.411790448580991564e+00,0.000000000000000000e+00,1.411790448580991564e+00
2.200000000000000178e+00,1.684950819134682417e+09,0.000000000000000000e+00,1.379740722165986533e+00,0.000000000000000000e+00,1.379740722165986533e+00
2.216666666666666785e+00,1.684950819150703192e+09,0.000000000000000000e+00,1.331666132543477987e+00,0.000000000000000000e+00,1.331666132543477987e+00
2.233333333333333393e+00,1.684950819167704344e+09,0.000000000000000000e+00,1.283591542920969442e+00,0.000000000000000000e+00,1.283591542920969442e+00
2.250000000000000000e+00,1.684950819184658289e+09,0.000000000000000000e+00,1.235516953298460896e+00,0.000000000000000000e+00,1.235516953298460896e+00
2.266666666666666607e+00,1.684950819201689720e+09,0.000000000000000000e+00,1.203467226883456087e+00,0.000000000000000000e+00,1.203467226883456087e+00
2.283333333333333215e+00,1.684950819218683958e+09,0.000000000000000000e+00,1.187442363675953683e+00,0.000000000000000000e+00,1.187442363675953683e+00
2.299999999999999822e+00,1.684950819234688997e+09,0.000000000000000000e+00,1.504252821940105012e+00,0.000000000000000000e+00,1.504252821940105012e+00
2.316666666666666430e+00,1.684950819253655910e+09,0.000000000000000000e+00,1.488227958732602385e+00,0.000000000000000000e+00,1.488227958732602385e+00
2.333333333333333481e+00,1.684950819268704414e+09,0.000000000000000000e+00,1.123342910845942733e+00,0.000000000000000000e+00,1.123342910845942733e+00
2.350000000000000089e+00,1.684950819287659407e+09,0.000000000000000000e+00,1.507379327961573035e+00,0.000000000000000000e+00,1.507379327961573035e+00
2.366666666666666696e+00,1.684950819306683064e+09,0.000000000000000000e+00,1.107318047638440106e+00,0.000000000000000000e+00,1.107318047638440106e+00
2.383333333333333304e+00,1.684950819321705341e+09,0.000000000000000000e+00,1.107318047638440106e+00,0.000000000000000000e+00,1.107318047638440106e+00
2.399999999999999911e+00,1.684950819338687420e+09,0.000000000000000000e+00,1.107318047638440106e+00,0.000000000000000000e+00,1.107318047638440106e+00
2.416666666666666519e+00,1.684950819355705023e+09,0.000000000000000000e+00,1.075268321223434187e+00,0.000000000000000000e+00,1.075268321223434187e+00
2.433333333333333126e+00,1.684950819371704817e+09,0.000000000000000000e+00,1.059243458015931560e+00,0.000000000000000000e+00,1.059243458015931560e+00
2.450000000000000178e+00,1.684950819389704704e+09,0.000000000000000000e+00,1.043218594808429156e+00,0.000000000000000000e+00,1.043218594808429156e+00
2.466666666666666785e+00,1.684950819406703949e+09,0.000000000000000000e+00,1.043218594808429156e+00,0.000000000000000000e+00,1.043218594808429156e+00
2.483333333333333393e+00,1.684950819424658775e+09,0.000000000000000000e+00,7.447214927929394213e-01,0.000000000000000000e+00,7.447214927929394213e-01
2.500000000000000000e+00,1.684950819442684174e+09,0.000000000000000000e+00,7.333369946925026861e-01,0.000000000000000000e+00,7.333369946925026861e-01
2.516666666666666607e+00,1.684950819456656218e+09,0.000000000000000000e+00,7.447214927929394213e-01,0.000000000000000000e+00,7.447214927929394213e-01
2.533333333333333215e+00,1.684950819475704193e+09,0.000000000000000000e+00,7.309735292055241640e-01,0.000000000000000000e+00,7.309735292055241640e-01
2.549999999999999822e+00,1.684950819492682457e+09,0.000000000000000000e+00,7.126717663779345013e-01,0.000000000000000000e+00,7.126717663779345013e-01
2.566666666666666430e+00,1.684950819508656979e+09,0.000000000000000000e+00,6.055709183669401030e-01,0.000000000000000000e+00,6.055709183669401030e-01
2.583333333333333481e+00,1.684950819527683496e+09,0.000000000000000000e+00,6.214226498406587584e-01,0.000000000000000000e+00,6.214226498406587584e-01
2.600000000000000089e+00,1.684950819544683218e+09,0.000000000000000000e+00,9.630942787709145803e-01,0.000000000000000000e+00,9.630942787709145803e-01
2.616666666666666696e+00,1.684950819558704615e+09,0.000000000000000000e+00,9.630942787709145803e-01,0.000000000000000000e+00,9.630942787709145803e-01
2.633333333333333304e+00,1.684950819577683449e+09,0.000000000000000000e+00,9.630942787709145803e-01,0.000000000000000000e+00,9.630942787709145803e-01
2.649999999999999911e+00,1.684950819593704224e+09,0.000000000000000000e+00,9.630942787709145803e-01,0.000000000000000000e+00,9.630942787709145803e-01
2.666666666666666519e+00,1.684950819610682487e+09,0.000000000000000000e+00,9.630942787709145803e-01,0.000000000000000000e+00,9.630942787709145803e-01
2.683333333333333126e+00,1.684950819629705906e+09,0.000000000000000000e+00,9.630942787709145803e-01,0.000000000000000000e+00,9.630942787709145803e-01
2.700000000000000178e+00,1.684950819646704197e+09,0.000000000000000000e+00,9.630942787709145803e-01,0.000000000000000000e+00,9.630942787709145803e-01
2.716666666666666785e+00,1.684950819660680771e+09,0.000000000000000000e+00,9.630942787709145803e-01,0.000000000000000000e+00,9.630942787709145803e-01
2.733333333333333393e+00,1.684950819680684805e+09,0.000000000000000000e+00,9.630942787709145803e-01,0.000000000000000000e+00,9.630942787709145803e-01
2.750000000000000000e+00,1.684950819697683096e+09,0.000000000000000000e+00,9.630942787709145803e-01,0.000000000000000000e+00,9.630942787709145803e-01
2.766666666666666607e+00,1.684950819713694811e+09,0.000000000000000000e+00,9.630942787709145803e-01,0.000000000000000000e+00,9.630942787709145803e-01
2.783333333333333215e+00,1.684950819730684042e+09,0.000000000000000000e+00,9.630942787709145803e-01,0.000000000000000000e+00,9.630942787709145803e-01
2.799999999999999822e+00,1.684950819748699188e+09,0.000000000000000000e+00,9.630942787709145803e-01,0.000000000000000000e+00,9.630942787709145803e-01
2.816666666666666430e+00,1.684950819765706539e+09,0.000000000000000000e+00,9.630942787709145803e-01,0.000000000000000000e+00,9.630942787709145803e-01
2.833333333333333481e+00,1.684950819782683134e+09,0.000000000000000000e+00,9.630942787709145803e-01,0.000000000000000000e+00,9.630942787709145803e-01
2.850000000000000089e+00,1.684950819802705526e+09,0.000000000000000000e+00,9.630942787709145803e-01,0.000000000000000000e+00,9.630942787709145803e-01
2.866666666666666696e+00,1.684950819818705320e+09,0.000000000000000000e+00,9.630942787709145803e-01,0.000000000000000000e+00,9.630942787709145803e-01
2.883333333333333304e+00,1.684950819835658789e+09,0.000000000000000000e+00,9.630942787709145803e-01,0.000000000000000000e+00,9.630942787709145803e-01
2.899999999999999911e+00,1.684950819852681160e+09,0.000000000000000000e+00,9.630942787709145803e-01,0.000000000000000000e+00,9.630942787709145803e-01
2.916666666666666519e+00,1.684950819868681192e+09,0.000000000000000000e+00,9.630942787709145803e-01,0.000000000000000000e+00,9.630942787709145803e-01
2.933333333333333126e+00,1.684950819887659073e+09,0.000000000000000000e+00,9.470694155634121758e-01,0.000000000000000000e+00,9.470694155634121758e-01
2.950000000000000178e+00,1.684950819902685404e+09,0.000000000000000000e+00,9.470694155634121758e-01,0.000000000000000000e+00,9.470694155634121758e-01
2.966666666666666785e+00,1.684950819920681000e+09,0.000000000000000000e+00,9.470694155634121758e-01,0.000000000000000000e+00,9.470694155634121758e-01
2.983333333333333393e+00,1.684950819938660145e+09,0.000000000000000000e+00,9.150196891484072559e-01,0.000000000000000000e+00,9.150196891484072559e-01
3.000000000000000000e+00,1.684950819955668688e+09,0.000000000000000000e+00,8.829699627334011147e-01,0.000000000000000000e+00,8.829699627334011147e-01
3.016666666666666607e+00,1.684950819971660614e+09,0.000000000000000000e+00,8.669450995258987103e-01,0.000000000000000000e+00,8.669450995258987103e-01
3.033333333333333215e+00,1.684950819989660025e+09,0.000000000000000000e+00,8.509202363183961948e-01,0.000000000000000000e+00,8.509202363183961948e-01
3.049999999999999822e+00,1.684950820008656263e+09,0.000000000000000000e+00,8.509202363183961948e-01,0.000000000000000000e+00,8.509202363183961948e-01
3.066666666666666430e+00,1.684950820025654793e+09,0.000000000000000000e+00,8.348953731108925691e-01,0.000000000000000000e+00,8.348953731108925691e-01
3.083333333333333481e+00,1.684950820044657469e+09,0.000000000000000000e+00,8.188705099033901647e-01,0.000000000000000000e+00,8.188705099033901647e-01
3.100000000000000089e+00,1.684950820062656641e+09,0.000000000000000000e+00,8.028456466958876492e-01,0.000000000000000000e+00,8.028456466958876492e-01
3.116666666666666696e+00,1.684950820078659773e+09,0.000000000000000000e+00,7.868207834883852447e-01,0.000000000000000000e+00,7.868207834883852447e-01
3.133333333333333304e+00,1.684950820096657753e+09,0.000000000000000000e+00,7.707959202808816190e-01,0.000000000000000000e+00,7.707959202808816190e-01
3.149999999999999911e+00,1.684950820112683296e+09,0.000000000000000000e+00,7.707959202808816190e-01,0.000000000000000000e+00,7.707959202808816190e-01
3.166666666666666519e+00,1.684950820129681826e+09,0.000000000000000000e+00,7.707959202808816190e-01,0.000000000000000000e+00,7.707959202808816190e-01
3.183333333333333126e+00,1.684950820147682905e+09,0.000000000000000000e+00,7.547710570733791036e-01,0.000000000000000000e+00,7.547710570733791036e-01
3.200000000000000178e+00,1.684950820162683487e+09,0.000000000000000000e+00,1.146121916423862963e+00,0.000000000000000000e+00,1.146121916423862963e+00
3.216666666666666785e+00,1.684950820180691004e+09,0.000000000000000000e+00,1.080291936310180390e+00,0.000000000000000000e+00,1.080291936310180390e+00
3.233333333333333393e+00,1.684950820196680784e+09,0.000000000000000000e+00,1.160750800893570078e+00,0.000000000000000000e+00,1.160750800893570078e+00
3.250000000000000000e+00,1.684950820214658737e+09,0.000000000000000000e+00,1.131493031954156070e+00,0.000000000000000000e+00,1.131493031954156070e+00
3.266666666666666607e+00,1.684950820231658697e+09,0.000000000000000000e+00,7.387461938658766991e-01,0.000000000000000000e+00,7.387461938658766991e-01
3.283333333333333215e+00,1.684950820249683619e+09,0.000000000000000000e+00,7.387461938658766991e-01,0.000000000000000000e+00,7.387461938658766991e-01
3.299999999999999822e+00,1.684950820266692400e+09,0.000000000000000000e+00,7.387461938658766991e-01,0.000000000000000000e+00,7.387461938658766991e-01
3.316666666666666430e+00,1.684950820281704187e+09,0.000000000000000000e+00,7.387461938658766991e-01,0.000000000000000000e+00,7.387461938658766991e-01
3.333333333333333481e+00,1.684950820299657822e+09,0.000000000000000000e+00,7.387461938658766991e-01,0.000000000000000000e+00,7.387461938658766991e-01
3.350000000000000089e+00,1.684950820318708420e+09,0.000000000000000000e+00,7.227213306583742947e-01,0.000000000000000000e+00,7.227213306583742947e-01
3.366666666666666696e+00,1.684950820335683584e+09,0.000000000000000000e+00,7.227213306583742947e-01,0.000000000000000000e+00,7.227213306583742947e-01
3.383333333333333304e+00,1.684950820349683762e+09,0.000000000000000000e+00,7.227213306583742947e-01,0.000000000000000000e+00,7.227213306583742947e-01
3.399999999999999911e+00,1.684950820366682768e+09,0.000000000000000000e+00,7.066964674508705579e-01,0.000000000000000000e+00,7.066964674508705579e-01
3.416666666666666519e+00,1.684950820386684179e+09,0.000000000000000000e+00,6.906716042433681535e-01,0.000000000000000000e+00,6.906716042433681535e-01
3.433333333333333126e+00,1.684950820401682854e+09,0.000000000000000000e+00,6.746467410358656380e-01,0.000000000000000000e+00,6.746467410358656380e-01
3.449999999999999734e+00,1.684950820419682741e+09,0.000000000000000000e+00,6.746467410358656380e-01,0.000000000000000000e+00,6.746467410358656380e-01
3.466666666666666785e+00,1.684950820438694000e+09,0.000000000000000000e+00,6.425970146208608291e-01,0.000000000000000000e+00,6.425970146208608291e-01
3.483333333333333393e+00,1.684950820453659296e+09,0.000000000000000000e+00,6.265721514133570924e-01,0.000000000000000000e+00,6.265721514133570924e-01
3.500000000000000000e+00,1.684950820470657110e+09,0.000000000000000000e+00,6.265721514133570924e-01,0.000000000000000000e+00,6.265721514133570924e-01
3.516666666666666607e+00,1.684950820488704681e+09,0.000000000000000000e+00,6.105472882058546880e-01,0.000000000000000000e+00,6.105472882058546880e-01
3.533333333333333215e+00,1.684950820505707502e+09,0.000000000000000000e+00,5.945224249983522835e-01,0.000000000000000000e+00,5.945224249983522835e-01
3.549999999999999822e+00,1.684950820524720192e+09,0.000000000000000000e+00,5.784975617908497680e-01,0.000000000000000000e+00,5.784975617908497680e-01
3.566666666666666430e+00,1.684950820538683891e+09,0.000000000000000000e+00,5.784975617908497680e-01,0.000000000000000000e+00,5.784975617908497680e-01
3.583333333333333481e+00,1.684950820555681944e+09,0.000000000000000000e+00,5.624726985833461423e-01,0.000000000000000000e+00,5.624726985833461423e-01
3.600000000000000089e+00,1.684950820571682453e+09,0.000000000000000000e+00,5.624726985833461423e-01,0.000000000000000000e+00,5.624726985833461423e-01
3.616666666666666696e+00,1.684950820589703321e+09,0.000000000000000000e+00,5.624726985833461423e-01,0.000000000000000000e+00,5.624726985833461423e-01
3.633333333333333304e+00,1.684950820606684208e+09,0.000000000000000000e+00,5.624726985833461423e-01,0.000000000000000000e+00,5.624726985833461423e-01
3.649999999999999911e+00,1.684950820623703003e+09,0.000000000000000000e+00,5.464478353758437379e-01,0.000000000000000000e+00,5.464478353758437379e-01
3.666666666666666519e+00,1.684950820641659021e+09,0.000000000000000000e+00,5.624726985833461423e-01,0.000000000000000000e+00,5.624726985833461423e-01
3.683333333333333126e+00,1.684950820658703566e+09,0.000000000000000000e+00,5.464478353758437379e-01,0.000000000000000000e+00,5.464478353758437379e-01
3.699999999999999734e+00,1.684950820674659014e+09,0.000000000000000000e+00,5.464478353758437379e-01,0.000000000000000000e+00,5.464478353758437379e-01
3.716666666666666785e+00,1.684950820689682007e+09,0.000000000000000000e+00,5.304229721683412224e-01,0.000000000000000000e+00,5.304229721683412224e-01
3.733333333333333393e+00,1.684950820708682537e+09,0.000000000000000000e+00,5.304229721683412224e-01,0.000000000000000000e+00,5.304229721683412224e-01
3.750000000000000000e+00,1.684950820725684881e+09,0.000000000000000000e+00,5.143981089608388180e-01,0.000000000000000000e+00,5.143981089608388180e-01
3.766666666666666607e+00,1.684950820741684914e+09,0.000000000000000000e+00,9.203778527810284604e-01,0.000000000000000000e+00,9.203778527810284604e-01
3.783333333333333215e+00,1.684950820758682013e+09,0.000000000000000000e+00,4.983732457533351368e-01,0.000000000000000000e+00,4.983732457533351368e-01
3.799999999999999822e+00,1.684950820777704954e+09,0.000000000000000000e+00,4.823483825458327323e-01,0.000000000000000000e+00,4.823483825458327323e-01
3.816666666666666430e+00,1.684950820793658495e+09,0.000000000000000000e+00,7.580641448764537937e-01,0.000000000000000000e+00,7.580641448764537937e-01
3.833333333333333481e+00,1.684950820811703205e+09,0.000000000000000000e+00,4.663235193383302724e-01,0.000000000000000000e+00,4.663235193383302724e-01
3.850000000000000089e+00,1.684950820828658581e+09,0.000000000000000000e+00,7.639826083735118400e-01,0.000000000000000000e+00,7.639826083735118400e-01
3.866666666666666696e+00,1.684950820846658707e+09,0.000000000000000000e+00,4.502986561308278124e-01,0.000000000000000000e+00,4.502986561308278124e-01
3.883333333333333304e+00,1.684950820863681793e+09,0.000000000000000000e+00,4.342737929233241867e-01,0.000000000000000000e+00,4.342737929233241867e-01
3.899999999999999911e+00,1.684950820880683661e+09,0.000000000000000000e+00,4.182489297158217267e-01,0.000000000000000000e+00,4.182489297158217267e-01
3.916666666666666519e+00,1.684950820896658897e+09,0.000000000000000000e+00,4.022240665083192668e-01,0.000000000000000000e+00,4.022240665083192668e-01
3.933333333333333126e+00,1.684950820913708210e+09,0.000000000000000000e+00,3.861992033008168068e-01,0.000000000000000000e+00,3.861992033008168068e-01
3.949999999999999734e+00,1.684950820930684090e+09,0.000000000000000000e+00,3.701743400933131811e-01,0.000000000000000000e+00,3.701743400933131811e-01
3.966666666666666785e+00,1.684950820947658539e+09,0.000000000000000000e+00,3.701743400933131811e-01,0.000000000000000000e+00,3.701743400933131811e-01
3.983333333333333393e+00,1.684950820965688944e+09,0.000000000000000000e+00,3.541494768858107212e-01,0.000000000000000000e+00,3.541494768858107212e-01
4.000000000000000000e+00,1.684950820983656883e+09,0.000000000000000000e+00,3.220997504708058012e-01,0.000000000000000000e+00,3.220997504708058012e-01
4.016666666666666607e+00,1.684950820998683453e+09,0.000000000000000000e+00,2.900500240557997156e-01,0.000000000000000000e+00,2.900500240557997156e-01
4.033333333333333215e+00,1.684950821016705513e+09,0.000000000000000000e+00,2.740251608482972556e-01,0.000000000000000000e+00,2.740251608482972556e-01
4.049999999999999822e+00,1.684950821033684492e+09,0.000000000000000000e+00,2.580002976407948512e-01,0.000000000000000000e+00,2.580002976407948512e-01
4.066666666666666430e+00,1.684950821050658941e+09,0.000000000000000000e+00,2.419754344332911700e-01,0.000000000000000000e+00,2.419754344332911700e-01
4.083333333333333037e+00,1.684950821066658974e+09,0.000000000000000000e+00,2.419754344332911700e-01,0.000000000000000000e+00,2.419754344332911700e-01
4.099999999999999645e+00,1.684950821084683180e+09,0.000000000000000000e+00,2.259505712257887378e-01,0.000000000000000000e+00,2.259505712257887378e-01
4.116666666666666252e+00,1.684950821100703716e+09,0.000000000000000000e+00,2.099257080182862778e-01,0.000000000000000000e+00,2.099257080182862778e-01
4.133333333333332860e+00,1.684950821118681669e+09,0.000000000000000000e+00,5.500754717247944292e-01,0.000000000000000000e+00,5.500754717247944292e-01
4.150000000000000355e+00,1.684950821135703325e+09,0.000000000000000000e+00,6.451632207778923433e-01,0.000000000000000000e+00,6.451632207778923433e-01
4.166666666666666963e+00,1.684950821152683496e+09,0.000000000000000000e+00,5.720187984293563233e-01,0.000000000000000000e+00,5.720187984293563233e-01
4.183333333333333570e+00,1.684950821168683290e+09,0.000000000000000000e+00,6.218239153355351601e-01,0.000000000000000000e+00,6.218239153355351601e-01
4.200000000000000178e+00,1.684950821186657667e+09,0.000000000000000000e+00,5.925661463961200415e-01,0.000000000000000000e+00,5.925661463961200415e-01
4.216666666666666785e+00,1.684950821203682899e+09,0.000000000000000000e+00,7.315405488583399674e-01,0.000000000000000000e+00,7.315405488583399674e-01
4.233333333333333393e+00,1.684950821219704390e+09,0.000000000000000000e+00,5.340506085172908035e-01,0.000000000000000000e+00,5.340506085172908035e-01
4.250000000000000000e+00,1.684950821236704826e+09,0.000000000000000000e+00,5.340506085172908035e-01,0.000000000000000000e+00,5.340506085172908035e-01
4.266666666666666607e+00,1.684950821253684998e+09,0.000000000000000000e+00,5.267361662824373569e-01,0.000000000000000000e+00,5.267361662824373569e-01
4.283333333333333215e+00,1.684950821270687342e+09,0.000000000000000000e+00,5.706228196915595907e-01,0.000000000000000000e+00,5.706228196915595907e-01
4.299999999999999822e+00,1.684950821288679600e+09,0.000000000000000000e+00,1.778759816032801921e-01,0.000000000000000000e+00,1.778759816032801921e-01
4.316666666666666430e+00,1.684950821304657459e+09,0.000000000000000000e+00,1.029090840666204709e+00,0.000000000000000000e+00,1.029090840666204709e+00
4.333333333333333037e+00,1.684950821321689606e+09,0.000000000000000000e+00,1.778759816032801921e-01,0.000000000000000000e+00,1.778759816032801921e-01
4.349999999999999645e+00,1.684950821339682817e+09,0.000000000000000000e+00,6.291383575703887177e-01,0.000000000000000000e+00,6.291383575703887177e-01
4.366666666666666252e+00,1.684950821356703520e+09,0.000000000000000000e+00,8.119994134417294340e-01,0.000000000000000000e+00,8.119994134417294340e-01
4.383333333333332860e+00,1.684950821374688387e+09,0.000000000000000000e+00,1.031432680487339049e+00,0.000000000000000000e+00,1.031432680487339049e+00
4.400000000000000355e+00,1.684950821389681578e+09,0.000000000000000000e+00,7.740312235296665788e-01,0.000000000000000000e+00,7.740312235296665788e-01
4.416666666666666963e+00,1.684950821408691406e+09,0.000000000000000000e+00,7.726352447918710675e-01,0.000000000000000000e+00,7.726352447918710675e-01
4.433333333333333570e+00,1.684950821423681259e+09,0.000000000000000000e+00,6.615226325312708600e-01,0.000000000000000000e+00,6.615226325312708600e-01
4.450000000000000178e+00,1.684950821441708088e+09,0.000000000000000000e+00,6.075295794117043791e-01,0.000000000000000000e+00,6.075295794117043791e-01
4.466666666666666785e+00,1.684950821458683968e+09,0.000000000000000000e+00,4.086436603328610362e-01,0.000000000000000000e+00,4.086436603328610362e-01
4.483333333333333393e+00,1.684950821475682974e+09,0.000000000000000000e+00,6.193665064058215819e-01,0.000000000000000000e+00,6.193665064058215819e-01
4.500000000000000000e+00,1.684950821492689848e+09,0.000000000000000000e+00,5.082538941452213743e-01,0.000000000000000000e+00,5.082538941452213743e-01
4.516666666666666607e+00,1.684950821510705471e+09,0.000000000000000000e+00,4.702857042331572979e-01,0.000000000000000000e+00,4.702857042331572979e-01
4.533333333333333215e+00,1.684950821525707006e+09,0.000000000000000000e+00,3.532546284754990440e-01,0.000000000000000000e+00,3.532546284754990440e-01
4.549999999999999822e+00,1.684950821541707039e+09,0.000000000000000000e+00,3.365221273575574185e-02,0.000000000000000000e+00,3.365221273575574185e-02
4.566666666666666430e+00,1.684950821560684204e+09,0.000000000000000000e+00,3.365221273575574185e-02,0.000000000000000000e+00,3.365221273575574185e-02
4.583333333333333037e+00,1.684950821578705788e+09,0.000000000000000000e+00,1.762734952825329576e-02,0.000000000000000000e+00,1.762734952825329576e-02
4.599999999999999645e+00,1.684950821595682859e+09,0.000000000000000000e+00,1.762734952825329576e-02,0.000000000000000000e+00,1.762734952825329576e-02
4.616666666666666252e+00,1.684950821612704039e+09,0.000000000000000000e+00,1.602486320750845994e-03,0.000000000000000000e+00,1.602486320750845994e-03
4.633333333333332860e+00,1.684950821629682541e+09,0.000000000000000000e+00,-1.442237688675220356e-02,0.000000000000000000e+00,-1.442237688675220356e-02
4.650000000000000355e+00,1.684950821645704031e+09,0.000000000000000000e+00,-1.442237688675220356e-02,0.000000000000000000e+00,-1.442237688675220356e-02
4.666666666666666963e+00,1.684950821661682844e+09,0.000000000000000000e+00,-3.044724009425465311e-02,0.000000000000000000e+00,-3.044724009425465311e-02
4.683333333333333570e+00,1.684950821677703619e+09,0.000000000000000000e+00,-1.442237688675220356e-02,0.000000000000000000e+00,-1.442237688675220356e-02
4.700000000000000178e+00,1.684950821695681095e+09,0.000000000000000000e+00,-3.044724009425465311e-02,0.000000000000000000e+00,-3.044724009425465311e-02
4.716666666666666785e+00,1.684950821711683035e+09,0.000000000000000000e+00,-3.044724009425465311e-02,0.000000000000000000e+00,-3.044724009425465311e-02
4.733333333333333393e+00,1.684950821727659702e+09,0.000000000000000000e+00,-3.044724009425465311e-02,0.000000000000000000e+00,-3.044724009425465311e-02
4.750000000000000000e+00,1.684950821746704817e+09,0.000000000000000000e+00,-4.647210330175770288e-02,0.000000000000000000e+00,-4.647210330175770288e-02
4.766666666666666607e+00,1.684950821764658689e+09,0.000000000000000000e+00,-4.647210330175770288e-02,0.000000000000000000e+00,-4.647210330175770288e-02
4.783333333333333215e+00,1.684950821781707048e+09,0.000000000000000000e+00,-4.647210330175770288e-02,0.000000000000000000e+00,-4.647210330175770288e-02
4.799999999999999822e+00,1.684950821797707081e+09,0.000000000000000000e+00,-4.647210330175770288e-02,0.000000000000000000e+00,-4.647210330175770288e-02
4.816666666666666430e+00,1.684950821812659025e+09,0.000000000000000000e+00,-4.647210330175770288e-02,0.000000000000000000e+00,-4.647210330175770288e-02
4.833333333333333037e+00,1.684950821830682993e+09,0.000000000000000000e+00,-4.647210330175770288e-02,0.000000000000000000e+00,-4.647210330175770288e-02
4.849999999999999645e+00,1.684950821847683668e+09,0.000000000000000000e+00,-4.647210330175770288e-02,0.000000000000000000e+00,-4.647210330175770288e-02
4.866666666666666252e+00,1.684950821864705324e+09,0.000000000000000000e+00,-4.647210330175770288e-02,0.000000000000000000e+00,-4.647210330175770288e-02
4.883333333333332860e+00,1.684950821880708694e+09,0.000000000000000000e+00,-4.647210330175770288e-02,0.000000000000000000e+00,-4.647210330175770288e-02
4.900000000000000355e+00,1.684950821899683237e+09,0.000000000000000000e+00,-4.647210330175770288e-02,0.000000000000000000e+00,-4.647210330175770288e-02
4.916666666666666963e+00,1.684950821914681196e+09,0.000000000000000000e+00,-4.647210330175770288e-02,0.000000000000000000e+00,-4.647210330175770288e-02
4.933333333333333570e+00,1.684950821933657885e+09,0.000000000000000000e+00,-4.647210330175770288e-02,0.000000000000000000e+00,-4.647210330175770288e-02
4.950000000000000178e+00,1.684950821950682878e+09,0.000000000000000000e+00,-4.647210330175770288e-02,0.000000000000000000e+00,-4.647210330175770288e-02
4.966666666666666785e+00,1.684950821967682362e+09,0.000000000000000000e+00,-4.647210330175770288e-02,0.000000000000000000e+00,-4.647210330175770288e-02
4.983333333333333393e+00,1.684950821984683990e+09,0.000000000000000000e+00,-4.647210330175770288e-02,0.000000000000000000e+00,-4.647210330175770288e-02
5.000000000000000000e+00,1.684950822003655672e+09,0.000000000000000000e+00,-4.647210330175770288e-02,0.000000000000000000e+00,-4.647210330175770288e-02
5.016666666666666607e+00,1.684950822019658327e+09,0.000000000000000000e+00,-4.647210330175770288e-02,0.000000000000000000e+00,-4.647210330175770288e-02
5.033333333333333215e+00,1.684950822034693003e+09,0.000000000000000000e+00,-4.647210330175770288e-02,0.000000000000000000e+00,-4.647210330175770288e-02
5.049999999999999822e+00,1.684950822050704479e+09,0.000000000000000000e+00,-4.647210330175770288e-02,0.000000000000000000e+00,-4.647210330175770288e-02
5.066666666666666430e+00,1.684950822070681334e+09,0.000000000000000000e+00,-4.647210330175770288e-02,0.000000000000000000e+00,-4.647210330175770288e-02
5.083333333333333037e+00,1.684950822085705996e+09,0.000000000000000000e+00,-4.647210330175770288e-02,0.000000000000000000e+00,-4.647210330175770288e-02
5.099999999999999645e+00,1.684950822103657007e+09,0.000000000000000000e+00,-4.647210330175770288e-02,0.000000000000000000e+00,-4.647210330175770288e-02
5.116666666666666252e+00,1.684950822121655703e+09,0.000000000000000000e+00,-4.647210330175770288e-02,0.000000000000000000e+00,-4.647210330175770288e-02
5.133333333333332860e+00,1.684950822136657715e+09,0.000000000000000000e+00,-4.647210330175770288e-02,0.000000000000000000e+00,-4.647210330175770288e-02
5.150000000000000355e+00,1.684950822152705908e+09,0.000000000000000000e+00,-4.647210330175770288e-02,0.000000000000000000e+00,-4.647210330175770288e-02
5.166666666666666963e+00,1.684950822171656847e+09,0.000000000000000000e+00,-4.647210330175770288e-02,0.000000000000000000e+00,-4.647210330175770288e-02
5.183333333333333570e+00,1.684950822187659979e+09,0.000000000000000000e+00,-4.647210330175770288e-02,0.000000000000000000e+00,-4.647210330175770288e-02
5.200000000000000178e+00,1.684950822204658747e+09,0.000000000000000000e+00,-4.647210330175770288e-02,0.000000000000000000e+00,-4.647210330175770288e-02
5.216666666666666785e+00,1.684950822223703384e+09,0.000000000000000000e+00,-3.044724009425465311e-02,0.000000000000000000e+00,-3.044724009425465311e-02
5.233333333333333393e+00,1.684950822239683151e+09,0.000000000000000000e+00,-3.044724009425465311e-02,0.000000000000000000e+00,-3.044724009425465311e-02
5.250000000000000000e+00,1.684950822257681608e+09,0.000000000000000000e+00,-3.044724009425465311e-02,0.000000000000000000e+00,-3.044724009425465311e-02
5.266666666666666607e+00,1.684950822273683310e+09,0.000000000000000000e+00,-3.044724009425465311e-02,0.000000000000000000e+00,-3.044724009425465311e-02
5.283333333333333215e+00,1.684950822290703773e+09,0.000000000000000000e+00,-3.044724009425465311e-02,0.000000000000000000e+00,-3.044724009425465311e-02
5.299999999999999822e+00,1.684950822306676388e+09,0.000000000000000000e+00,-3.044724009425465311e-02,0.000000000000000000e+00,-3.044724009425465311e-02
5.316666666666666430e+00,1.684950822325658560e+09,0.000000000000000000e+00,-1.442237688675220356e-02,0.000000000000000000e+00,-1.442237688675220356e-02
5.333333333333333037e+00,1.684950822341706991e+09,0.000000000000000000e+00,-1.442237688675220356e-02,0.000000000000000000e+00,-1.442237688675220356e-02
5.349999999999999645e+00,1.684950822359704494e+09,0.000000000000000000e+00,-1.442237688675220356e-02,0.000000000000000000e+00,-1.442237688675220356e-02
5.366666666666666252e+00,1.684950822378683329e+09,0.000000000000000000e+00,-1.442237688675220356e-02,0.000000000000000000e+00,-1.442237688675220356e-02
5.383333333333332860e+00,1.684950822392696142e+09,0.000000000000000000e+00,1.602486320750845994e-03,0.000000000000000000e+00,1.602486320750845994e-03
5.400000000000000355e+00,1.684950822410683155e+09,0.000000000000000000e+00,1.602486320750845994e-03,0.000000000000000000e+00,1.602486320750845994e-03
5.416666666666666963e+00,1.684950822428683043e+09,0.000000000000000000e+00,3.365221273575574185e-02,0.000000000000000000e+00,3.365221273575574185e-02
5.433333333333333570e+00,1.684950822444705248e+09,0.000000000000000000e+00,4.967707594325939530e-02,0.000000000000000000e+00,4.967707594325939530e-02
5.450000000000000178e+00,1.684950822460682392e+09,0.000000000000000000e+00,4.967707594325939530e-02,0.000000000000000000e+00,4.967707594325939530e-02
5.466666666666666785e+00,1.684950822477705240e+09,0.000000000000000000e+00,4.967707594325939530e-02,0.000000000000000000e+00,4.967707594325939530e-02
5.483333333333333393e+00,1.684950822496656656e+09,0.000000000000000000e+00,4.967707594325939530e-02,0.000000000000000000e+00,4.967707594325939530e-02
5.500000000000000000e+00,1.684950822514704704e+09,0.000000000000000000e+00,4.967707594325939530e-02,0.000000000000000000e+00,4.967707594325939530e-02
5.516666666666666607e+00,1.684950822529708385e+09,0.000000000000000000e+00,4.967707594325939530e-02,0.000000000000000000e+00,4.967707594325939530e-02
