# 
# 
# 
# 
# 
# 
# 
# 
# 
# 
# time,realtime,ref,inp,dis,state...
0.000000000000000000e+00,1.644607805617876053e+09,0.000000000000000000e+00,7.291312759413763611e-02,0.000000000000000000e+00,8.092555919788886609e-02
1.666666666666666644e-02,1.644607805620871305e+09,0.000000000000000000e+00,8.092555919788886609e-02,0.000000000000000000e+00,8.092555919788886609e-02
3.333333333333333287e-02,1.644607805622860670e+09,0.000000000000000000e+00,8.092555919788886609e-02,0.000000000000000000e+00,8.092555919788886609e-02
5.000000000000000278e-02,1.644607805637818336e+09,0.000000000000000000e+00,8.092555919788886609e-02,0.000000000000000000e+00,8.092555919788886609e-02
6.666666666666666574e-02,1.644607805655091524e+09,0.000000000000000000e+00,7.291312759413763611e-02,0.000000000000000000e+00,7.291312759413763611e-02
8.333333333333332871e-02,1.644607805671779871e+09,0.000000000000000000e+00,8.092555919788886609e-02,0.000000000000000000e+00,8.092555919788886609e-02
1.000000000000000056e-01,1.644607805689274311e+09,0.000000000000000000e+00,7.291312759413763611e-02,0.000000000000000000e+00,7.291312759413763611e-02
1.166666666666666685e-01,1.644607805705958843e+09,0.000000000000000000e+00,8.092555919788886609e-02,0.000000000000000000e+00,8.092555919788886609e-02
1.333333333333333315e-01,1.644607805721916676e+09,0.000000000000000000e+00,8.092555919788886609e-02,0.000000000000000000e+00,8.092555919788886609e-02
1.499999999999999944e-01,1.644607805741249800e+09,0.000000000000000000e+00,7.291312759413763611e-02,0.000000000000000000e+00,7.291312759413763611e-02
1.666666666666666574e-01,1.644607805758175373e+09,0.000000000000000000e+00,8.092555919788886609e-02,0.000000000000000000e+00,8.092555919788886609e-02
1.833333333333333204e-01,1.644607805773182154e+09,0.000000000000000000e+00,7.291312759413763611e-02,0.000000000000000000e+00,7.291312759413763611e-02
2.000000000000000111e-01,1.644607805790942192e+09,0.000000000000000000e+00,8.092555919788886609e-02,0.000000000000000000e+00,8.092555919788886609e-02
2.166666666666666741e-01,1.644607805809034586e+09,0.000000000000000000e+00,8.092555919788886609e-02,0.000000000000000000e+00,8.092555919788886609e-02
2.333333333333333370e-01,1.644607805824985981e+09,0.000000000000000000e+00,8.092555919788886609e-02,0.000000000000000000e+00,8.092555919788886609e-02
2.500000000000000000e-01,1.644607805842937946e+09,0.000000000000000000e+00,8.092555919788886609e-02,0.000000000000000000e+00,8.092555919788886609e-02
2.666666666666666630e-01,1.644607805858895063e+09,0.000000000000000000e+00,8.092555919788886609e-02,0.000000000000000000e+00,8.092555919788886609e-02
2.833333333333333259e-01,1.644607805875863314e+09,0.000000000000000000e+00,7.291312759413763611e-02,0.000000000000000000e+00,7.291312759413763611e-02
2.999999999999999889e-01,1.644607805894895077e+09,0.000000000000000000e+00,7.291312759413763611e-02,0.000000000000000000e+00,7.291312759413763611e-02
3.166666666666666519e-01,1.644607805910873175e+09,0.000000000000000000e+00,7.291312759413763611e-02,0.000000000000000000e+00,7.291312759413763611e-02
3.333333333333333148e-01,1.644607805927356243e+09,0.000000000000000000e+00,8.092555919788886609e-02,0.000000000000000000e+00,8.092555919788886609e-02
3.499999999999999778e-01,1.644607805945327520e+09,0.000000000000000000e+00,7.291312759413763611e-02,0.000000000000000000e+00,7.291312759413763611e-02
3.666666666666666408e-01,1.644607805962308407e+09,0.000000000000000000e+00,8.092555919788886609e-02,0.000000000000000000e+00,8.092555919788886609e-02
3.833333333333333037e-01,1.644607805978287458e+09,0.000000000000000000e+00,7.291312759413763611e-02,0.000000000000000000e+00,7.291312759413763611e-02
4.000000000000000222e-01,1.644607805996536732e+09,0.000000000000000000e+00,8.092555919788886609e-02,0.000000000000000000e+00,8.092555919788886609e-02
4.166666666666666852e-01,1.644607806013492584e+09,0.000000000000000000e+00,7.291312759413763611e-02,0.000000000000000000e+00,7.291312759413763611e-02
4.333333333333333481e-01,1.644607806029178619e+09,0.000000000000000000e+00,8.092555919788886609e-02,0.000000000000000000e+00,8.092555919788886609e-02
4.500000000000000111e-01,1.644607806045505047e+09,0.000000000000000000e+00,8.092555919788886609e-02,0.000000000000000000e+00,8.092555919788886609e-02
4.666666666666666741e-01,1.644607806063435078e+09,0.000000000000000000e+00,8.092555919788886609e-02,0.000000000000000000e+00,8.092555919788886609e-02
4.833333333333333370e-01,1.644607806080390215e+09,0.000000000000000000e+00,7.291312759413763611e-02,0.000000000000000000e+00,7.291312759413763611e-02
5.000000000000000000e-01,1.644607806096500158e+09,0.000000000000000000e+00,8.092555919788886609e-02,0.000000000000000000e+00,8.092555919788886609e-02
5.166666666666666075e-01,1.644607806114476681e+09,0.000000000000000000e+00,7.291312759413763611e-02,0.000000000000000000e+00,7.291312759413763611e-02
5.333333333333333259e-01,1.644607806129828691e+09,0.000000000000000000e+00,8.092555919788886609e-02,0.000000000000000000e+00,8.092555919788886609e-02
5.500000000000000444e-01,1.644607806146109819e+09,0.000000000000000000e+00,7.291312759413763611e-02,0.000000000000000000e+00,7.291312759413763611e-02
5.666666666666666519e-01,1.644607806162535191e+09,0.000000000000000000e+00,8.092555919788886609e-02,0.000000000000000000e+00,8.092555919788886609e-02
5.833333333333333703e-01,1.644607806182132006e+09,0.000000000000000000e+00,8.092555919788886609e-02,0.000000000000000000e+00,8.092555919788886609e-02
5.999999999999999778e-01,1.644607806198088169e+09,0.000000000000000000e+00,8.092555919788886609e-02,0.000000000000000000e+00,8.092555919788886609e-02
6.166666666666666963e-01,1.644607806214045525e+09,0.000000000000000000e+00,8.092555919788886609e-02,0.000000000000000000e+00,8.092555919788886609e-02
6.333333333333333037e-01,1.644607806230999708e+09,0.000000000000000000e+00,8.092555919788886609e-02,0.000000000000000000e+00,8.092555919788886609e-02
6.500000000000000222e-01,1.644607806247955322e+09,0.000000000000000000e+00,8.092555919788886609e-02,0.000000000000000000e+00,8.092555919788886609e-02
6.666666666666666297e-01,1.644607806265905142e+09,0.000000000000000000e+00,7.291312759413763611e-02,0.000000000000000000e+00,7.291312759413763611e-02
6.833333333333333481e-01,1.644607806283210039e+09,0.000000000000000000e+00,7.291312759413763611e-02,0.000000000000000000e+00,7.291312759413763611e-02
6.999999999999999556e-01,1.644607806300477982e+09,0.000000000000000000e+00,8.092555919788886609e-02,0.000000000000000000e+00,8.092555919788886609e-02
7.166666666666666741e-01,1.644607806315520287e+09,0.000000000000000000e+00,7.291312759413763611e-02,0.000000000000000000e+00,7.291312759413763611e-02
7.333333333333332815e-01,1.644607806333475113e+09,0.000000000000000000e+00,8.092555919788886609e-02,0.000000000000000000e+00,8.092555919788886609e-02
7.500000000000000000e-01,1.644607806351452589e+09,0.000000000000000000e+00,7.291312759413763611e-02,0.000000000000000000e+00,7.291312759413763611e-02
7.666666666666666075e-01,1.644607806367409229e+09,0.000000000000000000e+00,7.291312759413763611e-02,0.000000000000000000e+00,7.291312759413763611e-02
7.833333333333333259e-01,1.644607806384847641e+09,0.000000000000000000e+00,7.291312759413763611e-02,0.000000000000000000e+00,7.291312759413763611e-02
8.000000000000000444e-01,1.644607806401190042e+09,0.000000000000000000e+00,7.291312759413763611e-02,0.000000000000000000e+00,7.291312759413763611e-02
8.166666666666666519e-01,1.644607806418563843e+09,0.000000000000000000e+00,7.291312759413763611e-02,0.000000000000000000e+00,7.291312759413763611e-02
8.333333333333333703e-01,1.644607806435986996e+09,0.000000000000000000e+00,7.291312759413763611e-02,0.000000000000000000e+00,7.291312759413763611e-02
8.499999999999999778e-01,1.644607806452090025e+09,0.000000000000000000e+00,7.291312759413763611e-02,0.000000000000000000e+00,7.291312759413763611e-02
8.666666666666666963e-01,1.644607806467310190e+09,0.000000000000000000e+00,7.291312759413763611e-02,0.000000000000000000e+00,7.291312759413763611e-02
8.833333333333333037e-01,1.644607806487257004e+09,0.000000000000000000e+00,7.291312759413763611e-02,0.000000000000000000e+00,7.291312759413763611e-02
9.000000000000000222e-01,1.644607806503662586e+09,0.000000000000000000e+00,8.092555919788886609e-02,0.000000000000000000e+00,8.092555919788886609e-02
9.166666666666666297e-01,1.644607806521176577e+09,0.000000000000000000e+00,7.291312759413763611e-02,0.000000000000000000e+00,7.291312759413763611e-02
9.333333333333333481e-01,1.644607806538664579e+09,0.000000000000000000e+00,7.291312759413763611e-02,0.000000000000000000e+00,7.291312759413763611e-02
9.499999999999999556e-01,1.644607806555639982e+09,0.000000000000000000e+00,7.291312759413763611e-02,0.000000000000000000e+00,7.291312759413763611e-02
9.666666666666666741e-01,1.644607806571408510e+09,0.000000000000000000e+00,7.291312759413763611e-02,0.000000000000000000e+00,7.291312759413763611e-02
9.833333333333332815e-01,1.644607806589336634e+09,0.000000000000000000e+00,8.092555919788886609e-02,0.000000000000000000e+00,8.092555919788886609e-02
1.000000000000000000e+00,1.644607806609401703e+09,0.000000000000000000e+00,7.291312759413763611e-02,0.000000000000000000e+00,7.291312759413763611e-02
1.016666666666666607e+00,1.644607806623390913e+09,0.000000000000000000e+00,7.291312759413763611e-02,0.000000000000000000e+00,7.291312759413763611e-02
1.033333333333333215e+00,1.644607806639606714e+09,0.000000000000000000e+00,7.291312759413763611e-02,0.000000000000000000e+00,7.291312759413763611e-02
1.050000000000000044e+00,1.644607806657535553e+09,0.000000000000000000e+00,8.092555919788886609e-02,0.000000000000000000e+00,8.092555919788886609e-02
1.066666666666666652e+00,1.644607806674917936e+09,0.000000000000000000e+00,8.092555919788886609e-02,0.000000000000000000e+00,8.092555919788886609e-02
1.083333333333333259e+00,1.644607806691870928e+09,0.000000000000000000e+00,7.291312759413763611e-02,0.000000000000000000e+00,7.291312759413763611e-02
1.100000000000000089e+00,1.644607806708475590e+09,0.000000000000000000e+00,8.092555919788886609e-02,0.000000000000000000e+00,8.092555919788886609e-02
1.116666666666666696e+00,1.644607806725959063e+09,0.000000000000000000e+00,7.291312759413763611e-02,0.000000000000000000e+00,7.291312759413763611e-02
1.133333333333333304e+00,1.644607806741933584e+09,0.000000000000000000e+00,7.291312759413763611e-02,0.000000000000000000e+00,7.291312759413763611e-02
1.149999999999999911e+00,1.644607806760148287e+09,0.000000000000000000e+00,8.092555919788886609e-02,0.000000000000000000e+00,8.092555919788886609e-02
1.166666666666666741e+00,1.644607806774905682e+09,0.000000000000000000e+00,8.092555919788886609e-02,0.000000000000000000e+00,8.092555919788886609e-02
1.183333333333333348e+00,1.644607806792374372e+09,0.000000000000000000e+00,8.092555919788886609e-02,0.000000000000000000e+00,8.092555919788886609e-02
1.199999999999999956e+00,1.644607806809329033e+09,0.000000000000000000e+00,8.092555919788886609e-02,0.000000000000000000e+00,8.092555919788886609e-02
1.216666666666666563e+00,1.644607806827597618e+09,0.000000000000000000e+00,7.291312759413763611e-02,0.000000000000000000e+00,7.291312759413763611e-02
1.233333333333333393e+00,1.644607806844196320e+09,0.000000000000000000e+00,7.291312759413763611e-02,0.000000000000000000e+00,7.291312759413763611e-02
1.250000000000000000e+00,1.644607806860596418e+09,0.000000000000000000e+00,7.291312759413763611e-02,0.000000000000000000e+00,7.291312759413763611e-02
1.266666666666666607e+00,1.644607806876738310e+09,0.000000000000000000e+00,7.291312759413763611e-02,0.000000000000000000e+00,7.291312759413763611e-02
1.283333333333333215e+00,1.644607806894667149e+09,0.000000000000000000e+00,8.092555919788886609e-02,0.000000000000000000e+00,8.092555919788886609e-02
1.300000000000000044e+00,1.644607806911644936e+09,0.000000000000000000e+00,7.291312759413763611e-02,0.000000000000000000e+00,7.291312759413763611e-02
1.316666666666666652e+00,1.644607806929355145e+09,0.000000000000000000e+00,7.291312759413763611e-02,0.000000000000000000e+00,7.291312759413763611e-02
1.333333333333333259e+00,1.644607806947286606e+09,0.000000000000000000e+00,7.291312759413763611e-02,0.000000000000000000e+00,7.291312759413763611e-02
1.350000000000000089e+00,1.644607806963643074e+09,0.000000000000000000e+00,7.291312759413763611e-02,0.000000000000000000e+00,7.291312759413763611e-02
1.366666666666666696e+00,1.644607806980576277e+09,0.000000000000000000e+00,8.092555919788886609e-02,0.000000000000000000e+00,8.092555919788886609e-02
1.383333333333333304e+00,1.644607806997555256e+09,0.000000000000000000e+00,7.291312759413763611e-02,0.000000000000000000e+00,7.291312759413763611e-02
1.399999999999999911e+00,1.644607807014865160e+09,0.000000000000000000e+00,7.291312759413763611e-02,0.000000000000000000e+00,7.291312759413763611e-02
1.416666666666666741e+00,1.644607807032796383e+09,0.000000000000000000e+00,7.291312759413763611e-02,0.000000000000000000e+00,7.291312759413763611e-02
1.433333333333333348e+00,1.644607807051721811e+09,0.000000000000000000e+00,8.092555919788886609e-02,0.000000000000000000e+00,8.092555919788886609e-02
1.449999999999999956e+00,1.644607807066681862e+09,0.000000000000000000e+00,7.291312759413763611e-02,0.000000000000000000e+00,7.291312759413763611e-02
1.466666666666666563e+00,1.644607807083636284e+09,0.000000000000000000e+00,7.291312759413763611e-02,0.000000000000000000e+00,7.291312759413763611e-02
1.483333333333333393e+00,1.644607807101620197e+09,0.000000000000000000e+00,7.291312759413763611e-02,0.000000000000000000e+00,7.291312759413763611e-02
1.500000000000000000e+00,1.644607807115583181e+09,0.000000000000000000e+00,7.291312759413763611e-02,0.000000000000000000e+00,7.291312759413763611e-02
1.516666666666666607e+00,1.644607807133534908e+09,0.000000000000000000e+00,7.291312759413763611e-02,0.000000000000000000e+00,7.291312759413763611e-02
1.533333333333333215e+00,1.644607807151478052e+09,0.000000000000000000e+00,8.092555919788886609e-02,0.000000000000000000e+00,8.092555919788886609e-02
1.550000000000000044e+00,1.644607807168408155e+09,0.000000000000000000e+00,7.291312759413763611e-02,0.000000000000000000e+00,7.291312759413763611e-02
1.566666666666666652e+00,1.644607807184779882e+09,0.000000000000000000e+00,7.291312759413763611e-02,0.000000000000000000e+00,7.291312759413763611e-02
1.583333333333333259e+00,1.644607807201674938e+09,0.000000000000000000e+00,7.291312759413763611e-02,0.000000000000000000e+00,7.291312759413763611e-02
1.600000000000000089e+00,1.644607807218107700e+09,0.000000000000000000e+00,7.291312759413763611e-02,0.000000000000000000e+00,7.291312759413763611e-02
1.616666666666666696e+00,1.644607807235323906e+09,0.000000000000000000e+00,7.291312759413763611e-02,0.000000000000000000e+00,7.291312759413763611e-02
1.633333333333333304e+00,1.644607807250278950e+09,0.000000000000000000e+00,7.291312759413763611e-02,0.000000000000000000e+00,7.291312759413763611e-02
1.649999999999999911e+00,1.644607807268442154e+09,0.000000000000000000e+00,7.291312759413763611e-02,0.000000000000000000e+00,7.291312759413763611e-02
1.666666666666666741e+00,1.644607807287667274e+09,0.000000000000000000e+00,8.092555919788886609e-02,0.000000000000000000e+00,8.092555919788886609e-02
1.683333333333333348e+00,1.644607807304016590e+09,0.000000000000000000e+00,7.291312759413763611e-02,0.000000000000000000e+00,7.291312759413763611e-02
1.699999999999999956e+00,1.644607807320021868e+09,0.000000000000000000e+00,8.092555919788886609e-02,0.000000000000000000e+00,8.092555919788886609e-02
1.716666666666666563e+00,1.644607807335979939e+09,0.000000000000000000e+00,7.291312759413763611e-02,0.000000000000000000e+00,7.291312759413763611e-02
1.733333333333333393e+00,1.644607807353883505e+09,0.000000000000000000e+00,7.291312759413763611e-02,0.000000000000000000e+00,7.291312759413763611e-02
1.750000000000000000e+00,1.644607807369210482e+09,0.000000000000000000e+00,7.291312759413763611e-02,0.000000000000000000e+00,7.291312759413763611e-02
1.766666666666666607e+00,1.644607807387003660e+09,0.000000000000000000e+00,7.291312759413763611e-02,0.000000000000000000e+00,7.291312759413763611e-02
1.783333333333333215e+00,1.644607807403890610e+09,0.000000000000000000e+00,8.092555919788886609e-02,0.000000000000000000e+00,8.092555919788886609e-02
1.800000000000000044e+00,1.644607807422278166e+09,0.000000000000000000e+00,7.291312759413763611e-02,0.000000000000000000e+00,7.291312759413763611e-02
1.816666666666666652e+00,1.644607807438702106e+09,0.000000000000000000e+00,7.291312759413763611e-02,0.000000000000000000e+00,7.291312759413763611e-02
1.833333333333333259e+00,1.644607807455967426e+09,0.000000000000000000e+00,8.092555919788886609e-02,0.000000000000000000e+00,8.092555919788886609e-02
1.849999999999999867e+00,1.644607807473765850e+09,0.000000000000000000e+00,7.291312759413763611e-02,0.000000000000000000e+00,7.291312759413763611e-02
1.866666666666666696e+00,1.644607807490078688e+09,0.000000000000000000e+00,7.291312759413763611e-02,0.000000000000000000e+00,7.291312759413763611e-02
1.883333333333333304e+00,1.644607807507030725e+09,0.000000000000000000e+00,8.092555919788886609e-02,0.000000000000000000e+00,8.092555919788886609e-02
1.899999999999999911e+00,1.644607807524286985e+09,0.000000000000000000e+00,7.291312759413763611e-02,0.000000000000000000e+00,7.291312759413763611e-02
1.916666666666666741e+00,1.644607807540912867e+09,0.000000000000000000e+00,8.092555919788886609e-02,0.000000000000000000e+00,8.092555919788886609e-02
1.933333333333333348e+00,1.644607807556477070e+09,0.000000000000000000e+00,7.291312759413763611e-02,0.000000000000000000e+00,7.291312759413763611e-02
1.949999999999999956e+00,1.644607807574180126e+09,0.000000000000000000e+00,7.291312759413763611e-02,0.000000000000000000e+00,7.291312759413763611e-02
1.966666666666666563e+00,1.644607807591952562e+09,0.000000000000000000e+00,7.291312759413763611e-02,0.000000000000000000e+00,7.291312759413763611e-02
1.983333333333333393e+00,1.644607807609502077e+09,0.000000000000000000e+00,8.092555919788886609e-02,0.000000000000000000e+00,8.092555919788886609e-02
2.000000000000000000e+00,1.644607807628825903e+09,0.000000000000000000e+00,8.092555919788886609e-02,0.000000000000000000e+00,8.092555919788886609e-02
2.016666666666666607e+00,1.644607807642787933e+09,0.000000000000000000e+00,7.291312759413763611e-02,0.000000000000000000e+00,7.291312759413763611e-02
2.033333333333333215e+00,1.644607807659764290e+09,0.000000000000000000e+00,8.092555919788886609e-02,0.000000000000000000e+00,8.092555919788886609e-02
2.049999999999999822e+00,1.644607807677693129e+09,0.000000000000000000e+00,8.092555919788886609e-02,0.000000000000000000e+00,8.092555919788886609e-02
2.066666666666666430e+00,1.644607807693149090e+09,0.000000000000000000e+00,7.291312759413763611e-02,0.000000000000000000e+00,7.291312759413763611e-02
2.083333333333333481e+00,1.644607807712098598e+09,0.000000000000000000e+00,8.092555919788886609e-02,0.000000000000000000e+00,8.092555919788886609e-02
2.100000000000000089e+00,1.644607807727058411e+09,0.000000000000000000e+00,7.291312759413763611e-02,0.000000000000000000e+00,7.291312759413763611e-02
2.116666666666666696e+00,1.644607807745035648e+09,0.000000000000000000e+00,7.291312759413763611e-02,0.000000000000000000e+00,7.291312759413763611e-02
2.133333333333333304e+00,1.644607807761965275e+09,0.000000000000000000e+00,8.092555919788886609e-02,0.000000000000000000e+00,8.092555919788886609e-02
2.149999999999999911e+00,1.644607807778919935e+09,0.000000000000000000e+00,8.092555919788886609e-02,0.000000000000000000e+00,8.092555919788886609e-02
2.166666666666666519e+00,1.644607807794877291e+09,0.000000000000000000e+00,7.291312759413763611e-02,0.000000000000000000e+00,7.291312759413763611e-02
2.183333333333333126e+00,1.644607807811831951e+09,0.000000000000000000e+00,8.092555919788886609e-02,0.000000000000000000e+00,8.092555919788886609e-02
2.200000000000000178e+00,1.644607807829783916e+09,0.000000000000000000e+00,8.092555919788886609e-02,0.000000000000000000e+00,8.092555919788886609e-02
2.216666666666666785e+00,1.644607807847028971e+09,0.000000000000000000e+00,8.092555919788886609e-02,0.000000000000000000e+00,8.092555919788886609e-02
2.233333333333333393e+00,1.644607807865105152e+09,0.000000000000000000e+00,7.291312759413763611e-02,0.000000000000000000e+00,7.291312759413763611e-02
2.250000000000000000e+00,1.644607807881544113e+09,0.000000000000000000e+00,7.291312759413763611e-02,0.000000000000000000e+00,7.291312759413763611e-02
2.266666666666666607e+00,1.644607807898668766e+09,0.000000000000000000e+00,7.291312759413763611e-02,0.000000000000000000e+00,7.291312759413763611e-02
2.283333333333333215e+00,1.644607807916839123e+09,0.000000000000000000e+00,7.291312759413763611e-02,0.000000000000000000e+00,7.291312759413763611e-02
2.299999999999999822e+00,1.644607807931793451e+09,0.000000000000000000e+00,8.092555919788886609e-02,0.000000000000000000e+00,8.092555919788886609e-02
2.316666666666666430e+00,1.644607807950716257e+09,0.000000000000000000e+00,7.291312759413763611e-02,0.000000000000000000e+00,7.291312759413763611e-02
2.333333333333333481e+00,1.644607807967704535e+09,0.000000000000000000e+00,7.291312759413763611e-02,0.000000000000000000e+00,7.291312759413763611e-02
2.350000000000000089e+00,1.644607807983652115e+09,0.000000000000000000e+00,7.291312759413763611e-02,0.000000000000000000e+00,7.291312759413763611e-02
2.366666666666666696e+00,1.644607808000573158e+09,0.000000000000000000e+00,8.092555919788886609e-02,0.000000000000000000e+00,8.092555919788886609e-02
2.383333333333333304e+00,1.644607808019550323e+09,0.000000000000000000e+00,8.092555919788886609e-02,0.000000000000000000e+00,8.092555919788886609e-02
2.399999999999999911e+00,1.644607808035473347e+09,0.000000000000000000e+00,8.092555919788886609e-02,0.000000000000000000e+00,8.092555919788886609e-02
2.416666666666666519e+00,1.644607808053452015e+09,0.000000000000000000e+00,7.291312759413763611e-02,0.000000000000000000e+00,7.291312759413763611e-02
2.433333333333333126e+00,1.644607808071265221e+09,0.000000000000000000e+00,7.291312759413763611e-02,0.000000000000000000e+00,7.291312759413763611e-02
2.450000000000000178e+00,1.644607808086549044e+09,0.000000000000000000e+00,7.291312759413763611e-02,0.000000000000000000e+00,7.291312759413763611e-02
2.466666666666666785e+00,1.644607808103866816e+09,0.000000000000000000e+00,7.291312759413763611e-02,0.000000000000000000e+00,7.291312759413763611e-02
2.483333333333333393e+00,1.644607808120862007e+09,0.000000000000000000e+00,7.291312759413763611e-02,0.000000000000000000e+00,7.291312759413763611e-02
2.500000000000000000e+00,1.644607808138570786e+09,0.000000000000000000e+00,8.092555919788886609e-02,0.000000000000000000e+00,8.092555919788886609e-02
2.516666666666666607e+00,1.644607808154151201e+09,0.000000000000000000e+00,7.291312759413763611e-02,0.000000000000000000e+00,7.291312759413763611e-02
2.533333333333333215e+00,1.644607808171766520e+09,0.000000000000000000e+00,7.291312759413763611e-02,0.000000000000000000e+00,7.291312759413763611e-02
2.549999999999999822e+00,1.644607808189738750e+09,0.000000000000000000e+00,7.291312759413763611e-02,0.000000000000000000e+00,7.291312759413763611e-02
2.566666666666666430e+00,1.644607808206069708e+09,0.000000000000000000e+00,7.291312759413763611e-02,0.000000000000000000e+00,7.291312759413763611e-02
2.583333333333333481e+00,1.644607808223362923e+09,0.000000000000000000e+00,8.092555919788886609e-02,0.000000000000000000e+00,8.092555919788886609e-02
2.600000000000000089e+00,1.644607808241314888e+09,0.000000000000000000e+00,8.092555919788886609e-02,0.000000000000000000e+00,8.092555919788886609e-02
2.616666666666666696e+00,1.644607808258269310e+09,0.000000000000000000e+00,8.092555919788886609e-02,0.000000000000000000e+00,8.092555919788886609e-02
2.633333333333333304e+00,1.644607808275246382e+09,0.000000000000000000e+00,8.092555919788886609e-02,0.000000000000000000e+00,8.092555919788886609e-02
2.649999999999999911e+00,1.644607808292202711e+09,0.000000000000000000e+00,7.291312759413763611e-02,0.000000000000000000e+00,7.291312759413763611e-02
2.666666666666666519e+00,1.644607808310106993e+09,0.000000000000000000e+00,7.291312759413763611e-02,0.000000000000000000e+00,7.291312759413763611e-02
2.683333333333333126e+00,1.644607808328520060e+09,0.000000000000000000e+00,8.092555919788886609e-02,0.000000000000000000e+00,8.092555919788886609e-02
2.700000000000000178e+00,1.644607808343478680e+09,0.000000000000000000e+00,8.092555919788886609e-02,0.000000000000000000e+00,8.092555919788886609e-02
2.716666666666666785e+00,1.644607808359411478e+09,0.000000000000000000e+00,8.092555919788886609e-02,0.000000000000000000e+00,8.092555919788886609e-02
2.733333333333333393e+00,1.644607808376599312e+09,0.000000000000000000e+00,7.291312759413763611e-02,0.000000000000000000e+00,7.291312759413763611e-02
2.750000000000000000e+00,1.644607808393893957e+09,0.000000000000000000e+00,7.291312759413763611e-02,0.000000000000000000e+00,7.291312759413763611e-02
2.766666666666666607e+00,1.644607808412938118e+09,0.000000000000000000e+00,8.092555919788886609e-02,0.000000000000000000e+00,8.092555919788886609e-02
2.783333333333333215e+00,1.644607808429241419e+09,0.000000000000000000e+00,7.291312759413763611e-02,0.000000000000000000e+00,7.291312759413763611e-02
2.799999999999999822e+00,1.644607808447205782e+09,0.000000000000000000e+00,7.291312759413763611e-02,0.000000000000000000e+00,7.291312759413763611e-02
2.816666666666666430e+00,1.644607808463665009e+09,0.000000000000000000e+00,7.291312759413763611e-02,0.000000000000000000e+00,7.291312759413763611e-02
2.833333333333333481e+00,1.644607808480382204e+09,0.000000000000000000e+00,7.291312759413763611e-02,0.000000000000000000e+00,7.291312759413763611e-02
2.850000000000000089e+00,1.644607808497087955e+09,0.000000000000000000e+00,7.291312759413763611e-02,0.000000000000000000e+00,7.291312759413763611e-02
2.866666666666666696e+00,1.644607808514017105e+09,0.000000000000000000e+00,7.291312759413763611e-02,0.000000000000000000e+00,7.291312759413763611e-02
2.883333333333333304e+00,1.644607808529133081e+09,0.000000000000000000e+00,8.092555919788886609e-02,0.000000000000000000e+00,8.092555919788886609e-02
2.899999999999999911e+00,1.644607808547368526e+09,0.000000000000000000e+00,8.092555919788886609e-02,0.000000000000000000e+00,8.092555919788886609e-02
2.916666666666666519e+00,1.644607808565321684e+09,0.000000000000000000e+00,7.291312759413763611e-02,0.000000000000000000e+00,7.291312759413763611e-02
2.933333333333333126e+00,1.644607808582595110e+09,0.000000000000000000e+00,8.092555919788886609e-02,0.000000000000000000e+00,8.092555919788886609e-02
2.950000000000000178e+00,1.644607808599013805e+09,0.000000000000000000e+00,7.291312759413763611e-02,0.000000000000000000e+00,7.291312759413763611e-02
2.966666666666666785e+00,1.644607808615971088e+09,0.000000000000000000e+00,8.092555919788886609e-02,0.000000000000000000e+00,8.092555919788886609e-02
2.983333333333333393e+00,1.644607808633872032e+09,0.000000000000000000e+00,8.092555919788886609e-02,0.000000000000000000e+00,8.092555919788886609e-02
3.000000000000000000e+00,1.644607808651823521e+09,0.000000000000000000e+00,7.291312759413763611e-02,0.000000000000000000e+00,7.291312759413763611e-02
3.016666666666666607e+00,1.644607808667814732e+09,0.000000000000000000e+00,7.291312759413763611e-02,0.000000000000000000e+00,7.291312759413763611e-02
3.033333333333333215e+00,1.644607808684760332e+09,0.000000000000000000e+00,7.291312759413763611e-02,0.000000000000000000e+00,7.291312759413763611e-02
3.049999999999999822e+00,1.644607808700117826e+09,0.000000000000000000e+00,7.291312759413763611e-02,0.000000000000000000e+00,7.291312759413763611e-02
3.066666666666666430e+00,1.644607808718070030e+09,0.000000000000000000e+00,7.291312759413763611e-02,0.000000000000000000e+00,7.291312759413763611e-02
3.083333333333333481e+00,1.644607808733681917e+09,0.000000000000000000e+00,-3.359588666242496191e-01,0.000000000000000000e+00,-3.359588666242496191e-01
3.100000000000000089e+00,1.644607808750313282e+09,0.000000000000000000e+00,8.092555919788886609e-02,0.000000000000000000e+00,8.092555919788886609e-02
3.116666666666666696e+00,1.644607808768259287e+09,0.000000000000000000e+00,7.291312759413763611e-02,0.000000000000000000e+00,7.291312759413763611e-02
3.133333333333333304e+00,1.644607808783821583e+09,0.000000000000000000e+00,8.092555919788886609e-02,0.000000000000000000e+00,8.092555919788886609e-02
3.149999999999999911e+00,1.644607808800342798e+09,0.000000000000000000e+00,7.291312759413763611e-02,0.000000000000000000e+00,7.291312759413763611e-02
3.166666666666666519e+00,1.644607808817278862e+09,0.000000000000000000e+00,7.291312759413763611e-02,0.000000000000000000e+00,7.291312759413763611e-02
3.183333333333333126e+00,1.644607808837201595e+09,0.000000000000000000e+00,8.092555919788886609e-02,0.000000000000000000e+00,8.092555919788886609e-02
3.200000000000000178e+00,1.644607808853162766e+09,0.000000000000000000e+00,8.092555919788886609e-02,0.000000000000000000e+00,8.092555919788886609e-02
3.216666666666666785e+00,1.644607808868117571e+09,0.000000000000000000e+00,8.092555919788886609e-02,0.000000000000000000e+00,8.092555919788886609e-02
3.233333333333333393e+00,1.644607808887067080e+09,0.000000000000000000e+00,7.291312759413763611e-02,0.000000000000000000e+00,7.291312759413763611e-02
3.250000000000000000e+00,1.644607808906019926e+09,0.000000000000000000e+00,7.291312759413763611e-02,0.000000000000000000e+00,7.291312759413763611e-02
3.266666666666666607e+00,1.644607808923992395e+09,0.000000000000000000e+00,8.092555919788886609e-02,0.000000000000000000e+00,8.092555919788886609e-02
3.283333333333333215e+00,1.644607808938953638e+09,0.000000000000000000e+00,7.291312759413763611e-02,0.000000000000000000e+00,7.291312759413763611e-02
3.299999999999999822e+00,1.644607808956907511e+09,0.000000000000000000e+00,7.291312759413763611e-02,0.000000000000000000e+00,7.291312759413763611e-02
3.316666666666666430e+00,1.644607808973834276e+09,0.000000000000000000e+00,7.291312759413763611e-02,0.000000000000000000e+00,7.291312759413763611e-02
3.333333333333333481e+00,1.644607808991786242e+09,0.000000000000000000e+00,7.291312759413763611e-02,0.000000000000000000e+00,7.291312759413763611e-02
3.350000000000000089e+00,1.644607809008743763e+09,0.000000000000000000e+00,7.291312759413763611e-02,0.000000000000000000e+00,7.291312759413763611e-02
3.366666666666666696e+00,1.644607809023702621e+09,0.000000000000000000e+00,8.092555919788886609e-02,0.000000000000000000e+00,8.092555919788886609e-02
3.383333333333333304e+00,1.644607809042683601e+09,0.000000000000000000e+00,8.092555919788886609e-02,0.000000000000000000e+00,8.092555919788886609e-02
3.399999999999999911e+00,1.644607809057637930e+09,0.000000000000000000e+00,7.291312759413763611e-02,0.000000000000000000e+00,7.291312759413763611e-02
3.416666666666666519e+00,1.644607809077582598e+09,0.000000000000000000e+00,7.291312759413763611e-02,0.000000000000000000e+00,7.291312759413763611e-02
3.433333333333333126e+00,1.644607809091551781e+09,0.000000000000000000e+00,8.092555919788886609e-02,0.000000000000000000e+00,8.092555919788886609e-02
3.449999999999999734e+00,1.644607809109473228e+09,0.000000000000000000e+00,7.291312759413763611e-02,0.000000000000000000e+00,7.291312759413763611e-02
3.466666666666666785e+00,1.644607809127424002e+09,0.000000000000000000e+00,8.092555919788886609e-02,0.000000000000000000e+00,8.092555919788886609e-02
3.483333333333333393e+00,1.644607809145377636e+09,0.000000000000000000e+00,8.092555919788886609e-02,0.000000000000000000e+00,8.092555919788886609e-02
3.500000000000000000e+00,1.644607809163329363e+09,0.000000000000000000e+00,7.291312759413763611e-02,0.000000000000000000e+00,7.291312759413763611e-02
3.516666666666666607e+00,1.644607809178289175e+09,0.000000000000000000e+00,7.291312759413763611e-02,0.000000000000000000e+00,7.291312759413763611e-02
3.533333333333333215e+00,1.644607809196241140e+09,0.000000000000000000e+00,7.291312759413763611e-02,0.000000000000000000e+00,7.291312759413763611e-02
3.549999999999999822e+00,1.644607809213194609e+09,0.000000000000000000e+00,8.092555919788886609e-02,0.000000000000000000e+00,8.092555919788886609e-02
3.566666666666666430e+00,1.644607809228188992e+09,0.000000000000000000e+00,8.092555919788886609e-02,0.000000000000000000e+00,8.092555919788886609e-02
3.583333333333333481e+00,1.644607809246131659e+09,0.000000000000000000e+00,8.092555919788886609e-02,0.000000000000000000e+00,8.092555919788886609e-02
3.600000000000000089e+00,1.644607809263061762e+09,0.000000000000000000e+00,7.291312759413763611e-02,0.000000000000000000e+00,7.291312759413763611e-02
3.616666666666666696e+00,1.644607809280040979e+09,0.000000000000000000e+00,7.291312759413763611e-02,0.000000000000000000e+00,7.291312759413763611e-02
3.633333333333333304e+00,1.644607809297994852e+09,0.000000000000000000e+00,7.291312759413763611e-02,0.000000000000000000e+00,7.291312759413763611e-02
3.649999999999999911e+00,1.644607809314934254e+09,0.000000000000000000e+00,8.092555919788886609e-02,0.000000000000000000e+00,8.092555919788886609e-02
3.666666666666666519e+00,1.644607809331903696e+09,0.000000000000000000e+00,7.291312759413763611e-02,0.000000000000000000e+00,7.291312759413763611e-02
3.683333333333333126e+00,1.644607809347860813e+09,0.000000000000000000e+00,7.291312759413763611e-02,0.000000000000000000e+00,7.291312759413763611e-02
3.699999999999999734e+00,1.644607809365833282e+09,0.000000000000000000e+00,7.291312759413763611e-02,0.000000000000000000e+00,7.291312759413763611e-02
3.716666666666666785e+00,1.644607809381790400e+09,0.000000000000000000e+00,7.291312759413763611e-02,0.000000000000000000e+00,7.291312759413763611e-02
3.733333333333333393e+00,1.644607809399695396e+09,0.000000000000000000e+00,8.092555919788886609e-02,0.000000000000000000e+00,8.092555919788886609e-02
3.750000000000000000e+00,1.644607809416429758e+09,0.000000000000000000e+00,7.291312759413763611e-02,0.000000000000000000e+00,7.291312759413763611e-02
3.766666666666666607e+00,1.644607809431666613e+09,0.000000000000000000e+00,7.291312759413763611e-02,0.000000000000000000e+00,7.291312759413763611e-02
3.783333333333333215e+00,1.644607809449620962e+09,0.000000000000000000e+00,8.092555919788886609e-02,0.000000000000000000e+00,8.092555919788886609e-02
3.799999999999999822e+00,1.644607809464875937e+09,0.000000000000000000e+00,7.291312759413763611e-02,0.000000000000000000e+00,7.291312759413763611e-02
3.816666666666666430e+00,1.644607809482365370e+09,0.000000000000000000e+00,8.092555919788886609e-02,0.000000000000000000e+00,8.092555919788886609e-02
3.833333333333333481e+00,1.644607809498063564e+09,0.000000000000000000e+00,8.092555919788886609e-02,0.000000000000000000e+00,8.092555919788886609e-02
3.850000000000000089e+00,1.644607809516402721e+09,0.000000000000000000e+00,8.092555919788886609e-02,0.000000000000000000e+00,8.092555919788886609e-02
3.866666666666666696e+00,1.644607809531812191e+09,0.000000000000000000e+00,9.695042240539190892e-02,0.000000000000000000e+00,9.695042240539190892e-02
3.883333333333333304e+00,1.644607809549766064e+09,0.000000000000000000e+00,1.129752856128943689e-01,0.000000000000000000e+00,1.129752856128943689e-01
3.899999999999999911e+00,1.644607809565721512e+09,0.000000000000000000e+00,1.129752856128943689e-01,0.000000000000000000e+00,1.129752856128943689e-01
3.916666666666666519e+00,1.644607809582679749e+09,0.000000000000000000e+00,1.209877172166455850e-01,0.000000000000000000e+00,1.209877172166455850e-01
3.933333333333333126e+00,1.644607809600604057e+09,0.000000000000000000e+00,1.129752856128943689e-01,0.000000000000000000e+00,1.129752856128943689e-01
3.949999999999999734e+00,1.644607809618555784e+09,0.000000000000000000e+00,1.209877172166455850e-01,0.000000000000000000e+00,1.209877172166455850e-01
3.966666666666666785e+00,1.644607809634513140e+09,0.000000000000000000e+00,1.209877172166455850e-01,0.000000000000000000e+00,1.209877172166455850e-01
3.983333333333333393e+00,1.644607809650503397e+09,0.000000000000000000e+00,1.129752856128943689e-01,0.000000000000000000e+00,1.129752856128943689e-01
4.000000000000000000e+00,1.644607809671542883e+09,0.000000000000000000e+00,1.209877172166455850e-01,0.000000000000000000e+00,1.209877172166455850e-01
4.016666666666666607e+00,1.644607809685739756e+09,0.000000000000000000e+00,1.129752856128943689e-01,0.000000000000000000e+00,1.129752856128943689e-01
4.033333333333333215e+00,1.644607809701717377e+09,0.000000000000000000e+00,1.129752856128943689e-01,0.000000000000000000e+00,1.129752856128943689e-01
4.049999999999999822e+00,1.644607809718650103e+09,0.000000000000000000e+00,1.209877172166455850e-01,0.000000000000000000e+00,1.209877172166455850e-01
4.066666666666666430e+00,1.644607809737076998e+09,0.000000000000000000e+00,1.129752856128943689e-01,0.000000000000000000e+00,1.129752856128943689e-01
4.083333333333333037e+00,1.644607809753742695e+09,0.000000000000000000e+00,1.209877172166455850e-01,0.000000000000000000e+00,1.209877172166455850e-01
4.099999999999999645e+00,1.644607809771301985e+09,0.000000000000000000e+00,1.209877172166455850e-01,0.000000000000000000e+00,1.209877172166455850e-01
4.116666666666666252e+00,1.644607809787235498e+09,0.000000000000000000e+00,1.129752856128943689e-01,0.000000000000000000e+00,1.129752856128943689e-01
4.133333333333332860e+00,1.644607809805538416e+09,0.000000000000000000e+00,1.209877172166455850e-01,0.000000000000000000e+00,1.209877172166455850e-01
4.150000000000000355e+00,1.644607809822545052e+09,0.000000000000000000e+00,1.209877172166455850e-01,0.000000000000000000e+00,1.209877172166455850e-01
4.166666666666666963e+00,1.644607809838495016e+09,0.000000000000000000e+00,1.209877172166455850e-01,0.000000000000000000e+00,1.209877172166455850e-01
4.183333333333333570e+00,1.644607809854537010e+09,0.000000000000000000e+00,1.209877172166455850e-01,0.000000000000000000e+00,1.209877172166455850e-01
4.200000000000000178e+00,1.644607809872687101e+09,0.000000000000000000e+00,1.370125804241486278e-01,0.000000000000000000e+00,1.370125804241486278e-01
4.216666666666666785e+00,1.644607809887645721e+09,0.000000000000000000e+00,1.530374436316510878e-01,0.000000000000000000e+00,1.530374436316510878e-01
4.233333333333333393e+00,1.644607809905963898e+09,0.000000000000000000e+00,1.770747384429053606e-01,0.000000000000000000e+00,1.770747384429053606e-01
4.250000000000000000e+00,1.644607809923915386e+09,0.000000000000000000e+00,1.930996016504084034e-01,0.000000000000000000e+00,1.930996016504084034e-01
4.266666666666666607e+00,1.644607809940991163e+09,0.000000000000000000e+00,2.011120332541596334e-01,0.000000000000000000e+00,2.011120332541596334e-01
4.283333333333333215e+00,1.644607809957203865e+09,0.000000000000000000e+00,2.091244648579108634e-01,0.000000000000000000e+00,2.091244648579108634e-01
4.299999999999999822e+00,1.644607809976503611e+09,0.000000000000000000e+00,2.251493280654139062e-01,0.000000000000000000e+00,2.251493280654139062e-01
4.316666666666666430e+00,1.644607809991655111e+09,0.000000000000000000e+00,2.331617596691651362e-01,0.000000000000000000e+00,2.331617596691651362e-01
4.333333333333333037e+00,1.644607810008977175e+09,0.000000000000000000e+00,2.491866228766675684e-01,0.000000000000000000e+00,2.491866228766675684e-01
4.349999999999999645e+00,1.644607810025929451e+09,0.000000000000000000e+00,2.571990544804194090e-01,0.000000000000000000e+00,2.571990544804194090e-01
4.366666666666666252e+00,1.644607810044252157e+09,0.000000000000000000e+00,2.652114860841706112e-01,0.000000000000000000e+00,2.652114860841706112e-01
4.383333333333332860e+00,1.644607810060334206e+09,0.000000000000000000e+00,2.892487808954248840e-01,0.000000000000000000e+00,2.892487808954248840e-01
4.400000000000000355e+00,1.644607810077672720e+09,0.000000000000000000e+00,2.972612124991761418e-01,0.000000000000000000e+00,2.972612124991761418e-01
4.416666666666666963e+00,1.644607810093862295e+09,0.000000000000000000e+00,3.212985073104304146e-01,0.000000000000000000e+00,3.212985073104304146e-01
4.433333333333333570e+00,1.644607810111169100e+09,0.000000000000000000e+00,3.453358021216840767e-01,0.000000000000000000e+00,3.453358021216840767e-01
4.450000000000000178e+00,1.644607810128531218e+09,0.000000000000000000e+00,3.773855285366895518e-01,0.000000000000000000e+00,3.773855285366895518e-01
4.466666666666666785e+00,1.644607810145855904e+09,0.000000000000000000e+00,4.094352549516950823e-01,0.000000000000000000e+00,4.094352549516950823e-01
4.483333333333333393e+00,1.644607810163660526e+09,0.000000000000000000e+00,4.334725497629493551e-01,0.000000000000000000e+00,4.334725497629493551e-01
4.500000000000000000e+00,1.644607810181144238e+09,0.000000000000000000e+00,4.575098445742036279e-01,0.000000000000000000e+00,4.575098445742036279e-01
4.516666666666666607e+00,1.644607810197129488e+09,0.000000000000000000e+00,4.895595709892091030e-01,0.000000000000000000e+00,4.895595709892091030e-01
4.533333333333333215e+00,1.644607810213865519e+09,0.000000000000000000e+00,5.296217290079657802e-01,0.000000000000000000e+00,5.296217290079657802e-01
