# 
# 
# 
# 
# 
# 
# 
# 
# 
# 
# time,realtime,ref,inp,inp0,inp1,dis,state...
0.000000000000000000e+00,1.642705890068731785e+09,-0.000000000000000000e+00,-2.163356533012830360e-02,0.000000000000000000e+00,-2.884475377350440711e-02,0.000000000000000000e+00,0.000000000000000000e+00,0.000000000000000000e+00
1.666666666666666644e-02,1.642705890071748495e+09,-2.172074148875811956e-07,-6.970815495263654737e-02,0.000000000000000000e+00,-9.294420660351540575e-02,0.000000000000000000e+00,-9.628125144419427770e-06,-1.152174457399522938e-03
3.333333333333333287e-02,1.642705890074740887e+09,-5.947350965293931988e-07,1.140232034386398502e-01,5.426270750750725735e-01,-2.884475377350440711e-02,2.398815393164963954e-06,-1.292262077796904554e-05,7.515467424679101414e-04
5.000000000000000278e-02,1.642705890090720415e+09,-7.002836320682650464e-07,1.574902074387854456e-01,6.203459118306366982e-01,3.204972641501691987e-03,1.406615832695535864e-07,2.125199971486281699e-05,3.342211256981223507e-03
6.666666666666666574e-02,1.642705890107673645e+09,-7.879720808015471546e-08,1.574902074387854456e-01,6.203459118306366982e-01,3.204972641501691987e-03,-2.062084029695849957e-05,9.824367065183926698e-05,5.889712696019054963e-03
8.333333333333332871e-02,1.642705890126576900e+09,1.740439867115657035e-06,1.507052296267917813e-01,5.932060005826620408e-01,3.204972641501691987e-03,-7.296766437113721407e-05,2.163974620458614323e-04,8.282096603998709630e-03
1.000000000000000056e-01,1.642705890145553112e+09,5.236475700494698702e-06,1.448454760618881065e-01,5.697669863230473419e-01,3.204972641501691987e-03,-1.688330103785974374e-04,3.732712882581197371e-04,1.053650016197827700e-02
1.166666666666666685e-01,1.642705890160520554e+09,1.088925561306095239e-05,2.403729481126268882e-03,0.000000000000000000e+00,3.204972641501691987e-03,-3.186375668849612060e-04,5.477123115669043328e-04,1.039681067057351450e-02
1.333333333333333315e-01,1.642705890177440882e+09,1.917220257759571863e-05,1.497800053797017084e-01,5.895051035943017492e-01,3.204972641501691987e-03,-5.309534911759681945e-04,7.401708302500882531e-04,1.269183635003242640e-02
1.499999999999999944e-01,1.642705890194395542e+09,3.054493517370659826e-05,1.470043326384315452e-01,5.784024126292210966e-01,3.204972641501691987e-03,-8.122027671775819196e-04,9.701405632379139689e-04,1.489840211489883333e-02
1.666666666666666574e-01,1.642705890214343786e+09,4.544624179126356364e-05,1.460791083913415833e-01,5.747015156408612491e-01,3.204972641501691987e-03,-1.166396070003981227e-03,1.236404906552003363e-03,1.704734964360703903e-02
1.833333333333333204e-01,1.642705890228307486e+09,6.428742506374740030e-05,-2.163356533012830360e-02,0.000000000000000000e+00,-2.884475377350440711e-02,-1.594917630372498290e-03,1.514964482516361005e-03,1.638164868496766804e-02
2.000000000000000111e-01,1.642705890248253345e+09,8.744612422627153837e-05,2.403729481126268882e-03,0.000000000000000000e+00,3.204972641501691987e-03,-2.096360863317216997e-03,1.785771773015676876e-03,1.611596420476517008e-02
2.166666666666666741e-01,1.642705890267203093e+09,1.152607153529003060e-04,2.403729481126268882e-03,0.000000000000000000e+00,3.204972641501691987e-03,-2.666418713976515323e-03,2.052108948643150115e-03,1.584524887525685932e-02
2.333333333333333370e-01,1.642705890281165123e+09,1.480253803358471060e-04,2.403729481126268882e-03,0.000000000000000000e+00,3.204972641501691987e-03,-3.297831790593971999e-03,2.313884382359342965e-03,1.556857173638287115e-02
2.500000000000000000e-01,1.642705890300113916e+09,1.859859251431186095e-04,2.403729481126268882e-03,0.000000000000000000e+00,3.204972641501691987e-03,-3.980396414235819885e-03,2.570992469045713536e-03,1.528518586747800757e-02
2.666666666666666630e-01,1.642705890317067623e+09,2.293364164643226237e-04,2.403729481126268882e-03,0.000000000000000000e+00,3.204972641501691987e-03,-4.701033730001236838e-03,2.823317064528986856e-03,1.499457286784681813e-02
2.833333333333333259e-01,1.642705890334022760e+09,2.782166934732609328e-04,2.644102429237994017e-02,0.000000000000000000e+00,3.525469905650659153e-02,-5.443920010330153929e-03,3.074055684960453824e-03,1.509378598544951385e-02
2.999999999999999889e-01,1.642705890348983049e+09,3.327107982592058112e-04,2.644102429237994017e-02,0.000000000000000000e+00,3.525469905650659153e-02,-6.190677252575549350e-03,3.326331011503748554e-03,1.517901644290295914e-02
3.166666666666666519e-01,1.642705890369926453e+09,3.928463546750940623e-04,2.644102429237994017e-02,0.000000000000000000e+00,3.525469905650659153e-02,-6.920622145801450312e-03,3.579914253245082469e-03,1.525077323693793327e-02
3.333333333333333148e-01,1.642705890385883331e+09,4.585949110969346531e-04,2.644102429237994017e-02,0.000000000000000000e+00,3.525469905650659153e-02,-7.611070471394183398e-03,3.834588165402224788e-03,1.530993188846388638e-02
3.499999999999999778e-01,1.642705890401865005e+09,5.298732480674669997e-04,2.403729481126268882e-03,0.000000000000000000e+00,3.204972641501691987e-03,-8.237693024013408374e-03,4.086833291489450418e-03,1.496045403666187643e-02
3.666666666666666408e-01,1.642705890418819666e+09,6.065456371953961657e-04,2.644102429237994017e-02,0.000000000000000000e+00,3.525469905650659153e-02,-8.774918208802882577e-03,4.336547898111243853e-03,1.500517453143303433e-02
3.833333333333333037e-01,1.642705890435778379e+09,6.884270231878638745e-04,2.644102429237994017e-02,0.000000000000000000e+00,3.525469905650659153e-02,-9.196375602214895695e-03,4.586943457590031414e-03,1.504218978345699814e-02
4.000000000000000222e-01,1.642705890454724550e+09,7.752870866965891903e-04,2.644102429237994017e-02,0.000000000000000000e+00,3.525469905650659153e-02,-9.475373971095688713e-03,4.837912289976884286e-03,1.507398178975821561e-02
4.166666666666666852e-01,1.642705890467700481e+09,8.668551319429353445e-04,2.644102429237994017e-02,0.000000000000000000e+00,3.525469905650659153e-02,-9.585406540684919888e-03,5.089391400254235538e-03,1.510342964200911409e-02
4.333333333333333481e-01,1.642705890485642910e+09,9.628257300348276723e-04,2.644102429237994017e-02,0.000000000000000000e+00,3.525469905650659153e-02,-9.500675698594522600e-03,5.341368943783243381e-03,1.513379124170986280e-02
4.500000000000000111e-01,1.642705890502608061e+09,1.062865036673003687e-03,2.644102429237994017e-02,0.000000000000000000e+00,3.525469905650659153e-02,-9.196628829016124940e-03,5.593890315519966724e-03,1.516867646102920339e-02
4.666666666666666741e-01,1.642705890519559622e+09,1.166617691730476719e-03,2.644102429237994017e-02,0.000000000000000000e+00,3.525469905650659153e-02,-8.650496598236065426e-03,5.847063721270999090e-03,1.521201185018056928e-02
4.833333333333333370e-01,1.642705890536482096e+09,1.273714198131224761e-03,2.644102429237994017e-02,0.000000000000000000e+00,3.525469905650659153e-02,-7.841824766260203569e-03,6.101065092159251718e-03,1.526799713806097948e-02
5.000000000000000000e-01,1.642705890552438736e+09,1.383778668693266345e-03,2.644102429237994017e-02,0.000000000000000000e+00,3.525469905650659153e-02,-6.752990485471388298e-03,6.356142208797106730e-03,1.534105391820493429e-02
5.166666666666666075e-01,1.642705890569393873e+09,1.496436822263945594e-03,2.644102429237994017e-02,0.000000000000000000e+00,3.525469905650659153e-02,-5.369694069424433593e-03,6.612617909389643771e-03,1.543576705466165495e-02
5.333333333333333259e-01,1.642705890586346149e+09,1.611324104671644965e-03,2.403729481126268882e-03,0.000000000000000000e+00,3.204972641501691987e-03,-3.681417374882497637e-03,6.867572222896996606e-03,1.515951794292503228e-02
5.500000000000000444e-01,1.642705890604299784e+09,1.728093805841635165e-03,2.644102429237994017e-02,0.000000000000000000e+00,3.525469905650659153e-02,-1.681840237818792421e-03,7.121556765952376418e-03,1.531818646744567171e-02
5.666666666666666519e-01,1.642705890620255709e+09,1.846425041947539689e-03,2.644102429237994017e-02,0.000000000000000000e+00,3.525469905650659153e-02,6.307931628197686706e-04,7.378483291119889396e-03,1.551245689986482067e-02
5.833333333333333703e-01,1.642705890638209581e+09,1.966030470748914363e-03,2.644102429237994017e-02,0.000000000000000000e+00,3.525469905650659153e-02,3.253365575396924367e-03,7.638983055108873425e-03,1.574686363367211808e-02
5.999999999999999778e-01,1.642705890657157183e+09,2.086663609332786370e-03,2.644102429237994017e-02,0.000000000000000000e+00,3.525469905650659153e-02,6.177642452068722416e-03,7.903761124200946869e-03,1.602573001032085720e-02
6.166666666666666963e-01,1.642705890672116280e+09,2.208125626344984143e-03,2.644102429237994017e-02,0.000000000000000000e+00,3.525469905650659153e-02,9.390098296612622852e-03,8.173592155078247476e-03,1.635308435592676413e-02
6.333333333333333037e-01,1.642705890690069914e+09,2.330271485456867925e-03,2.644102429237994017e-02,0.000000000000000000e+00,3.525469905650659153e-02,1.287181873411060232e-02,8.449314774334196892e-03,1.673257578711232277e-02
6.500000000000000222e-01,1.642705890706026793e+09,2.453015323232957123e-03,2.644102429237994017e-02,0.000000000000000000e+00,3.525469905650659153e-02,1.659848244207311196e-02,8.731824563881582929e-03,1.716739110980582128e-02
6.666666666666666297e-01,1.642705890723978281e+09,2.576334952693078075e-03,2.644102429237994017e-02,0.000000000000000000e+00,3.525469905650659153e-02,2.054042598828713720e-02,9.022065681774049661e-03,1.766017416325780728e-02
6.833333333333333481e-01,1.642705890740931988e+09,2.700275393624892474e-03,2.403729481126268882e-03,0.000000000000000000e+00,3.204972641501691987e-03,2.466279345724296454e-02,9.317701127414661569e-03,1.781564743325668096e-02
6.999999999999999556e-01,1.642705890758885145e+09,2.824951342004823358e-03,2.644102429237994017e-02,0.000000000000000000e+00,3.525469905650659153e-02,2.892577152989804848e-02,9.619815167988038720e-03,1.843631332305460321e-02
7.166666666666666741e-01,1.642705890775839806e+09,2.950548503612883920e-03,2.644102429237994017e-02,0.000000000000000000e+00,3.525469905650659153e-02,3.328490942720976897e-02,9.932789999677116288e-03,1.911877072002535552e-02
7.333333333333332815e-01,1.642705890792794466e+09,3.077323730948206340e-03,2.644102429237994017e-02,0.000000000000000000e+00,3.525469905650659153e-02,3.769152185355026385e-02,1.025765350346660894e-02,1.986278298533469822e-02
7.500000000000000000e-01,1.642705890807788849e+09,3.205603917714969567e-03,2.644102429237994017e-02,0.000000000000000000e+00,3.525469905650659153e-02,4.209317179957209470e-02,1.059542240641943994e-02,2.066725068391440240e-02
7.666666666666666075e-01,1.642705890826741457e+09,3.335783621288785326e-03,2.644102429237994017e-02,0.000000000000000000e+00,3.525469905650659153e-02,4.643422880344133530e-02,1.094708757982810164e-02,2.153017306210276011e-02
7.833333333333333259e-01,1.642705890842697620e+09,3.468321400509628838e-03,2.644102429237994017e-02,0.000000000000000000e+00,3.525469905650659153e-02,5.065649704275807658e-02,1.131359878739979230e-02,2.244862054345003743e-02
8.000000000000000444e-01,1.642705890860651016e+09,3.603734873687414013e-03,2.644102429237994017e-02,0.000000000000000000e+00,3.525469905650659153e-02,5.469990645496321247e-02,1.169584907429509386e-02,2.341871910234379073e-02
8.166666666666666519e-01,1.642705890876604795e+09,3.742594519646105788e-03,2.644102429237994017e-02,0.000000000000000000e+00,3.525469905650659153e-02,5.850325897916948403e-02,1.209465900095669198e-02,2.443564723020801716e-02
8.333333333333333703e-01,1.642705890893558979e+09,3.885516262762012986e-03,2.644102429237994017e-02,0.000000000000000000e+00,3.525469905650659153e-02,6.200502099408693873e-02,1.251076093624570000e-02,2.549364604969345596e-02
8.499999999999999778e-01,1.642705890910513163e+09,4.033152901052948318e-03,2.644102429237994017e-02,0.000000000000000000e+00,3.525469905650659153e-02,6.514415211106389103e-02,1.294478363222415461e-02,2.658604296043906579e-02
8.666666666666666963e-01,1.642705890926492214e+09,4.186184454227453305e-03,1.645650577200549469e-01,5.524961337107000547e-01,3.525469905650659153e-02,6.786095968313080040e-02,1.341631506820972243e-02,2.998827848117326111e-02
8.833333333333333037e-01,1.642705890945412159e+09,4.345307525985437139e-03,1.657986900495083404e-01,5.574306630285136288e-01,3.525469905650659153e-02,7.009796772386445163e-02,1.394455987765279813e-02,3.339164463461972987e-02
9.000000000000000222e-01,1.642705890962369442e+09,4.511223791551666196e-03,1.688827708731417687e-01,5.697669863230473419e-01,3.525469905650659153e-02,7.180078840586744116e-02,1.452971855091317148e-02,3.681787861600951256e-02
9.166666666666666297e-01,1.642705890978327513e+09,4.684627737207066461e-03,1.725836678615020048e-01,5.845705742764881752e-01,3.525469905650659153e-02,7.291898393794911393e-02,1.517217350617978446e-02,4.026713452406708443e-02
9.333333333333333481e-01,1.642705890996298552e+09,4.866193793246457663e-03,2.644102429237994017e-02,0.000000000000000000e+00,3.525469905650659153e-02,7.340690641103087000e-02,1.585152174421162671e-02,4.125191846442542026e-02
9.499999999999999556e-01,1.642705891011257648e+09,5.056563015136456354e-03,2.403729481126268882e-03,0.000000000000000000e+00,3.204972641501691987e-03,7.322450316170056595e-02,1.654380179228582756e-02,4.182010896039833198e-02
9.666666666666666741e-01,1.642705891031205177e+09,5.256329479481052641e-03,1.756677486851355441e-01,5.969068975710224434e-01,3.525469905650659153e-02,7.233807533332987927e-02,1.726928208213701979e-02,4.522805907085489935e-02
9.833333333333332815e-01,1.642705891045171976e+09,5.466026571549272885e-03,1.784434214264056795e-01,6.080095885361029850e-01,3.525469905650659153e-02,7.072097761964298013e-02,1.805125085568700175e-02,4.859883028140572769e-02
1.000000000000000000e+00,1.642705891066092014e+09,5.686113349417224773e-03,1.735088921085920777e-01,5.882714712648485778e-01,3.525469905650659153e-02,6.835424765414729875e-02,1.888792512323598377e-02,5.179320834323573874e-02
1.016666666666666607e+00,1.642705891082022190e+09,5.916961176081626805e-03,2.644102429237994017e-02,0.000000000000000000e+00,3.525469905650659153e-02,6.522715415812184447e-02,1.975665281305758955e-02,5.245228362758916352e-02
1.033333333333333215e+00,1.642705891101970434e+09,6.158840815091342138e-03,1.682659547084150720e-01,5.672997216641405549e-01,3.525469905650659153e-02,6.133765377479401260e-02,2.065532576956654112e-02,5.538033747913369276e-02
1.050000000000000044e+00,1.642705891115933180e+09,6.411910187211110161e-03,2.644102429237994017e-02,0.000000000000000000e+00,3.525469905650659153e-02,5.669274749044535960e-02,2.158216471241295939e-02,5.583906139933435958e-02
1.066666666666666652e+00,1.642705891133884907e+09,6.676202985301514861e-03,2.644102429237994017e-02,0.000000000000000000e+00,3.525469905650659153e-02,5.130872866477636379e-02,2.251584205138596959e-02,5.620121327631395769e-02
1.083333333333333259e+00,1.642705891151835918e+09,6.951618341911483187e-03,2.644102429237994017e-02,0.000000000000000000e+00,3.525469905650659153e-02,4.521131595102938217e-02,2.345466305669089910e-02,5.645659794173251561e-02
1.100000000000000089e+00,1.642705891168792486e+09,7.237911739005100688e-03,2.403729481126268882e-03,0.000000000000000000e+00,3.204972641501691987e-03,3.843566576717866862e-02,2.439344929989122404e-02,5.619846828600393723e-02
1.116666666666666696e+00,1.642705891184747696e+09,7.534687341778669584e-03,2.644102429237994017e-02,0.000000000000000000e+00,3.525469905650659153e-02,3.102626046710050406e-02,2.533026568755570793e-02,5.621943997766412626e-02
1.133333333333333304e+00,1.642705891200735807e+09,7.841391928684885576e-03,2.644102429237994017e-02,0.000000000000000000e+00,3.525469905650659153e-02,2.303666993746033426e-02,2.626632518056348439e-02,5.610800872182035437e-02
1.149999999999999911e+00,1.642705891217696190e+09,8.157310577620051698e-03,2.403729481126268882e-03,0.000000000000000000e+00,3.204972641501691987e-03,1.452918599296353953e-02,2.719604777583387034e-02,5.546050138445146604e-02
1.166666666666666741e+00,1.642705891235644102e+09,8.481564253819759078e-03,2.403729481126268882e-03,0.000000000000000000e+00,3.204972641501691987e-03,5.574330639239516959e-03,2.811383116709496172e-02,5.467568566186313539e-02
1.183333333333333348e+00,1.642705891252625465e+09,8.813109428448553939e-03,2.644102429237994017e-02,0.000000000000000000e+00,3.525469905650659153e-02,-3.749759002572370346e-03,2.902067489069158623e-02,5.414702969309663494e-02
1.199999999999999956e+00,1.642705891269519329e+09,9.150739838289342204e-03,2.644102429237994017e-02,0.000000000000000000e+00,3.525469905650659153e-02,-1.335806458473766216e-02,2.991745359574034951e-02,5.346830031650857268e-02
1.216666666666666563e+00,1.642705891286529779e+09,9.493090476484842069e-03,2.644102429237994017e-02,0.000000000000000000e+00,3.525469905650659153e-02,-2.315953299671823229e-02,3.080166010724509282e-02,5.263878532659818643e-02
1.233333333333333393e+00,1.642705891304479837e+09,9.838643882136779636e-03,2.644102429237994017e-02,0.000000000000000000e+00,3.525469905650659153e-02,-3.305802749135382940e-02,3.167078875694364498e-02,5.165937329025006852e-02
1.250000000000000000e+00,1.642705891321438789e+09,1.018573877292116951e-02,2.644102429237994017e-02,0.000000000000000000e+00,3.525469905650659153e-02,-4.295337395004224235e-02,3.252236239939185203e-02,5.053259382017415147e-02
1.266666666666666607e+00,1.642705891337397099e+09,1.053258103995160025e-02,2.644102429237994017e-02,0.000000000000000000e+00,3.525469905650659153e-02,-5.274249123823476770e-02,3.335395993758377003e-02,4.926263849955132140e-02
1.283333333333333215e+00,1.642705891355345726e+09,1.087725709815033984e-02,2.644102429237994017e-02,0.000000000000000000e+00,3.525469905650659153e-02,-6.232059318491139921e-02,3.416324402840778540e-02,4.785536159385177929e-02
1.300000000000000044e+00,1.642705891373296976e+09,1.121774955862527706e-02,2.403729481126268882e-03,0.000000000000000000e+00,3.204972641501691987e-03,-7.158244843069254404e-02,3.494466858270402210e-02,4.592095839039610217e-02
1.316666666666666652e+00,1.642705891389246941e+09,1.155195516226465748e-02,2.644102429237994017e-02,0.000000000000000000e+00,3.525469905650659153e-02,-8.042368324877380292e-02,3.569621915173365467e-02,4.426969683875989908e-02
1.333333333333333259e+00,1.642705891407182455e+09,1.187770488623171930e-02,2.644102429237994017e-02,0.000000000000000000e+00,3.525469905650659153e-02,-8.874211146918860316e-02,3.641932782251566803e-02,4.250823671503107387e-02
1.350000000000000089e+00,1.642705891423132896e+09,1.219278610755444511e-02,2.644102429237994017e-02,0.000000000000000000e+00,3.525469905650659153e-02,-9.643907484658428841e-02,3.711225900989782722e-02,4.064867135174550505e-02
1.366666666666666696e+00,1.642705891438094854e+09,1.249496668085893318e-02,2.403729481126268882e-03,0.000000000000000000e+00,3.204972641501691987e-03,-1.034207766192385414e-01,3.777016992603532408e-02,3.830714298330614026e-02
1.383333333333333304e+00,1.642705891456044197e+09,1.278202076078148106e-02,2.644102429237994017e-02,0.000000000000000000e+00,3.525469905650659153e-02,-1.095995906247344553e-01,3.839184540471185514e-02,3.629949139909036115e-02
1.399999999999999911e+00,1.642705891473002911e+09,1.305175617401877972e-02,2.403729481126268882e-03,0.000000000000000000e+00,3.204972641501691987e-03,-1.148953281753656575e-01,3.897628582842387057e-02,3.384019099714102169e-02
1.416666666666666741e+00,1.642705891490955591e+09,1.330204312162526666e-02,2.644102429237994017e-02,0.000000000000000000e+00,3.525469905650659153e-02,-1.192364449611954674e-01,3.952279803783873002e-02,3.174708844324590495e-02
1.433333333333333348e+00,1.642705891506910324e+09,1.353084396933751550e-02,2.644102429237994017e-02,0.000000000000000000e+00,3.525469905650659153e-02,-1.225611705451939842e-01,4.003425509230120610e-02,2.963362895123652571e-02
1.449999999999999956e+00,1.642705891524861097e+09,1.373624386267402638e-02,2.644102429237994017e-02,0.000000000000000000e+00,3.525469905650659153e-02,-1.248185435446242109e-01,4.051046794449141009e-02,2.751779077817558677e-02
1.466666666666666563e+00,1.642705891540817499e+09,1.391648188459392206e-02,2.403729481126268882e-03,0.000000000000000000e+00,3.204972641501691987e-03,-1.259693363545074107e-01,4.094823007652444169e-02,2.502060186491953872e-02
1.483333333333333393e+00,1.642705891557774544e+09,1.406998245685340057e-02,2.644102429237994017e-02,0.000000000000000000e+00,3.525469905650659153e-02,-1.259868542582269768e-01,4.134803492988690932e-02,2.296169984545962106e-02
1.500000000000000000e+00,1.642705891574729204e+09,1.419538667210894917e-02,2.644102429237994017e-02,0.000000000000000000e+00,3.525469905650659153e-02,-1.248575949798470253e-01,4.171396510002096936e-02,2.095549349720111226e-02
1.516666666666666607e+00,1.642705891590684652e+09,1.429158323249638853e-02,2.403729481126268882e-03,0.000000000000000000e+00,3.204972641501691987e-03,-1.225817561522447863e-01,4.204372989274711425e-02,1.862276159328966202e-02
1.533333333333333215e+00,1.642705891608640194e+09,1.435773866205487456e-02,2.644102429237994017e-02,0.000000000000000000e+00,3.525469905650659153e-02,-1.191735797915724482e-01,4.233872880067536537e-02,1.678222009370820139e-02
1.550000000000000044e+00,1.642705891626591682e+09,1.439332645513241062e-02,2.644102429237994017e-02,0.000000000000000000e+00,3.525469905650659153e-02,-1.146615246659584142e-01,4.260392944075955951e-02,1.504667778073103153e-02
1.566666666666666652e+00,1.642705891642548084e+09,1.439815482093929379e-02,2.644102429237994017e-02,0.000000000000000000e+00,3.525469905650659153e-02,-1.090882594061952787e-01,4.284121387177629997e-02,1.343193943115070232e-02
1.583333333333333259e+00,1.642705891658506393e+09,1.437239268581838592e-02,2.644102429237994017e-02,0.000000000000000000e+00,3.525469905650659153e-02,-1.025104713075113277e-01,4.305271755280756785e-02,1.195261163320057544e-02
1.600000000000000089e+00,1.642705891677453995e+09,1.431659361965275865e-02,2.644102429237994017e-02,0.000000000000000000e+00,3.525469905650659153e-02,-9.499848799109979203e-02,4.324080765491718908e-02,1.062189713611228804e-02
1.616666666666666696e+00,1.642705891693412781e+09,1.423171736117124012e-02,2.644102429237994017e-02,0.000000000000000000e+00,3.525469905650659153e-02,-8.663571140681092242e-02,4.340805805190027511e-02,9.451401953888688423e-03
1.633333333333333304e+00,1.642705891709353447e+09,1.411914862875706007e-02,2.644102429237994017e-02,0.000000000000000000e+00,3.525469905650659153e-02,-7.751786603727586766e-02,4.355722122657689627e-02,8.450958083463803311e-03
1.649999999999999911e+00,1.642705891728321552e+09,1.398071291868317051e-02,2.644102429237994017e-02,0.000000000000000000e+00,3.525469905650659153e-02,-6.775206558051025119e-02,4.369119737578495283e-02,7.628464579453576866e-03
1.666666666666666741e+00,1.642705891744300604e+09,1.381868901143142384e-02,1.645650577200549469e-01,5.524961337107000547e-01,3.525469905650659153e-02,-5.745570481329200646e-02,4.383207880204304657e-02,9.272739034974867081e-03
1.683333333333333348e+00,1.642705891763198376e+09,1.363581792880776827e-02,1.565649831916954837e-01,6.166450148422768507e-01,3.204972641501691987e-03,-4.675518574117976806e-02,4.400051068129941234e-02,1.093447044656043095e-02
1.699999999999999956e+00,1.642705891779187679e+09,1.343530810980712691e-02,1.806022780029491459e-01,6.166450148422768507e-01,3.525469905650659153e-02,-3.578448949240978921e-02,4.420124388610367078e-02,1.314736705026516364e-02
1.716666666666666563e+00,1.642705891797141790e+09,1.322083660144805599e-02,1.963310902034799410e-01,6.795602636443999200e-01,3.525469905650659153e-02,-2.468360768151621129e-02,4.444225878531069679e-02,1.576714352642419673e-02
1.733333333333333393e+00,1.642705891813099384e+09,1.299654609188830023e-02,2.052749245920170440e-01,7.153356011985484431e-01,3.525469905650659153e-02,-1.359684912414016976e-02,4.472934141644534234e-02,1.867469548642083227e-02
1.750000000000000000e+00,1.642705891834010124e+09,1.276703764681678087e-02,2.058917407567438518e-01,7.178028658574555632e-01,3.525469905650659153e-02,-2.671039797710959840e-03,4.506607592757803926e-02,2.172497265793868135e-02
1.766666666666666607e+00,1.642705891851997137e+09,1.253735904613441365e-02,1.772283247100398529e-01,6.992983809156543273e-01,3.204972641501691987e-03,7.946364214951382246e-03,4.545073456157785324e-02,2.442655883935538480e-02
1.783333333333333215e+00,1.642705891863958597e+09,1.231298865599334165e-02,1.984899467800234074e-01,6.881956899505737857e-01,3.525469905650659153e-02,1.810922941735219199e-02,4.588438685336519718e-02,2.760289281752429866e-02
1.800000000000000044e+00,1.642705891881881475e+09,1.209981481105084494e-02,2.028076599331102847e-01,7.054665425629214059e-01,3.525469905650659153e-02,2.767474042261280562e-02,4.637245688580280550e-02,3.095619612434873796e-02
1.816666666666666652e+00,1.642705891899866581e+09,1.190411072295924876e-02,1.710601630627728853e-01,6.746257343265864570e-01,3.204972641501691987e-03,3.650541432825688687e-02,4.691278686373883539e-02,3.387529243626320741e-02
1.833333333333333259e+00,1.642705891914825201e+09,1.173250497330727282e-02,1.920133770503930359e-01,6.622894110320522998e-01,3.525469905650659153e-02,4.447110905199211373e-02,4.750535955393520721e-02,3.722412784777325706e-02
1.849999999999999867e+00,1.642705891932779312e+09,1.159194769206327129e-02,1.864620315678527374e-01,6.400840291018911055e-01,3.525469905650659153e-02,5.145100011114719235e-02,4.815348093626657666e-02,4.054122366009188516e-02
1.866666666666666696e+00,1.642705891950701714e+09,1.148967256565681071e-02,1.950974578740265475e-01,6.746257343265864570e-01,3.525469905650659153e-02,5.733549999960238508e-02,4.885843458932555283e-02,4.404348597159338935e-02
1.883333333333333304e+00,1.642705891967653990e+09,1.143315486176662253e-02,1.781350133440422756e-01,6.067759562066493695e-01,3.525469905650659153e-02,6.202809429646347072e-02,4.961958082885506438e-02,4.728505819273897542e-02
1.899999999999999911e+00,1.642705891984608173e+09,1.143006570024700241e-02,1.821443184147658323e-01,6.228131764895434852e-01,3.525469905650659153e-02,6.544706893804727588e-02,5.043533154219805720e-02,5.059583060194286497e-02
1.916666666666666741e+00,1.642705892001595259e+09,1.148822284100601589e-02,2.644102429237994017e-02,0.000000000000000000e+00,3.525469905650659153e-02,6.752710370299952469e-02,5.128458598892127879e-02,5.131271162180930240e-02
1.933333333333333348e+00,1.642705892018540382e+09,1.161553829963316714e-02,2.644102429237994017e-02,0.000000000000000000e+00,3.525469905650659153e-02,6.822070789973336269e-02,5.214578523763584855e-02,5.202920790962995562e-02
1.949999999999999956e+00,1.642705892036494732e+09,1.181996313974727035e-02,2.644102429237994017e-02,0.000000000000000000e+00,3.525469905650659153e-02,6.749947550224613679e-02,5.301872751134403122e-02,5.272194063249887458e-02
1.966666666666666563e+00,1.642705892053469896e+09,1.210942982699910776e-02,2.644102429237994017e-02,0.000000000000000000e+00,3.525469905650659153e-02,6.535513854711200166e-02,5.390282347295381749e-02,5.336778071821395020e-02
1.983333333333333393e+00,1.642705892069427013e+09,1.249179256302229528e-02,2.644102429237994017e-02,0.000000000000000000e+00,3.525469905650659153e-02,6.180039946966777581e-02,5.479710324990220982e-02,5.394419133729969063e-02
2.000000000000000000e+00,1.642705892090323687e+09,1.297476604801322923e-02,2.644102429237994017e-02,0.000000000000000000e+00,3.525469905650659153e-02,5.686952520571475489e-02,5.570022920156600388e-02,5.442957454393747285e-02
2.016666666666666607e+00,1.642705892103318453e+09,1.356586314767362252e-02,2.644102429237994017e-02,0.000000000000000000e+00,3.525469905650659153e-02,5.061868829749044396e-02,5.661051446325698899e-02,5.480361782541099541e-02
2.033333333333333215e+00,1.642705892123261452e+09,1.427233196364816568e-02,2.644102429237994017e-02,0.000000000000000000e+00,3.525469905650659153e-02,4.312604289654035916e-02,5.752594722867312993e-02,5.504763617981019153e-02
2.049999999999999822e+00,1.642705892137228489e+09,1.510109282602279009e-02,2.644102429237994017e-02,0.000000000000000000e+00,3.525469905650659153e-02,3.449152642545513098e-02,5.844422065900235774e-02,5.514490526144488064e-02
2.066666666666666430e+00,1.642705892153182030e+09,1.605867574165368780e-02,2.644102429237994017e-02,0.000000000000000000e+00,3.525469905650659153e-02,2.483638071609627768e-02,5.936276823229506144e-02,5.508098110496011113e-02
2.083333333333333481e+00,1.642705892171141148e+09,1.715115884282980910e-02,2.644102429237994017e-02,0.000000000000000000e+00,3.525469905650659153e-02,1.430238965183899293e-02,6.027880427211412123e-02,5.484400196421136686e-02
2.100000000000000089e+00,1.642705892189084768e+09,1.838410838683410611e-02,2.644102429237994017e-02,0.000000000000000000e+00,3.525469905650659153e-02,3.050833671048856430e-03,6.118936932073826968e-02,5.442496788164436633e-02
2.116666666666666696e+00,1.642705892205042601e+09,1.976252085820336471e-02,2.644102429237994017e-02,0.000000000000000000e+00,3.525469905650659153e-02,-8.738835098346746030e-03,6.209137995024973516e-02,5.381799373870012337e-02
2.133333333333333304e+00,1.642705892222996950e+09,2.129076772176790797e-02,2.644102429237994017e-02,0.000000000000000000e+00,3.525469905650659153e-02,-2.087058984621923893e-02,6.298168253559777163e-02,5.302053172745475884e-02
2.149999999999999911e+00,1.642705892237974644e+09,2.297254336581059167e-02,2.644102429237994017e-02,0.000000000000000000e+00,3.525469905650659153e-02,-3.313368754083919482e-02,6.385711044810345183e-02,5.203355942747476398e-02
2.166666666666666519e+00,1.642705892254912853e+09,2.481081676088823379e-02,2.644102429237994017e-02,0.000000000000000000e+00,3.525469905650659153e-02,-4.530477472866516891e-02,6.471454406674727322e-02,5.086172996822619502e-02
2.183333333333333126e+00,1.642705892274875402e+09,2.680778734102082575e-02,2.644102429237994017e-02,0.000000000000000000e+00,3.525469905650659153e-02,-5.715022321139708039e-02,6.555097294881825909e-02,4.951348110417158610e-02
2.200000000000000178e+00,1.642705892290834665e+09,2.896484559013876720e-02,2.644102429237994017e-02,0.000000000000000000e+00,3.525469905650659153e-02,-6.842867490944973263e-02,6.636355945191801942e-02,4.800110042412066014e-02
2.216666666666666785e+00,1.642705892308739185e+09,3.128253878800137111e-02,1.630230173082381773e-01,5.463279720634329761e-01,3.525469905650659153e-02,-7.889377215170680080e-02,6.716856782969737871e-02,4.859824613228349438e-02
2.233333333333333393e+00,1.642705892324749470e+09,3.376054233640683744e-02,2.644102429237994017e-02,0.000000000000000000e+00,3.525469905650659153e-02,-8.829704676170585520e-02,6.796328259987602372e-02,4.677259765428275901e-02
2.250000000000000000e+00,1.642705892341698408e+09,3.639763704861972982e-02,2.644102429237994017e-02,0.000000000000000000e+00,3.525469905650659153e-02,-9.639093867850233310e-02,6.872670412250987682e-02,4.484334422521352864e-02
2.266666666666666607e+00,1.642705892357658625e+09,3.919169274278771348e-02,2.644102429237994017e-02,0.000000000000000000e+00,3.525469905650659153e-02,-1.029319124929123919e-01,6.945733444820517688e-02,4.283786576284269454e-02
2.283333333333333215e+00,1.642705892375607729e+09,4.213965843400255262e-02,2.644102429237994017e-02,0.000000000000000000e+00,3.525469905650659153e-02,-1.076836382306318590e-01,7.015416081981698526e-02,4.078699582559335013e-02
2.299999999999999822e+00,1.642705892393561363e+09,4.523755936991108451e-02,2.644102429237994017e-02,0.000000000000000000e+00,3.525469905650659153e-02,-1.104202010039545406e-01,7.081671131757132087e-02,3.872479238264611018e-02
2.316666666666666430e+00,1.642705892410515785e+09,4.848050110178012129e-02,2.644102429237994017e-02,0.000000000000000000e+00,3.525469905650659153e-02,-1.109293028115471980e-01,7.144510627311602413e-02,3.668825945178195297e-02
2.333333333333333481e+00,1.642705892427476168e+09,5.186268072706757409e-02,2.644102429237994017e-02,0.000000000000000000e+00,3.525469905650659153e-02,-1.090154188150390668e-01,7.204010464670347613e-02,3.471702116948351124e-02
2.350000000000000089e+00,1.642705892446421385e+09,5.537740538130751095e-02,1.661070981318716056e-01,5.586642953579666893e-01,3.525469905650659153e-02,-1.045028698824382318e-01,7.262243534065268569e-02,3.516142761302484820e-02
2.366666666666666696e+00,1.642705892462378740e+09,5.901711799693989957e-02,1.664155062142350094e-01,5.598979276874203048e-01,3.525469905650659153e-02,-9.723877307742170850e-02,7.321315734517470919e-02,3.572365116078305564e-02
2.383333333333333304e+00,1.642705892476338625e+09,6.277343028511950251e-02,1.457707003089781794e-01,5.734678833114076335e-01,3.204972641501691987e-03,-8.709583210171165102e-02,7.381172156473821133e-02,3.610300141134065860e-02
2.399999999999999911e+00,1.642705892494242907e+09,6.663716283403875451e-02,1.682659547084150720e-01,5.672997216641405549e-01,3.525469905650659153e-02,-7.397493047155179191e-02,7.442147521367403762e-02,3.706476483301923003e-02
2.416666666666666519e+00,1.642705892511197567e+09,7.059839215444518867e-02,1.694995870378684377e-01,5.722342509819540179e-01,3.525469905650659153e-02,-5.780749143023312248e-02,7.504952885838783727e-02,3.829824611509935472e-02
2.433333333333333126e+00,1.642705892530193567e+09,7.464650444036481647e-02,1.661070981318716056e-01,5.586642953579666893e-01,3.525469905650659153e-02,-3.855757026311391888e-02,7.570016039187579815e-02,3.977344004609069394e-02
2.450000000000000178e+00,1.642705892545153856e+09,7.877025575114623979e-02,1.747425244380454712e-01,5.932060005826620408e-01,3.525469905650659153e-02,-1.622364678087962614e-02,7.637945223840403308e-02,4.173612949384854914e-02
2.466666666666666785e+00,1.642705892561083078e+09,8.295783826035174613e-02,1.781350133440422756e-01,6.067759562066493695e-01,3.525469905650659153e-02,9.159911743016476218e-03,7.709515905011182779e-02,4.414200476692507064e-02
2.483333333333333393e+00,1.642705892580046892e+09,8.719695215833202229e-02,1.793686456734956414e-01,6.117104855244628325e-01,3.525469905650659153e-02,3.752174397273998901e-02,7.785471922267657441e-02,4.699728442179758325e-02
2.500000000000000000e+00,1.642705892596005678e+09,9.147488273907213030e-02,1.849199911560359677e-01,6.339158674546240269e-01,3.525469905650659153e-02,6.875276774038015237e-02,7.866655341603275009e-02,5.041332954338167971e-02
2.516666666666666607e+00,1.642705892612925768e+09,9.577858214863486930e-02,1.799854618382224491e-01,6.141777501833700637e-01,3.525469905650659153e-02,1.027058529493138916e-01,7.953885792631106011e-02,5.425254694622897583e-02
2.533333333333333215e+00,1.642705892630909681e+09,1.000947552227908072e-01,1.735088921085920777e-01,5.882714712648485778e-01,3.525469905650659153e-02,1.391959100291985385e-01,8.047876459652883452e-02,5.852438697830771031e-02
2.549999999999999822e+00,1.642705892647893429e+09,1.044099487957028949e-01,1.676491385436884030e-01,5.648324570052337679e-01,3.525469905650659153e-02,1.780004055786562067e-01,8.149382891613921043e-02,6.327014839406974733e-02
2.566666666666666430e+00,1.642705892663815975e+09,1.087106438203154918e-01,1.513220457915184503e-01,5.956732652415687168e-01,3.204972641501691987e-03,2.188603123529237471e-01,8.259072225692477842e-02,6.834296102235822012e-02
2.583333333333333481e+00,1.642705892679802418e+09,1.129833496048306962e-01,1.648734658024182398e-01,5.537297660401532262e-01,3.525469905650659153e-02,2.614814960838059976e-01,8.377922040349440602e-02,7.426037890722565760e-02
2.600000000000000089e+00,1.642705892696748495e+09,1.172146994387321395e-01,2.644102429237994017e-02,0.000000000000000000e+00,3.525469905650659153e-02,3.055365368065361409e-01,8.505248941107926286e-02,7.852006925128940384e-02
2.616666666666666696e+00,1.642705892714699984e+09,1.213915468566331146e-01,2.644102429237994017e-02,0.000000000000000000e+00,3.525469905650659153e-02,3.506669774635301495e-01,8.640239834615839887e-02,8.345529367880877292e-02
2.633333333333333304e+00,1.642705892732629538e+09,1.255010617690728025e-01,2.644102429237994017e-02,0.000000000000000000e+00,3.525469905650659153e-02,3.964859876114161241e-01,8.784020791057972621e-02,8.906626764611738634e-02
2.649999999999999911e+00,1.642705892747603655e+09,1.295308256765640154e-01,2.644102429237994017e-02,0.000000000000000000e+00,3.525469905650659153e-02,4.425814251297840451e-01,8.937712544209577836e-02,9.534639093830406253e-02
2.666666666666666519e+00,1.642705892765567541e+09,1.334689251769159979e-01,2.644102429237994017e-02,0.000000000000000000e+00,3.525469905650659153e-02,4.885192739732872602e-01,9.102418923998949196e-02,1.022819987781714707e-01
2.683333333333333126e+00,1.642705892782519102e+09,1.373040429762847625e-01,2.644102429237994017e-02,0.000000000000000000e+00,3.525469905650659153e-02,5.338474312788057397e-01,9.279214929996995598e-02,1.098521796443774345e-01
2.700000000000000178e+00,1.642705892798476696e+09,1.410255456216565062e-01,2.644102429237994017e-02,0.000000000000000000e+00,3.525469905650659153e-02,5.780998125919891706e-01,9.469134560488295937e-02,1.180286639542039162e-01
2.716666666666666785e+00,1.642705892816427708e+09,1.446235671865982175e-01,2.644102429237994017e-02,0.000000000000000000e+00,3.525469905650659153e-02,6.208007396672020617e-01,9.673158518155453023e-02,1.267757871101920508e-01
2.733333333333333393e+00,1.642705892834359884e+09,1.480890881631038436e-01,2.644102429237994017e-02,0.000000000000000000e+00,3.525469905650659153e-02,6.614695712749014689e-01,9.892201918645859848e-02,1.360505296980760170e-01
2.750000000000000000e+00,1.642705892851313353e+09,1.514140088401452477e-01,2.403729481126268882e-03,0.000000000000000000e+00,3.204972641501691987e-03,6.996255337716350553e-01,1.012677012798455234e-01,1.454053353255684577e-01
2.766666666666666607e+00,1.642705892867278814e+09,1.545912164839977898e-01,2.644102429237994017e-02,0.000000000000000000e+00,3.525469905650659153e-02,7.347927048983533549e-01,1.037761820603129437e-01,1.555840833649465849e-01
2.783333333333333215e+00,1.642705892886228085e+09,1.576146456763278525e-01,2.644102429237994017e-02,0.000000000000000000e+00,3.525469905650659153e-02,7.665051014175756627e-01,1.064572828797093751e-01,1.661187513073827393e-01
2.799999999999999822e+00,1.642705892902185678e+09,1.604793312131701510e-01,2.644102429237994017e-02,0.000000000000000000e+00,3.525469905650659153e-02,7.943118188196905960e-01,1.093163471222360350e-01,1.769389011167239179e-01
2.816666666666666430e+00,1.642705892918143511e+09,1.631814530209709235e-01,2.644102429237994017e-02,0.000000000000000000e+00,3.525469905650659153e-02,8.177821694601118407e-01,1.123574944469692555e-01,1.879681403545322149e-01
2.833333333333333481e+00,1.642705892936095715e+09,1.657183726044501315e-01,2.403729481126268882e-03,0.000000000000000000e+00,3.204972641501691987e-03,8.365107641634192959e-01,1.155802058213313555e-01,1.987273372075792077e-01
2.850000000000000089e+00,1.642705892954046726e+09,1.680886606047280463e-01,2.644102429237994017e-02,0.000000000000000000e+00,3.525469905650659153e-02,8.501224815742335350e-01,1.189859511779602502e-01,2.099309836153938624e-01
2.866666666666666696e+00,1.642705892970992565e+09,1.702921151144836942e-01,2.644102429237994017e-02,0.000000000000000000e+00,3.525469905650659153e-02,8.582772693676407050e-01,1.225780028648462694e-01,2.210842368228415067e-01
2.883333333333333304e+00,1.642705892987946987e+09,1.723297704693441124e-01,2.644102429237994017e-02,0.000000000000000000e+00,3.525469905650659153e-02,8.606747218689368983e-01,1.263547327496273298e-01,2.320927693740824083e-01
2.899999999999999911e+00,1.642705893004904985e+09,1.742038963106726235e-01,2.644102429237994017e-02,0.000000000000000000e+00,3.525469905650659153e-02,8.570583796809670973e-01,1.303129181819326909e-01,2.428595740079994847e-01
2.916666666666666519e+00,1.642705893019870996e+09,1.759179867938183428e-01,2.644102429237994017e-02,0.000000000000000000e+00,3.525469905650659153e-02,8.472196985788011947e-01,1.344477043181652731e-01,2.532857999196199139e-01
2.933333333333333126e+00,1.642705893037822008e+09,1.774767398970746868e-01,2.644102429237994017e-02,0.000000000000000000e+00,3.525469905650659153e-02,8.310016372005664120e-01,1.387525807640029862e-01,2.632716344986646417e-01
2.950000000000000178e+00,1.642705893055765390e+09,1.788860268693737432e-01,2.644102429237994017e-02,0.000000000000000000e+00,3.525469905650659153e-02,8.083018159276018633e-01,1.432193732270626296e-01,2.727172227059380116e-01
2.966666666666666785e+00,1.642705893070727110e+09,1.801528519384480442e-01,1.627146092258748011e-01,5.450943397339793606e-01,3.525469905650659153e-02,7.790752027879223052e-01,1.478570729120447513e-01,2.837760198878525042e-01
2.983333333333333393e+00,1.642705893090678930e+09,1.812853024850685779e-01,1.682659547084150720e-01,5.672997216641405549e-01,3.525469905650659153e-02,7.433362862086047018e-01,1.526733889144246958e-01,2.941530745674229008e-01
3.000000000000000000e+00,1.642705893110594749e+09,1.822924899723175063e-01,2.644102429237994017e-02,0.000000000000000000e+00,3.525469905650659153e-02,7.011606989529663991e-01,1.576358083008488620e-01,3.013173505684211828e-01
3.016666666666666607e+00,1.642705893122587681e+09,1.831844820009223551e-01,2.644102429237994017e-02,0.000000000000000000e+00,3.525469905650659153e-02,6.526862625690229569e-01,1.627099474405729329e-01,3.075619995430537990e-01
3.033333333333333215e+00,1.642705893140543461e+09,1.839722259417284622e-01,2.403729481126268882e-03,0.000000000000000000e+00,3.204972641501691987e-03,5.981134271021997240e-01,1.678764438787570812e-01,3.124041223812584200e-01
3.049999999999999822e+00,1.642705893156500816e+09,1.846674646737029302e-01,1.676491385436884030e-01,5.648324570052337679e-01,3.525469905650659153e-02,5.377050866377121041e-01,1.731374537160475791e-01,3.188990162969912445e-01
3.066666666666666430e+00,1.642705893173451900e+09,1.852826450297132277e-01,1.704248112849585384e-01,5.759351479703143095e-01,3.525469905650659153e-02,4.717857573814390193e-01,1.784970932739338434e-01,3.242428862168782455e-01
3.083333333333333481e+00,1.642705893190415144e+09,1.858308196220238850e-01,1.799854618382224491e-01,6.141777501833700637e-01,3.525469905650659153e-02,4.007401114026600264e-01,1.839365668942577192e-01,3.284821721505690739e-01
3.100000000000000089e+00,1.642705893207360029e+09,1.863255427843248380e-01,1.833779507442192813e-01,6.277477058073573923e-01,3.525469905650659153e-02,3.250108657840094506e-01,1.894361185589235330e-01,3.314557674280403932e-01
3.116666666666666696e+00,1.642705893224314690e+09,1.867807614265289684e-01,1.870788477325794341e-01,6.425512937607978925e-01,3.525469905650659153e-02,2.450960336862837430e-01,1.949742927236712275e-01,3.331205079536070923e-01
3.133333333333333304e+00,1.642705893240271807e+09,1.872107016519184708e-01,1.870788477325794341e-01,6.425512937607978925e-01,3.525469905650659153e-02,1.615455506682899611e-01,2.005284425946492477e-01,3.333767647226435482e-01
3.149999999999999911e+00,1.642705893258233786e+09,1.876297520329828772e-01,1.815275022500391078e-01,6.203459118306366982e-01,3.525469905650659153e-02,7.495729643295231948e-02,2.060741016499770262e-01,3.321058523120322681e-01
3.166666666666666519e+00,1.642705893275207281e+09,1.880523444819088286e-01,1.707332193673219423e-01,5.771687802997680361e-01,3.525469905650659153e-02,-1.402746107312490172e-02,2.115849728400055474e-01,3.292067437602403390e-01
3.183333333333333126e+00,1.642705893291144609e+09,1.884928336837707885e-01,2.644102429237994017e-02,0.000000000000000000e+00,3.525469905650659153e-02,-1.047291656720007458e-01,2.170154685058124922e-01,3.224714457381063770e-01
3.200000000000000178e+00,1.642705893309097528e+09,1.889653760845873276e-01,2.644102429237994017e-02,0.000000000000000000e+00,3.525469905650659153e-02,-1.964355771587036059e-01,2.223219729519940180e-01,3.143316987441527877e-01
3.216666666666666785e+00,1.642705893326052427e+09,1.894838094422777452e-01,2.644102429237994017e-02,0.000000000000000000e+00,3.525469905650659153e-02,-2.884078336869458359e-01,2.274812359602294276e-01,3.048063222460079547e-01
3.233333333333333393e+00,1.642705893342009544e+09,1.900615339558898720e-01,2.644102429237994017e-02,0.000000000000000000e+00,3.525469905650659153e-02,-3.798869205999844123e-01,2.324704232061207132e-01,2.939263700616566166e-01
3.250000000000000000e+00,1.642705893361924887e+09,1.907113959871025721e-01,2.644102429237994017e-02,0.000000000000000000e+00,3.525469905650659153e-02,-4.701004886777314651e-01,2.372673203169937406e-01,2.817351485443610470e-01
3.266666666666666607e+00,1.642705893375917912e+09,1.914455753778369906e-01,2.644102429237994017e-02,0.000000000000000000e+00,3.525469905650659153e-02,-5.582699599757412479e-01,2.418505362488078403e-01,2.682881170178242347e-01
3.283333333333333215e+00,1.642705893393860817e+09,1.922754773487845292e-01,2.644102429237994017e-02,0.000000000000000000e+00,3.525469905650659153e-02,-6.436178551938334103e-01,2.461997040053434671e-01,2.536526687462644092e-01
3.299999999999999822e+00,1.642705893410816908e+09,1.932116299358480060e-01,2.644102429237994017e-02,0.000000000000000000e+00,3.525469905650659153e-02,-7.253752728868173572e-01,2.502956767041113473e-01,2.379077919042558997e-01
3.316666666666666430e+00,1.642705893427748203e+09,1.942635878849979791e-01,2.403729481126268882e-03,0.000000000000000000e+00,3.204972641501691987e-03,-8.027894478668664568e-01,2.541173969514624598e-01,2.207463096838090943e-01
3.333333333333333481e+00,1.642705893444724560e+09,1.954398438810835137e-01,1.759761567674988092e-01,5.981405299004755038e-01,3.525469905650659153e-02,-8.751313138898514365e-01,2.576694448632596557e-01,2.055416758199726801e-01
3.350000000000000089e+00,1.642705893463649750e+09,1.967477479329776957e-01,1.627146092258748011e-01,5.450943397339793606e-01,3.525469905650659153e-02,-9.417029942029517819e-01,2.609591556770097798e-01,1.892688252566046003e-01
3.366666666666666696e+00,1.642705893480650187e+09,1.981934356764484817e-01,1.630230173082381773e-01,5.463279720634329761e-01,3.525469905650659153e-02,-1.001845142787341825e+00,2.639716356628498128e-01,1.722759765127795106e-01
3.383333333333333304e+00,1.642705893497576475e+09,1.997817662877305056e-01,1.781350133440422756e-01,6.067759562066493695e-01,3.525469905650659153e-02,-1.054944059179332871e+00,2.666980017913128664e-01,1.549361262870616041e-01
3.399999999999999911e+00,1.642705893513549805e+09,2.015162706254755021e-01,1.784434214264056795e-01,6.080095885361029850e-01,3.525469905650659153e-02,-1.100438500609157710e+00,2.691315242873067448e-01,1.371360191380218418e-01
3.416666666666666519e+00,1.642705893530471087e+09,2.033991101370863919e-01,1.556397589446053831e-01,6.129441178539164481e-01,3.204972641501691987e-03,-1.137826116864056880e+00,2.712625232410449949e-01,1.186352475522927524e-01
3.433333333333333126e+00,1.642705893548447609e+09,2.054310469780942228e-01,1.815275022500391078e-01,6.203459118306366982e-01,3.525469905650659153e-02,-1.166669435757382356e+00,2.730873231119155808e-01,1.003914154562997874e-01
3.449999999999999734e+00,1.642705893564405203e+09,2.076114257008408459e-01,1.436118437324347130e-01,5.648324570052337679e-01,3.204972641501691987e-03,-1.186601330356381379e+00,2.746025890288111282e-01,8.149299142900513770e-02
3.466666666666666785e+00,1.642705893582357407e+09,2.099381667720781608e-01,1.725836678615020048e-01,5.845705742764881752e-01,3.525469905650659153e-02,-1.197329903166908460e+00,2.758080112386498417e-01,6.320846529740967168e-02
3.483333333333333393e+00,1.642705893596319675e+09,2.124077720789519785e-01,1.679575466260517791e-01,5.660660893346873834e-01,3.525469905650659153e-02,-1.198642727264211061e+00,2.767103965240753083e-01,4.512799366801489853e-02
3.500000000000000000e+00,1.642705893615268707e+09,2.150153424800452517e-01,1.386773144146211112e-01,5.450943397339793606e-01,3.204972641501691987e-03,-1.190410389857325502e+00,2.773110307537078878e-01,2.699847484767056022e-02
3.516666666666666607e+00,1.642705893631225824e+09,2.177546073535850113e-01,2.403729481126268882e-03,0.000000000000000000e+00,3.204972641501691987e-03,-1.172589289934338419e+00,2.775956496781862848e-01,7.210763248971956141e-03
3.533333333333333215e+00,1.642705893648182869e+09,2.206179659894465239e-01,2.644102429237994017e-02,0.000000000000000000e+00,3.525469905650659153e-02,-1.145223648403269845e+00,2.775603062971687685e-01,-1.140027043852533117e-02
3.549999999999999822e+00,1.642705893667133093e+09,2.235965405661677341e-01,2.644102429237994017e-02,0.000000000000000000e+00,3.525469905650659153e-02,-1.108446696457343394e+00,2.772224292375722876e-01,-2.909582124834491842e-02
3.566666666666666430e+00,1.642705893685084820e+09,2.266802403496981921e-01,2.644102429237994017e-02,0.000000000000000000e+00,3.525469905650659153e-02,-1.062481015686284058e+00,2.765984192522165652e-01,-4.573914445288759789e-02
3.583333333333333481e+00,1.642705893700041533e+09,2.298578366480197588e-01,2.644102429237994017e-02,0.000000000000000000e+00,3.525469905650659153e-02,-1.007638011652847387e+00,2.757068942739728801e-01,-6.120090259731834903e-02
3.600000000000000089e+00,1.642705893717993498e+09,2.331170479560040198e-01,2.403729481126268882e-03,0.000000000000000000e+00,3.204972641501691987e-03,-9.443165111768748732e-01,2.745652348664933129e-01,-7.575778955143458449e-02
3.616666666666666696e+00,1.642705893735949516e+09,2.364446346288203438e-01,2.644102429237994017e-02,0.000000000000000000e+00,3.525469905650659153e-02,-8.730004823333750164e-01,2.731961415295764417e-01,-8.849802051520098967e-02
3.633333333333333304e+00,1.642705893752900600e+09,2.398265023307895594e-01,2.644102429237994017e-02,0.000000000000000000e+00,3.525469905650659153e-02,-7.942558850887084798e-01,2.716273469400505847e-01,-9.972614027228061950e-02
3.649999999999999911e+00,1.642705893768857002e+09,2.432478134206568221e-01,2.644102429237994017e-02,0.000000000000000000e+00,3.525469905650659153e-02,-7.087266694789370325e-01,2.698847811926800566e-01,-1.093550019446860588e-01
3.666666666666666519e+00,1.642705893786821604e+09,2.466931053546354558e-01,2.403729481126268882e-03,0.000000000000000000e+00,3.204972641501691987e-03,-6.171299471836847461e-01,2.679923957024491488e-01,-1.177080534161644432e-01
3.683333333333333126e+00,1.642705893802779913e+09,2.501464151160921467e-01,2.644102429237994017e-02,0.000000000000000000e+00,3.525469905650659153e-02,-5.202503711733421632e-01,2.659786475138626871e-01,-1.239244610089273446e-01
3.699999999999999734e+00,1.642705893818736315e+09,2.535914086160698244e-01,2.403729481126268882e-03,0.000000000000000000e+00,3.204972641501691987e-03,-4.189337667131944332e-01,2.638728250021908917e-01,-1.287608057844566722e-01
3.716666666666666785e+00,1.642705893838701725e+09,2.570115139527096026e-01,2.403729481126268882e-03,0.000000000000000000e+00,3.204972641501691987e-03,-3.140800653013857135e-01,2.617015471881718458e-01,-1.317841335674419245e-01
3.733333333333333393e+00,1.642705893856623411e+09,2.603900573706124377e-01,2.403729481126268882e-03,0.000000000000000000e+00,3.204972641501691987e-03,-2.066356010074029137e-01,2.594951384443315856e-01,-1.329815893490396417e-01
3.750000000000000000e+00,1.642705893871585608e+09,2.637104007238201264e-01,2.403729481126268882e-03,0.000000000000000000e+00,3.204972641501691987e-03,-9.758483607530293868e-02,2.572839996433870513e-01,-1.323568023246647074e-01
3.766666666666666607e+00,1.642705893889557362e+09,2.669560792188636067e-01,-2.163356533012830360e-02,0.000000000000000000e+00,-2.884475377350440711e-02,1.205841052333362848e-02,2.550950116003956603e-01,-1.303274001951198746e-01
3.783333333333333215e+00,1.642705893905514240e+09,2.701109381975788093e-01,2.403729481126268882e-03,0.000000000000000000e+00,3.204972641501691987e-03,1.212601517375504201e-01,2.529579696663335486e-01,-1.261292935740798149e-01
3.799999999999999822e+00,1.642705893923466921e+09,2.731592677134495051e-01,2.403729481126268882e-03,0.000000000000000000e+00,3.204972641501691987e-03,2.289757530037838384e-01,2.509051940639680511e-01,-1.202201932636324938e-01
3.816666666666666430e+00,1.642705893940420628e+09,2.760859336602494718e-01,2.403729481126268882e-03,0.000000000000000000e+00,3.204972641501691987e-03,3.341596948133752076e-01,2.489646153574198439e-01,-1.126702241521759240e-01
3.833333333333333481e+00,1.642705893957376719e+09,2.788765042279005013e-01,1.392941305793478080e-01,5.475616043928861476e-01,3.204972641501691987e-03,4.357754835858154707e-01,2.471817692578476833e-01,-1.013028844831843633e-01
3.850000000000000089e+00,1.642705893974285126e+09,2.815173704876612892e-01,1.476211488031582419e-01,5.808696772881278836e-01,3.204972641501691987e-03,5.328056142857706678e-01,2.456013607387778352e-01,-8.838202991263237329e-02
3.866666666666666696e+00,1.642705893991237164e+09,2.839958599470144285e-01,1.214249974153601974e-01,5.722342509819540179e-01,-2.884475377350440711e-02,6.242614863077124987e-01,2.442435288661801429e-01,-7.459608997798347629e-02
3.883333333333333304e+00,1.642705894008191824e+09,2.863003419636556135e-01,1.383689063322578183e-01,5.438607074045261891e-01,3.204972641501691987e-03,7.091931732247703790e-01,2.431276296463869557e-01,-5.935415609890648536e-02
3.899999999999999911e+00,1.642705894025146484e+09,2.884203239675945385e-01,1.149484276857299370e-01,5.463279720634329761e-01,-2.884475377350440711e-02,7.866989470813667840e-01,2.422711277223604798e-01,-4.347019792876172239e-02
3.916666666666666519e+00,1.642705894041105747e+09,2.903465375101324519e-01,1.140232034386398502e-01,5.426270750750725735e-01,-2.884475377350440711e-02,8.559344590163396882e-01,2.416865995852952864e-01,-2.671970875078021404e-02
3.933333333333333126e+00,1.642705894059056997e+09,2.920710132379108481e-01,-2.163356533012830360e-02,0.000000000000000000e+00,-2.884475377350440711e-02,9.161214801365344940e-01,2.413685087627374104e-01,-1.149348601478222820e-02
3.949999999999999734e+00,1.642705894077008247e+09,2.935871439787962056e-01,-2.163356533012830360e-02,0.000000000000000000e+00,-2.884475377350440711e-02,9.665561097137795876e-01,2.413090513218337230e-01,4.314680499182314832e-03
3.966666666666666785e+00,1.642705894092964888e+09,2.948897352233818547e-01,-2.163356533012830360e-02,0.000000000000000000e+00,-2.884475377350440711e-02,1.006616361930516179e+00,2.415164130330078041e-01,2.052369873134803416e-02
3.983333333333333393e+00,1.642705894110918283e+09,2.959750423906340466e-01,-2.163356533012830360e-02,0.000000000000000000e+00,-2.884475377350440711e-02,1.035769047522983266e+00,2.419957128338456331e-01,3.694665696705778934e-02
4.000000000000000000e+00,1.642705894129867077e+09,2.968407943778876845e-01,-2.163356533012830360e-02,0.000000000000000000e+00,-2.884475377350440711e-02,1.053575872724892282e+00,2.427489197456745018e-01,5.339248851180831978e-02
4.016666666666666607e+00,1.642705894143829107e+09,2.974862030130656088e-01,-2.163356533012830360e-02,0.000000000000000000e+00,-2.884475377350440711e-02,1.059698684849179395e+00,2.437747980293226424e-01,6.966769555347769594e-02
4.033333333333333215e+00,1.642705894160784721e+09,2.979119581497734481e-01,-4.567086014138197619e-02,0.000000000000000000e+00,-6.089448018850930622e-02,1.053903801599913370e+00,2.450655613886286999e-01,8.518081455181383821e-02
4.049999999999999822e+00,1.642705894177738428e+09,2.981202082727426594e-01,-4.567086014138197619e-02,0.000000000000000000e+00,-6.089448018850930622e-02,1.036065369711667294e+00,2.466102701983904355e-01,1.001426809015568548e-01
4.066666666666666430e+00,1.642705894195692301e+09,2.981145266109195835e-01,-4.567086014138197619e-02,0.000000000000000000e+00,-6.089448018850930622e-02,1.006167707690584834e+00,2.483981474268723566e-01,1.143630844655616347e-01
4.083333333333333037e+00,1.642705894211647987e+09,2.978998628872452370e-01,-4.567086014138197619e-02,0.000000000000000000e+00,-6.089448018850930622e-02,9.643065971938169501e-01,2.504152853747159124e-01,1.276565421352586771e-01
4.099999999999999645e+00,1.642705894227607727e+09,2.974824809666730130e-01,-2.163356533012830360e-02,0.000000000000000000e+00,-2.884475377350440711e-02,9.106894978379369565e-01,2.526480592740181774e-01,1.402413671110865623e-01
4.116666666666666252e+00,1.642705894245559216e+09,2.968698827960927766e-01,-4.567086014138197619e-02,0.000000000000000000e+00,-6.089448018850930622e-02,8.456346708720678951e-01,2.550765365856315081e-01,1.511456199783179910e-01
4.133333333333332860e+00,1.642705894262511730e+09,2.960707191604163291e-01,-2.163356533012830360e-02,0.000000000000000000e+00,-2.884475377350440711e-02,7.695692080821571190e-01,2.576780591876633442e-01,1.610096914221532949e-01
4.150000000000000355e+00,1.642705894279466391e+09,2.950946879069238360e-01,-4.567086014138197619e-02,0.000000000000000000e+00,-6.089448018850930622e-02,6.830259733991206339e-01,2.604273471120457928e-01,1.688829887187331402e-01
4.166666666666666963e+00,1.642705894295424223e+09,2.939524204139602470e-01,-4.567086014138197619e-02,0.000000000000000000e+00,-6.089448018850930622e-02,5.866394758519036801e-01,2.632934562431514802e-01,1.750330231828028382e-01
4.183333333333333570e+00,1.642705894313412189e+09,2.926553571989856661e-01,-4.567086014138197619e-02,0.000000000000000000e+00,-6.089448018850930622e-02,4.811407036216834854e-01,2.662466449597681306e-01,1.793376651908578645e-01
4.200000000000000178e+00,1.642705894329333782e+09,2.912156136738184853e-01,-4.567086014138197619e-02,0.000000000000000000e+00,-6.089448018850930622e-02,3.673509598988053404e-01,2.692552664543695351e-01,1.816903786922135222e-01
4.216666666666666785e+00,1.642705894347320080e+09,2.896458371604436199e-01,9.152794903920295766e-02,5.487952367223397632e-01,-6.089448018850930622e-02,2.461747519038509080e-01,2.723049879323680145e-01,1.842690355632659316e-01
4.233333333333333393e+00,1.642705894364244699e+09,2.879590563781009305e-01,1.007801915101034645e-01,5.858042066059417907e-01,-6.089448018850930622e-02,1.185917946935129558e-01,2.753809869621469120e-01,1.848492363035472985e-01
4.250000000000000000e+00,1.642705894380199671e+09,2.861685247004143728e-01,7.674289669884890031e-02,5.858042066059417907e-01,-9.294420660351540575e-02,-1.435179888109259713e-02,2.784448935880152742e-01,1.828251813079748433e-01
4.266666666666666607e+00,1.642705894399148703e+09,2.842875585592930521e-01,1.013970076748301613e-01,5.882714712648485778e-01,-6.089448018850930622e-02,-1.515530615685578841e-01,2.814598004586911784e-01,1.789743402057367705e-01
4.283333333333333215e+00,1.642705894415108204e+09,2.823293724392603732e-01,-6.970815495263654737e-02,0.000000000000000000e+00,-9.294420660351540575e-02,-2.918623595651918534e-01,2.843680458037360359e-01,1.700399196187280804e-01
4.299999999999999822e+00,1.642705894432063103e+09,2.803069119611195648e-01,-6.970815495263654737e-02,0.000000000000000000e+00,-9.294420660351540575e-02,-4.340941283329437517e-01,2.871089730427551778e-01,1.589022876582825983e-01
4.316666666666666430e+00,1.642705894450014591e+09,2.782326865967099661e-01,7.057473505158182170e-02,5.611315600168734763e-01,-9.294420660351540575e-02,-5.770380532274324015e-01,2.896654438742504722e-01,1.479047615238564539e-01
4.333333333333333037e+00,1.642705894467001200e+09,2.761186035864069410e-01,7.581767245175881353e-02,5.821033096175814991e-01,-9.294420660351540575e-02,-7.194705860889328841e-01,2.920211928919236866e-01,1.348214639455636576e-01
4.349999999999999645e+00,1.642705894481982231e+09,2.739758046475253006e-01,-9.374544976389022344e-02,0.000000000000000000e+00,-1.249939330185202979e-01,-8.601666843227209203e-01,2.941178408632095231e-01,1.168262804061676596e-01
4.366666666666666252e+00,1.642705894498928308e+09,2.718145070645466843e-01,-1.177827445751448016e-01,0.000000000000000000e+00,-1.570436594335263836e-01,-9.979116554900863134e-01,2.958947091652666117e-01,9.645450543635669671e-02
4.383333333333332860e+00,1.642705894516886473e+09,2.696438507408545626e-01,-1.177827445751448016e-01,0.000000000000000000e+00,-1.570436594335263836e-01,-1.131512988098168249e+00,2.973164085614942720e-01,7.421121049557384552e-02
4.400000000000000355e+00,1.642705894533841372e+09,2.674717527663518224e-01,-1.418200393863984776e-01,0.000000000000000000e+00,-1.890933858485313035e-01,-1.259812048153647446e+00,2.983494178570258448e-01,4.981766640770815546e-02
4.416666666666666963e+00,1.642705894551793098e+09,2.653047710159325834e-01,-1.658573341976530557e-01,0.000000000000000000e+00,-2.211431122635373892e-01,-1.381695521158596840e+00,2.989590826836464044e-01,2.341545399181677034e-02
4.433333333333333570e+00,1.642705894567743778e+09,2.631479782403842727e-01,-1.898946290089067179e-01,0.000000000000000000e+00,-2.531928386785423091e-01,-1.496106480590043031e+00,2.991132347814638992e-01,-4.838716599316561506e-03
4.450000000000000178e+00,1.642705894584701300e+09,2.610048480442528906e-01,-2.139319238201612960e-01,0.000000000000000000e+00,-2.852425650935483947e-01,-1.602054966518910772e+00,2.987824328153409481e-01,-3.477436280551145231e-02
4.466666666666666785e+00,1.642705894600659609e+09,2.588771540647339942e-01,-2.139319238201612960e-01,0.000000000000000000e+00,-2.852425650935483947e-01,-1.698627961875654124e+00,2.979434994285332650e-01,-6.581142751363402987e-02
4.483333333333333393e+00,1.642705894617610693e+09,2.567648835724212764e-01,-2.139319238201612960e-01,0.000000000000000000e+00,-2.852425650935483947e-01,-1.784998658935038618e+00,2.965796389210132999e-01,-9.776307671870072824e-02
4.500000000000000000e+00,1.642705894636559010e+09,2.546661666092020493e-01,-2.139319238201612960e-01,0.000000000000000000e+00,-2.852425650935483947e-01,-1.860434914830763731e+00,2.946772448111685261e-01,-1.304334632530380622e-01
4.516666666666666607e+00,1.642705894654511690e+09,2.525772216615667087e-01,-2.620065134426695641e-01,0.000000000000000000e+00,-3.493420179235594003e-01,-1.924306802272128136e+00,2.922193946059044034e-01,-1.644141683096871920e-01
4.533333333333333215e+00,1.642705894669471025e+09,2.504923187398992446e-01,-2.379692186314149582e-01,0.000000000000000000e+00,-3.172922915085532591e-01,-1.976093170054802339e+00,2.891960600324958164e-01,-1.982918735477155470e-01
4.549999999999999822e+00,1.642705894687401772e+09,2.484037605968314466e-01,-2.620065134426695641e-01,0.000000000000000000e+00,-3.493420179235594003e-01,-2.015387137361154490e+00,2.856040288984806885e-01,-2.326564032604308552e-01
4.566666666666666430e+00,1.642705894704360485e+09,2.463018826716094345e-01,-2.860438082539232263e-01,0.000000000000000000e+00,-3.813917443385642647e-01,-2.041900456145039566e+00,2.814370199726047850e-01,-2.672884654078709898e-01
4.583333333333333037e+00,1.642705894719316959e+09,2.441750721936137014e-01,-2.860438082539232263e-01,0.000000000000000000e+00,-3.813917443385642647e-01,-2.055466686994691372e+00,2.766957196340683045e-01,-3.015723399901447110e-01
4.599999999999999645e+00,1.642705894738275766e+09,2.420098067180806445e-01,-3.100811030651777767e-01,0.000000000000000000e+00,-4.134414707535703504e-01,-2.056043145658030369e+00,2.713843570277797435e-01,-3.356963815292429709e-01
4.616666666666666252e+00,1.642705894756226301e+09,2.397907122017799708e-01,-1.719570696375027630e-01,5.524961337107000547e-01,-4.134414707535703504e-01,-2.043711589782441607e+00,2.655297546265514286e-01,-3.667695901183470331e-01
4.633333333333332860e+00,1.642705894771176577e+09,2.375006405574149326e-01,-1.713402534727760940e-01,5.549633983696068418e-01,-4.134414707535703504e-01,-2.018677628242792732e+00,2.591651001607951921e-01,-3.969052336811835779e-01
4.650000000000000355e+00,1.642705894789130926e+09,2.351207664540979625e-01,-3.100811030651777767e-01,0.000000000000000000e+00,-4.134414707535703504e-01,-1.981268848578036090e+00,2.522883512830572106e-01,-4.282176506641658387e-01
4.666666666666666963e+00,1.642705894806083202e+09,2.326307029589071984e-01,-3.100811030651777767e-01,0.000000000000000000e+00,-4.134414707535703504e-01,-1.931931671394887085e+00,2.449008681511242458e-01,-4.581970471065672790e-01
4.683333333333333570e+00,1.642705894823067188e+09,2.300086354427162139e-01,-3.581556926876860447e-01,0.000000000000000000e+00,-4.775409235835813559e-01,-1.871226953988131436e+00,2.370196136605650372e-01,-4.874721700606050034e-01
4.700000000000000178e+00,1.642705894841020584e+09,2.272314730036135433e-01,-3.581556926876860447e-01,0.000000000000000000e+00,-4.775409235835813559e-01,-1.799824378732670649e+00,2.286643461080171691e-01,-5.150832370317297570e-01
4.716666666666666785e+00,1.642705894857921362e+09,2.242750164948771052e-01,-3.821929874989397069e-01,0.000000000000000000e+00,-5.095906499985862759e-01,-1.718495674881028723e+00,2.198606208783011329e-01,-5.412909895083465317e-01
4.733333333333333393e+00,1.642705894874874830e+09,2.211141420830035342e-01,-4.062302823101942573e-01,0.000000000000000000e+00,-5.416403764135924170e-01,-1.628106735112261783e+00,2.106328841241328909e-01,-5.659688697112192912e-01
4.750000000000000000e+00,1.642705894891827822e+09,2.177229991062561432e-01,-4.062302823101942573e-01,0.000000000000000000e+00,-5.416403764135924170e-01,-1.529608700386975162e+00,2.010108624854145543e-01,-5.886108311174538255e-01
4.766666666666666607e+00,1.642705894907820940e+09,2.140752208569356163e-01,-4.302675771214479750e-01,0.000000000000000000e+00,-5.736901028285972259e-01,-1.424028098233690365e+00,1.910258649445639445e-01,-6.095307614991888334e-01
4.783333333333333215e+00,1.642705894926770210e+09,2.101441467725211898e-01,-4.302675771214479750e-01,0.000000000000000000e+00,-5.736901028285972259e-01,-1.312456130396316922e+00,1.807105017444427530e-01,-6.282607934243636949e-01
4.799999999999999822e+00,1.642705894941729784e+09,2.059030543932205415e-01,-3.186481031639343264e-01,5.426270750750725735e-01,-6.057398292436033671e-01,-1.196037215688131150e+00,1.701170551229509720e-01,-6.429121021170730588e-01
4.816666666666666430e+00,1.642705894957686663e+09,2.013253993276615528e-01,-4.783421667439561875e-01,0.000000000000000000e+00,-6.377895556586082870e-01,-1.075956902810400351e+00,1.592759721983014742e-01,-6.579760036849962024e-01
4.833333333333333037e+00,1.642705894974641085e+09,1.963850613654377908e-01,-4.783421667439561875e-01,0.000000000000000000e+00,-6.377895556586082870e-01,-9.534292756985434103e-01,1.482028284581153876e-01,-6.707657173188518174e-01
4.849999999999999645e+00,1.642705894992593050e+09,1.910565947862985225e-01,-5.023794615552107379e-01,0.000000000000000000e+00,-6.698392820736143172e-01,-8.296839805605850104e-01,1.369320610644170488e-01,-6.816960072937501280e-01
4.866666666666666252e+00,1.642705895009548426e+09,1.853154808416177524e-01,-5.264167563664644556e-01,0.000000000000000000e+00,-7.018890084886192371e-01,-7.059530090887127241e-01,1.254944016086069480e-01,-6.907978439288596784e-01
4.883333333333332860e+00,1.642705895026502848e+09,1.791383803255580387e-01,-3.870590906093360206e-01,5.574306630285136288e-01,-7.018890084886192371e-01,-5.834573762840280509e-01,1.139424693340172212e-01,-6.954211861024927055e-01
4.900000000000000355e+00,1.642705895045453310e+09,1.725033841115071742e-01,-3.839750097857025923e-01,5.697669863230473419e-01,-7.018890084886192371e-01,-4.633938338800401291e-01,1.023311291460288763e-01,-6.979326599756000560e-01
4.916666666666666963e+00,1.642705895062428236e+09,1.653902595047342661e-01,-3.867506825269727555e-01,5.586642953579666893e-01,-7.018890084886192371e-01,-3.469217614390964211e-01,9.069398174963765047e-02,-6.985233866453099960e-01
4.933333333333333570e+00,1.642705895078377962e+09,1.577806902550930312e-01,-5.264167563664644556e-01,0.000000000000000000e+00,-7.018890084886192371e-01,-2.351503767990178739e-01,7.904321767182277692e-02,-6.995654081202531405e-01
4.950000000000000178e+00,1.642705895095336199e+09,1.496585080844509141e-01,-5.504540511777180622e-01,0.000000000000000000e+00,-7.339387349036241570e-01,-1.291264056524563386e-01,6.738655453459599376e-02,-6.992350859301958987e-01
4.966666666666666785e+00,1.642705895112265110e+09,1.410099136124121910e-01,-5.504540511777180622e-01,0.000000000000000000e+00,-7.339387349036241570e-01,-2.982234665069505644e-02,5.574906706911697540e-02,-6.972688717618571452e-01
4.983333333333333393e+00,1.642705895129227161e+09,1.318236846109292204e-01,-5.744913459889726681e-01,0.000000000000000000e+00,-7.659884613186302982e-01,6.187453644444408651e-02,4.415342344138887404e-02,-6.942168416265378506e-01
5.000000000000000000e+00,1.642705895150156260e+09,1.220913695834565937e-01,-5.744913459889726681e-01,0.000000000000000000e+00,-7.659884613186302982e-01,1.451723703482958316e-01,3.261973057303961532e-02,-6.898384650188665868e-01
5.016666666666666607e+00,1.642705895163137436e+09,1.110657920688640776e-01,-5.504540511777180622e-01,0.000000000000000000e+00,-7.339387349036241570e-01,2.193838580738725064e-01,2.117197607545710791e-02,-6.839085470730148497e-01
5.033333333333333215e+00,1.642705895181088448e+09,9.963665555903425397e-02,-5.744913459889726681e-01,0.000000000000000000e+00,-7.659884613186302982e-01,2.820509131922372958e-01,9.827570062182013760e-03,-6.774381482730186255e-01
5.049999999999999822e+00,1.642705895198073626e+09,8.781348920730101815e-02,-5.744913459889726681e-01,0.000000000000000000e+00,-7.659884613186302982e-01,3.339020896318216636e-01,-1.402727955441862226e-03,-6.702176711946805643e-01
5.066666666666666430e+00,1.642705895215030670e+09,7.560889779763572960e-02,-5.744913459889726681e-01,0.000000000000000000e+00,-7.659884613186302982e-01,3.748238959158747274e-01,-1.250802984402088480e-02,-6.624401601406532114e-01
5.083333333333333037e+00,1.642705895231982946e+09,6.303854960164854970e-02,-5.744913459889726681e-01,0.000000000000000000e+00,-7.659884613186302982e-01,4.048334517921052811e-01,-2.348063584724212685e-02,-6.542951857073797672e-01
5.099999999999999645e+00,1.642705895247939587e+09,5.012114029102038293e-02,-5.744913459889726681e-01,0.000000000000000000e+00,-7.659884613186302982e-01,4.240770742291559703e-01,-3.431595932577528874e-02,-6.459667667581768802e-01
5.116666666666666252e+00,1.642705895265892506e+09,3.687833296300330188e-02,-5.744913459889726681e-01,0.000000000000000000e+00,-7.659884613186302982e-01,4.328274881379520211e-01,-4.501241753566735670e-02,-6.376313728458018470e-01
5.133333333333332860e+00,1.642705895284841299e+09,2.333467452506045314e-02,-6.225659356114808807e-01,0.000000000000000000e+00,-8.300879141486412482e-01,4.314796947522412385e-01,-5.557793004665424752e-02,-6.302506310158022540e-01
5.150000000000000355e+00,1.642705895301786900e+09,9.517488871826344787e-03,-6.225659356114808807e-01,0.000000000000000000e+00,-8.300879141486412482e-01,4.205455443082313227e-01,-6.602295985586729976e-02,-6.231726077283100684e-01
5.166666666666666963e+00,1.642705895319738626e+09,-4.543252527978353106e-03,-6.225659356114808807e-01,0.000000000000000000e+00,-8.300879141486412482e-01,4.006470728816499127e-01,-7.635374861719922135e-02,-6.165404666791419741e-01
5.183333333333333570e+00,1.642705895336692572e+09,-1.881508183675940221e-02,-6.225659356114808807e-01,0.000000000000000000e+00,-8.300879141486412482e-01,3.725086758396720654e-01,-8.657880421844899033e-02,-6.104830320740890492e-01
5.200000000000000178e+00,1.642705895350655317e+09,-3.326320687282093014e-02,-6.225659356114808807e-01,0.000000000000000000e+00,-8.300879141486412482e-01,3.369482022185149583e-01,-9.670865086253155329e-02,-6.051134809865559294e-01
5.216666666666666785e+00,1.642705895369614840e+09,-4.785070281442063700e-02,-5.985286408002263858e-01,0.000000000000000000e+00,-7.980381877336351071e-01,2.948670653260876406e-01,-1.067522388580356280e-01,-6.001309192489541200e-01
5.233333333333333393e+00,1.642705895385572910e+09,-6.253872228352289064e-02,-6.225659356114808807e-01,0.000000000000000000e+00,-8.300879141486412482e-01,2.472394748826711730e-01,-1.167233707415364502e-01,-5.964152283776000818e-01
5.250000000000000000e+00,1.642705895405497313e+09,-7.728672235984722361e-02,-6.225659356114808807e-01,0.000000000000000000e+00,-8.300879141486412482e-01,1.951009049517814786e-01,-1.266402890622196908e-01,-5.936227272345784289e-01
5.266666666666666607e+00,1.642705895420445442e+09,-9.205270693693537454e-02,-6.225659356114808807e-01,0.000000000000000000e+00,-8.300879141486412482e-01,1.395359196866238494e-01,-1.365187260623273169e-01,-5.917947904998850372e-01
5.283333333333333215e+00,1.642705895436403513e+09,-1.067934827048458019e-01,-6.225659356114808807e-01,0.000000000000000000e+00,-8.300879141486412482e-01,8.166548544948105948e-02,-1.463749430189764666e-01,-5.909535810459358718e-01
5.299999999999999822e+00,1.642705895456382513e+09,-1.214649269300535767e-01,-5.985286408002263858e-01,0.000000000000000000e+00,-7.980381877336351071e-01,2.263390308389946065e-02,-1.562220894347874367e-01,-5.907046802587303524e-01
5.316666666666666430e+00,1.642705895473306417e+09,-1.360222651028462071e-01,-6.225659356114808807e-01,0.000000000000000000e+00,-8.300879141486412482e-01,-3.640450201696709964e-02,-1.660765963395701705e-01,-5.918330139810884516e-01
5.333333333333333037e+00,1.642705895487293243e+09,-1.504203564369754054e-01,-6.225659356114808807e-01,0.000000000000000000e+00,-8.300879141486412482e-01,-9.429879193929907588e-02,-1.759577493485871003e-01,-5.938996064312511702e-01
5.349999999999999645e+00,1.642705895504245996e+09,-1.646139851361635709e-01,-6.225659356114808807e-01,0.000000000000000000e+00,-8.300879141486412482e-01,-1.499147892284998229e-01,-1.858807418356227259e-01,-5.968512926915485739e-01
5.366666666666666252e+00,1.642705895522173643e+09,-1.785581552877930356e-01,-5.985286408002263858e-01,0.000000000000000000e+00,-7.980381877336351071e-01,-2.021482700675592548e-01,-1.958564158765674912e-01,-6.002202338317336183e-01
5.383333333333332860e+00,1.642705895542119980e+09,-1.922083872063835297e-01,-5.985286408002263858e-01,0.000000000000000000e+00,-7.980381877336351071e-01,-2.499378387269710622e-01,-2.058943743357528888e-01,-6.043233833646681763e-01
5.400000000000000355e+00,1.642705895557080507e+09,-2.055210130283460779e-01,-5.985286408002263858e-01,0.000000000000000000e+00,-7.980381877336351071e-01,-2.922773475955983136e-01,-2.160059998455174934e-01,-6.090585243281673167e-01
5.416666666666666963e+00,1.642705895574033260e+09,-2.184534693554357199e-01,-6.225659356114808807e-01,0.000000000000000000e+00,-8.300879141486412482e-01,-3.282277317187749510e-01,-2.262041758794543778e-01,-6.147069094164013814e-01
5.433333333333333570e+00,1.642705895590989351e+09,-2.309645847572322219e-01,-6.225659356114808807e-01,0.000000000000000000e+00,-8.300879141486412482e-01,-3.569281327202489251e-01,-2.364996756208020690e-01,-6.207363108139158925e-01
5.450000000000000178e+00,1.642705895606945515e+09,-2.430148599727905145e-01,-5.985286408002263858e-01,0.000000000000000000e+00,-7.980381877336351071e-01,-3.776061942085080503e-01,-2.468943686225294198e-01,-6.266105317290008303e-01
5.466666666666666785e+00,1.642705895626893520e+09,-2.545667386982263802e-01,-6.225659356114808807e-01,0.000000000000000000e+00,-8.300879141486412482e-01,-3.895874191941781639e-01,-2.573911288517775620e-01,-6.329829940798470389e-01
5.483333333333333393e+00,1.642705895646839619e+09,-2.655848669099887260e-01,-6.225659356114808807e-01,0.000000000000000000e+00,-8.300879141486412482e-01,-3.923034895881416517e-01,-2.679935917641916299e-01,-6.392950215874266817e-01
5.500000000000000000e+00,1.642705895659830332e+09,-2.760363387524875645e-01,-6.225659356114808807e-01,0.000000000000000000e+00,-8.300879141486412482e-01,-3.852994584151185897e-01,-2.786994159143960648e-01,-6.453869540043322139e-01
5.516666666666666607e+00,1.642705895673799038e+09,-2.858909271130933294e-01,-5.985286408002263858e-01,0.000000000000000000e+00,-7.980381877336351071e-01,-3.682397368581653563e-01,-2.895002545103967928e-01,-6.506989217026379890e-01
5.533333333333333215e+00,1.642705895691749334e+09,-2.951212971164402510e-01,-5.985286408002263858e-01,0.000000000000000000e+00,-7.980381877336351071e-01,-3.409128105311132195e-01,-3.003851178010406020e-01,-6.554714159341831214e-01
5.549999999999999822e+00,1.642705895708697557e+09,-3.037032008927631477e-01,-5.985286408002263858e-01,0.000000000000000000e+00,-7.980381877336351071e-01,-3.032346323356096551e-01,-3.113436593541528685e-01,-6.595422622666681223e-01
5.566666666666666430e+00,1.642705895724680662e+09,-3.116156521107063537e-01,-6.225659356114808807e-01,0.000000000000000000e+00,-8.300879141486412482e-01,-2.552506527663322977e-01,-3.223661785507657696e-01,-6.631500195430187761e-01
5.583333333333333037e+00,1.642705895743607283e+09,-3.188410789125378231e-01,-5.985286408002263858e-01,0.000000000000000000e+00,-7.980381877336351071e-01,-1.971364624477298655e-01,-3.334369819259652701e-01,-6.653403012219518686e-01
5.599999999999999645e+00,1.642705895763528347e+09,-3.253654540480576673e-01,-5.985286408002263858e-01,0.000000000000000000e+00,-7.980381877336351071e-01,-1.291970358776648453e-01,-3.445346036455176342e-01,-6.663714407803643658e-01
5.616666666666666252e+00,1.642705895778525114e+09,-3.311784011712267661e-01,-5.985286408002263858e-01,0.000000000000000000e+00,-7.980381877336351071e-01,-5.186457967581681316e-02,-3.556385874054292517e-01,-6.661073440283867830e-01
5.633333333333332860e+00,1.642705895796440125e+09,-3.362732764396684781e-01,-5.985286408002263858e-01,0.000000000000000000e+00,-7.980381877336351071e-01,3.430499705673040189e-02,-3.667263042450486510e-01,-6.644233545844923094e-01
5.650000000000000355e+00,1.642705895842317581e+09,-3.406472247400647579e-01,-4.388345772202045247e-01,5.426270750750725735e-01,-7.659884613186302982e-01,1.286369585089510714e-01,-3.777511009860696212e-01,-6.585685181553255774e-01
5.666666666666666963e+00,1.642705895850296259e+09,-3.443012100509378892e-01,-5.504540511777180622e-01,0.000000000000000000e+00,-7.339387349036241570e-01,2.303439184535056583e-01,-3.886804949142483312e-01,-6.529742931058837296e-01
5.683333333333333570e+00,1.642705895868246794e+09,-3.472400196467019251e-01,-5.264167563664644556e-01,0.000000000000000000e+00,-7.018890084886192371e-01,3.385332580412601100e-01,-3.994991612267043690e-01,-6.452870184321810587e-01
5.700000000000000178e+00,1.642705895886233568e+09,-3.494722420418998610e-01,-5.264167563664644556e-01,0.000000000000000000e+00,-7.018890084886192371e-01,4.522157132380737465e-01,-4.101750661873763137e-01,-6.358477975236489499e-01
5.716666666666666785e+00,1.642705895903153181e+09,-3.510102187705209653e-01,-5.023794615552107379e-01,0.000000000000000000e+00,-6.698392820736143172e-01,5.703150479112544247e-01,-4.206753225672880125e-01,-6.242152813711364656e-01
5.733333333333333393e+00,1.642705895917115688e+09,-3.518699702908687499e-01,-4.783421667439561875e-01,0.000000000000000000e+00,-6.377895556586082870e-01,6.916787172657956617e-01,-4.309632275132049828e-01,-6.103717672498555347e-01
5.750000000000000000e+00,1.642705895936065197e+09,-3.520710965000117265e-01,-4.783421667439561875e-01,0.000000000000000000e+00,-6.377895556586082870e-01,8.150894159643687908e-01,-4.410052737495626096e-01,-5.947172668598244005e-01
5.766666666666666607e+00,1.642705895954016685e+09,-3.516366525318974645e-01,-4.543048719327025253e-01,0.000000000000000000e+00,-6.057398292436033671e-01,9.392773959445188670e-01,-4.507681009045770293e-01,-5.768715643046130603e-01
5.783333333333333215e+00,1.642705895970971584e+09,-3.505930006983919434e-01,-4.543048719327025253e-01,0.000000000000000000e+00,-6.057398292436033671e-01,1.062933430766941356e+00,-4.602188851077822496e-01,-5.572769707875038225e-01
5.799999999999999822e+00,1.642705895985963821e+09,-3.489696396111908738e-01,-4.543048719327025253e-01,0.000000000000000000e+00,-6.057398292436033671e-01,1.184722296373857731e+00,-4.693289776285159420e-01,-5.359932545260842618e-01
5.816666666666666430e+00,1.642705896002919912e+09,-3.467990116935774081e-01,-4.543048719327025253e-01,0.000000000000000000e+00,-6.057398292436033671e-01,1.303296632476338868e+00,-4.780709037159349695e-01,-5.131014657629380249e-01
5.833333333333333037e+00,1.642705896018878937e+09,-3.441162904528639044e-01,-4.543048719327025253e-01,0.000000000000000000e+00,-6.057398292436033671e-01,1.417311044484539151e+00,-4.864187140884447258e-01,-4.887035525145643211e-01
5.849999999999999645e+00,1.642705896036823988e+09,-3.409591490359188404e-01,-4.543048719327025253e-01,0.000000000000000000e+00,-6.057398292436033671e-01,1.525436302987863035e+00,-4.943483281107774463e-01,-4.629217479746456365e-01
5.866666666666666252e+00,1.642705896054772615e+09,-3.373675117301953574e-01,-4.543048719327025253e-01,0.000000000000000000e+00,-6.057398292436033671e-01,1.626373496316537492e+00,-5.018378648909782580e-01,-4.358977341213808865e-01
5.883333333333332860e+00,1.642705896070729971e+09,-3.333832902001573339e-01,-4.543048719327025253e-01,0.000000000000000000e+00,-6.057398292436033671e-01,1.718867991686976904e+00,-5.088679586247163433e-01,-4.077915883917382356e-01
5.900000000000000355e+00,1.642705896089678526e+09,-3.290501063628143430e-01,-4.302675771214479750e-01,0.000000000000000000e+00,-5.736901028285972259e-01,1.801723061854091146e+00,-5.154187346043790363e-01,-3.783832209998648777e-01
5.916666666666666963e+00,1.642705896106607914e+09,-3.244130039055107551e-01,-4.302675771214479750e-01,0.000000000000000000e+00,-5.736901028285972259e-01,1.873813037052971975e+00,-5.214734759225432281e-01,-3.482693886828419072e-01
5.933333333333333570e+00,1.642705896122567415e+09,-3.195181505332778116e-01,-2.918351356114096129e-01,5.537297660401532262e-01,-5.736901028285972259e-01,1.934095846282034570e+00,-5.270030327233840017e-01,-3.153688200374906714e-01
5.950000000000000178e+00,1.642705896140555143e+09,-3.144125331013468694e-01,-2.671810246354293095e-01,5.561970306990599022e-01,-5.416403764135924170e-01,1.981624817621988388e+00,-5.319788209930799150e-01,-2.818189685513520781e-01
5.966666666666666785e+00,1.642705896157519341e+09,-3.091436478403488675e-01,-2.687230650472460791e-01,5.500288690517928236e-01,-5.416403764135924170e-01,2.015559614243587649e+00,-5.363956048899171103e-01,-2.482882421679091789e-01
5.983333333333333393e+00,1.642705896174483061e+09,-3.037591879167785835e-01,-2.341998954356376006e-01,5.919723682532084252e-01,-5.095906499985862759e-01,2.035176190966432763e+00,-5.402506968189113579e-01,-2.144168786467350318e-01
6.000000000000000000e+00,1.642705896192416906e+09,-2.983067305894145926e-01,-2.129382733656540461e-01,5.808696772881278836e-01,-4.775409235835813559e-01,2.039875665610642486e+00,-5.435423585925510670e-01,-1.806762603356788510e-01
6.016666666666666607e+00,1.642705896209390163e+09,-2.928334262231288565e-01,-3.341183978764314388e-01,0.000000000000000000e+00,-4.454911971685752703e-01,2.029192009842061051e+00,-5.462945500898382933e-01,-1.496728419722977987e-01
6.033333333333333215e+00,1.642705896227287769e+09,-2.873856914052823064e-01,-3.341183978764314388e-01,0.000000000000000000e+00,-4.454911971685752703e-01,2.002798475647377341e+00,-5.485379456434625878e-01,-1.196181117891577383e-01
6.049999999999999822e+00,1.642705896242255926e+09,-2.820089083763587245e-01,-3.100811030651777767e-01,0.000000000000000000e+00,-4.134414707535703504e-01,1.960512685876148575e+00,-5.502871006929265230e-01,-9.036176369284423804e-02
6.066666666666666430e+00,1.642705896259202957e+09,-2.767471329363888066e-01,-1.565366655193352607e-01,6.141777501833700637e-01,-4.134414707535703504e-01,1.902300330331484712e+00,-5.515395235274485053e-01,-6.001327977811982128e-02
6.083333333333333037e+00,1.642705896278153181e+09,-2.716428129220117560e-01,-1.509853200367949622e-01,6.363831321135312580e-01,-4.134414707535703504e-01,1.828277422552044840e+00,-5.522997873708160865e-01,-3.129814755949802962e-02
6.099999999999999645e+00,1.642705896294107914e+09,-2.667365192665949181e-01,-1.352750434493509291e-01,6.030750592182890779e-01,-3.813917443385642647e-01,1.738711086569916020e+00,-5.525956328613723656e-01,-4.278368016932307394e-03
6.116666666666666252e+00,1.642705896309071779e+09,-2.620666915580848189e-01,-1.001350576730165864e-01,6.474858230786117996e-01,-3.493420179235594003e-01,1.634018857413084946e+00,-5.524544872688786912e-01,2.114521638624182465e-02
6.133333333333332860e+00,1.642705896327021360e+09,-2.576693998970986388e-01,-9.520052835520298462e-02,6.672239403498662069e-01,-3.493420179235594003e-01,1.514766493804258651e+00,-5.519089164241424150e-01,4.425907829898982626e-02
6.150000000000000355e+00,1.642705896342976809e+09,-2.535781247320131881e-01,-9.026599903738938280e-02,6.869620576211206142e-01,-3.493420179235594003e-01,1.381664316244253898e+00,-5.509990096251947689e-01,6.487247678682322993e-02
6.166666666666666963e+00,1.642705896361928940e+09,-2.498235562094552331e-01,-6.468666381431811829e-02,6.931302192683873598e-01,-3.172922915085532591e-01,1.235562098313055301e+00,-5.497650399983649017e-01,8.315309773497234214e-02
6.183333333333333570e+00,1.642705896378884315e+09,-2.464334144287173289e-01,-7.116323354394840650e-02,6.672239403498662069e-01,-3.172922915085532591e-01,1.077442553428779259e+00,-5.482516523816985954e-01,9.841103211638659032e-02
6.200000000000000178e+00,1.642705896395867825e+09,-2.434322918284370085e-01,-6.962119313213174787e-02,6.733921019971328414e-01,-3.172922915085532591e-01,9.084134733317819066e-01,-5.465092066856779285e-01,1.106484577570268080e-01
6.216666666666666785e+00,1.642705896411824703e+09,-2.408415187645307487e-01,-4.064936900306444917e-02,6.931302192683873598e-01,-2.852425650935483947e-01,7.296985880690165516e-01,-5.445851767213034655e-01,1.202085814437515859e-01
6.233333333333333393e+00,1.642705896428780317e+09,-2.386790531613252608e-01,-1.445321761526644801e-02,7.017656455745611144e-01,-2.531928386785423091e-01,5.426272301069101633e-01,-5.425253519750082853e-01,1.269516569056504673e-01
6.250000000000000000e+00,1.642705896446699619e+09,-2.369593949343240247e-01,-3.018202981579723096e-02,6.388503967724379340e-01,-2.531928386785423091e-01,3.486228972724090269e-01,-5.403830424412718880e-01,1.301166951628575930e-01
6.266666666666666607e+00,1.642705896462690592e+09,-2.356935256946031121e-01,-3.419133488652084663e-02,6.228131764895434852e-01,-2.531928386785423091e-01,1.491908203909716457e-01,-5.382165188517653576e-01,1.298668296650918874e-01
6.283333333333333215e+00,1.642705896480642557e+09,-2.348888740529010699e-01,-2.279877145216453738e-02,5.722342509819540179e-01,-2.211431122635373892e-01,-5.409534835604368208e-02,-5.360806296161895190e-01,1.264493717660458982e-01
6.299999999999999822e+00,1.642705896496590614e+09,-2.345493066474550747e-01,-2.125673104034776426e-02,5.784024126292210966e-01,-2.211431122635373892e-01,-2.596076012933068999e-01,-5.340293984588034837e-01,1.197170684030989390e-01
6.316666666666666430e+00,1.642705896514547586e+09,-2.346751448252528682e-01,-1.418200393863984776e-01,0.000000000000000000e+00,-1.890933858485313035e-01,-4.656782624414925187e-01,-5.321345573352143088e-01,1.076972555823782624e-01
6.333333333333333037e+00,1.642705896531508446e+09,-2.352632067128093141e-01,-1.418200393863984776e-01,0.000000000000000000e+00,-1.890933858485313035e-01,-6.706151565991309571e-01,-5.304666922288381326e-01,9.248880387624328070e-02
6.349999999999999645e+00,1.642705896547466516e+09,-2.363068742217135920e-01,-1.418200393863984776e-01,0.000000000000000000e+00,-1.890933858485313035e-01,-8.727171156890528581e-01,-5.290781151420586026e-01,7.419127420487284241e-02
6.366666666666666252e+00,1.642705896567410231e+09,-2.377961843471522729e-01,-1.418200393863984776e-01,0.000000000000000000e+00,-1.890933858485313035e-01,-1.070289673957446563e+00,-5.280192584395381195e-01,5.293058894662158731e-02
6.383333333333332860e+00,1.642705896585363388e+09,-2.397179439360817566e-01,-1.177827445751448016e-01,0.000000000000000000e+00,-1.570436594335263836e-01,-1.261660801274024468e+00,-5.273349221873058212e-01,2.925552693023650286e-02
6.400000000000000355e+00,1.642705896600319624e+09,-2.420558669270232166e-01,-1.177827445751448016e-01,0.000000000000000000e+00,-1.570436594335263836e-01,-1.445196522914441006e+00,-5.270672503360864791e-01,2.938200620857360501e-03
6.416666666666666963e+00,1.642705896618264914e+09,-2.447907328968538521e-01,-9.374544976389022344e-02,0.000000000000000000e+00,-1.249939330185202979e-01,-1.619316274820101764e+00,-5.272552950916427061e-01,-2.542478336665297128e-02
6.433333333333333570e+00,1.642705896633226395e+09,-2.479005655929254481e-01,-9.374544976389022344e-02,0.000000000000000000e+00,-1.249939330185202979e-01,-1.782507845422874881e+00,-5.279346788386496403e-01,-5.601628787275880761e-02
6.450000000000000178e+00,1.642705896652149916e+09,-2.513608299823469894e-01,-9.374544976389022344e-02,0.000000000000000000e+00,-1.249939330185202979e-01,-1.933341758675660715e+00,-5.291405289355852748e-01,-8.859522458314904314e-02
6.466666666666666785e+00,1.642705896668111086e+09,-2.551446462156584660e-01,-9.374544976389022344e-02,0.000000000000000000e+00,-1.249939330185202979e-01,-2.070484957908937496e+00,-5.309038037791415920e-01,-1.229024565341398367e-01
6.483333333333333393e+00,1.642705896686063290e+09,-2.592230187802153085e-01,-9.374544976389022344e-02,0.000000000000000000e+00,-1.249939330185202979e-01,-2.192713656495099972e+00,-5.332510095787230675e-01,-1.586629025055415476e-01
6.500000000000000000e+00,1.642705896702018738e+09,-2.635650790105077967e-01,-6.970815495263654737e-02,0.000000000000000000e+00,-9.294420660351540575e-02,-2.298925228983443869e+00,-5.362006335127555978e-01,-1.951905016371103807e-01
6.516666666666666607e+00,1.642705896718972921e+09,-2.681383390290342228e-01,-6.970815495263654737e-02,0.000000000000000000e+00,-9.294420660351540575e-02,-2.388149025296712580e+00,-5.397663291906962257e-01,-2.325890922966589447e-01
6.533333333333333215e+00,1.642705896736924410e+09,-2.729089551129991742e-01,-6.970815495263654737e-02,0.000000000000000000e+00,-9.294420660351540575e-02,-2.459556000670356291e+00,-5.439600319680285567e-01,-2.705497921130431971e-01
6.549999999999999822e+00,1.642705896754907131e+09,-2.778419984195944492e-01,-6.970815495263654737e-02,0.000000000000000000e+00,-9.294420660351540575e-02,-2.512467065168810798e+00,-5.487884780274636665e-01,-3.087575997222988811e-01
6.566666666666666430e+00,1.642705896773824215e+09,-2.829017309563748306e-01,-6.970815495263654737e-02,0.000000000000000000e+00,-9.294420660351540575e-02,-2.546360068723930503e+00,-5.542531249174974528e-01,-3.468940898935412576e-01
6.583333333333333037e+00,1.642705896790780306e+09,-2.880518846535785604e-01,-4.567086014138197619e-02,0.000000000000000000e+00,-6.089448018850930622e-02,-2.560875350589710830e+00,-5.603467973608211583e-01,-3.842428542957357362e-01
6.599999999999999645e+00,1.642705896805742979e+09,-2.932559413824284977e-01,-4.567086014138197619e-02,0.000000000000000000e+00,-6.089448018850930622e-02,-2.555819795770899905e+00,-5.670570923051188039e-01,-4.208907369499761408e-01
6.616666666666666252e+00,1.642705896824689865e+09,-2.984774117674299232e-01,-4.567086014138197619e-02,0.000000000000000000e+00,-6.089448018850930622e-02,-2.531169355227063100e+00,-5.743697187386676006e-01,-4.565254474392347883e-01
6.633333333333332860e+00,1.642705896840647459e+09,-3.036801106615074075e-01,-6.970815495263654737e-02,0.000000000000000000e+00,-9.294420660351540575e-02,-2.487070001340471848e+00,-5.822685641481006869e-01,-4.912395713013535392e-01
6.649999999999999467e+00,1.642705896857600927e+09,-3.088284271902136946e-01,-4.567086014138197619e-02,0.000000000000000000e+00,-6.089448018850930622e-02,-2.423837105122549573e+00,-5.907291297541296116e-01,-5.239374717830568295e-01
6.666666666666666963e+00,1.642705896874556303e+09,-3.138875873248542225e-01,-4.567086014138197619e-02,0.000000000000000000e+00,-6.089448018850930622e-02,-2.341953236773751001e+00,-5.997188342771030412e-01,-5.547415022086689129e-01
6.683333333333333570e+00,1.642705896889516115e+09,-3.188239070138787490e-01,-4.567086014138197619e-02,0.000000000000000000e+00,-6.089448018850930622e-02,-2.242064406357863415e+00,-6.092038879440185850e-01,-5.833853696500740371e-01
6.700000000000000178e+00,1.642705896906468391e+09,-3.236050339864420811e-01,-4.567086014138197619e-02,0.000000000000000000e+00,-6.089448018850930622e-02,-2.124974776356557626e+00,-6.191462106182407110e-01,-6.096204742508176677e-01
6.716666666666666785e+00,1.642705896923425436e+09,-3.282001764412991185e-01,-2.163356533012830360e-02,0.000000000000000000e+00,-2.884475377350440711e-02,-1.991639892586245297e+00,-6.295004251062406020e-01,-6.328208173947572623e-01
6.733333333333333393e+00,1.642705896944368362e+09,-3.325803169469384035e-01,-2.163356533012830360e-02,0.000000000000000000e+00,-2.884475377350440711e-02,-1.843158494244564682e+00,-6.402175992121745818e-01,-6.531835109484014357e-01
6.750000000000000000e+00,1.642705896960358381e+09,-3.367184100045513273e-01,-2.163356533012830360e-02,0.000000000000000000e+00,-2.884475377350440711e-02,-1.680762977566921723e+00,-6.512489088888144817e-01,-6.705254769867123876e-01
6.766666666666666607e+00,1.642705896977312803e+09,-3.405895618627305943e-01,-2.163356533012830360e-02,0.000000000000000000e+00,-2.884475377350440711e-02,-1.505808600581786783e+00,-6.625426912659108103e-01,-6.846890640414813323e-01
6.783333333333333215e+00,1.642705896995266438e+09,-3.441711913207973761e-01,1.399109467440744770e-01,5.500288690517928236e-01,3.204972641501691987e-03,-1.319761528628652592e+00,-6.740225676225179985e-01,-6.928733640496170798e-01
6.799999999999999822e+00,1.642705897010247231e+09,-3.474431704150686695e-01,-2.163356533012830360e-02,0.000000000000000000e+00,-2.884475377350440711e-02,-1.124185831526537171e+00,-6.856330181554032288e-01,-7.003599034643428478e-01
6.816666666666666430e+00,1.642705897028198481e+09,-3.503879440479329976e-01,2.403729481126268882e-03,0.000000000000000000e+00,3.204972641501691987e-03,-9.207295534421868766e-01,-6.973357887748400374e-01,-7.039625632442571002e-01
6.833333333333333037e+00,1.642705897044155598e+09,-3.529906277920279445e-01,-2.163356533012830360e-02,0.000000000000000000e+00,-2.884475377350440711e-02,-7.111099855084976884e-01,-7.090724734066117252e-01,-7.044382711264625119e-01
6.849999999999999645e+00,1.642705897062102795e+09,-3.552390832796574194e-01,2.403729481126268882e-03,0.000000000000000000e+00,3.204972641501691987e-03,-4.970982789939870083e-01,-7.207841413512341422e-01,-7.009715123403877923e-01
6.866666666666666252e+00,1.642705897078011990e+09,-3.571239707694456866e-01,2.403729481126268882e-03,0.000000000000000000e+00,3.204972641501691987e-03,-2.805035432502425707e-01,-7.324085926402331692e-01,-6.939820579475407536e-01
6.883333333333332860e+00,1.642705897095964193e+09,-3.586387786666898059e-01,2.644102429237994017e-02,0.000000000000000000e+00,3.525469905650659153e-02,-6.315657770076331390e-02,-7.438841782951282067e-01,-6.831183981827854135e-01
6.899999999999999467e+00,1.642705897112920523e+09,-3.597798299593876203e-01,2.644102429237994017e-02,0.000000000000000000e+00,3.525469905650659153e-02,1.531066092669621792e-01,-7.551503330687582283e-01,-6.688597828498330511e-01
6.916666666666666963e+00,1.642705897128875732e+09,-3.605462657170639407e-01,5.047831910363361624e-02,0.000000000000000000e+00,6.730442547151148369e-02,3.664613395192882761e-01,-7.661480249556166244e-01,-6.509130966525926709e-01
6.933333333333333570e+00,1.642705897144833565e+09,-3.609400059828213325e-01,1.867519040371284633e-01,5.450943397339793606e-01,6.730442547151148369e-02,5.751107068880523254e-01,-7.768014432808281189e-01,-6.275619681452948573e-01
6.950000000000000178e+00,1.642705897163786411e+09,-3.609656885690060157e-01,9.855290872614276554e-02,0.000000000000000000e+00,1.314038783015236689e-01,7.773017666309698370e-01,-7.870531567596208422e-01,-6.027126767438835131e-01
6.966666666666666785e+00,1.642705897180738449e+09,-3.606305864421095464e-01,1.225902035373964277e-01,0.000000000000000000e+00,1.634536047165285888e-01,9.713413202613607744e-01,-7.968640266951300122e-01,-5.746696147450617298e-01
6.983333333333333393e+00,1.642705897198691607e+09,-3.599445045516118102e-01,1.466274983486501038e-01,0.000000000000000000e+00,1.955033311315334810e-01,1.155611147202953104e+00,-8.061826141021123382e-01,-5.436470499122193489e-01
7.000000000000000000e+00,1.642705897217645168e+09,-3.589196571191286544e-01,1.947020879711592600e-01,0.000000000000000000e+00,2.596027839615456800e-01,1.328582539994296763e+00,-8.149579126326281786e-01,-5.094836742489459169e-01
7.016666666666666607e+00,1.642705897231601000e+09,-3.575705265570764402e-01,3.547045596335444695e-01,5.438607074045261891e-01,2.916525103765505444e-01,1.488830006418917273e+00,-8.231243071500051744e-01,-4.705917036306945245e-01
7.033333333333333215e+00,1.642705897248558044e+09,-3.559137053290077346e-01,2.427766775936666122e-01,0.000000000000000000e+00,3.237022367915554644e-01,1.635044009906021500e+00,-8.306431383192637297e-01,-4.317758610031078859e-01
7.049999999999999822e+00,1.642705897264546394e+09,-3.539677221956452624e-01,4.040127815855051874e-01,5.487952367223397632e-01,3.557519632065603843e-01,1.766042628755303934e+00,-8.374800364358786497e-01,-3.887713727141461351e-01
7.066666666666666430e+00,1.642705897285480022e+09,-3.517528544103695753e-01,2.668139724049202743e-01,0.000000000000000000e+00,3.557519632065603843e-01,1.880782025099278165e+00,-8.436092349876989083e-01,-3.468489075372558905e-01
7.083333333333333037e+00,1.642705897299443483e+09,-3.492909275346536835e-01,3.148885620274294306e-01,0.000000000000000000e+00,4.198514160365725556e-01,1.978365625925161186e+00,-8.490253977564353738e-01,-3.032118416359762536e-01
7.099999999999999645e+00,1.642705897317394972e+09,-3.466051046367416566e-01,3.389258568386830928e-01,0.000000000000000000e+00,4.519011424515774755e-01,2.058051930826406917e+00,-8.537059769114524466e-01,-2.585816326865410519e-01
7.116666666666666252e+00,1.642705897334353209e+09,-3.437196667151698470e-01,3.870004464611922490e-01,0.000000000000000000e+00,5.160005952815897023e-01,2.119260874319303767e+00,-8.576337893012515590e-01,-2.128827982837336319e-01
7.133333333333332860e+00,1.642705897353299141e+09,-3.406597862517435904e-01,4.591123308949532356e-01,0.000000000000000000e+00,6.121497745266043511e-01,2.161578684416329832e+00,-8.607904613103083413e-01,-1.660479426861554697e-01
7.149999999999999467e+00,1.642705897370228052e+09,-3.374512958460120227e-01,4.831496257062087296e-01,0.000000000000000000e+00,6.441995009416116025e-01,2.184761193558570458e+00,-8.631664992234797662e-01,-1.192067244519043334e-01
7.166666666666666963e+00,1.642705897387183428e+09,-3.341204539146511721e-01,5.071869205174623918e-01,0.000000000000000000e+00,6.762492273566165224e-01,2.188735572835291077e+00,-8.647644509121132916e-01,-7.267673120739159831e-02
7.183333333333333570e+00,1.642705897403140068e+09,-3.306937094542987676e-01,5.312242153287161095e-01,0.000000000000000000e+00,7.082989537716214423e-01,2.173600475514655184e+00,-8.655920998832630220e-01,-2.676867072218574312e-02
7.200000000000000178e+00,1.642705897420096874e+09,-3.271974678652078694e-01,5.552615101399697162e-01,0.000000000000000000e+00,7.403486801866263622e-01,2.139624591129098530e+00,-8.656623280801647446e-01,1.821632582920039434e-02
7.216666666666666785e+00,1.642705897437048912e+09,-3.236578598155702702e-01,5.792988049512252102e-01,0.000000000000000000e+00,7.723984066016336136e-01,2.087243626553538789e+00,-8.649929345265237046e-01,6.198930613397210521e-02
7.233333333333333393e+00,1.642705897455998182e+09,-3.201005150927654364e-01,6.033360997624789279e-01,0.000000000000000000e+00,8.044481330166385336e-01,2.017055745536975753e+00,-8.636064115890120796e-01,1.042759806181181026e-01
7.250000000000000000e+00,1.642705897471956968e+09,-3.165503433383450305e-01,6.273733945737325346e-01,0.000000000000000000e+00,8.364978594316434535e-01,1.929815512851878356e+00,-8.615296810213265433e-01,1.448190651741927681e-01
7.266666666666666607e+00,1.642705897489910126e+09,-3.130313234986958348e-01,6.514106893849862523e-01,0.000000000000000000e+00,8.685475858466483734e-01,1.826426403467988013e+00,-8.587937923209981728e-01,1.833804613547473372e-01
7.283333333333333215e+00,1.642705897505869865e+09,-3.095663037436627851e-01,6.754479841962417463e-01,0.000000000000000000e+00,9.005973122616556248e-01,1.707931950800312570e+00,-8.554335862733832840e-01,2.197432542237416908e-01
7.299999999999999822e+00,1.642705897522854567e+09,-3.061768135114742995e-01,6.754479841962417463e-01,0.000000000000000000e+00,9.005973122616556248e-01,1.575505620991490385e+00,-8.514906469157970115e-01,2.533162082859509168e-01
7.316666666666666430e+00,1.642705897539778709e+09,-3.028828892310692078e-01,7.235225738187490707e-01,0.000000000000000000e+00,9.646967650916654646e-01,1.430439512242917655e+00,-8.470061919540252671e-01,2.847311214252069012e-01
7.333333333333333037e+00,1.642705897557730198e+09,-2.997029151530778979e-01,7.235225738187490707e-01,0.000000000000000000e+00,9.646967650916654646e-01,1.274131989288650457e+00,-8.420240834231405014e-01,3.130432556127788479e-01
7.349999999999999645e+00,1.642705897574684143e+09,-2.966534805893605298e-01,7.475598686300027884e-01,0.000000000000000000e+00,9.967464915066702735e-01,1.108074373105698118e+00,-8.365936323928824248e-01,3.385400419447824327e-01
7.366666666666666252e+00,1.642705897592638016e+09,-2.937492547192422365e-01,7.235225738187490707e-01,0.000000000000000000e+00,9.646967650916654646e-01,9.338368147765028215e-01,-8.307691423742571413e-01,3.603382084027447196e-01
7.383333333333332860e+00,1.642705897607595444e+09,-2.910028799694500123e-01,7.235225738187490707e-01,0.000000000000000000e+00,9.646967650916654646e-01,7.530534899793639436e-01,-8.246093302379869927e-01,3.787879973297764713e-01
7.399999999999999467e+00,1.642705897624553204e+09,-2.884248848156580336e-01,7.475598686300027884e-01,0.000000000000000000e+00,9.967464915066702735e-01,5.674072568090983149e-01,-8.181668914208565235e-01,3.942616772699643612e-01
7.416666666666666963e+00,1.642705897640509844e+09,-2.860236166876203301e-01,7.475598686300027884e-01,0.000000000000000000e+00,9.967464915066702735e-01,3.786139244620946309e-01,-8.114947713997167078e-01,4.063591204670261581e-01
7.433333333333333570e+00,1.642705897659457445e+09,-2.838051954886015582e-01,7.475598686300027884e-01,0.000000000000000000e+00,9.967464915066702735e-01,1.884062837137362445e-01,-8.046489698044314576e-01,4.151127547441365584e-01
7.450000000000000178e+00,1.642705897675412416e+09,-2.817734880645213491e-01,7.475598686300027884e-01,0.000000000000000000e+00,9.967464915066702735e-01,-1.481947961076923725e-03,-7.976847108181696067e-01,4.205831277690234571e-01
7.466666666666666785e+00,1.642705897693396568e+09,-2.799301037803506587e-01,7.715971634412581714e-01,0.000000000000000000e+00,1.028796217921677636e+00,-1.893321133384531230e-01,-7.906526604342318798e-01,4.232554948867991440e-01
7.483333333333333393e+00,1.642705897709346056e+09,-2.782744111823337585e-01,7.715971634412581714e-01,0.000000000000000000e+00,1.028796217921677636e+00,-3.734563822351997242e-01,-7.836018710429036860e-01,4.228403851822385429e-01
7.500000000000000000e+00,1.642705897726302147e+09,-2.768035755459395952e-01,7.715971634412581714e-01,0.000000000000000000e+00,1.028796217921677636e+00,-5.522131484381888056e-01,-7.765826327852344280e-01,4.194775471746203799e-01
7.516666666666666607e+00,1.642705897744253397e+09,-2.755126169325932683e-01,7.715971634412581714e-01,0.000000000000000000e+00,1.028796217921677636e+00,-7.240219110569329208e-01,-7.696427076628490349e-01,4.133305429253070762e-01
7.533333333333333215e+00,1.642705897762213230e+09,-2.743944882046001621e-01,7.715971634412581714e-01,0.000000000000000000e+00,1.028796217921677636e+00,-8.873774999754415749e-01,-7.628269463394425909e-01,4.045851093263309606e-01
7.549999999999999822e+00,1.642705897778161764e+09,-2.734401722786719557e-01,7.956344582525118891e-01,0.000000000000000000e+00,1.060845944336682445e+00,-1.040863511828112875e+00,-7.561736138404222540e-01,3.938446259343839628e-01
7.566666666666666430e+00,1.642705897796118975e+09,-2.726387977355028136e-01,7.956344582525118891e-01,0.000000000000000000e+00,1.060845944336682445e+00,-1.183164830959439584e+00,-7.497174606462118085e-01,3.809296331950580705e-01
7.583333333333333037e+00,1.642705897813076258e+09,-2.719777717471882350e-01,7.956344582525118891e-01,0.000000000000000000e+00,1.060845944336682445e+00,-1.313079119069661793e+00,-7.434927173320460270e-01,3.660808122006064536e-01
7.599999999999999645e+00,1.642705897830031872e+09,-2.714429291372584818e-01,7.956344582525118891e-01,0.000000000000000000e+00,1.060845944336682445e+00,-1.429527167605112670e+00,-7.375294873037908649e-01,3.495527036831412304e-01
7.616666666666666252e+00,1.642705897844990730e+09,-2.710186962508885355e-01,7.956344582525118891e-01,0.000000000000000000e+00,1.060845944336682445e+00,-1.531562018319544416e+00,-7.318535359847243571e-01,3.316112930296242212e-01
7.633333333333332860e+00,1.642705897863948584e+09,-2.706882681865397933e-01,7.715971634412581714e-01,0.000000000000000000e+00,1.028796217921677636e+00,-1.618376769698937734e+00,-7.264894410398899938e-01,3.121342046471618503e-01
7.649999999999999467e+00,1.642705897881860018e+09,-2.704337978259592212e-01,7.715971634412581714e-01,0.000000000000000000e+00,1.028796217921677636e+00,-1.689310999984627637e+00,-7.214570715208785678e-01,2.918066045190942925e-01
7.666666666666666963e+00,1.642705897898849726e+09,-2.702365949980253812e-01,7.956344582525118891e-01,0.000000000000000000e+00,1.060845944336682445e+00,-1.743855751219580696e+00,-7.167649013841659311e-01,2.713107461662638831e-01
7.683333333333333570e+00,1.642705897915792942e+09,-2.700773340241913734e-01,7.715971634412581714e-01,0.000000000000000000e+00,1.028796217921677636e+00,-1.781657032943810837e+00,-7.124200391635313601e-01,2.501315527872534639e-01
7.700000000000000178e+00,1.642705897932755947e+09,-2.699362678200203924e-01,7.956344582525118891e-01,0.000000000000000000e+00,1.060845944336682445e+00,-1.802517818738631483e+00,-7.084247994774459656e-01,2.293549237597327928e-01
7.716666666666666785e+00,1.642705897949711800e+09,-2.697934466690586897e-01,7.715971634412581714e-01,0.000000000000000000e+00,1.028796217921677636e+00,-1.806398523619727747e+00,-7.047768233114988234e-01,2.084602582574778817e-01
7.733333333333333393e+00,1.642705897965638399e+09,-2.696289397425972179e-01,7.956344582525118891e-01,0.000000000000000000e+00,1.060845944336682445e+00,-1.793415965161944792e+00,-7.014690923883589724e-01,1.885228355525141175e-01
7.750000000000000000e+00,1.642705897980597496e+09,-2.694230574120626831e-01,7.715971634412581714e-01,0.000000000000000000e+00,1.028796217921677636e+00,-1.763840826056314981e+00,-6.984901331870457808e-01,1.690064819742833069e-01
7.766666666666666607e+00,1.642705898001544476e+09,-2.691565723900810614e-01,7.715971634412581714e-01,0.000000000000000000e+00,1.028796217921677636e+00,-1.718093650407178874e+00,-6.958274323141482309e-01,1.505688396519537786e-01
7.783333333333333215e+00,1.642705898016502142e+09,-2.688109377417708390e-01,7.715971634412581714e-01,0.000000000000000000e+00,1.028796217921677636e+00,-1.656739420330787471e+00,-6.934610045867266592e-01,1.334500409763733630e-01
7.799999999999999822e+00,1.642705898034490585e+09,-2.683684998295547408e-01,7.715971634412581714e-01,0.000000000000000000e+00,1.028796217921677636e+00,-1.580480773175935383e+00,-6.913669928311539925e-01,1.178746357252227484e-01
7.816666666666666430e+00,1.642705898051432133e+09,-2.678127042924897117e-01,7.715971634412581714e-01,0.000000000000000000e+00,1.028796217921677636e+00,-1.490149932818515044e+00,-6.895179433396129154e-01,1.040497067440606938e-01
7.833333333333333037e+00,1.642705898066401005e+09,-2.671282932146195610e-01,7.956344582525118891e-01,0.000000000000000000e+00,1.060845944336682445e+00,-1.386699440855503784e+00,-6.878797911482800176e-01,9.256047150934464118e-02
7.849999999999999645e+00,1.642705898084352016e+09,-2.663014917056172881e-01,7.715971634412581714e-01,0.000000000000000000e+00,1.028796217921677636e+00,-1.271191785020300946e+00,-6.864189053800500151e-01,8.277300871479721656e-02
7.866666666666666252e+00,1.642705898103292465e+09,-2.653201822005956112e-01,7.715971634412581714e-01,0.000000000000000000e+00,1.028796217921677636e+00,-1.144788032647605647e+00,-6.851023331931347382e-01,7.523658870777610863e-02
7.883333333333332860e+00,1.642705898120249033e+09,-2.641740648836263805e-01,7.715971634412581714e-01,0.000000000000000000e+00,1.028796217921677636e+00,-1.008735586430356657e+00,-6.838915354404868641e-01,7.007348390530990234e-02
7.899999999999999467e+00,1.642705898135181189e+09,-2.628548027505725471e-01,7.715971634412581714e-01,0.000000000000000000e+00,1.028796217921677636e+00,-8.643551879435136254e-01,-6.827461344112545349e-01,6.738211580103996290e-02
7.916666666666666963e+00,1.642705898152138233e+09,-2.613561499503331276e-01,7.715971634412581714e-01,0.000000000000000000e+00,1.028796217921677636e+00,-7.130273013779699909e-01,-6.816243163007872363e-01,6.723646205829408862e-02
7.933333333333333570e+00,1.642705898169090509e+09,-2.596740621785889047e-01,7.956344582525118891e-01,0.000000000000000000e+00,1.060845944336682445e+00,-5.561780155689205474e-01,-6.804799214901589011e-01,7.008300795905893221e-02
7.950000000000000178e+00,1.642705898185053587e+09,-2.578067880435215287e-01,7.956344582525118891e-01,0.000000000000000000e+00,1.060845944336682445e+00,-3.952646066600992159e-01,-6.792662519738617011e-01,7.554216930263524254e-02
7.966666666666666785e+00,1.642705898204002142e+09,-2.557549404776188195e-01,7.715971634412581714e-01,0.000000000000000000e+00,1.028796217921677636e+00,-2.317609065812694102e-01,-6.779430872877749703e-01,8.321627556421500038e-02
7.983333333333333393e+00,1.642705898221951962e+09,-2.535215474323153084e-01,7.956344582525118891e-01,0.000000000000000000e+00,1.060845944336682445e+00,-6.714262390360803412e-02,-6.764670235795514630e-01,9.388174242847321938e-02
8.000000000000000000e+00,1.642705898240903139e+09,-2.511120812615602049e-01,7.715971634412581714e-01,0.000000000000000000e+00,1.028796217921677636e+00,9.712723643427767506e-02,-6.747953062179394834e-01,1.066887650647868474e-01
8.016666666666665719e+00,1.642705898254863977e+09,-2.485344663750894412e-01,7.956344582525118891e-01,0.000000000000000000e+00,1.060845944336682445e+00,2.596127095641094229e-01,-6.728861447736349533e-01,1.223670564174260122e-01
8.033333333333333215e+00,1.642705898270861149e+09,-2.457990649208325329e-01,7.715971634412581714e-01,0.000000000000000000e+00,1.028796217921677636e+00,4.189188212901164832e-01,-6.706991605703902515e-01,1.400220052930375436e-01
8.050000000000000711e+00,1.642705898287812471e+09,-2.429186404370060892e-01,7.956344582525118891e-01,0.000000000000000000e+00,1.060845944336682445e+00,5.737050152288636351e-01,-6.681956665400727857e-01,1.603408358207429885e-01
8.066666666666666430e+00,1.642705898305760384e+09,-2.399082995966635157e-01,7.956344582525118891e-01,0.000000000000000000e+00,1.060845944336682445e+00,7.226979245919906703e-01,-6.653357528063201798e-01,1.827864618010653919e-01
8.083333333333333925e+00,1.642705898321738243e+09,-2.367854123492369178e-01,7.956344582525118891e-01,0.000000000000000000e+00,1.060845944336682445e+00,8.647033637524881300e-01,-6.620852316451755204e-01,2.072082376733373754e-01
8.099999999999999645e+00,1.642705898338671923e+09,-2.335695109435287631e-01,7.715971634412581714e-01,0.000000000000000000e+00,1.028796217921677636e+00,9.986174229974076333e-01,-6.584158778004999268e-01,2.330424602693062508e-01
8.116666666666667140e+00,1.642705898356625080e+09,-2.302821684931548318e-01,7.715971634412581714e-01,0.000000000000000000e+00,1.028796217921677636e+00,1.123436559278480296e+00,-6.543022817335560903e-01,2.605127595810247110e-01
8.133333333333332860e+00,1.642705898373579264e+09,-2.269468579172678191e-01,7.715971634412581714e-01,0.000000000000000000e+00,1.028796217921677636e+00,1.238266586229961552e+00,-6.497187811755786857e-01,2.894269881842342906e-01
8.150000000000000355e+00,1.642705898390536070e+09,-2.235887922550316986e-01,7.956344582525118891e-01,0.000000000000000000e+00,1.060845944336682445e+00,1.342330478123288318e+00,-6.446396770554033706e-01,3.199806330036556457e-01
8.166666666666666075e+00,1.642705898405493021e+09,-2.202347475104715624e-01,7.715971634412581714e-01,0.000000000000000000e+00,1.028796217921677636e+00,1.434974914658135869e+00,-6.390460895535909902e-01,3.511632468034998622e-01
8.183333333333333570e+00,1.642705898423445940e+09,-2.169128693336985769e-01,7.956344582525118891e-01,0.000000000000000000e+00,1.060845944336682445e+00,1.515675506423017627e+00,-6.329226323308034807e-01,3.835616223253044410e-01
8.199999999999999289e+00,1.642705898441419363e+09,-2.136524649838659196e-01,7.715971634412581714e-01,0.000000000000000000e+00,1.028796217921677636e+00,1.584040654368404244e+00,-6.262575544772521763e-01,4.161571747685808842e-01
8.216666666666666785e+00,1.642705898458317995e+09,-2.104837821474331572e-01,7.956344582525118891e-01,0.000000000000000000e+00,1.060845944336682445e+00,1.639814010583016568e+00,-6.190426960433377257e-01,4.495331241485919782e-01
8.233333333333332504e+00,1.642705898475307465e+09,-2.074377763013572074e-01,7.956344582525118891e-01,0.000000000000000000e+00,1.060845944336682445e+00,1.682875521911620265e+00,-6.112702340117739386e-01,4.830691617864304455e-01
8.250000000000000000e+00,1.642705898492252588e+09,-2.045458684136534089e-01,7.956344582525118891e-01,0.000000000000000000e+00,1.060845944336682445e+00,1.713241052356193173e+00,-6.029392759316151151e-01,5.165527955497499768e-01
8.266666666666665719e+00,1.642705898509213448e+09,-2.018396948626965393e-01,7.715971634412581714e-01,0.000000000000000000e+00,1.028796217921677636e+00,1.731060594617974679e+00,-5.940557408640216863e-01,5.493802231164770511e-01
8.283333333333333215e+00,1.642705898526183367e+09,-1.993508515306571804e-01,7.715971634412581714e-01,0.000000000000000000e+00,1.028796217921677636e+00,1.736615095421255806e+00,-5.846288489539024358e-01,5.817568688540663002e-01
8.300000000000000711e+00,1.642705898542151451e+09,-1.971106340852855354e-01,7.956344582525118891e-01,0.000000000000000000e+00,1.060845944336682445e+00,1.730311933268097846e+00,-5.746643687127027667e-01,6.138914951382100638e-01
8.316666666666666430e+00,1.642705898560092211e+09,-1.951497765070099588e-01,9.198986635869236261e-01,5.932060005826620408e-01,1.028796217921677636e+00,1.712679100866505877e+00,-5.641540218389484718e-01,6.472574443386795995e-01
8.333333333333333925e+00,1.642705898577026606e+09,-1.934981899449645382e-01,9.544218331985312442e-01,6.351494997840776424e-01,1.060845944336682445e+00,1.684358157517197530e+00,-5.530913276788191890e-01,6.801744166904790667e-01
8.349999999999999645e+00,1.642705898593980789e+09,-1.921847039955719705e-01,9.494873038807175591e-01,6.154113825128232351e-01,1.060845944336682445e+00,1.646096029105716507e+00,-5.414905301653918368e-01,7.118333413934923026e-01
8.366666666666667140e+00,1.642705898612931967e+09,-1.912368124907440070e-01,9.553470574456213171e-01,6.388503967724379340e-01,1.060845944336682445e+00,1.598735744904979938e+00,-5.293721887273901139e-01,7.422830466613339340e-01
8.383333333333332860e+00,1.642705898628886938e+09,-1.906804258595607149e-01,9.331602111285477452e-01,6.462521907491581841e-01,1.028796217921677636e+00,1.543206211031207697e+00,-5.167612921552864336e-01,7.709449237918928333e-01
8.400000000000000355e+00,1.642705898643847704e+09,-1.905396320875743787e-01,9.510293442925343843e-01,6.215795441600903137e-01,1.060845944336682445e+00,1.480511130011457954e+00,-5.036828478060620951e-01,7.983921540144017781e-01
8.416666666666666075e+00,1.642705898660809994e+09,-1.908364682419984582e-01,9.337770272932744975e-01,6.487194554080649711e-01,1.028796217921677636e+00,1.411717184412668136e+00,-4.901626253976543723e-01,8.239635018010931233e-01
8.433333333333333570e+00,1.642705898678762913e+09,-1.915907044593231079e-01,9.377863323639979987e-01,6.647566756909590868e-01,1.028796217921677636e+00,1.337941609772802520e+00,-4.762293819387483640e-01,8.479590573778004181e-01
8.449999999999999289e+00,1.642705898694720268e+09,-1.928196422049118230e-01,9.556554655279846378e-01,6.400840291018911055e-01,1.060845944336682445e+00,1.260339288085305265e+00,-4.619077772094772327e-01,8.705706985420841315e-01
8.466666666666666785e+00,1.642705898711673737e+09,-1.945379285125007351e-01,9.202070716692870578e-01,5.944396329121156564e-01,1.028796217921677636e+00,1.180089497764555517e+00,-4.472284152162238069e-01,8.908962793727280838e-01
8.483333333333332504e+00,1.642705898730641127e+09,-1.967573877960653583e-01,9.346837159272768369e-01,5.561970306990599022e-01,1.060845944336682445e+00,1.098382459313861359e+00,-4.322223868174177586e-01,9.097746872279410812e-01
8.500000000000000000e+00,1.642705898746580601e+09,-1.994868726980324192e-01,9.239079686576472383e-01,6.092432208655561565e-01,1.028796217921677636e+00,1.016405817796102173e+00,-4.169171367890243673e-01,9.268080003071101913e-01
8.516666666666665719e+00,1.642705898763541222e+09,-2.027321352973788238e-01,9.491788957983544606e-01,6.141777501833700637e-01,1.060845944336682445e+00,9.353312036554961573e-01,-4.013380584921059646e-01,9.426374236677559360e-01
8.533333333333333215e+00,1.642705898780489922e+09,-2.064957198497449353e-01,9.353005320920035892e-01,5.586642953579666893e-01,1.060845944336682445e+00,8.563010124487441255e-01,-3.855101754163264283e-01,9.566695663343222078e-01
8.550000000000000711e+00,1.642705898796447515e+09,-2.107768780705768230e-01,9.371509805861837350e-01,5.660660893346873834e-01,1.060845944336682445e+00,7.804155416313900417e-01,-3.694605871768754657e-01,9.692460867984974415e-01
8.566666666666666430e+00,1.642705898813403845e+09,-2.155715078026566034e-01,7.715971634412581714e-01,0.000000000000000000e+00,1.028796217921677636e+00,7.087206187296652971e-01,-3.532358962526589430e-01,9.776933589104629396e-01
8.583333333333333925e+00,1.642705898830357313e+09,-2.208721157325277684e-01,7.715971634412581714e-01,0.000000000000000000e+00,1.028796217921677636e+00,6.421958500539117765e-01,-3.368807726355921295e-01,9.849014521849823733e-01
8.599999999999999645e+00,1.642705898847311020e+09,-2.266678046376662814e-01,9.078707483747530116e-01,5.450943397339793606e-01,1.028796217921677636e+00,5.817436126251247508e-01,-3.203960372337063545e-01,9.932436227997611944e-01
8.616666666666667140e+00,1.642705898864287853e+09,-2.329442854591868561e-01,7.956344582525118891e-01,0.000000000000000000e+00,1.060845944336682445e+00,5.281789042594557948e-01,-3.037963183963164893e-01,9.987074600042374906e-01
8.633333333333332860e+00,1.642705898881241083e+09,-2.396839143048458687e-01,7.715971634412581714e-01,0.000000000000000000e+00,1.028796217921677636e+00,4.822201578636893249e-01,-2.871159581615772005e-01,1.002924055124580605e+00
8.650000000000000355e+00,1.642705898898175001e+09,-2.468657542956678719e-01,7.715971634412581714e-01,0.000000000000000000e+00,1.028796217921677636e+00,4.444811160289248164e-01,-2.703711162750097596e-01,1.006447184562516250e+00
8.666666666666666075e+00,1.642705898915131092e+09,-2.544656619780387152e-01,7.715971634412581714e-01,0.000000000000000000e+00,1.028796217921677636e+00,4.154638510669086404e-01,-2.535720500599879523e-01,1.009432468589297249e+00
8.683333333333333570e+00,1.642705898933084488e+09,-2.624563978332820069e-01,7.956344582525118891e-01,0.000000000000000000e+00,1.060845944336682445e+00,3.955530038297796480e-01,-2.367230714931078950e-01,1.012436614390455292e+00
8.699999999999999289e+00,1.642705898950028181e+09,-2.708077602297837005e-01,7.715971634412581714e-01,0.000000000000000000e+00,1.028796217921677636e+00,3.850113021017385062e-01,-2.198292148319148653e-01,1.014819565488312092e+00
8.716666666666666785e+00,1.642705898966983795e+09,-2.794867419804255015e-01,7.956344582525118891e-01,0.000000000000000000e+00,1.060845944336682445e+00,3.839764061825547969e-01,-2.028927943506730336e-01,1.017543326080988075e+00
8.733333333333332504e+00,1.642705898984934807e+09,-2.884577084915677103e-01,7.956344582525118891e-01,0.000000000000000000e+00,1.060845944336682445e+00,3.924591156258867564e-01,-1.859101824306644557e-01,1.020362273725619495e+00
8.750000000000000000e+00,1.642705899000891209e+09,-2.976825963207215819e-01,7.715971634412581714e-01,0.000000000000000000e+00,1.028796217921677636e+00,4.103429570909002955e-01,-1.688818273224138578e-01,1.023032920626238296e+00
8.766666666666665719e+00,1.642705899018821239e+09,-3.071211307995363460e-01,7.715971634412581714e-01,0.000000000000000000e+00,1.028796217921677636e+00,4.373851590524517885e-01,-1.518055952211405657e-01,1.026106393899860247e+00
