# 
# 
# 
# 
# 
# 
# 
# 
# 
# 
# time,realtime,ref,inp,dis,state...
0.000000000000000000e+00,1.642706042698983192e+09,0.000000000000000000e+00,1.204268470043831529e+00,0.000000000000000000e+00,1.204268470043831529e+00
1.666666666666666644e-02,1.642706042702972412e+09,0.000000000000000000e+00,1.204268470043831529e+00,1.043784412493711455e+00,1.204268470043831529e+00
3.333333333333333287e-02,1.642706042705964804e+09,0.000000000000000000e+00,1.204268470043831529e+00,0.000000000000000000e+00,1.204268470043831529e+00
5.000000000000000278e-02,1.642706042723917007e+09,0.000000000000000000e+00,1.204268470043831529e+00,0.000000000000000000e+00,1.204268470043831529e+00
6.666666666666666574e-02,1.642706042740872860e+09,0.000000000000000000e+00,1.204268470043831529e+00,0.000000000000000000e+00,1.204268470043831529e+00
8.333333333333332871e-02,1.642706042755831242e+09,0.000000000000000000e+00,1.204268470043831529e+00,0.000000000000000000e+00,1.204268470043831529e+00
1.000000000000000056e-01,1.642706042774780512e+09,0.000000000000000000e+00,1.204268470043831529e+00,0.000000000000000000e+00,1.204268470043831529e+00
1.166666666666666685e-01,1.642706042790738106e+09,0.000000000000000000e+00,1.204268470043831529e+00,0.000000000000000000e+00,1.204268470043831529e+00
1.333333333333333315e-01,1.642706042805697918e+09,0.000000000000000000e+00,1.204268470043831529e+00,0.000000000000000000e+00,1.204268470043831529e+00
1.499999999999999944e-01,1.642706042824647188e+09,0.000000000000000000e+00,1.204268470043831529e+00,0.000000000000000000e+00,1.204268470043831529e+00
1.666666666666666574e-01,1.642706042839607000e+09,0.000000000000000000e+00,1.204268470043831529e+00,0.000000000000000000e+00,1.204268470043831529e+00
1.833333333333333204e-01,1.642706042857558966e+09,0.000000000000000000e+00,1.204268470043831529e+00,0.000000000000000000e+00,1.204268470043831529e+00
2.000000000000000111e-01,1.642706042874513865e+09,0.000000000000000000e+00,1.204268470043831529e+00,0.000000000000000000e+00,1.204268470043831529e+00
2.166666666666666741e-01,1.642706042892465830e+09,0.000000000000000000e+00,1.204268470043831529e+00,0.000000000000000000e+00,1.204268470043831529e+00
2.333333333333333370e-01,1.642706042908422947e+09,0.000000000000000000e+00,1.204268470043831529e+00,0.000000000000000000e+00,1.204268470043831529e+00
2.500000000000000000e-01,1.642706042926374912e+09,0.000000000000000000e+00,1.204268470043831529e+00,0.000000000000000000e+00,1.204268470043831529e+00
2.666666666666666630e-01,1.642706042942332029e+09,0.000000000000000000e+00,1.204268470043831529e+00,0.000000000000000000e+00,1.204268470043831529e+00
2.833333333333333259e-01,1.642706042958290100e+09,0.000000000000000000e+00,1.204268470043831529e+00,0.000000000000000000e+00,1.204268470043831529e+00
2.999999999999999889e-01,1.642706042976241589e+09,0.000000000000000000e+00,1.204268470043831529e+00,0.000000000000000000e+00,1.204268470043831529e+00
3.166666666666666519e-01,1.642706042993196487e+09,0.000000000000000000e+00,1.204268470043831529e+00,0.000000000000000000e+00,1.204268470043831529e+00
3.333333333333333148e-01,1.642706043009154081e+09,0.000000000000000000e+00,1.204268470043831529e+00,0.000000000000000000e+00,1.204268470043831529e+00
3.499999999999999778e-01,1.642706043028106689e+09,0.000000000000000000e+00,1.204268470043831529e+00,0.000000000000000000e+00,1.204268470043831529e+00
3.666666666666666408e-01,1.642706043044062853e+09,0.000000000000000000e+00,1.204268470043831529e+00,0.000000000000000000e+00,1.204268470043831529e+00
3.833333333333333037e-01,1.642706043063012123e+09,0.000000000000000000e+00,1.204268470043831529e+00,0.000000000000000000e+00,1.204268470043831529e+00
4.000000000000000222e-01,1.642706043078969240e+09,0.000000000000000000e+00,1.204268470043831529e+00,0.000000000000000000e+00,1.204268470043831529e+00
4.166666666666666852e-01,1.642706043094927311e+09,0.000000000000000000e+00,1.204268470043831529e+00,0.000000000000000000e+00,1.204268470043831529e+00
4.333333333333333481e-01,1.642706043111883402e+09,0.000000000000000000e+00,1.204268470043831529e+00,0.000000000000000000e+00,1.204268470043831529e+00
4.500000000000000111e-01,1.642706043127838850e+09,0.000000000000000000e+00,1.204268470043831529e+00,0.000000000000000000e+00,1.204268470043831529e+00
4.666666666666666741e-01,1.642706043148782015e+09,0.000000000000000000e+00,1.180231175232577812e+00,0.000000000000000000e+00,1.180231175232577812e+00
4.833333333333333370e-01,1.642706043164741993e+09,0.000000000000000000e+00,1.204268470043831529e+00,0.000000000000000000e+00,1.204268470043831529e+00
5.000000000000000000e-01,1.642706043179699898e+09,0.000000000000000000e+00,1.180231175232577812e+00,0.000000000000000000e+00,1.180231175232577812e+00
5.166666666666666075e-01,1.642706043198649406e+09,0.000000000000000000e+00,1.204268470043831529e+00,0.000000000000000000e+00,1.204268470043831529e+00
5.333333333333333259e-01,1.642706043215606689e+09,0.000000000000000000e+00,1.180231175232577812e+00,0.000000000000000000e+00,1.180231175232577812e+00
5.500000000000000444e-01,1.642706043231561422e+09,0.000000000000000000e+00,1.204268470043831529e+00,0.000000000000000000e+00,1.204268470043831529e+00
5.666666666666666519e-01,1.642706043248517275e+09,0.000000000000000000e+00,1.180231175232577812e+00,0.000000000000000000e+00,1.180231175232577812e+00
5.833333333333333703e-01,1.642706043265500069e+09,0.000000000000000000e+00,1.180231175232577812e+00,0.000000000000000000e+00,1.180231175232577812e+00
5.999999999999999778e-01,1.642706043282454967e+09,0.000000000000000000e+00,1.180231175232577812e+00,0.000000000000000000e+00,1.180231175232577812e+00
6.166666666666666963e-01,1.642706043298379898e+09,0.000000000000000000e+00,1.180231175232577812e+00,0.000000000000000000e+00,1.180231175232577812e+00
6.333333333333333037e-01,1.642706043315369606e+09,0.000000000000000000e+00,1.180231175232577812e+00,0.000000000000000000e+00,1.180231175232577812e+00
6.500000000000000222e-01,1.642706043333321095e+09,0.000000000000000000e+00,1.204268470043831529e+00,0.000000000000000000e+00,1.204268470043831529e+00
6.666666666666666297e-01,1.642706043350266933e+09,0.000000000000000000e+00,1.204268470043831529e+00,0.000000000000000000e+00,1.204268470043831529e+00
6.833333333333333481e-01,1.642706043367220640e+09,0.000000000000000000e+00,1.180231175232577812e+00,0.000000000000000000e+00,1.180231175232577812e+00
6.999999999999999556e-01,1.642706043384176493e+09,0.000000000000000000e+00,1.180231175232577812e+00,0.000000000000000000e+00,1.180231175232577812e+00
7.166666666666666741e-01,1.642706043401130438e+09,0.000000000000000000e+00,1.180231175232577812e+00,0.000000000000000000e+00,1.180231175232577812e+00
7.333333333333332815e-01,1.642706043420079708e+09,0.000000000000000000e+00,1.180231175232577812e+00,0.000000000000000000e+00,1.180231175232577812e+00
7.500000000000000000e-01,1.642706043437056541e+09,0.000000000000000000e+00,1.204268470043831529e+00,0.000000000000000000e+00,1.204268470043831529e+00
7.666666666666666075e-01,1.642706043454987526e+09,0.000000000000000000e+00,1.204268470043831529e+00,0.000000000000000000e+00,1.204268470043831529e+00
7.833333333333333259e-01,1.642706043472938299e+09,0.000000000000000000e+00,1.204268470043831529e+00,0.000000000000000000e+00,1.204268470043831529e+00
8.000000000000000444e-01,1.642706043488894939e+09,0.000000000000000000e+00,1.204268470043831529e+00,0.000000000000000000e+00,1.204268470043831529e+00
8.166666666666666519e-01,1.642706043504851580e+09,0.000000000000000000e+00,1.204268470043831529e+00,0.000000000000000000e+00,1.204268470043831529e+00
8.333333333333333703e-01,1.642706043522807598e+09,0.000000000000000000e+00,1.204268470043831529e+00,0.000000000000000000e+00,1.204268470043831529e+00
8.499999999999999778e-01,1.642706043539760590e+09,0.000000000000000000e+00,1.204268470043831529e+00,0.000000000000000000e+00,1.204268470043831529e+00
8.666666666666666963e-01,1.642706043556715965e+09,0.000000000000000000e+00,1.204268470043831529e+00,0.000000000000000000e+00,1.204268470043831529e+00
8.833333333333333037e-01,1.642706043573668242e+09,0.000000000000000000e+00,1.180231175232577812e+00,0.000000000000000000e+00,1.180231175232577812e+00
9.000000000000000222e-01,1.642706043590645790e+09,0.000000000000000000e+00,1.204268470043831529e+00,0.000000000000000000e+00,1.204268470043831529e+00
9.166666666666666297e-01,1.642706043608600378e+09,0.000000000000000000e+00,1.204268470043831529e+00,0.000000000000000000e+00,1.204268470043831529e+00
9.333333333333333481e-01,1.642706043625552416e+09,0.000000000000000000e+00,1.204268470043831529e+00,0.000000000000000000e+00,1.204268470043831529e+00
9.499999999999999556e-01,1.642706043644480705e+09,0.000000000000000000e+00,1.180231175232577812e+00,0.000000000000000000e+00,1.180231175232577812e+00
9.666666666666666741e-01,1.642706043659440517e+09,0.000000000000000000e+00,1.180231175232577812e+00,0.000000000000000000e+00,1.180231175232577812e+00
9.833333333333332815e-01,1.642706043676399946e+09,0.000000000000000000e+00,1.180231175232577812e+00,0.000000000000000000e+00,1.180231175232577812e+00
1.000000000000000000e+00,1.642706043698336124e+09,0.000000000000000000e+00,1.180231175232577812e+00,0.000000000000000000e+00,1.180231175232577812e+00
1.016666666666666607e+00,1.642706043715292454e+09,0.000000000000000000e+00,1.204268470043831529e+00,0.000000000000000000e+00,1.204268470043831529e+00
1.033333333333333215e+00,1.642706043732267618e+09,0.000000000000000000e+00,1.204268470043831529e+00,0.000000000000000000e+00,1.204268470043831529e+00
1.050000000000000044e+00,1.642706043749175787e+09,0.000000000000000000e+00,1.204268470043831529e+00,0.000000000000000000e+00,1.204268470043831529e+00
1.066666666666666652e+00,1.642706043766153336e+09,0.000000000000000000e+00,1.180231175232577812e+00,0.000000000000000000e+00,1.180231175232577812e+00
1.083333333333333259e+00,1.642706043785104036e+09,0.000000000000000000e+00,1.204268470043831529e+00,0.000000000000000000e+00,1.204268470043831529e+00
1.100000000000000089e+00,1.642706043798050642e+09,0.000000000000000000e+00,1.204268470043831529e+00,0.000000000000000000e+00,1.204268470043831529e+00
1.116666666666666696e+00,1.642706043816029072e+09,0.000000000000000000e+00,1.180231175232577812e+00,0.000000000000000000e+00,1.180231175232577812e+00
1.133333333333333304e+00,1.642706043832950830e+09,0.000000000000000000e+00,1.204268470043831529e+00,0.000000000000000000e+00,1.204268470043831529e+00
1.149999999999999911e+00,1.642706043849904299e+09,0.000000000000000000e+00,1.204268470043831529e+00,0.000000000000000000e+00,1.204268470043831529e+00
1.166666666666666741e+00,1.642706043866858959e+09,0.000000000000000000e+00,1.180231175232577812e+00,0.000000000000000000e+00,1.180231175232577812e+00
1.183333333333333348e+00,1.642706043884836912e+09,0.000000000000000000e+00,1.204268470043831529e+00,0.000000000000000000e+00,1.204268470043831529e+00
1.199999999999999956e+00,1.642706043901767015e+09,0.000000000000000000e+00,1.204268470043831529e+00,0.000000000000000000e+00,1.204268470043831529e+00
1.216666666666666563e+00,1.642706043921712637e+09,0.000000000000000000e+00,1.204268470043831529e+00,0.000000000000000000e+00,1.204268470043831529e+00
1.233333333333333393e+00,1.642706043937703133e+09,0.000000000000000000e+00,1.204268470043831529e+00,0.000000000000000000e+00,1.204268470043831529e+00
1.250000000000000000e+00,1.642706043953627110e+09,0.000000000000000000e+00,1.204268470043831529e+00,0.000000000000000000e+00,1.204268470043831529e+00
1.266666666666666607e+00,1.642706043973573208e+09,0.000000000000000000e+00,1.204268470043831529e+00,0.000000000000000000e+00,1.204268470043831529e+00
1.283333333333333215e+00,1.642706043987538338e+09,0.000000000000000000e+00,1.180231175232577812e+00,0.000000000000000000e+00,1.180231175232577812e+00
1.300000000000000044e+00,1.642706044005488873e+09,0.000000000000000000e+00,1.204268470043831529e+00,0.000000000000000000e+00,1.204268470043831529e+00
1.316666666666666652e+00,1.642706044020474434e+09,0.000000000000000000e+00,1.204268470043831529e+00,0.000000000000000000e+00,1.204268470043831529e+00
1.333333333333333259e+00,1.642706044037429571e+09,0.000000000000000000e+00,1.180231175232577812e+00,0.000000000000000000e+00,1.180231175232577812e+00
1.350000000000000089e+00,1.642706044054383993e+09,0.000000000000000000e+00,1.204268470043831529e+00,0.000000000000000000e+00,1.204268470043831529e+00
1.366666666666666696e+00,1.642706044073333025e+09,0.000000000000000000e+00,1.180231175232577812e+00,0.000000000000000000e+00,1.180231175232577812e+00
1.383333333333333304e+00,1.642706044090261221e+09,0.000000000000000000e+00,1.204268470043831529e+00,0.000000000000000000e+00,1.204268470043831529e+00
1.399999999999999911e+00,1.642706044107215881e+09,0.000000000000000000e+00,1.204268470043831529e+00,0.000000000000000000e+00,1.204268470043831529e+00
1.416666666666666741e+00,1.642706044124204874e+09,0.000000000000000000e+00,1.204268470043831529e+00,0.000000000000000000e+00,1.204268470043831529e+00
1.433333333333333348e+00,1.642706044141125441e+09,0.000000000000000000e+00,1.204268470043831529e+00,0.000000000000000000e+00,1.204268470043831529e+00
1.449999999999999956e+00,1.642706044157082319e+09,0.000000000000000000e+00,1.204268470043831529e+00,0.000000000000000000e+00,1.204268470043831529e+00
1.466666666666666563e+00,1.642706044177055836e+09,0.000000000000000000e+00,1.204268470043831529e+00,0.000000000000000000e+00,1.204268470043831529e+00
1.483333333333333393e+00,1.642706044192014456e+09,0.000000000000000000e+00,1.204268470043831529e+00,0.000000000000000000e+00,1.204268470043831529e+00
1.500000000000000000e+00,1.642706044209966898e+09,0.000000000000000000e+00,1.180231175232577812e+00,0.000000000000000000e+00,1.180231175232577812e+00
1.516666666666666607e+00,1.642706044229913950e+09,0.000000000000000000e+00,1.204268470043831529e+00,0.000000000000000000e+00,1.204268470043831529e+00
1.533333333333333215e+00,1.642706044247864485e+09,0.000000000000000000e+00,1.204268470043831529e+00,0.000000000000000000e+00,1.204268470043831529e+00
1.550000000000000044e+00,1.642706044263822317e+09,0.000000000000000000e+00,1.180231175232577812e+00,0.000000000000000000e+00,1.180231175232577812e+00
1.566666666666666652e+00,1.642706044278760195e+09,0.000000000000000000e+00,1.204268470043831529e+00,0.000000000000000000e+00,1.204268470043831529e+00
1.583333333333333259e+00,1.642706044294717789e+09,0.000000000000000000e+00,1.180231175232577812e+00,0.000000000000000000e+00,1.180231175232577812e+00
1.600000000000000089e+00,1.642706044312701702e+09,0.000000000000000000e+00,1.180231175232577812e+00,0.000000000000000000e+00,1.180231175232577812e+00
1.616666666666666696e+00,1.642706044328624010e+09,0.000000000000000000e+00,1.204268470043831529e+00,0.000000000000000000e+00,1.204268470043831529e+00
1.633333333333333304e+00,1.642706044346575975e+09,0.000000000000000000e+00,1.204268470043831529e+00,0.000000000000000000e+00,1.204268470043831529e+00
1.649999999999999911e+00,1.642706044362533092e+09,0.000000000000000000e+00,1.204268470043831529e+00,0.000000000000000000e+00,1.204268470043831529e+00
1.666666666666666741e+00,1.642706044382479191e+09,0.000000000000000000e+00,1.180231175232577812e+00,0.000000000000000000e+00,1.180231175232577812e+00
1.683333333333333348e+00,1.642706044396444321e+09,0.000000000000000000e+00,1.204268470043831529e+00,0.000000000000000000e+00,1.204268470043831529e+00
1.699999999999999956e+00,1.642706044415391207e+09,0.000000000000000000e+00,1.204268470043831529e+00,0.000000000000000000e+00,1.204268470043831529e+00
1.716666666666666563e+00,1.642706044432346344e+09,0.000000000000000000e+00,1.204268470043831529e+00,0.000000000000000000e+00,1.204268470043831529e+00
1.733333333333333393e+00,1.642706044449334860e+09,0.000000000000000000e+00,1.180231175232577812e+00,0.000000000000000000e+00,1.180231175232577812e+00
1.750000000000000000e+00,1.642706044466289997e+09,0.000000000000000000e+00,1.204268470043831529e+00,0.000000000000000000e+00,1.204268470043831529e+00
1.766666666666666607e+00,1.642706044482247353e+09,0.000000000000000000e+00,1.204268470043831529e+00,0.000000000000000000e+00,1.204268470043831529e+00
1.783333333333333215e+00,1.642706044499169588e+09,0.000000000000000000e+00,1.204268470043831529e+00,0.000000000000000000e+00,1.204268470043831529e+00
1.800000000000000044e+00,1.642706044517119169e+09,0.000000000000000000e+00,1.204268470043831529e+00,0.000000000000000000e+00,1.204268470043831529e+00
1.816666666666666652e+00,1.642706044533077002e+09,0.000000000000000000e+00,1.180231175232577812e+00,0.000000000000000000e+00,1.180231175232577812e+00
1.833333333333333259e+00,1.642706044551028728e+09,0.000000000000000000e+00,1.204268470043831529e+00,0.000000000000000000e+00,1.204268470043831529e+00
1.849999999999999867e+00,1.642706044567983389e+09,0.000000000000000000e+00,1.180231175232577812e+00,0.000000000000000000e+00,1.180231175232577812e+00
1.866666666666666696e+00,1.642706044583974123e+09,0.000000000000000000e+00,1.204268470043831529e+00,0.000000000000000000e+00,1.204268470043831529e+00
1.883333333333333304e+00,1.642706044600920439e+09,0.000000000000000000e+00,1.204268470043831529e+00,0.000000000000000000e+00,1.204268470043831529e+00
1.899999999999999911e+00,1.642706044620887995e+09,0.000000000000000000e+00,1.204268470043831529e+00,0.000000000000000000e+00,1.204268470043831529e+00
1.916666666666666741e+00,1.642706044638843298e+09,0.000000000000000000e+00,1.204268470043831529e+00,0.000000000000000000e+00,1.204268470043831529e+00
1.933333333333333348e+00,1.642706044654798031e+09,0.000000000000000000e+00,1.204268470043831529e+00,0.000000000000000000e+00,1.204268470043831529e+00
1.949999999999999956e+00,1.642706044671753883e+09,0.000000000000000000e+00,1.204268470043831529e+00,0.000000000000000000e+00,1.204268470043831529e+00
1.966666666666666563e+00,1.642706044687711477e+09,0.000000000000000000e+00,1.180231175232577812e+00,0.000000000000000000e+00,1.180231175232577812e+00
1.983333333333333393e+00,1.642706044705617905e+09,0.000000000000000000e+00,1.204268470043831529e+00,0.000000000000000000e+00,1.204268470043831529e+00
2.000000000000000000e+00,1.642706044726559162e+09,0.000000000000000000e+00,1.180231175232577812e+00,0.000000000000000000e+00,1.180231175232577812e+00
2.016666666666666607e+00,1.642706044744537830e+09,0.000000000000000000e+00,1.180231175232577812e+00,0.000000000000000000e+00,1.180231175232577812e+00
2.033333333333333215e+00,1.642706044759497404e+09,0.000000000000000000e+00,1.204268470043831529e+00,0.000000000000000000e+00,1.204268470043831529e+00
2.049999999999999822e+00,1.642706044779446125e+09,0.000000000000000000e+00,1.180231175232577812e+00,0.000000000000000000e+00,1.180231175232577812e+00
2.066666666666666430e+00,1.642706044793412447e+09,0.000000000000000000e+00,1.204268470043831529e+00,0.000000000000000000e+00,1.204268470043831529e+00
2.083333333333333481e+00,1.642706044811357498e+09,0.000000000000000000e+00,1.180231175232577812e+00,0.000000000000000000e+00,1.180231175232577812e+00
2.100000000000000089e+00,1.642706044827314615e+09,0.000000000000000000e+00,1.180231175232577812e+00,0.000000000000000000e+00,1.180231175232577812e+00
2.116666666666666696e+00,1.642706044845266342e+09,0.000000000000000000e+00,1.180231175232577812e+00,0.000000000000000000e+00,1.180231175232577812e+00
2.133333333333333304e+00,1.642706044863193750e+09,0.000000000000000000e+00,1.180231175232577812e+00,0.000000000000000000e+00,1.180231175232577812e+00
2.149999999999999911e+00,1.642706044881173134e+09,0.000000000000000000e+00,1.204268470043831529e+00,0.000000000000000000e+00,1.204268470043831529e+00
2.166666666666666519e+00,1.642706044898127079e+09,0.000000000000000000e+00,1.204268470043831529e+00,0.000000000000000000e+00,1.204268470043831529e+00
2.183333333333333126e+00,1.642706044915080786e+09,0.000000000000000000e+00,1.204268470043831529e+00,0.000000000000000000e+00,1.204268470043831529e+00
2.200000000000000178e+00,1.642706044932035685e+09,0.000000000000000000e+00,1.204268470043831529e+00,0.000000000000000000e+00,1.204268470043831529e+00
2.216666666666666785e+00,1.642706044947992802e+09,0.000000000000000000e+00,1.204268470043831529e+00,0.000000000000000000e+00,1.204268470043831529e+00
2.233333333333333393e+00,1.642706044965951681e+09,0.000000000000000000e+00,1.204268470043831529e+00,0.000000000000000000e+00,1.204268470043831529e+00
2.250000000000000000e+00,1.642706044982899189e+09,0.000000000000000000e+00,1.204268470043831529e+00,0.000000000000000000e+00,1.204268470043831529e+00
2.266666666666666607e+00,1.642706045000873327e+09,0.000000000000000000e+00,1.204268470043831529e+00,0.000000000000000000e+00,1.204268470043831529e+00
2.283333333333333215e+00,1.642706045016809464e+09,0.000000000000000000e+00,1.204268470043831529e+00,0.000000000000000000e+00,1.204268470043831529e+00
2.299999999999999822e+00,1.642706045033788204e+09,0.000000000000000000e+00,1.204268470043831529e+00,0.000000000000000000e+00,1.204268470043831529e+00
2.316666666666666430e+00,1.642706045052710772e+09,0.000000000000000000e+00,1.204268470043831529e+00,0.000000000000000000e+00,1.204268470043831529e+00
2.333333333333333481e+00,1.642706045068668604e+09,0.000000000000000000e+00,1.204268470043831529e+00,0.000000000000000000e+00,1.204268470043831529e+00
2.350000000000000089e+00,1.642706045084625721e+09,0.000000000000000000e+00,1.204268470043831529e+00,0.000000000000000000e+00,1.204268470043831529e+00
2.366666666666666696e+00,1.642706045102553368e+09,0.000000000000000000e+00,1.180231175232577812e+00,0.000000000000000000e+00,1.180231175232577812e+00
2.383333333333333304e+00,1.642706045118510723e+09,0.000000000000000000e+00,1.180231175232577812e+00,0.000000000000000000e+00,1.180231175232577812e+00
2.399999999999999911e+00,1.642706045136462688e+09,0.000000000000000000e+00,1.204268470043831529e+00,0.000000000000000000e+00,1.204268470043831529e+00
2.416666666666666519e+00,1.642706045153446913e+09,0.000000000000000000e+00,1.180231175232577812e+00,0.000000000000000000e+00,1.180231175232577812e+00
2.433333333333333126e+00,1.642706045170404196e+09,0.000000000000000000e+00,1.180231175232577812e+00,0.000000000000000000e+00,1.180231175232577812e+00
2.450000000000000178e+00,1.642706045190318584e+09,0.000000000000000000e+00,1.204268470043831529e+00,0.000000000000000000e+00,1.204268470043831529e+00
2.466666666666666785e+00,1.642706045205278635e+09,0.000000000000000000e+00,1.180231175232577812e+00,0.000000000000000000e+00,1.180231175232577812e+00
2.483333333333333393e+00,1.642706045220238447e+09,0.000000000000000000e+00,1.180231175232577812e+00,0.000000000000000000e+00,1.180231175232577812e+00
2.500000000000000000e+00,1.642706045241182566e+09,0.000000000000000000e+00,1.204268470043831529e+00,0.000000000000000000e+00,1.204268470043831529e+00
2.516666666666666607e+00,1.642706045256142616e+09,0.000000000000000000e+00,1.180231175232577812e+00,0.000000000000000000e+00,1.180231175232577812e+00
2.533333333333333215e+00,1.642706045272099733e+09,0.000000000000000000e+00,1.204268470043831529e+00,0.000000000000000000e+00,1.204268470043831529e+00
2.549999999999999822e+00,1.642706045290051699e+09,0.000000000000000000e+00,1.180231175232577812e+00,0.000000000000000000e+00,1.180231175232577812e+00
2.566666666666666430e+00,1.642706045307006359e+09,0.000000000000000000e+00,1.204268470043831529e+00,0.000000000000000000e+00,1.204268470043831529e+00
2.583333333333333481e+00,1.642706045324958563e+09,0.000000000000000000e+00,1.204268470043831529e+00,0.000000000000000000e+00,1.204268470043831529e+00
2.600000000000000089e+00,1.642706045340915680e+09,0.000000000000000000e+00,1.204268470043831529e+00,0.000000000000000000e+00,1.204268470043831529e+00
2.616666666666666696e+00,1.642706045356873035e+09,0.000000000000000000e+00,1.204268470043831529e+00,0.000000000000000000e+00,1.204268470043831529e+00
2.633333333333333304e+00,1.642706045374825239e+09,0.000000000000000000e+00,1.180231175232577812e+00,0.000000000000000000e+00,1.180231175232577812e+00
2.649999999999999911e+00,1.642706045393776417e+09,0.000000000000000000e+00,1.204268470043831529e+00,0.000000000000000000e+00,1.204268470043831529e+00
2.666666666666666519e+00,1.642706045408734798e+09,0.000000000000000000e+00,1.180231175232577812e+00,0.000000000000000000e+00,1.180231175232577812e+00
2.683333333333333126e+00,1.642706045424692869e+09,0.000000000000000000e+00,1.204268470043831529e+00,0.000000000000000000e+00,1.204268470043831529e+00
2.700000000000000178e+00,1.642706045442644119e+09,0.000000000000000000e+00,1.204268470043831529e+00,0.000000000000000000e+00,1.204268470043831529e+00
2.716666666666666785e+00,1.642706045458600760e+09,0.000000000000000000e+00,1.180231175232577812e+00,0.000000000000000000e+00,1.180231175232577812e+00
2.733333333333333393e+00,1.642706045476554155e+09,0.000000000000000000e+00,1.204268470043831529e+00,0.000000000000000000e+00,1.204268470043831529e+00
2.750000000000000000e+00,1.642706045494505882e+09,0.000000000000000000e+00,1.204268470043831529e+00,0.000000000000000000e+00,1.204268470043831529e+00
2.766666666666666607e+00,1.642706045512456179e+09,0.000000000000000000e+00,1.180231175232577812e+00,0.000000000000000000e+00,1.180231175232577812e+00
2.783333333333333215e+00,1.642706045528414249e+09,0.000000000000000000e+00,1.180231175232577812e+00,0.000000000000000000e+00,1.180231175232577812e+00
2.799999999999999822e+00,1.642706045544371605e+09,0.000000000000000000e+00,1.180231175232577812e+00,0.000000000000000000e+00,1.180231175232577812e+00
2.816666666666666430e+00,1.642706045561326027e+09,0.000000000000000000e+00,1.204268470043831529e+00,0.000000000000000000e+00,1.204268470043831529e+00
2.833333333333333481e+00,1.642706045582303286e+09,0.000000000000000000e+00,1.204268470043831529e+00,0.000000000000000000e+00,1.204268470043831529e+00
2.850000000000000089e+00,1.642706045599251509e+09,0.000000000000000000e+00,1.180231175232577812e+00,0.000000000000000000e+00,1.180231175232577812e+00
2.866666666666666696e+00,1.642706045615208387e+09,0.000000000000000000e+00,1.180231175232577812e+00,0.000000000000000000e+00,1.180231175232577812e+00
2.883333333333333304e+00,1.642706045630144119e+09,0.000000000000000000e+00,1.180231175232577812e+00,0.000000000000000000e+00,1.180231175232577812e+00
2.899999999999999911e+00,1.642706045650090933e+09,0.000000000000000000e+00,1.180231175232577812e+00,0.000000000000000000e+00,1.180231175232577812e+00
2.916666666666666519e+00,1.642706045664054632e+09,0.000000000000000000e+00,1.204268470043831529e+00,0.000000000000000000e+00,1.204268470043831529e+00
2.933333333333333126e+00,1.642706045680012941e+09,0.000000000000000000e+00,1.204268470043831529e+00,0.000000000000000000e+00,1.204268470043831529e+00
2.950000000000000178e+00,1.642706045698962212e+09,0.000000000000000000e+00,1.180231175232577812e+00,0.000000000000000000e+00,1.180231175232577812e+00
2.966666666666666785e+00,1.642706045715917349e+09,0.000000000000000000e+00,1.204268470043831529e+00,0.000000000000000000e+00,1.204268470043831529e+00
2.983333333333333393e+00,1.642706045731873274e+09,0.000000000000000000e+00,1.204268470043831529e+00,0.000000000000000000e+00,1.204268470043831529e+00
3.000000000000000000e+00,1.642706045749821901e+09,0.000000000000000000e+00,1.204268470043831529e+00,0.000000000000000000e+00,1.204268470043831529e+00
