# 
# 
# 
# 
# 
# 
# 
# 
# 
# 
# time,realtime,ref,inp,inp0,inp1,dis,state...
0.000000000000000000e+00,1.644629312792223692e+09,-0.000000000000000000e+00,-6.970815495263654737e-02,0.000000000000000000e+00,-9.294420660351540575e-02,-0.000000000000000000e+00,0.000000000000000000e+00,0.000000000000000000e+00
1.666666666666666644e-02,1.644629312794216633e+09,-1.989867912377870993e-06,-4.567086014138197619e-02,0.000000000000000000e+00,-6.089448018850930622e-02,0.000000000000000000e+00,-6.308081991171266891e-06,-7.548729203651949370e-04
3.333333333333333287e-02,1.644629312795213223e+09,-7.919757644119849289e-06,-6.970815495263654737e-02,0.000000000000000000e+00,-9.294420660351540575e-02,-1.142399897115739989e-05,-2.841473693902806674e-05,-1.894759247944132873e-03
5.000000000000000278e-02,1.644629312814805984e+09,-1.774150828134864571e-05,-6.970815495263654737e-02,0.000000000000000000e+00,-9.294420660351540575e-02,-4.964693619178685242e-05,-6.936733504935924392e-05,-3.016436681314274039e-03
6.666666666666666574e-02,1.644629312831140041e+09,-3.142211321506751403e-05,-9.374544976389022344e-02,0.000000000000000000e+00,-1.249939330185202979e-01,-1.197429639344158416e-04,-1.321893552539867142e-04,-4.518034539906724129e-03
8.333333333333332871e-02,1.644629312847292423e+09,-4.894283042971107336e-05,-9.374544976389022344e-02,0.000000000000000000e+00,-1.249939330185202979e-01,-2.255844649751789386e-04,-2.198452238706077411e-04,-5.996562575104526921e-03
1.000000000000000056e-01,1.644629312865067482e+09,-7.029733303044807542e-05,-9.374544976389022344e-02,0.000000000000000000e+00,-1.249939330185202979e-01,-3.697820664146926248e-04,-3.319589280218890261e-04,-7.453036068124994050e-03
1.166666666666666685e-01,1.644629312880886793e+09,-9.548894126235435941e-05,-9.374544976389022344e-02,0.000000000000000000e+00,-1.249939330185202979e-01,-5.536514604261689272e-04,-4.681714176770301970e-04,-8.888475265541793263e-03
1.333333333333333315e-01,1.644629312897115231e+09,-1.245269981336508114e-04,-6.970815495263654737e-02,0.000000000000000000e+00,-9.294420660351540575e-02,-7.772074323097265649e-04,-6.248204648867312135e-04,-9.906582258081197620e-03
1.499999999999999944e-01,1.644629312915468693e+09,-1.574224704600165367e-04,-9.374544976389022344e-02,0.000000000000000000e+00,-1.249939330185202979e-01,-1.039185079917799570e-03,-8.016535681629282078e-04,-1.130949306886846854e-02
1.666666666666666574e-01,1.644629312931953192e+09,-1.941828753553875592e-04,-6.970815495263654737e-02,0.000000000000000000e+00,-9.294420660351540575e-02,-1.337087792630724118e-03,-9.983958508624586267e-04,-1.229683816525672588e-02
1.833333333333333204e-01,1.644629312948894024e+09,-2.348066485878080823e-04,-6.970815495263654737e-02,0.000000000000000000e+00,-9.294420660351540575e-02,-1.667261147978655982e-03,-1.211503116279677569e-03,-1.327332116818309357e-02
2.000000000000000111e-01,1.644629312966077328e+09,-2.792770855060088247e-04,-6.970815495263654737e-02,0.000000000000000000e+00,-9.294420660351540575e-02,-2.024991485035440488e-03,-1.440799635985386302e-03,-1.423957708910525075e-02
2.166666666666666741e-01,1.644629312983057261e+09,-3.275559971653221468e-04,-6.970815495263654737e-02,0.000000000000000000e+00,-9.294420660351540575e-02,-2.404627531033931131e-03,-1.686119396809966859e-03,-1.519613703634184465e-02
2.333333333333333370e-01,1.644629313001152515e+09,-3.795772336186243115e-04,-6.970815495263654737e-02,0.000000000000000000e+00,-9.294420660351540575e-02,-2.799723096264408826e-03,-1.947304273681226732e-03,-1.614341679361893517e-02
2.500000000000000000e-01,1.644629313017171383e+09,-4.352402329076522983e-04,-6.970815495263654737e-02,0.000000000000000000e+00,-9.294420660351540575e-02,-3.203198516965046275e-03,-2.224202035980794075e-03,-1.708170825581272617e-02
2.666666666666666630e-01,1.644629313035326004e+09,-4.944037579536243732e-04,-6.970815495263654737e-02,0.000000000000000000e+00,-9.294420660351540575e-02,-3.607518221039401288e-03,-2.516664236871256604e-03,-1.801117394115019435e-02
2.833333333333333259e-01,1.644629313049580336e+09,-5.568799842102069644e-04,-6.970815495263654737e-02,0.000000000000000000e+00,-9.294420660351540575e-02,-4.004881521128511070e-03,-2.824544038270389475e-03,-1.893184474764714534e-02
2.999999999999999889e-01,1.644629313068062782e+09,-6.224290985600258903e-04,-6.970815495263654737e-02,0.000000000000000000e+00,-9.294420660351540575e-02,-4.387423507506875604e-03,-3.147694026489992417e-03,-1.984362106709659790e-02
3.166666666666666519e-01,1.644629313085654020e+09,-6.907545645096665717e-04,-6.970815495263654737e-02,0.000000000000000000e+00,-9.294420660351540575e-02,-4.747422722695717780e-03,-3.485964074971458545e-03,-2.074627731320400487e-02
3.333333333333333148e-01,1.644629313101402760e+09,-7.614992003170007340e-04,-6.970815495263654737e-02,0.000000000000000000e+00,-9.294420660351540575e-02,-5.077512153337414985e-03,-3.839199311007134713e-03,-2.163946986226789396e-02
3.499999999999999778e-01,1.644629313117391586e+09,-8.342422053665276161e-04,-9.374544976389022344e-02,0.000000000000000000e+00,-1.249939330185202979e-01,-5.370889974972114546e-03,-4.210558285971014759e-03,-2.292004988295172005e-02
3.666666666666666408e-01,1.644629313134359360e+09,-9.084972560374106462e-04,-9.374544976389022344e-02,0.000000000000000000e+00,-1.249939330185202979e-01,-5.621526433570232621e-03,-4.603118004960917754e-03,-2.418360643391949047e-02
3.833333333333333037e-01,1.644629313152350187e+09,-9.837117756747574583e-04,-6.970815495263654737e-02,0.000000000000000000e+00,-9.294420660351540575e-02,-5.824363245096420526e-03,-5.013270449507355175e-03,-2.503232929266860363e-02
4.000000000000000222e-01,1.644629313168073893e+09,-1.059267464309483894e-03,-6.970815495263654737e-02,0.000000000000000000e+00,-9.294420660351540575e-02,-5.975501941515424034e-03,-5.437471924360368775e-03,-2.586952209938479103e-02
4.166666666666666852e-01,1.644629313187354088e+09,-1.134482152747787100e-03,-9.374544976389022344e-02,0.000000000000000000e+00,-1.249939330185202979e-01,-6.072377688401580861e-03,-5.878844402850199637e-03,-2.709178007843315514e-02
4.333333333333333481e-01,1.644629313203468561e+09,-1.208613022875802039e-03,-6.970815495263654737e-02,0.000000000000000000e+00,-9.294420660351540575e-02,-6.113915244981819701e-03,-6.337104722810358096e-03,-2.789722092843330281e-02
4.500000000000000111e-01,1.644629313220401049e+09,-1.280861211838269257e-03,-6.970815495263654737e-02,0.000000000000000000e+00,-9.294420660351540575e-02,-6.100663930729369536e-03,-6.808675978766955648e-03,-2.868912998719947219e-02
4.666666666666666741e-01,1.644629313237833738e+09,-1.350377792519133697e-03,-6.970815495263654737e-02,0.000000000000000000e+00,-9.294420660351540575e-02,-6.034908701644199625e-03,-7.293327258016934697e-03,-2.946686310218750438e-02
4.833333333333333370e-01,1.644629313255856037e+09,-1.416271096866421331e-03,-4.567086014138197619e-02,0.000000000000000000e+00,-6.089448018850930622e-02,-5.920754721650396853e-03,-7.787497524806214974e-03,-2.983255308311542897e-02
5.000000000000000000e-01,1.644629313273317575e+09,-1.477615322469232571e-03,-4.567086014138197619e-02,0.000000000000000000e+00,-6.089448018850930622e-02,-5.764183137104529966e-03,-8.287690489582943965e-03,-3.018961083964680908e-02
5.166666666666666075e-01,1.644629313289218903e+09,-1.533460336828814134e-03,-4.567086014138197619e-02,0.000000000000000000e+00,-6.089448018850930622e-02,-5.573076121721472036e-03,-8.793758704176713945e-03,-3.053760822943809780e-02
5.333333333333333259e-01,1.644629313306173563e+09,-1.582842568390190052e-03,-4.567086014138197619e-02,0.000000000000000000e+00,-6.089448018850930622e-02,-5.357209651282699575e-03,-9.305548994109277827e-03,-3.087628576938327915e-02
5.500000000000000444e-01,1.644629313324163675e+09,-1.624796849036866820e-03,-6.970815495263654737e-02,0.000000000000000000e+00,-9.294420660351540575e-02,-5.128212887855462809e-03,-9.826225545402808917e-03,-3.160288201543128006e-02
5.666666666666666519e-01,1.644629313341114044e+09,-1.658369049813014640e-03,-4.567086014138197619e-02,0.000000000000000000e+00,-6.089448018850930622e-02,-4.899493497084960424e-03,-1.035556004230479311e-02,-3.191638674583707758e-02
5.833333333333333703e-01,1.644629313358070612e+09,-1.682629330525193959e-03,-4.567086014138197619e-02,0.000000000000000000e+00,-6.089448018850930622e-02,-4.686128684253556935e-03,-1.089004684656266937e-02,-3.222118308867312486e-02
5.999999999999999778e-01,1.644629313374989986e+09,-1.696685804970965612e-03,-6.970815495263654737e-02,0.000000000000000000e+00,-9.294420660351540575e-02,-4.504722209770036477e-03,-1.143286647844533183e-02,-3.291524474283057111e-02
6.166666666666666963e-01,1.644629313390980482e+09,-1.699698407200472047e-03,-4.567086014138197619e-02,0.000000000000000000e+00,-6.089448018850930622e-02,-4.373228126878286361e-03,-1.198381973524037351e-02,-3.319835962383986538e-02
6.333333333333333037e-01,1.644629313409730434e+09,-1.690892730764746938e-03,-6.970815495263654737e-02,0.000000000000000000e+00,-9.294420660351540575e-02,-4.310742467808515235e-03,-1.254276388201977684e-02,-3.387306376740121389e-02
6.500000000000000222e-01,1.644629313425129652e+09,-1.669573602630620686e-03,-4.567086014138197619e-02,0.000000000000000000e+00,-6.089448018850930622e-02,-4.337264583397837381e-03,-1.310954352748016152e-02,-3.413975286735383002e-02
6.666666666666666297e-01,1.644629313443785906e+09,-1.635138146595866695e-03,-4.567086014138197619e-02,0.000000000000000000e+00,-6.089448018850930622e-02,-4.473430309401885650e-03,-1.368074996331955159e-02,-3.440428460569416869e-02
6.833333333333333481e-01,1.644629313460717678e+09,-1.587088087822897129e-03,-4.567086014138197619e-02,0.000000000000000000e+00,-6.089448018850930622e-02,-4.740219584373272371e-03,-1.425636557327670043e-02,-3.466885365783294037e-02
6.999999999999999556e-01,1.644629313477776766e+09,-1.525041050681369241e-03,-4.567086014138197619e-02,0.000000000000000000e+00,-6.089448018850930622e-02,-5.158641573261929514e-03,-1.483641191768055381e-02,-3.493596567533981817e-02
7.166666666666666741e-01,1.644629313493768692e+09,-1.448740606551963614e-03,-6.970815495263654737e-02,0.000000000000000000e+00,-9.294420660351540575e-02,-5.749400752139050691e-03,-1.542427487450352339e-02,-3.560572864692977679e-02
7.333333333333332815e-01,1.644629313511290073e+09,-1.358064836645745494e-03,-6.970815495263654737e-02,0.000000000000000000e+00,-9.294420660351540575e-02,-6.532547777239287347e-03,-1.602331620818170377e-02,-3.627736569208286216e-02
7.500000000000000000e-01,1.644629313529369831e+09,-1.253033187229214522e-03,-6.970815495263654737e-02,0.000000000000000000e+00,-9.294420660351540575e-02,-7.527119290738202260e-03,-1.663359609648233997e-02,-3.695434037450513742e-02
7.666666666666666075e-01,1.644629313545323133e+09,-1.133811410850792166e-03,-4.567086014138197619e-02,0.000000000000000000e+00,-6.089448018850930622e-02,-8.750771101580177500e-03,-1.725191436032118622e-02,-3.724304929804899550e-02
7.833333333333333259e-01,1.644629313562278271e+09,-1.000714407120929187e-03,-4.567086014138197619e-02,0.000000000000000000e+00,-6.089448018850930622e-02,-1.021940941791631315e-02,-1.787520741198891233e-02,-3.755126073903623796e-02
8.000000000000000444e-01,1.644629313578515291e+09,-8.542068001269865173e-04,-4.567086014138197619e-02,0.000000000000000000e+00,-6.089448018850930622e-02,-1.194682499444956782e-02,-1.850383334218977036e-02,-3.788292956109923920e-02
8.166666666666666519e-01,1.644629313595005512e+09,-6.949011164345915079e-04,-4.567086014138197619e-02,0.000000000000000000e+00,-6.089448018850930622e-02,-1.394433518989019426e-02,-1.913821717293337499e-02,-3.824213231921017031e-02
8.333333333333333703e-01,1.644629313613646269e+09,-5.235534575538337496e-04,-6.970815495263654737e-02,0.000000000000000000e+00,-9.294420660351540575e-02,-1.622043900404393502e-02,-1.978217252279574831e-02,-3.903032020195913721e-02
8.499999999999999778e-01,1.644629313629752398e+09,-3.410565933961645169e-04,-4.567086014138197619e-02,0.000000000000000000e+00,-6.089448018850930622e-02,-1.878049017864753811e-02,-2.043618902485933725e-02,-3.945049287189603821e-02
8.666666666666666963e-01,1.644629313648472071e+09,-1.484304382337210270e-04,-6.970815495263654737e-02,0.000000000000000000e+00,-9.294420660351540575e-02,-2.162639339942634339e-02,-2.110086349102250833e-02,-4.030806087826725032e-02
8.833333333333333037e-01,1.644629313664822340e+09,5.319009242649099141e-05,-4.567086014138197619e-02,0.000000000000000000e+00,-6.089448018850930622e-02,-2.475632852815729326e-02,-2.177682457461940432e-02,-4.080588627249601141e-02
9.000000000000000222e-01,1.644629313682468176e+09,2.625698072891397656e-04,-4.567086014138197619e-02,0.000000000000000000e+00,-6.089448018850930622e-02,-2.816450762262243113e-02,-2.246148472762536999e-02,-4.135181558222345011e-02
9.166666666666666297e-01,1.644629313699474096e+09,4.783904709617854451e-04,-4.567086014138197619e-02,0.000000000000000000e+00,-6.089448018850930622e-02,-3.184096926980914399e-02,-2.315567609314862427e-02,-4.194948804022004957e-02
9.333333333333333481e-01,1.644629313716428757e+09,6.992704260665752415e-04,-4.567086014138197619e-02,0.000000000000000000e+00,-6.089448018850930622e-02,-3.577141446480660431e-02,-2.386028899053854735e-02,-4.260224638626660537e-02
9.499999999999999556e-01,1.644629313732797146e+09,9.237864503002698449e-04,-4.567086014138197619e-02,0.000000000000000000e+00,-6.089448018850930622e-02,-3.993708791654358020e-02,-2.457626639928315454e-02,-4.331306811182075722e-02
9.666666666666666741e-01,1.644629313750021935e+09,1.150497653976715554e-03,-4.567086014138197619e-02,0.000000000000000000e+00,-6.089448018850930622e-02,-4.431470825445901762e-02,-2.530459729684096312e-02,-4.408449668752696671e-02
9.833333333333332815e-01,1.644629313767009258e+09,1.377971185803995207e-03,-4.567086014138197619e-02,0.000000000000000000e+00,-6.089448018850930622e-02,-4.887645015075064991e-02,-2.604630885729430564e-02,-4.491857363194250163e-02
1.000000000000000000e+00,1.644629313785549402e+09,1.604809478634099161e-03,9.104089497778325435e-02,5.468470204766608944e-01,-6.089448018850930622e-02,-5.358998086496338797e-02,-2.678357483641270742e-02,-4.355712575094376759e-02
1.016666666666666607e+00,1.644629313800475597e+09,1.829678733223149027e-03,1.444607631778267454e-01,8.566756725218532820e-01,-9.294420660351540575e-02,-5.841855316599479930e-02,-2.749162660733988142e-02,-4.141503714648606116e-02
1.033333333333333215e+00,1.644629313818559885e+09,2.051338307186797473e-03,1.827092383011743593e-01,1.009669573015243627e+00,-9.294420660351540575e-02,-6.332115599625257052e-02,-2.815966701935323016e-02,-3.875719536272401872e-02
1.050000000000000044e+00,1.644629313835574150e+09,2.268670648830854904e-03,2.329923486782406739e-01,1.114652835278490572e+00,-6.089448018850930622e-02,-6.825272361943372779e-02,-2.877751319302295635e-02,-3.539368877140750685e-02
1.066666666666666652e+00,1.644629313852566481e+09,2.480711391861946998e-03,2.932937416912713702e-01,1.452007586575631670e+00,-9.294420660351540575e-02,-7.316440334337365181e-02,-2.933211503787539962e-02,-3.117026462075676851e-02
1.083333333333333259e+00,1.644629313868498087e+09,2.686679207568657551e-03,3.797128905055295323e-01,1.797684181832664319e+00,-9.294420660351540575e-02,-7.800388123924785477e-02,-2.980564199681489876e-02,-2.566825417404590762e-02
1.100000000000000089e+00,1.644629313887435198e+09,2.886004996305586382e-03,4.269233514318372391e-01,1.986526025537895146e+00,-9.294420660351540575e-02,-8.271576459505128320e-02,-3.018235879733119006e-02,-1.955474425958318371e-02
1.116666666666666696e+00,1.644629313902393103e+09,3.078359990351384797e-03,4.504485641646074345e-01,2.080626876468976150e+00,-9.294420660351540575e-02,-8.724201915198126489e-02,-3.045540402139644207e-02,-1.322825661864083027e-02
1.133333333333333304e+00,1.644629313918351412e+09,3.263682335731051421e-03,5.181755397652926254e-01,2.255385599626698490e+00,-6.089448018850930622e-02,-9.152245848455436983e-02,-3.061511833516167638e-02,-5.957657616863290366e-03
1.149999999999999911e+00,1.644629313937348604e+09,3.442201721617364155e-03,5.643938122308146399e-01,2.536407868733804527e+00,-9.294420660351540575e-02,-9.549528220660638556e-02,-3.064882525519952230e-02,1.891024803578024265e-03
1.166666666666666741e+00,1.644629313952299833e+09,3.614461632613035109e-03,6.274797594692523850e-01,2.692602478442537528e+00,-6.089448018850930622e-02,-9.909765902339510990e-02,-3.054458896506829710e-02,1.059315685421108669e-02
1.183333333333333348e+00,1.644629313971245766e+09,3.781338811653106244e-03,7.030164969513447160e-01,2.994749428370906852e+00,-6.089448018850930622e-02,-1.022663500124931790e-01,-3.028652357288961691e-02,2.034759391101326545e-02
1.199999999999999956e+00,1.644629313985204935e+09,3.944059539472236607e-03,6.820198758946659501e-01,3.006912123389209768e+00,-9.294420660351540575e-02,-1.049383669105438954e-01,-2.987050064156197837e-02,2.954959612942099217e-02
1.216666666666666563e+00,1.644629314004121542e+09,4.104212360498210588e-03,6.816998049731316511e-01,3.005631839703073016e+00,-9.294420660351540575e-02,-1.070516596166092710e-01,-2.930271808913057288e-02,3.855928266626496015e-02
1.233333333333333393e+00,1.644629314020080328e+09,4.263756914528113451e-03,6.754584220032130437e-01,2.980666307823398142e+00,-9.294420660351540575e-02,-1.085458266028450913e-01,-2.858708695483824086e-02,4.729219478864542248e-02
1.250000000000000000e+00,1.644629314037068129e+09,4.425028568412996480e-03,7.628697592782570647e-01,3.234162477678556247e+00,-6.089448018850930622e-02,-1.093628414563285883e-01,-2.771515302833177721e-02,5.731204282583776677e-02
1.266666666666666607e+00,1.644629314056981087e+09,4.590738581937476095e-03,7.801535890411086527e-01,3.303297796729962155e+00,-6.089448018850930622e-02,-1.094477883683637742e-01,-2.667523006266818431e-02,6.745054987138658642e-02
1.283333333333333215e+00,1.644629314072972059e+09,4.763969586785828103e-03,6.865328444923288753e-01,2.928814818534843045e+00,-6.089448018850930622e-02,-1.087495990453109379e-01,-2.548056682492418762e-02,7.588560739109288800e-02
1.300000000000000044e+00,1.644629314088091850e+09,4.948166206509855593e-03,5.861586348951463021e-01,2.623467159391131620e+00,-9.294420660351540575e-02,-1.072217832431982681e-01,-2.416013706277103656e-02,8.254745848980553358e-02
1.316666666666666652e+00,1.644629314104806185e+09,5.147120698275423414e-03,5.767485184060675563e-01,2.489677514189798213e+00,-6.089448018850930622e-02,-1.048231449316914116e-01,-2.273056501603491417e-02,8.898330933430900758e-02
1.333333333333333259e+00,1.644629314123052597e+09,5.364953553313736405e-03,3.994292278760712689e-01,1.780400352069812842e+00,-6.089448018850930622e-02,-1.015184759753768040e-01,-2.121865269784705202e-02,9.243657621446604855e-02
1.350000000000000089e+00,1.644629314139508486e+09,5.606089051842358395e-03,3.544592634005035436e-01,1.600520494167541941e+00,-6.089448018850930622e-02,-9.727921918493460940e-02,-1.965528864427006084e-02,9.515954623114854238e-02
1.366666666666666696e+00,1.644629314157441854e+09,5.875225829096776022e-03,4.098315328259355961e-01,1.822009571869270372e+00,-6.089448018850930622e-02,-9.208409264006214845e-02,-1.803855225610627791e-02,9.883860051274931391e-02
1.383333333333333304e+00,1.644629314175395489e+09,6.177302571337243108e-03,3.429047345290862636e-01,1.650451557926891244e+00,-9.294420660351540575e-02,-8.591966732152563069e-02,-1.636939897867003765e-02,1.014525316887724127e-01
1.399999999999999911e+00,1.644629314190354347e+09,6.517459023537463397e-03,3.520267557928135060e-01,1.686939642981800214e+00,-9.294420660351540575e-02,-7.878089031218968308e-02,-1.465479526954057560e-02,1.042920257376533516e-01
1.416666666666666741e+00,1.644629314207308769e+09,6.900992553175385597e-03,2.882045826429056046e-01,1.335501771137150406e+00,-6.089448018850930622e-02,-7.067154613613670089e-02,-1.290095393566825441e-02,1.061637350122271728e-01
1.433333333333333348e+00,1.644629314225260735e+09,7.333310576356729706e-03,2.310399474528520569e-01,1.202992409621954417e+00,-9.294420660351540575e-02,-6.160464919997622746e-02,-1.112281925224564878e-02,1.072095219663525001e-01
1.449999999999999956e+00,1.644629314242221594e+09,7.819879212637719998e-03,2.611585897732581762e-01,1.227317799658560471e+00,-6.089448018850930622e-02,-5.160276077918824617e-02,-9.321857763145246015e-03,1.089011576271532583e-01
1.466666666666666563e+00,1.644629314259196758e+09,8.366168592593151848e-03,2.992470294358385852e-01,1.379671558308882107e+00,-6.089448018850930622e-02,-4.069822455197593530e-02,-7.486169061650396576e-03,1.113746156737227821e-01
1.483333333333333393e+00,1.644629314275228500e+09,8.977595296640539929e-03,3.714230222418209437e-01,1.668375529532811541e+00,-6.089448018850930622e-02,-2.893331531987480831e-02,-5.598003735365373462e-03,1.151946121294702002e-01
1.500000000000000000e+00,1.644629314292106628e+09,9.659462454130100448e-03,3.735034832317937203e-01,1.676697373492702869e+00,-6.089448018850930622e-02,-1.636029626363007250e-02,-3.644675475325447403e-03,1.191936703188996721e-01
1.516666666666666607e+00,1.644629314307316542e+09,1.041689807753314045e-02,3.410162846960632654e-01,1.546748579349781050e+00,-6.089448018850930622e-02,-3.041380859176399509e-03,-1.627896130204749096e-03,1.228098060377270928e-01
1.533333333333333215e+00,1.644629314326039791e+09,1.125479224703113644e-02,1.518543700692982779e-01,7.901009208427209884e-01,-6.089448018850930622e-02,1.095140358434164816e-02,4.244582334279808911e-04,1.234708812349883666e-01
1.550000000000000044e+00,1.644629314344317198e+09,1.217773379529522165e-02,-4.567086014138197619e-02,0.000000000000000000e+00,-6.089448018850930622e-02,2.553645291168098186e-02,2.462471419913475016e-03,1.210972945946745261e-01
1.566666666666666652e+00,1.644629314360745192e+09,1.318994717018429595e-02,-6.970815495263654737e-02,0.000000000000000000e+00,-9.294420660351540575e-02,4.062292484394314229e-02,4.460016377909267055e-03,1.186149958015338401e-01
1.583333333333333259e+00,1.644629314377339840e+09,1.429523017397026259e-02,-4.567086014138197619e-02,0.000000000000000000e+00,-6.089448018850930622e-02,5.611117967181913219e-02,6.421991834338886332e-03,1.168270256706115118e-01
1.600000000000000089e+00,1.644629314393888235e+09,1.549689329108983743e-02,-4.567086014138197619e-02,0.000000000000000000e+00,-6.089448018850930622e-02,7.189332215149936423e-02,8.356594581307223019e-03,1.153294639571451341e-01
1.616666666666666696e+00,1.644629314409160852e+09,1.679770132196987259e-02,-4.567086014138197619e-02,0.000000000000000000e+00,-6.089448018850930622e-02,8.785384281198453660e-02,1.026864928543302392e-02,1.141204589641960365e-01
1.633333333333333304e+00,1.644629314427052021e+09,1.819981803790754124e-02,-4.567086014138197619e-02,0.000000000000000000e+00,-6.089448018850930622e-02,1.038703558496494178e-01,1.216293310348843214e-02,1.131961667412784145e-01
1.649999999999999911e+00,1.644629314443747044e+09,1.970475456112998763e-02,-4.567086014138197619e-02,0.000000000000000000e+00,-6.089448018850930622e-02,1.198144297533072222e-01,1.404414191830811141e-02,1.125506840866574848e-01
1.666666666666666741e+00,1.644629314462111473e+09,2.131332215492496782e-02,-4.567086014138197619e-02,0.000000000000000000e+00,-6.089448018850930622e-02,1.355525057809748024e-01,1.591685559418423018e-02,1.121759978381079159e-01
1.683333333333333348e+00,1.644629314477740049e+09,2.302559008113658559e-02,-4.567086014138197619e-02,0.000000000000000000e+00,-6.089448018850930622e-02,1.509468984084321730e-01,1.778550253229385994e-02,1.120619515377824504e-01
1.699999999999999956e+00,1.644629314495396376e+09,2.484084914647071568e-02,-6.970815495263654737e-02,0.000000000000000000e+00,-9.294420660351540575e-02,1.658568708998545138e-01,1.965100378055021843e-02,1.117989288886463844e-01
1.716666666666666563e+00,1.644629314514544010e+09,2.675758151516238054e-02,-2.164968092755849560e-01,-5.871546172917935236e-01,-9.294420660351540575e-02,1.801397782226183131e-01,2.149385588691496776e-02,1.093501262647321864e-01
1.733333333333333393e+00,1.644629314530797482e+09,2.877343731393316312e-02,-4.567086014138197619e-02,0.000000000000000000e+00,-6.089448018850930622e-02,1.936522686518676595e-01,2.332169376330685273e-02,1.099886451968483947e-01
1.750000000000000000e+00,1.644629314546932697e+09,3.088521849621755910e-02,-2.121254599417631559e-01,-6.658183992015246355e-01,-6.089448018850930622e-02,2.062515345954728241e-01,2.513883485386548752e-02,1.080736053505182565e-01
1.766666666666666607e+00,1.644629314563858747e+09,3.308887036686657124e-02,-2.467521100100967812e-01,-7.081758202298409355e-01,-9.294420660351540575e-02,2.177966024259024858e-01,2.692113508025533591e-02,1.058087133310584987e-01
1.783333333333333215e+00,1.644629314579962015e+09,3.537948109653283463e-02,-2.646027374434588020e-01,-7.795783299632890184e-01,-9.294420660351540575e-02,2.281496504412748316e-01,2.866496436492640965e-02,1.034573325963510232e-01
1.800000000000000044e+00,1.644629314597947598e+09,3.775128947739033597e-02,-2.806380468327501210e-01,-8.437195675204542944e-01,-9.294420660351540575e-02,2.371773435016486520e-01,3.036896084910209112e-02,1.010289910566569832e-01
1.816666666666666652e+00,1.644629314613114595e+09,4.019770108949238807e-02,-2.835279696752111556e-01,-9.514284381353166342e-01,-6.089448018850930622e-02,2.447521724061874904e-01,3.203346745959093772e-02,9.871822115835107714e-02
1.833333333333333259e+00,1.644629314630970001e+09,4.271131296075925121e-02,-3.603764335408712327e-01,-1.258822293597957165e+00,-6.089448018850930622e-02,2.507537856988975022e-01,3.364999500078103695e-02,9.527464948646141574e-02
1.849999999999999867e+00,1.644629314648961544e+09,4.528394671420041956e-02,-2.950249839543256369e-01,-9.974164952517746707e-01,-6.089448018850930622e-02,2.550703013213032055e-01,3.521922788272750793e-02,9.303950522729789729e-02
1.866666666666666696e+00,1.644629314666363955e+09,4.790669010446956672e-02,-3.157341956847838915e-01,-9.841041629285893766e-01,-9.294420660351540575e-02,2.575995853746230191e-01,3.674900605891291000e-02,9.054081687927648114e-02
1.883333333333333304e+00,1.644629314683237553e+09,5.056994675320485716e-02,-2.981861212587669785e-01,-9.139118652245216134e-01,-9.294420660351540575e-02,2.582504852159042130e-01,3.823999820078591988e-02,8.838423080335575110e-02
1.899999999999999911e+00,1.644629314701303244e+09,5.326349379986069360e-02,-2.981861212587669785e-01,-9.139118652245216134e-01,-9.294420660351540575e-02,2.569440041950699638e-01,3.969516465832797353e-02,8.624169572808541850e-02
1.916666666666666741e+00,1.644629314718256950e+09,5.597654709292822217e-02,-2.693079783299904828e-01,-8.945484727544340542e-01,-6.089448018850930622e-02,2.536144055449093271e-01,4.111844690364626492e-02,8.455685393634911062e-02
1.933333333333333348e+00,1.644629314735419750e+09,5.869783345663372870e-02,-2.854788949502720108e-01,-8.630829599905418537e-01,-9.294420660351540575e-02,2.482102332643885412e-01,4.251090120158024926e-02,8.254325527698373743e-02
1.949999999999999956e+00,1.644629314751215219e+09,6.141566948145652655e-02,-2.546184882010699702e-01,-7.396413329937335801e-01,-9.294420660351540575e-02,2.406952382869352314e-01,4.387329812103230725e-02,8.094880419229609492e-02
1.966666666666666563e+00,1.644629314768411160e+09,6.411804620415832712e-02,-2.151509900152142329e-01,-6.779205194953290547e-01,-6.089448018850930622e-02,2.310491987978639805e-01,4.521346003687422288e-02,7.987361242283168294e-02
1.983333333333333393e+00,1.644629314787272215e+09,6.679271896548939769e-02,1.359788837571681008e-01,8.227481548392185928e-01,-9.294420660351540575e-02,2.192686242561868448e-01,4.658272169045069022e-02,8.442514256947779294e-02
2.000000000000000000e+00,1.644629314805038691e+09,6.942730166231093902e-02,1.372591674433052411e-01,8.278692895837671539e-01,-9.294420660351540575e-02,2.053673334816048801e-01,4.802547030039307913e-02,8.869283564161724309e-02
2.016666666666666607e+00,1.644629314820971727e+09,7.200936454647370588e-02,1.828692737619415087e-01,1.010309714858312224e+00,-9.294420660351540575e-02,1.893768980824194481e-01,4.954284875603463811e-02,9.337956005004836857e-02
2.033333333333333215e+00,1.644629314837326288e+09,7.452653466629477474e-02,1.967923588486830688e-01,1.066002055205278465e+00,-9.294420660351540575e-02,1.713469435181335654e-01,5.113712470957476608e-02,9.792093913595519006e-02
2.049999999999999822e+00,1.644629314854512691e+09,7.696659799866785445e-02,3.278614012169746572e-01,1.590278224678445040e+00,-9.294420660351540575e-02,1.513453012042124679e-01,5.282180374171625142e-02,1.042230384775001545e-01
2.066666666666666430e+00,1.644629314872783422e+09,7.931760228143977520e-02,4.243627840595629030e-01,1.976283756048797802e+00,-9.294420660351540575e-02,1.294580062674141330e-01,5.462095304882969710e-02,1.116542356758363219e-01
2.083333333333333481e+00,1.644629314888622522e+09,8.156795952730760968e-02,4.480480322531004145e-01,2.071024748822948069e+00,-9.294420660351540575e-02,1.057891368388272357e-01,5.654293150416028063e-02,1.189628767053712011e-01
2.100000000000000089e+00,1.644629314906187773e+09,8.370654718264997074e-02,4.789348761811592636e-01,2.194572124535183022e+00,-9.294420660351540575e-02,8.046049211794549516e-02,5.858647887141851807e-02,1.262425854764313848e-01
2.116666666666666696e+00,1.644629314922235727e+09,8.572280688781355740e-02,4.779746634165563668e-01,2.190731273476771879e+00,-9.294420660351540575e-02,5.361110784346154179e-02,6.074650816576737666e-02,1.329423190364161511e-01
2.133333333333333304e+00,1.644629314939272404e+09,8.760683979971817248e-02,4.978190605516824019e-01,2.270108862017275797e+00,-9.294420660351540575e-02,2.539660925318389106e-02,6.301611823298428061e-02,1.393929701326137027e-01
2.149999999999999911e+00,1.644629314955332518e+09,8.934949745339294813e-02,5.707952306615003968e-01,2.562013542456547999e+00,-9.294420660351540575e-02,-4.011596906152642590e-03,6.539836581357637291e-02,1.464571164479440690e-01
2.166666666666666519e+00,1.644629314972056150e+09,9.094246716625398186e-02,5.383080321257700529e-01,2.432064748313626623e+00,-9.294420660351540575e-02,-3.442728826147378740e-02,6.788868528413828651e-02,1.523648093751204247e-01
2.183333333333333126e+00,1.644629314989957809e+09,9.237835102749356042e-02,5.661542022992531731e-01,2.543449429007558660e+00,-9.294420660351540575e-02,-6.565054602869078992e-02,7.047618388496808273e-02,1.581190383788000087e-01
2.200000000000000178e+00,1.644629315007029772e+09,9.365073756466030241e-02,7.618455951212891319e-01,3.422364179540717366e+00,-1.249939330185202979e-01,-9.746902150802334852e-02,7.318142573465592771e-02,1.664867394226665909e-01
2.216666666666666785e+00,1.644629315023725748e+09,9.475426524002110440e-02,8.514654531508902835e-01,3.780843611659122416e+00,-1.249939330185202979e-01,-1.296593423363915087e-01,7.603290571369870909e-02,1.756653612905321182e-01
2.233333333333333393e+00,1.644629315043443441e+09,9.568467700013741362e-02,7.789374137271908305e-01,3.586880633209342584e+00,-1.570436594335263836e-01,-1.619886495407649729e-01,7.902161201900326226e-02,1.829591343883346655e-01
2.250000000000000000e+00,1.644629315059366226e+09,9.643886518266328589e-02,7.091619528327157695e-01,3.307778789631442340e+00,-1.570436594335263836e-01,-1.942162550541791377e-01,8.211678507526269655e-02,1.884463896283841700e-01
2.266666666666666607e+00,1.644629315075559139e+09,9.701490617396167637e-02,7.739443387472274560e-01,3.663057512534503513e+00,-1.890933858485313035e-01,-2.260954080387660436e-01,8.530719909404126111e-02,1.943867911214132993e-01
2.283333333333333215e+00,1.644629315092549562e+09,9.741208430890965775e-02,8.488409343862511891e-01,3.962643895090598445e+00,-1.890933858485313035e-01,-2.573751571210676214e-01,8.860182369376197464e-02,2.009499294761123156e-01
2.299999999999999822e+00,1.644629315110502005e+09,9.763090460927884018e-02,7.543880368374528134e-01,3.680981484140423365e+00,-2.211431122635373892e-01,-2.878022944970516361e-01,9.198767893604795076e-02,2.053405032728330415e-01
2.316666666666666430e+00,1.644629315127457142e+09,9.767309406830639029e-02,7.337114867023091236e-01,3.694424462844863033e+00,-2.531928386785423091e-01,-3.171233668200452716e-01,9.543919828347439960e-02,2.088321192567776652e-01
2.333333333333333481e+00,1.644629315144520521e+09,9.754159130538138378e-02,6.905019122951802091e-01,3.521586165216347375e+00,-2.531928386785423091e-01,-3.450867368558475090e-01,9.893859852429164048e-02,2.110896386066159758e-01
2.350000000000000089e+00,1.644629315160752296e+09,9.724052453497127047e-02,5.394284373309956582e-01,2.917292265359609615e+00,-2.531928386785423091e-01,-3.714446790864006087e-01,1.024508053620310499e-01,2.103771610729531505e-01
2.366666666666666696e+00,1.644629315178599596e+09,9.677517791672807235e-02,3.240207071384186843e-01,2.055661344589301720e+00,-2.531928386785423091e-01,-3.959554917763894455e-01,1.059180983131064874e-01,2.057109550445782031e-01
2.383333333333333304e+00,1.644629315196549416e+09,9.615194647784106041e-02,3.412725612050874213e-01,2.220817940100994647e+00,-2.852425650935483947e-01,-4.183856074947293058e-01,1.093075504383308055e-01,2.010362854811931776e-01
2.399999999999999911e+00,1.644629315212507486e+09,9.537827992277940481e-02,3.348711427744017199e-01,2.195212266378252064e+00,-2.852425650935483947e-01,-4.385116837127192579e-01,1.126160730810606692e-01,1.960004204894913449e-01
2.416666666666666519e+00,1.644629315230459690e+09,9.446261576822752304e-02,2.196456110220575408e-01,1.734310139368875348e+00,-2.852425650935483947e-01,-4.561226548889084631e-01,1.158230127527148240e-01,1.888521967533896562e-01
2.433333333333333126e+00,1.644629315246321917e+09,9.341430236087440442e-02,9.273749063371169998e-02,1.226677657815491873e+00,-2.852425650935483947e-01,-4.710217274024898204e-01,1.188922161980884989e-01,1.794782560285363426e-01
2.450000000000000178e+00,1.644629315262997389e+09,9.224351245140080535e-02,1.367997301474214999e-02,9.104475873396137287e-01,-2.852425650935483947e-01,-4.830282988157538204e-01,1.217939042140026989e-01,1.687540959159386234e-01
2.466666666666666785e+00,1.644629315280813217e+09,9.096114810817391982e-02,-2.483608522739436802e-03,8.457932611896874509e-01,-2.852425650935483947e-01,-4.919797832339642407e-01,1.245148685489445711e-01,1.577920750517183557e-01
2.483333333333333393e+00,1.644629315297571898e+09,8.957873785748800277e-02,-7.437150610336941414e-02,6.543908501121822319e-01,-3.172922915085532591e-01,-4.977333249884656197e-01,1.270439227415991190e-01,1.457279403408665575e-01
2.500000000000000000e+00,1.644629315315322638e+09,8.810832703243764996e-02,-2.139319238201612960e-01,0.000000000000000000e+00,-2.852425650935483947e-01,-5.001673834949231789e-01,1.293539619788049710e-01,1.315162459817426355e-01
2.516666666666666607e+00,1.644629315332967520e+09,8.656236239848925929e-02,-2.379692186314149582e-01,0.000000000000000000e+00,-3.172922915085532591e-01,-4.991831729308060517e-01,1.314259184661758229e-01,1.171584163016681085e-01
2.533333333333333215e+00,1.644629315349143982e+09,8.495357219942631377e-02,-2.139319238201612960e-01,0.000000000000000000e+00,-2.852425650935483947e-01,-4.947059413304177311e-01,1.332644993434275449e-01,1.035092043385733990e-01
2.549999999999999822e+00,1.644629315366266489e+09,8.329484283158376801e-02,-2.139319238201612960e-01,0.000000000000000000e+00,-2.852425650935483947e-01,-4.866860748063207009e-01,1.348785862985605877e-01,9.021815073966565901e-02
2.566666666666666430e+00,1.644629315383230209e+09,8.159909340627176377e-02,-2.139319238201612960e-01,0.000000000000000000e+00,-2.852425650935483947e-01,-4.751000138656671923e-01,1.362745917331850132e-01,7.733827967694409389e-02
2.583333333333333481e+00,1.644629315398836613e+09,7.987914949924018737e-02,-2.139319238201612960e-01,0.000000000000000000e+00,-2.852425650935483947e-01,-4.599509701901166037e-01,1.374598040177866798e-01,6.492168582550446321e-02
2.600000000000000089e+00,1.644629315416929960e+09,7.814761741133349759e-02,-2.379692186314149582e-01,0.000000000000000000e+00,-3.172922915085532591e-01,-4.412694337785381116e-01,1.384390483176467790e-01,5.262179731881182210e-02
2.616666666666666696e+00,1.644629315434502125e+09,7.641676027562251117e-02,-2.379692186314149582e-01,0.000000000000000000e+00,-3.172922915085532591e-01,-4.191134620011397471e-01,1.392180535363435889e-01,4.089141408957244761e-02
2.633333333333333304e+00,1.644629315452716112e+09,7.469837734295167730e-02,-3.579976010770036243e-01,-5.762627090273693131e-01,-2.852425650935483947e-01,-3.935687438692448969e-01,1.397901224434115186e-01,2.779323943340038933e-02
2.649999999999999911e+00,1.644629315468437195e+09,7.300368775980986547e-02,-3.894631138408959359e-01,-7.021247600829385593e-01,-2.852425650935483947e-01,-3.647484346728112059e-01,1.401453322091257281e-01,1.486783719245771650e-02
2.666666666666666519e+00,1.644629315485498667e+09,7.134322011969730648e-02,-3.697971683634632134e-01,-6.234609781732077805e-01,-2.852425650935483947e-01,-3.327927580628282089e-01,1.402940338713649093e-01,3.009303423113677406e-03
2.683333333333333126e+00,1.644629315501777887e+09,6.972670902187293185e-02,-3.507363289007207618e-01,-5.472176203222377522e-01,-2.852425650935483947e-01,-2.978683746421083023e-01,1.402541876766380535e-01,-7.760928774539946340e-03
2.700000000000000178e+00,1.644629315519304514e+09,6.816299980981127549e-02,-3.558797300255877594e-01,-5.677912248217058533e-01,-2.852425650935483947e-01,-2.601675181588468111e-01,1.400408220537747994e-01,-1.781501728808394455e-02
2.716666666666666785e+00,1.644629315537740707e+09,6.665996258636537608e-02,-2.139319238201612960e-01,0.000000000000000000e+00,-2.852425650935483947e-01,-2.199069024551889573e-01,1.396864436828921807e-01,-2.469128602179049975e-02
2.733333333333333393e+00,1.644629315553698301e+09,6.522441651412867747e-02,-2.379692186314149582e-01,0.000000000000000000e+00,-3.172922915085532591e-01,-1.773264043899775710e-01,1.392209717832689764e-01,-3.114740783919050376e-02
2.750000000000000000e+00,1.644629315570657492e+09,6.386206530863208775e-02,-2.139319238201612960e-01,0.000000000000000000e+00,-2.852425650935483947e-01,-1.326875300123447343e-01,1.386582751628784027e-01,-3.636170211600837227e-02
2.766666666666666607e+00,1.644629315587767363e+09,6.257744471970112798e-02,-2.139319238201612960e-01,0.000000000000000000e+00,-2.852425650935483947e-01,-8.627167329239424087e-02,1.380158048200918475e-01,-4.072262505843106395e-02
2.783333333333333215e+00,1.644629315603674412e+09,6.137388267365123662e-02,-2.379692186314149582e-01,0.000000000000000000e+00,-3.172922915085532591e-01,-3.837817869806745691e-02,1.373045497913352730e-01,-4.461715998516586901e-02
2.799999999999999822e+00,1.644629315620808363e+09,6.025347261719024572e-02,-2.139319238201612960e-01,0.000000000000000000e+00,-2.852425650935483947e-01,1.067777917505761780e-02,1.365390194387726686e-01,-4.723919871002164872e-02
2.816666666666666430e+00,1.644629315636585712e+09,5.921706046429327241e-02,-4.905392760597854923e-02,6.595119848567309040e-01,-2.852425650935483947e-01,6.056748388013227097e-02,1.357598144201066503e-01,-4.626810108678640343e-02
2.833333333333333481e+00,1.644629315656071901e+09,5.826424540132281449e-02,-1.448626808027528648e-02,7.977826229595440521e-01,-2.852425650935483947e-01,1.109511165278951467e-01,1.350083937482028651e-01,-4.390893294075562392e-02
2.850000000000000089e+00,1.644629315673718691e+09,5.739339465484268044e-02,1.528032762241361697e-02,9.168490057702995966e-01,-2.852425650935483947e-01,1.614803279400517655e-01,1.343070571928620949e-01,-4.026158545937377070e-02
2.866666666666666696e+00,1.644629315690113544e+09,5.660167217251994842e-02,4.872773892274689239e-02,1.050638650971632782e+00,-2.852425650935483947e-01,2.118009236800194039e-01,1.336775760676872093e-01,-3.528995995748611392e-02
2.883333333333333304e+00,1.644629315706132650e+09,5.588508101188718880e-02,1.437888026184309109e-01,1.430882905754368828e+00,-2.852425650935483947e-01,2.615556407650423965e-01,1.331502707120491014e-01,-2.800691387879011840e-02
2.899999999999999911e+00,1.644629315723757744e+09,5.523851907627169017e-02,2.335367204126171381e-01,1.886023756176128385e+00,-3.172922915085532591e-01,3.103869936997646350e-01,1.327624841577843273e-01,-1.855373208931896875e-02
2.916666666666666519e+00,1.644629315741471291e+09,5.465584768362802270e-02,2.658958591837622953e-01,1.919311132015694366e+00,-2.852425650935483947e-01,3.579401664854265919e-01,1.325419824835046001e-01,-7.935963320552762157e-03
2.933333333333333126e+00,1.644629315759860277e+09,5.412997230406068477e-02,2.358091925595390825e-01,1.798964465518801514e+00,-2.852425650935483947e-01,4.038659264626696110e-01,1.324991647939945116e-01,2.768106352660804417e-03
2.950000000000000178e+00,1.644629315775835037e+09,5.365293465724626371e-02,2.756580222905581912e-01,1.958359784442877949e+00,-2.852425650935483947e-01,4.478235352497616506e-01,1.326448452013654911e-01,1.468045190429516193e-02
2.966666666666666785e+00,1.644629315793059587e+09,5.321601522343801655e-02,3.846421710729837629e-01,2.394296379572580236e+00,-2.852425650935483947e-01,4.894836316505090656e-01,1.330082264204640319e-01,2.888583406392149916e-02
2.983333333333333393e+00,1.644629315811071873e+09,5.280984509290619078e-02,4.444954333998957785e-01,2.633709428880228298e+00,-2.852425650935483947e-01,5.285310612340466951e-01,1.336200621673329925e-01,4.449110656095159322e-02
3.000000000000000000e+00,1.644629315829002619e+09,5.242452596011181604e-02,5.134707169905351476e-01,2.909610563242785997e+00,-2.852425650935483947e-01,5.646676273373125721e-01,1.345043484822560920e-01,6.157579265149262793e-02
3.016666666666666607e+00,1.644629315847901106e+09,5.204975696209414304e-02,4.805034120725033553e-01,2.777741343570658383e+00,-2.852425650935483947e-01,5.976147385132261070e-01,1.356710170308175201e-01,7.837775994602667884e-02
3.033333333333333215e+00,1.644629315860863686e+09,5.167496696685985186e-02,4.395343341161142559e-01,2.613865031745102208e+00,-2.852425650935483947e-01,6.271159279449857182e-01,1.371138137210295982e-01,9.471246762349957993e-02
3.049999999999999822e+00,1.644629315877938509e+09,5.128945083822307460e-02,3.498825003903313635e-01,2.351406876086985065e+00,-3.172922915085532591e-01,6.529392210683988562e-01,1.388177833513480064e-01,1.097221933508266828e-01
3.066666666666666430e+00,1.644629315895356655e+09,5.088250813967910152e-02,3.931240504936424074e-01,2.428223897255214592e+00,-2.852425650935483947e-01,6.748793285871839132e-01,1.407788448493895173e-01,1.255611881707989486e-01
3.083333333333333481e+00,1.644629315913285971e+09,5.044358269243404830e-02,4.276597343231636761e-01,2.662515811818314315e+00,-3.172922915085532591e-01,6.927596432259217618e-01,1.430089416284253401e-01,1.420047476842478673e-01
3.100000000000000089e+00,1.644629315929246902e+09,4.996240137244473134e-02,4.321727029208257131e-01,2.584418506963948037e+00,-2.852425650935483947e-01,7.064340199348726479e-01,1.455133385852491745e-01,1.584771294416856824e-01
3.116666666666666696e+00,1.644629315946227789e+09,4.942911051884387591e-02,3.223883768345643941e-01,2.145281202618902761e+00,-2.852425650935483947e-01,7.157883208316360157e-01,1.482761286192518513e-01,1.730172843687863560e-01
3.133333333333333304e+00,1.644629315963777304e+09,4.883440833184742730e-02,3.164670647861800301e-01,2.121595954425365083e+00,-2.852425650935483947e-01,7.207417079256930315e-01,1.512791125849748952e-01,1.873011132815945445e-01
3.149999999999999911e+00,1.644629315980768204e+09,4.816967166236488240e-02,3.539153626056918966e-01,2.271389145703412549e+00,-2.852425650935483947e-01,7.212476686108962864e-01,1.545234297374575017e-01,2.019761799827217430e-01
3.166666666666666519e+00,1.644629315998444319e+09,4.742707563808802596e-02,3.810894152399246226e-01,2.476234535485358101e+00,-3.172922915085532591e-01,7.172947610133796337e-01,1.580135117235628717e-01,2.167925009341714615e-01
3.183333333333333126e+00,1.644629316015395880e+09,4.659970463160476029e-02,3.647657982416756539e-01,2.410940067492362449e+00,-3.172922915085532591e-01,7.089070685324146970e-01,1.617450728161541618e-01,2.309554876211483421e-01
3.200000000000000178e+00,1.644629316032374382e+09,4.568165315468343535e-02,4.734298761025669822e-01,2.845596378935927984e+00,-3.172922915085532591e-01,6.961443552915491662e-01,1.657239734324069402e-01,2.464694908614641633e-01
3.216666666666666785e+00,1.644629316048537493e+09,4.466811535868722011e-02,5.578005396230342194e-01,3.086929853772782284e+00,-2.852425650935483947e-01,6.791019167082051888e-01,1.699685973754862245e-01,2.628399078572388747e-01
3.233333333333333393e+00,1.644629316066028357e+09,4.355546193329927485e-02,4.918339540907888385e-01,2.919212690888814965e+00,-3.172922915085532591e-01,6.579101219713597848e-01,1.744717621526923057e-01,2.774991443477352604e-01
3.250000000000000000e+00,1.644629316082990408e+09,4.234130332336676766e-02,5.457659043693163792e-01,3.134940492002925350e+00,-3.172922915085532591e-01,6.327336478675541498e-01,1.792211945177321353e-01,2.923913711866432674e-01
3.266666666666666607e+00,1.644629316098980188e+09,4.102453832551358065e-02,6.128207624307500101e-01,3.403159924248659873e+00,-3.172922915085532591e-01,6.037704060931421424e-01,1.842220349746668262e-01,3.076670502051067624e-01
3.283333333333333215e+00,1.644629316116012812e+09,3.960538728084932875e-02,5.638499114360039366e-01,3.207276520269676023e+00,-3.172922915085532591e-01,5.712501689119678927e-01,1.894641046077405189e-01,3.213433152444992724e-01
3.299999999999999822e+00,1.644629316132761955e+09,3.808540924611148598e-02,5.692911171020867966e-01,3.229041342934007019e+00,-3.172922915085532591e-01,5.354329007392540918e-01,1.949280274620092401e-01,3.342914593542528623e-01
3.316666666666666430e+00,1.644629316149370432e+09,3.646750270119376164e-02,5.598490249168253108e-01,3.191272974192961076e+00,-3.172922915085532591e-01,4.966068059300963178e-01,2.005992974879099167e-01,3.462277865091342166e-01
3.333333333333333481e+00,1.644629316167469025e+09,3.475588953445702539e-02,5.683628800336659737e-01,3.129179215415309301e+00,-2.852425650935483947e-01,4.550861057005289312e-01,2.064632987263463337e-01,3.574212683662677525e-01
3.350000000000000089e+00,1.644629316185680628e+09,3.295608223654675206e-02,5.433653724578093591e-01,3.125338364356897269e+00,-3.172922915085532591e-01,4.112085596865059367e-01,2.125027988896671383e-01,3.672913337386855548e-01
3.366666666666666696e+00,1.644629316203278542e+09,3.107483442660373407e-02,3.970929613166390704e-01,2.540248719792216114e+00,-3.172922915085532591e-01,3.653327501275333566e-01,2.186788972760545791e-01,3.738223305430343202e-01
3.383333333333333304e+00,1.644629316217673063e+09,2.912007502968845876e-02,3.359594153035896924e-01,2.295714535740018825e+00,-3.172922915085532591e-01,3.178351490235544752e-01,2.249479393564001728e-01,3.784498645348078338e-01
3.399999999999999911e+00,1.644629316233426094e+09,2.710082661874804386e-02,3.245968975891224684e-01,2.250264464882149706e+00,-3.172922915085532591e-01,2.691069908336683469e-01,2.312851680918319441e-01,3.820077006064225844e-01
3.416666666666666519e+00,1.644629316251399755e+09,2.502710862638708386e-02,1.844058339571036653e-01,1.689500210354074605e+00,-3.172922915085532591e-01,2.195509753412669962e-01,2.376549947237834859e-01,3.823704874627771866e-01
3.433333333333333126e+00,1.644629316270349503e+09,2.290982631883364123e-02,1.616807985281690785e-01,1.598600068638336147e+00,-3.172922915085532591e-01,1.695778271817931226e-01,2.440207765856478028e-01,3.815256826960788938e-01
3.449999999999999734e+00,1.644629316286397696e+09,2.076064660468135425e-02,1.421564723145774811e-01,1.520502763783969646e+00,-3.172922915085532591e-01,1.196027401971558740e-01,2.503629957592938826e-01,3.795461170642950299e-01
3.466666666666666785e+00,1.644629316304348707e+09,1.859186192206867955e-02,4.757551500119489019e-02,1.142178934530439394e+00,-3.172922915085532591e-01,7.004173622715202663e-02,2.566525866313879023e-01,3.752168137126734582e-01
3.483333333333333393e+00,1.644629316320858002e+09,1.641624360789543241e-02,-6.444930753580641047e-02,6.940796443824341910e-01,-3.172922915085532591e-01,2.130796915668822789e-02,2.628484163565502074e-01,3.683019616811925023e-01
3.500000000000000000e+00,1.644629316337558985e+09,1.424688629946796285e-02,-2.379692186314149582e-01,0.000000000000000000e+00,-3.172922915085532591e-01,-2.619199400577677112e-02,2.688994262553523473e-01,3.578482649051038522e-01
3.516666666666666607e+00,1.644629316353629351e+09,1.209704505078356904e-02,-2.379692186314149582e-01,0.000000000000000000e+00,-3.172922915085532591e-01,-7.206188255093638750e-02,2.747713161724741893e-01,3.468091899682761436e-01
3.533333333333333215e+00,1.644629316371560097e+09,9.979966960736837145e-03,-2.379692186314149582e-01,0.000000000000000000e+00,-3.172922915085532591e-01,-1.159193891069148497e-01,2.804546886091648927e-01,3.352276740692799462e-01
3.549999999999999822e+00,1.644629316388876438e+09,7.908719207334711718e-03,-2.139319238201612960e-01,0.000000000000000000e+00,-2.852425650935483947e-01,-1.573997612719960359e-01,2.859442261790794415e-01,3.235492750811628238e-01
3.566666666666666430e+00,1.644629316404244184e+09,5.896015459123629850e-03,-2.379692186314149582e-01,0.000000000000000000e+00,-3.172922915085532591e-01,-1.961592849728139576e-01,2.912320632642473872e-01,3.110259629359243827e-01
3.583333333333333481e+00,1.644629316423099279e+09,3.954042691264767276e-03,-2.379692186314149582e-01,0.000000000000000000e+00,-3.172922915085532591e-01,-2.318786271220577289e-01,2.963079746330897213e-01,2.981192541378575034e-01
3.600000000000000089e+00,1.644629316439092875e+09,2.094290468064956539e-03,-2.379692186314149582e-01,0.000000000000000000e+00,-3.172922915085532591e-01,-2.642660058841495574e-01,3.011660835087752175e-01,2.848905581869125569e-01
3.616666666666666696e+00,1.644629316455611229e+09,3.273847655144174348e-04,-2.379692186314149582e-01,0.000000000000000000e+00,-3.172922915085532591e-01,-2.930601578811414254e-01,3.058015642100558873e-01,2.714045878770893205e-01
3.633333333333333304e+00,1.644629316474624395e+09,-1.337071604028440336e-03,-2.379692186314149582e-01,0.000000000000000000e+00,-3.172922915085532591e-01,-3.180330729797870570e-01,3.102106921569602327e-01,2.577287550699982610e-01
3.649999999999999911e+00,1.644629316491586685e+09,-2.890649937701489283e-03,-2.379692186314149582e-01,0.000000000000000000e+00,-3.172922915085532591e-01,-3.389924688870531999e-01,3.143908835477100538e-01,2.439325355539406215e-01
3.666666666666666519e+00,1.644629316507981777e+09,-4.326235989549420159e-03,-2.379692186314149582e-01,0.000000000000000000e+00,-3.172922915085532591e-01,-3.557839796357942785e-01,3.183407242354059918e-01,2.300868082284578953e-01
3.683333333333333126e+00,1.644629316524240017e+09,-5.638157831982719241e-03,-2.139319238201612960e-01,0.000000000000000000e+00,-2.852425650935483947e-01,-3.682930341525944562e-01,3.220633074660790851e-01,2.166604756982388746e-01
3.699999999999999734e+00,1.644629316540757656e+09,-6.822299448043420492e-03,-2.379692186314149582e-01,0.000000000000000000e+00,-3.172922915085532591e-01,-3.764464034514412583e-01,3.255595267490745126e-01,2.029239960471958537e-01
3.716666666666666785e+00,1.644629316558877945e+09,-7.876198397445938193e-03,-2.379692186314149582e-01,0.000000000000000000e+00,-3.172922915085532591e-01,-3.802133975728947957e-01,3.288281816948683822e-01,1.893522974979968132e-01
3.733333333333333393e+00,1.644629316576498508e+09,-8.799126046565545686e-03,-2.379692186314149582e-01,0.000000000000000000e+00,-3.172922915085532591e-01,-3.796066961698068565e-01,3.318725999925182801e-01,1.760149472869932119e-01
3.750000000000000000e+00,1.644629316593481302e+09,-9.592149019461097131e-03,-2.379692186314149582e-01,0.000000000000000000e+00,-3.172922915085532591e-01,-3.746827996061078414e-01,3.346972513725011700e-01,1.629794289363849513e-01
3.766666666666666607e+00,1.644629316609539032e+09,-1.025817071216785469e-02,-2.379692186314149582e-01,0.000000000000000000e+00,-3.172922915085532591e-01,-3.655420905616115768e-01,3.373077071049003783e-01,1.503104513841019840e-01
3.783333333333333215e+00,1.644629316627371788e+09,-1.080195191416773171e-02,-2.379692186314149582e-01,0.000000000000000000e+00,-3.172922915085532591e-01,-3.523284993985331681e-01,3.397105881247338144e-01,1.380692750637694255e-01
3.799999999999999822e+00,1.644629316643339396e+09,-1.123010979720586583e-02,-2.379692186314149582e-01,0.000000000000000000e+00,-3.172922915085532591e-01,-3.352287699176693669e-01,3.419135021197778901e-01,1.263130612595739499e-01
3.816666666666666430e+00,1.644629316659449100e+09,-1.155109476037671778e-02,-2.379692186314149582e-01,0.000000000000000000e+00,-3.172922915085532591e-01,-3.144713255867669921e-01,3.439249700207703819e-01,1.150942509549451043e-01
3.833333333333333481e+00,1.644629316678394318e+09,-1.177514485932937109e-02,-2.379692186314149582e-01,0.000000000000000000e+00,-3.172922915085532591e-01,-2.903247398309955485e-01,3.457543424361692042e-01,1.044599792318394171e-01
3.850000000000000089e+00,1.644629316695329189e+09,-1.191421779414614766e-02,-2.620065134426695641e-01,0.000000000000000000e+00,-3.493420179235594003e-01,-2.630958175064949112e-01,3.474083866296175382e-01,9.405422952257166958e-02
3.866666666666666696e+00,1.644629316711285830e+09,-1.198190068232971896e-02,-2.379692186314149582e-01,0.000000000000000000e+00,-3.172922915085532591e-01,-2.331272982018434414e-01,3.488978982185798050e-01,8.471310931972178548e-02
3.883333333333333304e+00,1.644629316728382826e+09,-1.199329809774708072e-02,-2.620065134426695641e-01,0.000000000000000000e+00,-3.493420179235594003e-01,-2.007951954984692478e-01,3.502341603540161663e-01,7.566348536859975049e-02
3.899999999999999911e+00,1.644629316747825861e+09,-1.196489911058132294e-02,-2.620065134426695641e-01,0.000000000000000000e+00,-3.493420179235594003e-01,-1.665057897385228691e-01,3.514255814320091376e-01,6.733019257092023868e-02
3.916666666666666519e+00,1.644629316761899710e+09,-1.191442431456089628e-02,-2.620065134426695641e-01,0.000000000000000000e+00,-3.493420179235594003e-01,-1.306922951667953692e-01,3.524842118730068807e-01,5.972658198643140959e-02
3.933333333333333126e+00,1.644629316778644085e+09,-1.186065407316327230e-02,-2.620065134426695641e-01,0.000000000000000000e+00,-3.493420179235594003e-01,-9.381122550162286633e-02,3.534222597171624569e-01,5.285823849320427786e-02
3.949999999999999734e+00,1.644629316796644449e+09,-1.182323945334335866e-02,-2.620065134426695641e-01,0.000000000000000000e+00,-3.493420179235594003e-01,-5.633848501862148694e-02,3.542519595824079603e-01,4.672278865360390138e-02
3.966666666666666785e+00,1.644629316814629316e+09,-1.182249754090597404e-02,-4.048619786701314061e-01,-5.714218609098474788e-01,-3.493420179235594003e-01,-1.876521507202229960e-02,3.549657077523750703e-01,3.894858725460086796e-02
3.983333333333333393e+00,1.644629316830605984e+09,-1.187919304323395431e-02,-4.039543196480960274e-01,-5.677912248217058533e-01,-3.493420179235594003e-01,1.840657139631482822e-02,3.555562192276134903e-01,3.193227997516608768e-02
4.000000000000000000e+00,1.644629316849579096e+09,-1.201430828014943275e-02,-3.979032595011935958e-01,-5.435869842340964597e-01,-3.493420179235594003e-01,5.466853242637562116e-02,3.560366056396550016e-01,2.573131477854429666e-02
4.016666666666666607e+00,1.644629316865537405e+09,-1.224880383984134138e-02,-4.084926147582727540e-01,-5.859444052624130927e-01,-3.493420179235594003e-01,8.951067963616880785e-02,3.564178489198858157e-01,2.003370591294508646e-02
4.033333333333333215e+00,1.644629316881640434e+09,-1.260337233171892474e-02,-4.379758637017386325e-01,-6.077282217912615137e-01,-3.813917443385642647e-01,1.224261619630910986e-01,3.567053930707236309e-01,1.448700006646316818e-02
4.049999999999999822e+00,1.644629316897823095e+09,-1.309818779973583383e-02,-4.835257605798622405e-01,-8.860769885487707054e-01,-3.493420179235594003e-01,1.529161101474350026e-01,3.568991781502711680e-01,8.783054146375189955e-03
4.066666666666666430e+00,1.644629316914908648e+09,-1.375265346629045253e-02,-5.125708492849936349e-01,-1.002257343369296505e+00,-3.493420179235594003e-01,1.804945003599031927e-01,3.569984827152128393e-01,3.149143766015351925e-03
4.083333333333333037e+00,1.644629316932882786e+09,-1.458515055663457162e-02,-5.927473962314501188e-01,-1.322963531155122441e+00,-3.493420179235594003e-01,2.046929945208223467e-01,3.569969352157458808e-01,-3.316882096361498805e-03
4.099999999999999645e+00,1.644629316950106621e+09,-1.561279100546241957e-02,-6.751774214603116775e-01,-1.556534452825554027e+00,-3.813917443385642647e-01,2.250657143588998821e-01,3.568799423233057211e-01,-1.070175098894489071e-02
4.116666666666666252e+00,1.644629316966439009e+09,-1.685117686993248959e-02,-6.270714932924378315e-01,-1.364110740154058643e+00,-3.813917443385642647e-01,2.411939061205071178e-01,3.566497603331277855e-01,-1.690286211829912510e-02
4.133333333333332860e+00,1.644629316984292984e+09,-1.831416926599793021e-02,-5.540206112912748893e-01,-1.168056391394421523e+00,-3.493420179235594003e-01,2.526904530742060673e-01,3.563287607244312594e-01,-2.160403181322043120e-02
4.150000000000000355e+00,1.644629317000906467e+09,-2.001366960712294002e-02,-6.423660894360495588e-01,-1.521438303973519979e+00,-3.493420179235594003e-01,2.592041935621859361e-01,3.559187549749532331e-01,-2.758005766164013661e-02
4.166666666666666963e+00,1.644629317019125223e+09,-2.195941585607431162e-02,-6.945408139303993478e-01,-1.633988022705904486e+00,-3.813917443385642647e-01,2.604240033314152991e-01,3.554029362880933851e-01,-3.429951915143003571e-02
4.183333333333333570e+00,1.644629317035115004e+09,-2.415879640167776371e-02,-6.968256307581708331e-01,-1.739276469262005742e+00,-3.493420179235594003e-01,2.560826022296376903e-01,3.547751394552507986e-01,-4.101743946072965163e-02
4.200000000000000178e+00,1.644629317052778482e+09,-2.661668404367338592e-02,-7.635228996050863470e-01,-1.909916365404652705e+00,-3.813917443385642647e-01,2.459600470684795426e-01,3.540256947740021420e-01,-4.889404232175779963e-02
4.216666666666666785e+00,1.644629317068965673e+09,-2.933529241095664264e-02,-7.547488623920780570e-01,-1.874820216552618879e+00,-3.813917443385642647e-01,2.298868745291050009e-01,3.531450531385070812e-01,-5.676110048397893515e-02
4.233333333333333393e+00,1.644629317086951256e+09,-3.231405695265498340e-02,-6.990791090405762409e-01,-1.652141203146611614e+00,-3.813917443385642647e-01,2.077468604019568621e-01,3.521390116132858128e-01,-6.394392976940134476e-02
4.250000000000000000e+00,1.644629317103906870e+09,-3.554954242914194068e-02,-6.425016966670388241e-01,-1.425831553652462391e+00,-3.813917443385642647e-01,1.794793641960360231e-01,3.510181585423526873e-01,-7.054011557298492385e-02
4.266666666666666607e+00,1.644629317119863987e+09,-3.903537859296470763e-02,-6.226688054132512029e-01,-1.250350809392293705e+00,-4.134414707535703504e-01,1.450812312059198694e-01,3.497862683513780491e-01,-7.726801828546583928e-02
4.283333333333333215e+00,1.644629317135982037e+09,-4.276222548986698818e-02,-6.096590260974110720e-01,-1.198311692128933403e+00,-4.134414707535703504e-01,1.046082274648144073e-01,3.484393824755474545e-01,-8.433864572017851780e-02
4.299999999999999822e+00,1.644629317153675318e+09,-4.671776952988689058e-02,-7.761987873682156813e-01,-1.768321557967137192e+00,-4.454911971685752703e-01,5.817598661505821167e-02,3.469462136085278425e-01,-9.481252353237820674e-02
4.316666666666666430e+00,1.644629317169877529e+09,-5.088675118052336105e-02,-8.152281253157361851e-01,-1.924438909757218541e+00,-4.454911971685752703e-01,5.960451566733099109e-03,3.452673239811477335e-01,-1.066214284674814883e-01
4.333333333333333037e+00,1.644629317186784744e+09,-5.525102482100364282e-02,-7.244622231122005429e-01,-1.561375300943075972e+00,-4.454911971685752703e-01,-5.180220213916267302e-02,3.433978087485080044e-01,-1.176896536556978345e-01
4.349999999999999645e+00,1.644629317205267191e+09,-5.978965097176480725e-02,-6.660694926945924799e-01,-1.327804379272644164e+00,-4.454911971685752703e-01,-1.148161701252747025e-01,3.413447135572115765e-01,-1.286513195113991870e-01
4.366666666666666252e+00,1.644629317221494198e+09,-6.447902077955017242e-02,-6.707433950357595265e-01,-1.250350809392293705e+00,-4.775409235835813559e-01,-1.827271546298320781e-01,3.391004125049554285e-01,-1.406315276202362574e-01
4.383333333333332860e+00,1.644629317238096714e+09,-6.929301229939979767e-02,-6.943425296086787046e-01,-1.344747347683971084e+00,-4.775409235835813559e-01,-2.551240316460013369e-01,3.366448370128538592e-01,-1.540003948157126767e-01
4.400000000000000355e+00,1.644629317253336906e+09,-7.420317777371604473e-02,-6.722561600724851205e-01,-1.256401869539196303e+00,-4.775409235835813559e-01,-3.315410452394513263e-01,3.339607894064354210e-01,-1.680463006311598839e-01
4.416666666666666963e+00,1.644629317272087812e+09,-7.917896076900120261e-02,-6.655999939108924179e-01,-1.229777204892825493e+00,-4.775409235835813559e-01,-4.114605199628883492e-01,3.310344642325444564e-01,-1.830709840218319173e-01
4.433333333333333570e+00,1.644629317290078163e+09,-8.418794169644717995e-02,-6.173271199666627851e-01,-9.405365298708923127e-01,-5.095906499985862759e-01,-4.943160777207079026e-01,3.278550263080316496e-01,-1.984189327254419488e-01
4.450000000000000178e+00,1.644629317307027817e+09,-8.919610991677312528e-02,-5.419914211377281354e-01,-6.391937345551539362e-01,-5.095906499985862759e-01,-5.794963409162062762e-01,3.244205493686493358e-01,-2.136759184869585493e-01
4.466666666666666785e+00,1.644629317324609518e+09,-9.416816031621415284e-02,-3.821929874989397069e-01,0.000000000000000000e+00,-5.095906499985862759e-01,-6.663490992769084409e-01,3.207439719287951130e-01,-2.274750424933684734e-01
4.483333333333333393e+00,1.644629317340117693e+09,-9.906781194271721547e-02,-3.821929874989397069e-01,0.000000000000000000e+00,-5.095906499985862759e-01,-7.541859134403987586e-01,3.168271829661268857e-01,-2.424979018796892261e-01
4.500000000000000000e+00,1.644629317356171608e+09,-1.038581460126617728e-01,-4.062302823101942573e-01,0.000000000000000000e+00,-5.416403764135924170e-01,-8.422871242304277306e-01,3.126465993521735376e-01,-2.591259417080795657e-01
4.516666666666666607e+00,1.644629317373662710e+09,-1.085019603419490331e-01,-4.062302823101942573e-01,0.000000000000000000e+00,-5.416403764135924170e-01,-9.299072326003947619e-01,3.081790762811503770e-01,-2.769273772188995952e-01
4.533333333333333215e+00,1.644629317391120195e+09,-1.129621370241430112e-01,-4.062302823101942573e-01,0.000000000000000000e+00,-5.416403764135924170e-01,-1.016280611503196818e+00,3.034053914272434871e-01,-2.958622072618825594e-01
4.549999999999999822e+00,1.644629317408386946e+09,-1.172020199753520536e-01,-4.302675771214479750e-01,0.000000000000000000e+00,-5.736901028285972259e-01,-1.100627507499333246e+00,2.983037712822788068e-01,-3.162755051939308837e-01
4.566666666666666430e+00,1.644629317425152540e+09,-1.211857987932534186e-01,-4.302675771214479750e-01,0.000000000000000000e+00,-5.736901028285972259e-01,-1.182160286771056557e+00,2.928534876518538166e-01,-3.376990192950476422e-01
4.583333333333333037e+00,1.644629317440952539e+09,-1.248788952383832335e-01,-4.302675771214479750e-01,0.000000000000000000e+00,-5.736901028285972259e-01,-1.260089877400568881e+00,2.870383408055918739e-01,-3.600564966908192943e-01
4.599999999999999645e+00,1.644629317458513498e+09,-1.282483485415739088e-01,-4.302675771214479750e-01,0.000000000000000000e+00,-5.736901028285972259e-01,-1.333632357323911055e+00,2.808434996379781112e-01,-3.832599877639615293e-01
4.616666666666666252e+00,1.644629317476590633e+09,-1.312631956738207206e-01,-4.302675771214479750e-01,0.000000000000000000e+00,-5.736901028285972259e-01,-1.402015635313762276e+00,2.742556933644330064e-01,-4.072102350310032315e-01
4.633333333333332860e+00,1.644629317493935823e+09,-1.338948426852582529e-01,-4.302675771214479750e-01,0.000000000000000000e+00,-5.736901028285972259e-01,-1.464486170698586998e+00,2.672633958616885130e-01,-4.317971666585926349e-01
4.650000000000000355e+00,1.644629317509579420e+09,-1.361174232292277630e-01,-4.543048719327025253e-01,0.000000000000000000e+00,-6.057398292436033671e-01,-1.520315676310353137e+00,2.598536808820897659e-01,-4.572977941497115006e-01
4.666666666666666963e+00,1.644629317526542902e+09,-1.379081404361916507e-01,-5.939991998557229147e-01,-6.549264909370998700e-01,-5.736901028285972259e-01,-1.568807748386520151e+00,2.519964852042314019e-01,-4.854873809425571674e-01
4.683333333333333570e+00,1.644629317544326067e+09,-1.392475883906292289e-01,-6.377024401444102431e-01,-7.335902728468309819e-01,-6.057398292436033671e-01,-1.609304366845235590e+00,2.436617269131157171e-01,-5.146027361012689427e-01
4.700000000000000178e+00,1.644629317561981678e+09,-1.401200495917972744e-01,-6.484587411778443000e-01,-8.727646562255855223e-01,-5.736901028285972259e-01,-1.641192209516508571e+00,2.348398440996637138e-01,-5.439417024660561095e-01
4.716666666666666785e+00,1.644629317578477383e+09,-1.405137649456697224e-01,-6.549479615630821039e-01,-8.025723585215180922e-01,-6.057398292436033671e-01,-1.663908724550349660e+00,2.255289969153899676e-01,-5.732784667170062187e-01
4.733333333333333393e+00,1.644629317596427917e+09,-1.404211730394538116e-01,-6.280207439093664634e-01,-6.948634879066557524e-01,-6.057398292436033671e-01,-1.676947906337590055e+00,2.157351738912271777e-01,-6.019007878636259967e-01
4.750000000000000000e+00,1.644629317612838507e+09,-1.398391156902897836e-01,-6.180364946669775206e-01,-6.549264909370998700e-01,-6.057398292436033671e-01,-1.679865721867637829e+00,2.054692415299161912e-01,-6.299332257778919031e-01
4.766666666666666607e+00,1.644629317628926039e+09,-1.387690070342607884e-01,-5.941348070867130682e-01,-5.593197406160425045e-01,-6.057398292436033671e-01,-1.672285136502573266e+00,1.947443220715941448e-01,-6.569819720460580159e-01
4.783333333333333215e+00,1.644629317645948887e+09,-1.372169637284102184e-01,-5.935297010720229638e-01,-5.568993165572816428e-01,-6.057398292436033671e-01,-1.653900690658654193e+00,1.835749490081783897e-01,-6.832697721781535449e-01
4.799999999999999822e+00,1.644629317663651705e+09,-1.351938941744603717e-01,-4.783421667439561875e-01,0.000000000000000000e+00,-6.377895556586082870e-01,-1.624482581839299389e+00,1.719910498302177071e-01,-7.067329521432471617e-01
4.816666666666666430e+00,1.644629317679981709e+09,-1.327155450354454425e-01,-4.783421667439561875e-01,0.000000000000000000e+00,-6.377895556586082870e-01,-1.583880209839574338e+00,1.600249464188430448e-01,-7.291372216749313351e-01
4.833333333333333037e+00,1.644629317695984602e+09,-1.298025037022434991e-01,-4.543048719327025253e-01,0.000000000000000000e+00,-6.057398292436033671e-01,-1.532025146718783537e+00,1.476990152945061308e-01,-7.499167908614525757e-01
4.849999999999999645e+00,1.644629317713334084e+09,-1.264801557724402059e-01,-4.783421667439561875e-01,0.000000000000000000e+00,-6.377895556586082870e-01,-1.468933497288623435e+00,1.350350223084719470e-01,-7.697073922759614106e-01
4.866666666666666252e+00,1.644629317729821682e+09,-1.227785970253833653e-01,-2.876664856500811829e-01,6.665535451304852588e-01,-6.057398292436033671e-01,-1.394707620360252642e+00,1.220805077886438633e-01,-7.847924461896389481e-01
4.883333333333332860e+00,1.644629317746865511e+09,-1.187324998105704216e-01,-2.671819466718866609e-01,7.484917010432634576e-01,-6.057398292436033671e-01,-1.309537185801669557e+00,1.088912523764250795e-01,-7.978818429853127281e-01
4.900000000000000355e+00,1.644629317763174295e+09,-1.143809342075756408e-01,-2.711828331910652867e-01,7.324881549665489544e-01,-6.057398292436033671e-01,-1.213699547540909807e+00,9.549833280293615334e-02,-8.092369630906900424e-01
4.916666666666666963e+00,1.644629317779683113e+09,-1.097671447601819006e-01,-2.023675850611930949e-01,1.007749147486037833e+00,-6.057398292436033671e-01,-1.107559417972489468e+00,8.194189452661115869e-02,-8.175126415315930872e-01
4.933333333333333570e+00,1.644629317795559406e+09,-1.049382840308353826e-01,-1.326240998628998857e-01,1.382872267524225318e+00,-6.377895556586082870e-01,-9.915678347429071060e-01,6.827432513743439402e-02,-8.225816043858464877e-01
4.950000000000000178e+00,1.644629317810945034e+09,-9.994510465957724688e-02,-6.441701787991432893e-02,1.559551416211152786e+00,-6.057398292436033671e-01,-8.662604165622923569e-01,5.454970148101953575e-02,-8.243682713034683474e-01
4.966666666666666785e+00,1.644629317827410460e+09,-9.484161203965851827e-02,-1.208542220905793260e-02,1.768877798894578302e+00,-6.057398292436033671e-01,-7.322549104693749644e-01,4.082128379144292496e-02,-8.230455258251989648e-01
4.983333333333333393e+00,1.644629317843895912e+09,-8.968468013579063147e-02,3.048401035500255055e-02,1.939155529150820234e+00,-6.057398292436033671e-01,-5.902480388174851100e-01,2.714022293280856507e-02,-8.186938654409393612e-01
5.000000000000000000e+00,1.644629317862443924e+09,-8.453363336601768530e-02,-3.369020941262246965e-02,1.682458650080320250e+00,-6.057398292436033671e-01,-4.410116601046987217e-01,1.354283752157864340e-02,-8.130081778549981264e-01
5.016666666666666607e+00,1.644629317877437592e+09,-7.892276912649374976e-02,-2.424811722736100461e-02,1.720227018821365972e+00,-6.057398292436033671e-01,-2.853882635908926435e-01,6.222718777008570679e-05,-8.046881738681604945e-01
5.033333333333333215e+00,1.644629317893265009e+09,-7.351259049482168628e-02,-1.816676971820943218e-02,1.744552408857972470e+00,-6.057398292436033671e-01,-1.234613757503351117e-01,-1.325766019472884687e-02,-7.937287555768040015e-01
5.049999999999999822e+00,1.644629317912382841e+09,-6.836211721476749548e-02,6.409145711610289564e-02,2.073585316195221573e+00,-6.057398292436033671e-01,4.078237913069160392e-02,-2.636235734931609287e-02,-7.788761611514368743e-01
5.066666666666666430e+00,1.644629317929595947e+09,-6.352928852552072736e-02,4.984830110782703660e-02,2.016612692162118137e+00,-6.057398292436033671e-01,2.062856298388733856e-01,-3.920067059147921973e-02,-7.617689490601620150e-01
5.083333333333333037e+00,1.644629317946574450e+09,-5.907047115876646465e-02,8.559152229903723222e-03,1.851456096650424987e+00,-6.057398292436033671e-01,3.719731572496010052e-01,-5.173904452267699683e-02,-7.428883699709725175e-01
5.099999999999999645e+00,1.644629317962375879e+09,-5.503997765416472621e-02,-1.032503214061935778e-02,1.775919359168332656e+00,-6.057398292436033671e-01,5.367598092656233888e-01,-6.394519780909395379e-02,-7.219083037324721674e-01
5.116666666666666252e+00,1.644629317978370190e+09,-5.148959936160439621e-02,3.400479049187970365e-02,1.953238649698328944e+00,-6.057398292436033671e-01,6.995585271713724573e-01,-7.577597240471622975e-02,-6.978514738424623776e-01
5.133333333333332860e+00,1.644629317995884895e+09,-4.846815837420202777e-02,-6.644216542975022247e-03,1.790642621558909964e+00,-6.057398292436033671e-01,8.592884216330654024e-01,-8.719267506526376388e-02,-6.722240344304133419e-01
5.150000000000000355e+00,1.644629318013862610e+09,-4.602108247138468611e-02,-4.153194699021262037e-02,1.651091699769959620e+00,-6.057398292436033671e-01,1.014882836062905858e+00,-9.816912134290858849e-02,-6.450250733348903420e-01
5.166666666666666963e+00,1.644629318030177832e+09,-4.419000694812673380e-02,-5.932785883154760576e-02,1.676057231649634272e+00,-6.377895556586082870e-01,1.165297335042883020e+00,-1.086776909909442645e-01,-6.160836790833323917e-01
5.183333333333333570e+00,1.644629318047131300e+09,-4.301240696635789951e-02,-8.564642072180706639e-03,1.782960919442087233e+00,-6.057398292436033671e-01,1.309517555967971481e+00,-1.186809702582314885e-01,-5.843978512511153189e-01
5.200000000000000178e+00,1.644629318065206766e+09,-4.252126379003139806e-02,-9.322340081800027656e-02,1.444325884458808940e+00,-6.057398292436033671e-01,1.446566863018781568e+00,-1.281532926486589896e-01,-5.523698044906747429e-01
5.216666666666666785e+00,1.644629318081162691e+09,-4.274476795890444492e-02,-1.153402701000482561e-01,1.452007586575631670e+00,-6.377895556586082870e-01,1.575513744001356464e+00,-1.370814825750242827e-01,-5.191053899992876808e-01
5.233333333333333393e+00,1.644629318098110199e+09,-4.370606212063385398e-02,-4.361240798018548720e-02,1.642769855810068069e+00,-6.057398292436033671e-01,1.695478892486597999e+00,-1.454333833564532552e-01,-4.832223811427518445e-01
5.250000000000000000e+00,1.644629318116156816e+09,-4.542302587955834858e-02,-2.200762077662095015e-02,1.729189004624326342e+00,-6.057398292436033671e-01,1.805641920029772862e+00,-1.531739903330399943e-01,-4.457545358452792428e-01
5.266666666666666607e+00,1.644629318133086681e+09,-4.790810463690935855e-02,-3.788310708875018001e-02,1.761836238620823947e+00,-6.377895556586082870e-01,1.905247646031724695e+00,-1.602837434363384439e-01,-4.075220404262645535e-01
5.283333333333333215e+00,1.644629318150508165e+09,-5.116818399485201230e-02,3.244691517842472894e-01,3.115096094867799259e+00,-6.057398292436033671e-01,1.993611915999245365e+00,-1.666993157821394789e-01,-3.624717836174052854e-01
5.299999999999999822e+00,1.644629318167613506e+09,-5.520451087953197333e-02,4.416151090657974843e-01,3.583679923994000038e+00,-6.057398292436033671e-01,2.070126902544074277e+00,-1.723435243322162247e-01,-3.149652082071640047e-01
5.316666666666666430e+00,1.644629318184642792e+09,-6.001266211015913316e-02,4.340614667135597182e-01,3.649614533830063401e+00,-6.377895556586082870e-01,2.134265847404208660e+00,-1.771947026671388536e-01,-2.673085746369452398e-01
5.333333333333333037e+00,1.644629318202276468e+09,-6.558256070620513412e-02,4.998360410888562089e-01,3.912712831331249586e+00,-6.377895556586082870e-01,2.185587207043166558e+00,-1.812420127850656315e-01,-2.185042103834847482e-01
5.349999999999999645e+00,1.644629318218928099e+09,-7.189853978714069727e-02,5.702516438263997012e-01,4.194375242281423333e+00,-6.377895556586082870e-01,2.223738168952555494e+00,-1.844676624471634496e-01,-1.687120638417377028e-01
5.366666666666666252e+00,1.644629318236859083e+09,-7.893945348301062426e-02,5.789255344040075135e-01,4.132921625346840599e+00,-6.057398292436033671e-01,2.248457510612451138e+00,-1.868657080264584380e-01,-1.191909675121684137e-01
5.383333333333332860e+00,1.644629318252850771e+09,-8.667883384364996613e-02,5.087980268918163018e-01,3.948560774543089735e+00,-6.377895556586082870e-01,2.259577778116711233e+00,-1.884533919882280528e-01,-7.146368680025667885e-02
5.400000000000000355e+00,1.644629318268326998e+09,-9.508509231362920200e-02,4.561783359956074757e-01,3.641932831713239782e+00,-6.057398292436033671e-01,2.257026766706022425e+00,-1.892598335922234809e-01,-2.543716015123408114e-02
5.416666666666666963e+00,1.644629318287781000e+09,-1.041217639330629940e-01,4.409749672227287198e-01,3.581119356621725203e+00,-6.057398292436033671e-01,2.240828290829635527e+00,-1.893098608640134406e-01,1.930958808809529748e-02
5.433333333333333570e+00,1.644629318304493427e+09,-1.137477920351083471e-01,2.431711377145378550e-01,2.789904038588961743e+00,-6.057398292436033671e-01,2.211102236835090551e+00,-1.886517159827156564e-01,5.955599944929132472e-02
5.450000000000000178e+00,1.644629318320094109e+09,-1.239178508430093528e-01,2.618952866242937882e-01,2.864800634227985032e+00,-6.057398292436033671e-01,2.168063896921093026e+00,-1.873317147213438838e-01,9.873531791367598509e-02
5.466666666666666785e+00,1.644629318337469101e+09,-1.345827030264229451e-01,2.865407475824342520e-01,2.963382478060547331e+00,-6.057398292436033671e-01,2.112022588538551737e+00,-1.853684726960265483e-01,1.367481314903750966e-01
5.483333333333333393e+00,1.644629318353941202e+09,-1.456895889617181306e-01,2.129244356295474927e-01,2.668917230248999850e+00,-6.057398292436033671e-01,2.043379568945169478e+00,-1.827965830563992311e-01,1.717813085936597262e-01
5.500000000000000000e+00,1.644629318369719267e+09,-1.571826441569782462e-01,2.209262086679047443e-01,2.700924322402428857e+00,-6.057398292436033671e-01,1.962625260066773514e+00,-1.796556945481708745e-01,2.050329445643426785e-01
5.516666666666666607e+00,1.644629318386817217e+09,-1.690033410521900592e-01,2.315205247747192940e-01,2.647152407584668854e+00,-5.736901028285972259e-01,1.870335804150939252e+00,-1.759764886131236217e-01,2.363846774447230514e-01
5.533333333333333215e+00,1.644629318403803110e+09,-1.810909511909932768e-01,2.134045420118489689e-01,2.670837655778206088e+00,-6.057398292436033671e-01,1.767168975873644410e+00,-1.717958357561032434e-01,2.652135832191275799e-01
5.549999999999999822e+00,1.644629318420584202e+09,-1.933830235842807221e-01,2.108439746395746883e-01,2.660595386289108966e+00,-6.057398292436033671e-01,1.653859481537200526e+00,-1.671546870297654919e-01,2.916508254290694491e-01
5.566666666666666430e+00,1.644629318438499451e+09,-2.058158749496424300e-01,-2.549642521731522449e-02,1.619084607616530835e+00,-5.736901028285972259e-01,1.531213680738452876e+00,-1.621261524781724972e-01,3.117175784694954377e-01
5.583333333333333037e+00,1.644629318455101728e+09,-2.183250874152278254e-01,-3.849127323563687059e-02,1.663254394788262536e+00,-6.057398292436033671e-01,1.400103770352961741e+00,-1.567858474936499602e-01,3.290708151035949824e-01
5.599999999999999645e+00,1.644629318471765518e+09,-2.308460092230573690e-01,-6.025609589996858834e-02,1.576195104130935665e+00,-6.057398292436033671e-01,1.261461474838954544e+00,-1.511808742474630707e-01,3.434859315063911733e-01
5.616666666666666252e+00,1.644629318489301682e+09,-2.433142539554479233e-01,-1.786823368676556389e-01,1.102490140260187435e+00,-6.057398292436033671e-01,1.116271290680958650e+00,-1.453740509164752337e-01,3.533055907389583972e-01
5.633333333333332860e+00,1.644629318507254362e+09,-2.556661938391649458e-01,-2.300537197739090933e-01,8.970046086351737280e-01,-6.057398292436033671e-01,9.655633362381808027e-01,-1.394328341934172877e-01,3.596228676236383204e-01
5.650000000000000355e+00,1.644629318523525000e+09,-2.678394427547227674e-01,-2.803048544547925292e-01,6.960000699116399847e-01,-6.057398292436033671e-01,8.104058613091915664e-01,-1.334155732073690759e-01,3.624406234184967546e-01
5.666666666666666963e+00,1.644629318540378809e+09,-2.797733246921865757e-01,-2.919874430907941076e-01,6.492697153676336708e-01,-6.057398292436033671e-01,6.518974733483661188e-01,-1.273752456771842234e-01,3.623987963926047495e-01
5.683333333333333570e+00,1.644629318556779146e+09,-2.914093235486833744e-01,-3.073508473244400130e-01,5.878160984330500494e-01,-6.057398292436033671e-01,4.911591394517532683e-01,-1.213599327468681127e-01,3.594469549977438727e-01
5.700000000000000178e+00,1.644629318575240850e+09,-3.026915103550313901e-01,-4.783421667439561875e-01,0.000000000000000000e+00,-6.377895556586082870e-01,3.293260249502025228e-01,-1.154393793402096607e-01,3.510427992278561948e-01
5.716666666666666785e+00,1.644629318590370417e+09,-3.135669442475428892e-01,-4.783421667439561875e-01,0.000000000000000000e+00,-6.377895556586082870e-01,1.675392306975040657e-01,-1.096800804829434345e-01,3.401034514364824624e-01
5.733333333333333393e+00,1.644629318609056711e+09,-3.239860437638292234e-01,-5.023794615552107379e-01,0.000000000000000000e+00,-6.698392820736143172e-01,6.937491904459691661e-03,-1.041270955761423866e-01,3.262931003688355758e-01
5.750000000000000000e+00,1.644629318625047445e+09,-3.339029253357284066e-01,-5.264167563664644556e-01,0.000000000000000000e+00,-7.018890084886192371e-01,-1.513510983523962961e-01,-9.882755863677600283e-02,3.096974325174881582e-01
5.766666666666666607e+00,1.644629318642998695e+09,-3.432757061754090344e-01,-5.264167563664644556e-01,0.000000000000000000e+00,-7.018890084886192371e-01,-3.062172780351231083e-01,-9.382371415368588596e-02,2.908163541277049013e-01
5.783333333333333215e+00,1.644629318659214258e+09,-3.520667690990253451e-01,-5.264167563664644556e-01,0.000000000000000000e+00,-7.018890084886192371e-01,-4.565786552529095821e-01,-8.915271443490449532e-02,2.697620975486005879e-01
5.799999999999999822e+00,1.644629318676704407e+09,-3.602429872026561841e-01,-5.264167563664644556e-01,0.000000000000000000e+00,-7.018890084886192371e-01,-6.013875365545674478e-01,-8.484971204295818636e-02,2.466623569413037564e-01
5.816666666666666430e+00,1.644629318693428993e+09,-3.677759066939585431e-01,-5.504540511777180622e-01,0.000000000000000000e+00,-7.339387349036241570e-01,-7.396384850469800432e-01,-8.095093011324364096e-02,2.212620327411775611e-01
5.833333333333333037e+00,1.644629318710459948e+09,-3.746418865862272130e-01,-6.840973189538369637e-01,-6.307222503494905874e-01,-7.018890084886192371e-01,-8.703755511050988991e-01,-7.750849495837267011e-02,1.919117164186576463e-01
5.849999999999999645e+00,1.644629318725792646e+09,-3.808221943754503402e-01,-7.323388543527002970e-01,-7.275392126999286058e-01,-7.339387349036241570e-01,-9.926991210072066973e-01,-7.457473639932617193e-02,1.602273249369460251e-01
5.866666666666666252e+00,1.644629318741065264e+09,-3.863030572413954089e-01,-7.939240606201152239e-01,-1.070029217014603296e+00,-7.018890084886192371e-01,-1.105772331820964904e+00,-7.218879867539725048e-02,1.261797806723324311e-01
5.883333333333332860e+00,1.644629318758125305e+09,-3.910756687367347162e-01,-8.140281663358822639e-01,-1.054296460632656807e+00,-7.339387349036241570e-01,-1.208827004259106497e+00,-7.038262811063394908e-02,9.065935726431932629e-02
5.900000000000000355e+00,1.644629318775026798e+09,-3.951361513495612043e-01,-8.358119828647309069e-01,-1.141431726748051156e+00,-7.339387349036241570e-01,-1.301169048989467392e+00,-6.917932162496873150e-02,5.383970024775080326e-02
5.916666666666666963e+00,1.644629318793088913e+09,-3.984854757402852554e-01,-8.155409313726079690e-01,-1.060347520779559183e+00,-7.339387349036241570e-01,-1.382183305995538847e+00,-6.859298042203526569e-02,1.662462175534822756e-02
5.933333333333333570e+00,1.644629318810079098e+09,-4.011293378598527193e-01,-7.524742986138339695e-01,-9.042301689894780559e-01,-7.018890084886192371e-01,-1.451337781005688443e+00,-6.862259121790731387e-02,-2.007596877577176586e-02
5.950000000000000178e+00,1.644629318828033924e+09,-4.030779955485234711e-01,-7.743937223736717668e-01,-8.957586847838147071e-01,-7.339387349036241570e-01,-1.508187247709486201e+00,-6.926968901720891025e-02,-5.747188714452280273e-02
5.966666666666666785e+00,1.644629318843991280e+09,-4.043460665893714445e-01,-7.837728656013703832e-01,-9.332752576946092837e-01,-7.339387349036241570e-01,-1.552376189418700925e+00,-7.054228583037219780e-02,-9.513510791502738373e-02
5.983333333333333393e+00,1.644629318859814644e+09,-4.049522905445949172e-01,-7.399026795363282671e-01,-7.577945134344404865e-01,-7.339387349036241570e-01,-1.583641058971970716e+00,-7.243565987425858166e-02,-1.319674628462793042e-01
6.000000000000000000e+00,1.644629318880002022e+09,-4.049192570322896478e-01,-7.468613987052659109e-01,-7.856293901101913946e-01,-7.339387349036241570e-01,-1.601811840983704993e+00,-7.494129009633307414e-02,-1.686063866190209981e-01
6.016666666666666607e+00,1.644629318896012545e+09,-4.042731034034028892e-01,-8.044820773318287488e-01,-9.199629253714242116e-01,-7.659884613186302982e-01,-1.606812905958850513e+00,-7.806115780799272041e-02,-2.056747686288726840e-01
6.033333333333333215e+00,1.644629318912999153e+09,-4.030431850503197189e-01,-8.598492776759855127e-01,-1.141431726748051156e+00,-7.659884613186302982e-01,-1.598663151292651463e+00,-8.180023368022115715e-02,-2.429108999061215246e-01
6.049999999999999822e+00,1.644629318929993868e+09,-4.012617218173389344e-01,-8.498650284335965699e-01,-1.101494729778495385e+00,-7.659884613186302982e-01,-1.577475429705594845e+00,-8.615046317920709018e-02,-2.790163447094554661e-01
6.066666666666666430e+00,1.644629318946451664e+09,-3.989634241870280151e-01,-8.955505325427094432e-01,-1.284236746214947322e+00,-7.659884613186302982e-01,-1.543455271184746014e+00,-9.109907441288343788e-02,-3.147178302045700593e-01
6.083333333333333037e+00,1.644629318962069750e+09,-3.961851030831558540e-01,-9.484973088281052345e-01,-1.496023851356530265e+00,-7.659884613186302982e-01,-1.496898909970243885e+00,-9.663866194513931474e-02,-3.499348463189533298e-01
6.099999999999999645e+00,1.644629318979088306e+09,-3.929652672591591456e-01,-9.769372915185462469e-01,-1.609783782118294537e+00,-7.659884613186302982e-01,-1.438190633497571813e+00,-1.027561548822900489e-01,-3.840694854654045365e-01
6.116666666666666252e+00,1.644629318996371984e+09,-3.893437123297355251e-01,-9.993262140620852163e-01,-1.699339472292450193e+00,-7.659884613186302982e-01,-1.367799475439105183e+00,-1.094312136857694684e-01,-4.168465214869449542e-01
6.133333333333332860e+00,1.644629319014887094e+09,-3.853611055514779005e-01,-1.047265196453603275e+00,-1.794946222613507558e+00,-7.980381877336351071e-01,-1.286275280042856739e+00,-1.166433904359928664e-01,-4.485266860116625676e-01
6.150000000000000355e+00,1.644629319031381845e+09,-3.810585704661422213e-01,-1.032137546086347335e+00,-1.734435621144483797e+00,-7.980381877336351071e-01,-1.194244169801296662e+00,-1.243643934266788209e-01,-4.779120449524373315e-01
6.166666666666666963e+00,1.644629319048441172e+09,-3.764772754872335869e-01,-9.923674948931474615e-01,-1.671504595616698952e+00,-7.659884613186302982e-01,-1.092403453061863594e+00,-1.325515343293451331e-01,-5.044710865156878388e-01
6.183333333333333570e+00,1.644629319065288067e+09,-3.716580304376101984e-01,-9.861494889698891875e-01,-1.550483392678651429e+00,-7.980381877336351071e-01,-9.815160124769957140e-01,-1.411614829139554161e-01,-5.286555629551923374e-01
6.200000000000000178e+00,1.644629319083316326e+09,-3.666408949335944745e-01,-9.946209731755526473e-01,-1.584369329501305046e+00,-7.980381877336351071e-01,-8.624042191519077916e-01,-1.501558840392356875e-01,-5.506115817020363901e-01
6.216666666666666785e+00,1.644629319099541903e+09,-3.614648023609003391e-01,-9.005269878912206538e-01,-1.207993388363976850e+00,-7.980381877336351071e-01,-7.359434209520808734e-01,-1.594827230972866439e-01,-5.685592494580404832e-01
6.233333333333333393e+00,1.644629319119456053e+09,-3.561672030011880929e-01,-8.823738074505135254e-01,-1.135380666601148780e+00,-7.980381877336351071e-01,-6.030550566514474298e-01,-1.690853490769201328e-01,-5.837137712134397027e-01
6.250000000000000000e+00,1.644629319133676291e+09,-3.507837296472151034e-01,-8.814661484284781467e-01,-1.131750030513007266e+00,-7.980381877336351071e-01,-4.646994504115481428e-01,-1.789192221573507324e-01,-5.963159914470095302e-01
6.266666666666666607e+00,1.644629319149671316e+09,-3.453478887916783813e-01,-8.418317044662676496e-01,-9.732122546641651661e-01,-7.980381877336351071e-01,-3.218683434598902382e-01,-1.889361893837900874e-01,-6.056940250193394437e-01
6.283333333333333215e+00,1.644629319166625738e+09,-3.398907801926055461e-01,-7.861619511147657224e-01,-7.505332412581577906e-01,-7.980381877336351071e-01,-1.755772217638817689e-01,-1.990802669342576769e-01,-6.115789336835160128e-01
6.299999999999999822e+00,1.644629319184543371e+09,-3.344408473094184764e-01,-7.386611289615822029e-01,-5.605299526454231573e-01,-7.980381877336351071e-01,-2.685749996018158003e-02,-2.092945113898340703e-01,-6.141233330433023552e-01
6.316666666666666430e+00,1.644629319201533318e+09,-3.290236607718126649e-01,-5.985286408002263858e-01,0.000000000000000000e+00,-7.980381877336351071e-01,1.232513772120768514e-01,-2.195107227854957710e-01,-6.118284093741097607e-01
6.333333333333333037e+00,1.644629319218453646e+09,-3.236617366916760274e-01,-5.744913459889726681e-01,0.000000000000000000e+00,-7.659884613186302982e-01,2.737098542214755348e-01,-2.296649009862676560e-01,-6.066872560361294964e-01
6.349999999999999645e+00,1.644629319235410690e+09,-3.183743912600889292e-01,-5.985286408002263858e-01,0.000000000000000000e+00,-7.980381877336351071e-01,4.234861430254143189e-01,-2.397167362641471344e-01,-5.995527957211636005e-01
6.366666666666666252e+00,1.644629319252362013e+09,-3.131776326906946517e-01,-5.744913459889726681e-01,0.000000000000000000e+00,-7.659884613186302982e-01,5.715639990178225105e-01,-2.496268766548195850e-01,-5.896914444466769822e-01
6.383333333333332860e+00,1.644629319271312952e+09,-3.080840911812673388e-01,-5.744913459889726681e-01,0.000000000000000000e+00,-7.659884613186302982e-01,7.169503342879318675e-01,-2.593539424125047566e-01,-5.775900622173425480e-01
6.400000000000000355e+00,1.644629319289263248e+09,-3.031029871710926304e-01,-5.744913459889726681e-01,0.000000000000000000e+00,-7.659884613186302982e-01,8.586826092578656588e-01,-2.688614137827802231e-01,-5.633460697925855021e-01
6.416666666666666963e+00,1.644629319305256128e+09,-2.982401377767874839e-01,-5.264167563664644556e-01,0.000000000000000000e+00,-7.018890084886192371e-01,9.958359456521902464e-01,-2.781078688930859744e-01,-5.462759615275176728e-01
6.433333333333333570e+00,1.644629319320215225e+09,-2.934980008973465115e-01,-3.588181573192402718e-01,6.703943961888966241e-01,-7.018890084886192371e-01,1.127529906084673295e+00,-2.870308414931913021e-01,-5.245411264479884483e-01
6.450000000000000178e+00,1.644629319337135315e+09,-2.888757560945258707e-01,-3.123758980005862940e-01,7.600142542184978867e-01,-6.698392820736143172e-01,1.252934888307916994e+00,-2.955708332414887507e-01,-5.003251515279021344e-01
6.466666666666666785e+00,1.644629319357114077e+09,-2.843694209809457529e-01,-2.596922557120128205e-01,8.745996441277734679e-01,-6.377895556586082870e-01,1.371278085337066521e+00,-3.036869478179398119e-01,-4.736826064577002171e-01
6.483333333333333393e+00,1.644629319371335983e+09,-2.799720014892714826e-01,-1.940457411013014888e-01,1.041036523325604035e+00,-6.057398292436033671e-01,1.481848966205025375e+00,-3.113383606235822221e-01,-4.445678065669957935e-01
6.500000000000000000e+00,1.644629319387554169e+09,-2.756736740551076759e-01,-1.365610349897136977e-01,1.174826168526936998e+00,-5.736901028285972259e-01,1.584004236004874056e+00,-3.184864985619392241e-01,-4.132956152783860970e-01
6.516666666666666607e+00,1.644629319407298565e+09,-2.714619974271675340e-01,4.526133034687535722e-03,1.450727302889494252e+00,-4.775409235835813559e-01,1.677172238093040502e+00,-3.250853972018349358e-01,-3.786684104530282369e-01
6.533333333333333215e+00,1.644629319423948288e+09,-2.673221515240802870e-01,9.833888874041737949e-02,1.729829146467395384e+00,-4.454911971685752703e-01,1.760856765832883752e+00,-3.310874424747609068e-01,-3.416797709372139114e-01
6.549999999999999822e+00,1.644629319440899849e+09,-2.632372004906897711e-01,1.151745878171494819e-01,1.701022763529309145e+00,-4.134414707535703504e-01,1.834640256014133941e+00,-3.364656029441328577e-01,-3.038046964039872178e-01
6.566666666666666430e+00,1.644629319457824469e+09,-2.591883768706012003e-01,1.225362190124381634e-01,1.730469288310463760e+00,-4.134414707535703504e-01,1.898186341053290427e+00,-3.412079496863302253e-01,-2.653836403273610034e-01
6.583333333333333037e+00,1.644629319473811865e+09,-2.551553836083012006e-01,2.024258896314262701e-01,1.953878791541397986e+00,-3.813917443385642647e-01,1.951241742222580289e+00,-3.452968897897022993e-01,-2.254002396930888108e-01
6.599999999999999645e+00,1.644629319492761612e+09,-2.511167104253768656e-01,2.120280172774548499e-01,1.992287302125512305e+00,-3.813917443385642647e-01,1.993637491430277020e+00,-3.487177804370528711e-01,-1.852182572339426958e-01
6.616666666666666252e+00,1.644629319509718418e+09,-2.470499609828845089e-01,2.487081134893129319e-01,2.042858507727929762e+00,-3.493420179235594003e-01,2.025289474440793214e+00,-3.514650832713400175e-01,-1.445709946008204849e-01
6.633333333333332860e+00,1.644629319526638508e+09,-2.429321871469561911e-01,2.645516241052603412e-01,2.106232550191719621e+00,-3.493420179235594003e-01,2.046198293836492432e+00,-3.535354696984455702e-01,-1.039881095413523748e-01
6.649999999999999467e+00,1.644629319542628527e+09,-2.387402266181951893e-01,2.647116595660273797e-01,2.106872692034787775e+00,-3.493420179235594003e-01,2.056448455441285184e+00,-3.549336421746143166e-01,-6.390393514839506905e-02
6.666666666666666963e+00,1.644629319559550524e+09,-2.344510401677790956e-01,2.287036808934198584e-01,1.962840777344357468e+00,-3.493420179235594003e-01,2.056206887306475828e+00,-3.556742883292276503e-01,-2.508144619045013513e-02
6.683333333333333570e+00,1.644629319577579021e+09,-2.300420447445750138e-01,3.015517912386536659e-01,2.158084039480274718e+00,-3.172922915085532591e-01,2.045720805658247432e+00,-3.557646417082342416e-01,1.413011713683816339e-02
6.700000000000000178e+00,1.644629319592705011e+09,-2.254914387776233153e-01,2.836278196327333689e-01,2.086388153056593531e+00,-3.172922915085532591e-01,2.025314947382980346e+00,-3.552121790877069141e-01,5.206003396657274407e-02
6.716666666666666785e+00,1.644629319608227491e+09,-2.207785160964449711e-01,2.724573130752152572e-01,1.945556947581506213e+00,-2.852425650935483947e-01,1.995388193638645502e+00,-3.540384664598217324e-01,8.868374645058521577e-02
6.733333333333333393e+00,1.644629319625660419e+09,-2.158839650266372590e-01,2.908933667596197425e-01,1.923151983074105731e+00,-2.531928386785423091e-01,1.956409613990063967e+00,-3.522622544532484357e-01,1.243625841231733170e-01
6.750000000000000000e+00,1.644629319642388105e+09,-2.107901493887456290e-01,2.625670902038351739e-01,1.809846876850967679e+00,-2.531928386785423091e-01,1.908913965032615678e+00,-3.499067956931788959e-01,1.581984762837113090e-01
6.766666666666666607e+00,1.644629319658568621e+09,-2.054813683325777962e-01,2.419544914610553543e-01,1.631247302634833529e+00,-2.211431122635373892e-01,1.853496681759200015e+00,-3.470025801126495613e-01,1.902184469235195241e-01
6.783333333333333215e+00,1.644629319675595045e+09,-1.999440921748833755e-01,2.224621409436465524e-01,1.457128721320180231e+00,-1.890933858485313035e-01,1.790808403902941937e+00,-3.435804717985086465e-01,2.203508476901550606e-01
6.799999999999999822e+00,1.644629319692805290e+09,-1.941671716731475650e-01,2.515885948032669517e-01,1.573634536758661717e+00,-1.890933858485313035e-01,1.721549083123684820e+00,-3.396658618787569694e-01,2.493218657358525769e-01
6.816666666666666430e+00,1.644629319711232901e+09,-1.881420184593885769e-01,2.220140102575270669e-01,1.359187019330687418e+00,-1.570436594335263836e-01,1.646461720169685394e+00,-3.352868591101237916e-01,2.760841251410062758e-01
6.833333333333333037e+00,1.644629319727252722e+09,-1.818627546723379229e-01,2.481317660587545881e-01,1.367508863290579191e+00,-1.249939330185202979e-01,1.566325784012469580e+00,-3.304729761193849757e-01,3.015112013181212025e-01
6.849999999999999645e+00,1.644629319745546103e+09,-1.753263301608979918e-01,1.978806313778711246e-01,1.166504324567045447e+00,-1.249939330185202979e-01,1.481950367399456292e+00,-3.252574152125826679e-01,3.242928237242743705e-01
6.866666666666666252e+00,1.644629319761587143e+09,-1.685326059829398704e-01,2.732573333991963338e-01,1.468011132652346173e+00,-1.249939330185202979e-01,1.394167135276759506e+00,-3.196670208041933470e-01,3.464928371271510099e-01
6.883333333333332860e+00,1.644629319778425932e+09,-1.614844032875980551e-01,2.683282098115967740e-01,1.352145459056933285e+00,-9.294420660351540575e-02,1.303823124087922558e+00,-3.137228516222649866e-01,3.667511901768813476e-01
6.899999999999999467e+00,1.644629319796159506e+09,-1.541875170426439956e-01,2.497321206664260551e-01,1.373910281721265170e+00,-1.249939330185202979e-01,1.211773451041261218e+00,-3.074591237645556974e-01,3.848458885143001829e-01
6.916666666666666963e+00,1.644629319813164949e+09,-1.466506944472626695e-01,3.401841316960447781e-01,1.639569146594725302e+00,-9.294420660351540575e-02,1.118873993050355065e+00,-3.008966548925813278e-01,4.026010550547658440e-01
6.933333333333333570e+00,1.644629319830478430e+09,-1.388855782508457981e-01,4.589304435852661901e-01,2.114554394151610950e+00,-9.294420660351540575e-02,1.025974095185046231e+00,-2.940371490111261532e-01,4.204899581528159236e-01
6.950000000000000178e+00,1.644629319846501112e+09,-1.309066155763164430e-01,5.080613300407796906e-01,2.311077939973665174e+00,-9.294420660351540575e-02,9.339093681230336008e-01,-2.868878956124127910e-01,4.373735497234994551e-01
6.966666666666666785e+00,1.644629319864801407e+09,-1.227309332180638035e-01,5.983533056096321801e-01,2.576096663004056708e+00,-6.089448018850930622e-02,8.434946332678605607e-01,-2.794595979465207547e-01,4.539760510388989312e-01
6.983333333333333393e+00,1.644629319881754875e+09,-1.143781807460817063e-01,6.041145821972493390e-01,2.599141769354525344e+00,-6.089448018850930622e-02,7.555170729048787948e-01,-2.717682408252765081e-01,4.689452215026901349e-01
7.000000000000000000e+00,1.644629319899944305e+09,-1.058703430955421215e-01,6.598388982403975422e-01,2.725889854282103286e+00,-2.884475377350440711e-02,6.707296410135192843e-01,-2.638334792909919901e-01,4.831866022893042123e-01
7.016666666666666607e+00,1.644629319917932510e+09,-9.723152465132137157e-02,6.231907777247215341e-01,2.579297372219399254e+00,-2.884475377350440711e-02,5.898447881554790273e-01,-2.556795621498121340e-01,4.952499445794610322e-01
7.033333333333333215e+00,1.644629319933878899e+09,-8.848770714643067192e-02,6.838442173554692971e-01,2.821911130742390750e+00,-2.884475377350440711e-02,5.135285512328664481e-01,-2.473284188520299409e-01,5.068550140914844793e-01
7.049999999999999822e+00,1.644629319949843884e+09,-7.966648397878590970e-02,7.370079660263443300e-01,2.938416946180872458e+00,3.204972641501691987e-03,4.423950558788989351e-01,-2.387879426174172037e-01,5.179712548886258316e-01
7.066666666666666430e+00,1.644629319967796087e+09,-7.079677380926277519e-02,8.029425758624080256e-01,3.202155385525127240e+00,3.204972641501691987e-03,3.770014758306194924e-01,-2.300636563562734604e-01,5.289127028223659099e-01
7.083333333333333037e+00,1.644629319984142542e+09,-6.190851653289654311e-02,8.109443489007652772e-01,3.234162477678556247e+00,3.204972641501691987e-03,3.178434898664552755e-01,-2.211655895894702462e-01,5.388277667016830863e-01
7.099999999999999645e+00,1.644629320001147270e+09,-5.303235491197888507e-02,7.363997998794575839e-01,2.839835102348310603e+00,3.525469905650659153e-02,2.653512728005340549e-01,-2.121211876131017526e-01,5.464792159366478330e-01
7.116666666666666252e+00,1.644629320017404318e+09,-4.419930532267345863e-02,5.962087362474389751e-01,2.279070847820236168e+00,3.525469905650659153e-02,2.198860526450077124e-01,-2.029759612433572336e-01,5.509355693817774569e-01
7.133333333333332860e+00,1.644629320035323620e+09,-3.544042119387635914e-02,5.742838781223400524e-01,2.191371415319840477e+00,3.525469905650659153e-02,1.817372614142693799e-01,-1.937653752323793555e-01,5.543253356964097378e-01
7.149999999999999467e+00,1.644629320052276134e+09,-2.678645280700948927e-02,5.240647191376386349e-01,1.894345600136020158e+00,6.730442547151148369e-02,1.511203021904465871e-01,-1.845099264373542547e-01,5.563229705901860944e-01
7.166666666666666963e+00,1.644629320068430424e+09,-1.826750717738669441e-02,4.240105804619911933e-01,1.590278224678445040e+00,3.525469905650659153e-02,1.281749500346716086e-01,-1.752384483928079995e-01,5.562545847205841998e-01
7.183333333333333570e+00,1.644629320086410284e+09,-9.912711750992940843e-03,4.145684882767295409e-01,1.552509855937398431e+00,3.525469905650659153e-02,1.129643991555855376e-01,-1.659715057026256990e-01,5.557798568209404433e-01
7.200000000000000178e+00,1.644629320104614735e+09,-1.749885624914980509e-03,3.907551803186069539e-01,1.361107444859893434e+00,6.730442547151148369e-02,1.054749634753695542e-01,-1.567167331250202411e-01,5.547955866399012503e-01
7.216666666666666785e+00,1.644629320121467590e+09,6.194778064629188896e-03,3.345827335893392096e-01,1.136417657942822235e+00,6.730442547151148369e-02,1.056164324075525851e-01,-1.474859681291547375e-01,5.529014744106506285e-01
7.233333333333333393e+00,1.644629320138484955e+09,1.389701504510632013e-02,3.501061732837521534e-01,1.198511416720474232e+00,6.730442547151148369e-02,1.132230783220578019e-01,-1.382833153157516648e-01,5.514209757906777254e-01
7.250000000000000000e+00,1.644629320156500816e+09,2.133477469923105579e-02,2.679760062140250088e-01,9.661399276865801911e-01,3.525469905650659153e-02,1.280553068642948933e-01,-1.291144282169891522e-01,5.488526105765538787e-01
7.266666666666666607e+00,1.644629320174468756e+09,2.848848351841150317e-02,2.326401450806679649e-01,7.286473039081373670e-01,6.730442547151148369e-02,1.498019360592814930e-01,-1.199898694127397580e-01,5.461020864579703149e-01
7.283333333333333215e+00,1.644629320189009666e+09,3.534128420048743280e-02,2.138840204747300966e-01,7.497719847294006534e-01,3.525469905650659153e-02,1.780830850104906382e-01,-1.109094571722544637e-01,5.435544593089053356e-01
7.299999999999999822e+00,1.644629320206127405e+09,4.187924761538190654e-02,2.249264672676630217e-01,7.939417719011323538e-01,3.525469905650659153e-02,2.124536480375958103e-01,-1.018648810371444308e-01,5.417995517622162804e-01
7.316666666666666430e+00,1.644629320223699808e+09,4.809155513316133029e-02,2.214056871307858720e-01,7.798586513536237552e-01,3.525469905650659153e-02,2.524073253269720762e-01,-9.284427884250621987e-02,5.406758331085407265e-01
7.333333333333333037e+00,1.644629320240219116e+09,5.397064910664037957e-02,2.113234531024557883e-01,7.395297152403034202e-01,3.525469905650659153e-02,2.973811766325588080e-01,-8.383743083592654077e-02,5.401473955975446550e-01
7.349999999999999645e+00,1.644629320257574558e+09,5.951234962237995918e-02,3.054243040335368753e-01,1.115933118964627768e+00,3.525469905650659153e-02,3.467606602979332875e-01,-7.481949955773709027e-02,5.419992137248796915e-01
7.366666666666666252e+00,1.644629320275578499e+09,6.471593597624017424e-02,3.375914316477329757e-01,1.244601629421412170e+00,3.525469905650659153e-02,3.998851159083346429e-01,-6.575917990210276842e-02,5.452301698618464698e-01
7.383333333333332860e+00,1.644629320292242527e+09,6.958419168929241838e-02,4.288116442850055110e-01,1.609482479970502311e+00,3.525469905650659153e-02,4.560536452549269759e-01,-5.662509983220725268e-02,5.508438446176164849e-01
7.399999999999999467e+00,1.644629320309367180e+09,7.412341225321217308e-02,4.683084273983082468e-01,1.863618791668727903e+00,3.204972641501691987e-03,5.145313430322814297e-01,-4.738470159575350338e-02,5.579841092216725196e-01
7.416666666666666963e+00,1.644629320326488972e+09,7.834337517749397073e-02,4.870325763080642356e-01,1.938515387307751858e+00,3.204972641501691987e-03,5.745558258201225454e-01,-3.801540836583867933e-02,5.663079560272274993e-01
7.433333333333333570e+00,1.644629320343546629e+09,8.225727230011281588e-02,5.097895874331807020e-01,1.933394252563203075e+00,3.525469905650659153e-02,6.353440054444632334e-01,-2.849699474627245821e-02,5.758751022889553317e-01
7.450000000000000178e+00,1.644629320360811949e+09,8.588160471468697654e-02,4.768222825151489097e-01,1.801525032891075906e+00,3.525469905650659153e-02,6.960990507915453263e-01,-1.881661205145283150e-02,5.857434084825805520e-01
7.466666666666666785e+00,1.644629320378705978e+09,8.923604105677808429e-02,4.672201548691201634e-01,1.763116522306960920e+00,3.525469905650659153e-02,7.560174805766153305e-01,-8.966170889357083507e-03,5.962802612445804451e-01
7.483333333333333393e+00,1.644629320396484613e+09,9.234324027573827254e-02,3.729592684772719546e-01,1.386072976739568086e+00,3.525469905650659153e-02,8.142963284614067598e-01,1.053459272964994003e-03,6.060482243645697320e-01
7.500000000000000000e+00,1.644629320412705898e+09,9.522864039271050629e-02,3.526347649598445821e-01,1.304774962669858818e+00,3.525469905650659153e-02,8.701403212772675921e-01,1.123944563426526252e-02,6.162418227738879484e-01
7.516666666666666607e+00,1.644629320428445101e+09,9.792021510594668687e-02,2.698964317432307469e-01,9.738216298034032548e-01,3.525469905650659153e-02,9.227690109527824092e-01,2.158975859849915357e-02,6.257692671879209190e-01
7.533333333333333215e+00,1.644629320445301533e+09,1.004482004481362933e-01,2.439706870989532816e-01,8.701186512262933936e-01,3.525469905650659153e-02,9.714238010634486109e-01,3.210068571469149729e-02,6.355149148744352328e-01
7.549999999999999822e+00,1.644629320462844610e+09,1.028447940231746321e-01,2.236461835815258814e-01,7.888206371565837927e-01,3.525469905650659153e-02,1.015374809718105675e+00,4.277595752328298973e-02,6.454899929541709769e-01
7.566666666666666430e+00,1.644629320479826450e+09,1.051438296485773805e-01,1.919591623496312294e-01,6.620725522290051845e-01,3.525469905650659153e-02,1.053927511761878932e+00,5.361705116170126934e-02,6.554136772176112347e-01
7.583333333333333037e+00,1.644629320496829987e+09,1.073804305014076643e-01,2.266868573361016659e-01,8.009833321748869306e-01,3.525469905650659153e-02,1.086429105003299922e+00,6.463145461645697365e-02,6.662845398018455434e-01
7.599999999999999645e+00,1.644629320514876127e+09,1.095906441072918430e-01,3.406321054023087047e-01,1.256764324439715086e+00,3.525469905650659153e-02,1.112274547345060371e+00,7.584484558522953945e-02,6.792862597121958057e-01
7.616666666666666252e+00,1.644629320530641079e+09,1.118110627214289610e-01,3.191873536595113414e-01,1.170985317468525411e+00,3.525469905650659153e-02,1.130912214301731389e+00,8.727274836584845985e-02,6.920266830642642919e-01
7.633333333333332860e+00,1.644629320549237967e+09,1.140784328250386281e-01,2.553332048134205889e-01,9.155687220841626228e-01,3.525469905650659153e-02,1.141849129398360585e+00,9.890392286730838312e-02,7.036818807996674252e-01
7.649999999999999467e+00,1.644629320567412853e+09,1.164292575988333245e-01,2.422102970305147207e-01,8.630770909525391499e-01,3.525469905650659153e-02,1.144655723341139186e+00,1.107263159482164000e-01,7.149739213916203040e-01
7.666666666666666963e+00,1.644629320584402323e+09,1.188993963350437749e-01,2.113234531024557883e-01,7.395297152403034202e-01,3.525469905650659153e-02,1.138970081605595874e+00,1.227302986334075224e-01,7.254748309515633986e-01
7.683333333333333570e+00,1.644629320601331711e+09,1.215236648103992373e-01,1.925993041926998273e-01,6.646331196012794651e-01,3.525469905650659153e-02,1.124501644170748715e+00,1.349032615104749089e-01,7.352535505472201915e-01
7.700000000000000178e+00,1.644629320618284464e+09,1.243354406633055964e-01,1.716346588322038569e-01,5.807745381592956946e-01,3.525469905650659153e-02,1.101034325506565992e+00,1.472317154407986883e-01,7.441362463558759410e-01
7.716666666666666785e+00,1.644629320635234118e+09,1.273662777990610950e-01,1.740351907437110435e-01,5.903766658053243299e-01,3.525469905650659153e-02,1.068429027561709210e+00,1.597028155215335921e-01,7.523728832468979943e-01
7.733333333333333393e+00,1.644629320652190447e+09,1.306455337872872435e-01,2.644102429237994017e-02,0.000000000000000000e+00,3.525469905650659153e-02,1.026625523362512116e+00,1.722838955346140677e-01,7.573429123613990566e-01
7.750000000000000000e+00,1.644629320671311855e+09,1.342000141162458249e-01,2.644102429237994017e-02,0.000000000000000000e+00,3.525469905650659153e-02,9.756436938835105765e-01,1.849400812676422756e-01,7.613881385979690553e-01
7.766666666666666607e+00,1.644629320685549498e+09,1.380536370303308558e-01,2.644102429237994017e-02,0.000000000000000000e+00,3.525469905650659153e-02,9.155841060443959956e-01,1.976548332490400406e-01,7.643738054555175854e-01
7.783333333333333215e+00,1.644629320703952074e+09,1.422271225007836759e-01,2.644102429237994017e-02,0.000000000000000000e+00,3.525469905650659153e-02,8.466279249866215384e-01,2.104094097007992992e-01,7.661703781584083828e-01
7.799999999999999822e+00,1.644629320721810102e+09,1.467377086674636621e-01,-1.288191142362317965e-01,-6.210405541144469188e-01,3.525469905650659153e-02,7.690361591431021937e-01,2.231615192662036451e-01,7.640885526747851486e-01
7.816666666666666430e+00,1.644629320737352610e+09,1.515988988429898543e-01,-1.388033634786206560e-01,-6.609775510840023571e-01,3.525469905650659153e-02,6.831482419931297345e-01,2.358659773715292840e-01,7.604565092113679814e-01
7.833333333333333037e+00,1.644629320753726244e+09,1.568202418923253516e-01,-1.394084694933108715e-01,-6.633979751427633298e-01,3.525469905650659153e-02,5.893799597498718956e-01,2.484973681793109512e-01,7.553246432411956368e-01
7.849999999999999645e+00,1.644629320771652222e+09,1.624071484933552745e-01,-2.065752371239273077e-01,-9.320650456652289639e-01,3.525469905650659153e-02,4.882207395157031060e-01,2.610206874340444960e-01,7.474954156929917160e-01
7.866666666666666252e+00,1.644629320789496422e+09,1.683607454502275558e-01,-2.701113686664021740e-01,-1.186209571835128429e+00,3.525469905650659153e-02,3.802303176199770540e-01,2.733909096066424738e-01,7.369605093362866510e-01
7.883333333333332860e+00,1.644629320806629181e+09,1.746777698743898488e-01,-3.914351246117948047e-01,-1.671504595616698952e+00,3.525469905650659153e-02,2.660348128825948955e-01,2.855544750553484779e-01,7.227069386920940142e-01
7.899999999999999467e+00,1.644629320824889421e+09,1.813505046716827884e-01,-3.437673566822553317e-01,-1.384684344653526411e+00,3.204972641501691987e-03,1.463222343849285290e-01,2.974724988384234714e-01,7.074981628707301962e-01
7.916666666666666963e+00,1.644629320840855598e+09,1.883667563813828383e-01,-3.418164314071953092e-01,-1.473029822798300970e+00,3.525469905650659153e-02,2.183745793853075767e-02,3.091222192315162820e-01,6.905154595864929634e-01
7.933333333333333570e+00,1.644629320857828379e+09,1.957098760082476852e-01,-3.743252104241123757e-01,-1.506915759620954587e+00,3.204972641501691987e-03,-1.066232902152747242e-01,3.204690070379113132e-01,6.711528634361081380e-01
7.950000000000000178e+00,1.644629320874084473e+09,2.033588230756518400e-01,-4.062288834263400039e-01,-1.538381272384846676e+00,-2.884475377350440711e-02,-2.382183999002859265e-01,3.314731767464623169e-01,6.494079056721133725e-01
7.966666666666666785e+00,1.644629320893069506e+09,2.112882727105043768e-01,-4.324153878343751645e-01,-1.739276469262005742e+00,3.204972641501691987e-03,-3.720672474123782880e-01,3.420958297540363513e-01,6.253772087437601268e-01
7.983333333333333393e+00,1.644629320910172224e+09,2.194687651531584682e-01,-4.971617314062304893e-01,-1.998261843549427041e+00,3.204972641501691987e-03,-5.072569202109307174e-01,3.522936750156447916e-01,5.984390526218656969e-01
8.000000000000000000e+00,1.644629320928275585e+09,2.278668966719013811e-01,-4.776313931597879758e-01,-1.823991311318638786e+00,-2.884475377350440711e-02,-6.428492433138052187e-01,3.620302411808599685e-01,5.700278091820906168e-01
8.016666666666665719e+00,1.644629320943238020e+09,2.364455504558692911e-01,-5.081892469016450198e-01,-1.946222726286066740e+00,-2.884475377350440711e-02,-7.778880522737973147e-01,3.712743385035188193e-01,5.393490902065076753e-01
8.033333333333333215e+00,1.644629320961275578e+09,2.451641656665356495e-01,-5.116529372134306364e-01,-1.863928308288194780e+00,-6.089448018850930622e-02,-9.114066555105378997e-01,3.799924411404888569e-01,5.069133276908048824e-01
8.050000000000000711e+00,1.644629320977242708e+09,2.539790424498806209e-01,-4.766923955923870748e-01,-1.627936962559002110e+00,-9.294420660351540575e-02,-1.042435427117468727e+00,3.881611587873727842e-01,4.734258129987567454e-01
8.066666666666666430e+00,1.644629320993395090e+09,2.628436803530075361e-01,-4.620342440088311409e-01,-1.665453535469796797e+00,-6.089448018850930622e-02,-1.170009470077033154e+00,3.957607805023691805e-01,4.386254627156626063e-01
8.083333333333333925e+00,1.644629321010789394e+09,2.717091472535851926e-01,-5.496076703625606408e-01,-1.919598061639696596e+00,-9.294420660351540575e-02,-1.293176289104465804e+00,4.027560954732141152e-01,4.009170817537005549e-01
8.099999999999999645e+00,1.644629321027108669e+09,2.805244756015865537e-01,-5.182777648296575945e-01,-1.698129260263069540e+00,-1.249939330185202979e-01,-1.411003412110787947e+00,4.091161986895831548e-01,3.624022922549907655e-01
8.116666666666667140e+00,1.644629321046243906e+09,2.892370824934322737e-01,-4.538339742651473774e-01,-1.440354098005028449e+00,-1.249939330185202979e-01,-1.522585899528909659e+00,4.148331976092534124e-01,3.237449621054195315e-01
8.133333333333332860e+00,1.644629321062113047e+09,2.977932098514433079e-01,-4.321857649672889434e-01,-1.257612081568576512e+00,-1.570436594335263836e-01,-1.627053681483242586e+00,4.198998079821267271e-01,2.843576942917039885e-01
8.150000000000000355e+00,1.644629321079758167e+09,3.061383807693047188e-01,-4.218989627175548929e-01,-1.216464872569640310e+00,-1.570436594335263836e-01,-1.723578663996526483e+00,4.243034928200333233e-01,2.441960490085627322e-01
8.166666666666666075e+00,1.644629321097988129e+09,3.142178679087260784e-01,-3.929894812434127638e-01,-1.004677767428057145e+00,-1.890933858485313035e-01,-1.811381547109019330e+00,4.280352296636865117e-01,2.037247950257023710e-01
8.183333333333333570e+00,1.644629321113915682e+09,3.219771696959886076e-01,-3.790720429055374208e-01,-9.490080140765556616e-01,-1.890933858485313035e-01,-1.889738299922010256e+00,4.310891351271508021e-01,1.628573838484456415e-01
8.199999999999999289e+00,1.644629321132494450e+09,3.293624899704762909e-01,-3.577577251603897834e-01,-9.598999223409800940e-01,-1.570436594335263836e-01,-1.957986240153029689e+00,4.334610792028613102e-01,1.218897070175114783e-01
8.216666666666666785e+00,1.644629321146996975e+09,3.363212166821299420e-01,-3.524473782591668880e-01,-8.425093554910737526e-01,-1.890933858485313035e-01,-2.015529668784622253e+00,4.351486726813770800e-01,8.073582942159920894e-02
8.233333333333332504e+00,1.644629321164733887e+09,3.428023952212678194e-01,-3.105594560145512051e-01,-7.711068457576256696e-01,-1.570436594335263836e-01,-2.061845013778627500e+00,4.361554408762298718e-01,4.018898673019347112e-02
8.250000000000000000e+00,1.644629321180781603e+09,3.487571919929303710e-01,-4.126554267208455418e-01,-1.083341549337788257e+00,-1.890933858485313035e-01,-2.096485440586843829e+00,4.364731426102512191e-01,-1.947729458956028170e-03
8.266666666666665719e+00,1.644629321196799994e+09,3.541393439184239433e-01,-4.643919909768607912e-01,-1.290287806361849254e+00,-1.890933858485313035e-01,-2.119084891288616213e+00,4.360841183579076130e-01,-4.461665324437039809e-02
8.283333333333333215e+00,1.644629321212291002e+09,3.589055896586370586e-01,-4.777043233000460853e-01,-1.343537135654590431e+00,-1.890933858485313035e-01,-2.129361518592160607e+00,4.349865807099770887e-01,-8.697021296130996726e-02
8.300000000000000711e+00,1.644629321228330612e+09,3.630160785058931250e-01,-4.628792259401353082e-01,-1.284236746214947322e+00,-1.890933858485313035e-01,-2.127120485617328693e+00,4.331913574773362252e-01,-1.283416515879601538e-01
8.316666666666666430e+00,1.644629321246882677e+09,3.664347530822542054e-01,-4.674175210503120348e-01,-1.302389926655654229e+00,-1.890933858485313035e-01,-2.112256107293873253e+00,4.307137507550966027e-01,-1.688586053381236352e-01
8.333333333333333925e+00,1.644629321263836384e+09,3.691297022105505810e-01,-4.890343918028056680e-01,-1.292708230420610560e+00,-2.211431122635373892e-01,-2.084753314324499840e+00,4.275672706587365091e-01,-2.086085870105519879e-01
8.349999999999999645e+00,1.644629321281244516e+09,3.710734805878119769e-01,-4.926650278909470160e-01,-1.307230774773175952e+00,-2.211431122635373892e-01,-2.044688425934721998e+00,4.237688134722462086e-01,-2.470993540544894895e-01
8.366666666666667140e+00,1.644629321297068357e+09,3.722433921868263385e-01,-4.849342569309633144e-01,-1.180158511688226497e+00,-2.531928386785423091e-01,-1.992229223020562490e+00,4.193424733348647404e-01,-2.839590719163000987e-01
8.383333333333332860e+00,1.644629321313295841e+09,3.726217346373794648e-01,-4.985491422614936607e-01,-1.234618053010347660e+00,-2.531928386785423091e-01,-1.927634318768520316e+00,4.143139370347270756e-01,-3.193669266333293288e-01
8.400000000000000355e+00,1.644629321328735590e+09,3.721960021913593430e-01,-4.436201021556722690e-01,-9.187527133420438918e-01,-2.852425650935483947e-01,-1.851251829316431285e+00,4.087182971871831660e-01,-3.520191523103204934e-01
8.416666666666666075e+00,1.644629321346819162e+09,3.709590452519098691e-01,-4.378715950161149451e-01,-8.957586847838147071e-01,-2.852425650935483947e-01,-1.763517352505604263e+00,4.025958754364476477e-01,-3.825865463516135989e-01
8.433333333333333570e+00,1.644629321363620520e+09,3.689091848426878095e-01,-4.076162942816030643e-01,-7.747374818457671841e-01,-2.852425650935483947e-01,-1.664951268201456447e+00,3.959860119760541530e-01,-4.105194755992710998e-01
8.449999999999999289e+00,1.644629321380882502e+09,3.660502808052524815e-01,-4.581113079628722495e-01,-7.844191780808107417e-01,-3.493420179235594003e-01,-1.556155378987496229e+00,3.889225103510108306e-01,-4.370270854234005742e-01
8.466666666666666785e+00,1.644629321397814989e+09,3.623917529366742496e-01,-4.280229530047152675e-01,-7.602149374932014592e-01,-3.172922915085532591e-01,-1.437808915226172823e+00,3.814413783644203804e-01,-4.606431512406582440e-01
8.483333333333332504e+00,1.644629321414696455e+09,3.579485547117722821e-01,-5.420540982284594023e-01,-1.024041159898144926e+00,-3.813917443385642647e-01,-1.310663933485828547e+00,3.735717184333131047e-01,-4.836521251714557823e-01
8.500000000000000000e+00,1.644629321431882620e+09,3.527410996705311330e-01,-5.508281354414679143e-01,-1.059137308750178974e+00,-3.813917443385642647e-01,-1.175540142119507525e+00,3.653392051054079048e-01,-5.041924164695668065e-01
8.516666666666665719e+00,1.644629321448868036e+09,3.467951409873923918e-01,-5.093783734351866599e-01,-8.933382607250537344e-01,-3.813917443385642647e-01,-1.033319192307918577e+00,3.567925593148466579e-01,-5.213573967747239246e-01
8.533333333333333215e+00,1.644629321464674711e+09,3.401416051707966126e-01,-5.134471697616633801e-01,-8.134642667859424137e-01,-4.134414707535703504e-01,-8.849384771118224968e-01,3.479821337890857680e-01,-5.358533986968544438e-01
8.550000000000000711e+00,1.644629321481421947e+09,3.328163812646606767e-01,-6.178279572957293686e-01,-1.230987416922206146e+00,-4.134414707535703504e-01,-7.313844849833467388e-01,3.389389022538625285e-01,-5.492970411996158653e-01
8.566666666666666430e+00,1.644629321498746872e+09,3.248600673342186274e-01,-6.533622663860975122e-01,-1.276975474038664071e+00,-4.454911971685752703e-01,-5.736857577317086010e-01,3.296903402632633817e-01,-5.604992796109801168e-01
8.583333333333333925e+00,1.644629321516719103e+09,3.163176764129823071e-01,-6.594133265329999993e-01,-1.301179714626274020e+00,-4.454911971685752703e-01,-4.129055060969931690e-01,3.202779928310341973e-01,-5.689589127225841425e-01
8.599999999999999645e+00,1.644629321532586575e+09,3.072383044617472692e-01,-6.606235385623804302e-01,-1.306020562743795743e+00,-4.454911971685752703e-01,-2.501339388320658608e-01,3.107481348973576973e-01,-5.746083460788150576e-01
8.616666666666667140e+00,1.644629321549606800e+09,2.976747632408288102e-01,-6.929967103483080093e-01,-1.435513249887506504e+00,-4.454911971685752703e-01,-8.648036350537040284e-02,3.011430325584735779e-01,-5.779945283041588722e-01
8.633333333333332860e+00,1.644629321567297220e+09,2.876831813200310672e-01,-6.427729111290183539e-01,-1.234618053010347660e+00,-4.454911971685752703e-01,7.693488090389430378e-02,2.915114694816513530e-01,-5.777935990644220698e-01
8.650000000000000355e+00,1.644629321584731340e+09,2.773225767437380584e-01,-6.586412747419547742e-01,-1.201942328217074918e+00,-4.775409235835813559e-01,2.389885981529854542e-01,2.819034186670310582e-01,-5.751797595262846396e-01
8.666666666666666075e+00,1.644629321601078510e+09,2.666544051286066086e-01,-6.479163122538853514e-01,-1.255191657509815650e+00,-4.454911971685752703e-01,3.985629532479711967e-01,2.723620926466108205e-01,-5.697943228226296508e-01
8.683333333333333570e+00,1.644629321616526842e+09,2.557420871957307162e-01,-6.295961860368233243e-01,-1.085761973396549340e+00,-4.775409235835813559e-01,5.545536725146340551e-01,2.629338559663344510e-01,-5.616167947010564099e-01
8.699999999999999289e+00,1.644629321633725405e+09,2.446505199261313490e-01,-4.985907338563869695e-01,-5.617401646748036992e-01,-4.775409235835813559e-01,7.058781624852306091e-01,2.536797774896375479e-01,-5.489079257472121443e-01
8.716666666666666785e+00,1.644629321652059317e+09,2.334455756757907452e-01,-5.061545590400149397e-01,-5.919954654093154689e-01,-4.775409235835813559e-01,8.514834854086221760e-01,2.446548245007300060e-01,-5.341274906521611410e-01
