2023-05-24-16:42:25.349382,7.0,3.0,446.0
2023-05-24-16:42:25.351418,2.0,2.0,445.0
2023-05-24-16:42:25.353348,5.0,3.0,446.0
2023-05-24-16:42:25.354345,3.0,2.0,445.0
2023-05-24-16:42:25.354345,8.0,2.0,446.0
2023-05-24-16:42:25.355359,15.0,2.0,445.0
2023-05-24-16:42:25.357365,10.0,3.0,445.0
2023-05-24-16:42:25.358352,11.0,5.0,445.0
2023-05-24-16:42:25.361379,1.0,4.0,446.0
2023-05-24-16:42:25.362419,2.0,3.0,445.0
2023-05-24-16:42:25.362419,4.0,5.0,445.0
2023-05-24-16:42:25.363346,1.0,3.0,446.0
2023-05-24-16:42:25.364354,9.0,4.0,445.0
2023-05-24-16:42:25.365403,9.0,3.0,445.0
2023-05-24-16:42:25.366388,4.0,4.0,445.0
2023-05-24-16:42:25.367394,1.0,4.0,446.0
2023-05-24-16:42:25.368388,1.0,4.0,445.0
2023-05-24-16:42:25.369383,8.0,3.0,446.0
2023-05-24-16:42:25.370403,5.0,3.0,446.0
2023-05-24-16:42:25.371355,7.0,3.0,445.0
2023-05-24-16:42:25.372379,7.0,3.0,445.0
2023-05-24-16:42:25.373361,3.0,6.0,446.0
2023-05-24-16:42:25.374343,7.0,2.0,445.0
2023-05-24-16:42:25.376347,9.0,2.0,445.0
2023-05-24-16:42:25.376347,2.0,4.0,445.0
2023-05-24-16:42:25.377420,6.0,3.0,445.0
2023-05-24-16:42:25.378388,7.0,7.0,445.0
2023-05-24-16:42:25.379394,3.0,6.0,445.0
2023-05-24-16:42:25.380386,5.0,2.0,445.0
2023-05-24-16:42:25.381381,2.0,5.0,445.0
2023-05-24-16:42:25.382389,5.0,5.0,445.0
2023-05-24-16:42:25.383393,4.0,5.0,445.0
2023-05-24-16:42:25.384395,3.0,4.0,445.0
2023-05-24-16:42:25.385434,1.0,5.0,445.0
2023-05-24-16:42:25.386399,5.0,2.0,445.0
2023-05-24-16:42:25.387384,3.0,3.0,445.0
2023-05-24-16:42:25.388395,2.0,3.0,445.0
2023-05-24-16:42:25.389393,11.0,4.0,445.0
2023-05-24-16:42:25.390345,2.0,3.0,445.0
2023-05-24-16:42:25.391343,1.0,5.0,445.0
2023-05-24-16:42:25.392394,1.0,2.0,445.0
2023-05-24-16:42:25.395346,1.0,3.0,445.0
2023-05-24-16:42:25.395346,3.0,5.0,445.0
2023-05-24-16:42:25.396352,4.0,3.0,445.0
2023-05-24-16:42:25.397429,6.0,4.0,445.0
2023-05-24-16:42:25.398494,3.0,4.0,445.0
2023-05-24-16:42:25.399373,5.0,4.0,445.0
2023-05-24-16:42:25.400460,6.0,5.0,445.0
2023-05-24-16:42:25.401472,2.0,3.0,445.0
2023-05-24-16:42:25.402362,1.0,4.0,445.0
2023-05-24-16:42:25.403386,0.0,3.0,445.0
2023-05-24-16:42:25.404418,4.0,0.0,445.0
2023-05-24-16:42:25.405349,9.0,4.0,446.0
2023-05-24-16:42:25.406469,8.0,4.0,445.0
2023-05-24-16:42:25.407479,3.0,1.0,445.0
2023-05-24-16:42:25.409436,1.0,1.0,445.0
2023-05-24-16:42:25.410435,0.0,4.0,445.0
2023-05-24-16:42:25.411342,5.0,3.0,445.0
2023-05-24-16:42:25.411342,5.0,6.0,445.0
2023-05-24-16:42:25.412383,5.0,6.0,445.0
2023-05-24-16:42:25.413391,6.0,6.0,445.0
2023-05-24-16:42:25.414397,3.0,5.0,445.0
2023-05-24-16:42:25.415404,5.0,4.0,445.0
2023-05-24-16:42:25.416394,0.0,5.0,445.0
2023-05-24-16:42:25.417393,10.0,4.0,445.0
2023-05-24-16:42:25.418389,7.0,4.0,445.0
2023-05-24-16:42:25.419376,0.0,5.0,445.0
2023-05-24-16:42:25.420384,2.0,4.0,445.0
2023-05-24-16:42:25.421379,0.0,4.0,445.0
2023-05-24-16:42:25.422386,2.0,4.0,445.0
2023-05-24-16:42:25.423402,8.0,4.0,445.0
2023-05-24-16:42:25.424391,12.0,2.0,445.0
2023-05-24-16:42:25.426369,6.0,3.0,445.0
2023-05-24-16:42:25.428378,1.0,3.0,445.0
2023-05-24-16:42:25.428378,0.0,3.0,445.0
2023-05-24-16:42:25.429392,4.0,1.0,445.0
2023-05-24-16:42:25.430389,7.0,4.0,446.0
2023-05-24-16:42:25.431379,7.0,2.0,445.0
2023-05-24-16:42:25.432387,8.0,5.0,445.0
2023-05-24-16:42:25.433395,5.0,3.0,445.0
2023-05-24-16:42:25.434386,0.0,3.0,445.0
2023-05-24-16:42:25.435377,5.0,6.0,445.0
2023-05-24-16:42:25.436390,5.0,5.0,445.0
2023-05-24-16:42:25.437412,4.0,1.0,445.0
2023-05-24-16:42:25.438393,3.0,4.0,445.0
2023-05-24-16:42:25.439387,4.0,3.0,445.0
2023-05-24-16:42:25.440360,4.0,5.0,445.0
2023-05-24-16:42:25.441378,6.0,4.0,445.0
2023-05-24-16:42:25.443387,6.0,6.0,445.0
2023-05-24-16:42:25.443387,4.0,4.0,445.0
2023-05-24-16:42:25.444390,6.0,6.0,445.0
2023-05-24-16:42:25.445384,5.0,2.0,445.0
2023-05-24-16:42:25.446379,3.0,2.0,445.0
2023-05-24-16:42:25.447387,4.0,1.0,445.0
2023-05-24-16:42:25.448397,5.0,5.0,445.0
2023-05-24-16:42:25.449377,8.0,7.0,445.0
2023-05-24-16:42:25.450379,2.0,6.0,445.0
2023-05-24-16:42:25.451386,5.0,2.0,445.0
2023-05-24-16:42:25.452349,5.0,7.0,445.0
2023-05-24-16:42:25.453381,3.0,3.0,445.0
2023-05-24-16:42:25.454387,5.0,2.0,445.0
2023-05-24-16:42:25.455380,5.0,3.0,445.0
2023-05-24-16:42:25.456387,5.0,5.0,445.0
2023-05-24-16:42:25.457346,5.0,3.0,445.0
2023-05-24-16:42:25.458391,4.0,4.0,446.0
2023-05-24-16:42:25.459386,6.0,5.0,445.0
2023-05-24-16:42:25.461398,5.0,3.0,445.0
2023-05-24-16:42:25.462389,6.0,5.0,445.0
2023-05-24-16:42:25.462389,7.0,0.0,445.0
2023-05-24-16:42:25.463380,5.0,3.0,445.0
2023-05-24-16:42:25.464383,6.0,4.0,445.0
2023-05-24-16:42:25.465396,5.0,4.0,445.0
2023-05-24-16:42:25.466390,5.0,4.0,445.0
2023-05-24-16:42:25.467386,4.0,3.0,446.0
2023-05-24-16:42:25.468377,3.0,5.0,445.0
2023-05-24-16:42:25.469382,4.0,4.0,445.0
2023-05-24-16:42:25.470378,2.0,2.0,446.0
2023-05-24-16:42:25.471382,5.0,5.0,445.0
2023-05-24-16:42:25.472359,4.0,2.0,445.0
2023-05-24-16:42:25.473346,4.0,3.0,445.0
2023-05-24-16:42:25.474346,7.0,4.0,445.0
2023-05-24-16:42:25.475345,7.0,4.0,445.0
2023-05-24-16:42:25.476377,7.0,4.0,445.0
2023-05-24-16:42:25.477341,5.0,6.0,445.0
2023-05-24-16:42:25.478352,5.0,6.0,445.0
2023-05-24-16:42:25.479379,5.0,6.0,445.0
2023-05-24-16:42:25.480387,5.0,6.0,445.0
2023-05-24-16:42:25.481393,4.0,3.0,445.0
2023-05-24-16:42:25.482386,5.0,0.0,445.0
2023-05-24-16:42:25.483377,5.0,0.0,445.0
2023-05-24-16:42:25.484381,5.0,0.0,445.0
2023-05-24-16:42:25.485386,9.0,3.0,445.0
2023-05-24-16:42:25.486391,7.0,2.0,445.0
2023-05-24-16:42:25.487393,7.0,2.0,445.0
2023-05-24-16:42:25.488367,7.0,2.0,445.0
2023-05-24-16:42:25.489345,6.0,3.0,445.0
2023-05-24-16:42:25.490351,5.0,7.0,446.0
2023-05-24-16:42:25.491343,5.0,7.0,446.0
2023-05-24-16:42:25.492390,5.0,7.0,446.0
2023-05-24-16:42:25.493350,8.0,4.0,445.0
2023-05-24-16:42:25.494341,6.0,5.0,445.0
2023-05-24-16:42:25.495376,6.0,5.0,445.0
2023-05-24-16:42:25.497378,6.0,5.0,445.0
2023-05-24-16:42:25.497378,4.0,4.0,446.0
2023-05-24-16:42:25.498396,4.0,5.0,445.0
2023-05-24-16:42:25.499395,4.0,5.0,445.0
2023-05-24-16:42:25.500377,4.0,5.0,445.0
2023-05-24-16:42:25.501397,5.0,1.0,445.0
2023-05-24-16:42:25.502386,5.0,6.0,445.0
2023-05-24-16:42:25.503395,5.0,6.0,445.0
2023-05-24-16:42:25.504382,5.0,6.0,445.0
2023-05-24-16:42:25.505380,5.0,6.0,445.0
2023-05-24-16:42:25.506387,5.0,6.0,446.0
2023-05-24-16:42:25.507385,5.0,6.0,446.0
2023-05-24-16:42:25.508383,5.0,6.0,446.0
2023-05-24-16:42:25.509378,5.0,6.0,446.0
2023-05-24-16:42:25.510380,5.0,4.0,445.0
2023-05-24-16:42:25.511388,5.0,4.0,445.0
2023-05-24-16:42:25.512385,5.0,4.0,445.0
2023-05-24-16:42:25.513380,4.0,2.0,446.0
2023-05-24-16:42:25.514397,4.0,2.0,446.0
2023-05-24-16:42:25.515382,4.0,2.0,446.0
2023-05-24-16:42:25.516378,4.0,2.0,446.0
2023-05-24-16:42:25.517392,4.0,2.0,446.0
2023-05-24-16:42:25.518346,4.0,3.0,445.0
2023-05-24-16:42:25.519393,4.0,3.0,445.0
2023-05-24-16:42:25.520380,4.0,3.0,445.0
2023-05-24-16:42:25.521392,4.0,3.0,445.0
2023-05-24-16:42:25.522379,7.0,8.0,445.0
2023-05-24-16:42:25.523392,7.0,8.0,445.0
2023-05-24-16:42:25.524387,7.0,8.0,445.0
2023-05-24-16:42:25.525391,7.0,8.0,445.0
2023-05-24-16:42:25.526385,8.0,6.0,445.0
2023-05-24-16:42:25.527388,8.0,6.0,445.0
2023-05-24-16:42:25.528379,8.0,6.0,445.0
2023-05-24-16:42:25.529383,8.0,6.0,445.0
2023-05-24-16:42:25.531378,5.0,1.0,445.0
2023-05-24-16:42:25.531378,5.0,0.0,445.0
2023-05-24-16:42:25.532378,5.0,0.0,445.0
2023-05-24-16:42:25.533348,5.0,0.0,445.0
2023-05-24-16:42:25.534376,2.0,1.0,445.0
2023-05-24-16:42:25.535388,4.0,2.0,445.0
2023-05-24-16:42:25.536384,4.0,2.0,445.0
2023-05-24-16:42:25.537381,4.0,2.0,445.0
2023-05-24-16:42:25.538375,5.0,8.0,445.0
2023-05-24-16:42:25.539394,5.0,8.0,445.0
2023-05-24-16:42:25.540349,5.0,8.0,445.0
2023-05-24-16:42:25.541346,5.0,8.0,445.0
2023-05-24-16:42:25.542396,5.0,2.0,445.0
2023-05-24-16:42:25.543393,4.0,3.0,445.0
2023-05-24-16:42:25.544389,4.0,3.0,445.0
2023-05-24-16:42:25.545394,4.0,3.0,445.0
2023-05-24-16:42:25.546390,5.0,4.0,445.0
2023-05-24-16:42:25.547387,3.0,3.0,445.0
2023-05-24-16:42:25.548378,3.0,3.0,445.0
2023-05-24-16:42:25.549385,3.0,3.0,445.0
2023-05-24-16:42:25.550388,3.0,3.0,445.0
2023-05-24-16:42:25.551395,4.0,2.0,445.0
2023-05-24-16:42:25.552394,4.0,2.0,445.0
2023-05-24-16:42:25.553377,4.0,2.0,445.0
2023-05-24-16:42:25.554394,4.0,2.0,445.0
2023-05-24-16:42:25.555348,6.0,2.0,446.0
2023-05-24-16:42:25.556376,3.0,7.0,445.0
2023-05-24-16:42:25.557394,3.0,7.0,445.0
2023-05-24-16:42:25.558393,3.0,7.0,445.0
2023-05-24-16:42:25.559395,6.0,2.0,445.0
2023-05-24-16:42:25.560388,7.0,3.0,445.0
2023-05-24-16:42:25.561379,7.0,3.0,445.0
2023-05-24-16:42:25.562388,7.0,3.0,445.0
2023-05-24-16:42:25.564341,4.0,4.0,445.0
2023-05-24-16:42:25.565341,4.0,2.0,445.0
2023-05-24-16:42:25.565341,4.0,2.0,445.0
2023-05-24-16:42:25.566391,4.0,2.0,445.0
2023-05-24-16:42:25.567388,4.0,4.0,445.0
2023-05-24-16:42:25.568342,6.0,2.0,445.0
2023-05-24-16:42:25.569378,6.0,2.0,445.0
2023-05-24-16:42:25.570387,6.0,2.0,445.0
2023-05-24-16:42:25.571385,5.0,5.0,445.0
2023-05-24-16:42:25.572386,3.0,6.0,445.0
2023-05-24-16:42:25.573390,0.0,3.0,445.0
2023-05-24-16:42:25.574377,0.0,3.0,445.0
2023-05-24-16:42:25.575401,5.0,3.0,445.0
2023-05-24-16:42:25.576392,4.0,5.0,445.0
2023-05-24-16:42:25.577378,6.0,5.0,445.0
2023-05-24-16:42:25.578414,6.0,5.0,445.0
2023-05-24-16:42:25.579375,6.0,6.0,445.0
2023-05-24-16:42:25.580414,5.0,4.0,445.0
2023-05-24-16:42:25.581368,5.0,4.0,445.0
2023-05-24-16:42:25.582349,5.0,4.0,445.0
2023-05-24-16:42:25.583382,6.0,2.0,445.0
2023-05-24-16:42:25.584379,1.0,4.0,445.0
2023-05-24-16:42:25.585389,1.0,4.0,445.0
2023-05-24-16:42:25.586381,1.0,4.0,445.0
2023-05-24-16:42:25.587384,2.0,4.0,445.0
2023-05-24-16:42:25.588387,1.0,2.0,445.0
2023-05-24-16:42:25.589374,4.0,6.0,445.0
2023-05-24-16:42:25.590341,4.0,6.0,445.0
2023-05-24-16:42:25.591382,4.0,6.0,445.0
2023-05-24-16:42:25.592347,5.0,7.0,445.0
2023-05-24-16:42:25.593393,7.0,4.0,445.0
2023-05-24-16:42:25.594389,6.0,3.0,445.0
2023-05-24-16:42:25.595397,6.0,3.0,445.0
2023-05-24-16:42:25.596344,6.0,4.0,445.0
2023-05-24-16:42:25.597347,6.0,4.0,445.0
2023-05-24-16:42:25.598349,6.0,4.0,445.0
2023-05-24-16:42:25.599375,4.0,4.0,445.0
2023-05-24-16:42:25.600344,7.0,5.0,445.0
2023-05-24-16:42:25.601378,5.0,3.0,445.0
2023-05-24-16:42:25.603341,5.0,3.0,445.0
2023-05-24-16:42:25.603341,4.0,5.0,445.0
2023-05-24-16:42:25.604414,6.0,7.0,445.0
2023-05-24-16:42:25.605414,6.0,7.0,445.0
2023-05-24-16:42:25.606413,6.0,7.0,445.0
2023-05-24-16:42:25.607351,6.0,7.0,445.0
2023-05-24-16:42:25.608399,6.0,4.0,445.0
2023-05-24-16:42:25.609407,6.0,2.0,445.0
2023-05-24-16:42:25.610407,6.0,2.0,445.0
2023-05-24-16:42:25.611400,6.0,2.0,445.0
2023-05-24-16:42:25.612400,5.0,3.0,445.0
2023-05-24-16:42:25.613414,6.0,2.0,445.0
2023-05-24-16:42:25.614398,6.0,2.0,445.0
2023-05-24-16:42:25.615411,6.0,2.0,445.0
2023-05-24-16:42:25.616401,2.0,8.0,445.0
2023-05-24-16:42:25.617401,6.0,3.0,445.0
2023-05-24-16:42:25.618416,6.0,3.0,445.0
2023-05-24-16:42:25.619417,6.0,3.0,445.0
2023-05-24-16:42:25.620416,9.0,2.0,445.0
2023-05-24-16:42:25.621416,3.0,2.0,445.0
2023-05-24-16:42:25.622342,3.0,2.0,445.0
2023-05-24-16:42:25.623386,3.0,2.0,445.0
2023-05-24-16:42:25.624347,4.0,1.0,446.0
2023-05-24-16:42:25.625406,5.0,7.0,445.0
2023-05-24-16:42:25.626405,5.0,7.0,445.0
2023-05-24-16:42:25.627385,5.0,7.0,445.0
2023-05-24-16:42:25.628389,5.0,7.0,445.0
2023-05-24-16:42:25.629360,3.0,5.0,445.0
2023-05-24-16:42:25.630384,3.0,5.0,445.0
2023-05-24-16:42:25.631396,3.0,5.0,445.0
2023-05-24-16:42:25.632401,3.0,5.0,445.0
2023-05-24-16:42:25.634399,6.0,1.0,445.0
2023-05-24-16:42:25.635356,7.0,0.0,445.0
2023-05-24-16:42:25.635356,7.0,0.0,445.0
2023-05-24-16:42:25.636342,5.0,3.0,445.0
2023-05-24-16:42:25.637342,3.0,8.0,445.0
2023-05-24-16:42:25.638415,3.0,9.0,445.0
2023-05-24-16:42:25.639405,3.0,9.0,445.0
2023-05-24-16:42:25.640349,3.0,9.0,445.0
2023-05-24-16:42:25.641406,4.0,11.0,445.0
2023-05-24-16:42:25.642409,5.0,2.0,445.0
2023-05-24-16:42:25.643386,5.0,2.0,445.0
2023-05-24-16:42:25.644396,5.0,2.0,445.0
2023-05-24-16:42:25.645396,8.0,2.0,445.0
2023-05-24-16:42:25.646391,7.0,2.0,445.0
2023-05-24-16:42:25.647391,7.0,2.0,445.0
2023-05-24-16:42:25.648377,7.0,2.0,445.0
2023-05-24-16:42:25.649341,5.0,1.0,445.0
2023-05-24-16:42:25.650383,4.0,4.0,445.0
2023-05-24-16:42:25.651395,4.0,4.0,445.0
2023-05-24-16:42:25.652377,4.0,4.0,445.0
2023-05-24-16:42:25.653391,2.0,2.0,445.0
2023-05-24-16:42:25.654383,6.0,2.0,445.0
2023-05-24-16:42:25.655395,6.0,2.0,445.0
2023-05-24-16:42:25.656380,6.0,2.0,445.0
2023-05-24-16:42:25.657351,4.0,5.0,445.0
2023-05-24-16:42:25.658377,4.0,6.0,445.0
2023-05-24-16:42:25.659389,2.0,5.0,445.0
2023-05-24-16:42:25.660378,2.0,5.0,445.0
2023-05-24-16:42:25.661343,5.0,7.0,445.0
2023-05-24-16:42:25.662375,5.0,7.0,445.0
2023-05-24-16:42:25.663379,5.0,7.0,445.0
2023-05-24-16:42:25.664387,5.0,7.0,445.0
2023-05-24-16:42:25.665379,4.0,1.0,445.0
2023-05-24-16:42:25.666375,4.0,1.0,445.0
2023-05-24-16:42:25.667395,4.0,1.0,445.0
2023-05-24-16:42:25.668377,4.0,1.0,445.0
2023-05-24-16:42:25.670377,4.0,1.0,445.0
2023-05-24-16:42:25.670377,4.0,1.0,445.0
2023-05-24-16:42:25.671376,4.0,1.0,445.0
2023-05-24-16:42:25.672389,4.0,1.0,445.0
2023-05-24-16:42:25.673378,4.0,1.0,445.0
2023-05-24-16:42:25.674394,3.0,5.0,445.0
2023-05-24-16:42:25.675386,3.0,5.0,445.0
2023-05-24-16:42:25.676377,3.0,5.0,445.0
2023-05-24-16:42:25.677389,6.0,7.0,445.0
2023-05-24-16:42:25.678386,3.0,6.0,445.0
2023-05-24-16:42:25.679396,3.0,6.0,445.0
2023-05-24-16:42:25.680385,3.0,6.0,445.0
2023-05-24-16:42:25.681391,3.0,6.0,445.0
2023-05-24-16:42:25.682395,4.0,2.0,445.0
2023-05-24-16:42:25.683388,3.0,3.0,445.0
2023-05-24-16:42:25.684392,3.0,3.0,445.0
2023-05-24-16:42:25.685390,6.0,6.0,445.0
2023-05-24-16:42:25.686378,3.0,5.0,445.0
2023-05-24-16:42:25.687400,3.0,5.0,445.0
2023-05-24-16:42:25.688388,3.0,5.0,445.0
2023-05-24-16:42:25.689387,3.0,5.0,445.0
2023-05-24-16:42:25.690391,6.0,5.0,445.0
2023-05-24-16:42:25.691391,7.0,5.0,445.0
2023-05-24-16:42:25.692376,7.0,5.0,445.0
2023-05-24-16:42:25.693392,7.0,5.0,445.0
2023-05-24-16:42:25.694401,7.0,3.0,445.0
2023-05-24-16:42:25.695383,2.0,1.0,446.0
2023-05-24-16:42:25.696394,2.0,1.0,446.0
2023-05-24-16:42:25.697389,2.0,1.0,446.0
2023-05-24-16:42:25.698386,2.0,6.0,445.0
2023-05-24-16:42:25.699389,6.0,2.0,446.0
2023-05-24-16:42:25.700392,6.0,2.0,446.0
2023-05-24-16:42:25.702378,6.0,2.0,446.0
2023-05-24-16:42:25.702378,4.0,3.0,446.0
2023-05-24-16:42:25.703414,4.0,3.0,446.0
2023-05-24-16:42:25.704395,4.0,3.0,446.0
2023-05-24-16:42:25.705395,4.0,3.0,446.0
2023-05-24-16:42:25.706414,8.0,7.0,446.0
2023-05-24-16:42:25.707376,3.0,5.0,446.0
2023-05-24-16:42:25.708409,3.0,5.0,446.0
2023-05-24-16:42:25.709390,3.0,5.0,446.0
2023-05-24-16:42:25.710401,2.0,8.0,446.0
2023-05-24-16:42:25.711422,6.0,1.0,446.0
2023-05-24-16:42:25.712406,6.0,1.0,446.0
2023-05-24-16:42:25.713406,6.0,1.0,446.0
2023-05-24-16:42:25.714405,6.0,1.0,446.0
2023-05-24-16:42:25.715402,7.0,2.0,445.0
2023-05-24-16:42:25.716399,2.0,3.0,445.0
2023-05-24-16:42:25.717407,2.0,3.0,445.0
2023-05-24-16:42:25.718409,2.0,3.0,445.0
2023-05-24-16:42:25.719377,3.0,7.0,446.0
2023-05-24-16:42:25.720383,3.0,7.0,446.0
2023-05-24-16:42:25.721393,3.0,7.0,446.0
2023-05-24-16:42:25.722400,3.0,7.0,446.0
2023-05-24-16:42:25.723413,3.0,9.0,446.0
2023-05-24-16:42:25.724341,4.0,11.0,446.0
2023-05-24-16:42:25.725390,4.0,11.0,446.0
2023-05-24-16:42:25.726408,4.0,11.0,446.0
2023-05-24-16:42:25.727407,1.0,10.0,445.0
2023-05-24-16:42:25.728386,7.0,2.0,445.0
2023-05-24-16:42:25.729405,7.0,2.0,445.0
2023-05-24-16:42:25.730413,7.0,2.0,445.0
2023-05-24-16:42:25.731406,3.0,4.0,445.0
2023-05-24-16:42:25.732407,5.0,5.0,446.0
2023-05-24-16:42:25.733412,5.0,5.0,446.0
2023-05-24-16:42:25.734400,5.0,5.0,446.0
2023-05-24-16:42:25.735344,5.0,1.0,445.0
2023-05-24-16:42:25.737377,8.0,2.0,446.0
2023-05-24-16:42:25.737377,8.0,2.0,446.0
2023-05-24-16:42:25.738417,8.0,2.0,446.0
2023-05-24-16:42:25.739416,4.0,8.0,446.0
2023-05-24-16:42:25.740347,6.0,6.0,446.0
2023-05-24-16:42:25.741387,6.0,6.0,446.0
2023-05-24-16:42:25.742414,6.0,6.0,446.0
2023-05-24-16:42:25.743414,5.0,4.0,446.0
2023-05-24-16:42:25.744406,7.0,6.0,446.0
2023-05-24-16:42:25.745418,7.0,6.0,446.0
2023-05-24-16:42:25.746386,7.0,6.0,446.0
2023-05-24-16:42:25.747412,5.0,4.0,446.0
2023-05-24-16:42:25.748399,2.0,6.0,446.0
2023-05-24-16:42:25.749398,6.0,6.0,446.0
2023-05-24-16:42:25.750342,6.0,6.0,446.0
2023-05-24-16:42:25.751401,5.0,2.0,446.0
2023-05-24-16:42:25.752411,3.0,3.0,446.0
2023-05-24-16:42:25.753419,3.0,3.0,446.0
2023-05-24-16:42:25.754405,3.0,3.0,446.0
2023-05-24-16:42:25.755414,4.0,0.0,446.0
2023-05-24-16:42:25.756411,6.0,2.0,446.0
2023-05-24-16:42:25.757395,6.0,2.0,446.0
2023-05-24-16:42:25.758391,6.0,2.0,446.0
2023-05-24-16:42:25.759377,6.0,2.0,446.0
2023-05-24-16:42:25.760417,6.0,3.0,446.0
2023-05-24-16:42:25.761414,6.0,3.0,446.0
2023-05-24-16:42:25.762415,6.0,3.0,446.0
2023-05-24-16:42:25.763408,6.0,3.0,446.0
2023-05-24-16:42:25.764394,4.0,1.0,446.0
2023-05-24-16:42:25.765387,4.0,1.0,446.0
2023-05-24-16:42:25.766381,4.0,1.0,446.0
2023-05-24-16:42:25.767382,4.0,1.0,446.0
2023-05-24-16:42:25.769399,4.0,1.0,446.0
2023-05-24-16:42:25.769399,7.0,0.0,446.0
2023-05-24-16:42:25.770383,7.0,0.0,446.0
2023-05-24-16:42:25.771399,7.0,0.0,446.0
2023-05-24-16:42:25.772400,5.0,4.0,446.0
2023-05-24-16:42:25.773413,2.0,6.0,446.0
2023-05-24-16:42:25.774398,4.0,5.0,446.0
2023-05-24-16:42:25.775403,4.0,5.0,446.0
2023-05-24-16:42:25.776412,5.0,8.0,445.0
2023-05-24-16:42:25.777410,5.0,8.0,446.0
2023-05-24-16:42:25.778411,5.0,2.0,445.0
2023-05-24-16:42:25.779406,5.0,2.0,445.0
2023-05-24-16:42:25.780414,6.0,2.0,445.0
2023-05-24-16:42:25.781359,5.0,0.0,446.0
2023-05-24-16:42:25.782462,5.0,3.0,446.0
2023-05-24-16:42:25.783452,5.0,3.0,446.0
2023-05-24-16:42:25.784422,8.0,3.0,446.0
2023-05-24-16:42:25.785401,5.0,3.0,446.0
2023-05-24-16:42:25.786363,5.0,3.0,446.0
2023-05-24-16:42:25.787358,5.0,3.0,446.0
2023-05-24-16:42:25.788340,5.0,3.0,446.0
2023-05-24-16:42:25.789357,5.0,3.0,446.0
2023-05-24-16:42:25.790495,6.0,2.0,446.0
2023-05-24-16:42:25.791348,6.0,2.0,446.0
2023-05-24-16:42:25.792473,6.0,3.0,446.0
2023-05-24-16:42:25.793424,3.0,8.0,445.0
2023-05-24-16:42:25.794454,6.0,11.0,445.0
2023-05-24-16:42:25.795406,4.0,6.0,446.0
2023-05-24-16:42:25.796390,5.0,3.0,446.0
2023-05-24-16:42:25.797376,5.0,3.0,445.0
2023-05-24-16:42:25.798341,5.0,3.0,445.0
2023-05-24-16:42:25.799377,5.0,3.0,445.0
2023-05-24-16:42:25.800378,5.0,3.0,445.0
2023-05-24-16:42:25.801383,6.0,2.0,446.0
2023-05-24-16:42:25.802386,6.0,4.0,445.0
2023-05-24-16:42:25.805341,5.0,1.0,446.0
2023-05-24-16:42:25.805341,5.0,6.0,446.0
2023-05-24-16:42:25.806364,4.0,6.0,446.0
2023-05-24-16:42:25.807355,4.0,6.0,446.0
2023-05-24-16:42:25.808343,4.0,6.0,446.0
2023-05-24-16:42:25.809387,4.0,4.0,445.0
2023-05-24-16:42:25.810380,4.0,3.0,446.0
2023-05-24-16:42:25.811381,4.0,3.0,446.0
2023-05-24-16:42:25.812393,4.0,3.0,446.0
2023-05-24-16:42:25.813380,6.0,2.0,445.0
2023-05-24-16:42:25.814391,6.0,1.0,445.0
2023-05-24-16:42:25.815383,6.0,1.0,445.0
2023-05-24-16:42:25.816403,6.0,1.0,445.0
2023-05-24-16:42:25.817377,5.0,1.0,446.0
2023-05-24-16:42:25.818394,3.0,10.0,445.0
2023-05-24-16:42:25.819388,2.0,5.0,445.0
2023-05-24-16:42:25.820377,2.0,5.0,445.0
2023-05-24-16:42:25.821395,2.0,8.0,445.0
2023-05-24-16:42:25.822342,4.0,0.0,445.0
2023-05-24-16:42:25.823391,4.0,0.0,445.0
2023-05-24-16:42:25.824346,4.0,0.0,445.0
2023-05-24-16:42:25.825379,3.0,1.0,446.0
2023-05-24-16:42:25.826358,7.0,4.0,445.0
2023-05-24-16:42:25.827378,4.0,3.0,445.0
2023-05-24-16:42:25.828391,4.0,3.0,445.0
2023-05-24-16:42:25.829411,7.0,3.0,445.0
2023-05-24-16:42:25.830378,4.0,4.0,445.0
2023-05-24-16:42:25.831398,3.0,3.0,446.0
2023-05-24-16:42:25.832408,3.0,3.0,446.0
2023-05-24-16:42:25.833408,5.0,2.0,445.0
2023-05-24-16:42:25.834380,4.0,0.0,445.0
2023-05-24-16:42:25.835378,4.0,4.0,445.0
2023-05-24-16:42:25.836344,4.0,4.0,445.0
2023-05-24-16:42:25.837395,5.0,5.0,445.0
2023-05-24-16:42:25.839378,4.0,8.0,445.0
2023-05-24-16:42:25.839378,4.0,8.0,445.0
2023-05-24-16:42:25.840348,4.0,8.0,445.0
2023-05-24-16:42:25.841379,7.0,4.0,445.0
2023-05-24-16:42:25.842397,7.0,4.0,445.0
2023-05-24-16:42:25.843402,7.0,4.0,445.0
2023-05-24-16:42:25.844415,7.0,4.0,445.0
2023-05-24-16:42:25.845412,7.0,4.0,445.0
2023-05-24-16:42:25.846419,6.0,4.0,446.0
2023-05-24-16:42:25.847414,5.0,1.0,445.0
2023-05-24-16:42:25.848412,5.0,1.0,445.0
2023-05-24-16:42:25.849350,5.0,1.0,445.0
2023-05-24-16:42:25.850409,7.0,0.0,445.0
2023-05-24-16:42:25.851398,6.0,2.0,445.0
2023-05-24-16:42:25.852417,6.0,3.0,445.0
2023-05-24-16:42:25.853406,5.0,2.0,445.0
2023-05-24-16:42:25.854415,3.0,2.0,446.0
2023-05-24-16:42:25.855406,4.0,5.0,446.0
2023-05-24-16:42:25.856402,6.0,4.0,446.0
2023-05-24-16:42:25.857342,6.0,4.0,446.0
2023-05-24-16:42:25.858396,3.0,6.0,446.0
2023-05-24-16:42:25.859393,6.0,4.0,446.0
2023-05-24-16:42:25.860396,6.0,2.0,446.0
2023-05-24-16:42:25.861394,6.0,2.0,446.0
2023-05-24-16:42:25.862379,8.0,4.0,446.0
2023-05-24-16:42:25.863384,5.0,3.0,446.0
2023-05-24-16:42:25.864396,4.0,2.0,446.0
2023-05-24-16:42:25.865378,4.0,4.0,446.0
2023-05-24-16:42:25.866388,4.0,7.0,446.0
2023-05-24-16:42:25.867388,3.0,4.0,446.0
2023-05-24-16:42:25.868394,4.0,2.0,446.0
2023-05-24-16:42:25.869380,7.0,1.0,446.0
2023-05-24-16:42:25.870378,7.0,1.0,446.0
2023-05-24-16:42:25.871393,7.0,1.0,446.0
2023-05-24-16:42:25.872390,6.0,2.0,446.0
2023-05-24-16:42:25.873404,6.0,2.0,446.0
2023-05-24-16:42:25.874388,4.0,5.0,446.0
2023-05-24-16:42:25.875381,1.0,6.0,446.0
2023-05-24-16:42:25.877378,4.0,2.0,446.0
2023-05-24-16:42:25.877378,2.0,0.0,446.0
2023-05-24-16:42:25.878381,2.0,6.0,446.0
2023-05-24-16:42:25.879398,2.0,6.0,446.0
2023-05-24-16:42:25.880411,2.0,6.0,446.0
2023-05-24-16:42:25.881404,2.0,6.0,446.0
2023-05-24-16:42:25.882398,4.0,6.0,446.0
2023-05-24-16:42:25.883415,5.0,3.0,446.0
2023-05-24-16:42:25.884411,5.0,2.0,445.0
2023-05-24-16:42:25.885402,5.0,2.0,445.0
2023-05-24-16:42:25.886406,5.0,2.0,445.0
2023-05-24-16:42:25.887412,4.0,6.0,445.0
2023-05-24-16:42:25.888418,4.0,4.0,445.0
2023-05-24-16:42:25.889345,4.0,4.0,445.0
2023-05-24-16:42:25.890389,4.0,4.0,445.0
2023-05-24-16:42:25.891407,4.0,5.0,445.0
2023-05-24-16:42:25.892399,5.0,4.0,446.0
2023-05-24-16:42:25.893411,5.0,3.0,446.0
2023-05-24-16:42:25.894390,5.0,3.0,446.0
2023-05-24-16:42:25.895389,5.0,6.0,446.0
2023-05-24-16:42:25.896378,4.0,8.0,446.0
2023-05-24-16:42:25.897386,6.0,5.0,446.0
2023-05-24-16:42:25.898391,4.0,4.0,446.0
2023-05-24-16:42:25.899390,8.0,2.0,446.0
2023-05-24-16:42:25.900386,5.0,0.0,446.0
2023-05-24-16:42:25.901399,3.0,0.0,446.0
2023-05-24-16:42:25.902378,3.0,0.0,446.0
2023-05-24-16:42:25.903390,3.0,4.0,445.0
2023-05-24-16:42:25.904394,6.0,6.0,446.0
2023-05-24-16:42:25.905379,2.0,7.0,446.0
2023-05-24-16:42:25.906386,2.0,7.0,446.0
2023-05-24-16:42:25.907390,4.0,4.0,446.0
2023-05-24-16:42:25.909341,7.0,5.0,446.0
2023-05-24-16:42:25.910341,7.0,5.0,446.0
2023-05-24-16:42:25.910341,9.0,3.0,446.0
2023-05-24-16:42:25.911411,3.0,4.0,446.0
2023-05-24-16:42:25.912400,3.0,4.0,446.0
2023-05-24-16:42:25.913385,3.0,4.0,446.0
2023-05-24-16:42:25.914411,3.0,4.0,446.0
2023-05-24-16:42:25.915398,5.0,3.0,446.0
2023-05-24-16:42:25.916398,4.0,6.0,446.0
2023-05-24-16:42:25.917419,4.0,5.0,446.0
2023-05-24-16:42:25.918413,4.0,5.0,446.0
2023-05-24-16:42:25.919411,6.0,3.0,446.0
2023-05-24-16:42:25.920417,7.0,6.0,446.0
2023-05-24-16:42:25.921408,6.0,4.0,446.0
2023-05-24-16:42:25.922408,6.0,4.0,446.0
2023-05-24-16:42:25.923398,4.0,4.0,446.0
2023-05-24-16:42:25.924378,5.0,5.0,446.0
2023-05-24-16:42:25.925377,5.0,5.0,446.0
2023-05-24-16:42:25.926379,5.0,5.0,446.0
2023-05-24-16:42:25.927397,5.0,1.0,446.0
2023-05-24-16:42:25.928373,6.0,3.0,446.0
2023-05-24-16:42:25.929388,4.0,2.0,446.0
2023-05-24-16:42:25.930397,4.0,2.0,446.0
2023-05-24-16:42:25.931391,4.0,2.0,446.0
2023-05-24-16:42:25.932379,4.0,1.0,446.0
2023-05-24-16:42:25.933395,4.0,1.0,446.0
2023-05-24-16:42:25.934388,4.0,1.0,446.0
2023-05-24-16:42:25.935380,4.0,1.0,446.0
2023-05-24-16:42:25.936391,3.0,7.0,446.0
2023-05-24-16:42:25.937390,3.0,13.0,446.0
2023-05-24-16:42:25.938388,3.0,13.0,446.0
2023-05-24-16:42:25.939391,3.0,13.0,446.0
2023-05-24-16:42:25.940387,4.0,8.0,446.0
2023-05-24-16:42:25.941341,5.0,0.0,446.0
2023-05-24-16:42:25.943341,5.0,0.0,446.0
2023-05-24-16:42:25.943341,5.0,0.0,446.0
2023-05-24-16:42:25.944343,4.0,1.0,446.0
2023-05-24-16:42:25.945385,6.0,2.0,446.0
2023-05-24-16:42:25.946385,6.0,2.0,446.0
2023-05-24-16:42:25.947377,6.0,2.0,446.0
2023-05-24-16:42:25.948397,5.0,3.0,446.0
2023-05-24-16:42:25.949341,9.0,2.0,446.0
2023-05-24-16:42:25.950340,4.0,1.0,446.0
2023-05-24-16:42:25.951391,4.0,1.0,446.0
2023-05-24-16:42:25.952390,3.0,1.0,446.0
2023-05-24-16:42:25.953378,2.0,7.0,445.0
2023-05-24-16:42:25.954375,2.0,6.0,446.0
2023-05-24-16:42:25.955388,4.0,8.0,446.0
2023-05-24-16:42:25.956381,6.0,1.0,446.0
2023-05-24-16:42:25.957355,5.0,2.0,446.0
2023-05-24-16:42:25.958340,5.0,2.0,446.0
2023-05-24-16:42:25.959395,5.0,2.0,446.0
2023-05-24-16:42:25.960393,5.0,2.0,446.0
2023-05-24-16:42:25.961393,6.0,2.0,446.0
2023-05-24-16:42:25.962390,7.0,2.0,446.0
2023-05-24-16:42:25.963375,7.0,2.0,446.0
2023-05-24-16:42:25.964392,1.0,9.0,446.0
2023-05-24-16:42:25.965384,3.0,3.0,446.0
2023-05-24-16:42:25.966375,3.0,3.0,446.0
2023-05-24-16:42:25.967381,3.0,3.0,446.0
2023-05-24-16:42:25.968383,5.0,2.0,446.0
2023-05-24-16:42:25.969397,8.0,6.0,446.0
2023-05-24-16:42:25.970390,5.0,8.0,446.0
2023-05-24-16:42:25.971395,5.0,8.0,446.0
2023-05-24-16:42:25.972387,5.0,9.0,446.0
2023-05-24-16:42:25.973391,4.0,9.0,446.0
2023-05-24-16:42:25.974346,5.0,7.0,445.0
2023-05-24-16:42:25.975413,5.0,7.0,445.0
2023-05-24-16:42:25.976404,5.0,7.0,445.0
2023-05-24-16:42:25.977417,7.0,1.0,446.0
2023-05-24-16:42:25.979400,7.0,5.0,446.0
2023-05-24-16:42:25.980342,5.0,7.0,446.0
2023-05-24-16:42:25.980342,4.0,3.0,446.0
2023-05-24-16:42:25.981405,4.0,3.0,446.0
2023-05-24-16:42:25.982387,4.0,3.0,446.0
2023-05-24-16:42:25.983373,4.0,3.0,446.0
2023-05-24-16:42:25.984414,4.0,3.0,446.0
2023-05-24-16:42:25.985401,6.0,2.0,446.0
2023-05-24-16:42:25.986398,7.0,0.0,446.0
2023-05-24-16:42:25.987414,7.0,0.0,446.0
2023-05-24-16:42:25.990400,7.0,0.0,446.0
2023-05-24-16:42:25.990400,7.0,1.0,446.0
2023-05-24-16:42:25.991399,3.0,6.0,446.0
2023-05-24-16:42:25.992403,3.0,6.0,446.0
2023-05-24-16:42:25.993399,3.0,6.0,446.0
2023-05-24-16:42:25.994409,9.0,2.0,446.0
2023-05-24-16:42:25.995417,9.0,2.0,446.0
2023-05-24-16:42:25.996400,9.0,2.0,446.0
2023-05-24-16:42:25.997416,6.0,0.0,446.0
2023-05-24-16:42:25.998398,8.0,2.0,446.0
2023-05-24-16:42:25.999413,8.0,0.0,446.0
2023-05-24-16:42:26.000419,8.0,0.0,446.0
2023-05-24-16:42:26.001426,5.0,2.0,446.0
2023-05-24-16:42:26.002401,5.0,7.0,446.0
2023-05-24-16:42:26.003398,0.0,14.0,446.0
2023-05-24-16:42:26.004395,0.0,14.0,446.0
2023-05-24-16:42:26.005415,4.0,16.0,446.0
2023-05-24-16:42:26.006410,5.0,2.0,446.0
2023-05-24-16:42:26.007403,7.0,2.0,446.0
2023-05-24-16:42:26.009401,7.0,2.0,446.0
2023-05-24-16:42:26.009401,7.0,4.0,446.0
2023-05-24-16:42:26.011377,9.0,3.0,446.0
2023-05-24-16:42:26.011377,9.0,3.0,446.0
2023-05-24-16:42:26.012414,9.0,3.0,446.0
2023-05-24-16:42:26.013416,9.0,3.0,446.0
2023-05-24-16:42:26.014409,3.0,9.0,446.0
2023-05-24-16:42:26.015398,5.0,5.0,446.0
2023-05-24-16:42:26.016412,5.0,5.0,446.0
2023-05-24-16:42:26.017400,5.0,5.0,446.0
2023-05-24-16:42:26.018397,6.0,3.0,446.0
2023-05-24-16:42:26.019413,3.0,1.0,446.0
2023-05-24-16:42:26.020349,3.0,1.0,446.0
2023-05-24-16:42:26.021381,3.0,1.0,446.0
2023-05-24-16:42:26.022380,7.0,0.0,445.0
2023-05-24-16:42:26.023387,6.0,2.0,446.0
2023-05-24-16:42:26.024343,5.0,4.0,446.0
2023-05-24-16:42:26.025381,5.0,4.0,446.0
2023-05-24-16:42:26.026390,4.0,5.0,446.0
2023-05-24-16:42:26.027378,6.0,4.0,446.0
2023-05-24-16:42:26.028394,6.0,4.0,446.0
2023-05-24-16:42:26.029388,6.0,4.0,446.0
2023-05-24-16:42:26.030392,6.0,2.0,446.0
2023-05-24-16:42:26.031380,7.0,11.0,445.0
2023-05-24-16:42:26.032388,5.0,18.0,446.0
2023-05-24-16:42:26.033377,5.0,18.0,446.0
2023-05-24-16:42:26.034395,7.0,19.0,446.0
2023-05-24-16:42:26.035378,7.0,4.0,446.0
2023-05-24-16:42:26.036398,7.0,4.0,446.0
2023-05-24-16:42:26.037381,7.0,4.0,446.0
2023-05-24-16:42:26.038397,8.0,8.0,446.0
2023-05-24-16:42:26.039387,7.0,1.0,446.0
2023-05-24-16:42:26.040404,6.0,1.0,446.0
2023-05-24-16:42:26.041342,6.0,1.0,446.0
2023-05-24-16:42:26.042388,4.0,3.0,446.0
2023-05-24-16:42:26.043384,4.0,3.0,446.0
2023-05-24-16:42:26.045381,6.0,4.0,446.0
2023-05-24-16:42:26.045381,6.0,5.0,446.0
2023-05-24-16:42:26.046398,5.0,2.0,446.0
2023-05-24-16:42:26.047417,5.0,2.0,446.0
2023-05-24-16:42:26.048420,5.0,2.0,446.0
2023-05-24-16:42:26.049391,5.0,2.0,446.0
2023-05-24-16:42:26.050403,5.0,4.0,445.0
2023-05-24-16:42:26.052400,6.0,2.0,445.0
2023-05-24-16:42:26.053406,6.0,2.0,445.0
2023-05-24-16:42:26.053406,3.0,5.0,445.0
2023-05-24-16:42:26.054399,6.0,7.0,445.0
2023-05-24-16:42:26.055417,6.0,7.0,445.0
2023-05-24-16:42:26.056423,6.0,7.0,445.0
2023-05-24-16:42:26.057357,6.0,7.0,445.0
2023-05-24-16:42:26.058343,6.0,7.0,445.0
2023-05-24-16:42:26.059427,4.0,1.0,446.0
2023-05-24-16:42:26.060413,4.0,3.0,446.0
2023-05-24-16:42:26.061392,4.0,3.0,446.0
2023-05-24-16:42:26.062397,4.0,3.0,446.0
2023-05-24-16:42:26.063378,5.0,4.0,446.0
2023-05-24-16:42:26.064389,2.0,7.0,446.0
2023-05-24-16:42:26.065395,2.0,7.0,446.0
2023-05-24-16:42:26.066393,2.0,7.0,446.0
2023-05-24-16:42:26.067379,5.0,7.0,446.0
2023-05-24-16:42:26.068385,5.0,2.0,446.0
2023-05-24-16:42:26.069384,5.0,4.0,446.0
2023-05-24-16:42:26.070378,5.0,4.0,446.0
2023-05-24-16:42:26.071378,2.0,3.0,446.0
2023-05-24-16:42:26.072378,3.0,0.0,446.0
2023-05-24-16:42:26.073391,4.0,1.0,446.0
2023-05-24-16:42:26.074399,4.0,1.0,446.0
2023-05-24-16:42:26.075387,6.0,2.0,446.0
2023-05-24-16:42:26.076394,5.0,1.0,446.0
2023-05-24-16:42:26.077399,4.0,5.0,446.0
2023-05-24-16:42:26.078409,4.0,5.0,446.0
2023-05-24-16:42:26.080401,4.0,3.0,446.0
2023-05-24-16:42:26.080401,6.0,3.0,446.0
2023-05-24-16:42:26.081384,6.0,3.0,446.0
2023-05-24-16:42:26.082424,6.0,3.0,446.0
2023-05-24-16:42:26.083415,7.0,3.0,446.0
2023-05-24-16:42:26.084421,5.0,7.0,446.0
2023-05-24-16:42:26.085410,4.0,9.0,446.0
2023-05-24-16:42:26.086389,4.0,9.0,446.0
2023-05-24-16:42:26.087390,3.0,6.0,445.0
2023-05-24-16:42:26.088414,5.0,3.0,446.0
2023-05-24-16:42:26.089410,5.0,4.0,446.0
2023-05-24-16:42:26.090382,5.0,4.0,446.0
2023-05-24-16:42:26.091412,3.0,7.0,446.0
2023-05-24-16:42:26.092398,6.0,4.0,446.0
2023-05-24-16:42:26.093402,6.0,4.0,446.0
2023-05-24-16:42:26.094399,6.0,4.0,446.0
2023-05-24-16:42:26.095408,4.0,1.0,446.0
2023-05-24-16:42:26.096411,7.0,2.0,446.0
2023-05-24-16:42:26.097381,7.0,2.0,446.0
2023-05-24-16:42:26.098381,7.0,2.0,446.0
2023-05-24-16:42:26.099407,5.0,4.0,446.0
2023-05-24-16:42:26.100414,4.0,5.0,446.0
2023-05-24-16:42:26.101409,7.0,2.0,446.0
2023-05-24-16:42:26.102414,7.0,2.0,446.0
2023-05-24-16:42:26.103398,7.0,2.0,446.0
2023-05-24-16:42:26.104416,4.0,3.0,446.0
2023-05-24-16:42:26.105413,6.0,11.0,446.0
2023-05-24-16:42:26.106398,6.0,11.0,446.0
2023-05-24-16:42:26.107400,6.0,11.0,446.0
2023-05-24-16:42:26.108404,4.0,9.0,446.0
2023-05-24-16:42:26.109391,3.0,3.0,446.0
2023-05-24-16:42:26.110400,3.0,3.0,446.0
2023-05-24-16:42:26.111400,3.0,3.0,446.0
2023-05-24-16:42:26.112387,4.0,0.0,446.0
2023-05-24-16:42:26.113388,5.0,1.0,446.0
2023-05-24-16:42:26.115377,5.0,1.0,446.0
2023-05-24-16:42:26.115377,5.0,10.0,446.0
2023-05-24-16:42:26.116399,4.0,0.0,446.0
2023-05-24-16:42:26.117420,3.0,6.0,446.0
2023-05-24-16:42:26.118419,3.0,6.0,446.0
2023-05-24-16:42:26.119404,3.0,6.0,446.0
2023-05-24-16:42:26.120409,5.0,6.0,445.0
2023-05-24-16:42:26.121415,6.0,1.0,446.0
2023-05-24-16:42:26.122418,6.0,1.0,446.0
2023-05-24-16:42:26.123418,6.0,1.0,446.0
2023-05-24-16:42:26.124393,5.0,2.0,445.0
2023-05-24-16:42:26.125402,5.0,3.0,446.0
2023-05-24-16:42:26.126398,4.0,7.0,446.0
2023-05-24-16:42:26.127397,4.0,7.0,446.0
2023-05-24-16:42:26.128367,6.0,4.0,446.0
2023-05-24-16:42:26.129415,5.0,5.0,446.0
2023-05-24-16:42:26.130401,4.0,5.0,446.0
2023-05-24-16:42:26.131417,4.0,5.0,446.0
2023-05-24-16:42:26.132412,1.0,4.0,446.0
2023-05-24-16:42:26.133415,3.0,7.0,446.0
2023-05-24-16:42:26.134406,2.0,4.0,446.0
2023-05-24-16:42:26.135417,4.0,4.0,445.0
2023-05-24-16:42:26.136416,5.0,1.0,446.0
2023-05-24-16:42:26.137415,6.0,1.0,446.0
2023-05-24-16:42:26.138399,8.0,3.0,446.0
2023-05-24-16:42:26.139414,3.0,5.0,445.0
2023-05-24-16:42:26.140415,5.0,4.0,446.0
2023-05-24-16:42:26.141350,5.0,4.0,446.0
2023-05-24-16:42:26.142399,5.0,4.0,446.0
2023-05-24-16:42:26.143407,5.0,4.0,446.0
2023-05-24-16:42:26.144406,5.0,4.0,446.0
2023-05-24-16:42:26.145416,4.0,4.0,446.0
2023-05-24-16:42:26.148342,3.0,0.0,445.0
2023-05-24-16:42:26.148342,6.0,4.0,446.0
2023-05-24-16:42:26.149398,4.0,6.0,446.0
2023-05-24-16:42:26.150407,5.0,6.0,446.0
2023-05-24-16:42:26.151400,5.0,6.0,446.0
2023-05-24-16:42:26.152414,5.0,6.0,446.0
2023-05-24-16:42:26.153414,7.0,2.0,446.0
2023-05-24-16:42:26.154407,7.0,8.0,445.0
2023-05-24-16:42:26.155351,5.0,10.0,446.0
2023-05-24-16:42:26.156399,5.0,10.0,446.0
2023-05-24-16:42:26.157378,7.0,0.0,446.0
2023-05-24-16:42:26.158407,5.0,3.0,446.0
2023-05-24-16:42:26.159416,3.0,2.0,446.0
2023-05-24-16:42:26.160341,3.0,2.0,446.0
2023-05-24-16:42:26.161340,4.0,1.0,446.0
2023-05-24-16:42:26.162394,4.0,1.0,446.0
2023-05-24-16:42:26.163390,4.0,0.0,446.0
2023-05-24-16:42:26.164399,6.0,3.0,446.0
2023-05-24-16:42:26.165387,6.0,3.0,446.0
2023-05-24-16:42:26.166377,6.0,5.0,446.0
2023-05-24-16:42:26.167375,7.0,1.0,446.0
2023-05-24-16:42:26.168386,5.0,3.0,446.0
2023-05-24-16:42:26.169394,6.0,15.0,446.0
2023-05-24-16:42:26.170375,6.0,15.0,446.0
2023-05-24-16:42:26.171389,6.0,15.0,446.0
2023-05-24-16:42:26.172391,6.0,15.0,446.0
2023-05-24-16:42:26.173390,6.0,4.0,446.0
2023-05-24-16:42:26.174341,5.0,3.0,446.0
2023-05-24-16:42:26.175398,7.0,3.0,446.0
2023-05-24-16:42:26.176404,7.0,3.0,446.0
2023-05-24-16:42:26.177407,5.0,1.0,446.0
2023-05-24-16:42:26.178401,4.0,0.0,446.0
2023-05-24-16:42:26.179407,4.0,0.0,446.0
2023-05-24-16:42:26.180409,4.0,0.0,446.0
2023-05-24-16:42:26.182379,5.0,6.0,446.0
2023-05-24-16:42:26.182379,4.0,3.0,446.0
2023-05-24-16:42:26.183355,4.0,3.0,446.0
2023-05-24-16:42:26.184407,4.0,3.0,446.0
2023-05-24-16:42:26.185415,4.0,3.0,446.0
2023-05-24-16:42:26.186412,2.0,10.0,446.0
2023-05-24-16:42:26.187416,2.0,6.0,446.0
2023-05-24-16:42:26.188399,2.0,6.0,446.0
2023-05-24-16:42:26.189401,2.0,6.0,446.0
2023-05-24-16:42:26.190413,6.0,5.0,446.0
2023-05-24-16:42:26.191398,7.0,2.0,446.0
2023-05-24-16:42:26.192405,7.0,2.0,446.0
2023-05-24-16:42:26.195401,7.0,2.0,446.0
2023-05-24-16:42:26.195401,5.0,6.0,445.0
2023-05-24-16:42:26.196418,5.0,6.0,445.0
2023-05-24-16:42:26.197342,5.0,6.0,445.0
2023-05-24-16:42:26.198426,7.0,3.0,446.0
2023-05-24-16:42:26.199408,7.0,3.0,446.0
2023-05-24-16:42:26.200406,7.0,3.0,446.0
2023-05-24-16:42:26.201419,7.0,3.0,446.0
2023-05-24-16:42:26.202414,6.0,2.0,446.0
2023-05-24-16:42:26.203341,4.0,7.0,446.0
2023-05-24-16:42:26.204343,4.0,7.0,446.0
2023-05-24-16:42:26.205397,4.0,7.0,446.0
2023-05-24-16:42:26.206380,4.0,8.0,446.0
2023-05-24-16:42:26.207400,5.0,4.0,446.0
2023-05-24-16:42:26.208345,4.0,5.0,446.0
2023-05-24-16:42:26.209351,4.0,5.0,446.0
2023-05-24-16:42:26.210391,6.0,6.0,445.0
2023-05-24-16:42:26.211392,6.0,11.0,445.0
2023-05-24-16:42:26.212392,4.0,11.0,446.0
2023-05-24-16:42:26.213391,4.0,11.0,446.0
2023-05-24-16:42:26.215377,4.0,11.0,446.0
2023-05-24-16:42:26.215377,6.0,0.0,446.0
2023-05-24-16:42:26.216409,6.0,7.0,446.0
2023-05-24-16:42:26.217379,6.0,7.0,446.0
2023-05-24-16:42:26.218404,7.0,3.0,446.0
2023-05-24-16:42:26.219417,8.0,10.0,445.0
2023-05-24-16:42:26.220409,7.0,11.0,445.0
2023-05-24-16:42:26.221381,7.0,11.0,445.0
2023-05-24-16:42:26.222399,4.0,13.0,446.0
2023-05-24-16:42:26.223400,5.0,6.0,445.0
2023-05-24-16:42:26.224341,5.0,6.0,445.0
2023-05-24-16:42:26.225344,5.0,6.0,445.0
2023-05-24-16:42:26.226426,5.0,6.0,445.0
2023-05-24-16:42:26.227397,7.0,2.0,446.0
2023-05-24-16:42:26.228399,6.0,1.0,446.0
2023-05-24-16:42:26.229398,6.0,1.0,446.0
2023-05-24-16:42:26.230399,6.0,12.0,446.0
2023-05-24-16:42:26.231419,6.0,3.0,446.0
2023-05-24-16:42:26.232388,6.0,3.0,446.0
2023-05-24-16:42:26.233379,6.0,3.0,446.0
2023-05-24-16:42:26.234396,6.0,3.0,446.0
2023-05-24-16:42:26.235392,3.0,3.0,446.0
2023-05-24-16:42:26.236382,4.0,8.0,445.0
2023-05-24-16:42:26.237389,4.0,12.0,446.0
2023-05-24-16:42:26.238388,4.0,12.0,446.0
2023-05-24-16:42:26.239390,5.0,7.0,446.0
2023-05-24-16:42:26.240386,6.0,5.0,446.0
2023-05-24-16:42:26.241341,9.0,7.0,446.0
2023-05-24-16:42:26.242383,9.0,7.0,446.0
2023-05-24-16:42:26.243414,5.0,7.0,446.0
2023-05-24-16:42:26.244416,7.0,7.0,446.0
2023-05-24-16:42:26.245399,8.0,6.0,446.0
2023-05-24-16:42:26.246413,8.0,6.0,446.0
2023-05-24-16:42:26.247415,5.0,8.0,446.0
2023-05-24-16:42:26.248398,5.0,4.0,446.0
2023-05-24-16:42:26.250381,5.0,4.0,446.0
2023-05-24-16:42:26.250381,6.0,0.0,445.0
2023-05-24-16:42:26.251409,6.0,1.0,446.0
2023-05-24-16:42:26.252404,4.0,5.0,446.0
2023-05-24-16:42:26.253420,4.0,5.0,446.0
2023-05-24-16:42:26.254416,4.0,5.0,446.0
2023-05-24-16:42:26.255411,7.0,6.0,446.0
2023-05-24-16:42:26.256377,8.0,5.0,446.0
2023-05-24-16:42:26.257399,8.0,5.0,446.0
2023-05-24-16:42:26.258392,8.0,5.0,446.0
2023-05-24-16:42:26.259378,7.0,7.0,446.0
2023-05-24-16:42:26.260393,8.0,5.0,446.0
2023-05-24-16:42:26.261378,6.0,6.0,446.0
2023-05-24-16:42:26.262393,6.0,6.0,446.0
2023-05-24-16:42:26.263400,10.0,2.0,446.0
2023-05-24-16:42:26.264399,10.0,2.0,446.0
2023-05-24-16:42:26.265412,10.0,2.0,446.0
2023-05-24-16:42:26.266405,10.0,2.0,446.0
2023-05-24-16:42:26.267400,10.0,2.0,446.0
2023-05-24-16:42:26.268402,9.0,3.0,446.0
2023-05-24-16:42:26.269414,6.0,7.0,446.0
2023-05-24-16:42:26.270415,6.0,7.0,446.0
2023-05-24-16:42:26.271409,6.0,7.0,446.0
2023-05-24-16:42:26.272416,8.0,11.0,446.0
2023-05-24-16:42:26.273412,8.0,11.0,446.0
2023-05-24-16:42:26.274377,8.0,11.0,446.0
2023-05-24-16:42:26.275399,8.0,11.0,446.0
2023-05-24-16:42:26.276399,10.0,9.0,446.0
2023-05-24-16:42:26.277379,9.0,2.0,446.0
2023-05-24-16:42:26.278419,4.0,2.0,446.0
2023-05-24-16:42:26.279399,4.0,2.0,446.0
2023-05-24-16:42:26.280398,4.0,3.0,446.0
2023-05-24-16:42:26.281408,5.0,4.0,446.0
2023-05-24-16:42:26.282408,5.0,4.0,446.0
2023-05-24-16:42:26.283414,5.0,4.0,446.0
2023-05-24-16:42:26.285381,8.0,2.0,446.0
2023-05-24-16:42:26.285381,9.0,9.0,446.0
2023-05-24-16:42:26.286398,9.0,9.0,446.0
2023-05-24-16:42:26.287416,9.0,9.0,446.0
2023-05-24-16:42:26.288343,7.0,8.0,446.0
2023-05-24-16:42:26.289409,5.0,1.0,446.0
2023-05-24-16:42:26.290415,6.0,3.0,446.0
2023-05-24-16:42:26.291418,6.0,3.0,446.0
2023-05-24-16:42:26.292408,4.0,8.0,446.0
2023-05-24-16:42:26.293398,3.0,8.0,446.0
2023-05-24-16:42:26.294401,4.0,10.0,446.0
2023-05-24-16:42:26.295422,4.0,10.0,446.0
2023-05-24-16:42:26.296397,5.0,9.0,446.0
2023-05-24-16:42:26.297411,5.0,12.0,446.0
2023-05-24-16:42:26.298416,5.0,12.0,446.0
2023-05-24-16:42:26.299402,5.0,12.0,446.0
2023-05-24-16:42:26.300410,8.0,5.0,445.0
2023-05-24-16:42:26.301408,7.0,3.0,445.0
2023-05-24-16:42:26.302408,7.0,3.0,445.0
2023-05-24-16:42:26.303392,7.0,3.0,445.0
2023-05-24-16:42:26.304415,5.0,4.0,446.0
2023-05-24-16:42:26.305399,6.0,8.0,446.0
2023-05-24-16:42:26.306416,6.0,7.0,446.0
2023-05-24-16:42:26.307408,5.0,3.0,445.0
2023-05-24-16:42:26.308412,6.0,7.0,446.0
2023-05-24-16:42:26.309416,7.0,8.0,446.0
2023-05-24-16:42:26.310400,6.0,8.0,446.0
2023-05-24-16:42:26.311415,5.0,7.0,446.0
2023-05-24-16:42:26.312399,6.0,6.0,445.0
2023-05-24-16:42:26.313414,6.0,6.0,446.0
2023-05-24-16:42:26.314403,8.0,4.0,446.0
2023-05-24-16:42:26.315409,7.0,2.0,446.0
2023-05-24-16:42:26.316403,7.0,2.0,446.0
2023-05-24-16:42:26.317402,5.0,4.0,446.0
2023-05-24-16:42:26.319378,5.0,4.0,446.0
2023-05-24-16:42:26.319378,5.0,4.0,446.0
2023-05-24-16:42:26.320387,6.0,6.0,446.0
2023-05-24-16:42:26.321408,3.0,2.0,446.0
2023-05-24-16:42:26.322398,3.0,2.0,446.0
2023-05-24-16:42:26.323351,3.0,2.0,446.0
2023-05-24-16:42:26.324342,3.0,2.0,446.0
2023-05-24-16:42:26.325389,6.0,6.0,446.0
2023-05-24-16:42:26.326341,7.0,6.0,446.0
2023-05-24-16:42:26.327407,7.0,6.0,446.0
2023-05-24-16:42:26.328413,7.0,6.0,446.0
2023-05-24-16:42:26.329409,5.0,4.0,446.0
2023-05-24-16:42:26.330396,4.0,4.0,446.0
2023-05-24-16:42:26.331408,4.0,4.0,446.0
2023-05-24-16:42:26.332403,4.0,4.0,446.0
2023-05-24-16:42:26.333407,6.0,7.0,445.0
2023-05-24-16:42:26.334414,3.0,5.0,445.0
2023-05-24-16:42:26.335398,3.0,5.0,445.0
2023-05-24-16:42:26.336414,3.0,5.0,445.0
2023-05-24-16:42:26.337419,7.0,1.0,446.0
2023-05-24-16:42:26.338404,4.0,2.0,446.0
2023-05-24-16:42:26.339407,4.0,2.0,446.0
2023-05-24-16:42:26.340389,4.0,2.0,446.0
2023-05-24-16:42:26.341350,1.0,4.0,446.0
2023-05-24-16:42:26.342383,6.0,2.0,446.0
2023-05-24-16:42:26.343377,5.0,0.0,446.0
2023-05-24-16:42:26.344341,5.0,0.0,446.0
2023-05-24-16:42:26.345352,4.0,3.0,446.0
2023-05-24-16:42:26.346356,6.0,0.0,446.0
2023-05-24-16:42:26.347388,6.0,0.0,446.0
2023-05-24-16:42:26.348385,6.0,0.0,446.0
2023-05-24-16:42:26.349395,5.0,4.0,446.0
2023-05-24-16:42:26.350350,2.0,9.0,445.0
2023-05-24-16:42:26.351343,2.0,9.0,445.0
2023-05-24-16:42:26.352395,2.0,9.0,445.0
2023-05-24-16:42:26.353371,4.0,5.0,445.0
2023-05-24-16:42:26.355376,3.0,4.0,445.0
2023-05-24-16:42:26.356343,3.0,4.0,445.0
2023-05-24-16:42:26.357343,3.0,4.0,445.0
2023-05-24-16:42:26.358346,5.0,3.0,445.0
2023-05-24-16:42:26.358346,5.0,2.0,445.0
2023-05-24-16:42:26.359378,4.0,3.0,445.0
2023-05-24-16:42:26.360357,4.0,3.0,445.0
2023-05-24-16:42:26.361341,4.0,3.0,445.0
2023-05-24-16:42:26.362340,5.0,1.0,445.0
2023-05-24-16:42:26.363342,2.0,9.0,446.0
2023-05-24-16:42:26.364354,2.0,9.0,446.0
2023-05-24-16:42:26.365389,2.0,9.0,446.0
2023-05-24-16:42:26.366379,4.0,6.0,445.0
2023-05-24-16:42:26.367395,4.0,6.0,445.0
2023-05-24-16:42:26.368371,4.0,6.0,445.0
2023-05-24-16:42:26.369396,4.0,6.0,445.0
2023-05-24-16:42:26.370343,10.0,1.0,445.0
2023-05-24-16:42:26.371344,7.0,1.0,445.0
2023-05-24-16:42:26.372393,7.0,1.0,445.0
2023-05-24-16:42:26.373396,7.0,1.0,445.0
2023-05-24-16:42:26.374341,3.0,5.0,445.0
2023-05-24-16:42:26.375344,5.0,0.0,445.0
2023-05-24-16:42:26.376350,5.0,0.0,445.0
2023-05-24-16:42:26.377344,5.0,0.0,445.0
2023-05-24-16:42:26.378379,5.0,1.0,446.0
2023-05-24-16:42:26.379348,2.0,4.0,446.0
2023-05-24-16:42:26.380398,2.0,4.0,446.0
2023-05-24-16:42:26.381361,2.0,4.0,446.0
2023-05-24-16:42:26.382357,5.0,3.0,446.0
2023-05-24-16:42:26.383348,3.0,5.0,445.0
2023-05-24-16:42:26.384396,3.0,5.0,445.0
2023-05-24-16:42:26.385381,3.0,5.0,445.0
2023-05-24-16:42:26.386352,4.0,3.0,445.0
2023-05-24-16:42:26.388373,4.0,3.0,445.0
2023-05-24-16:42:26.388373,4.0,3.0,445.0
2023-05-24-16:42:26.389343,4.0,3.0,445.0
2023-05-24-16:42:26.390385,3.0,3.0,445.0
2023-05-24-16:42:26.392345,4.0,1.0,446.0
2023-05-24-16:42:26.393341,5.0,2.0,445.0
2023-05-24-16:42:26.393341,5.0,2.0,445.0
2023-05-24-16:42:26.394345,1.0,4.0,445.0
2023-05-24-16:42:26.395341,4.0,2.0,446.0
2023-05-24-16:42:26.396367,4.0,2.0,446.0
2023-05-24-16:42:26.397381,4.0,2.0,446.0
2023-05-24-16:42:26.398342,2.0,4.0,445.0
2023-05-24-16:42:26.399407,3.0,0.0,445.0
2023-05-24-16:42:26.400392,3.0,0.0,445.0
2023-05-24-16:42:26.401369,3.0,0.0,445.0
2023-05-24-16:42:26.402391,3.0,0.0,445.0
2023-05-24-16:42:26.403342,5.0,0.0,445.0
2023-05-24-16:42:26.404352,3.0,1.0,445.0
2023-05-24-16:42:26.405369,3.0,1.0,445.0
2023-05-24-16:42:26.406373,5.0,5.0,446.0
2023-05-24-16:42:26.407371,4.0,6.0,445.0
2023-05-24-16:42:26.408348,4.0,6.0,445.0
2023-05-24-16:42:26.409371,4.0,6.0,445.0
2023-05-24-16:42:26.410362,4.0,6.0,445.0
2023-05-24-16:42:26.411364,6.0,3.0,446.0
2023-05-24-16:42:26.412387,6.0,3.0,445.0
2023-05-24-16:42:26.413343,4.0,0.0,445.0
2023-05-24-16:42:26.414350,4.0,0.0,445.0
2023-05-24-16:42:26.415342,5.0,2.0,446.0
2023-05-24-16:42:26.416342,6.0,2.0,445.0
2023-05-24-16:42:26.417342,6.0,2.0,445.0
2023-05-24-16:42:26.418341,6.0,2.0,445.0
2023-05-24-16:42:26.419361,3.0,2.0,445.0
2023-05-24-16:42:26.421340,2.0,4.0,446.0
2023-05-24-16:42:26.422341,5.0,1.0,445.0
2023-05-24-16:42:26.422341,7.0,7.0,445.0
2023-05-24-16:42:26.423344,4.0,8.0,445.0
2023-05-24-16:42:26.424344,4.0,8.0,445.0
2023-05-24-16:42:26.425347,4.0,8.0,445.0
2023-05-24-16:42:26.426342,4.0,8.0,445.0
2023-05-24-16:42:26.427342,6.0,7.0,446.0
2023-05-24-16:42:26.428349,2.0,7.0,445.0
2023-05-24-16:42:26.429341,2.0,7.0,445.0
2023-05-24-16:42:26.430353,2.0,7.0,445.0
2023-05-24-16:42:26.431341,7.0,3.0,445.0
2023-05-24-16:42:26.432353,6.0,1.0,445.0
2023-05-24-16:42:26.433345,5.0,1.0,446.0
2023-05-24-16:42:26.434342,5.0,1.0,446.0
2023-05-24-16:42:26.435343,7.0,3.0,446.0
2023-05-24-16:42:26.436378,7.0,2.0,445.0
2023-05-24-16:42:26.437398,4.0,12.0,445.0
2023-05-24-16:42:26.438341,4.0,12.0,445.0
2023-05-24-16:42:26.439351,3.0,11.0,446.0
2023-05-24-16:42:26.440370,5.0,8.0,445.0
2023-05-24-16:42:26.441343,5.0,8.0,445.0
2023-05-24-16:42:26.442346,5.0,8.0,445.0
2023-05-24-16:42:26.443341,5.0,8.0,445.0
2023-05-24-16:42:26.444391,11.0,5.0,445.0
2023-05-24-16:42:26.445393,11.0,5.0,445.0
2023-05-24-16:42:26.446376,11.0,5.0,445.0
2023-05-24-16:42:26.447391,11.0,5.0,445.0
2023-05-24-16:42:26.448386,7.0,4.0,446.0
2023-05-24-16:42:26.449389,6.0,1.0,445.0
2023-05-24-16:42:26.450398,3.0,5.0,445.0
2023-05-24-16:42:26.451393,3.0,5.0,445.0
2023-05-24-16:42:26.452347,3.0,4.0,445.0
2023-05-24-16:42:26.453376,3.0,10.0,445.0
2023-05-24-16:42:26.454341,3.0,10.0,445.0
2023-05-24-16:42:26.456378,3.0,10.0,445.0
2023-05-24-16:42:26.456378,8.0,8.0,445.0
2023-05-24-16:42:26.457347,8.0,3.0,446.0
2023-05-24-16:42:26.458353,8.0,3.0,446.0
2023-05-24-16:42:26.459393,8.0,3.0,446.0
2023-05-24-16:42:26.460341,8.0,0.0,446.0
2023-05-24-16:42:26.461343,3.0,6.0,445.0
2023-05-24-16:42:26.462341,3.0,6.0,445.0
2023-05-24-16:42:26.463341,3.0,6.0,445.0
2023-05-24-16:42:26.464346,7.0,11.0,445.0
2023-05-24-16:42:26.465350,7.0,10.0,445.0
2023-05-24-16:42:26.466379,7.0,10.0,445.0
2023-05-24-16:42:26.467348,7.0,10.0,445.0
2023-05-24-16:42:26.468354,7.0,5.0,445.0
2023-05-24-16:42:26.469400,5.0,3.0,445.0
2023-05-24-16:42:26.470387,7.0,2.0,445.0
2023-05-24-16:42:26.471390,7.0,2.0,445.0
2023-05-24-16:42:26.472408,2.0,4.0,445.0
2023-05-24-16:42:26.473385,2.0,4.0,445.0
2023-05-24-16:42:26.474342,2.0,4.0,445.0
2023-05-24-16:42:26.475341,2.0,4.0,445.0
2023-05-24-16:42:26.476370,3.0,5.0,446.0
2023-05-24-16:42:26.477391,2.0,15.0,445.0
2023-05-24-16:42:26.478402,2.0,15.0,445.0
2023-05-24-16:42:26.479389,2.0,15.0,445.0
2023-05-24-16:42:26.480391,5.0,8.0,446.0
2023-05-24-16:42:26.481396,8.0,2.0,445.0
2023-05-24-16:42:26.482382,8.0,2.0,445.0
2023-05-24-16:42:26.483384,8.0,2.0,445.0
2023-05-24-16:42:26.484387,8.0,2.0,445.0
2023-05-24-16:42:26.485385,5.0,2.0,446.0
2023-05-24-16:42:26.486383,5.0,2.0,446.0
2023-05-24-16:42:26.487341,5.0,2.0,446.0
2023-05-24-16:42:26.488342,5.0,3.0,446.0
2023-05-24-16:42:26.490397,5.0,7.0,446.0
2023-05-24-16:42:26.490397,5.0,7.0,446.0
2023-05-24-16:42:26.491387,5.0,7.0,446.0
2023-05-24-16:42:26.492392,5.0,7.0,446.0
2023-05-24-16:42:26.493394,5.0,7.0,446.0
2023-05-24-16:42:26.494389,3.0,2.0,446.0
2023-05-24-16:42:26.495378,3.0,2.0,446.0
2023-05-24-16:42:26.496384,3.0,2.0,446.0
2023-05-24-16:42:26.497392,5.0,4.0,446.0
2023-05-24-16:42:26.498378,6.0,1.0,446.0
2023-05-24-16:42:26.499376,6.0,1.0,446.0
2023-05-24-16:42:26.500389,6.0,1.0,446.0
2023-05-24-16:42:26.501393,4.0,1.0,446.0
2023-05-24-16:42:26.502398,5.0,3.0,446.0
2023-05-24-16:42:26.503387,5.0,3.0,446.0
2023-05-24-16:42:26.504379,5.0,3.0,446.0
2023-05-24-16:42:26.505385,2.0,7.0,446.0
2023-05-24-16:42:26.506376,2.0,7.0,446.0
2023-05-24-16:42:26.507392,2.0,7.0,446.0
2023-05-24-16:42:26.508389,2.0,7.0,446.0
2023-05-24-16:42:26.509388,3.0,2.0,446.0
2023-05-24-16:42:26.510394,2.0,3.0,446.0
2023-05-24-16:42:26.511393,2.0,3.0,446.0
2023-05-24-16:42:26.512395,2.0,3.0,446.0
2023-05-24-16:42:26.513389,3.0,1.0,446.0
2023-05-24-16:42:26.514391,2.0,1.0,446.0
2023-05-24-16:42:26.515377,2.0,1.0,446.0
2023-05-24-16:42:26.516392,2.0,1.0,446.0
2023-05-24-16:42:26.517384,4.0,7.0,445.0
2023-05-24-16:42:26.518390,4.0,7.0,445.0
2023-05-24-16:42:26.519382,4.0,7.0,445.0
2023-05-24-16:42:26.520397,4.0,7.0,445.0
2023-05-24-16:42:26.522384,5.0,6.0,446.0
2023-05-24-16:42:26.522384,5.0,6.0,446.0
2023-05-24-16:42:26.523348,5.0,6.0,446.0
2023-05-24-16:42:26.524342,5.0,6.0,446.0
2023-05-24-16:42:26.525389,5.0,6.0,446.0
2023-05-24-16:42:26.526384,6.0,1.0,446.0
2023-05-24-16:42:26.527380,6.0,1.0,446.0
2023-05-24-16:42:26.528376,6.0,1.0,446.0
2023-05-24-16:42:26.529393,6.0,1.0,446.0
2023-05-24-16:42:26.530381,1.0,2.0,446.0
2023-05-24-16:42:26.531388,1.0,2.0,446.0
2023-05-24-16:42:26.532388,1.0,2.0,446.0
2023-05-24-16:42:26.533383,1.0,2.0,446.0
2023-05-24-16:42:26.534384,5.0,5.0,446.0
2023-05-24-16:42:26.535392,6.0,2.0,446.0
2023-05-24-16:42:26.536392,6.0,2.0,446.0
2023-05-24-16:42:26.537379,6.0,2.0,446.0
2023-05-24-16:42:26.538386,3.0,8.0,446.0
2023-05-24-16:42:26.539390,3.0,8.0,446.0
2023-05-24-16:42:26.540378,3.0,8.0,446.0
2023-05-24-16:42:26.541401,3.0,8.0,446.0
2023-05-24-16:42:26.542380,4.0,6.0,446.0
2023-05-24-16:42:26.543394,4.0,5.0,446.0
2023-05-24-16:42:26.544384,4.0,5.0,446.0
2023-05-24-16:42:26.545393,4.0,5.0,446.0
2023-05-24-16:42:26.546383,2.0,2.0,446.0
2023-05-24-16:42:26.547377,4.0,4.0,446.0
2023-05-24-16:42:26.548394,4.0,4.0,446.0
2023-05-24-16:42:26.549391,4.0,4.0,446.0
2023-05-24-16:42:26.550379,5.0,6.0,446.0
2023-05-24-16:42:26.551377,3.0,3.0,446.0
2023-05-24-16:42:26.552382,3.0,3.0,446.0
2023-05-24-16:42:26.553380,3.0,3.0,446.0
2023-05-24-16:42:26.554395,1.0,1.0,446.0
2023-05-24-16:42:26.555381,1.0,1.0,446.0
2023-05-24-16:42:26.557342,8.0,3.0,446.0
2023-05-24-16:42:26.558376,8.0,3.0,446.0
2023-05-24-16:42:26.558376,2.0,15.0,446.0
2023-05-24-16:42:26.559405,2.0,15.0,446.0
2023-05-24-16:42:26.560420,2.0,15.0,446.0
2023-05-24-16:42:26.561379,2.0,15.0,446.0
2023-05-24-16:42:26.562401,3.0,10.0,446.0
2023-05-24-16:42:26.563415,7.0,2.0,445.0
2023-05-24-16:42:26.564399,7.0,2.0,445.0
2023-05-24-16:42:26.565400,7.0,2.0,445.0
2023-05-24-16:42:26.566404,3.0,1.0,446.0
2023-05-24-16:42:26.567399,4.0,2.0,446.0
2023-05-24-16:42:26.568401,4.0,2.0,446.0
2023-05-24-16:42:26.569416,4.0,2.0,446.0
2023-05-24-16:42:26.570387,4.0,7.0,446.0
2023-05-24-16:42:26.571411,5.0,5.0,446.0
2023-05-24-16:42:26.572399,5.0,5.0,446.0
2023-05-24-16:42:26.573403,5.0,5.0,446.0
2023-05-24-16:42:26.574387,5.0,5.0,446.0
2023-05-24-16:42:26.575399,7.0,4.0,446.0
2023-05-24-16:42:26.576412,5.0,7.0,445.0
2023-05-24-16:42:26.577414,5.0,7.0,445.0
2023-05-24-16:42:26.578413,5.0,7.0,445.0
2023-05-24-16:42:26.579400,5.0,4.0,446.0
2023-05-24-16:42:26.580414,5.0,4.0,446.0
2023-05-24-16:42:26.581410,5.0,5.0,446.0
2023-05-24-16:42:26.582400,5.0,5.0,446.0
2023-05-24-16:42:26.583417,6.0,3.0,446.0
2023-05-24-16:42:26.584377,5.0,4.0,445.0
2023-05-24-16:42:26.585399,5.0,4.0,445.0
2023-05-24-16:42:26.586402,5.0,4.0,445.0
2023-05-24-16:42:26.587426,4.0,4.0,446.0
2023-05-24-16:42:26.588398,4.0,5.0,446.0
2023-05-24-16:42:26.589402,4.0,5.0,446.0
2023-05-24-16:42:26.590399,5.0,9.0,446.0
2023-05-24-16:42:26.592378,5.0,6.0,446.0
2023-05-24-16:42:26.593372,5.0,3.0,446.0
2023-05-24-16:42:26.593372,5.0,3.0,446.0
2023-05-24-16:42:26.594401,5.0,3.0,446.0
2023-05-24-16:42:26.595414,7.0,7.0,445.0
2023-05-24-16:42:26.596414,4.0,2.0,446.0
2023-05-24-16:42:26.597409,4.0,2.0,446.0
2023-05-24-16:42:26.598410,4.0,2.0,446.0
2023-05-24-16:42:26.599411,3.0,5.0,446.0
2023-05-24-16:42:26.600412,7.0,5.0,446.0
2023-05-24-16:42:26.601414,7.0,5.0,446.0
2023-05-24-16:42:26.602378,7.0,5.0,446.0
2023-05-24-16:42:26.603425,4.0,1.0,446.0
2023-05-24-16:42:26.604432,6.0,3.0,446.0
2023-05-24-16:42:26.605401,7.0,5.0,446.0
2023-05-24-16:42:26.606399,7.0,5.0,446.0
2023-05-24-16:42:26.607416,2.0,10.0,446.0
2023-05-24-16:42:26.608381,7.0,4.0,446.0
2023-05-24-16:42:26.609389,7.0,4.0,446.0
2023-05-24-16:42:26.610423,7.0,4.0,446.0
2023-05-24-16:42:26.611418,7.0,4.0,446.0
2023-05-24-16:42:26.612412,3.0,6.0,446.0
2023-05-24-16:42:26.613401,3.0,6.0,446.0
2023-05-24-16:42:26.614415,3.0,6.0,446.0
2023-05-24-16:42:26.615398,3.0,6.0,446.0
2023-05-24-16:42:26.616415,3.0,5.0,446.0
2023-05-24-16:42:26.617412,3.0,7.0,446.0
2023-05-24-16:42:26.618419,3.0,7.0,446.0
2023-05-24-16:42:26.619363,3.0,7.0,446.0
2023-05-24-16:42:26.620393,5.0,4.0,446.0
2023-05-24-16:42:26.621402,5.0,6.0,446.0
2023-05-24-16:42:26.622398,8.0,3.0,446.0
2023-05-24-16:42:26.623413,7.0,7.0,446.0
2023-05-24-16:42:26.624344,9.0,4.0,446.0
2023-05-24-16:42:26.626379,9.0,4.0,446.0
2023-05-24-16:42:26.626379,9.0,4.0,446.0
2023-05-24-16:42:26.627421,9.0,4.0,446.0
2023-05-24-16:42:26.628399,6.0,3.0,445.0
2023-05-24-16:42:26.629409,5.0,2.0,446.0
2023-05-24-16:42:26.630397,5.0,2.0,446.0
2023-05-24-16:42:26.631414,5.0,2.0,446.0
2023-05-24-16:42:26.632413,6.0,2.0,446.0
2023-05-24-16:42:26.633414,4.0,2.0,446.0
2023-05-24-16:42:26.634400,4.0,2.0,446.0
2023-05-24-16:42:26.635413,4.0,2.0,446.0
2023-05-24-16:42:26.636398,6.0,3.0,446.0
2023-05-24-16:42:26.637420,4.0,0.0,445.0
2023-05-24-16:42:26.638406,5.0,0.0,446.0
2023-05-24-16:42:26.639395,5.0,0.0,446.0
2023-05-24-16:42:26.640413,4.0,4.0,446.0
2023-05-24-16:42:26.641395,4.0,3.0,446.0
2023-05-24-16:42:26.642392,4.0,3.0,446.0
2023-05-24-16:42:26.643366,4.0,3.0,446.0
2023-05-24-16:42:26.644403,2.0,2.0,446.0
2023-05-24-16:42:26.645386,4.0,6.0,446.0
2023-05-24-16:42:26.646391,6.0,8.0,446.0
2023-05-24-16:42:26.647378,6.0,8.0,446.0
2023-05-24-16:42:26.648388,5.0,2.0,446.0
2023-05-24-16:42:26.649377,3.0,3.0,446.0
2023-05-24-16:42:26.650395,8.0,3.0,446.0
2023-05-24-16:42:26.651383,8.0,3.0,446.0
2023-05-24-16:42:26.652391,8.0,3.0,446.0
2023-05-24-16:42:26.653397,4.0,19.0,445.0
2023-05-24-16:42:26.654388,1.0,12.0,446.0
2023-05-24-16:42:26.655399,1.0,12.0,446.0
2023-05-24-16:42:26.656401,1.0,12.0,446.0
2023-05-24-16:42:26.657382,3.0,6.0,446.0
2023-05-24-16:42:26.658344,2.0,3.0,446.0
2023-05-24-16:42:26.659353,2.0,3.0,446.0
2023-05-24-16:42:26.661377,2.0,3.0,446.0
2023-05-24-16:42:26.661377,5.0,1.0,446.0
2023-05-24-16:42:26.662417,5.0,1.0,446.0
2023-05-24-16:42:26.663377,1.0,4.0,446.0
2023-05-24-16:42:26.664391,1.0,4.0,446.0
2023-05-24-16:42:26.665377,5.0,1.0,446.0
2023-05-24-16:42:26.666393,3.0,3.0,446.0
2023-05-24-16:42:26.667387,8.0,1.0,446.0
2023-05-24-16:42:26.668391,4.0,0.0,446.0
2023-05-24-16:42:26.669396,7.0,2.0,446.0
2023-05-24-16:42:26.670377,7.0,1.0,445.0
2023-05-24-16:42:26.671395,3.0,9.0,446.0
2023-05-24-16:42:26.672390,2.0,6.0,446.0
2023-05-24-16:42:26.673394,5.0,5.0,446.0
2023-05-24-16:42:26.674383,4.0,13.0,446.0
2023-05-24-16:42:26.675386,5.0,8.0,446.0
2023-05-24-16:42:26.676394,5.0,8.0,446.0
2023-05-24-16:42:26.677377,5.0,8.0,446.0
2023-05-24-16:42:26.678388,5.0,2.0,446.0
2023-05-24-16:42:26.679390,5.0,2.0,446.0
2023-05-24-16:42:26.680384,5.0,2.0,446.0
2023-05-24-16:42:26.681391,4.0,2.0,446.0
2023-05-24-16:42:26.682389,5.0,4.0,446.0
2023-05-24-16:42:26.683395,7.0,12.0,446.0
2023-05-24-16:42:26.684400,7.0,12.0,446.0
2023-05-24-16:42:26.685396,6.0,16.0,446.0
2023-05-24-16:42:26.686389,3.0,6.0,446.0
2023-05-24-16:42:26.687378,2.0,17.0,445.0
2023-05-24-16:42:26.688396,2.0,17.0,445.0
2023-05-24-16:42:26.689394,4.0,3.0,445.0
2023-05-24-16:42:26.690391,5.0,18.0,446.0
2023-05-24-16:42:26.691380,9.0,13.0,446.0
2023-05-24-16:42:26.694348,9.0,13.0,446.0
2023-05-24-16:42:26.694348,3.0,3.0,446.0
2023-05-24-16:42:26.695416,3.0,3.0,446.0
2023-05-24-16:42:26.696410,3.0,3.0,446.0
2023-05-24-16:42:26.697421,3.0,3.0,446.0
2023-05-24-16:42:26.698413,4.0,8.0,446.0
2023-05-24-16:42:26.699413,6.0,15.0,445.0
2023-05-24-16:42:26.700410,5.0,8.0,446.0
2023-05-24-16:42:26.701402,5.0,8.0,446.0
2023-05-24-16:42:26.702408,4.0,6.0,446.0
2023-05-24-16:42:26.703398,5.0,2.0,446.0
2023-05-24-16:42:26.704401,5.0,2.0,446.0
2023-05-24-16:42:26.705408,5.0,2.0,446.0
2023-05-24-16:42:26.706407,6.0,5.0,446.0
2023-05-24-16:42:26.707417,6.0,8.0,446.0
2023-05-24-16:42:26.708399,5.0,3.0,446.0
2023-05-24-16:42:26.709409,5.0,3.0,446.0
2023-05-24-16:42:26.710355,3.0,10.0,446.0
2023-05-24-16:42:26.711376,4.0,6.0,446.0
2023-05-24-16:42:26.712378,3.0,5.0,446.0
2023-05-24-16:42:26.713383,3.0,5.0,446.0
2023-05-24-16:42:26.714391,2.0,4.0,446.0
2023-05-24-16:42:26.715384,4.0,4.0,446.0
2023-05-24-16:42:26.716393,4.0,2.0,446.0
2023-05-24-16:42:26.717395,5.0,2.0,446.0
2023-05-24-16:42:26.718392,2.0,0.0,446.0
2023-05-24-16:42:26.719378,4.0,4.0,446.0
2023-05-24-16:42:26.720377,1.0,8.0,446.0
2023-05-24-16:42:26.721378,3.0,6.0,446.0
2023-05-24-16:42:26.722392,7.0,4.0,446.0
2023-05-24-16:42:26.723388,7.0,5.0,446.0
2023-05-24-16:42:26.724368,9.0,3.0,446.0
2023-05-24-16:42:26.725388,6.0,2.0,446.0
2023-05-24-16:42:26.726390,8.0,4.0,446.0
2023-05-24-16:42:26.727389,5.0,2.0,446.0
2023-05-24-16:42:26.728384,2.0,4.0,446.0
2023-05-24-16:42:26.729377,2.0,4.0,446.0
2023-05-24-16:42:26.730380,4.0,3.0,446.0
2023-05-24-16:42:26.731389,4.0,3.0,446.0
2023-05-24-16:42:26.732378,6.0,12.0,446.0
2023-05-24-16:42:26.734341,6.0,10.0,446.0
2023-05-24-16:42:26.734341,3.0,2.0,445.0
2023-05-24-16:42:26.735389,4.0,3.0,446.0
2023-05-24-16:42:26.736406,4.0,7.0,446.0
2023-05-24-16:42:26.737411,4.0,9.0,445.0
2023-05-24-16:42:26.738417,4.0,9.0,445.0
2023-05-24-16:42:26.739399,7.0,5.0,445.0
2023-05-24-16:42:26.740416,7.0,2.0,446.0
2023-05-24-16:42:26.741345,7.0,2.0,446.0
2023-05-24-16:42:26.742355,7.0,2.0,446.0
2023-05-24-16:42:26.743388,6.0,7.0,446.0
2023-05-24-16:42:26.744384,7.0,8.0,445.0
2023-05-24-16:42:26.745397,7.0,8.0,445.0
2023-05-24-16:42:26.746399,7.0,8.0,445.0
2023-05-24-16:42:26.747390,8.0,6.0,446.0
2023-05-24-16:42:26.748378,8.0,6.0,446.0
2023-05-24-16:42:26.749388,8.0,6.0,446.0
2023-05-24-16:42:26.750382,8.0,6.0,446.0
2023-05-24-16:42:26.751399,3.0,6.0,446.0
2023-05-24-16:42:26.752383,2.0,6.0,445.0
2023-05-24-16:42:26.753378,2.0,6.0,445.0
2023-05-24-16:42:26.754377,2.0,6.0,445.0
2023-05-24-16:42:26.755393,5.0,6.0,446.0
2023-05-24-16:42:26.756389,3.0,5.0,446.0
2023-05-24-16:42:26.757393,5.0,1.0,446.0
2023-05-24-16:42:26.758348,7.0,8.0,446.0
2023-05-24-16:42:26.759397,6.0,5.0,446.0
2023-05-24-16:42:26.760341,5.0,9.0,445.0
2023-05-24-16:42:26.761391,5.0,6.0,446.0
2023-05-24-16:42:26.762393,5.0,6.0,446.0
2023-05-24-16:42:26.763385,5.0,5.0,446.0
2023-05-24-16:42:26.764392,6.0,7.0,446.0
2023-05-24-16:42:26.765390,2.0,4.0,446.0
2023-05-24-16:42:26.766381,2.0,4.0,446.0
2023-05-24-16:42:26.767397,6.0,3.0,446.0
2023-05-24-16:42:26.769382,3.0,1.0,446.0
2023-05-24-16:42:26.769382,3.0,1.0,446.0
2023-05-24-16:42:26.770375,3.0,1.0,446.0
2023-05-24-16:42:26.771378,4.0,1.0,446.0
2023-05-24-16:42:26.772393,6.0,2.0,445.0
2023-05-24-16:42:26.773389,5.0,5.0,445.0
2023-05-24-16:42:26.774386,5.0,5.0,445.0
2023-05-24-16:42:26.775383,3.0,7.0,446.0
2023-05-24-16:42:26.776389,3.0,7.0,446.0
2023-05-24-16:42:26.777387,4.0,9.0,446.0
2023-05-24-16:42:26.778388,2.0,8.0,446.0
2023-05-24-16:42:26.779390,2.0,8.0,446.0
2023-05-24-16:42:26.780390,7.0,2.0,446.0
2023-05-24-16:42:26.781390,6.0,0.0,446.0
2023-05-24-16:42:26.782392,6.0,0.0,446.0
2023-05-24-16:42:26.783389,1.0,2.0,446.0
2023-05-24-16:42:26.784401,4.0,4.0,445.0
2023-05-24-16:42:26.785414,4.0,4.0,445.0
2023-05-24-16:42:26.786410,4.0,4.0,445.0
2023-05-24-16:42:26.787411,4.0,4.0,445.0
2023-05-24-16:42:26.788406,2.0,4.0,446.0
2023-05-24-16:42:26.789347,4.0,8.0,446.0
2023-05-24-16:42:26.790407,4.0,8.0,446.0
2023-05-24-16:42:26.791379,4.0,8.0,446.0
2023-05-24-16:42:26.792413,2.0,11.0,446.0
2023-05-24-16:42:26.793416,5.0,5.0,446.0
2023-05-24-16:42:26.794394,5.0,5.0,446.0
2023-05-24-16:42:26.795407,5.0,5.0,446.0
2023-05-24-16:42:26.796399,5.0,3.0,446.0
2023-05-24-16:42:26.797417,6.0,2.0,446.0
2023-05-24-16:42:26.798399,6.0,2.0,446.0
2023-05-24-16:42:26.799404,6.0,2.0,446.0
2023-05-24-16:42:26.801341,2.0,5.0,446.0
2023-05-24-16:42:26.801341,5.0,2.0,446.0
2023-05-24-16:42:26.802349,1.0,1.0,445.0
2023-05-24-16:42:26.803404,1.0,1.0,445.0
2023-05-24-16:42:26.804351,3.0,2.0,446.0
2023-05-24-16:42:26.805403,6.0,6.0,445.0
2023-05-24-16:42:26.806418,6.0,6.0,445.0
2023-05-24-16:42:26.807422,6.0,6.0,445.0
2023-05-24-16:42:26.808412,3.0,1.0,446.0
2023-05-24-16:42:26.809415,3.0,3.0,446.0
2023-05-24-16:42:26.810411,2.0,0.0,446.0
2023-05-24-16:42:26.811403,2.0,0.0,446.0
2023-05-24-16:42:26.812399,4.0,1.0,446.0
2023-05-24-16:42:26.813381,6.0,2.0,446.0
2023-05-24-16:42:26.814418,1.0,7.0,446.0
2023-05-24-16:42:26.815400,1.0,7.0,446.0
2023-05-24-16:42:26.816355,2.0,5.0,445.0
2023-05-24-16:42:26.817406,2.0,5.0,445.0
2023-05-24-16:42:26.818407,2.0,5.0,445.0
2023-05-24-16:42:26.819398,2.0,5.0,445.0
2023-05-24-16:42:26.820407,0.0,6.0,446.0
2023-05-24-16:42:26.821417,2.0,6.0,446.0
2023-05-24-16:42:26.822408,2.0,6.0,446.0
2023-05-24-16:42:26.823418,2.0,6.0,446.0
2023-05-24-16:42:26.824416,2.0,6.0,446.0
2023-05-24-16:42:26.825341,3.0,1.0,446.0
2023-05-24-16:42:26.826387,5.0,2.0,446.0
2023-05-24-16:42:26.827412,5.0,2.0,446.0
2023-05-24-16:42:26.828406,5.0,2.0,446.0
2023-05-24-16:42:26.829353,4.0,3.0,446.0
2023-05-24-16:42:26.830351,4.0,3.0,446.0
2023-05-24-16:42:26.831353,4.0,3.0,446.0
2023-05-24-16:42:26.832352,4.0,3.0,446.0
2023-05-24-16:42:26.833384,4.0,3.0,446.0
2023-05-24-16:42:26.834395,2.0,0.0,446.0
2023-05-24-16:42:26.835376,2.0,0.0,446.0
2023-05-24-16:42:26.836450,2.0,0.0,446.0
2023-05-24-16:42:26.837493,4.0,4.0,446.0
2023-05-24-16:42:26.840354,1.0,15.0,446.0
2023-05-24-16:42:26.840354,2.0,15.0,446.0
2023-05-24-16:42:26.841346,0.0,8.0,446.0
2023-05-24-16:42:26.842503,5.0,5.0,445.0
2023-05-24-16:42:26.843376,5.0,0.0,445.0
2023-05-24-16:42:26.844384,5.0,0.0,445.0
2023-05-24-16:42:26.845353,7.0,2.0,445.0
2023-05-24-16:42:26.846398,2.0,3.0,445.0
2023-05-24-16:42:26.847349,2.0,3.0,445.0
2023-05-24-16:42:26.848354,2.0,3.0,445.0
2023-05-24-16:42:26.849391,3.0,1.0,445.0
2023-05-24-16:42:26.850350,3.0,2.0,446.0
2023-05-24-16:42:26.851387,5.0,3.0,445.0
2023-05-24-16:42:26.852378,5.0,3.0,445.0
2023-05-24-16:42:26.853380,2.0,2.0,445.0
2023-05-24-16:42:26.854343,5.0,1.0,445.0
2023-05-24-16:42:26.855352,5.0,4.0,446.0
2023-05-24-16:42:26.856393,5.0,4.0,446.0
2023-05-24-16:42:26.857376,5.0,6.0,446.0
2023-05-24-16:42:26.858344,3.0,8.0,446.0
2023-05-24-16:42:26.859382,1.0,3.0,446.0
2023-05-24-16:42:26.860382,1.0,3.0,446.0
2023-05-24-16:42:26.861340,3.0,2.0,446.0
2023-05-24-16:42:26.862343,4.0,2.0,446.0
2023-05-24-16:42:26.863378,2.0,2.0,445.0
2023-05-24-16:42:26.864351,2.0,2.0,445.0
2023-05-24-16:42:26.865386,0.0,6.0,446.0
2023-05-24-16:42:26.866341,5.0,7.0,446.0
2023-05-24-16:42:26.867396,5.0,7.0,446.0
2023-05-24-16:42:26.868409,5.0,7.0,446.0
2023-05-24-16:42:26.869377,5.0,7.0,446.0
2023-05-24-16:42:26.871376,7.0,6.0,446.0
2023-05-24-16:42:26.871376,3.0,3.0,446.0
2023-05-24-16:42:26.872388,3.0,3.0,446.0
2023-05-24-16:42:26.873408,3.0,3.0,446.0
2023-05-24-16:42:26.874344,3.0,3.0,446.0
2023-05-24-16:42:26.875398,0.0,3.0,446.0
2023-05-24-16:42:26.876402,2.0,6.0,446.0
2023-05-24-16:42:26.877414,2.0,6.0,446.0
2023-05-24-16:42:26.878352,5.0,7.0,445.0
2023-05-24-16:42:26.879342,2.0,4.0,446.0
2023-05-24-16:42:26.880377,2.0,4.0,446.0
2023-05-24-16:42:26.882398,2.0,4.0,446.0
2023-05-24-16:42:26.882398,5.0,2.0,446.0
2023-05-24-16:42:26.883411,5.0,1.0,445.0
2023-05-24-16:42:26.884399,6.0,2.0,445.0
2023-05-24-16:42:26.885398,6.0,2.0,445.0
2023-05-24-16:42:26.886377,4.0,3.0,446.0
2023-05-24-16:42:26.887380,3.0,6.0,446.0
2023-05-24-16:42:26.888342,3.0,6.0,446.0
2023-05-24-16:42:26.889349,3.0,6.0,446.0
2023-05-24-16:42:26.890361,0.0,7.0,445.0
2023-05-24-16:42:26.891341,2.0,10.0,446.0
2023-05-24-16:42:26.892349,4.0,2.0,446.0
2023-05-24-16:42:26.893379,4.0,2.0,446.0
2023-05-24-16:42:26.894394,6.0,3.0,446.0
2023-05-24-16:42:26.895383,6.0,3.0,446.0
2023-05-24-16:42:26.896376,7.0,4.0,446.0
2023-05-24-16:42:26.897378,4.0,7.0,446.0
2023-05-24-16:42:26.898390,4.0,5.0,446.0
2023-05-24-16:42:26.899388,2.0,5.0,446.0
2023-05-24-16:42:26.900377,4.0,6.0,446.0
2023-05-24-16:42:26.901342,2.0,8.0,446.0
2023-05-24-16:42:26.902379,5.0,8.0,446.0
2023-05-24-16:42:26.903386,2.0,5.0,446.0
2023-05-24-16:42:26.904391,2.0,5.0,446.0
2023-05-24-16:42:26.906376,2.0,5.0,446.0
2023-05-24-16:42:26.906376,5.0,0.0,446.0
2023-05-24-16:42:26.907380,7.0,3.0,446.0
2023-05-24-16:42:26.908343,7.0,3.0,446.0
2023-05-24-16:42:26.909341,7.0,3.0,446.0
2023-05-24-16:42:26.910340,7.0,3.0,446.0
2023-05-24-16:42:26.911396,5.0,7.0,446.0
2023-05-24-16:42:26.912375,4.0,4.0,446.0
2023-05-24-16:42:26.913394,4.0,4.0,446.0
2023-05-24-16:42:26.914380,4.0,3.0,446.0
2023-05-24-16:42:26.915394,2.0,4.0,446.0
2023-05-24-16:42:26.916392,4.0,4.0,446.0
2023-05-24-16:42:26.917376,4.0,4.0,446.0
2023-05-24-16:42:26.918377,4.0,4.0,446.0
2023-05-24-16:42:26.919386,5.0,6.0,446.0
2023-05-24-16:42:26.920417,5.0,6.0,446.0
2023-05-24-16:42:26.921408,5.0,6.0,446.0
2023-05-24-16:42:26.922405,5.0,6.0,446.0
2023-05-24-16:42:26.923397,4.0,8.0,446.0
2023-05-24-16:42:26.924397,4.0,7.0,446.0
2023-05-24-16:42:26.925343,5.0,4.0,446.0
2023-05-24-16:42:26.926341,5.0,4.0,446.0
2023-05-24-16:42:26.927393,2.0,5.0,446.0
2023-05-24-16:42:26.928401,5.0,2.0,446.0
2023-05-24-16:42:26.929408,5.0,2.0,446.0
2023-05-24-16:42:26.930419,5.0,2.0,446.0
2023-05-24-16:42:26.931403,7.0,2.0,446.0
2023-05-24-16:42:26.932399,4.0,2.0,446.0
2023-05-24-16:42:26.933415,5.0,2.0,445.0
2023-05-24-16:42:26.934419,5.0,2.0,445.0
2023-05-24-16:42:26.935411,6.0,2.0,445.0
2023-05-24-16:42:26.936409,3.0,3.0,445.0
2023-05-24-16:42:26.938377,1.0,4.0,445.0
2023-05-24-16:42:26.938377,1.0,4.0,445.0
2023-05-24-16:42:26.939384,5.0,9.0,445.0
2023-05-24-16:42:26.940398,4.0,10.0,445.0
2023-05-24-16:42:26.941341,4.0,10.0,445.0
2023-05-24-16:42:26.942398,4.0,10.0,445.0
2023-05-24-16:42:26.943341,6.0,7.0,445.0
2023-05-24-16:42:26.944395,6.0,4.0,445.0
2023-05-24-16:42:26.945343,6.0,4.0,445.0
2023-05-24-16:42:26.946383,6.0,4.0,445.0
2023-05-24-16:42:26.947376,7.0,3.0,445.0
2023-05-24-16:42:26.948341,5.0,2.0,445.0
2023-05-24-16:42:26.949394,5.0,2.0,445.0
2023-05-24-16:42:26.950391,5.0,2.0,445.0
2023-05-24-16:42:26.951377,3.0,3.0,445.0
2023-05-24-16:42:26.952341,5.0,3.0,445.0
2023-05-24-16:42:26.953348,5.0,3.0,445.0
2023-05-24-16:42:26.954370,5.0,3.0,445.0
2023-05-24-16:42:26.955351,5.0,3.0,445.0
2023-05-24-16:42:26.956343,5.0,5.0,445.0
2023-05-24-16:42:26.957347,6.0,8.0,445.0
2023-05-24-16:42:26.958359,6.0,8.0,445.0
2023-05-24-16:42:26.959350,6.0,8.0,445.0
2023-05-24-16:42:26.960345,5.0,4.0,445.0
2023-05-24-16:42:26.961397,2.0,7.0,445.0
2023-05-24-16:42:26.962376,2.0,7.0,445.0
2023-05-24-16:42:26.963387,2.0,7.0,445.0
2023-05-24-16:42:26.964382,6.0,4.0,445.0
2023-05-24-16:42:26.965343,5.0,2.0,445.0
2023-05-24-16:42:26.966414,2.0,3.0,445.0
2023-05-24-16:42:26.967340,2.0,3.0,445.0
2023-05-24-16:42:26.968496,5.0,1.0,445.0
2023-05-24-16:42:26.969449,3.0,1.0,445.0
2023-05-24-16:42:26.970364,3.0,1.0,445.0
2023-05-24-16:42:26.971359,3.0,1.0,445.0
2023-05-24-16:42:26.972352,5.0,2.0,445.0
2023-05-24-16:42:26.973342,6.0,14.0,445.0
2023-05-24-16:42:26.974378,6.0,14.0,445.0
2023-05-24-16:42:26.976486,6.0,14.0,445.0
2023-05-24-16:42:26.976486,4.0,4.0,445.0
2023-05-24-16:42:26.977396,3.0,2.0,445.0
2023-05-24-16:42:26.978391,3.0,2.0,445.0
2023-05-24-16:42:26.979376,3.0,2.0,445.0
2023-05-24-16:42:26.980353,4.0,1.0,445.0
2023-05-24-16:42:26.981394,5.0,3.0,445.0
2023-05-24-16:42:26.982392,5.0,3.0,445.0
2023-05-24-16:42:26.983378,5.0,3.0,445.0
2023-05-24-16:42:26.984392,4.0,3.0,445.0
2023-05-24-16:42:26.985377,3.0,3.0,445.0
2023-05-24-16:42:26.986390,3.0,4.0,445.0
2023-05-24-16:42:26.987384,3.0,4.0,445.0
2023-05-24-16:42:26.988388,2.0,4.0,445.0
2023-05-24-16:42:26.989379,3.0,9.0,445.0
2023-05-24-16:42:26.990376,4.0,5.0,445.0
2023-05-24-16:42:26.991342,4.0,5.0,445.0
2023-05-24-16:42:26.992406,4.0,5.0,445.0
2023-05-24-16:42:26.993385,4.0,4.0,445.0
2023-05-24-16:42:26.994414,8.0,0.0,445.0
2023-05-24-16:42:26.995376,8.0,0.0,445.0
2023-05-24-16:42:26.996391,8.0,0.0,445.0
2023-05-24-16:42:26.997390,6.0,3.0,445.0
2023-05-24-16:42:26.998389,3.0,6.0,445.0
2023-05-24-16:42:26.999376,3.0,6.0,445.0
2023-05-24-16:42:27.000394,3.0,6.0,445.0
2023-05-24-16:42:27.001385,6.0,5.0,444.0
2023-05-24-16:42:27.002393,0.0,4.0,444.0
2023-05-24-16:42:27.003376,3.0,5.0,444.0
2023-05-24-16:42:27.004391,3.0,5.0,444.0
2023-05-24-16:42:27.005396,5.0,3.0,444.0
2023-05-24-16:42:27.006385,3.0,1.0,444.0
2023-05-24-16:42:27.007378,3.0,1.0,444.0
2023-05-24-16:42:27.009341,3.0,1.0,444.0
2023-05-24-16:42:27.009341,6.0,3.0,444.0
2023-05-24-16:42:27.010394,3.0,5.0,444.0
2023-05-24-16:42:27.011389,3.0,5.0,444.0
2023-05-24-16:42:27.012341,3.0,5.0,444.0
2023-05-24-16:42:27.013388,2.0,9.0,444.0
2023-05-24-16:42:27.014387,4.0,6.0,444.0
2023-05-24-16:42:27.015391,4.0,6.0,444.0
2023-05-24-16:42:27.016382,4.0,6.0,444.0
2023-05-24-16:42:27.017390,6.0,2.0,444.0
2023-05-24-16:42:27.018385,5.0,2.0,443.0
2023-05-24-16:42:27.019384,5.0,2.0,443.0
2023-05-24-16:42:27.020380,5.0,2.0,443.0
2023-05-24-16:42:27.021379,3.0,4.0,443.0
2023-05-24-16:42:27.022379,4.0,3.0,443.0
2023-05-24-16:42:27.023378,4.0,3.0,443.0
2023-05-24-16:42:27.024390,4.0,3.0,443.0
2023-05-24-16:42:27.025400,5.0,7.0,442.0
2023-05-24-16:42:27.026379,5.0,5.0,442.0
2023-05-24-16:42:27.027381,5.0,5.0,442.0
2023-05-24-16:42:27.028379,5.0,5.0,442.0
2023-05-24-16:42:27.029387,5.0,4.0,442.0
2023-05-24-16:42:27.030395,5.0,5.0,442.0
2023-05-24-16:42:27.031386,5.0,5.0,442.0
2023-05-24-16:42:27.032380,5.0,5.0,442.0
2023-05-24-16:42:27.033388,5.0,5.0,442.0
2023-05-24-16:42:27.034392,5.0,3.0,441.0
2023-05-24-16:42:27.035395,5.0,3.0,441.0
2023-05-24-16:42:27.036390,5.0,3.0,441.0
2023-05-24-16:42:27.037380,5.0,3.0,441.0
2023-05-24-16:42:27.040382,5.0,4.0,441.0
2023-05-24-16:42:27.040382,6.0,4.0,440.0
2023-05-24-16:42:27.041373,7.0,5.0,439.0
2023-05-24-16:42:27.042412,7.0,3.0,439.0
2023-05-24-16:42:27.043355,7.0,3.0,439.0
2023-05-24-16:42:27.044408,7.0,3.0,439.0
2023-05-24-16:42:27.045414,7.0,3.0,439.0
2023-05-24-16:42:27.046400,4.0,5.0,439.0
2023-05-24-16:42:27.047417,5.0,4.0,438.0
2023-05-24-16:42:27.048414,5.0,4.0,438.0
2023-05-24-16:42:27.049405,5.0,4.0,438.0
2023-05-24-16:42:27.050403,4.0,2.0,437.0
2023-05-24-16:42:27.051411,6.0,2.0,437.0
2023-05-24-16:42:27.052410,3.0,6.0,436.0
2023-05-24-16:42:27.053402,3.0,6.0,436.0
2023-05-24-16:42:27.055398,4.0,5.0,436.0
2023-05-24-16:42:27.056401,4.0,7.0,436.0
2023-05-24-16:42:27.056401,4.0,7.0,436.0
2023-05-24-16:42:27.057347,4.0,7.0,436.0
2023-05-24-16:42:27.058389,6.0,3.0,435.0
2023-05-24-16:42:27.059417,7.0,3.0,434.0
2023-05-24-16:42:27.060352,7.0,3.0,434.0
2023-05-24-16:42:27.061398,7.0,3.0,434.0
2023-05-24-16:42:27.062397,10.0,4.0,434.0
2023-05-24-16:42:27.063399,5.0,2.0,434.0
2023-05-24-16:42:27.064409,1.0,7.0,433.0
2023-05-24-16:42:27.065412,1.0,7.0,433.0
2023-05-24-16:42:27.066414,5.0,7.0,433.0
2023-05-24-16:42:27.067418,3.0,3.0,433.0
2023-05-24-16:42:27.068409,3.0,1.0,432.0
2023-05-24-16:42:27.069383,3.0,1.0,432.0
2023-05-24-16:42:27.070405,5.0,0.0,431.0
2023-05-24-16:42:27.071413,4.0,3.0,431.0
2023-05-24-16:42:27.072413,2.0,8.0,431.0
2023-05-24-16:42:27.073398,2.0,8.0,431.0
2023-05-24-16:42:27.074411,4.0,9.0,430.0
2023-05-24-16:42:27.076399,4.0,3.0,430.0
2023-05-24-16:42:27.076399,4.0,3.0,430.0
2023-05-24-16:42:27.077409,4.0,3.0,430.0
2023-05-24-16:42:27.078418,4.0,3.0,430.0
2023-05-24-16:42:27.079410,6.0,5.0,429.0
2023-05-24-16:42:27.080400,1.0,6.0,429.0
2023-05-24-16:42:27.081405,1.0,6.0,429.0
2023-05-24-16:42:27.082398,1.0,6.0,429.0
2023-05-24-16:42:27.083386,6.0,3.0,427.0
2023-05-24-16:42:27.084417,6.0,3.0,427.0
2023-05-24-16:42:27.085394,6.0,3.0,427.0
2023-05-24-16:42:27.086398,6.0,3.0,427.0
2023-05-24-16:42:27.087388,5.0,3.0,426.0
2023-05-24-16:42:27.088417,5.0,4.0,426.0
2023-05-24-16:42:27.089400,5.0,4.0,426.0
2023-05-24-16:42:27.090410,5.0,4.0,426.0
2023-05-24-16:42:27.091386,7.0,2.0,426.0
2023-05-24-16:42:27.092405,6.0,4.0,426.0
2023-05-24-16:42:27.093387,6.0,4.0,426.0
2023-05-24-16:42:27.094388,6.0,4.0,426.0
2023-05-24-16:42:27.095383,4.0,6.0,425.0
2023-05-24-16:42:27.096348,4.0,8.0,424.0
2023-05-24-16:42:27.097390,4.0,8.0,424.0
2023-05-24-16:42:27.098377,4.0,8.0,424.0
2023-05-24-16:42:27.099391,5.0,9.0,424.0
2023-05-24-16:42:27.100387,4.0,3.0,424.0
2023-05-24-16:42:27.101380,3.0,2.0,423.0
2023-05-24-16:42:27.102344,3.0,2.0,423.0
2023-05-24-16:42:27.103384,6.0,3.0,423.0
2023-05-24-16:42:27.104416,4.0,6.0,422.0
2023-05-24-16:42:27.105415,4.0,6.0,422.0
2023-05-24-16:42:27.106398,4.0,6.0,422.0
2023-05-24-16:42:27.107411,2.0,8.0,422.0
2023-05-24-16:42:27.109341,2.0,8.0,422.0
2023-05-24-16:42:27.109341,2.0,8.0,422.0
2023-05-24-16:42:27.110367,6.0,5.0,422.0
2023-05-24-16:42:27.111405,5.0,3.0,421.0
2023-05-24-16:42:27.112410,3.0,5.0,421.0
2023-05-24-16:42:27.113404,3.0,5.0,421.0
2023-05-24-16:42:27.114376,3.0,5.0,421.0
2023-05-24-16:42:27.115399,2.0,7.0,421.0
2023-05-24-16:42:27.116399,6.0,0.0,420.0
2023-05-24-16:42:27.117410,3.0,1.0,420.0
2023-05-24-16:42:27.118404,3.0,1.0,420.0
2023-05-24-16:42:27.119405,7.0,1.0,420.0
2023-05-24-16:42:27.120417,5.0,1.0,419.0
2023-05-24-16:42:27.121385,6.0,3.0,419.0
2023-05-24-16:42:27.122398,6.0,3.0,419.0
2023-05-24-16:42:27.123400,6.0,3.0,419.0
2023-05-24-16:42:27.124377,3.0,5.0,419.0
2023-05-24-16:42:27.125407,6.0,3.0,418.0
2023-05-24-16:42:27.126414,6.0,3.0,418.0
2023-05-24-16:42:27.127415,5.0,3.0,418.0
2023-05-24-16:42:27.128400,2.0,7.0,417.0
2023-05-24-16:42:27.129399,2.0,7.0,417.0
2023-05-24-16:42:27.130398,2.0,7.0,417.0
2023-05-24-16:42:27.131408,2.0,7.0,417.0
2023-05-24-16:42:27.132410,5.0,4.0,417.0
2023-05-24-16:42:27.133403,2.0,1.0,417.0
2023-05-24-16:42:27.134365,5.0,4.0,417.0
2023-05-24-16:42:27.135417,5.0,4.0,417.0
2023-05-24-16:42:27.136419,6.0,4.0,418.0
2023-05-24-16:42:27.137398,3.0,3.0,416.0
2023-05-24-16:42:27.138414,2.0,4.0,415.0
2023-05-24-16:42:27.139398,2.0,4.0,415.0
2023-05-24-16:42:27.140412,3.0,6.0,415.0
2023-05-24-16:42:27.141379,3.0,6.0,415.0
2023-05-24-16:42:27.144378,6.0,5.0,414.0
2023-05-24-16:42:27.144378,6.0,5.0,414.0
2023-05-24-16:42:27.145399,6.0,1.0,414.0
2023-05-24-16:42:27.146417,4.0,3.0,413.0
2023-05-24-16:42:27.147343,4.0,3.0,413.0
2023-05-24-16:42:27.148409,5.0,7.0,413.0
2023-05-24-16:42:27.149415,5.0,6.0,413.0
2023-05-24-16:42:27.150417,4.0,6.0,412.0
2023-05-24-16:42:27.151386,4.0,6.0,412.0
2023-05-24-16:42:27.152401,2.0,4.0,412.0
2023-05-24-16:42:27.153409,3.0,0.0,411.0
2023-05-24-16:42:27.154413,3.0,3.0,411.0
2023-05-24-16:42:27.155394,3.0,3.0,411.0
2023-05-24-16:42:27.156416,4.0,4.0,411.0
2023-05-24-16:42:27.157405,5.0,7.0,410.0
2023-05-24-16:42:27.158347,5.0,7.0,410.0
2023-05-24-16:42:27.159403,5.0,7.0,410.0
2023-05-24-16:42:27.160393,8.0,5.0,410.0
2023-05-24-16:42:27.163399,7.0,4.0,409.0
2023-05-24-16:42:27.163399,7.0,4.0,409.0
2023-05-24-16:42:27.164417,7.0,4.0,409.0
2023-05-24-16:42:27.165420,4.0,4.0,408.0
2023-05-24-16:42:27.166398,7.0,5.0,408.0
2023-05-24-16:42:27.167415,7.0,5.0,408.0
2023-05-24-16:42:27.168412,7.0,5.0,408.0
2023-05-24-16:42:27.169402,4.0,1.0,407.0
2023-05-24-16:42:27.170398,5.0,1.0,406.0
2023-05-24-16:42:27.171409,5.0,1.0,406.0
2023-05-24-16:42:27.172405,5.0,1.0,406.0
2023-05-24-16:42:27.173413,4.0,5.0,407.0
2023-05-24-16:42:27.174423,4.0,5.0,406.0
2023-05-24-16:42:27.175387,5.0,8.0,406.0
2023-05-24-16:42:27.177377,5.0,8.0,406.0
2023-05-24-16:42:27.178343,4.0,4.0,405.0
2023-05-24-16:42:27.178343,4.0,4.0,405.0
2023-05-24-16:42:27.179398,4.0,4.0,405.0
2023-05-24-16:42:27.180398,4.0,4.0,405.0
2023-05-24-16:42:27.181402,5.0,1.0,405.0
2023-05-24-16:42:27.182398,6.0,1.0,404.0
2023-05-24-16:42:27.183399,4.0,6.0,404.0
2023-05-24-16:42:27.184401,4.0,6.0,404.0
2023-05-24-16:42:27.185398,4.0,4.0,403.0
2023-05-24-16:42:27.186398,2.0,5.0,402.0
2023-05-24-16:42:27.187398,2.0,5.0,402.0
2023-05-24-16:42:27.188399,2.0,5.0,402.0
2023-05-24-16:42:27.189399,5.0,3.0,402.0
2023-05-24-16:42:27.190400,5.0,3.0,401.0
2023-05-24-16:42:27.191377,5.0,3.0,401.0
2023-05-24-16:42:27.194399,5.0,3.0,401.0
2023-05-24-16:42:27.194399,5.0,3.0,401.0
2023-05-24-16:42:27.195399,4.0,4.0,401.0
2023-05-24-16:42:27.196400,5.0,8.0,400.0
2023-05-24-16:42:27.197403,5.0,4.0,400.0
2023-05-24-16:42:27.198399,6.0,1.0,399.0
2023-05-24-16:42:27.199378,6.0,1.0,399.0
2023-05-24-16:42:27.200413,6.0,1.0,399.0
2023-05-24-16:42:27.201378,5.0,0.0,398.0
2023-05-24-16:42:27.202412,5.0,0.0,398.0
2023-05-24-16:42:27.203399,5.0,0.0,398.0
2023-05-24-16:42:27.204400,5.0,0.0,398.0
2023-05-24-16:42:27.205399,3.0,1.0,398.0
2023-05-24-16:42:27.206398,8.0,5.0,397.0
2023-05-24-16:42:27.207399,8.0,5.0,397.0
2023-05-24-16:42:27.208341,8.0,5.0,397.0
2023-05-24-16:42:27.210376,5.0,3.0,396.0
2023-05-24-16:42:27.210376,6.0,4.0,396.0
2023-05-24-16:42:27.211398,6.0,4.0,396.0
2023-05-24-16:42:27.212399,6.0,4.0,396.0
2023-05-24-16:42:27.213402,6.0,4.0,396.0
2023-05-24-16:42:27.214400,4.0,2.0,396.0
2023-05-24-16:42:27.215399,5.0,5.0,395.0
2023-05-24-16:42:27.216401,6.0,2.0,395.0
2023-05-24-16:42:27.217399,6.0,2.0,395.0
2023-05-24-16:42:27.218402,4.0,4.0,395.0
2023-05-24-16:42:27.219401,5.0,1.0,394.0
2023-05-24-16:42:27.220400,5.0,1.0,394.0
2023-05-24-16:42:27.221399,5.0,1.0,394.0
2023-05-24-16:42:27.222401,6.0,1.0,394.0
2023-05-24-16:42:27.223400,6.0,4.0,394.0
2023-05-24-16:42:27.224405,5.0,9.0,394.0
2023-05-24-16:42:27.225404,5.0,9.0,394.0
2023-05-24-16:42:27.226341,6.0,3.0,393.0
2023-05-24-16:42:27.227340,6.0,3.0,393.0
2023-05-24-16:42:27.228375,6.0,3.0,393.0
2023-05-24-16:42:27.229380,6.0,3.0,393.0
2023-05-24-16:42:27.230376,6.0,7.0,393.0
2023-05-24-16:42:27.231378,6.0,4.0,393.0
2023-05-24-16:42:27.232376,3.0,5.0,392.0
2023-05-24-16:42:27.233348,3.0,5.0,392.0
2023-05-24-16:42:27.234377,3.0,2.0,392.0
2023-05-24-16:42:27.235376,6.0,2.0,391.0
2023-05-24-16:42:27.236379,6.0,4.0,391.0
2023-05-24-16:42:27.237376,6.0,4.0,391.0
2023-05-24-16:42:27.238377,5.0,3.0,390.0
2023-05-24-16:42:27.240383,6.0,4.0,390.0
2023-05-24-16:42:27.241371,4.0,2.0,390.0
2023-05-24-16:42:27.242343,7.0,3.0,390.0
2023-05-24-16:42:27.242343,4.0,8.0,389.0
2023-05-24-16:42:27.244381,4.0,8.0,389.0
2023-05-24-16:42:27.244381,4.0,8.0,389.0
2023-05-24-16:42:27.245402,4.0,8.0,389.0
2023-05-24-16:42:27.246343,4.0,8.0,389.0
2023-05-24-16:42:27.247398,4.0,2.0,387.0
2023-05-24-16:42:27.248401,4.0,2.0,387.0
2023-05-24-16:42:27.249398,4.0,2.0,387.0
2023-05-24-16:42:27.250401,4.0,2.0,387.0
2023-05-24-16:42:27.251399,5.0,3.0,386.0
2023-05-24-16:42:27.252385,2.0,7.0,385.0
2023-05-24-16:42:27.253376,2.0,7.0,385.0
2023-05-24-16:42:27.254343,2.0,7.0,385.0
2023-05-24-16:42:27.255399,8.0,1.0,384.0
2023-05-24-16:42:27.256398,8.0,1.0,384.0
2023-05-24-16:42:27.257399,8.0,1.0,384.0
2023-05-24-16:42:27.258342,8.0,1.0,384.0
2023-05-24-16:42:27.259342,6.0,0.0,383.0
2023-05-24-16:42:27.260399,6.0,5.0,382.0
2023-05-24-16:42:27.261402,6.0,5.0,382.0
2023-05-24-16:42:27.262406,6.0,5.0,382.0
2023-05-24-16:42:27.263400,3.0,6.0,381.0
2023-05-24-16:42:27.264343,2.0,10.0,380.0
2023-05-24-16:42:27.265399,4.0,10.0,380.0
2023-05-24-16:42:27.266401,4.0,10.0,380.0
2023-05-24-16:42:27.267399,5.0,2.0,378.0
2023-05-24-16:42:27.268399,5.0,2.0,378.0
2023-05-24-16:42:27.269398,5.0,2.0,378.0
2023-05-24-16:42:27.270401,5.0,2.0,378.0
2023-05-24-16:42:27.271399,5.0,2.0,378.0
2023-05-24-16:42:27.272400,3.0,3.0,377.0
2023-05-24-16:42:27.273399,5.0,4.0,377.0
2023-05-24-16:42:27.274399,5.0,4.0,377.0
2023-05-24-16:42:27.275346,3.0,8.0,376.0
2023-05-24-16:42:27.276399,5.0,5.0,376.0
2023-05-24-16:42:27.278376,7.0,7.0,375.0
2023-05-24-16:42:27.278376,6.0,5.0,375.0
2023-05-24-16:42:27.279343,6.0,5.0,375.0
2023-05-24-16:42:27.280401,6.0,5.0,375.0
2023-05-24-16:42:27.281406,4.0,4.0,374.0
2023-05-24-16:42:27.282384,4.0,5.0,373.0
2023-05-24-16:42:27.283399,5.0,6.0,373.0
2023-05-24-16:42:27.284400,5.0,3.0,372.0
2023-05-24-16:42:27.285399,5.0,3.0,372.0
2023-05-24-16:42:27.286392,5.0,3.0,372.0
2023-05-24-16:42:27.287378,6.0,1.0,372.0
2023-05-24-16:42:27.288383,4.0,5.0,371.0
2023-05-24-16:42:27.289399,4.0,7.0,370.0
2023-05-24-16:42:27.290403,4.0,7.0,370.0
2023-05-24-16:42:27.291399,4.0,7.0,370.0
2023-05-24-16:42:27.292399,5.0,5.0,370.0
2023-05-24-16:42:27.293403,5.0,5.0,370.0
2023-05-24-16:42:27.294399,5.0,8.0,370.0
2023-05-24-16:42:27.295399,3.0,9.0,369.0
2023-05-24-16:42:27.296401,7.0,5.0,367.0
2023-05-24-16:42:27.297400,7.0,5.0,367.0
2023-05-24-16:42:27.298401,7.0,5.0,367.0
2023-05-24-16:42:27.299399,7.0,5.0,367.0
2023-05-24-16:42:27.300400,6.0,4.0,367.0
2023-05-24-16:42:27.301400,5.0,5.0,366.0
2023-05-24-16:42:27.302380,4.0,4.0,366.0
2023-05-24-16:42:27.303382,4.0,4.0,366.0
2023-05-24-16:42:27.304343,4.0,4.0,366.0
2023-05-24-16:42:27.305377,6.0,1.0,364.0
2023-05-24-16:42:27.306380,6.0,1.0,364.0
2023-05-24-16:42:27.307378,6.0,1.0,364.0
2023-05-24-16:42:27.308377,6.0,4.0,364.0
2023-05-24-16:42:27.309381,4.0,6.0,363.0
2023-05-24-16:42:27.310377,4.0,10.0,362.0
2023-05-24-16:42:27.311388,4.0,10.0,362.0
2023-05-24-16:42:27.312377,3.0,7.0,362.0
2023-05-24-16:42:27.314376,3.0,1.0,361.0
2023-05-24-16:42:27.314376,6.0,3.0,360.0
2023-05-24-16:42:27.315398,6.0,3.0,360.0
2023-05-24-16:42:27.316407,4.0,3.0,360.0
2023-05-24-16:42:27.317377,4.0,4.0,359.0
2023-05-24-16:42:27.318401,4.0,4.0,359.0
2023-05-24-16:42:27.319399,4.0,4.0,359.0
2023-05-24-16:42:27.320359,6.0,4.0,358.0
2023-05-24-16:42:27.321342,4.0,1.0,358.0
2023-05-24-16:42:27.322375,5.0,4.0,357.0
2023-05-24-16:42:27.323365,5.0,4.0,357.0
2023-05-24-16:42:27.324375,5.0,5.0,357.0
2023-05-24-16:42:27.325343,7.0,4.0,356.0
2023-05-24-16:42:27.326341,7.0,4.0,356.0
2023-05-24-16:42:27.327343,7.0,4.0,356.0
2023-05-24-16:42:27.328377,4.0,1.0,355.0
2023-05-24-16:42:27.329378,3.0,4.0,354.0
2023-05-24-16:42:27.330377,3.0,4.0,354.0
2023-05-24-16:42:27.331382,3.0,4.0,354.0
2023-05-24-16:42:27.332381,5.0,2.0,354.0
2023-05-24-16:42:27.333377,4.0,4.0,354.0
2023-05-24-16:42:27.334387,5.0,6.0,354.0
2023-05-24-16:42:27.335378,5.0,6.0,354.0
2023-05-24-16:42:27.336377,5.0,6.0,354.0
2023-05-24-16:42:27.337378,4.0,4.0,353.0
2023-05-24-16:42:27.338377,4.0,2.0,352.0
2023-05-24-16:42:27.339377,4.0,2.0,352.0
2023-05-24-16:42:27.340377,4.0,2.0,352.0
2023-05-24-16:42:27.341381,5.0,5.0,352.0
2023-05-24-16:42:27.342343,8.0,5.0,352.0
2023-05-24-16:42:27.343385,8.0,5.0,352.0
2023-05-24-16:42:27.344401,8.0,5.0,352.0
2023-05-24-16:42:27.345399,3.0,5.0,352.0
2023-05-24-16:42:27.347383,5.0,5.0,352.0
2023-05-24-16:42:27.347383,2.0,6.0,352.0
2023-05-24-16:42:27.348399,2.0,6.0,352.0
2023-05-24-16:42:27.349399,2.0,3.0,352.0
2023-05-24-16:42:27.350401,5.0,3.0,351.0
2023-05-24-16:42:27.351399,5.0,3.0,351.0
2023-05-24-16:42:27.352402,5.0,3.0,351.0
2023-05-24-16:42:27.353404,5.0,6.0,351.0
2023-05-24-16:42:27.354399,6.0,2.0,352.0
2023-05-24-16:42:27.355343,6.0,2.0,352.0
2023-05-24-16:42:27.356399,6.0,2.0,352.0
2023-05-24-16:42:27.357403,5.0,3.0,351.0
2023-05-24-16:42:27.358351,4.0,5.0,351.0
2023-05-24-16:42:27.359342,4.0,5.0,351.0
2023-05-24-16:42:27.360367,4.0,5.0,351.0
2023-05-24-16:42:27.361399,6.0,2.0,351.0
2023-05-24-16:42:27.362401,6.0,2.0,351.0
2023-05-24-16:42:27.363377,6.0,2.0,351.0
2023-05-24-16:42:27.364386,6.0,2.0,351.0
2023-05-24-16:42:27.365377,6.0,5.0,351.0
2023-05-24-16:42:27.366379,4.0,0.0,351.0
2023-05-24-16:42:27.367378,6.0,4.0,351.0
2023-05-24-16:42:27.368380,6.0,4.0,351.0
2023-05-24-16:42:27.369378,6.0,4.0,351.0
2023-05-24-16:42:27.370377,3.0,0.0,352.0
2023-05-24-16:42:27.371383,5.0,3.0,351.0
2023-05-24-16:42:27.372396,5.0,3.0,351.0
2023-05-24-16:42:27.373383,5.0,3.0,351.0
2023-05-24-16:42:27.374377,5.0,4.0,352.0
2023-05-24-16:42:27.375342,5.0,3.0,351.0
2023-05-24-16:42:27.376381,5.0,3.0,351.0
2023-05-24-16:42:27.377393,7.0,6.0,352.0
2023-05-24-16:42:27.378407,4.0,7.0,352.0
2023-05-24-16:42:27.379343,3.0,8.0,351.0
2023-05-24-16:42:27.380341,3.0,8.0,351.0
2023-05-24-16:42:27.381348,3.0,8.0,351.0
2023-05-24-16:42:27.382379,4.0,3.0,351.0
2023-05-24-16:42:27.383355,5.0,4.0,352.0
2023-05-24-16:42:27.384343,5.0,4.0,352.0
2023-05-24-16:42:27.386342,5.0,4.0,352.0
2023-05-24-16:42:27.386342,8.0,2.0,352.0
2023-05-24-16:42:27.387394,5.0,4.0,351.0
2023-05-24-16:42:27.388399,5.0,4.0,351.0
2023-05-24-16:42:27.389402,5.0,4.0,351.0
2023-05-24-16:42:27.390399,4.0,6.0,352.0
2023-05-24-16:42:27.391403,6.0,3.0,351.0
2023-05-24-16:42:27.392341,4.0,5.0,351.0
2023-05-24-16:42:27.393381,4.0,5.0,351.0
2023-05-24-16:42:27.394377,5.0,5.0,351.0
2023-05-24-16:42:27.395345,8.0,5.0,351.0
2023-05-24-16:42:27.396341,8.0,5.0,351.0
2023-05-24-16:42:27.397343,8.0,5.0,351.0
2023-05-24-16:42:27.398379,3.0,4.0,352.0
2023-05-24-16:42:27.399399,4.0,3.0,352.0
2023-05-24-16:42:27.400409,4.0,3.0,352.0
2023-05-24-16:42:27.401377,4.0,3.0,352.0
2023-05-24-16:42:27.402399,2.0,6.0,352.0
2023-05-24-16:42:27.403377,4.0,1.0,351.0
2023-05-24-16:42:27.404377,5.0,3.0,351.0
2023-05-24-16:42:27.405381,5.0,3.0,351.0
2023-05-24-16:42:27.406378,5.0,5.0,351.0
2023-05-24-16:42:27.407378,6.0,1.0,351.0
2023-05-24-16:42:27.408387,6.0,1.0,351.0
2023-05-24-16:42:27.409343,6.0,1.0,351.0
2023-05-24-16:42:27.410377,4.0,7.0,351.0
2023-05-24-16:42:27.411343,4.0,6.0,351.0
2023-05-24-16:42:27.412379,4.0,6.0,351.0
2023-05-24-16:42:27.413379,4.0,6.0,351.0
2023-05-24-16:42:27.414377,6.0,3.0,351.0
2023-05-24-16:42:27.416377,5.0,0.0,352.0
2023-05-24-16:42:27.416377,4.0,2.0,352.0
2023-05-24-16:42:27.417399,4.0,2.0,352.0
2023-05-24-16:42:27.418398,7.0,3.0,352.0
2023-05-24-16:42:27.419399,5.0,1.0,351.0
2023-05-24-16:42:27.420399,6.0,2.0,351.0
2023-05-24-16:42:27.421354,6.0,2.0,351.0
2023-05-24-16:42:27.422376,6.0,2.0,351.0
2023-05-24-16:42:27.423399,7.0,3.0,351.0
2023-05-24-16:42:27.424401,4.0,5.0,352.0
2023-05-24-16:42:27.425341,4.0,3.0,351.0
2023-05-24-16:42:27.426342,4.0,3.0,351.0
2023-05-24-16:42:27.427344,6.0,2.0,352.0
2023-05-24-16:42:27.428379,7.0,5.0,352.0
2023-05-24-16:42:27.429377,3.0,7.0,351.0
2023-05-24-16:42:27.430379,3.0,7.0,351.0
2023-05-24-16:42:27.431378,4.0,2.0,352.0
2023-05-24-16:42:27.432377,4.0,2.0,352.0
2023-05-24-16:42:27.433378,4.0,2.0,352.0
2023-05-24-16:42:27.434382,4.0,2.0,352.0
2023-05-24-16:42:27.435378,3.0,2.0,351.0
2023-05-24-16:42:27.436377,3.0,5.0,351.0
2023-05-24-16:42:27.437381,6.0,3.0,351.0
2023-05-24-16:42:27.438378,6.0,3.0,351.0
2023-05-24-16:42:27.439386,5.0,2.0,351.0
2023-05-24-16:42:27.440383,9.0,4.0,351.0
2023-05-24-16:42:27.441378,5.0,4.0,352.0
2023-05-24-16:42:27.442383,5.0,4.0,352.0
2023-05-24-16:42:27.443378,4.0,7.0,352.0
2023-05-24-16:42:27.444403,7.0,1.0,352.0
2023-05-24-16:42:27.445401,7.0,1.0,352.0
2023-05-24-16:42:27.446401,7.0,1.0,352.0
2023-05-24-16:42:27.447399,7.0,2.0,352.0
2023-05-24-16:42:27.449376,2.0,2.0,352.0
2023-05-24-16:42:27.449376,2.0,2.0,352.0
2023-05-24-16:42:27.450387,2.0,2.0,352.0
2023-05-24-16:42:27.451397,2.0,9.0,352.0
2023-05-24-16:42:27.452397,0.0,10.0,352.0
2023-05-24-16:42:27.453405,2.0,1.0,352.0
2023-05-24-16:42:27.454377,2.0,1.0,352.0
2023-05-24-16:42:27.455397,6.0,2.0,352.0
2023-05-24-16:42:27.456377,4.0,2.0,352.0
2023-05-24-16:42:27.457378,4.0,2.0,352.0
2023-05-24-16:42:27.458401,4.0,2.0,352.0
2023-05-24-16:42:27.459378,5.0,5.0,352.0
2023-05-24-16:42:27.460354,5.0,3.0,351.0
2023-05-24-16:42:27.461376,5.0,3.0,351.0
2023-05-24-16:42:27.462397,5.0,3.0,351.0
2023-05-24-16:42:27.463399,5.0,3.0,351.0
2023-05-24-16:42:27.464398,7.0,3.0,352.0
2023-05-24-16:42:27.465399,5.0,4.0,352.0
2023-05-24-16:42:27.466398,6.0,4.0,352.0
2023-05-24-16:42:27.467376,6.0,4.0,352.0
2023-05-24-16:42:27.468398,5.0,3.0,351.0
2023-05-24-16:42:27.469403,7.0,1.0,352.0
2023-05-24-16:42:27.470398,3.0,3.0,352.0
2023-05-24-16:42:27.471398,5.0,6.0,351.0
2023-05-24-16:42:27.472376,3.0,3.0,352.0
2023-05-24-16:42:27.473397,5.0,5.0,351.0
2023-05-24-16:42:27.474407,3.0,2.0,352.0
2023-05-24-16:42:27.475342,3.0,2.0,352.0
2023-05-24-16:42:27.476399,3.0,3.0,352.0
2023-05-24-16:42:27.477397,7.0,3.0,352.0
2023-05-24-16:42:27.478399,7.0,3.0,352.0
2023-05-24-16:42:27.479399,7.0,3.0,352.0
2023-05-24-16:42:27.480397,7.0,3.0,352.0
2023-05-24-16:42:27.481399,7.0,3.0,352.0
2023-05-24-16:42:27.482399,4.0,5.0,352.0
2023-05-24-16:42:27.484341,4.0,5.0,352.0
2023-05-24-16:42:27.484341,5.0,3.0,352.0
2023-05-24-16:42:27.485401,4.0,3.0,352.0
2023-05-24-16:42:27.486397,4.0,3.0,352.0
2023-05-24-16:42:27.487397,4.0,3.0,352.0
2023-05-24-16:42:27.488397,4.0,3.0,352.0
2023-05-24-16:42:27.489401,6.0,5.0,352.0
2023-05-24-16:42:27.490397,6.0,5.0,352.0
2023-05-24-16:42:27.491397,6.0,5.0,352.0
2023-05-24-16:42:27.492398,6.0,5.0,352.0
2023-05-24-16:42:27.493397,6.0,4.0,352.0
2023-05-24-16:42:27.494396,6.0,7.0,351.0
2023-05-24-16:42:27.495380,6.0,7.0,351.0
2023-05-24-16:42:27.496396,4.0,3.0,352.0
2023-05-24-16:42:27.497399,4.0,4.0,352.0
2023-05-24-16:42:27.498397,4.0,4.0,352.0
2023-05-24-16:42:27.499389,4.0,4.0,352.0
2023-05-24-16:42:27.500397,5.0,3.0,352.0
2023-05-24-16:42:27.501396,5.0,3.0,352.0
2023-05-24-16:42:27.502397,5.0,3.0,352.0
2023-05-24-16:42:27.503341,5.0,3.0,352.0
2023-05-24-16:42:27.504380,5.0,3.0,352.0
2023-05-24-16:42:27.505378,4.0,6.0,352.0
2023-05-24-16:42:27.506375,6.0,6.0,352.0
2023-05-24-16:42:27.507376,6.0,6.0,352.0
2023-05-24-16:42:27.508377,6.0,6.0,352.0
2023-05-24-16:42:27.509378,7.0,4.0,352.0
2023-05-24-16:42:27.510377,3.0,5.0,352.0
2023-05-24-16:42:27.511376,3.0,5.0,352.0
2023-05-24-16:42:27.512383,3.0,5.0,352.0
2023-05-24-16:42:27.513375,4.0,4.0,352.0
2023-05-24-16:42:27.514376,5.0,7.0,351.0
2023-05-24-16:42:27.515376,3.0,5.0,352.0
2023-05-24-16:42:27.517379,1.0,5.0,352.0
2023-05-24-16:42:27.517379,4.0,3.0,351.0
2023-05-24-16:42:27.518376,4.0,3.0,351.0
2023-05-24-16:42:27.519397,4.0,3.0,351.0
2023-05-24-16:42:27.520395,4.0,3.0,351.0
2023-05-24-16:42:27.521393,6.0,4.0,352.0
2023-05-24-16:42:27.522390,6.0,6.0,352.0
2023-05-24-16:42:27.523342,5.0,5.0,351.0
2023-05-24-16:42:27.524384,5.0,5.0,351.0
2023-05-24-16:42:27.525344,4.0,9.0,352.0
2023-05-24-16:42:27.526377,3.0,7.0,352.0
2023-05-24-16:42:27.527396,2.0,6.0,352.0
2023-05-24-16:42:27.528393,2.0,6.0,352.0
2023-05-24-16:42:27.529399,5.0,5.0,351.0
2023-05-24-16:42:27.530412,6.0,7.0,352.0
2023-05-24-16:42:27.531405,2.0,3.0,352.0
2023-05-24-16:42:27.532399,2.0,3.0,352.0
2023-05-24-16:42:27.533397,4.0,5.0,352.0
2023-05-24-16:42:27.534387,4.0,1.0,352.0
2023-05-24-16:42:27.535383,2.0,0.0,352.0
2023-05-24-16:42:27.536344,5.0,1.0,352.0
2023-05-24-16:42:27.537342,5.0,1.0,352.0
2023-05-24-16:42:27.538408,3.0,2.0,352.0
2023-05-24-16:42:27.539408,7.0,6.0,352.0
2023-05-24-16:42:27.540398,7.0,6.0,352.0
2023-05-24-16:42:27.541400,5.0,2.0,352.0
2023-05-24-16:42:27.542342,4.0,5.0,352.0
2023-05-24-16:42:27.543404,4.0,5.0,352.0
2023-05-24-16:42:27.544401,4.0,5.0,352.0
2023-05-24-16:42:27.545410,2.0,4.0,352.0
2023-05-24-16:42:27.546398,3.0,2.0,352.0
2023-05-24-16:42:27.547401,3.0,2.0,352.0
2023-05-24-16:42:27.548409,3.0,2.0,352.0
2023-05-24-16:42:27.549415,3.0,1.0,352.0
2023-05-24-16:42:27.550404,3.0,1.0,352.0
2023-05-24-16:42:27.551417,4.0,0.0,352.0
2023-05-24-16:42:27.553378,4.0,0.0,352.0
2023-05-24-16:42:27.553378,5.0,5.0,352.0
2023-05-24-16:42:27.554403,4.0,1.0,352.0
2023-05-24-16:42:27.555410,5.0,2.0,352.0
2023-05-24-16:42:27.556400,5.0,2.0,352.0
2023-05-24-16:42:27.557400,5.0,2.0,352.0
2023-05-24-16:42:27.558411,6.0,1.0,352.0
2023-05-24-16:42:27.559416,2.0,6.0,352.0
2023-05-24-16:42:27.560417,2.0,6.0,352.0
2023-05-24-16:42:27.561408,2.0,6.0,352.0
2023-05-24-16:42:27.562415,4.0,3.0,352.0
2023-05-24-16:42:27.563401,2.0,2.0,351.0
2023-05-24-16:42:27.564401,2.0,2.0,351.0
2023-05-24-16:42:27.565418,2.0,2.0,351.0
2023-05-24-16:42:27.566415,6.0,1.0,352.0
2023-05-24-16:42:27.567397,6.0,1.0,352.0
2023-05-24-16:42:27.568377,6.0,1.0,352.0
2023-05-24-16:42:27.569405,6.0,1.0,352.0
2023-05-24-16:42:27.570401,9.0,1.0,351.0
2023-05-24-16:42:27.571413,3.0,3.0,352.0
2023-05-24-16:42:27.572422,3.0,3.0,352.0
2023-05-24-16:42:27.573407,3.0,3.0,352.0
2023-05-24-16:42:27.574399,4.0,6.0,352.0
2023-05-24-16:42:27.575389,3.0,11.0,352.0
2023-05-24-16:42:27.576405,4.0,9.0,352.0
2023-05-24-16:42:27.577408,4.0,9.0,352.0
2023-05-24-16:42:27.578409,3.0,5.0,352.0
2023-05-24-16:42:27.579405,5.0,0.0,351.0
2023-05-24-16:42:27.580412,5.0,3.0,352.0
2023-05-24-16:42:27.581432,5.0,3.0,352.0
2023-05-24-16:42:27.582402,6.0,3.0,351.0
2023-05-24-16:42:27.583414,6.0,3.0,351.0
2023-05-24-16:42:27.584399,7.0,2.0,352.0
2023-05-24-16:42:27.586401,7.0,2.0,352.0
2023-05-24-16:42:27.586401,3.0,2.0,352.0
2023-05-24-16:42:27.587387,5.0,0.0,352.0
2023-05-24-16:42:27.588407,5.0,0.0,352.0
2023-05-24-16:42:27.589400,5.0,0.0,352.0
2023-05-24-16:42:27.590420,5.0,0.0,352.0
2023-05-24-16:42:27.591399,6.0,5.0,352.0
2023-05-24-16:42:27.592411,9.0,2.0,352.0
2023-05-24-16:42:27.593399,9.0,2.0,352.0
2023-05-24-16:42:27.594409,9.0,2.0,352.0
2023-05-24-16:42:27.595411,5.0,4.0,352.0
2023-05-24-16:42:27.596407,3.0,3.0,352.0
2023-05-24-16:42:27.597402,3.0,3.0,352.0
2023-05-24-16:42:27.598401,3.0,3.0,352.0
2023-05-24-16:42:27.599399,3.0,3.0,352.0
2023-05-24-16:42:27.600406,3.0,3.0,352.0
2023-05-24-16:42:27.601413,2.0,3.0,352.0
2023-05-24-16:42:27.602377,6.0,1.0,351.0
2023-05-24-16:42:27.603413,5.0,1.0,352.0
2023-05-24-16:42:27.604399,5.0,1.0,352.0
2023-05-24-16:42:27.605412,5.0,1.0,352.0
2023-05-24-16:42:27.606405,5.0,1.0,352.0
2023-05-24-16:42:27.607412,5.0,2.0,352.0
2023-05-24-16:42:27.608406,6.0,5.0,352.0
2023-05-24-16:42:27.609350,6.0,5.0,352.0
2023-05-24-16:42:27.610407,6.0,5.0,352.0
2023-05-24-16:42:27.611407,5.0,4.0,352.0
2023-05-24-16:42:27.612398,6.0,1.0,352.0
2023-05-24-16:42:27.613415,5.0,4.0,351.0
2023-05-24-16:42:27.614408,5.0,4.0,351.0
2023-05-24-16:42:27.615397,2.0,1.0,352.0
2023-05-24-16:42:27.616414,4.0,5.0,352.0
2023-05-24-16:42:27.617413,3.0,8.0,352.0
2023-05-24-16:42:27.618399,3.0,8.0,352.0
2023-05-24-16:42:27.620379,3.0,5.0,352.0
2023-05-24-16:42:27.620379,6.0,1.0,352.0
2023-05-24-16:42:27.621411,6.0,1.0,352.0
2023-05-24-16:42:27.622414,6.0,1.0,352.0
2023-05-24-16:42:27.623399,8.0,5.0,352.0
2023-05-24-16:42:27.624398,6.0,8.0,352.0
2023-05-24-16:42:27.625342,6.0,8.0,352.0
2023-05-24-16:42:27.626357,6.0,8.0,352.0
2023-05-24-16:42:27.627404,2.0,3.0,352.0
2023-05-24-16:42:27.628388,7.0,2.0,352.0
2023-05-24-16:42:27.629401,5.0,5.0,352.0
2023-05-24-16:42:27.630399,5.0,5.0,351.0
2023-05-24-16:42:27.631417,5.0,4.0,352.0
2023-05-24-16:42:27.632403,2.0,5.0,351.0
2023-05-24-16:42:27.633413,3.0,5.0,352.0
2023-05-24-16:42:27.634402,3.0,5.0,351.0
2023-05-24-16:42:27.635413,3.0,5.0,351.0
2023-05-24-16:42:27.636401,4.0,1.0,352.0
2023-05-24-16:42:27.637399,6.0,4.0,352.0
2023-05-24-16:42:27.638406,6.0,4.0,352.0
2023-05-24-16:42:27.639405,6.0,4.0,351.0
2023-05-24-16:42:27.640438,5.0,5.0,352.0
2023-05-24-16:42:27.641473,6.0,6.0,352.0
2023-05-24-16:42:27.642474,6.0,6.0,352.0
2023-05-24-16:42:27.643343,6.0,6.0,352.0
2023-05-24-16:42:27.644389,7.0,6.0,352.0
2023-05-24-16:42:27.645453,8.0,6.0,351.0
2023-05-24-16:42:27.646380,5.0,4.0,352.0
2023-05-24-16:42:27.647450,5.0,4.0,352.0
2023-05-24-16:42:27.648363,4.0,4.0,352.0
2023-05-24-16:42:27.649475,7.0,2.0,352.0
2023-05-24-16:42:27.650428,4.0,4.0,352.0
2023-05-24-16:42:27.651342,3.0,7.0,352.0
2023-05-24-16:42:27.652450,2.0,9.0,351.0
2023-05-24-16:42:27.653389,4.0,7.0,351.0
2023-05-24-16:42:27.654377,5.0,1.0,352.0
2023-05-24-16:42:27.656378,5.0,1.0,352.0
2023-05-24-16:42:27.656378,6.0,4.0,352.0
2023-05-24-16:42:27.657386,6.0,4.0,352.0
2023-05-24-16:42:27.658395,6.0,4.0,352.0
2023-05-24-16:42:27.659395,6.0,4.0,352.0
2023-05-24-16:42:27.660387,5.0,7.0,351.0
2023-05-24-16:42:27.661393,2.0,7.0,352.0
2023-05-24-16:42:27.662379,2.0,7.0,352.0
2023-05-24-16:42:27.663395,2.0,7.0,352.0
2023-05-24-16:42:27.664386,4.0,2.0,352.0
2023-05-24-16:42:27.665389,5.0,3.0,352.0
2023-05-24-16:42:27.666390,3.0,4.0,352.0
2023-05-24-16:42:27.667383,3.0,4.0,352.0
2023-05-24-16:42:27.668391,6.0,7.0,352.0
2023-05-24-16:42:27.669342,6.0,5.0,351.0
2023-05-24-16:42:27.670412,6.0,5.0,351.0
2023-05-24-16:42:27.671405,6.0,5.0,351.0
2023-05-24-16:42:27.672412,6.0,3.0,352.0
2023-05-24-16:42:27.673399,4.0,3.0,351.0
2023-05-24-16:42:27.674398,4.0,7.0,352.0
2023-05-24-16:42:27.675342,4.0,7.0,352.0
2023-05-24-16:42:27.676378,6.0,6.0,351.0
2023-05-24-16:42:27.677381,6.0,6.0,351.0
2023-05-24-16:42:27.678397,7.0,4.0,352.0
2023-05-24-16:42:27.679383,7.0,4.0,352.0
2023-05-24-16:42:27.680396,7.0,4.0,352.0
2023-05-24-16:42:27.681378,4.0,7.0,352.0
2023-05-24-16:42:27.682413,5.0,5.0,352.0
2023-05-24-16:42:27.683414,5.0,5.0,352.0
2023-05-24-16:42:27.684415,5.0,5.0,352.0
2023-05-24-16:42:27.685398,5.0,5.0,351.0
2023-05-24-16:42:27.687399,8.0,5.0,352.0
2023-05-24-16:42:27.688378,7.0,5.0,352.0
2023-05-24-16:42:27.688378,7.0,3.0,352.0
2023-05-24-16:42:27.689411,4.0,5.0,352.0
2023-05-24-16:42:27.690399,4.0,5.0,352.0
2023-05-24-16:42:27.691398,4.0,5.0,352.0
2023-05-24-16:42:27.692343,4.0,5.0,352.0
2023-05-24-16:42:27.693403,4.0,4.0,352.0
2023-05-24-16:42:27.694398,10.0,3.0,352.0
2023-05-24-16:42:27.695398,5.0,3.0,352.0
2023-05-24-16:42:27.696411,5.0,3.0,352.0
2023-05-24-16:42:27.697392,3.0,5.0,351.0
2023-05-24-16:42:27.698398,4.0,7.0,352.0
2023-05-24-16:42:27.699413,4.0,7.0,352.0
2023-05-24-16:42:27.700406,4.0,7.0,352.0
2023-05-24-16:42:27.701414,1.0,5.0,352.0
2023-05-24-16:42:27.702411,6.0,3.0,352.0
2023-05-24-16:42:27.703399,6.0,3.0,352.0
2023-05-24-16:42:27.704347,6.0,3.0,352.0
2023-05-24-16:42:27.705412,4.0,4.0,352.0
2023-05-24-16:42:27.706398,8.0,2.0,352.0
2023-05-24-16:42:27.707412,8.0,2.0,352.0
2023-05-24-16:42:27.708341,8.0,2.0,352.0
2023-05-24-16:42:27.709351,8.0,4.0,352.0
2023-05-24-16:42:27.710346,6.0,5.0,352.0
2023-05-24-16:42:27.711378,6.0,5.0,352.0
2023-05-24-16:42:27.712389,6.0,5.0,352.0
2023-05-24-16:42:27.713389,7.0,4.0,352.0
2023-05-24-16:42:27.714392,4.0,7.0,352.0
2023-05-24-16:42:27.715391,5.0,6.0,352.0
2023-05-24-16:42:27.716391,5.0,6.0,352.0
2023-05-24-16:42:27.717343,5.0,6.0,352.0
2023-05-24-16:42:27.718383,4.0,3.0,352.0
2023-05-24-16:42:27.719387,4.0,1.0,352.0
2023-05-24-16:42:27.720384,9.0,4.0,352.0
2023-05-24-16:42:27.721391,7.0,3.0,351.0
2023-05-24-16:42:27.722385,4.0,9.0,352.0
2023-05-24-16:42:27.723397,3.0,8.0,352.0
2023-05-24-16:42:27.724390,5.0,8.0,352.0
2023-05-24-16:42:27.725382,5.0,8.0,352.0
2023-05-24-16:42:27.726377,5.0,7.0,352.0
2023-05-24-16:42:27.728377,6.0,4.0,352.0
2023-05-24-16:42:27.728377,3.0,3.0,352.0
2023-05-24-16:42:27.729406,4.0,2.0,351.0
2023-05-24-16:42:27.730340,5.0,4.0,352.0
2023-05-24-16:42:27.731399,8.0,2.0,352.0
2023-05-24-16:42:27.732402,5.0,11.0,352.0
2023-05-24-16:42:27.733400,5.0,11.0,352.0
2023-05-24-16:42:27.734412,2.0,5.0,352.0
2023-05-24-16:42:27.735404,5.0,3.0,352.0
2023-05-24-16:42:27.736413,6.0,2.0,352.0
2023-05-24-16:42:27.737426,5.0,4.0,352.0
2023-05-24-16:42:27.738413,5.0,4.0,352.0
2023-05-24-16:42:27.739414,5.0,5.0,352.0
2023-05-24-16:42:27.740356,5.0,3.0,352.0
2023-05-24-16:42:27.741347,4.0,4.0,352.0
2023-05-24-16:42:27.742394,6.0,3.0,352.0
2023-05-24-16:42:27.743403,8.0,4.0,352.0
2023-05-24-16:42:27.744392,3.0,6.0,351.0
2023-05-24-16:42:27.745393,3.0,6.0,351.0
2023-05-24-16:42:27.746384,2.0,7.0,352.0
2023-05-24-16:42:27.747392,5.0,4.0,352.0
2023-05-24-16:42:27.748388,7.0,5.0,352.0
2023-05-24-16:42:27.749381,7.0,5.0,352.0
2023-05-24-16:42:27.750389,5.0,3.0,352.0
2023-05-24-16:42:27.751382,5.0,3.0,351.0
2023-05-24-16:42:27.752388,3.0,3.0,351.0
2023-05-24-16:42:27.753376,3.0,3.0,351.0
2023-05-24-16:42:27.754379,4.0,2.0,351.0
2023-05-24-16:42:27.755389,4.0,2.0,351.0
2023-05-24-16:42:27.757383,7.0,4.0,352.0
2023-05-24-16:42:27.757383,2.0,3.0,352.0
2023-05-24-16:42:27.758397,6.0,4.0,352.0
2023-05-24-16:42:27.759356,6.0,6.0,352.0
2023-05-24-16:42:27.760410,6.0,6.0,352.0
2023-05-24-16:42:27.761412,6.0,6.0,352.0
2023-05-24-16:42:27.762403,6.0,6.0,352.0
2023-05-24-16:42:27.763412,7.0,4.0,352.0
2023-05-24-16:42:27.764399,5.0,2.0,352.0
2023-05-24-16:42:27.765386,5.0,2.0,352.0
2023-05-24-16:42:27.766380,6.0,2.0,352.0
2023-05-24-16:42:27.767413,5.0,7.0,352.0
2023-05-24-16:42:27.768411,4.0,6.0,352.0
2023-05-24-16:42:27.769416,4.0,6.0,352.0
2023-05-24-16:42:27.770413,4.0,6.0,352.0
2023-05-24-16:42:27.771409,7.0,3.0,351.0
2023-05-24-16:42:27.772412,7.0,3.0,351.0
2023-05-24-16:42:27.773416,4.0,2.0,352.0
2023-05-24-16:42:27.774403,3.0,4.0,352.0
2023-05-24-16:42:27.775398,4.0,9.0,352.0
2023-05-24-16:42:27.776419,6.0,4.0,351.0
2023-05-24-16:42:27.777415,6.0,0.0,351.0
2023-05-24-16:42:27.778418,8.0,2.0,352.0
2023-05-24-16:42:27.779404,8.0,2.0,352.0
2023-05-24-16:42:27.780416,4.0,4.0,351.0
2023-05-24-16:42:27.781410,5.0,4.0,352.0
2023-05-24-16:42:27.782415,6.0,3.0,352.0
2023-05-24-16:42:27.783414,6.0,2.0,351.0
2023-05-24-16:42:27.784407,3.0,3.0,351.0
2023-05-24-16:42:27.785402,3.0,4.0,352.0
2023-05-24-16:42:27.786417,4.0,5.0,351.0
2023-05-24-16:42:27.787408,8.0,4.0,352.0
2023-05-24-16:42:27.789380,6.0,3.0,351.0
2023-05-24-16:42:27.790366,6.0,3.0,351.0
2023-05-24-16:42:27.790366,4.0,3.0,352.0
2023-05-24-16:42:27.791415,6.0,5.0,352.0
2023-05-24-16:42:27.792419,6.0,5.0,352.0
2023-05-24-16:42:27.793340,6.0,5.0,352.0
2023-05-24-16:42:27.794389,6.0,5.0,352.0
2023-05-24-16:42:27.795376,5.0,6.0,352.0
2023-05-24-16:42:27.796388,6.0,5.0,352.0
2023-05-24-16:42:27.797378,8.0,4.0,352.0
2023-05-24-16:42:27.798377,8.0,4.0,352.0
2023-05-24-16:42:27.799381,8.0,4.0,352.0
2023-05-24-16:42:27.800378,4.0,2.0,352.0
2023-05-24-16:42:27.801392,5.0,6.0,351.0
2023-05-24-16:42:27.802392,4.0,5.0,352.0
2023-05-24-16:42:27.803375,4.0,5.0,352.0
2023-05-24-16:42:27.804392,3.0,4.0,352.0
2023-05-24-16:42:27.805381,3.0,2.0,352.0
2023-05-24-16:42:27.806394,3.0,2.0,352.0
2023-05-24-16:42:27.807345,5.0,6.0,352.0
2023-05-24-16:42:27.808417,7.0,3.0,352.0
2023-05-24-16:42:27.809349,7.0,3.0,352.0
2023-05-24-16:42:27.810382,7.0,3.0,352.0
2023-05-24-16:42:27.811381,7.0,3.0,352.0
2023-05-24-16:42:27.812382,4.0,3.0,352.0
2023-05-24-16:42:27.813382,3.0,8.0,352.0
2023-05-24-16:42:27.814387,4.0,9.0,352.0
2023-05-24-16:42:27.815379,4.0,9.0,352.0
2023-05-24-16:42:27.816393,1.0,8.0,352.0
2023-05-24-16:42:27.817394,3.0,4.0,352.0
2023-05-24-16:42:27.818391,6.0,2.0,352.0
2023-05-24-16:42:27.819391,6.0,2.0,352.0
2023-05-24-16:42:27.820377,6.0,1.0,352.0
2023-05-24-16:42:27.821387,4.0,4.0,352.0
2023-05-24-16:42:27.822417,4.0,4.0,352.0
2023-05-24-16:42:27.823398,4.0,4.0,352.0
2023-05-24-16:42:27.824406,4.0,5.0,352.0
2023-05-24-16:42:27.826377,5.0,6.0,352.0
2023-05-24-16:42:27.826377,5.0,6.0,352.0
2023-05-24-16:42:27.827408,5.0,6.0,352.0
2023-05-24-16:42:27.828414,6.0,5.0,352.0
2023-05-24-16:42:27.829398,7.0,4.0,352.0
2023-05-24-16:42:27.830407,6.0,3.0,351.0
2023-05-24-16:42:27.831399,6.0,3.0,351.0
2023-05-24-16:42:27.832399,5.0,3.0,351.0
2023-05-24-16:42:27.833409,4.0,4.0,352.0
2023-05-24-16:42:27.834415,4.0,4.0,352.0
2023-05-24-16:42:27.835394,4.0,4.0,352.0
2023-05-24-16:42:27.836406,5.0,2.0,351.0
2023-05-24-16:42:27.837426,6.0,2.0,351.0
2023-05-24-16:42:27.838343,7.0,4.0,352.0
2023-05-24-16:42:27.839399,7.0,4.0,352.0
2023-05-24-16:42:27.840410,7.0,5.0,352.0
2023-05-24-16:42:27.841407,6.0,5.0,352.0
2023-05-24-16:42:27.842413,6.0,5.0,352.0
2023-05-24-16:42:27.843407,6.0,5.0,352.0
2023-05-24-16:42:27.844414,6.0,5.0,352.0
2023-05-24-16:42:27.845398,5.0,5.0,352.0
2023-05-24-16:42:27.846407,6.0,5.0,351.0
2023-05-24-16:42:27.847415,6.0,5.0,351.0
2023-05-24-16:42:27.848412,6.0,5.0,351.0
2023-05-24-16:42:27.849402,3.0,6.0,352.0
2023-05-24-16:42:27.850407,6.0,4.0,352.0
2023-05-24-16:42:27.851343,6.0,4.0,352.0
2023-05-24-16:42:27.852413,6.0,4.0,352.0
2023-05-24-16:42:27.853420,3.0,2.0,352.0
2023-05-24-16:42:27.854413,6.0,1.0,352.0
2023-05-24-16:42:27.855425,6.0,1.0,352.0
2023-05-24-16:42:27.856411,6.0,1.0,352.0
2023-05-24-16:42:27.857410,3.0,6.0,352.0
2023-05-24-16:42:27.858341,2.0,10.0,351.0
2023-05-24-16:42:27.860377,3.0,8.0,352.0
2023-05-24-16:42:27.860377,3.0,8.0,352.0
2023-05-24-16:42:27.861375,4.0,2.0,352.0
2023-05-24-16:42:27.862386,4.0,3.0,352.0
2023-05-24-16:42:27.863394,4.0,3.0,352.0
2023-05-24-16:42:27.864379,4.0,3.0,352.0
2023-05-24-16:42:27.865376,7.0,2.0,352.0
2023-05-24-16:42:27.866391,5.0,1.0,352.0
2023-05-24-16:42:27.867375,6.0,1.0,352.0
2023-05-24-16:42:27.868387,6.0,1.0,352.0
2023-05-24-16:42:27.869391,6.0,2.0,352.0
2023-05-24-16:42:27.870377,5.0,4.0,351.0
2023-05-24-16:42:27.871380,5.0,2.0,352.0
2023-05-24-16:42:27.872394,5.0,2.0,352.0
2023-05-24-16:42:27.873393,5.0,2.0,352.0
2023-05-24-16:42:27.874383,3.0,6.0,352.0
2023-05-24-16:42:27.875387,3.0,6.0,352.0
2023-05-24-16:42:27.876382,3.0,6.0,352.0
2023-05-24-16:42:27.877400,6.0,5.0,352.0
2023-05-24-16:42:27.878415,4.0,3.0,352.0
2023-05-24-16:42:27.879423,4.0,3.0,352.0
2023-05-24-16:42:27.880414,4.0,3.0,352.0
2023-05-24-16:42:27.881415,5.0,0.0,352.0
2023-05-24-16:42:27.882416,3.0,2.0,352.0
2023-05-24-16:42:27.884399,5.0,5.0,352.0
2023-05-24-16:42:27.884399,5.0,5.0,352.0
2023-05-24-16:42:27.885390,3.0,5.0,351.0
2023-05-24-16:42:27.886402,0.0,2.0,352.0
2023-05-24-16:42:27.887405,0.0,2.0,352.0
2023-05-24-16:42:27.888410,0.0,2.0,352.0
2023-05-24-16:42:27.889406,0.0,2.0,352.0
2023-05-24-16:42:27.890421,6.0,4.0,352.0
2023-05-24-16:42:27.891347,6.0,3.0,352.0
2023-05-24-16:42:27.892390,6.0,3.0,352.0
2023-05-24-16:42:27.893397,5.0,4.0,352.0
2023-05-24-16:42:27.894343,5.0,6.0,352.0
2023-05-24-16:42:27.896341,5.0,6.0,352.0
2023-05-24-16:42:27.896341,5.0,6.0,352.0
2023-05-24-16:42:27.897413,2.0,5.0,352.0
2023-05-24-16:42:27.898410,5.0,5.0,352.0
2023-05-24-16:42:27.899402,5.0,5.0,352.0
2023-05-24-16:42:27.900417,5.0,5.0,352.0
2023-05-24-16:42:27.901397,5.0,5.0,352.0
2023-05-24-16:42:27.902398,6.0,0.0,352.0
2023-05-24-16:42:27.903409,6.0,2.0,352.0
2023-05-24-16:42:27.904401,2.0,4.0,351.0
2023-05-24-16:42:27.905414,2.0,4.0,351.0
2023-05-24-16:42:27.906414,5.0,3.0,351.0
2023-05-24-16:42:27.907414,3.0,6.0,352.0
2023-05-24-16:42:27.908402,6.0,6.0,352.0
2023-05-24-16:42:27.909401,6.0,6.0,352.0
2023-05-24-16:42:27.910345,6.0,3.0,352.0
2023-05-24-16:42:27.911409,6.0,3.0,352.0
2023-05-24-16:42:27.912413,6.0,3.0,352.0
2023-05-24-16:42:27.913408,6.0,3.0,352.0
2023-05-24-16:42:27.914341,5.0,5.0,352.0
2023-05-24-16:42:27.915376,4.0,5.0,352.0
2023-05-24-16:42:27.916397,4.0,3.0,352.0
2023-05-24-16:42:27.917387,4.0,3.0,352.0
2023-05-24-16:42:27.918377,2.0,5.0,352.0
2023-05-24-16:42:27.919386,6.0,4.0,351.0
2023-05-24-16:42:27.920392,6.0,2.0,351.0
2023-05-24-16:42:27.921382,6.0,2.0,351.0
2023-05-24-16:42:27.922385,5.0,4.0,352.0
2023-05-24-16:42:27.923383,5.0,6.0,352.0
2023-05-24-16:42:27.924390,7.0,2.0,351.0
2023-05-24-16:42:27.925389,7.0,2.0,351.0
2023-05-24-16:42:27.926391,5.0,4.0,352.0
2023-05-24-16:42:27.927383,5.0,2.0,352.0
2023-05-24-16:42:27.928392,5.0,2.0,352.0
2023-05-24-16:42:27.929390,5.0,2.0,352.0
2023-05-24-16:42:27.930392,4.0,8.0,352.0
2023-05-24-16:42:27.932378,2.0,6.0,352.0
2023-05-24-16:42:27.932378,2.0,6.0,352.0
2023-05-24-16:42:27.933411,2.0,6.0,352.0
2023-05-24-16:42:27.934407,2.0,6.0,352.0
2023-05-24-16:42:27.935416,3.0,2.0,351.0
2023-05-24-16:42:27.936403,3.0,2.0,351.0
2023-05-24-16:42:27.937398,3.0,2.0,351.0
2023-05-24-16:42:27.938415,3.0,2.0,351.0
2023-05-24-16:42:27.939398,5.0,2.0,352.0
2023-05-24-16:42:27.940399,4.0,3.0,351.0
2023-05-24-16:42:27.941415,4.0,3.0,351.0
2023-05-24-16:42:27.942342,4.0,3.0,351.0
2023-05-24-16:42:27.943343,4.0,3.0,352.0
2023-05-24-16:42:27.944343,6.0,3.0,351.0
2023-05-24-16:42:27.945353,6.0,9.0,351.0
2023-05-24-16:42:27.946390,6.0,9.0,351.0
2023-05-24-16:42:27.947341,5.0,4.0,352.0
2023-05-24-16:42:27.948391,5.0,4.0,352.0
2023-05-24-16:42:27.949381,7.0,4.0,351.0
2023-05-24-16:42:27.950399,5.0,2.0,351.0
2023-05-24-16:42:27.951393,4.0,2.0,352.0
2023-05-24-16:42:27.952390,7.0,2.0,351.0
2023-05-24-16:42:27.953394,7.0,2.0,352.0
2023-05-24-16:42:27.954378,5.0,2.0,352.0
2023-05-24-16:42:27.955410,7.0,2.0,351.0
2023-05-24-16:42:27.956401,4.0,4.0,351.0
2023-05-24-16:42:27.957414,3.0,4.0,351.0
2023-05-24-16:42:27.958409,3.0,6.0,352.0
2023-05-24-16:42:27.959352,4.0,7.0,352.0
2023-05-24-16:42:27.960381,4.0,3.0,351.0
2023-05-24-16:42:27.961343,7.0,2.0,352.0
2023-05-24-16:42:27.962341,9.0,3.0,352.0
2023-05-24-16:42:27.963379,9.0,3.0,352.0
2023-05-24-16:42:27.964386,3.0,5.0,352.0
2023-05-24-16:42:27.965392,4.0,0.0,352.0
2023-05-24-16:42:27.966409,4.0,0.0,352.0
2023-05-24-16:42:27.967419,3.0,3.0,352.0
2023-05-24-16:42:27.968411,6.0,1.0,352.0
2023-05-24-16:42:27.970402,4.0,2.0,352.0
2023-05-24-16:42:27.970402,4.0,2.0,352.0
2023-05-24-16:42:27.971401,5.0,3.0,351.0
2023-05-24-16:42:27.972413,2.0,11.0,352.0
2023-05-24-16:42:27.973409,2.0,11.0,352.0
2023-05-24-16:42:27.974408,2.0,11.0,352.0
2023-05-24-16:42:27.975389,2.0,11.0,352.0
2023-05-24-16:42:27.976409,3.0,7.0,352.0
2023-05-24-16:42:27.977341,5.0,1.0,352.0
2023-05-24-16:42:27.978419,5.0,1.0,352.0
2023-05-24-16:42:27.979413,4.0,2.0,351.0
2023-05-24-16:42:27.980406,4.0,2.0,351.0
2023-05-24-16:42:27.981413,2.0,3.0,352.0
2023-05-24-16:42:27.982387,6.0,5.0,352.0
2023-05-24-16:42:27.983416,6.0,5.0,352.0
2023-05-24-16:42:27.984396,1.0,6.0,352.0
2023-05-24-16:42:27.985395,5.0,1.0,351.0
2023-05-24-16:42:27.986403,5.0,1.0,351.0
2023-05-24-16:42:27.987413,5.0,1.0,351.0
2023-05-24-16:42:27.988420,8.0,0.0,351.0
2023-05-24-16:42:27.989414,8.0,4.0,352.0
2023-05-24-16:42:27.990377,8.0,4.0,352.0
2023-05-24-16:42:27.991413,8.0,4.0,352.0
2023-05-24-16:42:27.992344,6.0,6.0,352.0
2023-05-24-16:42:27.993445,4.0,4.0,352.0
2023-05-24-16:42:27.994359,4.0,4.0,352.0
2023-05-24-16:42:27.995496,4.0,4.0,352.0
2023-05-24-16:42:27.996401,4.0,7.0,352.0
2023-05-24-16:42:27.997403,4.0,7.0,352.0
2023-05-24-16:42:27.998393,5.0,2.0,352.0
2023-05-24-16:42:28.000377,5.0,2.0,352.0
2023-05-24-16:42:28.000377,9.0,3.0,352.0
2023-05-24-16:42:28.001392,5.0,2.0,352.0
2023-05-24-16:42:28.002375,4.0,2.0,351.0
2023-05-24-16:42:28.003381,4.0,2.0,351.0
2023-05-24-16:42:28.004377,5.0,3.0,351.0
2023-05-24-16:42:28.005390,7.0,2.0,352.0
2023-05-24-16:42:28.006382,4.0,4.0,351.0
2023-05-24-16:42:28.007375,4.0,4.0,351.0
2023-05-24-16:42:28.008382,6.0,2.0,352.0
2023-05-24-16:42:28.009360,6.0,3.0,351.0
2023-05-24-16:42:28.010392,4.0,5.0,352.0
2023-05-24-16:42:28.011392,4.0,5.0,352.0
2023-05-24-16:42:28.012395,4.0,5.0,352.0
2023-05-24-16:42:28.013391,5.0,2.0,352.0
2023-05-24-16:42:28.014376,7.0,3.0,352.0
2023-05-24-16:42:28.015395,7.0,3.0,352.0
2023-05-24-16:42:28.016381,3.0,2.0,352.0
2023-05-24-16:42:28.017390,5.0,1.0,352.0
2023-05-24-16:42:28.018376,5.0,1.0,352.0
2023-05-24-16:42:28.019395,5.0,1.0,352.0
2023-05-24-16:42:28.020390,5.0,1.0,352.0
2023-05-24-16:42:28.021393,5.0,5.0,351.0
2023-05-24-16:42:28.022383,5.0,5.0,351.0
2023-05-24-16:42:28.024380,5.0,5.0,351.0
2023-05-24-16:42:28.024380,7.0,1.0,352.0
2023-05-24-16:42:28.025416,6.0,2.0,351.0
2023-05-24-16:42:28.026410,6.0,2.0,351.0
2023-05-24-16:42:28.027412,6.0,2.0,351.0
2023-05-24-16:42:28.028429,6.0,2.0,351.0
2023-05-24-16:42:28.029405,3.0,3.0,351.0
2023-05-24-16:42:28.030407,7.0,4.0,352.0
2023-05-24-16:42:28.031417,6.0,6.0,352.0
2023-05-24-16:42:28.032401,6.0,6.0,352.0
2023-05-24-16:42:28.033398,3.0,5.0,351.0
2023-05-24-16:42:28.034399,7.0,3.0,351.0
2023-05-24-16:42:28.036341,7.0,3.0,351.0
2023-05-24-16:42:28.036341,6.0,3.0,352.0
2023-05-24-16:42:28.037413,4.0,7.0,351.0
2023-05-24-16:42:28.038411,3.0,5.0,352.0
2023-05-24-16:42:28.041400,3.0,5.0,352.0
2023-05-24-16:42:28.041400,6.0,2.0,351.0
2023-05-24-16:42:28.042343,7.0,4.0,352.0
2023-05-24-16:42:28.043346,6.0,3.0,352.0
2023-05-24-16:42:28.044414,6.0,3.0,352.0
2023-05-24-16:42:28.045417,4.0,3.0,351.0
2023-05-24-16:42:28.046413,4.0,2.0,352.0
2023-05-24-16:42:28.047407,8.0,2.0,352.0
2023-05-24-16:42:28.048393,8.0,2.0,352.0
2023-05-24-16:42:28.049413,4.0,5.0,351.0
2023-05-24-16:42:28.050398,5.0,2.0,352.0
2023-05-24-16:42:28.051410,5.0,2.0,352.0
2023-05-24-16:42:28.052419,5.0,2.0,352.0
2023-05-24-16:42:28.053415,6.0,1.0,352.0
2023-05-24-16:42:28.054411,4.0,2.0,352.0
2023-05-24-16:42:28.055399,3.0,2.0,352.0
2023-05-24-16:42:28.056415,3.0,2.0,352.0
2023-05-24-16:42:28.057417,3.0,2.0,352.0
2023-05-24-16:42:28.058404,5.0,7.0,352.0
2023-05-24-16:42:28.059414,5.0,5.0,352.0
2023-05-24-16:42:28.060417,5.0,5.0,352.0
2023-05-24-16:42:28.061405,5.0,5.0,352.0
2023-05-24-16:42:28.062399,7.0,6.0,351.0
2023-05-24-16:42:28.063397,7.0,6.0,351.0
2023-05-24-16:42:28.064392,5.0,4.0,351.0
2023-05-24-16:42:28.065399,5.0,4.0,351.0
2023-05-24-16:42:28.066377,5.0,2.0,351.0
2023-05-24-16:42:28.068400,5.0,3.0,352.0
2023-05-24-16:42:28.068400,5.0,3.0,352.0
2023-05-24-16:42:28.069399,5.0,0.0,351.0
2023-05-24-16:42:28.070416,5.0,4.0,352.0
2023-05-24-16:42:28.071401,6.0,2.0,351.0
2023-05-24-16:42:28.072412,6.0,2.0,351.0
2023-05-24-16:42:28.073404,6.0,2.0,351.0
2023-05-24-16:42:28.074414,3.0,4.0,352.0
2023-05-24-16:42:28.075405,4.0,4.0,351.0
2023-05-24-16:42:28.076415,6.0,4.0,351.0
2023-05-24-16:42:28.077402,6.0,4.0,351.0
2023-05-24-16:42:28.078413,5.0,2.0,351.0
2023-05-24-16:42:28.079405,5.0,5.0,352.0
2023-05-24-16:42:28.080377,4.0,6.0,351.0
2023-05-24-16:42:28.081378,4.0,6.0,351.0
2023-05-24-16:42:28.082354,5.0,4.0,352.0
2023-05-24-16:42:28.083379,5.0,2.0,351.0
2023-05-24-16:42:28.084391,5.0,2.0,351.0
2023-05-24-16:42:28.085393,5.0,2.0,351.0
2023-05-24-16:42:28.086393,4.0,1.0,352.0
2023-05-24-16:42:28.087387,7.0,4.0,351.0
2023-05-24-16:42:28.088378,7.0,4.0,351.0
2023-05-24-16:42:28.089380,7.0,4.0,351.0
2023-05-24-16:42:28.090383,6.0,5.0,351.0
2023-05-24-16:42:28.091394,4.0,3.0,351.0
2023-05-24-16:42:28.092391,5.0,1.0,351.0
2023-05-24-16:42:28.093387,5.0,1.0,351.0
2023-05-24-16:42:28.094385,5.0,3.0,351.0
2023-05-24-16:42:28.095393,4.0,5.0,351.0
2023-05-24-16:42:28.096377,5.0,6.0,351.0
2023-05-24-16:42:28.097387,5.0,6.0,351.0
2023-05-24-16:42:28.098387,5.0,6.0,351.0
2023-05-24-16:42:28.099394,5.0,2.0,351.0
2023-05-24-16:42:28.100381,4.0,5.0,351.0
2023-05-24-16:42:28.102379,4.0,5.0,351.0
2023-05-24-16:42:28.102379,4.0,5.0,351.0
2023-05-24-16:42:28.103399,5.0,1.0,351.0
2023-05-24-16:42:28.104411,6.0,1.0,351.0
2023-05-24-16:42:28.105402,6.0,1.0,351.0
2023-05-24-16:42:28.106412,6.0,1.0,351.0
2023-05-24-16:42:28.107398,3.0,4.0,350.0
2023-05-24-16:42:28.108403,5.0,5.0,350.0
2023-05-24-16:42:28.109391,5.0,5.0,350.0
2023-05-24-16:42:28.110400,5.0,5.0,350.0
2023-05-24-16:42:28.111419,4.0,6.0,350.0
2023-05-24-16:42:28.112407,7.0,3.0,350.0
2023-05-24-16:42:28.113387,4.0,3.0,350.0
2023-05-24-16:42:28.114350,4.0,3.0,350.0
2023-05-24-16:42:28.115414,4.0,3.0,350.0
2023-05-24-16:42:28.116400,5.0,6.0,349.0
2023-05-24-16:42:28.117342,4.0,5.0,349.0
2023-05-24-16:42:28.118414,5.0,5.0,349.0
2023-05-24-16:42:28.119407,3.0,1.0,349.0
2023-05-24-16:42:28.120415,3.0,5.0,348.0
2023-05-24-16:42:28.121422,6.0,4.0,348.0
2023-05-24-16:42:28.122397,6.0,4.0,348.0
2023-05-24-16:42:28.123398,4.0,4.0,348.0
2023-05-24-16:42:28.124413,4.0,5.0,348.0
2023-05-24-16:42:28.125418,3.0,7.0,348.0
2023-05-24-16:42:28.126352,3.0,7.0,348.0
2023-05-24-16:42:28.127436,5.0,7.0,348.0
2023-05-24-16:42:28.128417,4.0,3.0,347.0
2023-05-24-16:42:28.129408,7.0,1.0,347.0
2023-05-24-16:42:28.130402,7.0,1.0,347.0
2023-05-24-16:42:28.131415,5.0,2.0,347.0
2023-05-24-16:42:28.132392,7.0,2.0,346.0
2023-05-24-16:42:28.133401,3.0,4.0,346.0
2023-05-24-16:42:28.134397,3.0,4.0,346.0
2023-05-24-16:42:28.135399,6.0,3.0,346.0
2023-05-24-16:42:28.137378,3.0,5.0,345.0
2023-05-24-16:42:28.137378,3.0,5.0,345.0
2023-05-24-16:42:28.138406,3.0,5.0,345.0
2023-05-24-16:42:28.139410,4.0,4.0,345.0
2023-05-24-16:42:28.140419,2.0,5.0,345.0
2023-05-24-16:42:28.141402,5.0,4.0,345.0
2023-05-24-16:42:28.142343,5.0,4.0,345.0
2023-05-24-16:42:28.143413,5.0,4.0,345.0
2023-05-24-16:42:28.144407,8.0,3.0,344.0
2023-05-24-16:42:28.145399,6.0,4.0,344.0
2023-05-24-16:42:28.146400,6.0,4.0,344.0
2023-05-24-16:42:28.147400,6.0,4.0,344.0
2023-05-24-16:42:28.148413,5.0,4.0,344.0
2023-05-24-16:42:28.149413,1.0,7.0,344.0
2023-05-24-16:42:28.150402,1.0,7.0,344.0
2023-05-24-16:42:28.151413,1.0,7.0,344.0
2023-05-24-16:42:28.152401,6.0,3.0,343.0
2023-05-24-16:42:28.153399,6.0,3.0,343.0
2023-05-24-16:42:28.154377,6.0,3.0,343.0
2023-05-24-16:42:28.155393,6.0,3.0,343.0
2023-05-24-16:42:28.156384,5.0,5.0,343.0
2023-05-24-16:42:28.157391,6.0,3.0,343.0
2023-05-24-16:42:28.158392,8.0,6.0,343.0
2023-05-24-16:42:28.159341,8.0,6.0,343.0
2023-05-24-16:42:28.160351,4.0,5.0,344.0
2023-05-24-16:42:28.161378,7.0,5.0,343.0
2023-05-24-16:42:28.162377,7.0,5.0,343.0
2023-05-24-16:42:28.163385,7.0,5.0,343.0
2023-05-24-16:42:28.164393,6.0,3.0,343.0
2023-05-24-16:42:28.165394,6.0,3.0,343.0
2023-05-24-16:42:28.166378,6.0,3.0,343.0
2023-05-24-16:42:28.167382,7.0,3.0,343.0
2023-05-24-16:42:28.168380,4.0,1.0,343.0
2023-05-24-16:42:28.169391,4.0,2.0,343.0
2023-05-24-16:42:28.170383,4.0,2.0,343.0
2023-05-24-16:42:28.172376,4.0,2.0,343.0
2023-05-24-16:42:28.172376,7.0,7.0,343.0
2023-05-24-16:42:28.173389,7.0,7.0,343.0
2023-05-24-16:42:28.174391,7.0,7.0,343.0
2023-05-24-16:42:28.175390,7.0,7.0,343.0
2023-05-24-16:42:28.176390,5.0,5.0,343.0
2023-05-24-16:42:28.177379,4.0,4.0,343.0
2023-05-24-16:42:28.178379,4.0,4.0,343.0
2023-05-24-16:42:28.179395,4.0,4.0,343.0
2023-05-24-16:42:28.180392,4.0,3.0,343.0
2023-05-24-16:42:28.181390,5.0,0.0,343.0
2023-05-24-16:42:28.182390,5.0,0.0,343.0
2023-05-24-16:42:28.183377,5.0,0.0,343.0
2023-05-24-16:42:28.184388,5.0,0.0,343.0
2023-05-24-16:42:28.185433,4.0,2.0,343.0
2023-05-24-16:42:28.186385,5.0,1.0,343.0
2023-05-24-16:42:28.187393,5.0,1.0,343.0
2023-05-24-16:42:28.188383,6.0,3.0,343.0
2023-05-24-16:42:28.189416,6.0,10.0,343.0
2023-05-24-16:42:28.190412,6.0,10.0,343.0
2023-05-24-16:42:28.191410,6.0,10.0,343.0
2023-05-24-16:42:28.192393,6.0,10.0,343.0
2023-05-24-16:42:28.194401,4.0,9.0,343.0
2023-05-24-16:42:28.194401,5.0,4.0,343.0
2023-05-24-16:42:28.195400,5.0,4.0,343.0
2023-05-24-16:42:28.196405,5.0,4.0,343.0
2023-05-24-16:42:28.197400,5.0,1.0,343.0
2023-05-24-16:42:28.198415,6.0,1.0,343.0
2023-05-24-16:42:28.199392,4.0,5.0,343.0
2023-05-24-16:42:28.200414,4.0,5.0,343.0
2023-05-24-16:42:28.201428,5.0,6.0,343.0
2023-05-24-16:42:28.202399,7.0,2.0,343.0
2023-05-24-16:42:28.203408,4.0,1.0,344.0
2023-05-24-16:42:28.204414,4.0,3.0,343.0
2023-05-24-16:42:28.205414,3.0,6.0,343.0
2023-05-24-16:42:28.206406,3.0,5.0,343.0
2023-05-24-16:42:28.207407,5.0,4.0,343.0
2023-05-24-16:42:28.209343,5.0,4.0,343.0
2023-05-24-16:42:28.209343,6.0,4.0,343.0
2023-05-24-16:42:28.210409,6.0,4.0,343.0
2023-05-24-16:42:28.211412,6.0,4.0,343.0
2023-05-24-16:42:28.212356,6.0,4.0,343.0
2023-05-24-16:42:28.213348,3.0,6.0,343.0
2023-05-24-16:42:28.214377,6.0,3.0,343.0
2023-05-24-16:42:28.215376,7.0,1.0,343.0
2023-05-24-16:42:28.216396,7.0,1.0,343.0
2023-05-24-16:42:28.217385,6.0,3.0,343.0
2023-05-24-16:42:28.218380,4.0,7.0,343.0
2023-05-24-16:42:28.219393,0.0,5.0,343.0
2023-05-24-16:42:28.220379,4.0,4.0,343.0
2023-05-24-16:42:28.221391,4.0,1.0,343.0
2023-05-24-16:42:28.222389,6.0,1.0,343.0
2023-05-24-16:42:28.223352,5.0,2.0,343.0
2023-05-24-16:42:28.224413,5.0,2.0,343.0
2023-05-24-16:42:28.225387,5.0,5.0,343.0
2023-05-24-16:42:28.226341,6.0,4.0,343.0
2023-05-24-16:42:28.227395,5.0,3.0,343.0
2023-05-24-16:42:28.228397,5.0,3.0,343.0
2023-05-24-16:42:28.229397,5.0,3.0,343.0
2023-05-24-16:42:28.230398,6.0,6.0,343.0
2023-05-24-16:42:28.231378,5.0,4.0,343.0
2023-05-24-16:42:28.232381,4.0,4.0,343.0
2023-05-24-16:42:28.233390,4.0,2.0,343.0
2023-05-24-16:42:28.234385,4.0,2.0,343.0
2023-05-24-16:42:28.235392,4.0,2.0,343.0
2023-05-24-16:42:28.236381,4.0,4.0,343.0
2023-05-24-16:42:28.237388,4.0,1.0,343.0
2023-05-24-16:42:28.238394,7.0,4.0,343.0
2023-05-24-16:42:28.239386,7.0,4.0,343.0
2023-05-24-16:42:28.240397,7.0,4.0,343.0
2023-05-24-16:42:28.242341,7.0,4.0,343.0
2023-05-24-16:42:28.243401,4.0,5.0,343.0
2023-05-24-16:42:28.243401,3.0,7.0,343.0
2023-05-24-16:42:28.244400,3.0,7.0,343.0
2023-05-24-16:42:28.245412,3.0,7.0,343.0
2023-05-24-16:42:28.246404,2.0,7.0,343.0
2023-05-24-16:42:28.247408,6.0,2.0,343.0
2023-05-24-16:42:28.248417,5.0,5.0,343.0
2023-05-24-16:42:28.249400,5.0,5.0,343.0
2023-05-24-16:42:28.250398,3.0,6.0,343.0
2023-05-24-16:42:28.251407,5.0,2.0,343.0
2023-05-24-16:42:28.252408,5.0,0.0,343.0
2023-05-24-16:42:28.253410,5.0,0.0,343.0
2023-05-24-16:42:28.254405,5.0,4.0,343.0
2023-05-24-16:42:28.255416,4.0,2.0,343.0
2023-05-24-16:42:28.256412,3.0,2.0,343.0
2023-05-24-16:42:28.257405,3.0,2.0,343.0
2023-05-24-16:42:28.258413,4.0,4.0,343.0
2023-05-24-16:42:28.259448,5.0,2.0,343.0
2023-05-24-16:42:28.260343,5.0,2.0,343.0
2023-05-24-16:42:28.261423,5.0,2.0,343.0
2023-05-24-16:42:28.262404,5.0,4.0,343.0
2023-05-24-16:42:28.263407,5.0,5.0,343.0
2023-05-24-16:42:28.264341,5.0,3.0,343.0
2023-05-24-16:42:28.265447,5.0,3.0,343.0
2023-05-24-16:42:28.266419,5.0,2.0,343.0
2023-05-24-16:42:28.267413,2.0,2.0,343.0
2023-05-24-16:42:28.268397,5.0,4.0,343.0
2023-05-24-16:42:28.269404,5.0,4.0,343.0
2023-05-24-16:42:28.270409,5.0,4.0,343.0
2023-05-24-16:42:28.271412,3.0,4.0,343.0
2023-05-24-16:42:28.272417,5.0,4.0,343.0
2023-05-24-16:42:28.273411,5.0,4.0,343.0
2023-05-24-16:42:28.276342,2.0,6.0,343.0
2023-05-24-16:42:28.276342,6.0,3.0,343.0
2023-05-24-16:42:28.277385,6.0,3.0,343.0
2023-05-24-16:42:28.278399,6.0,3.0,343.0
2023-05-24-16:42:28.279413,5.0,4.0,343.0
2023-05-24-16:42:28.280420,4.0,5.0,343.0
2023-05-24-16:42:28.281409,4.0,5.0,343.0
2023-05-24-16:42:28.282423,4.0,5.0,343.0
2023-05-24-16:42:28.283416,2.0,6.0,343.0
2023-05-24-16:42:28.284410,8.0,1.0,343.0
2023-05-24-16:42:28.285412,8.0,1.0,343.0
2023-05-24-16:42:28.286414,8.0,1.0,343.0
2023-05-24-16:42:28.287408,6.0,4.0,343.0
2023-05-24-16:42:28.288407,2.0,6.0,343.0
