# 
# 
# 
# 
# 
# 
# 
# 
# 
# 
# time,realtime,ref,inp,dis,state...
0.000000000000000000e+00,1.643076702467520475e+09,0.000000000000000000e+00,-1.103669053491078467e+00,0.000000000000000000e+00,-6.781405438137655395e-01
1.666666666666666644e-02,1.643076702470558405e+09,0.000000000000000000e+00,-6.781405438137655395e-01,0.000000000000000000e+00,-6.781405438137655395e-01
3.333333333333333287e-02,1.643076702473551035e+09,0.000000000000000000e+00,-1.086661730725706709e+00,0.000000000000000000e+00,-1.086661730725706709e+00
5.000000000000000278e-02,1.643076702489462614e+09,0.000000000000000000e+00,-1.173002796570301376e+00,0.000000000000000000e+00,-1.173002796570301376e+00
6.666666666666666574e-02,1.643076702506565332e+09,0.000000000000000000e+00,-1.167277276542154629e+00,0.000000000000000000e+00,-1.167277276542154629e+00
8.333333333333332871e-02,1.643076702523521185e+09,0.000000000000000000e+00,-1.181393633073609006e+00,0.000000000000000000e+00,-1.181393633073609006e+00
1.000000000000000056e-01,1.643076702538481712e+09,0.000000000000000000e+00,-1.031199947402800632e+00,0.000000000000000000e+00,-1.031199947402800632e+00
1.166666666666666685e-01,1.643076702554738998e+09,0.000000000000000000e+00,-1.031199947402800632e+00,0.000000000000000000e+00,-1.031199947402800632e+00
1.333333333333333315e-01,1.643076702573659182e+09,0.000000000000000000e+00,-1.007162652591546914e+00,0.000000000000000000e+00,-1.007162652591546914e+00
1.499999999999999944e-01,1.643076702589639187e+09,0.000000000000000000e+00,-1.031199947402800632e+00,0.000000000000000000e+00,-1.031199947402800632e+00
1.666666666666666574e-01,1.643076702609032869e+09,0.000000000000000000e+00,-1.007162652591546914e+00,0.000000000000000000e+00,-1.007162652591546914e+00
1.833333333333333204e-01,1.643076702626986504e+09,0.000000000000000000e+00,-1.145961710645751142e+00,0.000000000000000000e+00,-1.145961710645751142e+00
2.000000000000000111e-01,1.643076702641944408e+09,0.000000000000000000e+00,-1.031199947402800632e+00,0.000000000000000000e+00,-1.031199947402800632e+00
2.166666666666666741e-01,1.643076702656875134e+09,0.000000000000000000e+00,-1.031199947402800632e+00,0.000000000000000000e+00,-1.031199947402800632e+00
2.333333333333333370e-01,1.643076702673859358e+09,0.000000000000000000e+00,-1.007162652591546914e+00,0.000000000000000000e+00,-1.007162652591546914e+00
2.500000000000000000e-01,1.643076702692313910e+09,0.000000000000000000e+00,-1.007162652591546914e+00,0.000000000000000000e+00,-1.007162652591546914e+00
2.666666666666666630e-01,1.643076702711816072e+09,0.000000000000000000e+00,-1.007162652591546914e+00,0.000000000000000000e+00,-1.007162652591546914e+00
2.833333333333333259e-01,1.643076702726191998e+09,0.000000000000000000e+00,-1.007162652591546914e+00,0.000000000000000000e+00,-1.007162652591546914e+00
2.999999999999999889e-01,1.643076702745887756e+09,0.000000000000000000e+00,-1.007162652591546914e+00,0.000000000000000000e+00,-1.007162652591546914e+00
3.166666666666666519e-01,1.643076702760856152e+09,0.000000000000000000e+00,-1.007162652591546914e+00,0.000000000000000000e+00,-1.007162652591546914e+00
3.333333333333333148e-01,1.643076702780422449e+09,0.000000000000000000e+00,-1.007162652591546914e+00,0.000000000000000000e+00,-1.007162652591546914e+00
3.499999999999999778e-01,1.643076702794392109e+09,0.000000000000000000e+00,-1.007162652591546914e+00,0.000000000000000000e+00,-1.007162652591546914e+00
3.666666666666666408e-01,1.643076702813328028e+09,0.000000000000000000e+00,-9.590880629690387016e-01,0.000000000000000000e+00,-9.590880629690387016e-01
3.833333333333333037e-01,1.643076702827571392e+09,0.000000000000000000e+00,-8.869761785352758832e-01,0.000000000000000000e+00,-8.869761785352758832e-01
4.000000000000000222e-01,1.643076702846139908e+09,0.000000000000000000e+00,-8.148642941015139529e-01,0.000000000000000000e+00,-8.148642941015139529e-01
4.166666666666666852e-01,1.643076702861102581e+09,0.000000000000000000e+00,-6.946778200452428109e-01,0.000000000000000000e+00,-6.946778200452428109e-01
4.333333333333333481e-01,1.643076702881048679e+09,0.000000000000000000e+00,-6.225659356114808807e-01,0.000000000000000000e+00,-6.225659356114808807e-01
4.500000000000000111e-01,1.643076702897038221e+09,0.000000000000000000e+00,-5.744913459889726681e-01,0.000000000000000000e+00,-5.744913459889726681e-01
4.666666666666666741e-01,1.643076702914175987e+09,0.000000000000000000e+00,-5.504540511777180622e-01,0.000000000000000000e+00,-5.504540511777180622e-01
4.833333333333333370e-01,1.643076702928473949e+09,0.000000000000000000e+00,-5.504540511777180622e-01,0.000000000000000000e+00,-5.504540511777180622e-01
5.000000000000000000e-01,1.643076702946961880e+09,0.000000000000000000e+00,-5.264167563664644556e-01,0.000000000000000000e+00,-5.264167563664644556e-01
5.166666666666666075e-01,1.643076702964169979e+09,0.000000000000000000e+00,-4.783421667439561875e-01,0.000000000000000000e+00,-4.783421667439561875e-01
5.333333333333333259e-01,1.643076702980141401e+09,0.000000000000000000e+00,-4.543048719327025253e-01,0.000000000000000000e+00,-4.543048719327025253e-01
5.500000000000000444e-01,1.643076702998084784e+09,0.000000000000000000e+00,-3.581556926876860447e-01,0.000000000000000000e+00,-3.581556926876860447e-01
5.666666666666666519e-01,1.643076703012429476e+09,0.000000000000000000e+00,-2.860438082539232263e-01,0.000000000000000000e+00,-2.860438082539232263e-01
5.833333333333333703e-01,1.643076703031928301e+09,0.000000000000000000e+00,-2.379692186314149582e-01,0.000000000000000000e+00,-2.379692186314149582e-01
5.999999999999999778e-01,1.643076703049250841e+09,0.000000000000000000e+00,-1.898946290089067179e-01,0.000000000000000000e+00,-1.898946290089067179e-01
6.166666666666666963e-01,1.643076703066206932e+09,0.000000000000000000e+00,-1.658573341976530557e-01,0.000000000000000000e+00,-1.658573341976530557e-01
6.333333333333333037e-01,1.643076703084180832e+09,0.000000000000000000e+00,-1.418200393863984776e-01,0.000000000000000000e+00,-1.418200393863984776e-01
6.500000000000000222e-01,1.643076703100142002e+09,0.000000000000000000e+00,-1.418200393863984776e-01,0.000000000000000000e+00,-1.418200393863984776e-01
6.666666666666666297e-01,1.643076703118088722e+09,0.000000000000000000e+00,-1.418200393863984776e-01,0.000000000000000000e+00,-1.418200393863984776e-01
6.833333333333333481e-01,1.643076703132043600e+09,0.000000000000000000e+00,-1.177827445751448016e-01,0.000000000000000000e+00,-1.177827445751448016e-01
6.999999999999999556e-01,1.643076703151400805e+09,0.000000000000000000e+00,-1.177827445751448016e-01,0.000000000000000000e+00,-1.177827445751448016e-01
7.166666666666666741e-01,1.643076703169085979e+09,0.000000000000000000e+00,-9.374544976389022344e-02,0.000000000000000000e+00,-9.374544976389022344e-02
7.333333333333332815e-01,1.643076703186388493e+09,0.000000000000000000e+00,-9.374544976389022344e-02,0.000000000000000000e+00,-9.374544976389022344e-02
7.500000000000000000e-01,1.643076703204332352e+09,0.000000000000000000e+00,-6.970815495263654737e-02,0.000000000000000000e+00,-6.970815495263654737e-02
7.666666666666666075e-01,1.643076703218654871e+09,0.000000000000000000e+00,-6.970815495263654737e-02,0.000000000000000000e+00,-6.970815495263654737e-02
7.833333333333333259e-01,1.643076703235657692e+09,0.000000000000000000e+00,-6.970815495263654737e-02,0.000000000000000000e+00,-6.970815495263654737e-02
8.000000000000000444e-01,1.643076703253292561e+09,0.000000000000000000e+00,-6.970815495263654737e-02,0.000000000000000000e+00,-6.970815495263654737e-02
8.166666666666666519e-01,1.643076703269148588e+09,0.000000000000000000e+00,-6.970815495263654737e-02,0.000000000000000000e+00,-6.970815495263654737e-02
8.333333333333333703e-01,1.643076703285832167e+09,0.000000000000000000e+00,-6.970815495263654737e-02,0.000000000000000000e+00,-6.970815495263654737e-02
8.499999999999999778e-01,1.643076703303774118e+09,0.000000000000000000e+00,-6.970815495263654737e-02,0.000000000000000000e+00,-6.970815495263654737e-02
8.666666666666666963e-01,1.643076703319730282e+09,0.000000000000000000e+00,-4.567086014138197619e-02,0.000000000000000000e+00,-4.567086014138197619e-02
8.833333333333333037e-01,1.643076703337116480e+09,0.000000000000000000e+00,1.510371746140696803e-01,0.000000000000000000e+00,1.510371746140696803e-01
9.000000000000000222e-01,1.643076703357360601e+09,0.000000000000000000e+00,-2.163356533012830360e-02,0.000000000000000000e+00,-2.163356533012830360e-02
9.166666666666666297e-01,1.643076703370376587e+09,0.000000000000000000e+00,2.403729481126268882e-03,0.000000000000000000e+00,2.403729481126268882e-03
9.333333333333333481e-01,1.643076703389321804e+09,0.000000000000000000e+00,-2.163356533012830360e-02,0.000000000000000000e+00,-2.163356533012830360e-02
9.499999999999999556e-01,1.643076703406543970e+09,0.000000000000000000e+00,2.403729481126268882e-03,0.000000000000000000e+00,2.403729481126268882e-03
9.666666666666666741e-01,1.643076703422873020e+09,0.000000000000000000e+00,2.403729481126268882e-03,0.000000000000000000e+00,2.403729481126268882e-03
9.833333333333332815e-01,1.643076703440225363e+09,0.000000000000000000e+00,2.403729481126268882e-03,0.000000000000000000e+00,2.403729481126268882e-03
1.000000000000000000e+00,1.643076703458205462e+09,0.000000000000000000e+00,2.403729481126268882e-03,0.000000000000000000e+00,2.403729481126268882e-03
1.016666666666666607e+00,1.643076703474161148e+09,0.000000000000000000e+00,2.403729481126268882e-03,0.000000000000000000e+00,2.403729481126268882e-03
1.033333333333333215e+00,1.643076703491116047e+09,0.000000000000000000e+00,2.403729481126268882e-03,0.000000000000000000e+00,2.403729481126268882e-03
1.050000000000000044e+00,1.643076703506453276e+09,0.000000000000000000e+00,-2.163356533012830360e-02,0.000000000000000000e+00,-2.163356533012830360e-02
1.066666666666666652e+00,1.643076703524406910e+09,0.000000000000000000e+00,2.403729481126268882e-03,0.000000000000000000e+00,2.403729481126268882e-03
1.083333333333333259e+00,1.643076703543874502e+09,0.000000000000000000e+00,2.403729481126268882e-03,0.000000000000000000e+00,2.403729481126268882e-03
1.100000000000000089e+00,1.643076703560959101e+09,0.000000000000000000e+00,2.403729481126268882e-03,0.000000000000000000e+00,2.403729481126268882e-03
1.116666666666666696e+00,1.643076703576501608e+09,0.000000000000000000e+00,-2.163356533012830360e-02,0.000000000000000000e+00,-2.163356533012830360e-02
1.133333333333333304e+00,1.643076703591893196e+09,0.000000000000000000e+00,-2.163356533012830360e-02,0.000000000000000000e+00,-2.163356533012830360e-02
1.149999999999999911e+00,1.643076703610553980e+09,0.000000000000000000e+00,-2.163356533012830360e-02,0.000000000000000000e+00,-2.163356533012830360e-02
1.166666666666666741e+00,1.643076703625771523e+09,0.000000000000000000e+00,2.403729481126268882e-03,0.000000000000000000e+00,2.403729481126268882e-03
1.183333333333333348e+00,1.643076703643655539e+09,0.000000000000000000e+00,-2.163356533012830360e-02,0.000000000000000000e+00,-2.163356533012830360e-02
1.199999999999999956e+00,1.643076703660210609e+09,0.000000000000000000e+00,2.403729481126268882e-03,0.000000000000000000e+00,2.403729481126268882e-03
1.216666666666666563e+00,1.643076703676382780e+09,0.000000000000000000e+00,2.403729481126268882e-03,0.000000000000000000e+00,2.403729481126268882e-03
1.233333333333333393e+00,1.643076703694615602e+09,0.000000000000000000e+00,2.403729481126268882e-03,0.000000000000000000e+00,2.403729481126268882e-03
1.250000000000000000e+00,1.643076703711583853e+09,0.000000000000000000e+00,2.403729481126268882e-03,0.000000000000000000e+00,2.403729481126268882e-03
1.266666666666666607e+00,1.643076703725774050e+09,0.000000000000000000e+00,2.403729481126268882e-03,0.000000000000000000e+00,2.403729481126268882e-03
1.283333333333333215e+00,1.643076703741510868e+09,0.000000000000000000e+00,2.403729481126268882e-03,0.000000000000000000e+00,2.403729481126268882e-03
1.300000000000000044e+00,1.643076703760771513e+09,0.000000000000000000e+00,-2.163356533012830360e-02,0.000000000000000000e+00,-2.163356533012830360e-02
1.316666666666666652e+00,1.643076703777726412e+09,0.000000000000000000e+00,2.403729481126268882e-03,0.000000000000000000e+00,2.403729481126268882e-03
1.333333333333333259e+00,1.643076703793460369e+09,0.000000000000000000e+00,2.403729481126268882e-03,0.000000000000000000e+00,2.403729481126268882e-03
1.350000000000000089e+00,1.643076703809728861e+09,0.000000000000000000e+00,2.403729481126268882e-03,0.000000000000000000e+00,2.403729481126268882e-03
1.366666666666666696e+00,1.643076703827955961e+09,0.000000000000000000e+00,-2.163356533012830360e-02,0.000000000000000000e+00,-2.163356533012830360e-02
1.383333333333333304e+00,1.643076703841331244e+09,0.000000000000000000e+00,-2.163356533012830360e-02,0.000000000000000000e+00,-2.163356533012830360e-02
1.399999999999999911e+00,1.643076703859892607e+09,0.000000000000000000e+00,2.403729481126268882e-03,0.000000000000000000e+00,2.403729481126268882e-03
1.416666666666666741e+00,1.643076703877297640e+09,0.000000000000000000e+00,-2.163356533012830360e-02,0.000000000000000000e+00,-2.163356533012830360e-02
1.433333333333333348e+00,1.643076703893305540e+09,0.000000000000000000e+00,2.403729481126268882e-03,0.000000000000000000e+00,2.403729481126268882e-03
1.449999999999999956e+00,1.643076703911660671e+09,0.000000000000000000e+00,2.403729481126268882e-03,0.000000000000000000e+00,2.403729481126268882e-03
1.466666666666666563e+00,1.643076703925622702e+09,0.000000000000000000e+00,2.403729481126268882e-03,0.000000000000000000e+00,2.403729481126268882e-03
1.483333333333333393e+00,1.643076703944322109e+09,0.000000000000000000e+00,2.403729481126268882e-03,0.000000000000000000e+00,2.403729481126268882e-03
1.500000000000000000e+00,1.643076703959281206e+09,0.000000000000000000e+00,2.403729481126268882e-03,0.000000000000000000e+00,2.403729481126268882e-03
1.516666666666666607e+00,1.643076703977717638e+09,0.000000000000000000e+00,-2.163356533012830360e-02,0.000000000000000000e+00,-2.163356533012830360e-02
1.533333333333333215e+00,1.643076703995065689e+09,0.000000000000000000e+00,2.403729481126268882e-03,0.000000000000000000e+00,2.403729481126268882e-03
