# 
# 
# 
# 
# 
# 
# 
# 
# 
# 
# time,realtime,ref,inp,inp0,inp1,dis,state...
0.000000000000000000e+00,1.643851785713665485e+09,-0.000000000000000000e+00,-1.177827445751448016e-01,0.000000000000000000e+00,-1.570436594335263836e-01,-0.000000000000000000e+00,0.000000000000000000e+00,0.000000000000000000e+00
1.666666666666666644e-02,1.643851785717653513e+09,-1.989867912377870993e-06,-1.177827445751448016e-01,0.000000000000000000e+00,-1.570436594335263836e-01,0.000000000000000000e+00,-1.626821145091562247e-05,-1.946777531468164412e-03
3.333333333333333287e-02,1.643851785718625784e+09,-7.919757644119849289e-06,-1.177827445751448016e-01,0.000000000000000000e+00,-1.570436594335263836e-01,-1.142399897115739989e-05,-6.471540309737316813e-05,-3.861566482723639143e-03
5.000000000000000278e-02,1.643851785737958670e+09,-1.774150828134864571e-05,-1.177827445751448016e-01,0.000000000000000000e+00,-1.570436594335263836e-01,-4.964693619178685242e-05,-1.448165516972110855e-04,-5.745338525979411075e-03
6.666666666666666574e-02,1.643851785755904675e+09,-3.142211321506751403e-05,-1.177827445751448016e-01,0.000000000000000000e+00,-1.570436594335263836e-01,-1.197429639344158416e-04,-2.560633951817437785e-04,-7.599133141479532186e-03
8.333333333333332871e-02,1.643851785770845890e+09,-4.894283042971107336e-05,-1.177827445751448016e-01,0.000000000000000000e+00,-1.570436594335263836e-01,-2.255844649751789386e-04,-3.979653874349310498e-04,-9.424036633228344978e-03
1.000000000000000056e-01,1.643851785788884401e+09,-7.029733303044807542e-05,-1.177827445751448016e-01,0.000000000000000000e+00,-1.570436594335263836e-01,-3.697820664146926248e-04,-5.700502979477385353e-04,-1.122116050007486258e-02
1.166666666666666685e-01,1.643851785805587530e+09,-9.548894126235435941e-05,-1.177827445751448016e-01,0.000000000000000000e+00,-1.570436594335263836e-01,-5.536514604261689272e-04,-7.718644493952325422e-04,-1.299161961588688428e-02
1.333333333333333315e-01,1.643851785822701693e+09,-1.245269981336508114e-04,-1.177827445751448016e-01,0.000000000000000000e+00,-1.570436594335263836e-01,-7.772074323097265649e-04,-1.002972593738827396e-03,-1.473651067166753190e-02
1.499999999999999944e-01,1.643851785840700150e+09,-1.574224704600165367e-04,-1.177827445751448016e-01,0.000000000000000000e+00,-1.570436594335263836e-01,-1.039185079917799570e-03,-1.262957434938898581e-03,-1.645689132471850336e-02
1.666666666666666574e-01,1.643851785858652353e+09,-1.941828753553875592e-04,-1.177827445751448016e-01,0.000000000000000000e+00,-1.570436594335263836e-01,-1.337087792630724118e-03,-1.551418813660257598e-03,-1.815376048546006940e-02
1.833333333333333204e-01,1.643851785873703957e+09,-2.348066485878080823e-04,-1.177827445751448016e-01,0.000000000000000000e+00,-1.570436594335263836e-01,-1.667261147978655982e-03,-1.867972576354059826e-03,-1.982804015148499285e-02
2.000000000000000111e-01,1.643851785891524076e+09,-2.792770855060088247e-04,-1.177827445751448016e-01,0.000000000000000000e+00,-1.570436594335263836e-01,-2.024991485035440488e-03,-2.212249157698040290e-03,-2.148055917114401539e-02
2.166666666666666741e-01,1.643851785907467842e+09,-3.275559971653221468e-04,-1.177827445751448016e-01,0.000000000000000000e+00,-1.570436594335263836e-01,-2.404627531033931131e-03,-2.583891911471550631e-03,-2.311203928580681660e-02
2.333333333333333370e-01,1.643851785924415350e+09,-3.795772336186243115e-04,-1.177827445751448016e-01,0.000000000000000000e+00,-1.570436594335263836e-01,-2.799723096264408826e-03,-2.982555230438552803e-03,-2.472308376136330213e-02
2.500000000000000000e-01,1.643851785942389488e+09,-4.352402329076522983e-04,-1.177827445751448016e-01,0.000000000000000000e+00,-1.570436594335263836e-01,-3.203198516965046275e-03,-3.407902500624430779e-03,-2.631416887604592220e-02
2.666666666666666630e-01,1.643851785957449198e+09,-4.944037579536243732e-04,-1.177827445751448016e-01,0.000000000000000000e+00,-1.570436594335263836e-01,-3.607518221039401288e-03,-3.859603939424344383e-03,-2.788563848384907964e-02
2.833333333333333259e-01,1.643851785973800898e+09,-5.568799842102069644e-04,-1.177827445751448016e-01,0.000000000000000000e+00,-1.570436594335263836e-01,-4.004881521128511070e-03,-4.337334370205244045e-03,-2.943770182133940289e-02
2.999999999999999889e-01,1.643851785992436409e+09,-6.224290985600258903e-04,-1.177827445751448016e-01,0.000000000000000000e+00,-1.570436594335263836e-01,-4.387423507506875604e-03,-4.840770988405075984e-03,-3.097043467118376636e-02
3.166666666666666519e-01,1.643851786008761406e+09,-6.907545645096665717e-04,-1.177827445751448016e-01,0.000000000000000000e+00,-1.570436594335263836e-01,-4.747422722695717780e-03,-5.369591175547534789e-03,-3.248378393900531319e-02
3.333333333333333148e-01,1.643851786027691603e+09,-7.614992003170007340e-04,-1.177827445751448016e-01,0.000000000000000000e+00,-1.570436594335263836e-01,-5.077512153337414985e-03,-5.923470418047895904e-03,-3.397757564197965291e-02
3.499999999999999778e-01,1.643851786044625998e+09,-8.342422053665276161e-04,-1.418200393863984776e-01,0.000000000000000000e+00,-1.890933858485313035e-01,-5.370889974972114546e-03,-6.505400430320148163e-03,-3.584882778573024453e-02
3.666666666666666408e-01,1.643851786063029766e+09,-9.084972560374106462e-04,-1.177827445751448016e-01,0.000000000000000000e+00,-1.570436594335263836e-01,-5.621526433570232621e-03,-7.114974094921254488e-03,-3.729599197127438787e-02
3.833333333333333037e-01,1.643851786079006672e+09,-9.837117756747574583e-04,-1.177827445751448016e-01,0.000000000000000000e+00,-1.570436594335263836e-01,-5.824363245096420526e-03,-7.748495295496980392e-03,-3.872258923436935202e-02
4.000000000000000222e-01,1.643851786093944788e+09,-1.059267464309483894e-03,-1.177827445751448016e-01,0.000000000000000000e+00,-1.570436594335263836e-01,-5.975501941515424034e-03,-8.405616950150643363e-03,-4.012810502166002519e-02
4.166666666666666852e-01,1.643851786111192942e+09,-1.134482152747787100e-03,-1.177827445751448016e-01,0.000000000000000000e+00,-1.570436594335263836e-01,-6.072377688401580861e-03,-9.085983117910463244e-03,-4.151199089162597999e-02
4.333333333333333481e-01,1.643851786127150536e+09,-1.208613022875802039e-03,-1.418200393863984776e-01,0.000000000000000000e+00,-1.890933858485313035e-01,-6.113915244981819701e-03,-9.792548687504124688e-03,-4.327099123255532392e-02
4.500000000000000111e-01,1.643851786145480394e+09,-1.280861211838269257e-03,-1.177827445751448016e-01,0.000000000000000000e+00,-1.570436594335263836e-01,-6.100663930729369536e-03,-1.052486610201044427e-02,-4.460339729314690554e-02
4.666666666666666741e-01,1.643851786162412405e+09,-1.350377792519133697e-03,-1.177827445751448016e-01,0.000000000000000000e+00,-1.570436594335263836e-01,-6.034908701644199625e-03,-1.127919716945831839e-02,-4.591269378031218040e-02
4.833333333333333370e-01,1.643851786177845955e+09,-1.416271096866421331e-03,-1.177827445751448016e-01,0.000000000000000000e+00,-1.570436594335263836e-01,-5.920754721650396853e-03,-1.205515323733682975e-02,-4.719846270071358790e-02
5.000000000000000000e-01,1.643851786196006298e+09,-1.477615322469232571e-03,-1.177827445751448016e-01,0.000000000000000000e+00,-1.570436594335263836e-01,-5.764183137104529966e-03,-1.285233957043180157e-02,-4.846039182948944091e-02
5.166666666666666075e-01,1.643851786211891413e+09,-1.533460336828814134e-03,-1.177827445751448016e-01,0.000000000000000000e+00,-1.570436594335263836e-01,-5.573076121721472036e-03,-1.367035736159578213e-02,-4.969830438327323130e-02
5.333333333333333259e-01,1.643851786229592800e+09,-1.582842568390190052e-03,-1.177827445751448016e-01,0.000000000000000000e+00,-1.570436594335263836e-01,-5.357209651282699575e-03,-1.450880623197194075e-02,-5.091218808333752843e-02
5.500000000000000444e-01,1.643851786246668816e+09,-1.624796849036866820e-03,-1.177827445751448016e-01,0.000000000000000000e+00,-1.570436594335263836e-01,-5.128212887855462809e-03,-1.536728720597959653e-02,-5.210222306704654499e-02
5.666666666666666519e-01,1.643851786264664173e+09,-1.658369049813014640e-03,-1.177827445751448016e-01,0.000000000000000000e+00,-1.570436594335263836e-01,-4.899493497084960424e-03,-1.624540613732028405e-02,-5.326880810357635665e-02
5.833333333333333703e-01,1.643851786278298855e+09,-1.682629330525193959e-03,-1.177827445751448016e-01,0.000000000000000000e+00,-1.570436594335263836e-01,-4.686128684253556935e-03,-1.714277755324138466e-02,-5.441258457531189530e-02
5.999999999999999778e-01,1.643851786296355009e+09,-1.696685804970965612e-03,-1.418200393863984776e-01,0.000000000000000000e+00,-1.890933858485313035e-01,-4.504722209770036477e-03,-1.806234891858156388e-02,-5.593175923657452142e-02
6.166666666666666963e-01,1.643851786313536406e+09,-1.699698407200472047e-03,-1.418200393863984776e-01,0.000000000000000000e+00,-1.890933858485313035e-01,-4.373228126878286361e-03,-1.900701187041887660e-02,-5.742365074329182362e-02
6.333333333333333037e-01,1.643851786330484390e+09,-1.690892730764746938e-03,-1.177827445751448016e-01,0.000000000000000000e+00,-1.570436594335263836e-01,-4.310742467808515235e-03,-1.997300494619850056e-02,-5.849254911822808489e-02
6.500000000000000222e-01,1.643851786349673510e+09,-1.669573602630620686e-03,-9.374544976389022344e-02,0.000000000000000000e+00,-1.249939330185202979e-01,-4.337264583397837381e-03,-2.095334897821142517e-02,-5.914691699200329278e-02
6.666666666666666297e-01,1.643851786365636587e+09,-1.635138146595866695e-03,-1.177827445751448016e-01,0.000000000000000000e+00,-1.570436594335263836e-01,-4.473430309401885650e-03,-2.194784761026796760e-02,-6.019002127468919827e-02
6.833333333333333481e-01,1.643851786380904675e+09,-1.587088087822897129e-03,-1.177827445751448016e-01,0.000000000000000000e+00,-1.570436594335263836e-01,-4.740219584373272371e-03,-2.295962408868638255e-02,-6.122029419892941610e-02
6.999999999999999556e-01,1.643851786397838593e+09,-1.525041050681369241e-03,-1.177827445751448016e-01,0.000000000000000000e+00,-1.570436594335263836e-01,-5.158641573261929514e-03,-2.398848727335231579e-02,-6.224045411673692629e-02
7.166666666666666741e-01,1.643851786414131880e+09,-1.448740606551963614e-03,-1.177827445751448016e-01,0.000000000000000000e+00,-1.570436594335263836e-01,-5.749400752139050691e-03,-2.503429381427071942e-02,-6.325351666460658773e-02
7.333333333333332815e-01,1.643851786432764292e+09,-1.358064836645745494e-03,-1.177827445751448016e-01,0.000000000000000000e+00,-1.570436594335263836e-01,-6.532547777239287347e-03,-2.609695297494022542e-02,-6.426277904314348088e-02
7.500000000000000000e-01,1.643851786449707985e+09,-1.253033187229214522e-03,-1.418200393863984776e-01,0.000000000000000000e+00,-1.890933858485313035e-01,-7.527119290738202260e-03,-2.717975118929565059e-02,-6.566910014007366903e-02
7.666666666666666075e-01,1.643851786467925787e+09,-1.133811410850792166e-03,-1.177827445751448016e-01,0.000000000000000000e+00,-1.570436594335263836e-01,-8.750771101580177500e-03,-2.828264281507372399e-02,-6.667510044224100874e-02
7.833333333333333259e-01,1.643851786484880924e+09,-1.000714407120929187e-03,-1.177827445751448016e-01,0.000000000000000000e+00,-1.570436594335263836e-01,-1.021940941791631315e-02,-2.940236501234794533e-02,-6.768874747818447168e-02
8.000000000000000444e-01,1.643851786499464273e+09,-8.542068001269865173e-04,-1.177827445751448016e-01,0.000000000000000000e+00,-1.570436594335263836e-01,-1.194682499444956782e-02,-3.053907991295486818e-02,-6.871419207040412036e-02
8.166666666666666519e-01,1.643851786517844915e+09,-6.949011164345915079e-04,-9.374544976389022344e-02,0.000000000000000000e+00,-1.249939330185202979e-01,-1.394433518989019426e-02,-3.168969977579835090e-02,-6.935840195679031372e-02
8.333333333333333703e-01,1.643851786535422802e+09,-5.235534575538337496e-04,-1.177827445751448016e-01,0.000000000000000000e+00,-1.570436594335263836e-01,-1.622043900404393502e-02,-3.285460191123842910e-02,-7.042688621433672302e-02
8.499999999999999778e-01,1.643851786551641703e+09,-3.410565933961645169e-04,-1.177827445751448016e-01,0.000000000000000000e+00,-1.570436594335263836e-01,-1.878049017864753811e-02,-3.403751813360444273e-02,-7.152002390453390812e-02
8.666666666666666963e-01,1.643851786569036484e+09,-1.484304382337210270e-04,-1.177827445751448016e-01,0.000000000000000000e+00,-1.570436594335263836e-01,-2.162639339942634339e-02,-3.523889541032340644e-02,-7.264213226072446794e-02
8.833333333333333037e-01,1.643851786586602211e+09,5.319009242649099141e-05,-1.177827445751448016e-01,0.000000000000000000e+00,-1.570436594335263836e-01,-2.475632852815729326e-02,-3.645925181501455392e-02,-7.379742707442168981e-02
9.000000000000000222e-01,1.643851786603839874e+09,2.625698072891397656e-04,-1.177827445751448016e-01,0.000000000000000000e+00,-1.570436594335263836e-01,-2.816450762262243113e-02,-3.769917430276830544e-02,-7.498995878996406184e-02
9.166666666666666297e-01,1.643851786618438005e+09,4.783904709617854451e-04,-9.374544976389022344e-02,0.000000000000000000e+00,-1.249939330185202979e-01,-3.184096926980914399e-02,-3.895599535760274623e-02,-7.582624471902460472e-02
9.333333333333333481e-01,1.643851786636483431e+09,6.992704260665752415e-04,-1.177827445751448016e-01,0.000000000000000000e+00,-1.570436594335263836e-01,-3.577141446480660431e-02,-4.023050192122981650e-02,-7.711097413939671519e-02
9.499999999999999556e-01,1.643851786651709318e+09,9.237864503002698449e-04,-1.177827445751448016e-01,0.000000000000000000e+00,-1.570436594335263836e-01,-3.993708791654358020e-02,-4.152681855929021143e-02,-7.844332137619779155e-02
9.666666666666666741e-01,1.643851786669700384e+09,1.150497653976715554e-03,-1.177827445751448016e-01,0.000000000000000000e+00,-1.570436594335263836e-01,-4.431470825445901762e-02,-4.284576159927085126e-02,-7.982600255004387857e-02
9.833333333333332815e-01,1.643851786685042858e+09,1.377971185803995207e-03,-1.177827445751448016e-01,0.000000000000000000e+00,-1.570436594335263836e-01,-4.887645015075064991e-02,-4.418818841893550758e-02,-8.126122897581081195e-02
1.000000000000000000e+00,1.643851786703580379e+09,1.604809478634099161e-03,-1.177827445751448016e-01,0.000000000000000000e+00,-1.570436594335263836e-01,-5.358998086496338797e-02,-4.555498848005370971e-02,-8.275064100536107248e-02
1.016666666666666607e+00,1.643851786719517469e+09,1.829678733223149027e-03,-9.374544976389022344e-02,0.000000000000000000e+00,-1.249939330185202979e-01,-5.841855316599479930e-02,-4.694375323832734176e-02,-8.389794296258552830e-02
1.033333333333333215e+00,1.643851786739466429e+09,2.051338307186797473e-03,-1.177827445751448016e-01,0.000000000000000000e+00,-1.570436594335263836e-01,-6.332115599625257052e-02,-4.835547842307166833e-02,-8.550461612069781836e-02
1.050000000000000044e+00,1.643851786753447771e+09,2.268670648830854904e-03,-1.177827445751448016e-01,0.000000000000000000e+00,-1.570436594335263836e-01,-6.825272361943372779e-02,-4.979444072986707881e-02,-8.716624495047871346e-02
1.066666666666666652e+00,1.643851786768917561e+09,2.480711391861946998e-03,-1.177827445751448016e-01,0.000000000000000000e+00,-1.570436594335263836e-01,-7.316440334337365181e-02,-5.126154574914335016e-02,-8.888159239651108323e-02
1.083333333333333259e+00,1.643851786785009384e+09,2.686679207568657551e-03,-1.177827445751448016e-01,0.000000000000000000e+00,-1.570436594335263836e-01,-7.800388123924785477e-02,-5.275767139897674651e-02,-9.064857717691757188e-02
1.100000000000000089e+00,1.643851786802961111e+09,2.886004996305586382e-03,-1.177827445751448016e-01,0.000000000000000000e+00,-1.570436594335263836e-01,-8.271576459505128320e-02,-5.428365354601090431e-02,-9.246423684938667731e-02
1.116666666666666696e+00,1.643851786818562746e+09,3.078359990351384797e-03,-1.177827445751448016e-01,0.000000000000000000e+00,-1.570436594335263836e-01,-8.724201915198126489e-02,-5.584027107630416126e-02,-9.432469871454551846e-02
1.133333333333333304e+00,1.643851786836376190e+09,3.263682335731051421e-03,-1.177827445751448016e-01,0.000000000000000000e+00,-1.570436594335263836e-01,-9.152245848455436983e-02,-5.742823055284536349e-02,-9.622515928899930127e-02
1.149999999999999911e+00,1.643851786852630138e+09,3.442201721617364155e-03,-1.177827445751448016e-01,0.000000000000000000e+00,-1.570436594335263836e-01,-9.549528220660638556e-02,-5.904815060812612648e-02,-9.815987301341438931e-02
1.166666666666666741e+00,1.643851786870935678e+09,3.614461632613035109e-03,-1.177827445751448016e-01,0.000000000000000000e+00,-1.570436594335263836e-01,-9.909765902339510990e-02,-6.070054623060557736e-02,-1.001221507842439407e-01
1.183333333333333348e+00,1.643851786887890100e+09,3.781338811653106244e-03,-1.177827445751448016e-01,0.000000000000000000e+00,-1.570436594335263836e-01,-1.022663500124931790e-01,-6.238581311299452176e-02,-1.021043688116489573e-01
1.199999999999999956e+00,1.643851786904736757e+09,3.944059539472236607e-03,-1.177827445751448016e-01,0.000000000000000000e+00,-1.570436594335263836e-01,-1.049383669105438954e-01,-6.410421223787109157e-02,-1.040979882115338623e-01
1.216666666666666563e+00,1.643851786923884869e+09,4.104212360498210588e-03,-1.177827445751448016e-01,0.000000000000000000e+00,-1.570436594335263836e-01,-1.070516596166092710e-01,-6.585585488208250959e-02,-1.060935856371850172e-01
1.233333333333333393e+00,1.643851786940850496e+09,4.263756914528113451e-03,-1.177827445751448016e-01,0.000000000000000000e+00,-1.570436594335263836e-01,-1.085458266028450913e-01,-6.764068822556561222e-02,-1.080808951466684098e-01
1.250000000000000000e+00,1.643851786957770824e+09,4.425028568412996480e-03,-1.177827445751448016e-01,0.000000000000000000e+00,-1.570436594335263836e-01,-1.093628414563285883e-01,-6.945848175252494761e-02,-1.100488613869003013e-01
1.266666666666666607e+00,1.643851786976124525e+09,4.590738581937476095e-03,-1.177827445751448016e-01,0.000000000000000000e+00,-1.570436594335263836e-01,-1.094477883683637742e-01,-7.130881463325229597e-02,-1.119857040552314220e-01
1.283333333333333215e+00,1.643851786993105412e+09,4.763969586785828103e-03,-1.177827445751448016e-01,0.000000000000000000e+00,-1.570436594335263836e-01,-1.087495990453109379e-01,-7.319106427318504415e-02,-1.138789934756396088e-01
1.300000000000000044e+00,1.643851787008073568e+09,4.948166206509855593e-03,-1.177827445751448016e-01,0.000000000000000000e+00,-1.570436594335263836e-01,-1.072217832431982681e-01,-7.510439621203089666e-02,-1.157157370004328056e-01
1.316666666666666652e+00,1.643851787024022341e+09,5.147120698275423414e-03,-1.177827445751448016e-01,0.000000000000000000e+00,-1.570436594335263836e-01,-1.048231449316914116e-01,-7.704775554990406228e-02,-1.174824758210069042e-01
1.333333333333333259e+00,1.643851787041972637e+09,5.364953553313736405e-03,-1.177827445751448016e-01,0.000000000000000000e+00,-1.570436594335263836e-01,-1.015184759753768040e-01,-7.901986006941416618e-02,-1.191653916440054833e-01
1.350000000000000089e+00,1.643851787059900761e+09,5.606089051842358395e-03,-1.177827445751448016e-01,0.000000000000000000e+00,-1.570436594335263836e-01,-9.727921918493460940e-02,-8.101919521253789225e-02,-1.207504225635497447e-01
1.366666666666666696e+00,1.643851787075858593e+09,5.875225829096776022e-03,-1.177827445751448016e-01,0.000000000000000000e+00,-1.570436594335263836e-01,-9.208409264006214845e-02,-8.304401105892193768e-02,-1.222233873374191510e-01
1.383333333333333304e+00,1.643851787093810081e+09,6.177302571337243108e-03,-1.177827445751448016e-01,0.000000000000000000e+00,-1.570436594335263836e-01,-8.591966732152563069e-02,-8.509232143807339555e-02,-1.235701171565455336e-01
1.399999999999999911e+00,1.643851787111762762e+09,6.517459023537463397e-03,-1.177827445751448016e-01,0.000000000000000000e+00,-1.570436594335263836e-01,-7.878089031218968308e-02,-8.716190529177313129e-02,-1.247765938843013733e-01
1.416666666666666741e+00,1.643851787126723051e+09,6.900992553175385597e-03,-1.177827445751448016e-01,0.000000000000000000e+00,-1.570436594335263836e-01,-7.067154613613670089e-02,-8.925031038510389259e-02,-1.258290936361586287e-01
1.433333333333333348e+00,1.643851787143701315e+09,7.333310576356729706e-03,2.046828133938857416e-02,5.530041036581334613e-01,-1.570436594335263836e-01,-6.160464919997622746e-02,-9.133576414416318123e-02,-1.244292460081091317e-01
1.449999999999999956e+00,1.643851787161629915e+09,7.819879212637719998e-03,1.009986149068716615e-01,7.789762586830475399e-01,-1.249939330185202979e-01,-5.160276077918824617e-02,-9.338557610140052478e-02,-1.215561698154103976e-01
1.466666666666666563e+00,1.643851787179580927e+09,8.366168592593151848e-03,8.825992784686281789e-02,8.241706896880304223e-01,-1.570436594335263836e-01,-4.069822455197593530e-02,-9.538815361997175779e-02,-1.187608972419243875e-01
1.483333333333333393e+00,1.643851787196536303e+09,8.977595296640539929e-03,8.524696577986400070e-02,8.121188414200352090e-01,-1.570436594335263836e-01,-2.893331531987480831e-02,-9.734332052345141817e-02,-1.158671694974449107e-01
1.500000000000000000e+00,1.643851787211495399e+09,9.659462454130100448e-03,1.854279545075757651e-01,1.212842796330882322e+00,-1.570436594335263836e-01,-1.636029626363007250e-02,-9.923508467449358716e-02,-1.111576110423369845e-01
1.516666666666666607e+00,1.643851787229474783e+09,1.041689807753314045e-02,2.336353475795574786e-01,1.405672368618809065e+00,-1.570436594335263836e-01,-3.041380859176399509e-03,-1.010405086267544272e-01,-1.055089543114031275e-01
1.533333333333333215e+00,1.643851787248442888e+09,1.125479224703113644e-02,3.458681845752649697e-01,1.854603716601638919e+00,-1.570436594335263836e-01,1.095140358434164816e-02,-1.027351341496364201e-01,-9.786733565252768441e-02
1.550000000000000044e+00,1.643851787263404846e+09,1.217773379529522165e-02,5.319185922124439747e-01,2.598805347150355161e+00,-1.570436594335263836e-01,2.553645291168098186e-02,-1.042757429562920224e-01,-8.703580942713666502e-02
1.566666666666666652e+00,1.643851787279362202e+09,1.318994717018429595e-02,5.108278577434520740e-01,2.514442409274387114e+00,-1.570436594335263836e-01,4.062292484394314229e-02,-1.056381516934021686e-01,-7.648255431356992817e-02
1.583333333333333259e+00,1.643851787297266245e+09,1.429523017397026259e-02,5.319185922124439747e-01,2.598805347150355161e+00,-1.570436594335263836e-01,5.611117967181913219e-02,-1.068210781578947111e-01,-6.549913165100633428e-02
1.600000000000000089e+00,1.643851787313248158e+09,1.549689329108983743e-02,5.966972766529193839e-01,2.857920084912256797e+00,-1.570436594335263836e-01,7.189332215149936423e-02,-1.078113375122180112e-01,-5.336569564994271542e-02
1.616666666666666696e+00,1.643851787331202030e+09,1.679770132196987259e-02,6.140218085381629054e-01,2.927218212453230883e+00,-1.570436594335263836e-01,8.785384281198453660e-02,-1.085964514613590587e-01,-4.088265417829921311e-02
1.633333333333333304e+00,1.643851787348154545e+09,1.819981803790754124e-02,5.876583904519226964e-01,2.821764540108270047e+00,-1.570436594335263836e-01,1.038703558496494178e-01,-1.091766680029109121e-01,-2.877695853172116194e-02
1.649999999999999911e+00,1.643851787365109682e+09,1.970475456112998763e-02,6.162815300884120218e-01,2.936257098654227349e+00,-1.570436594335263836e-01,1.198144297533072222e-01,-1.095506393493042990e-01,-1.613472118796577953e-02
1.666666666666666741e+00,1.643851787382065296e+09,2.131332215492496782e-02,5.725935801169285133e-01,2.761505298768293315e+00,-1.570436594335263836e-01,1.355525057809748024e-01,-1.097195133426337732e-01,-4.163412429671253454e-03
1.683333333333333348e+00,1.643851787400018454e+09,2.302559008113658559e-02,6.538771542011614368e-01,2.990490415860206586e+00,-1.249939330185202979e-01,1.509468984084321730e-01,-1.096771657974622977e-01,9.207974235317164038e-03
1.699999999999999956e+00,1.643851787415975809e+09,2.484084914647071568e-02,5.378781146217054276e-01,2.526494257542382549e+00,-1.249939330185202979e-01,1.658568708998545138e-01,-1.094277711428591898e-01,2.068749600607338451e-02
1.716666666666666563e+00,1.643851787436893940e+09,2.675758151516238054e-02,-1.380519362732347474e-02,2.050446250956563965e+00,-7.018890084886192371e-01,1.801397782226183131e-01,-1.090628626942083262e-01,2.309483063401076425e-02
1.733333333333333393e+00,1.643851787506732941e+09,2.877343731393316312e-02,-6.768368066497340574e-02,1.258037227335865094e+00,-5.095906499985862759e-01,1.936522686518676595e-01,-1.086637398756115230e-01,2.479518428186220161e-02
1.750000000000000000e+00,1.643851787664337397e+09,3.088521849621755910e-02,7.366008075941562483e-01,3.129086670942152537e+00,-6.089448018850930622e-02,2.062515345954728241e-01,-1.081236842915128532e-01,3.996933440092402534e-02
1.766666666666666607e+00,1.643851787665281534e+09,3.308887036686657124e-02,-5.070402450725133292e-01,-1.845477539724525551e+00,-6.089448018850930622e-02,2.177966024259024858e-01,-1.075029997788217173e-01,3.452792251078937169e-02
1.783333333333333215e+00,1.643851787682271719e+09,3.537948109653283463e-02,-4.604081400150625836e-01,-1.851247477984755418e+00,3.204972641501691987e-03,2.281496504412748316e-01,-1.069643830759977460e-01,3.011833098173560819e-02
1.800000000000000044e+00,1.643851787702209949e+09,3.775128947739033597e-02,-3.452580181173797169e-01,-1.582945348884053249e+00,6.730442547151148369e-02,2.371773435016486520e-01,-1.064814990085792695e-01,2.783410233738827649e-02
1.816666666666666652e+00,1.643851787718165874e+09,4.019770108949238807e-02,-3.084746617084123677e-01,-1.435811923248184074e+00,6.730442547151148369e-02,2.447521724061874904e-01,-1.060302431450775018e-01,2.632080498551608860e-02
1.833333333333333259e+00,1.643851787734146357e+09,4.271131296075925121e-02,3.619746638706011765e-01,1.245985379067870102e+00,6.730442547151148369e-02,2.507537856988975022e-01,-1.055105681455150990e-01,3.601327081211200265e-02
1.849999999999999867e+00,1.643851787750103712e+09,4.528394671420041956e-02,3.928575250573393962e-01,1.369516823814822981e+00,6.730442547151148369e-02,2.550703013213032055e-01,-1.048258290215706434e-01,4.612732879447825618e-02
1.866666666666666696e+00,1.643851787768054724e+09,4.790669010446956672e-02,3.996366897080867453e-01,1.396633482417812600e+00,6.730442547151148369e-02,2.575995853746230191e-01,-1.039726335357422510e-01,5.622807122669502139e-02
1.883333333333333304e+00,1.643851787785015583e+09,5.056994675320485716e-02,3.860783604065919916e-01,1.342400165211833363e+00,6.730442547151148369e-02,2.582504852159042130e-01,-1.029542702428924428e-01,6.594852202755348280e-02
1.899999999999999911e+00,1.643851787802965403e+09,5.326349379986069360e-02,4.244936267608273583e-01,1.496061230628774830e+00,6.730442547151148369e-02,2.569440041950699638e-01,-1.017701165462633617e-01,7.612166218018937003e-02
1.916666666666666741e+00,1.643851787818207979e+09,5.597654709292822217e-02,4.003899302248364878e-01,1.399646444484811569e+00,6.730442547151148369e-02,2.536144055449093271e-01,-1.004216047333705425e-01,8.567322263012563943e-02
1.933333333333333348e+00,1.643851787836461782e+09,5.869783345663372870e-02,4.229871457273279289e-01,1.490035306494777334e+00,6.730442547151148369e-02,2.482102332643885412e-01,-9.891284480089876374e-02,9.535108568084912917e-02
1.949999999999999956e+00,1.643851787851579189e+09,6.141566948145652655e-02,4.207274241770787571e-01,1.480996420293780647e+00,6.730442547151148369e-02,2.406952382869352314e-01,-9.724547395091258373e-02,1.047074258719298406e-01
1.966666666666666563e+00,1.643851787870518923e+09,6.411804620415832712e-02,4.644153741485622100e-01,1.655748220179714458e+00,6.730442547151148369e-02,2.310491987978639805e-01,-9.541875451445569478e-02,1.144717826512467174e-01
1.983333333333333393e+00,1.643851787884890318e+09,6.679271896548939769e-02,4.252468672775770453e-01,1.499074192695773799e+00,6.730442547151148369e-02,2.192686242561868448e-01,-9.343768156872085673e-02,1.232326345644079446e-01
2.000000000000000000e+00,1.643851787906813860e+09,6.942730166231093902e-02,3.574552207701027773e-01,1.227907606665876727e+00,6.730442547151148369e-02,2.053673334816048801e-01,-9.132308794693080878e-02,1.304984168468130146e-01
2.016666666666666607e+00,1.643851787920773745e+09,7.200936454647370588e-02,3.280788406168639315e-01,1.110402086052921344e+00,6.730442547151148369e-02,1.893768980824194481e-01,-8.909466759444244210e-02,1.368942588059793575e-01
2.033333333333333215e+00,1.643851787936754465e+09,7.452653466629477474e-02,3.303385621671131589e-01,1.119440972253918254e+00,6.730442547151148369e-02,1.713469435181335654e-01,-8.676271146530349643e-02,1.429237277715945387e-01
2.049999999999999822e+00,1.643851787953715801e+09,7.696659799866785445e-02,3.137672707986194354e-01,1.053155806779943360e+00,6.730442547151148369e-02,1.513453012042124679e-01,-8.433614845184875253e-02,1.482490409581870006e-01
2.066666666666666430e+00,1.643851787970571756e+09,7.931760228143977520e-02,2.956894983966262824e-01,9.808447171719707480e-01,6.730442547151148369e-02,1.294580062674141330e-01,-8.182708574857422423e-02,1.528257699993131602e-01
2.083333333333333481e+00,1.643851787986728668e+09,8.156795952730760968e-02,2.693260803103863510e-01,8.753910448270109113e-01,6.730442547151148369e-02,1.057891368388272357e-01,-7.924928685256263372e-02,1.564998913891217924e-01
2.100000000000000089e+00,1.643851788004935503e+09,8.370654718264997074e-02,1.894825855349167032e-01,5.560170657251323201e-01,6.730442547151148369e-02,8.046049211794549516e-02,-7.662528649991896812e-02,1.583749423306924919e-01
2.116666666666666696e+00,1.643851788024907112e+09,8.572280688781355740e-02,1.879761045014173015e-01,5.499911415911347135e-01,6.730442547151148369e-02,5.361110784346154179e-02,-7.397421080748586841e-02,1.597503201773406989e-01
2.133333333333333304e+00,1.643851788042254210e+09,8.760683979971817248e-02,2.504950673916434556e-01,8.000669931520394407e-01,6.730442547151148369e-02,2.539660925318389106e-02,-7.129566396909037262e-02,1.616699679496923225e-01
2.149999999999999911e+00,1.643851788060596704e+09,8.934949745339294813e-02,2.407029406738971922e-01,7.608984862810542760e-01,6.730442547151148369e-02,-4.011596906152642590e-03,-6.859080251340067547e-02,1.629099622234650435e-01
2.166666666666666519e+00,1.643851788074558973e+09,9.094246716625398186e-02,3.107543087316206321e-01,1.041103958511948147e+00,6.730442547151148369e-02,-3.442728826147378740e-02,-6.585997125566604715e-02,1.647845813068995191e-01
2.183333333333333126e+00,1.643851788089986563e+09,9.237835102749356042e-02,3.273920018248513975e-01,1.203803910129885857e+00,3.525469905650659153e-02,-6.565054602869078992e-02,-6.310016983533457691e-02,1.663871374831707162e-01
2.200000000000000178e+00,1.643851788109274149e+09,9.365073756466030241e-02,4.734542603495586199e-01,1.691903764983700098e+00,6.730442547151148369e-02,-9.746902150802334852e-02,-6.029810108293869736e-02,1.698514893781337687e-01
2.216666666666666785e+00,1.643851788126842499e+09,9.475426524002110440e-02,4.644153741485622100e-01,1.655748220179714458e+00,6.730442547151148369e-02,-1.296593423363915087e-01,-5.744446622895286320e-02,1.725771217210174402e-01
2.233333333333333393e+00,1.643851788144793272e+09,9.568467700013741362e-02,5.081033241200455519e-01,1.830500020065647604e+00,6.730442547151148369e-02,-1.619886495407649729e-01,-5.454421177354488309e-02,1.754454451752641420e-01
2.250000000000000000e+00,1.643851788159967899e+09,9.643886518266328589e-02,6.256088447330007130e-01,2.300522102517468248e+00,6.730442547151148369e-02,-1.942162550541791377e-01,-5.158476947331473023e-02,1.796758793696810186e-01
2.266666666666666607e+00,1.643851788176253796e+09,9.701490617396167637e-02,6.708032757379835953e-01,2.481299826537399777e+00,6.730442547151148369e-02,-2.260954080387660436e-01,-4.855356513334864454e-02,1.840564728247018889e-01
2.283333333333333215e+00,1.643851788190399408e+09,9.741208430890965775e-02,7.657779825731845236e-01,2.957347833123218361e+00,3.525469905650659153e-02,-2.573751571210676214e-01,-4.544115837287256154e-02,1.894174464884277598e-01
2.299999999999999822e+00,1.643851788209576130e+09,9.763090460927884018e-02,8.319967463224222648e-01,3.126073708875154900e+00,6.730442547151148369e-02,-2.878022944970516361e-01,-4.223519895439811767e-02,1.952813946003761625e-01
2.316666666666666430e+00,1.643851788223517418e+09,9.767309406830639029e-02,7.596856567144497641e-01,2.836829350443264453e+00,6.730442547151148369e-02,-3.171233668200452716e-01,-3.894635448374779430e-02,1.993685882946325816e-01
2.333333333333333481e+00,1.643851788243355036e+09,9.754159130538138378e-02,7.800895523914291863e-01,3.014594112396197012e+00,3.525469905650659153e-02,-3.450867368558475090e-01,-3.559099876179604161e-02,2.032632794982738578e-01
2.350000000000000089e+00,1.643851788262833595e+09,9.724052453497127047e-02,7.664648213651971131e-01,2.863946009046253849e+00,6.730442547151148369e-02,-3.714446790864006087e-01,-3.217679188325641565e-02,2.064327416577141638e-01
2.366666666666666696e+00,1.643851788280023813e+09,9.677517791672807235e-02,6.218426421492523337e-01,2.285457292182474731e+00,6.730442547151148369e-02,-3.959554917763894455e-01,-2.873355913632225436e-02,2.067542947503277218e-01
2.383333333333333304e+00,1.643851788294136763e+09,9.615194647784106041e-02,6.775824403887310554e-01,2.508416485140389618e+00,6.730442547151148369e-02,-4.183856074947293058e-01,-2.528041083428107100e-02,2.076210936631865678e-01
2.399999999999999911e+00,1.643851788312074423e+09,9.537827992277940481e-02,7.385949222454576413e-01,2.752466412567296405e+00,6.730442547151148369e-02,-4.385116837127192579e-01,-2.180728835564263099e-02,2.091493584934271122e-01
2.416666666666666519e+00,1.643851788328023911e+09,9.446261576822752304e-02,7.815296317001912962e-01,2.924205250386231025e+00,6.730442547151148369e-02,-4.561226548889084631e-01,-1.830540815383424613e-02,2.110709279051401210e-01
2.433333333333333126e+00,1.643851788344257355e+09,9.341430236087440442e-02,6.263620852497504554e-01,2.303535064584467662e+00,6.730442547151148369e-02,-4.710217274024898204e-01,-1.479525688955958714e-02,2.101497826049864848e-01
2.450000000000000178e+00,1.643851788362266302e+09,9.224351245140080535e-02,6.188296800822532528e-01,2.273405443914478852e+00,6.730442547151148369e-02,-4.830282988157538204e-01,-1.130302955110039538e-02,2.089209116209689576e-01
2.466666666666666785e+00,1.643851788379124880e+09,9.096114810817391982e-02,5.668560844265232435e-01,2.065511061291558370e+00,6.730442547151148369e-02,-4.919797832339642407e-01,-7.839528665894351933e-03,2.067053490889722289e-01
2.483333333333333393e+00,1.643851788396629333e+09,8.957873785748800277e-02,4.727010198328090440e-01,1.688890802916701794e+00,6.730442547151148369e-02,-4.977333249884656197e-01,-4.426447234846163370e-03,2.028750625719964173e-01
2.500000000000000000e+00,1.643851788410600424e+09,8.810832703243764996e-02,4.523635258805667192e-01,1.607540827107732273e+00,6.730442547151148369e-02,-5.001673834949231789e-01,-1.079820089517255152e-03,1.987317044664282384e-01
2.516666666666666607e+00,1.643851788428547382e+09,8.656236239848925929e-02,4.546232474308158911e-01,1.616579713308729183e+00,6.730442547151148369e-02,-4.991831729308060517e-01,2.198771423596738387e-03,1.947104475283144009e-01
2.533333333333333215e+00,1.643851788446518898e+09,8.495357219942631377e-02,4.034028922918352911e-01,1.411698292752806561e+00,6.730442547151148369e-02,-4.947059413304177311e-01,5.404441222210329410e-03,1.899830602457244222e-01
2.549999999999999822e+00,1.643851788462476254e+09,8.329484283158376801e-02,3.815589173060935924e-01,1.324322392809840210e+00,6.730442547151148369e-02,-4.866860748063207009e-01,8.530064789112501433e-03,1.851053173871518021e-01
2.566666666666666430e+00,1.643851788479319334e+09,8.159909340627176377e-02,3.521825371528548021e-01,1.206816872196884605e+00,6.730442547151148369e-02,-4.751000138656671923e-01,1.157260915021610971e-02,1.800141484141679904e-01
2.583333333333333481e+00,1.643851788497682333e+09,7.987914949924018737e-02,2.828844096118811602e-01,9.296243620329902591e-01,6.730442547151148369e-02,-4.599509701901166037e-01,1.452352479141989089e-02,1.741121234299936316e-01
2.600000000000000089e+00,1.643851788513638973e+09,7.814761741133349759e-02,-1.952396233513955803e-01,-9.828717698201168140e-01,6.730442547151148369e-02,-4.412694337785381116e-01,1.731343011331756138e-02,1.607137338225970713e-01
2.616666666666666696e+00,1.643851788531971931e+09,7.641676027562251117e-02,-1.923546542212805632e-01,-9.713318932996567456e-01,6.730442547151148369e-02,-4.191134620011397471e-01,1.988533820126946183e-02,1.479506904642715059e-01
2.633333333333333304e+00,1.643851788546302319e+09,7.469837734295167730e-02,-2.820249967426522453e-01,-1.233864084140128936e+00,3.525469905650659153e-02,-3.935687438692448969e-01,2.223743467459546666e-02,1.343386983140805457e-01
2.649999999999999911e+00,1.643851788563923597e+09,7.300368775980986547e-02,-3.649555154143456770e-01,-1.277138621091854498e+00,-6.089448018850930622e-02,-3.647484346728112059e-01,2.435707097810057079e-02,1.200573295091228315e-01
2.666666666666666519e+00,1.643851788582872152e+09,7.134322011969730648e-02,-4.837118487246732657e-01,-1.559865595843132224e+00,-1.249939330185202979e-01,-3.327927580628282089e-01,2.622866806796056785e-02,1.045773223061378099e-01
2.683333333333333126e+00,1.643851788597830534e+09,6.972670902187293185e-02,-5.810672130469430874e-01,-1.660839515397160238e+00,-2.211431122635373892e-01,-2.978683746421083023e-01,2.783578014585638694e-02,8.832128376675779657e-02
2.700000000000000178e+00,1.643851788613772392e+09,6.816299980981127549e-02,-6.623189476657748154e-01,-1.793548095382454299e+00,-2.852425650935483947e-01,-2.601675181588468111e-01,2.916818827123150715e-02,7.161410121097232240e-02
2.716666666666666785e+00,1.643851788631875753e+09,6.665996258636537608e-02,-7.858753336468844441e-01,-1.903176922326826670e+00,-4.134414707535703504e-01,-2.199069024551889573e-01,3.021294610504829739e-02,5.380630610878764375e-02
2.733333333333333393e+00,1.643851788647519588e+09,6.522441651412867747e-02,-9.709859569498587861e-01,-2.451321057048691188e+00,-4.775409235835813559e-01,-1.773264043899775710e-01,3.094368064335750040e-02,3.393703221481450538e-02
2.750000000000000000e+00,1.643851788661924362e+09,6.386206530863208775e-02,-1.085414836565014030e+00,-2.716738217019278867e+00,-5.416403764135924170e-01,-1.326875300123447343e-01,3.133636554044497147e-02,1.324264120810438733e-02
2.766666666666666607e+00,1.643851788679876089e+09,6.257744471970112798e-02,-1.124834518797176885e+00,-2.682118587457897441e+00,-6.057398292436033671e-01,-8.627167329239424087e-02,3.138796855547684034e-02,-6.994065008420331103e-03
2.783333333333333215e+00,1.643851788696247101e+09,6.137388267365123662e-02,-1.172187866137156309e+00,-2.679233618327781841e+00,-6.698392820736143172e-01,-3.837817869806745691e-02,3.110516284293507461e-02,-2.688736004313229538e-02
2.799999999999999822e+00,1.643851788717321157e+09,6.025347261719024572e-02,-1.278683080644494208e+00,-2.912916117867104138e+00,-7.339387349036241570e-01,1.067777917505761780e-02,3.048561634619763316e-02,-4.740123523755213064e-02
2.816666666666666430e+00,1.643851788732261419e+09,5.921706046429327241e-02,-1.233244816845181724e+00,-2.731163062669854202e+00,-7.339387349036241570e-01,6.056748388013227097e-02,2.954017206280661750e-02,-6.600041317024527010e-02
2.833333333333333481e+00,1.643851788749215364e+09,5.826424540132281449e-02,-1.261124622556884400e+00,-2.650383927026631614e+00,-7.980381877336351071e-01,1.109511165278951467e-01,2.829041864807907078e-02,-8.392021818933420585e-02
2.850000000000000089e+00,1.643851788766153097e+09,5.739339465484268044e-02,-1.391184532899867987e+00,-3.074474389153547982e+00,-8.300879141486412482e-01,1.614803279400517655e-01,2.673349208895755766e-02,-1.028583617128762950e-01
2.866666666666666696e+00,1.643851788782149553e+09,5.660167217251994842e-02,-1.366662295293889828e+00,-2.976385438729634902e+00,-8.300879141486412482e-01,2.118009236800194039e-01,2.487388287976289789e-02,-1.202464420305794646e-01
2.883333333333333304e+00,1.643851788799506664e+09,5.588508101188718880e-02,-1.346467511383084181e+00,-2.895606303086412758e+00,-8.300879141486412482e-01,2.615556407650423965e-01,2.273653544224981185e-02,-1.361909591033670652e-01
2.899999999999999911e+00,1.643851788815626860e+09,5.523851907627169017e-02,-1.344067485047692800e+00,-2.982155376989865214e+00,-7.980381877336351071e-01,3.103869936997646350e-01,2.034272442184531862e-02,-1.510251562720947016e-01
2.916666666666666519e+00,1.643851788832020760e+09,5.465584768362802270e-02,-1.278670736825379795e+00,-2.624419204855596099e+00,-8.300879141486412482e-01,3.579401664854265919e-01,1.771932638812519223e-02,-1.637472677440404700e-01
2.933333333333333126e+00,1.643851788852214336e+09,5.412997230406068477e-02,-1.165435698468363146e+00,-2.171479051427528617e+00,-8.300879141486412482e-01,4.038659264626696110e-01,1.490763371647302327e-02,-1.736284046058165220e-01
2.950000000000000178e+00,1.643851788868171930e+09,5.365293465724626371e-02,-1.096196439345601181e+00,-1.894522014936481424e+00,-8.300879141486412482e-01,4.478235352497616506e-01,1.194825502588935801e-02,-1.814752409834968494e-01
2.966666666666666785e+00,1.643851788883160591e+09,5.321601522343801655e-02,-9.892162820435382864e-01,-1.562750564973247824e+00,-7.980381877336351071e-01,4.894836316505090656e-01,8.879709803975486399e-03,-1.867355732681334757e-01
2.983333333333333393e+00,1.643851788902378082e+09,5.280984509290619078e-02,-9.481054719393984254e-01,-1.398307324556688380e+00,-7.980381877336351071e-01,5.285310612340466951e-01,5.735290433099894149e-03,-1.905840607423470723e-01
3.000000000000000000e+00,1.643851788921718597e+09,5.242452596011181604e-02,-8.642050676782567775e-01,-1.158854886757136438e+00,-7.659884613186302982e-01,5.646676273373125721e-01,2.543840725572687339e-03,-1.923849017071689316e-01
3.016666666666666607e+00,1.643851788934990406e+09,5.204975696209414304e-02,-8.295977819359908745e-01,-1.308873281523120324e+00,-6.698392820736143172e-01,5.976147385132261070e-01,-6.680436179722177778e-04,-1.930394014206701092e-01
3.033333333333333215e+00,1.643851788951993465e+09,5.167496696685985186e-02,-2.030677685057121207e-01,1.004948413707961619e+00,-6.057398292436033671e-01,6.271159279449857182e-01,-3.800134533168493881e-03,-1.828398411814859403e-01
3.049999999999999822e+00,1.643851788970913172e+09,5.128945083822307460e-02,-1.888226004122037782e-01,9.657799068369766760e-01,-5.736901028285972259e-01,6.529392210683988562e-01,-6.758107270204934125e-03,-1.721465914335129077e-01
3.066666666666666430e+00,1.643851788987973213e+09,5.088250813967910152e-02,-1.294494030384499283e-01,1.010974337841959114e+00,-5.095906499985862759e-01,6.748793285871839132e-01,-9.528105100854548926e-03,-1.602860948437177246e-01
3.083333333333333481e+00,1.643851789005071402e+09,5.044358269243404830e-02,-9.938618409319853464e-02,1.035078034377949985e+00,-4.775409235835813559e-01,6.927596432259217618e-01,-1.209544418126687684e-02,-1.478291981110933517e-01
3.100000000000000089e+00,1.643851789018644571e+09,4.996240137244473134e-02,1.949301410378286720e-02,1.318296468675842714e+00,-4.134414707535703504e-01,7.064340199348726479e-01,-1.443858050302138617e-02,-1.333872778886945887e-01
3.116666666666666696e+00,1.643851789036863089e+09,4.942911051884387591e-02,1.248802847240065295e-01,1.643696371911719023e+00,-3.813917443385642647e-01,7.157883208316360157e-01,-1.652716471651913613e-02,-1.172875502492694566e-01
3.133333333333333304e+00,1.643851789054256439e+09,4.883440833184742730e-02,2.189025458682470615e-01,1.827487057998647968e+00,-3.172922915085532591e-01,7.207417079256930315e-01,-1.833597327252065728e-02,-9.981800413003560912e-02
3.149999999999999911e+00,1.643851789071002007e+09,4.816967166236488240e-02,2.497190053302484614e-01,1.854603716601638919e+00,-2.852425650935483947e-01,7.212476686108962864e-01,-1.985170936066201625e-02,-8.211949014287517334e-02
3.166666666666666519e+00,1.643851789090368986e+09,4.742707563808802596e-02,2.986132371942433750e-01,1.954031464812600483e+00,-2.531928386785423091e-01,7.172947610133796337e-01,-2.106870742513487771e-02,-6.397069210827525942e-02
3.183333333333333126e+00,1.643851789107278109e+09,4.659970463160476029e-02,2.714965785912537566e-01,1.845564830400642009e+00,-2.531928386785423091e-01,7.089070685324146970e-01,-2.199063612209203877e-02,-4.670870262592362321e-02
3.200000000000000178e+00,1.643851789121382952e+09,4.568165315468343535e-02,2.406137174045155369e-01,1.722033385653689130e+00,-2.531928386785423091e-01,6.961443552915491662e-01,-2.263327757746170371e-02,-3.045342662561954794e-02
3.216666666666666785e+00,1.643851789141719818e+09,4.466811535868722011e-02,2.233555872440083356e-01,1.749150044256678527e+00,-2.852425650935483947e-01,6.791019167082051888e-01,-2.301198056466160699e-02,-1.503376523921608893e-02
3.233333333333333393e+00,1.643851789159077406e+09,4.355546193329927485e-02,2.738227018662390266e-01,1.951018502745601291e+00,-2.852425650935483947e-01,6.579101219713597848e-01,-2.313177544495599591e-02,6.149100383716146756e-04
3.250000000000000000e+00,1.643851789175294399e+09,4.234130332336676766e-02,2.316412329282551696e-01,1.782292626993665863e+00,-2.852425650935483947e-01,6.327336478675541498e-01,-2.300222398616410743e-02,1.489160659284321543e-02
3.266666666666666607e+00,1.643851789192810059e+09,4.102453832551358065e-02,2.316412329282551696e-01,1.782292626993665863e+00,-2.852425650935483947e-01,6.037704060931421424e-01,-2.264069990665516091e-02,2.845360983035755825e-02
3.283333333333333215e+00,1.643851789209966183e+09,3.960538728084932875e-02,1.962389286410187172e-01,1.640683409844720053e+00,-2.852425650935483947e-01,5.712501689119678927e-01,-2.206439712582753190e-02,4.066879200874637390e-02
3.299999999999999822e+00,1.643851789227283955e+09,3.808540924611148598e-02,1.683026277965430084e-01,1.432789027221798905e+00,-2.531928386785423091e-01,5.354329007392540918e-01,-2.129500081718144200e-02,5.162832117569689933e-02
3.316666666666666430e+00,1.643851789245214462e+09,3.646750270119376164e-02,1.487183743610504538e-01,1.354452013479828798e+00,-2.531928386785423091e-01,4.966068059300963178e-01,-2.035252709116783590e-02,6.144126712120241002e-02
3.333333333333333481e+00,1.643851789261193037e+09,3.475588953445702539e-02,1.689894665885556257e-01,1.339387203144834615e+00,-2.211431122635373892e-01,4.550861057005289312e-01,-1.925079464151303182e-02,7.074079420969901777e-02
3.350000000000000089e+00,1.643851789278147697e+09,3.295608223654675206e-02,1.118095890403144610e-01,1.206816872196884605e+00,-2.531928386785423091e-01,4.112085596865059367e-01,-1.800931263080543868e-02,7.821628134443843472e-02
3.366666666666666696e+00,1.643851789293442965e+09,3.107483442660373407e-02,6.887487958558077827e-02,1.035078034377949985e+00,-2.531928386785423091e-01,3.653327501275333566e-01,-1.665653823906535630e-02,8.410030078125024788e-02
3.383333333333333304e+00,1.643851789314435720e+09,2.912007502968845876e-02,8.537976922933734891e-02,1.004948413707961619e+00,-2.211431122635373892e-01,3.178351490235544752e-01,-1.521079028918366841e-02,8.937480146891675636e-02
3.399999999999999911e+00,1.643851789332086086e+09,2.710082661874804386e-02,4.470478132485285888e-02,8.422484620900235752e-01,-2.211431122635373892e-01,2.691069908336683469e-01,-1.369021091832249223e-02,9.308441830069759393e-02
3.416666666666666519e+00,1.643851789348133087e+09,2.502710862638708386e-02,5.004386666683794532e-02,9.597539827029786252e-01,-2.531928386785423091e-01,2.195509753412669962e-01,-1.211442423884811527e-02,9.600187898802496622e-02
3.433333333333333126e+00,1.643851789364783049e+09,2.290982631883364123e-02,3.717237615735575346e-02,8.121188414200352090e-01,-2.211431122635373892e-01,1.695778271817931226e-01,-1.049909630856143104e-02,9.783238778005742819e-02
3.449999999999999734e+00,1.643851789380654573e+09,2.076064660468135425e-02,1.991424599684949240e-02,8.392355000230248274e-01,-2.531928386785423091e-01,1.196027401971558740e-01,-8.862799014694791588e-03,9.852137358942421319e-02
3.466666666666666785e+00,1.643851789399600983e+09,1.859186192206867955e-02,1.177691114495749980e-01,1.134505782588912215e+00,-2.211431122635373892e-01,7.004173622715202663e-02,-7.208443414823908005e-03,9.999719878416545027e-02
3.483333333333333393e+00,1.643851789415537834e+09,1.641624360789543241e-02,2.247292648280342919e-01,1.562346396102749280e+00,-2.211431122635373892e-01,2.130796915668822789e-02,-5.521652312556146053e-03,1.024110282483097351e-01
3.500000000000000000e+00,1.643851789431469202e+09,1.424688629946796285e-02,1.893933622655349924e-01,1.517151965097766730e+00,-2.531928386785423091e-01,-2.619199400577677112e-02,-3.806405449655974466e-03,1.034158041897388636e-01
3.516666666666666607e+00,1.643851789449448586e+09,1.209704505078356904e-02,2.021320493255429618e-01,1.471957534092783959e+00,-2.211431122635373892e-01,-7.206188255093638750e-02,-2.079127199300346250e-03,1.038563620522933439e-01
3.533333333333333215e+00,1.643851789467399836e+09,9.979966960736837145e-03,1.765218717560527173e-01,1.369516823814822981e+00,-2.211431122635373892e-01,-1.159193891069148497e-01,-3.541620791677275917e-04,1.031414383096463522e-01
3.549999999999999822e+00,1.643851789485324621e+09,7.908719207334711718e-03,1.998723277752937622e-01,1.462918647891787272e+00,-2.211431122635373892e-01,-1.573997612719960359e-01,1.356482277813799309e-03,1.021386700610531217e-01
3.566666666666666430e+00,1.643851789500342607e+09,5.896015459123629850e-03,2.330149105122812647e-01,1.595488978839737282e+00,-2.211431122635373892e-01,-1.961592849728139576e-01,3.049776518814337981e-03,1.010596362457103770e-01
3.583333333333333481e+00,1.643851789515659809e+09,3.954042691264767276e-03,2.616380501487703403e-01,1.709981537385693695e+00,-2.211431122635373892e-01,-2.318786271220577289e-01,4.724255768549616430e-03,9.988114737975363477e-02
3.600000000000000089e+00,1.643851789533865452e+09,2.094290468064956539e-03,2.171968596605371726e-01,1.532216775432760913e+00,-2.211431122635373892e-01,-2.642660058841495574e-01,6.368644710335716157e-03,9.745227266757398865e-02
3.616666666666666696e+00,1.643851789553124905e+09,3.273847655144174348e-04,2.391072363710161630e-01,1.716007461519691413e+00,-2.531928386785423091e-01,-2.930601578811414254e-01,7.971937093828627280e-03,9.494976492557899439e-02
3.633333333333333304e+00,1.643851789571277618e+09,-1.337071604028440336e-03,2.647174139405064075e-01,1.818448171797652391e+00,-2.531928386785423091e-01,-3.180330729797870570e-01,9.533954681583408503e-03,9.249915302050286392e-02
3.649999999999999911e+00,1.643851789585259914e+09,-2.890649937701489283e-03,2.360942743040173042e-01,1.703955613251695977e+00,-2.531928386785423091e-01,-3.389924688870531999e-01,1.104861885277647407e-02,8.926951893959253481e-02
3.666666666666666519e+00,1.643851789603212595e+09,-4.326235989549420159e-03,1.712491881388047144e-01,1.348426089345831080e+00,-2.211431122635373892e-01,-3.557839796357942785e-01,1.249862618045838487e-02,8.474393175362746056e-02
3.683333333333333126e+00,1.643851789622315407e+09,-5.638157831982719241e-03,5.757627183433515483e-02,9.898836033729675465e-01,-2.531928386785423091e-01,-3.682930341525944562e-01,1.385640381463013916e-02,7.820754141415138527e-02
3.699999999999999734e+00,1.643851789637274504e+09,-6.822299448043420492e-03,6.510867700183230189e-02,1.020013224042956024e+00,-2.531928386785423091e-01,-3.764464034514412583e-01,1.510605865143011851e-02,7.176892446985792817e-02
3.716666666666666785e+00,1.643851789654634953e+09,-7.876198397445938193e-03,9.749801922206995097e-02,1.149570592923906620e+00,-2.531928386785423091e-01,-3.802133975728947957e-01,1.625324584381136750e-02,6.590981430496292703e-02
3.733333333333333393e+00,1.643851789670547009e+09,-8.799126046565545686e-03,1.856271596817863911e-01,1.502087154762772547e+00,-2.531928386785423091e-01,-3.796066961698068565e-01,1.731584670208525731e-02,6.161422117188869452e-02
3.750000000000000000e+00,1.643851789688543797e+09,-9.592149019461097131e-03,1.637831846960447479e-01,1.414711254819805752e+00,-2.531928386785423091e-01,-3.746827996061078414e-01,1.830511064126720891e-02,5.710996365087235571e-02
3.766666666666666607e+00,1.643851789704776049e+09,-1.025817071216785469e-02,1.494716148778001130e-01,1.357464975546827324e+00,-2.531928386785423091e-01,-3.655420905616115768e-01,1.921921155019166993e-02,5.259468814721770386e-02
3.783333333333333215e+00,1.643851789723911047e+09,-1.080195191416773171e-02,1.825477958900504349e-01,1.393620520350813852e+00,-2.211431122635373892e-01,-3.523284993985331681e-01,2.006507508592423120e-02,4.891914621967709959e-02
3.799999999999999822e+00,1.643851789741199970e+09,-1.123010979720586583e-02,1.742621502058035177e-01,1.360477937613826294e+00,-2.211431122635373892e-01,-3.352287699176693669e-01,2.085140466286810115e-02,4.545003964753546732e-02
3.816666666666666430e+00,1.643851789761146069e+09,-1.155109476037671778e-02,1.072901459398162838e-01,1.188739099794892118e+00,-2.531928386785423091e-01,-3.144713255867669921e-01,2.157401177359570196e-02,4.127441287602535286e-02
3.833333333333333481e+00,1.643851789775099277e+09,-1.177514485932937109e-02,9.366541491358425231e-02,1.038090996444949177e+00,-2.211431122635373892e-01,-2.903247398309955485e-01,2.222905512827668198e-02,3.734171410605418434e-02
3.850000000000000089e+00,1.643851789791036129e+09,-1.191421779414614766e-02,5.757627183433515483e-02,9.898836033729675465e-01,-2.531928386785423091e-01,-2.630958175064949112e-01,2.281787291166291129e-02,3.332757056146529173e-02
3.866666666666666696e+00,1.643851789807991982e+09,-1.198190068232971896e-02,7.332792096134191362e-02,9.567410206359798774e-01,-2.211431122635373892e-01,-2.331272982018434414e-01,2.334665763062547528e-02,3.013546288849437010e-02
3.883333333333333304e+00,1.643851789826966524e+09,-1.199329809774708072e-02,2.738024943960941718e-02,7.729503345490498223e-01,-2.211431122635373892e-01,-2.007951954984692478e-01,2.382080086138411643e-02,2.677107055675473357e-02
3.899999999999999911e+00,1.643851789842957735e+09,-1.196489911058132294e-02,-2.452694449138358157e-02,6.614707380700924899e-01,-2.531928386785423091e-01,-1.665057897385228691e-01,2.423690220046840343e-02,2.317109031383867215e-02
3.916666666666666519e+00,1.643851789861178398e+09,-1.191442431456089628e-02,-5.697636360142870338e-01,-1.519476028021521152e+00,-2.531928386785423091e-01,-1.306922951667953692e-01,2.452313931375446274e-02,1.121058768086790475e-02
3.933333333333333126e+00,1.643851789874374628e+09,-1.186065407316327230e-02,-5.118279539241812337e-01,-1.383882478906112601e+00,-2.211431122635373892e-01,-9.381122550162286633e-02,2.462478284414588992e-02,1.014957826713076827e-03
3.949999999999999734e+00,1.643851789893337488e+09,-1.182323945334335866e-02,-6.036620232931392271e-01,-1.655069577136930148e+00,-2.531928386785423091e-01,-5.633848501862148694e-02,2.455039902191371790e-02,-9.910666822917430646e-03
3.966666666666666785e+00,1.643851789911701918e+09,-1.182249754090597404e-02,-8.017550076816314375e-01,-2.255143156200865917e+00,-3.172922915085532591e-01,-1.876521507202229960e-02,2.427325944519578838e-02,-2.330886429209372973e-02
3.983333333333333393e+00,1.643851789928657293e+09,-1.187919304323395431e-02,-8.596783459526230464e-01,-2.102239792304766652e+00,-4.454911971685752703e-01,1.840657139631482822e-02,2.377180092835527031e-02,-3.682860201785834869e-02
4.000000000000000000e+00,1.643851789948586226e+09,-1.201430828014943275e-02,-8.839519402516821112e-01,-2.007035811010969617e+00,-5.095906499985862759e-01,5.466853242637562116e-02,2.304853664153405299e-02,-4.992672786145890829e-02
4.016666666666666607e+00,1.643851789960550785e+09,-1.224880383984134138e-02,-1.005593242692124578e+00,-2.301302662282707079e+00,-5.736901028285972259e-01,8.951067963616880785e-02,2.209679063436586349e-02,-6.424302457188997562e-02
4.033333333333333215e+00,1.643851789980500698e+09,-1.260337233171892474e-02,-1.334467379706129275e+00,-3.328351672603674150e+00,-6.698392820736143172e-01,1.224261619630910986e-01,2.086753909900866330e-02,-8.321445999891674550e-02
4.049999999999999822e+00,1.643851789994316339e+09,-1.309818779973583383e-02,-1.443374964367973412e+00,-3.763982011251051585e+00,-6.698392820736143172e-01,1.529161101474350026e-01,1.931388623424998285e-02,-1.031684547045003675e-01
4.066666666666666430e+00,1.643851790014289141e+09,-1.375265346629045253e-02,-1.588817262131865027e+00,-4.153452843816586970e+00,-7.339387349036241570e-01,1.804945003599031927e-01,1.741414342504841659e-02,-1.247407579248314968e-01
4.083333333333333037e+00,1.643851790032261372e+09,-1.458515055663457162e-02,-1.840530818734405383e+00,-5.160307070226748394e+00,-7.339387349036241570e-01,2.046929945208223467e-01,1.512641731217818225e-02,-1.497169955488543147e-01
4.099999999999999645e+00,1.643851790049214602e+09,-1.561279100546241957e-02,-1.736186987255538661e+00,-4.646782565066263970e+00,-7.659884613186302982e-01,2.250657143588998821e-01,1.244309621494181853e-02,-1.722190289998952739e-01
4.116666666666666252e+00,1.643851790064175844e+09,-1.685117686993248959e-02,-2.024920199754851158e+00,-5.705566235818499088e+00,-7.980381877336351071e-01,2.411939061205071178e-01,9.350196877456551717e-03,-1.988549012229824109e-01
4.133333333333332860e+00,1.643851790080407143e+09,-1.831416926599793021e-02,-2.223498126938067809e+00,-6.403728765306348159e+00,-8.300879141486412482e-01,2.526904530742060673e-01,5.791205522629630335e-03,-2.281427044325531894e-01
4.150000000000000355e+00,1.643851790096764565e+09,-2.001366960712294002e-02,-2.163635017488179546e+00,-6.164276327506795106e+00,-8.300879141486412482e-01,2.592041935621859361e-01,1.757297363936493467e-03,-2.558493100059599512e-01
4.166666666666666963e+00,1.643851790113718510e+09,-2.195941585607431162e-02,-2.183108559116456515e+00,-6.242170494019902982e+00,-8.300879141486412482e-01,2.604240033314152991e-01,-2.737081918679283403e-03,-2.833996733197615137e-01
4.183333333333333570e+00,1.643851790128020287e+09,-2.415879640167776371e-02,-2.338411949347946273e+00,-6.767234875700846253e+00,-8.621376405636461682e-01,2.560826022296376903e-01,-7.708878871501115802e-03,-3.131333654855781301e-01
4.200000000000000178e+00,1.643851790148091793e+09,-2.661668404367338592e-02,-2.388413966330236615e+00,-6.871093764384989200e+00,-8.941873669786521983e-01,2.459600470684795426e-01,-1.318043496392657526e-02,-3.433693747141819408e-01
4.216666666666666785e+00,1.643851790164123774e+09,-2.933529241095664264e-02,-2.348745640791154443e+00,-6.712420462228660512e+00,-8.941873669786521983e-01,2.298868745291050009e-01,-1.914848935650825812e-02,-3.727156330926343908e-01
4.233333333333333393e+00,1.643851790181086779e+09,-3.231405695265498340e-02,-2.255220443550218334e+00,-6.242170494019902982e+00,-9.262370933936571182e-01,2.077468604019568621e-01,-2.559173497843648601e-02,-4.003969471898438659e-01
4.250000000000000000e+00,1.643851790199264288e+09,-3.554954242914194068e-02,-2.162901431386536011e+00,-5.872894445365172800e+00,-9.262370933936571182e-01,1.794793641960360231e-01,-3.248366565105897247e-02,-4.265620509703964003e-01
4.266666666666666607e+00,1.643851790214356899e+09,-3.903537859296470763e-02,-2.053272604442163196e+00,-5.434379137587681541e+00,-9.262370933936571182e-01,1.450812312059198694e-01,-3.979767654851395359e-02,-4.510512296268788246e-01
4.283333333333333215e+00,1.643851790232583284e+09,-4.276222548986698818e-02,-1.856373461311808803e+00,-4.646782565066263970e+00,-9.262370933936571182e-01,1.046082274648144073e-01,-4.749485230957696535e-02,-4.725501410965990412e-01
4.299999999999999822e+00,1.643851790248537302e+09,-4.671776952988689058e-02,-1.703470097415709983e+00,-4.035169109481868688e+00,-9.262370933936571182e-01,5.817598661505821167e-02,-5.553266797678126088e-02,-4.919338939427389534e-01
4.316666666666666430e+00,1.643851790266779661e+09,-5.088675118052336105e-02,-1.328424110500749933e+00,-2.534985161822028044e+00,-9.262370933936571182e-01,5.960451566733099109e-03,-6.384627939471126945e-02,-5.056613435070425044e-01
4.333333333333333037e+00,1.643851790284834623e+09,-5.525102482100364282e-02,-1.125282430134556311e+00,-1.914716798847286849e+00,-8.621376405636461682e-01,-5.180220213916267302e-02,-7.236670577282730554e-02,-5.167589943334884861e-01
4.349999999999999645e+00,1.643851790301241159e+09,-5.978965097176480725e-02,-1.057982942190690334e+00,-2.030115564051889532e+00,-7.339387349036241570e-01,-1.148161701252747025e-01,-8.106996826682630330e-02,-5.276023837114222070e-01
4.366666666666666252e+00,1.643851790316067457e+09,-6.447902077955017242e-02,-9.898777374477828184e-02,1.613566751241729991e+00,-6.698392820736143172e-01,-1.827271546298320781e-01,-8.982937923066146302e-02,-5.235382215538305628e-01
4.383333333333332860e+00,1.643851790334622383e+09,-6.929301229939979767e-02,1.747250325473705384e-03,1.728059309787686626e+00,-5.736901028285972259e-01,-2.551240316460013369e-01,-9.851770142363083793e-02,-5.190728457162032683e-01
4.400000000000000355e+00,1.643851790349957705e+09,-7.420317777371604473e-02,6.940609338347455970e-02,1.806396323529656955e+00,-5.095906499985862759e-01,-3.315410452394513263e-01,-1.071334271287963102e-01,-5.148260358753040666e-01
4.416666666666666963e+00,1.643851790365914583e+09,-7.917896076900120261e-02,1.273392114484653004e-01,1.941979616544605269e+00,-4.775409235835813559e-01,-4.114605199628883492e-01,-1.156819960079932819e-01,-5.110128221380141333e-01
4.433333333333333570e+00,1.643851790384864807e+09,-8.418794169644717995e-02,1.152209614557336004e-01,1.797357437328660268e+00,-4.454911971685752703e-01,-4.943160777207079026e-01,-1.241806558376018638e-01,-5.088324142461551070e-01
4.450000000000000178e+00,1.643851790402188778e+09,-8.919610991677312528e-02,1.611022312527289335e-01,1.884733337271626841e+00,-4.134414707535703504e-01,-5.794963409162062762e-01,-1.326487046912827039e-01,-5.073376005535321642e-01
4.466666666666666785e+00,1.643851790419419050e+09,-9.416816031621415284e-02,3.169566164951833631e-01,2.412001698996426136e+00,-3.813917443385642647e-01,-6.663490992769084409e-01,-1.410825159086981917e-01,-5.047269973824787259e-01
4.483333333333333393e+00,1.643851790435763597e+09,-9.906781194271721547e-02,2.641633785979662363e-01,2.104679568162543202e+00,-3.493420179235594003e-01,-7.541859134403987586e-01,-1.494926015440363742e-01,-5.044839539945144002e-01
4.500000000000000000e+00,1.643851790454216242e+09,-1.038581460126617728e-01,3.761970104194640174e-01,2.264366557713482830e+00,-2.531928386785423091e-01,-8.422871242304277306e-01,-1.578953644675813728e-01,-5.038493596344855163e-01
4.516666666666666607e+00,1.643851790469520569e+09,-1.085019603419490331e-01,5.643743361574188322e-01,2.824777502175269461e+00,-1.890933858485313035e-01,-9.299072326003947619e-01,-1.662737494559108631e-01,-5.015631895868722934e-01
4.533333333333333215e+00,1.643851790484063625e+09,-1.129621370241430112e-01,8.309550773620801856e-01,3.794951287748900004e+00,-1.570436594335263836e-01,-1.016280611503196818e+00,-1.745894570462617479e-01,-4.963362408988733487e-01
4.549999999999999822e+00,1.643851790503696203e+09,-1.172020199753520536e-01,9.353899022913435557e-01,3.828093870485887340e+00,-2.884475377350440711e-02,-1.100627507499333246e+00,-1.828159962191393262e-01,-4.908636618127956153e-01
4.566666666666666430e+00,1.643851790519662380e+09,-1.211857987932534186e-01,9.993489444903329577e-01,3.987780860036826969e+00,3.204972641501691987e-03,-1.182160286771056557e+00,-1.909545089092695713e-01,-4.857720048273440616e-01
4.583333333333333037e+00,1.643851790536610842e+09,-1.248788952383832335e-01,1.241072748642253698e+00,4.858526897399494615e+00,3.525469905650659153e-02,-1.260089877400568881e+00,-1.989862405733454076e-01,-4.780572253092401636e-01
4.599999999999999645e+00,1.643851790553374529e+09,-1.282483485415739088e-01,1.275655410688003366e+00,4.900708366337479305e+00,6.730442547151148369e-02,-1.333632357323911055e+00,-2.068958392974677429e-01,-4.711139090290495934e-01
4.616666666666666252e+00,1.643851790572117090e+09,-1.312631956738207206e-01,1.469105420043207433e+00,5.482210045268258725e+00,1.314038783015236689e-01,-1.402015635313762276e+00,-2.146734008185551823e-01,-4.622181844291380903e-01
4.633333333333332860e+00,1.643851790588885784e+09,-1.338948426852582529e-01,1.521012613974199956e+00,5.593689641747213948e+00,1.634536047165285888e-01,-1.464486170698586998e+00,-2.223053879588902659e-01,-4.536440899008761241e-01
4.650000000000000355e+00,1.643851790606145859e+09,-1.361174232292277630e-01,1.431997429548262257e+00,5.045330545553425416e+00,2.275530575465407879e-01,-1.520315676310353137e+00,-2.298156638028301391e-01,-4.476057848363044211e-01
4.666666666666666963e+00,1.643851790621098518e+09,-1.379081404361916507e-01,1.511087683806981774e+00,5.361691562588304372e+00,2.275530575465407879e-01,-1.568807748386520151e+00,-2.372219090065449398e-01,-4.411615407089152785e-01
4.683333333333333570e+00,1.643851790638007641e+09,-1.392475883906292289e-01,1.517800446732991748e+00,5.292393435047329397e+00,2.596027839615456800e-01,-1.609304366845235590e+00,-2.445263064666676478e-01,-4.353822085839966216e-01
4.700000000000000178e+00,1.643851790656465769e+09,-1.401200495917972744e-01,1.419059537314042219e+00,4.801280618126517297e+00,2.916525103765505444e-01,-1.641192209516508571e+00,-2.517532224773638694e-01,-4.318575037766748670e-01
4.716666666666666785e+00,1.643851790671924114e+09,-1.405137649456697224e-01,1.233828771918349831e+00,4.156506735788762619e+00,2.596027839615456800e-01,-1.663908724550349660e+00,-2.589506020240573969e-01,-4.318281234405146884e-01
4.733333333333333393e+00,1.643851790688220978e+09,-1.404211730394538116e-01,1.203632749523624312e+00,3.939573466964845228e+00,2.916525103765505444e-01,-1.676947906337590055e+00,-2.661534676244829978e-01,-4.325138437869884833e-01
4.750000000000000000e+00,1.643851790705058813e+09,-1.398391156902897836e-01,1.275943839131596702e+00,4.228817825396735230e+00,2.916525103765505444e-01,-1.679865721867637829e+00,-2.733580825516725432e-01,-4.320412602387329604e-01
4.766666666666666607e+00,1.643851790722058535e+09,-1.387690070342607884e-01,1.132008498707664401e+00,3.556927284455990712e+00,3.237022367915554644e-01,-1.672285136502573266e+00,-2.805737197466725008e-01,-4.338302336736481468e-01
4.783333333333333215e+00,1.643851790740015507e+09,-1.372169637284102184e-01,1.058257329790929457e+00,3.358071788034066252e+00,2.916525103765505444e-01,-1.653900690658654193e+00,-2.878265733511014557e-01,-4.365047694170146042e-01
4.799999999999999822e+00,1.643851790758915901e+09,-1.351938941744603717e-01,9.572566988217308115e-01,2.857920084912256797e+00,3.237022367915554644e-01,-1.624482581839299389e+00,-2.951335201567187316e-01,-4.403182539950234453e-01
4.816666666666666430e+00,1.643851790774904728e+09,-1.327155450354454425e-01,9.738279901902242575e-01,2.924205250386231025e+00,3.237022367915554644e-01,-1.583880209839574338e+00,-3.024956014633309875e-01,-4.431237096825670352e-01
4.833333333333333037e+00,1.643851790789879799e+09,-1.298025037022434991e-01,9.685553065729763933e-01,2.903114515917239125e+00,3.237022367915554644e-01,-1.532025146718783537e+00,-3.098976188922959452e-01,-4.451128562560321966e-01
4.849999999999999645e+00,1.643851790806832790e+09,-1.264801557724402059e-01,1.092086751319929494e+00,3.397240294905051528e+00,3.237022367915554644e-01,-1.468933497288623435e+00,-3.173067375473474505e-01,-4.439845167004589088e-01
4.866666666666666252e+00,1.643851790824330568e+09,-1.227785970253833653e-01,1.089760628044943225e+00,3.291786622560092024e+00,3.557519632065603843e-01,-1.394707620360252642e+00,-3.246872755601112881e-01,-4.416864285596168727e-01
4.883333333333332860e+00,1.643851790840867281e+09,-1.187324998105704216e-01,1.083047865118933029e+00,3.361084750101066110e+00,3.237022367915554644e-01,-1.309537185801669557e+00,-3.320189929041877930e-01,-4.381295332269193321e-01
4.900000000000000355e+00,1.643851790857822657e+09,-1.143809342075756408e-01,1.212538832275146472e+00,3.782899439480905013e+00,3.557519632065603843e-01,-1.213699547540909807e+00,-3.392607974401314896e-01,-4.309070739454050614e-01
4.916666666666666963e+00,1.643851790874927282e+09,-1.097671447601819006e-01,1.256980022763379612e+00,3.960664201433837572e+00,3.557519632065603843e-01,-1.107559417972489468e+00,-3.463624268573343712e-01,-4.213151011150206848e-01
4.933333333333333570e+00,1.643851790891340256e+09,-1.049382840308353826e-01,1.290189007225104323e+00,4.189649318525750843e+00,3.237022367915554644e-01,-9.915678347429071060e-01,-3.532849072519146927e-01,-4.094156011790704430e-01
4.950000000000000178e+00,1.643851790908811331e+09,-9.994510465957724688e-02,1.392563315778328148e+00,4.502997373493631272e+00,3.557519632065603843e-01,-8.662604165622923569e-01,-3.599792586987280441e-01,-3.939495347453231266e-01
4.966666666666666785e+00,1.643851790925476551e+09,-9.484161203965851827e-02,1.310526501177346370e+00,4.270999294334719032e+00,3.237022367915554644e-01,-7.322549104693749644e-01,-3.664108006108588445e-01,-3.778801329880595028e-01
4.983333333333333393e+00,1.643851790944581270e+09,-8.968468013579063147e-02,1.342915843397584075e+00,4.400556663215669850e+00,3.237022367915554644e-01,-5.902480388174851100e-01,-3.725526509820787369e-01,-3.591938192071713054e-01
5.000000000000000000e+00,1.643851790964524984e+09,-8.453363336601768530e-02,1.444536911434058046e+00,4.710891756116550866e+00,3.557519632065603843e-01,-4.410116601046987217e-01,-3.783509951975515540e-01,-3.366700541362092070e-01
5.016666666666666607e+00,1.643851790978490114e+09,-7.892276912649374976e-02,1.366953138208837792e+00,4.400556663215669850e+00,3.557519632065603843e-01,-2.853882635908926435e-01,-3.837662754504704843e-01,-3.132286926396578575e-01
5.033333333333333215e+00,1.643851790994467735e+09,-7.351259049482168628e-02,1.420366813173332243e+00,4.518062183828625678e+00,3.878016896215676357e-01,-1.234613757503351117e-01,-3.887643611316766723e-01,-2.866155163347350876e-01
5.049999999999999822e+00,1.643851791013418913e+09,-6.836211721476749548e-02,1.375992024409834258e+00,4.436712208019655712e+00,3.557519632065603843e-01,4.078237913069160392e-02,-3.933060133382466073e-01,-2.584609574024897549e-01
5.066666666666666430e+00,1.643851791029483795e+09,-6.352928852552072736e-02,1.491991063989290156e+00,4.900708366337479305e+00,3.557519632065603843e-01,2.062856298388733856e-01,-3.973434303808777157e-01,-2.261189287960558847e-01
5.083333333333333037e+00,1.643851791046674490e+09,-5.907047115876646465e-02,1.375925622685098881e+00,4.340297421875693118e+00,3.878016896215676357e-01,3.719731572496010052e-01,-4.008394268832374263e-01,-1.934912859614511538e-01
5.099999999999999645e+00,1.643851791063629389e+09,-5.503997765416472621e-02,1.367639977000851825e+00,4.307154839138704894e+00,3.878016896215676357e-01,5.367598092656233888e-01,-4.037745198875782870e-01,-1.588161965193357061e-01
5.116666666666666252e+00,1.643851791078856945e+09,-5.148959936160439621e-02,1.399276078704339898e+00,4.433699245952657186e+00,3.878016896215676357e-01,6.995585271713724573e-01,-4.061096286409043854e-01,-1.215005110014144296e-01
5.133333333333332860e+00,1.643851791097804785e+09,-4.846815837420202777e-02,1.302927694285112015e+00,4.144454887520766739e+00,3.557519632065603843e-01,8.592884216330654024e-01,-4.078192090775756840e-01,-8.375399529944019261e-02
5.150000000000000355e+00,1.643851791114915371e+09,-4.602108247138468611e-02,1.391743673536842696e+00,4.403569625282668376e+00,3.878016896215676357e-01,1.014882836062905858e+00,-4.088711364012682092e-01,-4.259162614908519606e-02
5.166666666666666963e+00,1.643851791131783962e+09,-4.419000694812673380e-02,1.412834408005834597e+00,4.487932563158635979e+00,3.878016896215676357e-01,1.165297335042883020e+00,-4.092190212176672337e-01,7.251210514591099887e-04
5.183333333333333570e+00,1.643851791148885012e+09,-4.301240696635789951e-02,1.447483471776321640e+00,4.626528818240584151e+00,3.878016896215676357e-01,1.309517555967971481e+00,-4.088262376632749162e-01,4.628235462613831258e-02
5.200000000000000178e+00,1.643851791165383101e+09,-4.252126379003139806e-02,1.503976510532550659e+00,4.852500973265498452e+00,3.878016896215676357e-01,1.446566863018781568e+00,-4.076537271050960642e-01,9.428556696048168151e-02
5.216666666666666785e+00,1.643851791181342602e+09,-4.274476795890444492e-02,1.426459139032065115e+00,4.638580666508579142e+00,3.557519632065603843e-01,1.575513744001356464e+00,-4.056806897661398570e-01,1.423454110054158117e-01
5.233333333333333393e+00,1.643851791199543238e+09,-4.370606212063385398e-02,1.746519956925958184e+00,5.822674758839129439e+00,3.878016896215676357e-01,1.695478892486597999e+00,-4.028525164700381134e-01,1.968838851995233230e-01
5.250000000000000000e+00,1.643851791217470169e+09,-4.542302587955834858e-02,1.947635174898131094e+00,6.627135630727821081e+00,3.878016896215676357e-01,1.805641920029772862e+00,-3.990799075787139216e-01,2.556658945569975638e-01
5.266666666666666607e+00,1.643851791234239817e+09,-4.790810463690935855e-02,1.853546512029152327e+00,6.346930158496928875e+00,3.557519632065603843e-01,1.905247646031724695e+00,-3.943349555123820682e-01,3.135675117916802979e-01
5.283333333333333215e+00,1.643851791250719786e+09,-5.116818399485201230e-02,2.012413859338606503e+00,6.886250368489722717e+00,3.878016896215676357e-01,1.993611915999245365e+00,-3.885988261380627362e-01,3.745984786729918414e-01
5.299999999999999822e+00,1.643851791266036510e+09,-5.520451087953197333e-02,1.892715018900137602e+00,6.503604185980869090e+00,3.557519632065603843e-01,2.070126902544074277e+00,-3.818599081854338606e-01,4.339069260777664860e-01
5.316666666666666430e+00,1.643851791282624960e+09,-6.001266211015913316e-02,1.863272237022163269e+00,6.289683879223950669e+00,3.878016896215676357e-01,2.134265847404208660e+00,-3.741359155703973260e-01,4.928085682031695391e-01
5.333333333333333037e+00,1.643851791297768354e+09,-6.558256070620513412e-02,1.780482181904430083e+00,6.054672837998039014e+00,3.557519632065603843e-01,2.185587207043166558e+00,-3.654427109160595100e-01,5.502165200312916227e-01
5.349999999999999645e+00,1.643851791318842411e+09,-7.189853978714069727e-02,1.778909299146195666e+00,5.952232127720079369e+00,3.878016896215676357e-01,2.223738168952555494e+00,-3.557955840969939665e-01,6.072801843472053207e-01
5.366666666666666252e+00,1.643851791333689451e+09,-7.893945348301062426e-02,1.676468588868234688e+00,5.542469286608235457e+00,3.878016896215676357e-01,2.248457510612451138e+00,-3.452160127819992597e-01,6.621160480235553925e-01
5.383333333333332860e+00,1.643851791348237991e+09,-8.667883384364996613e-02,1.592172052717001796e+00,5.301432321248325863e+00,3.557519632065603843e-01,2.259577778116711233e+00,-3.337401915053229140e-01,7.148360572607742602e-01
5.400000000000000355e+00,1.643851791367958307e+09,-9.508509231362920200e-02,1.464121164869550906e+00,4.789228769858522305e+00,3.557519632065603843e-01,2.257026766706022425e+00,-3.214110239214999498e-01,7.645260218698775034e-01
5.416666666666666963e+00,1.643851791386917114e+09,-1.041217639330629940e-01,1.421252857139554182e+00,4.713904718183550280e+00,3.237022367915554644e-01,2.240828290829635527e+00,-3.082687117971886215e-01,8.124183955450526851e-01
5.433333333333333570e+00,1.643851791404357433e+09,-1.137477920351083471e-01,8.730265643952371812e-01,2.713297905696311574e+00,2.596027839615456800e-01,2.211102236835090551e+00,-2.944146354300197777e-01,8.499664658650559756e-01
5.450000000000000178e+00,1.643851791421304464e+09,-1.239178508430093528e-01,-4.642753385537406463e-01,-2.347462168364548241e+00,1.634536047165285888e-01,2.168063896921093026e+00,-2.801305973321531195e-01,8.640789037399785322e-01
5.466666666666666785e+00,1.643851791436263800e+09,-1.345827030264229451e-01,-6.818418645705088821e-01,-3.025429913941591664e+00,9.935415188651879059e-02,2.112022588538551737e+00,-2.656510920039417689e-01,8.734357438112345662e-01
5.483333333333333393e+00,1.643851791452870131e+09,-1.456895889617181306e-01,-9.609502840900283616e-01,-3.853416054284618752e+00,3.204972641501691987e-03,2.043379568945169478e+00,-2.510649633149171223e-01,8.768901032031288789e-01
5.500000000000000000e+00,1.643851791472365141e+09,-1.571826441569782462e-01,-1.279005786866101557e+00,-4.837190527653859817e+00,-9.294420660351540575e-02,1.962625260066773514e+00,-2.364768228973840591e-01,8.736956206722736873e-01
5.516666666666666607e+00,1.643851791489890099e+09,-1.690033410521900592e-01,-1.594897562794587165e+00,-5.812310093632754970e+00,-1.890933858485313035e-01,1.870335804150939252e+00,-2.219978608272571430e-01,8.638072959580860299e-01
5.533333333333333215e+00,1.643851791507831097e+09,-1.810909511909932768e-01,-2.049752799763321587e+00,-7.439432683017659365e+00,-2.531928386785423091e-01,1.767168975873644410e+00,-2.077594126747785708e-01,8.448591174074461252e-01
5.549999999999999822e+00,1.643851791522799730e+09,-1.933830235842807221e-01,-2.365408276204003180e+00,-8.509756230290353329e+00,-3.172922915085532591e-01,1.653859481537200526e+00,-1.938933992220728819e-01,8.191339573769603755e-01
5.566666666666666430e+00,1.643851791539352655e+09,-2.058158749496424300e-01,-2.650535277290672287e+00,-9.554115055392010447e+00,-3.493420179235594003e-01,1.531213680738452876e+00,-1.805089070474657220e-01,7.870941052598162679e-01
5.583333333333333037e+00,1.643851791557252645e+09,-2.183250874152278254e-01,-2.760873002698459366e+00,-9.707018419288109712e+00,-4.454911971685752703e-01,1.400103770352961741e+00,-1.676873359157141086e-01,7.515930469223063293e-01
5.599999999999999645e+00,1.643851791577141762e+09,-2.308460092230573690e-01,-2.630328149560751783e+00,-9.184839006737281153e+00,-4.454911971685752703e-01,1.261461474838954544e+00,-1.554536640884774668e-01,7.165449305163730243e-01
5.616666666666666252e+00,1.643851791590583801e+09,-2.433142539554479233e-01,-2.959687229369480033e+00,-1.030997696748216086e+01,-5.095906499985862759e-01,1.116271290680958650e+00,-1.438648316524725468e-01,6.742324991022261571e-01
5.633333333333332860e+00,1.643851791607869387e+09,-2.556661938391649458e-01,-3.128694222969017336e+00,-1.088985576263529076e+01,-5.416403764135924170e-01,9.655633362381808027e-01,-1.330195213807159604e-01,6.273350073849556230e-01
5.650000000000000355e+00,1.643851791622832060e+09,-2.678394427547227674e-01,-3.361891779713614525e+00,-1.172649681036866376e+01,-5.736901028285972259e-01,8.104058613091915664e-01,-1.230029982567101277e-01,5.747937189542093872e-01
5.666666666666666963e+00,1.643851791642554998e+09,-2.797733246921865757e-01,-3.438816060637273075e+00,-1.184189557557326822e+01,-6.377895556586082870e-01,6.518974733483661188e-01,-1.138874243219425431e-01,5.192295018979600219e-01
5.683333333333333570e+00,1.643851791657817602e+09,-2.914093235486833744e-01,-3.564784816772888831e+00,-1.215347224162569617e+01,-7.018890084886192371e-01,4.911591394517532683e-01,-1.057298462403948591e-01,4.598448291943934008e-01
5.700000000000000178e+00,1.643851791676758289e+09,-3.026915103550313901e-01,-3.477029557792182146e+00,-1.170630202645785722e+01,-7.339387349036241570e-01,3.293260249502025228e-01,-9.856404213364880484e-02,4.002172995402810129e-01
5.716666666666666785e+00,1.643851791695707560e+09,-3.135669442475428892e-01,-3.468610949889642914e+00,-1.157647841560268098e+01,-7.659884613186302982e-01,1.675392306975040657e-01,-9.240497769408137496e-02,3.390403731141779509e-01
5.733333333333333393e+00,1.643851791709670544e+09,-3.239860437638292234e-01,-3.405377928514915276e+00,-1.122739715085875645e+01,-7.980381877336351071e-01,6.937491904459691661e-03,-8.727052752317950024e-02,2.772652489997684544e-01
5.750000000000000000e+00,1.643851791726971865e+09,-3.339029253357284066e-01,-3.195732723786849139e+00,-1.029266715270147081e+01,-8.300879141486412482e-01,-1.513510983523962961e-01,-8.315003694200152895e-02,2.173600280496030546e-01
5.766666666666666607e+00,1.643851791743267536e+09,-3.432757061754090344e-01,-3.170725543386145873e+00,-1.009648925185364554e+01,-8.621376405636461682e-01,-3.062172780351231083e-01,-8.003762876076109256e-02,1.562985728446747991e-01
5.783333333333333215e+00,1.643851791763461828e+09,-3.520667690990253451e-01,-3.006046003481782858e+00,-9.533920271481207465e+00,-8.300879141486412482e-01,-4.565786552529095821e-01,-7.793250002916736474e-02,9.648303313416953242e-02
5.799999999999999822e+00,1.643851791778424501e+09,-3.602429872026561841e-01,-3.229146168270976336e+00,-1.033017175139296739e+01,-8.621376405636461682e-01,-6.013875365545674478e-01,-7.686685098824642959e-02,3.157515567948954160e-02
5.816666666666666430e+00,1.643851791795507908e+09,-3.677759066939585431e-01,-3.048599298150980186e+00,-9.704133450157995000e+00,-8.300879141486412482e-01,-7.396384850469800432e-01,-7.686819286268264939e-02,-3.156079883270690445e-02
5.833333333333333037e+00,1.643851791812452555e+09,-3.746418865862272130e-01,-2.760102385139472592e+00,-8.550145798111964623e+00,-8.300879141486412482e-01,-8.703755511050988991e-01,-7.789129040733640263e-02,-9.104566689212933994e-02
5.849999999999999645e+00,1.643851791830766916e+09,-3.808221943754503402e-01,-2.538681004403140040e+00,-7.664460275166636194e+00,-8.300879141486412482e-01,-9.926991210072066973e-01,-7.988389890091021628e-02,-1.479093938220613080e-01
5.866666666666666252e+00,1.643851791847715378e+09,-3.863030572413954089e-01,-2.469441745280378075e+00,-7.387503238675588335e+00,-8.300879141486412482e-01,-1.105772331820964904e+00,-8.282243649759207793e-02,-2.045577575104018386e-01
5.883333333333332860e+00,1.643851791863625526e+09,-3.910756687367347162e-01,-2.657201038225662337e+00,-8.042391231211711400e+00,-8.621376405636461682e-01,-1.208827004259106497e+00,-8.673745655882762751e-02,-2.650765381572457446e-01
5.900000000000000355e+00,1.643851791881623983e+09,-3.951361513495612043e-01,-2.729810209273263677e+00,-8.428977094647130741e+00,-8.300879141486412482e-01,-1.301169048989467392e+00,-9.167554722422632807e-02,-3.273214351295591906e-01
5.916666666666666963e+00,1.643851791898577690e+09,-3.984854757402852554e-01,-2.734858905250965311e+00,-8.449171878557937276e+00,-8.300879141486412482e-01,-1.382183305995538847e+00,-9.765434260094442431e-02,-3.899600099402828479e-01
5.933333333333333570e+00,1.643851791916693687e+09,-4.011293378598527193e-01,-2.634133629003856836e+00,-8.238569132059536670e+00,-7.659884613186302982e-01,-1.451337781005688443e+00,-1.046641019784804449e-01,-4.510414407295725847e-01
5.950000000000000178e+00,1.643851791933859110e+09,-4.030779955485234711e-01,-2.359104019872590108e+00,-7.234599874779489070e+00,-7.339387349036241570e-01,-1.508187247709486201e+00,-1.126533134546684467e-01,-5.075070837130858381e-01
5.966666666666666785e+00,1.643851791948886395e+09,-4.043460665893714445e-01,-2.214619263879032296e+00,-6.752810030050272694e+00,-7.018890084886192371e-01,-1.552376189418700925e+00,-1.215619670098843780e-01,-5.613816877128321448e-01
5.983333333333333393e+00,1.643851791967835188e+09,-4.049522905445949172e-01,-2.167265916539053094e+00,-6.755694999180386517e+00,-6.377895556586082870e-01,-1.583641058971970716e+00,-1.313588672959968284e-01,-6.140999036852367032e-01
6.000000000000000000e+00,1.643851791986487865e+09,-4.049192570322896478e-01,-1.702798230409640290e+00,-5.186271792397784353e+00,-5.416403764135924170e-01,-1.601811840983704993e+00,-1.419654802976016983e-01,-6.585701252068543177e-01
6.016666666666666607e+00,1.643851792000470400e+09,-4.042731034034028892e-01,-1.622752680868061237e+00,-5.154537131966518970e+00,-4.454911971685752703e-01,-1.606812905958850513e+00,-1.532967562270609041e-01,-7.010649423911770040e-01
6.033333333333333215e+00,1.643851792019418955e+09,-4.030431850503197189e-01,-1.604733967623956481e+00,-5.370909816725149000e+00,-3.493420179235594003e-01,-1.598663151292651463e+00,-1.653267953023938863e-01,-7.424248552977874560e-01
6.049999999999999822e+00,1.643851792035356045e+09,-4.012617218173389344e-01,-1.456406700729949710e+00,-4.969899107639154323e+00,-2.852425650935483947e-01,-1.577475429705594845e+00,-1.780170401129035351e-01,-7.802993126612035590e-01
6.066666666666666430e+00,1.643851792051478863e+09,-3.989634241870280151e-01,-1.264568597396411143e+00,-4.490994232040050882e+00,-1.890933858485313035e-01,-1.543455271184746014e+00,-1.913020989846967446e-01,-8.138146515990962726e-01
6.083333333333333037e+00,1.643851792070247173e+09,-3.961851030831558540e-01,7.463929343119027893e-01,3.168255177813139145e+00,-6.089448018850930622e-02,-1.496898909970243885e+00,-2.048569322854381924e-01,-8.127682512259938319e-01
6.099999999999999645e+00,1.643851792086203814e+09,-3.929652672591591456e-01,8.530874807914143876e-01,3.210436646751122947e+00,6.730442547151148369e-02,-1.438190633497571813e+00,-2.183716245888655261e-01,-8.090052781343357591e-01
6.116666666666666252e+00,1.643851792105153561e+09,-3.893437123297355251e-01,9.229396436749278676e-01,3.201397760550126037e+00,1.634536047165285888e-01,-1.367799475439105183e+00,-2.318047499403537159e-01,-8.029864833122505319e-01
6.133333333333332860e+00,1.643851792122113228e+09,-3.853611055514779005e-01,1.039559120321660979e+00,3.475577308647021635e+00,2.275530575465407879e-01,-1.286275280042856739e+00,-2.451110256609006222e-01,-7.937921435870568532e-01
6.150000000000000355e+00,1.643851792138909817e+09,-3.810585704661422213e-01,1.205826069349136276e+00,3.852197567021878655e+00,3.237022367915554644e-01,-1.194244169801296662e+00,-2.582296560559886878e-01,-7.804804815328381107e-01
6.166666666666666963e+00,1.643851792156043768e+09,-3.764772754872335869e-01,1.301354811526877153e+00,4.042014177242806205e+00,3.878016896215676357e-01,-1.092403453061863594e+00,-2.711010032620975174e-01,-7.641266116856457735e-01
6.183333333333333570e+00,1.643851792173498869e+09,-3.716580304376101984e-01,1.409001803697349064e+00,4.376452966679678092e+00,4.198514160365725556e-01,-9.815160124769957140e-01,-2.836718606905219708e-01,-7.444309910702153754e-01
6.200000000000000178e+00,1.643851792187733412e+09,-3.666408949335944745e-01,1.472960845896337689e+00,4.536139956230617720e+00,4.519011424515774755e-01,-8.624042191519077916e-01,-2.958918923091531927e-01,-7.220350156725102719e-01
6.216666666666666785e+00,1.643851792206840515e+09,-3.614648023609003391e-01,1.513569432076084853e+00,4.602425121704592392e+00,4.839508688665823399e-01,-7.359434209520808734e-01,-3.077186753077195691e-01,-6.972477991552105125e-01
6.233333333333333393e+00,1.643851792221646786e+09,-3.561672030011880929e-01,1.606838452703577058e+00,4.783202845724524366e+00,5.480503216965945112e-01,-6.030550566514474298e-01,-3.191045246828588255e-01,-6.691322265125357882e-01
6.250000000000000000e+00,1.643851792238950729e+09,-3.507837296472151034e-01,1.601499367361591819e+00,4.665697325111568539e+00,5.801000481115994312e-01,-4.646994504115481428e-01,-3.300072922093045813e-01,-6.392827937035893138e-01
6.266666666666666607e+00,1.643851792259201288e+09,-3.453478887916783813e-01,1.577329269100863796e+00,4.472867752823641574e+00,6.121497745266043511e-01,-3.218683434598902382e-01,-3.404003024897593321e-01,-6.079654346624516759e-01
6.283333333333333215e+00,1.643851792275153399e+09,-3.398907801926055461e-01,1.576576028584114164e+00,4.469854790756643936e+00,6.121497745266043511e-01,-1.755772217638817689e-01,-3.502555805906846786e-01,-5.747601764478558195e-01
6.299999999999999822e+00,1.643851792289834261e+09,-3.344408473094184764e-01,1.500432334667657575e+00,4.069130835845795602e+00,6.441995009416116025e-01,-2.685749996018158003e-02,-3.595519998110146553e-01,-5.409041766490678693e-01
6.316666666666666430e+00,1.643851792307001114e+09,-3.290236607718126649e-01,1.576443225134641635e+00,4.277025218468716972e+00,6.762492273566165224e-01,1.232513772120768514e-01,-3.682575968004833111e-01,-5.038703362871539415e-01
6.333333333333333037e+00,1.643851792323346138e+09,-3.236617366916760274e-01,1.737703097443817679e+00,5.018213886950435132e+00,6.441995009416116025e-01,2.737098542214755348e-01,-3.763080235558166620e-01,-4.622963603373990704e-01
6.349999999999999645e+00,1.643851792341303110e+09,-3.183743912600889292e-01,1.802415380159555491e+00,5.180913838568372398e+00,6.762492273566165224e-01,4.234861430254143189e-01,-3.836416676617678823e-01,-4.178643575116983699e-01
6.366666666666666252e+00,1.643851792359254599e+09,-3.131776326906946517e-01,1.817413788769812744e+00,5.144758293764387425e+00,7.082989537716214423e-01,5.715639990178225105e-01,-3.902183911826540563e-01,-3.714713375276849083e-01
6.383333333333332860e+00,1.643851792373217821e+09,-3.080840911812673388e-01,1.795569813784071211e+00,5.057382393821420408e+00,7.082989537716214423e-01,7.169503342879318675e-01,-3.960112417984291144e-01,-3.238031511107097860e-01
6.400000000000000355e+00,1.643851792390508175e+09,-3.031029871710926304e-01,1.746542778470602686e+00,4.765125073322530547e+00,7.403486801866263622e-01,8.586826092578656588e-01,-4.010034021003222593e-01,-2.753905676800088020e-01
6.416666666666666963e+00,1.643851792406512499e+09,-2.982401377767874839e-01,1.854256172365811972e+00,5.195978648903367692e+00,7.403486801866263622e-01,9.958359456521902464e-01,-4.051615516669146433e-01,-2.237308828131163996e-01
6.433333333333333570e+00,1.643851792425460100e+09,-2.934980008973465115e-01,1.693749540573387335e+00,4.457802942488647169e+00,7.723984066016336136e-01,1.127529906084673295e+00,-4.084698213677209200e-01,-1.734012890013424402e-01
6.450000000000000178e+00,1.643851792442417383e+09,-2.888757560945258707e-01,1.703475265566396279e+00,4.400556663215669850e+00,8.044481330166385336e-01,1.252934888307916994e+00,-4.109275517329009086e-01,-1.216700560715905932e-01
6.466666666666666785e+00,1.643851792459470987e+09,-2.843694209809457529e-01,1.720046556934890170e+00,4.466841828689644522e+00,8.044481330166385336e-01,1.371278085337066521e+00,-4.125116055698337392e-01,-6.856392486345849746e-02
6.483333333333333393e+00,1.643851792474919558e+09,-2.799720014892714826e-01,1.751682658638378021e+00,4.593386235503596815e+00,8.044481330166385336e-01,1.481848966205025375e+00,-4.131982505659153038e-01,-1.398508611998686146e-02
6.500000000000000000e+00,1.643851792491070986e+09,-2.756736740551076759e-01,1.835979194789608693e+00,4.834423200863504633e+00,8.364978594316434535e-01,1.584004236004874056e+00,-4.129570338895741655e-01,4.277342105024670854e-02
6.516666666666666607e+00,1.643851792508332968e+09,-2.714619974271675340e-01,1.745656734504380303e+00,4.569282538967605056e+00,8.044481330166385336e-01,1.677172238093040502e+00,-4.117772885794066529e-01,9.864082528336955147e-02
6.533333333333333215e+00,1.643851792526341677e+09,-2.673221515240802870e-01,1.545915194116231905e+00,3.578018018924983057e+00,8.685475858466483734e-01,1.760856765832883752e+00,-4.096901661515987558e-01,1.516665688547136071e-01
6.549999999999999822e+00,1.643851792543288231e+09,-2.632372004906897711e-01,1.417111065752031163e+00,3.062801505468178753e+00,8.685475858466483734e-01,1.834640256014133941e+00,-4.067342047510950631e-01,2.029064628169793272e-01
6.566666666666666430e+00,1.643851792560244322e+09,-2.591883768706012003e-01,1.389994407149041322e+00,2.954334871056220280e+00,8.685475858466483734e-01,1.898186341053290427e+00,-4.029262907470516630e-01,2.539015612829748081e-01
6.583333333333333037e+00,1.643851792578194618e+09,-2.551553836083012006e-01,1.440461521771272180e+00,3.156203329545142822e+00,8.685475858466483734e-01,1.951241742222580289e+00,-3.982612033221509806e-01,3.057648615913050039e-01
6.599999999999999645e+00,1.643851792595329523e+09,-2.511167104253768656e-01,1.444914563147035036e+00,3.077866315803173158e+00,9.005973122616556248e-01,1.993637491430277020e+00,-3.927324201653634161e-01,3.575452793441393218e-01
6.616666666666666252e+00,1.643851792613284111e+09,-2.470499609828845089e-01,1.379449039914545150e+00,2.912153402118235590e+00,8.685475858466483734e-01,2.025289474440793214e+00,-3.863524523262130139e-01,4.079109534109112700e-01
6.633333333333332860e+00,1.643851792628499269e+09,-2.429321871469561911e-01,1.298099064105576295e+00,2.586753498882360169e+00,8.685475858466483734e-01,2.046198293836492432e+00,-3.791483612806650916e-01,4.564451516643978080e-01
6.649999999999999467e+00,1.643851792645457268e+09,-2.387402266181951893e-01,1.395200689041554032e+00,2.879010819381249142e+00,9.005973122616556248e-01,2.056448455441285184e+00,-3.711272430162498859e-01,5.059515191413632706e-01
6.666666666666666963e+00,1.643851792661585808e+09,-2.344510401677790956e-01,1.326655802017330021e+00,2.604831271284353100e+00,9.005973122616556248e-01,2.056206887306475828e+00,-3.622973572909057860e-01,5.535026782380825239e-01
6.683333333333333570e+00,1.643851792679797649e+09,-2.300420447445750138e-01,1.380202280431295225e+00,2.915166364185235448e+00,8.685475858466483734e-01,2.045720805658247432e+00,-3.526755725136169195e-01,6.009796115622860757e-01
6.700000000000000178e+00,1.643851792698045492e+09,-2.254914387776233153e-01,1.284540734804081374e+00,2.532520181676380933e+00,8.685475858466483734e-01,2.025314947382980346e+00,-3.422850943397196533e-01,6.457533947581731715e-01
6.716666666666666785e+00,1.643851792714405775e+09,-2.207785160964449711e-01,1.328981925292314514e+00,2.710284943629313048e+00,8.685475858466483734e-01,1.995388193638645502e+00,-3.311525658819214346e-01,6.900270349492243493e-01
6.733333333333333393e+00,1.643851792733356476e+09,-2.158839650266372590e-01,1.420877268335779542e+00,3.077866315803173158e+00,8.685475858466483734e-01,1.956409613990063967e+00,-3.192809496284494397e-01,7.344435334011830685e-01
6.750000000000000000e+00,1.643851792748081207e+09,-2.107901493887456290e-01,1.438135398496287687e+00,3.050749657200183762e+00,9.005973122616556248e-01,1.908913965032615678e+00,-3.066793696508907652e-01,7.776261094824394871e-01
6.766666666666666607e+00,1.643851792766756535e+09,-2.054813683325777962e-01,1.531603624297987354e+00,3.520771739652004406e+00,8.685475858466483734e-01,1.853496681759200015e+00,-2.933587888557647183e-01,8.207238671215998371e-01
6.783333333333333215e+00,1.643851792783665419e+09,-1.999440921748833755e-01,1.478123547608757749e+00,3.306851432895085097e+00,8.685475858466483734e-01,1.790808403902941937e+00,-2.793419100148701317e-01,8.611891874725668972e-01
6.799999999999999822e+00,1.643851792800195217e+09,-1.941671716731475650e-01,1.600082109597475988e+00,3.698536501604936522e+00,9.005973122616556248e-01,1.721549083123684820e+00,-2.646489194128727185e-01,9.018567167492554937e-01
6.816666666666666430e+00,1.643851792816790342e+09,-1.881420184593885769e-01,1.563992966518225058e+00,3.650329108532954780e+00,8.685475858466483734e-01,1.646461720169685394e+00,-2.492991094301866550e-01,9.400144848780346285e-01
6.833333333333333037e+00,1.643851792834534645e+09,-1.818627546723379229e-01,1.565499447551724321e+00,3.656355032666952276e+00,8.685475858466483734e-01,1.566325784012469580e+00,-2.333294673549033693e-01,9.762419299954878671e-01
6.849999999999999645e+00,1.643851792849773645e+09,-1.753263301608979918e-01,1.524004817405754997e+00,3.394227332838052558e+00,9.005973122616556248e-01,1.481950367399456292e+00,-2.167784235141224647e-01,1.009790139234793882e+00
6.866666666666666252e+00,1.643851792868722677e+09,-1.685326059829398704e-01,1.482642990709255981e+00,3.324929205297079360e+00,8.685475858466483734e-01,1.394167135276759506e+00,-1.996907141280499509e-01,1.040649265281821556e+00
6.883333333333332860e+00,1.643851792884828091e+09,-1.614844032875980551e-01,1.324462482191816060e+00,2.692207171227319229e+00,8.685475858466483734e-01,1.303823124087922558e+00,-1.821272745830828377e-01,1.066890585841516748e+00
6.899999999999999467e+00,1.643851792903865099e+09,-1.541875170426439956e-01,1.264956481368588737e+00,2.454183167934409937e+00,8.685475858466483734e-01,1.211773451041261218e+00,-1.641510371050403094e-01,1.090193180570305120e+00
6.916666666666666963e+00,1.643851792918923378e+09,-1.466506944472626695e-01,1.148204201272383207e+00,1.987174047549587819e+00,8.685475858466483734e-01,1.118873993050355065e+00,-1.458185988168706759e-01,1.109645378854181130e+00
6.933333333333333570e+00,1.643851792936566114e+09,-1.388855782508457981e-01,1.058568579779167296e+00,1.628631561576724174e+00,8.685475858466483734e-01,1.025974095185046231e+00,-1.271898558683166036e-01,1.125759013821697296e+00
6.950000000000000178e+00,1.643851792952736616e+09,-1.309066155763164430e-01,1.472517102968533831e-01,-1.920486737107516717e+00,8.364978594316434535e-01,9.339093681230336008e-01,-1.084333655270457719e-01,1.125021874787424547e+00
6.966666666666666785e+00,1.643851792968692064e+09,-1.227309332180638035e-01,-2.752522156291310404e-02,-2.523445285301567864e+00,8.044481330166385336e-01,8.434946332678605607e-01,-8.972568742766459660e-02,1.119913686883125870e+00
6.983333333333333393e+00,1.643851792986341715e+09,-1.143781807460817063e-01,-2.287394745693255849e-01,-3.039854759592166555e+00,7.082989537716214423e-01,7.555170729048787948e-01,-7.114238356545385389e-02,1.110110009659841079e+00
7.000000000000000000e+00,1.643851793005817652e+09,-1.058703430955421215e-01,-4.003827939920587276e-01,-3.437980499548047852e+00,6.121497745266043511e-01,6.707296410135192843e-01,-5.275653857816441084e-02,1.096229945456242749e+00
7.016666666666666607e+00,1.643851793021754503e+09,-9.723152465132137157e-02,-4.722583789380153663e-01,-3.533184480841844888e+00,5.480503216965945112e-01,5.898447881554790273e-01,-3.462121022076726506e-02,1.080054390585803326e+00
7.033333333333333215e+00,1.643851793037715197e+09,-8.848770714643067192e-02,-6.922249312901760376e-01,-4.124603152515436300e+00,4.519011424515774755e-01,5.135285512328664481e-01,-1.679416299552547939e-02,1.059249070359606471e+00
7.049999999999999822e+00,1.643851793055663586e+09,-7.966648397878590970e-02,-7.107285873290037914e-01,-4.006319418180718017e+00,3.878016896215676357e-01,4.423950558788989351e-01,6.766218057471934388e-04,1.037306060034165478e+00
7.066666666666666430e+00,1.643851793071760893e+09,-7.079677380926277519e-02,-7.811616877099045730e-01,-4.095753461214284741e+00,3.237022367915554644e-01,3.770014758306194924e-01,1.776596009892311701e-02,1.013480718209668119e+00
7.083333333333333037e+00,1.643851793090994596e+09,-6.190851653289654311e-02,-1.025414178180237501e+00,-4.880465064605586711e+00,2.596027839615456800e-01,3.178434898664552755e-01,3.441959292339349247e-02,9.850342405799680234e-01
7.099999999999999645e+00,1.643851793106952190e+09,-5.303235491197888507e-02,-1.000170698291730442e+00,-4.779491145051558476e+00,2.596027839615456800e-01,2.653512728005340549e-01,5.059928321987777061e-02,9.566075598586304407e-01
7.116666666666666252e+00,1.643851793124311447e+09,-4.419930532267345863e-02,-9.999220549848120143e-01,-4.586198213333848805e+00,1.955033311315334810e-01,2.198860526450077124e-01,6.630287647550897612e-02,9.279033665640025186e-01
7.133333333333332860e+00,1.643851793141574383e+09,-3.544042119387635914e-02,-1.110023480904793525e+00,-4.834305558523745106e+00,1.314038783015236689e-01,1.817372614142693799e-01,8.151155475309802834e-02,8.972232512949047667e-01
7.149999999999999467e+00,1.643851793158744097e+09,-2.678645280700948927e-02,-1.305952738445700589e+00,-5.425724230197336517e+00,6.730442547151148369e-02,1.511203021904465871e-01,9.618184465253200310e-02,8.633057541245499067e-01
7.166666666666666963e+00,1.643851793175021410e+09,-1.826750717738669441e-02,-1.311710332886815378e+00,-5.160307070226748394e+00,-2.884475377350440711e-02,1.281749500346716086e-01,1.102875631687871838e-01,8.294744458940923604e-01
7.183333333333333570e+00,1.643851793191975355e+09,-9.912711750992940843e-03,-1.183565506084498953e+00,-4.551578583772467823e+00,-6.089448018850930622e-02,1.129643991555855376e-01,1.238496978835831736e-01,7.980689593971478368e-01
7.200000000000000178e+00,1.643851793209287882e+09,-1.749885624914980509e-03,-1.280448271431159135e+00,-4.842960465914090129e+00,-9.294420660351540575e-02,1.054749634753695542e-01,1.368783296244109327e-01,7.654574391903902209e-01
7.216666666666666785e+00,1.643851793224519968e+09,6.194778064629188896e-03,-1.434309177097591315e+00,-5.362254909334804864e+00,-1.249939330185202979e-01,1.056164324075525851e-01,1.493467085425992658e-01,7.308441811940346033e-01
7.233333333333333393e+00,1.643851793242730618e+09,1.389701504510632013e-02,-1.401616974895992351e+00,-5.327635279773422994e+00,-9.294420660351540575e-02,1.132230783220578019e-01,1.612485467249902271e-01,6.974691114020780125e-01
7.250000000000000000e+00,1.643851793259249926e+09,2.133477469923105579e-02,-1.523258277336435151e+00,-5.621902131045160900e+00,-1.570436594335263836e-01,1.280553068642948933e-01,1.725839910028933166e-01,6.628802842829726316e-01
7.266666666666666607e+00,1.643851793277201414e+09,2.848848351841150317e-02,-1.452576533648615387e+00,-5.339175156293882729e+00,-1.570436594335263836e-01,1.498019360592814930e-01,1.833604985078534921e-01,6.303908668181902319e-01
7.283333333333333215e+00,1.643851793293258905e+09,3.534128420048743280e-02,-1.439109229768373410e+00,-5.189156761527899953e+00,-1.890933858485313035e-01,1.780830850104906382e-01,1.936057694934218421e-01,5.991284934199905265e-01
7.299999999999999822e+00,1.643851793311248779e+09,4.187924761538190654e-02,-1.538392021450424529e+00,-5.393989569766071135e+00,-2.531928386785423091e-01,2.124536480375958103e-01,2.033253531875551523e-01,5.673099368356433470e-01
7.316666666666666430e+00,1.643851793329201937e+09,4.809155513316133029e-02,-1.598018831412507668e+00,-5.728645988859418559e+00,-2.211431122635373892e-01,2.524073253269720762e-01,2.125163051372935819e-01,5.356921264511460556e-01
7.333333333333333037e+00,1.643851793345144033e+09,5.397064910664037957e-02,-1.357123909047898813e+00,-4.765066299400983141e+00,-2.211431122635373892e-01,2.973811766325588080e-01,2.212241449860300191e-01,5.093219077288206886e-01
7.349999999999999645e+00,1.643851793362214565e+09,5.951234962237995918e-02,-1.221045417137765821e+00,-4.124603152515436300e+00,-2.531928386785423091e-01,3.467606602979332875e-01,2.295217390052869399e-01,4.864529010955665478e-01
7.366666666666666252e+00,1.643851793380421638e+09,6.471593597624017424e-02,-1.102525383315243301e+00,-3.746672196470361538e+00,-2.211431122635373892e-01,3.998851159083346429e-01,2.374650492151229031e-01,4.667989197622821052e-01
7.383333333333332860e+00,1.643851793397835016e+09,6.958419168929241838e-02,-1.077518202914540701e+00,-3.550494295622536267e+00,-2.531928386785423091e-01,4.560536452549269759e-01,2.450947197166473135e-01,4.488115066330974900e-01
7.399999999999999467e+00,1.643851793415758610e+09,7.412341225321217308e-02,-8.902438527639799926e-01,-2.993695253510326282e+00,-1.890933858485313035e-01,5.145313430322814297e-01,2.524610278253115458e-01,4.351833233622382502e-01
7.416666666666666963e+00,1.643851793431736231e+09,7.834337517749397073e-02,-6.642587188446709145e-01,-2.185903897078104396e+00,-1.570436594335263836e-01,5.745558258201225454e-01,2.596415856685717616e-01,4.265077173019022339e-01
7.433333333333333570e+00,1.643851793446696281e+09,8.225727230011281588e-02,-4.147212329088308391e-01,-1.476201491069795368e+00,-6.089448018850930622e-02,6.353440054444632334e-01,2.667216106923017138e-01,4.231047384870995076e-01
7.450000000000000178e+00,1.643851793465099335e+09,8.588160471468697654e-02,-2.820249967426522453e-01,-1.233864084140128936e+00,3.525469905650659153e-02,6.960990507915453263e-01,2.737721090111127076e-01,4.229554744024367485e-01
7.466666666666666785e+00,1.643851793481603146e+09,8.923604105677808429e-02,4.568165672563296309e-01,1.529203813365762166e+00,9.935415188651879059e-02,7.560174805766153305e-01,2.809304653405088614e-01,4.360110188702563394e-01
7.483333333333333393e+00,1.643851793498998880e+09,9.234324027573827254e-02,5.251622491063420162e-01,1.514139003030767539e+00,1.955033311315334810e-01,8.142963284614067598e-01,2.883221002826147350e-01,4.509436935542796010e-01
7.500000000000000000e+00,1.643851793516572714e+09,9.522864039271050629e-02,6.258972731765940489e-01,1.628631561576724174e+00,2.916525103765505444e-01,8.701403212772675921e-01,2.959821773995833794e-01,4.682175763448753192e-01
7.516666666666666607e+00,1.643851793532530785e+09,9.792021510594668687e-02,7.228660946630973694e-01,1.728059309787686626e+00,3.878016896215676357e-01,9.227690109527824092e-01,3.039484291686382900e-01,4.876785763360850234e-01
7.533333333333333215e+00,1.643851793554425001e+09,1.004482004481362933e-01,8.371594480348422129e-01,1.896785185539622054e+00,4.839508688665823399e-01,9.714238010634486109e-01,3.122588494534016546e-01,5.095112102029598633e-01
7.549999999999999822e+00,1.643851793568434477e+09,1.028447940231746321e-01,9.425467186550668952e-01,2.222185088775498585e+00,5.160005952815897023e-01,1.015374809718105675e+00,3.209507581126450071e-01,5.334513270166026944e-01
7.566666666666666430e+00,1.643851793584537268e+09,1.051438296485773805e-01,1.037322220316056587e+00,2.408988736929428054e+00,5.801000481115994312e-01,1.053927511761878932e+00,3.300567774559253209e-01,5.591994698746213244e-01
7.583333333333333037e+00,1.643851793601064205e+09,1.073804305014076643e-01,1.059033391852325590e+00,2.303535064584467662e+00,6.441995009416116025e-01,1.086429105003299922e+00,3.395958640612884993e-01,5.854180915501852045e-01
7.599999999999999645e+00,1.643851793618171215e+09,1.095906441072918430e-01,1.125185753876825956e+00,2.375846154192439830e+00,7.082989537716214423e-01,1.112274547345060371e+00,3.495810131481129068e-01,6.127239474837256061e-01
7.616666666666666252e+00,1.643851793635071993e+09,1.118110627214289610e-01,1.189898036592564434e+00,2.538546105810378428e+00,7.403486801866263622e-01,1.130912214301731389e+00,3.600290006720212599e-01,6.409561308080554687e-01
7.633333333333332860e+00,1.643851793649601221e+09,1.140784328250386281e-01,1.236532546906311092e+00,2.628934967820343527e+00,7.723984066016336136e-01,1.141849129398360585e+00,3.709515769354247983e-01,6.696732491497298101e-01
7.649999999999999467e+00,1.643851793666887045e+09,1.164292575988333245e-01,1.264336044301313411e+00,2.643999778155337932e+00,8.044481330166385336e-01,1.144655723341139186e+00,3.823530332962309930e-01,6.984216555829644291e-01
7.666666666666666963e+00,1.643851793682952404e+09,1.188993963350437749e-01,1.240919186557335019e+00,2.454183167934409937e+00,8.364978594316434535e-01,1.138970081605595874e+00,3.942256393682671556e-01,7.262138706469770666e-01
7.683333333333333570e+00,1.643851793700525999e+09,1.215236648103992373e-01,1.224281493464104198e+00,2.291483216316472227e+00,8.685475858466483734e-01,1.124501644170748715e+00,4.065533139558217823e-01,7.530325816866699773e-01
7.700000000000000178e+00,1.643851793717702866e+09,1.243354406633055964e-01,1.285980814112845483e+00,2.442131319666414946e+00,9.005973122616556248e-01,1.101034325506565992e+00,4.193295434701448388e-01,7.800399378326704491e-01
7.716666666666666785e+00,1.643851793734853745e+09,1.273662777990610950e-01,1.335561884768852181e+00,2.448157243800412441e+00,9.646967650916654646e-01,1.068429027561709210e+00,4.325545100195917758e-01,8.068814864887329241e-01
7.733333333333333393e+00,1.643851793751618147e+09,1.306455337872872435e-01,1.293314014106131227e+00,2.183016581904513753e+00,9.967464915066702735e-01,1.026625523362512116e+00,4.462115191273777204e-01,8.318901363387577463e-01
7.750000000000000000e+00,1.643851793771809340e+09,1.342000141162458249e-01,1.270650396878904465e+00,1.996212933750584506e+00,1.028796217921677636e+00,9.756436938835105765e-01,4.602717129129554885e-01,8.552681773992202308e-01
7.766666666666666607e+00,1.643851793787765503e+09,1.380536370303308558e-01,1.262364751194657631e+00,1.963070351013597614e+00,1.028796217921677636e+00,9.155841060443959956e-01,4.747088718517548656e-01,8.771301660810717493e-01
7.783333333333333215e+00,1.643851793803108215e+09,1.422271225007836759e-01,1.297700653757156708e+00,2.008264782018579719e+00,1.060845944336682445e+00,8.466279249866215384e-01,4.895027340301585372e-01,8.980751135483977521e-01
7.799999999999999822e+00,1.643851793820062876e+09,1.467377086674636621e-01,1.296260574448394598e+00,2.098653644028545706e+00,1.028796217921677636e+00,7.690361591431021937e-01,5.046318698218688059e-01,9.173675899832124392e-01
7.816666666666666430e+00,1.643851793839162827e+09,1.515988988429898543e-01,1.280442523596650561e+00,2.035381440621569560e+00,1.028796217921677636e+00,6.831482419931297345e-01,5.200658345219723033e-01,9.346601380429385708e-01
7.833333333333333037e+00,1.643851793855352879e+09,1.568202418923253516e-01,1.256338827060659913e+00,1.938966654477606077e+00,1.028796217921677636e+00,5.893799597498718956e-01,5.357693393645144297e-01,9.497186129805720300e-01
7.849999999999999645e+00,1.643851793873391867e+09,1.624071484933552745e-01,1.269077514120667827e+00,1.893772223472623528e+00,1.060845944336682445e+00,4.882207395157031060e-01,5.517095262171169967e-01,9.630667303552423730e-01
7.866666666666666252e+00,1.643851793889738321e+09,1.683607454502275558e-01,1.239767535692166245e+00,1.872681489003631627e+00,1.028796217921677636e+00,3.802303176199770540e-01,5.678513740441968327e-01,9.739248467500315476e-01
7.883333333333332860e+00,1.643851793903844118e+09,1.746777698743898488e-01,-4.534466677655640127e-02,-3.267767320871258541e+00,1.028796217921677636e+00,2.660348128825948955e-01,5.839794176706686324e-01,9.614749722253270736e-01
7.899999999999999467e+00,1.643851793922983408e+09,1.813505046716827884e-01,-2.023391848800236426e-01,-3.991894572530142238e+00,1.060845944336682445e+00,1.463222343849285290e-01,5.998634640490254633e-01,9.446573100053853311e-01
7.916666666666666963e+00,1.643851793938491583e+09,1.883667563813828383e-01,-2.631598361002447373e-01,-4.139027998166011635e+00,1.028796217921677636e+00,2.183745793853075767e-02,6.154439444428159156e-01,9.250547899755663384e-01
7.933333333333333570e+00,1.643851793954783916e+09,1.957098760082476852e-01,-4.651076752083001531e-01,-4.946819354598233076e+00,1.028796217921677636e+00,-1.066232902152747242e-01,6.306547874803533071e-01,9.003150975143027201e-01
7.950000000000000178e+00,1.643851793971711636e+09,2.033588230756518400e-01,-5.821852244657665931e-01,-5.318980372383077082e+00,9.967464915066702735e-01,-2.382183999002859265e-01,6.454223725771365272e-01,8.718741186780852859e-01
7.966666666666666785e+00,1.643851793988666534e+09,2.112882727105043768e-01,-8.461475560521803940e-01,-6.086382160993688117e+00,9.005973122616556248e-01,-3.720672474123782880e-01,6.596649237636174057e-01,8.373279874338617201e-01
7.983333333333333393e+00,1.643851794006625891e+09,2.194687651531584682e-01,-1.063465438762030368e+00,-6.571056974853021870e+00,7.723984066016336136e-01,-5.072569202109307174e-01,6.732877891054549480e-01,7.975264161091414339e-01
8.000000000000000000e+00,1.643851794025541067e+09,2.278668966719013811e-01,-1.392824518570759285e+00,-7.696194935597901576e+00,7.082989537716214423e-01,-6.428492433138052187e-01,6.861885730183375776e-01,7.506977361648494718e-01
8.016666666666665719e+00,1.643851794040547609e+09,2.364455504558692911e-01,-1.801035306662928992e+00,-9.040590550231527800e+00,6.121497745266043511e-01,-7.778880522737973147e-01,6.982403130273779901e-01,6.956639401735302819e-01
8.033333333333333215e+00,1.643851794056504965e+09,2.451641656665356495e-01,-1.998407048768891636e+00,-9.637779160165349523e+00,5.480503216965945112e-01,-9.114066555105378997e-01,7.093367216589888669e-01,6.360706364705955851e-01
8.050000000000000711e+00,1.643851794075439215e+09,2.539790424498806209e-01,-2.145764430073449969e+00,-9.842611968403518929e+00,4.198514160365725556e-01,-1.042435427117468727e+00,7.194096887847134525e-01,5.728610050583556879e-01
8.066666666666666430e+00,1.643851794092531681e+09,2.628436803530075361e-01,-2.089010245422367795e+00,-9.230998512819123647e+00,2.916525103765505444e-01,-1.170009470077033154e+00,7.284281109252311870e-01,5.095255876595146116e-01
8.083333333333333925e+00,1.643851794106643200e+09,2.717091472535851926e-01,-2.292624524764171223e+00,-9.660858913206270771e+00,1.634536047165285888e-01,-1.293176289104465804e+00,7.363545555268607989e-01,4.418357961600744011e-01
8.099999999999999645e+00,1.643851794124542952e+09,2.805244756015865537e-01,-2.528931006307572726e+00,-1.012533894315479621e+01,3.204972641501691987e-03,-1.411003412110787947e+00,7.431132731744473086e-01,3.694115048721818284e-01
8.116666666666667140e+00,1.643851794141532898e+09,2.892370824934322737e-01,-2.547907261322011063e+00,-9.816647246232482971e+00,-1.249939330185202979e-01,-1.522585899528909659e+00,7.486568897411695067e-01,2.960263356246110034e-01
8.133333333333332860e+00,1.643851794159768581e+09,2.977932098514433079e-01,-2.925813529728857443e+00,-1.075137724438977038e+01,-3.172922915085532591e-01,-1.627053681483242586e+00,7.529209304054323981e-01,2.158811747734797892e-01
8.150000000000000355e+00,1.643851794175765514e+09,3.061383807693047188e-01,-3.131591535918246461e+00,-1.118989255216725809e+01,-4.454911971685752703e-01,-1.723578663996526483e+00,7.558185338388099250e-01,1.320640680081894280e-01
8.166666666666666075e+00,1.643851794193950653e+09,3.142178679087260784e-01,-3.488345478643954056e+00,-1.213616242684500612e+01,-6.057398292436033671e-01,-1.811381547109019330e+00,7.572693599427688937e-01,4.228445814168095562e-02
8.183333333333333570e+00,1.643851794210762978e+09,3.219771696959886076e-01,-3.363794519435166386e+00,-1.125336187302979241e+01,-7.339387349036241570e-01,-1.889738299922010256e+00,7.572426399869685021e-01,-4.524770222513825602e-02
8.199999999999999289e+00,1.643851794227885723e+09,3.293624899704762909e-01,-3.366903444233971143e+00,-1.088120085524494840e+01,-8.621376405636461682e-01,-1.957986240153029689e+00,7.557592848315840550e-01,-1.325125084762038274e-01
8.216666666666666785e+00,1.643851794244242907e+09,3.363212166821299420e-01,-3.922968900244538037e+00,-1.281701514155216337e+01,-9.582868198086632594e-01,-2.015529668784622253e+00,7.527488173319439868e-01,-2.284770171270497363e-01
8.233333333333332504e+00,1.643851794260051012e+09,3.428023952212678194e-01,-4.035234053012106692e+00,-1.307377739413240469e+01,-1.022386272638674320e+00,-2.061845013778627500e+00,7.481302928031302590e-01,-3.254764770447482469e-01
8.250000000000000000e+00,1.643851794277181625e+09,3.487571919929303710e-01,-3.843371262040339964e+00,-1.201787869251028873e+01,-1.118535451883690079e+00,-2.096485440586843829e+00,7.419302238542130334e-01,-4.182740198062840364e-01
8.266666666666665719e+00,1.643851794296071291e+09,3.541393439184239433e-01,-3.889045825327457351e+00,-1.210442776641374074e+01,-1.150585178298696221e+00,-2.119084891288616213e+00,7.341869163946341814e-01,-5.106662242903063920e-01
8.283333333333333215e+00,1.643851794311388254e+09,3.589055896586370586e-01,-3.720511430703528966e+00,-1.133414100867301322e+01,-1.182634904713701030e+00,-2.129361518592160607e+00,7.249383587594943057e-01,-5.989155491434280387e-01
8.300000000000000711e+00,1.643851794327212811e+09,3.630160785058931250e-01,-3.752246091134795236e+00,-1.146107965039807652e+01,-1.182634904713701030e+00,-2.127120485617328693e+00,7.142270944097108831e-01,-6.861937277395133705e-01
8.316666666666666430e+00,1.643851794344614744e+09,3.664347530822542054e-01,-4.051797937872040123e+00,-1.256313785810203854e+01,-1.214684631128707171e+00,-2.112256107293873253e+00,7.020339274803815144e-01,-7.767347948962826099e-01
8.333333333333333925e+00,1.643851794363825083e+09,3.691297022105505810e-01,-3.793593200726740555e+00,-1.153031890952084026e+01,-1.214684631128707171e+00,-2.084753314324499840e+00,6.883837104090984038e-01,-8.610570197425201355e-01
8.349999999999999645e+00,1.643851794382768154e+09,3.710734805878119769e-01,-3.749112478697760320e+00,-1.125624684215990712e+01,-1.246734357543712202e+00,-2.044688425934721998e+00,6.733514470333783475e-01,-9.425881047773413401e-01
8.366666666666667140e+00,1.643851794397838593e+09,3.722433921868263385e-01,-3.557498331032913352e+00,-1.039364107225549994e+01,-1.278784083958718121e+00,-1.992229223020562490e+00,6.570053048875253987e-01,-1.018737421865713033e+00
8.383333333333332860e+00,1.643851794414066315e+09,3.726217346373794648e-01,-3.344731857686926269e+00,-9.542575178871551600e+00,-1.278784083958718121e+00,-1.927634318768520316e+00,6.394388345304080623e-01,-1.089043721116186525e+00
8.400000000000000355e+00,1.643851794431568623e+09,3.721960021913593430e-01,-3.513017609003934005e+00,-1.011956900489456679e+01,-1.310833810373723152e+00,-1.851251829316431285e+00,6.206976095358636147e-01,-1.159706986760314695e+00
8.416666666666666075e+00,1.643851794447606325e+09,3.709590452519098691e-01,-3.282941320877256874e+00,-9.199263852387856488e+00,-1.310833810373723152e+00,-1.763517352505604263e+00,6.008323196741915950e-01,-1.223949341455023765e+00
8.433333333333333570e+00,1.643851794465785027e+09,3.689091848426878095e-01,-3.263467779248979461e+00,-9.121369685874748612e+00,-1.310833810373723152e+00,-1.664951268201456447e+00,5.799215007790587961e-01,-1.285178840017398239e+00
8.449999999999999289e+00,1.643851794483602762e+09,3.660502808052524815e-01,-3.187737339583458951e+00,-8.818447927212666571e+00,-1.310833810373723152e+00,-1.556155378987496229e+00,5.580241341587310888e-01,-1.342346352039919699e+00
8.466666666666666785e+00,1.643851794500782251e+09,3.623917529366742496e-01,-2.925926391025515549e+00,-7.771204132980892965e+00,-1.310833810373723152e+00,-1.437808915226172823e+00,5.352343792081240004e-01,-1.392285518860174154e+00
8.483333333333332504e+00,1.643851794518104553e+09,3.579485547117722821e-01,-2.872554462118387164e+00,-7.557716417352378535e+00,-1.310833810373723152e+00,-1.310663933485828547e+00,5.116441355189234041e-01,-1.438415581764377116e+00
8.500000000000000000e+00,1.643851794533311844e+09,3.527410996705311330e-01,-2.921598937330343038e+00,-7.753894318200202918e+00,-1.310833810373723152e+00,-1.175540142119507525e+00,4.873033182733903512e-01,-1.482360415843008150e+00
8.516666666666665719e+00,1.643851794549629927e+09,3.467951409873923918e-01,-2.694171318845976604e+00,-6.940333023507752053e+00,-1.278784083958718121e+00,-1.033319192307918577e+00,4.622872128536539837e-01,-1.519469152275836787e+00
8.533333333333333215e+00,1.643851794567826271e+09,3.401416051707966126e-01,-2.484538457937023992e+00,-6.294099938361974012e+00,-1.214684631128707171e+00,-8.849384771118224968e-01,4.367072029843328540e-01,-1.550047091323996318e+00
8.550000000000000711e+00,1.643851794582493782e+09,3.328163812646606767e-01,-2.194362760872653695e+00,-5.229546329349511247e+00,-1.182634904713701030e+00,-7.313844849833467388e-01,4.106830724038208480e-01,-1.572785414841084251e+00
8.566666666666666430e+00,1.643851794601441145e+09,3.248600673342186274e-01,-1.982093574140505021e+00,-4.765066299400983141e+00,-1.054435999053679129e+00,-5.736857577317086010e-01,3.843342105461634572e-01,-1.589032875181296989e+00
8.583333333333333925e+00,1.643851794619395494e+09,3.163176764129823071e-01,-1.733525973794114217e+00,-4.251541794240500494e+00,-8.941873669786521983e-01,-4.129055060969931690e-01,3.577733411197334679e-01,-1.598245863753052110e+00
8.599999999999999645e+00,1.643851794635331869e+09,3.072383044617472692e-01,-1.502740787204021711e+00,-3.616848585615181744e+00,-7.980381877336351071e-01,-2.501339388320658608e-01,3.311145526415686935e-01,-1.600801654042155464e+00
8.616666666666667140e+00,1.643851794651702881e+09,2.976747632408288102e-01,-1.326533714598312930e+00,-3.296617012172408767e+00,-6.698392820736143172e-01,-8.648036350537040284e-02,3.044604623878886529e-01,-1.597697798423536764e+00
8.633333333333332860e+00,1.643851794667093277e+09,2.876831813200310672e-01,-9.296265035387998310e-01,-2.093584884914422073e+00,-5.416403764135924170e-01,7.693488090389430378e-02,2.779350663722329196e-01,-1.585383929451796181e+00
8.650000000000000355e+00,1.643851794684047699e+09,2.773225767437380584e-01,-8.661695264953821471e-01,-2.128204514475803055e+00,-4.454911971685752703e-01,2.389885981529854542e-01,2.516443483579985929e-01,-1.569546226909935172e+00
8.666666666666666075e+00,1.643851794702997208e+09,2.666544051286066086e-01,2.972395596102174742e-01,2.140835112966529508e+00,-3.172922915085532591e-01,3.985629532479711967e-01,2.257981356744468704e-01,-1.532103305678746974e+00
8.683333333333333570e+00,1.643851794718954563e+09,2.557420871957307162e-01,4.077003086734783399e-01,2.198081392239507270e+00,-1.890933858485313035e-01,5.545536725146340551e-01,2.006076024528755664e-01,-1.490875206104040451e+00
8.699999999999999289e+00,1.643851794736885309e+09,2.446505199261313490e-01,5.694478146004563479e-01,2.556623878212371359e+00,-9.294420660351540575e-02,7.058781624852306091e-01,1.761417514388184391e-01,-1.445153922138555203e+00
8.716666666666666785e+00,1.643851794752864122e+09,2.334455756757907452e-01,7.929610429009116279e-01,3.162229253679141205e+00,3.204972641501691987e-03,8.514834854086221760e-01,1.524825896161056960e-01,-1.394087351510683526e+00
