# 
# 
# 
# 
# 
# 
# 
# 
# 
# 
# time,realtime,ref,inp,inp0,inp1,dis,state...
0.000000000000000000e+00,1.643852265056638002e+09,-0.000000000000000000e+00,-2.379692186314149582e-01,0.000000000000000000e+00,-3.172922915085532591e-01,-0.000000000000000000e+00,0.000000000000000000e+00,0.000000000000000000e+00
1.666666666666666644e-02,1.643852265060625315e+09,-1.561711184076722689e-06,-1.101971582266413480e-01,6.072374208641126980e-01,-3.493420179235594003e-01,0.000000000000000000e+00,-1.522048647947125269e-05,-1.821398817297884432e-03
3.333333333333333287e-02,1.643852265063637733e+09,-6.691268729974459906e-06,-2.379692186314149582e-01,0.000000000000000000e+00,-3.172922915085532591e-01,-1.680658071946835352e-05,-7.819630947143627845e-05,-5.724856747841493981e-03
5.000000000000000278e-02,1.643852265078601360e+09,-1.605986743094503548e-05,-1.245087280448858580e-01,5.499911415911347135e-01,-3.493420179235594003e-01,-7.078232738679268471e-05,-1.900268526657826387e-04,-7.689351377518358240e-03
6.666666666666666574e-02,1.643852265095552444e+09,-3.033985182165445775e-05,-9.745847116663237941e-02,5.620429898591303708e-01,-3.172922915085532591e-01,-1.654319140070676319e-04,-3.306045141137409671e-04,-9.175838767414391112e-03
8.333333333333332871e-02,1.643852265114481688e+09,-5.019876933532462941e-05,-2.620065134426695641e-01,0.000000000000000000e+00,-3.493420179235594003e-01,-3.017301304036715303e-04,-5.184979342948498526e-04,-1.335974940678450254e-02
1.000000000000000056e-01,1.643852265132172108e+09,-7.629376416783103306e-05,-2.620065134426695641e-01,0.000000000000000000e+00,-3.493420179235594003e-01,-4.780548701139220491e-04,-7.755696687013295936e-04,-1.747742047759107825e-02
1.166666666666666685e-01,1.643852265149131298e+09,-1.092664035943124643e-04,-2.620065134426695641e-01,0.000000000000000000e+00,-3.493420179235594003e-01,-6.901772001279686021e-04,-1.100729817947084356e-03,-2.153053850572528294e-02
1.333333333333333315e-01,1.643852265164186954e+09,-1.497380202888065864e-04,-2.379692186314149582e-01,0.000000000000000000e+00,-3.172922915085532591e-01,-9.313092131723620971e-04,-1.489595377764685660e-03,-2.512334840998413713e-02
1.499999999999999944e-01,1.643852265180645227e+09,-1.983056448149453550e-04,-2.620065134426695641e-01,0.000000000000000000e+00,-3.493420179235594003e-01,-1.192209370379908231e-03,-1.941200940769726140e-03,-2.905838822719658543e-02
1.666666666666666574e-01,1.643852265198779583e+09,-2.555385920136617585e-04,-2.620065134426695641e-01,0.000000000000000000e+00,-3.493420179235594003e-01,-1.461344048565785345e-03,-2.457884164081324072e-03,-3.293283596207224190e-02
1.833333333333333204e-01,1.643852265215802670e+09,-3.219757536532888171e-04,-1.101971582266413480e-01,6.072374208641126980e-01,-3.493420179235594003e-01,-1.725103027194043208e-03,-3.017674822283941162e-03,-3.423841632476688074e-02
2.000000000000000111e-01,1.643852265232760906e+09,-3.981236375810679753e-04,-2.379692186314149582e-01,0.000000000000000000e+00,-3.172922915085532591e-01,-1.968065700558502013e-03,-3.616726324650354138e-03,-3.763831956126668932e-02
2.166666666666666741e-01,1.643852265251652241e+09,-4.844551808854311004e-04,-9.519874961638329081e-02,5.710818760601267252e-01,-3.172922915085532591e-01,-2.173313895434508727e-03,-4.252282105191332665e-03,-3.862563150592267236e-02
2.333333333333333370e-01,1.643852265266603708e+09,-5.814093514159001394e-04,-8.088717979813875303e-02,6.283281553331048208e-01,-3.172922915085532591e-01,-2.322786327615449387e-03,-4.902200640834034062e-03,-3.936254573904254123e-02
2.500000000000000000e-01,1.643852265283766508e+09,-6.893915385882696048e-04,-8.985966427439899540e-02,6.885873966730822193e-01,-3.493420179235594003e-01,-2.397668955675126209e-03,-5.565548924259313204e-03,-4.023681967611849458e-02
2.666666666666666630e-01,1.643852265303868532e+09,-8.087747209069881364e-04,-8.534022117390079043e-02,7.066651690750750392e-01,-3.493420179235594003e-01,-2.378814799357537122e-03,-6.242720852935174092e-03,-4.102163168033027413e-02
2.833333333333333259e-01,1.643852265317353964e+09,-9.399013842461006888e-04,-9.663882892514640000e-02,6.614707380700924899e-01,-3.493420179235594003e-01,-2.247186194391069189e-03,-6.934406971787295329e-03,-4.197804581347044234e-02
2.999999999999999889e-01,1.643852265336613655e+09,-1.083086151825846631e-03,-9.061290479114880725e-02,6.855744346060829164e-01,-3.493420179235594003e-01,-1.984311965129802787e-03,-7.641032613826597916e-03,-4.281470711736911489e-02
3.166666666666666519e-01,1.643852265351940632e+09,-1.238619074182809900e-03,-8.458698065715108960e-02,7.096781311420737870e-01,-3.493420179235594003e-01,-1.572751619641386215e-03,-8.360597902285687999e-03,-4.353113736685656349e-02
3.333333333333333148e-01,1.643852265369257927e+09,-1.406769515430997784e-03,-9.739206944189622572e-02,6.584577760030931870e-01,-3.493420179235594003e-01,-9.965584154876117994e-04,-9.093693802358823394e-03,-4.443785193107315651e-02
3.499999999999999778e-01,1.643852265383175373e+09,-1.587790560916432607e-03,-5.226404016164960808e-02,7.428207138790614561e-01,-3.172922915085532591e-01,-2.417330135709753688e-04,-9.835439013184611029e-03,-4.457120293983438120e-02
3.666666666666666408e-01,1.643852265404574633e+09,-1.781923861136859013e-03,-7.554809445615448538e-02,7.458336759460602039e-01,-3.493420179235594003e-01,7.033405646528044378e-04,-1.058247379347825728e-02,-4.507158072439909624e-02
3.833333333333333037e-01,1.643852265417850494e+09,-1.989404817678018782e-03,-5.521060050391222301e-02,8.271836517550292811e-01,-3.493420179235594003e-01,1.847484833121455653e-03,-1.133481203649560828e-02,-4.520862774256158984e-02
4.000000000000000222e-01,1.643852265436998844e+09,-2.210468009043578107e-03,-5.301728067839930197e-02,7.398077518120625973e-01,-3.172922915085532591e-01,3.196352488810144232e-03,-1.208892621877745086e-02,-4.528486236343956528e-02
4.166666666666666852e-01,1.643852265455056667e+09,-2.445352747747114690e-03,-6.205616687939594089e-02,7.036522070080760694e-01,-3.172922915085532591e-01,4.752091324140083652e-03,-1.284533402455807251e-02,-4.548352248357987598e-02
4.333333333333333481e-01,1.643852265471013546e+09,-2.694308654996387282e-03,-8.232725910690188997e-02,7.187170173430705855e-01,-3.493420179235594003e-01,6.513057408467064907e-03,-1.360758202116502807e-02,-4.598484451528016964e-02
4.500000000000000111e-01,1.643852265487967968e+09,-2.957601135819362941e-03,-3.110690396792137324e-02,9.235984378989926524e-01,-3.493420179235594003e-01,8.473582916965689479e-03,-1.437077077234706797e-02,-4.559887778161406113e-02
4.666666666666666741e-01,1.643852265503925085e+09,-3.235516635627404790e-03,-5.377052119514899586e-02,7.367947897450638495e-01,-3.172922915085532591e-01,1.062380424977370924e-02,-1.513041337502904309e-02,-4.555834712802167563e-02
4.833333333333333370e-01,1.643852265520894766e+09,-3.528367559032748613e-03,-7.178189187240596736e-02,7.608984862810542760e-01,-3.493420179235594003e-01,1.294955524881890967e-02,-1.589155257054853526e-02,-4.577774687622863242e-02
5.000000000000000000e-01,1.643852265537842989e+09,-3.836496733264809552e-03,-1.610849535766332996e-02,8.874428930950065686e-01,-3.172922915085532591e-01,1.543232939533326943e-02,-1.664828556562546191e-02,-4.503228331385721039e-02
5.166666666666666075e-01,1.643852265555786610e+09,-4.160281301771378767e-03,-1.302913156592823418e-02,9.959095275069651532e-01,-3.493420179235594003e-01,1.804931387008566410e-02,-1.739191034933051591e-02,-4.420498882508286376e-02
5.333333333333333259e-01,1.643852265572744608e+09,-4.500135938534599589e-03,1.969277044329695477e-03,9.597539827029786252e-01,-3.172922915085532591e-01,2.077349729451079610e-02,-1.811941330462869121e-02,-4.309843963080401547e-02
5.500000000000000444e-01,1.643852265590693712e+09,-4.856515280244075826e-03,-4.843143585316481148e-02,8.543003103580188995e-01,-3.493420179235594003e-01,2.357385185892216933e-02,-1.883520119572657317e-02,-4.279694480627684039e-02
5.666666666666666519e-01,1.643852265606049061e+09,-5.229915481697272259e-03,-1.460201432416393871e-02,8.934688172290040642e-01,-3.172922915085532591e-01,2.641558939948970494e-02,-1.954094077690939762e-02,-4.189431230717192284e-02
5.833333333333333703e-01,1.643852265623340845e+09,-5.620874809565157629e-03,-1.905505569992594836e-02,9.718058309709743936e-01,-3.493420179235594003e-01,2.926048982493343123e-02,-2.023198327238877672e-02,-4.103317924294241914e-02
5.999999999999999778e-01,1.643852265638451815e+09,-6.029973200874869793e-03,-6.650920825515795054e-02,7.819892207500462877e-01,-3.493420179235594003e-01,3.206729913366352519e-02,-2.091495920358645705e-02,-4.092423513043631084e-02
6.166666666666666963e-01,1.643852265657355070e+09,-6.457830725108023445e-03,-6.424948670490875091e-02,7.910281069510430862e-01,-3.493420179235594003e-01,3.479219311935190934e-02,-2.159544596940587632e-02,-4.073470325770950362e-02
6.333333333333333037e-01,1.643852265675291061e+09,-6.905104902560853762e-03,-3.939254965216820725e-02,8.904558551620053164e-01,-3.493420179235594003e-01,3.738930175459246469e-02,-2.226900808242747790e-02,-4.009452860964749649e-02
6.500000000000000222e-01,1.643852265692704916e+09,-7.372486846413966836e-03,-6.876892980540708078e-02,7.729503345490498223e-01,-3.493420179235594003e-01,3.981128818509797884e-02,-2.293571199353364870e-02,-3.991045205887980979e-02
6.666666666666666297e-01,1.643852265711931944e+09,-7.860696211651113652e-03,-5.822356257091104020e-02,8.151318034870339568e-01,-3.493420179235594003e-01,4.200997527701383349e-02,-2.359761317172958534e-02,-3.951877733558215727e-02
6.833333333333333481e-01,1.643852265728893518e+09,-8.370474950372071982e-03,-1.192360444276378689e-01,5.710818760601267252e-01,-3.493420179235594003e-01,4.393701175290251615e-02,-2.426120144737671513e-02,-4.011017293784728543e-02
6.999999999999999556e-01,1.643852265745968819e+09,-8.902579889976110911e-03,-7.335477463064166148e-02,6.584577760030931870e-01,-3.172922915085532591e-01,4.554456914234944476e-02,-2.492800545203270948e-02,-3.990687235799616345e-02
7.166666666666666741e-01,1.643852265759219170e+09,-9.457774167951979102e-03,-9.519874961638329081e-02,5.710818760601267252e-01,-3.172922915085532591e-01,4.678606007437953462e-02,-2.559429481904625797e-02,-4.004746115001601298e-02
7.333333333333332815e-01,1.643852265779178858e+09,-1.003681757439229931e-02,-8.157401859015220302e-02,7.217299794100693333e-01,-3.493420179235594003e-01,4.761686786303667707e-02,-2.626091130816535918e-02,-3.994679717301550387e-02
7.500000000000000000e-01,1.643852265794139624e+09,-1.064045587064475079e-02,-6.958857204689303244e-02,6.735225863380877032e-01,-3.172922915085532591e-01,4.799507689511306463e-02,-2.692415629381600742e-02,-3.964344377322785024e-02
7.666666666666666075e-01,1.643852265812090158e+09,-1.126940916950487301e-02,-5.452376171189880077e-02,7.337818276780646576e-01,-3.172922915085532591e-01,4.788219302897286228e-02,-2.758032212124868210e-02,-3.909797075717727499e-02
7.833333333333333259e-01,1.643852265828618765e+09,-1.192435947883285947e-02,-8.383374014040127775e-02,7.126910932090729789e-01,-3.493420179235594003e-01,4.724384306270454359e-02,-2.823160855081357015e-02,-3.905651594557400103e-02
8.000000000000000444e-01,1.643852265846548796e+09,-1.260593752622568391e-02,3.442502098930361881e-02,1.185726137727892704e+00,-3.493420179235594003e-01,4.605044233351115318e-02,-2.886604066662024071e-02,-3.708082610772042015e-02
8.166666666666666519e-01,1.643852265864150047e+09,-1.331470899718933953e-02,4.045094512330133646e-02,1.209829834263883575e+00,-3.493420179235594003e-01,4.427781967128981144e-02,-2.946723003360734311e-02,-3.506749066082346517e-02
8.333333333333333703e-01,1.643852265880850315e+09,-1.405116033293126072e-02,1.559400807056078760e-02,1.110402086052921344e+00,-3.493420179235594003e-01,4.190778924862595400e-02,-3.003890249504252707e-02,-3.353745491073516910e-02
8.499999999999999778e-01,1.643852265896658182e+09,-1.481568424623858245e-02,4.490398649906338080e-02,1.131492820521913467e+00,-3.172922915085532591e-01,3.892865934561488134e-02,-3.058164886000747790e-02,-3.159749778169224782e-02
8.666666666666666963e-01,1.643852265914813042e+09,-1.560856512474221268e-02,2.312641323805804047e-02,1.140531706722910377e+00,-3.493420179235594003e-01,3.533566867752673674e-02,-3.109583474895075833e-02,-3.010894386082255472e-02
8.833333333333333037e-01,1.643852265930394173e+09,-1.642996450002123104e-02,-4.843143585316481148e-02,8.543003103580188995e-01,-3.493420179235594003e-01,3.113134171066742062e-02,-3.159588131525012389e-02,-2.989723219689814290e-02
9.000000000000000222e-01,1.643852265948397160e+09,-1.727990676832666384e-02,-3.110690396792137324e-02,9.235984378989926524e-01,-3.493420179235594003e-01,2.632575530906442959e-02,-3.209069947254128419e-02,-2.948209985058793114e-02
9.166666666666666297e-01,1.643852265965744257e+09,-1.815826535406120032e-02,-5.000431861140051948e-02,7.518596000800578105e-01,-3.172922915085532591e-01,2.093671010194630977e-02,-3.258201055363355719e-02,-2.947524891131989358e-02
9.333333333333333481e-01,1.643852265983939409e+09,-1.906474951042868085e-02,-1.199892849443875559e-01,5.680689139931278664e-01,-3.493420179235594003e-01,1.498980112757977191e-02,-3.308369614716511614e-02,-3.072355471473512886e-02
9.499999999999999556e-01,1.643852265999057293e+09,-1.999889195276861181e-02,-2.620065134426695641e-01,0.000000000000000000e+00,-3.493420179235594003e-01,8.518383579226497526e-03,-3.362652374668334554e-02,-3.440552927960761898e-02
9.666666666666666741e-01,1.643852266017350197e+09,-2.096003751894517930e-02,-2.379692186314149582e-01,0.000000000000000000e+00,-3.172922915085532591e-01,1.563430838448692838e-03,-3.422784961117498331e-02,-3.774429987833208960e-02
9.833333333333332815e-01,1.643852266035282373e+09,-2.194733304771823157e-02,-2.620065134426695641e-01,0.000000000000000000e+00,-3.493420179235594003e-01,-5.826716587075316325e-03,-3.488870127365411439e-02,-4.154733538301537410e-02
1.000000000000000000e+00,1.643852266055252314e+09,-2.295971866026199487e-02,-2.620065134426695641e-01,0.000000000000000000e+00,-3.493420179235594003e-01,-1.359671111780026351e-02,-3.561348477957137354e-02,-4.541593895310594431e-02
1.016666666666666607e+00,1.643852266067468643e+09,-2.399592062191661240e-02,-2.620065134426695641e-01,0.000000000000000000e+00,-3.493420179235594003e-01,-2.168466552381134727e-02,-3.640332779049960249e-02,-4.935428225828573240e-02
1.033333333333333215e+00,1.643852266084959507e+09,-2.505444595088488630e-02,-2.620065134426695641e-01,0.000000000000000000e+00,-3.493420179235594003e-01,-3.002272455223647246e-02,-3.725941754744518247e-02,-5.336534646792191749e-02
1.050000000000000044e+00,1.643852266104158401e+09,-2.613357892797421936e-02,-2.620065134426695641e-01,0.000000000000000000e+00,-3.493420179235594003e-01,-3.853773606827334136e-02,-3.818298046200066520e-02,-5.745085437854881294e-02
1.066666666666666652e+00,1.643852266118165970e+09,-2.723137964671037275e-02,-2.620065134426695641e-01,0.000000000000000000e+00,-3.493420179235594003e-01,-4.715201551301228394e-02,-3.917526069125061572e-02,-6.161121629856022852e-02
1.083333333333333259e+00,1.643852266134934902e+09,-2.834568472631876154e-02,-2.379692186314149582e-01,0.000000000000000000e+00,-3.172922915085532591e-01,-5.578419602420126022e-02,-4.023417789249596893e-02,-6.544818934157514700e-02
1.100000000000000089e+00,1.643852266150891781e+09,-2.947411029130758003e-02,-2.379692186314149582e-01,0.000000000000000000e+00,-3.172922915085532591e-01,-6.435015517731026979e-02,-4.135769781437938913e-02,-6.936332564983714588e-02
1.116666666666666696e+00,1.643852266168822765e+09,-3.061405730085025451e-02,-2.379692186314149582e-01,0.000000000000000000e+00,-3.172922915085532591e-01,-7.276400800397850310e-02,-4.254709137303742950e-02,-7.335281920176900394e-02
1.133333333333333304e+00,1.643852266185036182e+09,-3.176271928902384134e-02,-2.379692186314149582e-01,0.000000000000000000e+00,-3.172922915085532591e-01,-8.093915475268312343e-02,-4.380355461540239026e-02,-7.741149551580567278e-02
1.149999999999999911e+00,1.643852266201990128e+09,-3.291709255341278978e-02,-2.620065134426695641e-01,0.000000000000000000e+00,-3.493420179235594003e-01,-8.878937079069060267e-02,-4.513150619551308668e-02,-8.193014200625098331e-02
1.166666666666666741e+00,1.643852266220437050e+09,-3.407398880484953374e-02,-1.094439177098916610e-01,6.102503829311115569e-01,-3.493420179235594003e-01,-9.622992512417873068e-02,-4.651410010398681488e-02,-8.397544547834509543e-02
1.183333333333333348e+00,1.643852266237950802e+09,-3.523005026536690787e-02,-2.620065134426695641e-01,0.000000000000000000e+00,-3.493420179235594003e-01,-1.031787132504563415e-01,-4.795253169725619685e-02,-8.862343432996114267e-02
1.199999999999999956e+00,1.643852266253160954e+09,-3.638176717503101287e-02,-2.379692186314149582e-01,0.000000000000000000e+00,-3.172922915085532591e-01,-1.095573894662329045e-01,-4.946534877163490107e-02,-9.290272739054324103e-02
1.216666666666666563e+00,1.643852266271373510e+09,-3.752549764146936168e-02,-8.766634444888617150e-02,6.012114967301152024e-01,-3.172922915085532591e-01,-1.152924833507268931e-01,-5.102892856498061208e-02,-9.472179472719108317e-02
1.233333333333333393e+00,1.643852266286433458e+09,-3.865748973887953022e-02,-8.985966427439899540e-02,6.885873966730822193e-01,-3.493420179235594003e-01,-1.203164849316392948e-01,-5.262357175681614541e-02,-9.663008735545618177e-02
1.250000000000000000e+00,1.643852266305441618e+09,-3.977390573637903243e-02,-5.979644532914670657e-02,7.126910932090729789e-01,-3.172922915085532591e-01,-1.245688830329359370e-01,-5.424619124800560827e-02,-9.808022333696810036e-02
1.266666666666666607e+00,1.643852266323393345e+09,-4.087084830902356497e-02,-2.620065134426695641e-01,0.000000000000000000e+00,-3.493420179235594003e-01,-1.279971415007323532e-01,-5.592118224698994222e-02,-1.029052932537071335e-01
1.283333333333333215e+00,1.643852266339351177e+09,-4.194438855896558127e-02,-8.458698065715108960e-02,7.096781311420737870e-01,-3.493420179235594003e-01,-1.305575984095240782e-01,-5.765177301404571936e-02,-1.047604454710959476e-01
1.300000000000000044e+00,1.643852266353970766e+09,-4.299059564933778443e-02,-2.809394190092259075e-02,9.356502861669877547e-01,-3.493420179235594003e-01,-1.322162739650597496e-01,-5.940545300056866013e-02,-1.056786024156727150e-01
1.316666666666666652e+00,1.643852266371916771e+09,-4.400556782980850207e-02,-4.240551171916710077e-02,8.784040068940097701e-01,-3.493420179235594003e-01,-1.329495736390697846e-01,-6.117638679142045621e-02,-1.068302533807915372e-01
1.333333333333333259e+00,1.643852266388110399e+09,-4.498546461064806962e-02,-6.657560997989422913e-02,6.855744346060829164e-01,-3.172922915085532591e-01,-1.327448740888914069e-01,-6.296966581124623097e-02,-1.083589824287788522e-01
1.350000000000000089e+00,1.643852266403894186e+09,-4.592653982183317329e-02,-4.096543241040387362e-02,7.880151448840443384e-01,-3.172922915085532591e-01,-1.316009806231225321e-01,-6.478451721407867125e-02,-1.094202379098385275e-01
1.366666666666666696e+00,1.643852266422892570e+09,-4.682517527545871500e-02,-6.582236946314441728e-02,6.885873966730822193e-01,-3.172922915085532591e-01,-1.295284463614545800e-01,-6.662005662020778485e-02,-1.108405454341194057e-01
1.383333333333333304e+00,1.643852266439172029e+09,-4.767791473376079697e-02,-6.054968584589651842e-02,7.096781311420737870e-01,-3.172922915085532591e-01,-1.265497447889806781e-01,-6.847793195938468858e-02,-1.121009939388571131e-01
1.399999999999999911e+00,1.643852266456682682e+09,-4.848149787160620922e-02,-8.910642375764929457e-02,6.916003587400809671e-01,-3.493420179235594003e-01,-1.226992891062072266e-01,-7.036005312389334576e-02,-1.137489679887460636e-01
1.416666666666666741e+00,1.643852266473328114e+09,-4.923289391157338601e-02,-7.404161342265509760e-02,7.518596000800578105e-01,-3.493420179235594003e-01,-1.180232936072402594e-01,-7.226668629361687746e-02,-1.150434166028541233e-01
1.433333333333333348e+00,1.643852266492276430e+09,-4.992933460191618239e-02,-9.061290479114880725e-02,6.855744346060829164e-01,-3.493420179235594003e-01,-1.125794742595311593e-01,-7.419625174900819353e-02,-1.165003907983074710e-01
1.449999999999999956e+00,1.643852266507040501e+09,-5.056834620292039589e-02,-7.253513238915566819e-02,7.578855242140555282e-01,-3.493420179235594003e-01,-1.064365876866997934e-01,-7.614655350015119006e-02,-1.175329510484287299e-01
1.466666666666666563e+00,1.643852266522015810e+09,-5.114778014555736857e-02,-1.154698418438892399e-01,5.861466863951212414e-01,-3.493420179235594003e-01,-9.967380984728566040e-02,-7.811891805630270802e-02,-1.191463140204634674e-01
1.483333333333333393e+00,1.643852266540020704e+09,-5.166584202800922343e-02,-2.620065134426695641e-01,0.000000000000000000e+00,-3.493420179235594003e-01,-9.237995783138767958e-02,-8.013718144454169690e-02,-1.230344918201254356e-01
1.500000000000000000e+00,1.643852266557972908e+09,-5.212111862065110790e-02,-9.814530995864592655e-02,6.554448139360944392e-01,-3.493420179235594003e-01,-8.465256033769320843e-02,-8.219601085586579481e-02,-1.240222935804069920e-01
1.516666666666666607e+00,1.643852266572856665e+09,-5.251260255846233738e-02,-6.356264791289532867e-02,6.976262828740784627e-01,-3.172922915085532591e-01,-7.659678451817115985e-02,-8.426527795187593872e-02,-1.242890170249146276e-01
1.533333333333333215e+00,1.643852266592098951e+09,-5.283971441160171395e-02,-8.390014186513755634e-02,6.162763070651096076e-01,-3.172922915085532591e-01,-6.832422895928531859e-02,-8.634062001396357322e-02,-1.247507478099007111e-01
1.550000000000000044e+00,1.643852266609451294e+09,-5.310232183999264582e-02,1.025492272857664484e-02,9.928965654399664054e-01,-3.172922915085532591e-01,-5.995159457931247687e-02,-8.840943263770728588e-02,-1.235102130503359374e-01
1.566666666666666652e+00,1.643852266625787973e+09,-5.330075555615152588e-02,8.783869595379706352e-02,1.303231658340848087e+00,-3.172922915085532591e-01,-5.159924713401697199e-02,-9.044587148553823175e-02,-1.208697833888419809e-01
1.583333333333333259e+00,1.643852266643991232e+09,-5.343582184206288610e-02,1.865796053727457049e-01,1.794344475261661076e+00,-3.493420179235594003e-01,-4.338968681089167001e-02,-9.242389581756065009e-02,-1.165052604141220000e-01
1.600000000000000089e+00,1.643852266660945892e+09,-5.350881139052025143e-02,3.967337095459159135e-01,2.634960891954341911e+00,-3.493420179235594003e-01,-3.544594202970965946e-02,-9.429965714637332519e-02,-1.086080362933725535e-01
1.616666666666666696e+00,1.643852266678901196e+09,-5.352150426884847573e-02,4.275501690079179240e-01,2.662077550557331751e+00,-3.172922915085532591e-01,-2.788990603001834795e-02,-9.603958881348961807e-02,-1.002071002432912694e-01
1.633333333333333304e+00,1.643852266693020105e+09,-5.347617083310327729e-02,3.884480638616688575e-01,2.601818309217353686e+00,-3.493420179235594003e-01,-2.084063609166358216e-02,-9.764509237484263193e-02,-9.247480621910482423e-02
1.649999999999999911e+00,1.643852266711016417e+09,-5.337556845347794787e-02,3.929011052374310475e-01,2.523481295475384023e+00,-3.172922915085532591e-01,-1.441263628180525572e-02,-9.912128946259680939e-02,-8.469046798209022009e-02
1.666666666666666741e+00,1.643852266729106903e+09,-5.322293394647811121e-02,3.846818612779204782e-01,2.586753498882360169e+00,-3.493420179235594003e-01,-8.714145432732805716e-03,-1.004691709240929237e-01,-7.707645792317430189e-02
1.683333333333333348e+00,1.643852266743395329e+09,-5.302197164617118014e-02,5.201987525681324165e-01,3.032671884798189499e+00,-3.172922915085532591e-01,-3.845452613153648152e-03,-1.016718137418833462e-01,-6.726792677280089838e-02
1.699999999999999956e+00,1.643852266762343884e+09,-5.277683708516499317e-02,5.684725473648503113e-01,3.321916243230079502e+00,-3.493420179235594003e-01,1.027373515635480241e-04,-1.027051228731250265e-01,-5.675836289628565651e-02
1.716666666666666563e+00,1.643852266777280569e+09,-5.249211629559386028e-02,6.566016878245670707e-01,3.674432805068946539e+00,-3.493420179235594003e-01,3.050865737610969092e-03,-1.035521445548134717e-01,-4.491713198856091271e-02
1.733333333333333393e+00,1.643852266795042038e+09,-5.217280078093556456e-02,6.324315895638399354e-01,3.481603232781019575e+00,-3.172922915085532591e-01,4.931986852377666895e-03,-1.042065264694062021e-01,-3.364002380036455742e-02
1.750000000000000000e+00,1.643852266813158274e+09,-5.182425825058752100e-02,6.648209317840775290e-01,3.611160601661969949e+00,-3.172922915085532591e-01,5.693118280213440609e-03,-1.046699354207108329e-01,-2.200138068132174995e-02
1.766666666666666607e+00,1.643852266829431534e+09,-5.145219925041093906e-02,5.669660663313510485e-01,3.315890319096082450e+00,-3.493420179235594003e-01,5.296453527165416800e-03,-1.049545450722697282e-01,-1.217906236545424417e-02
1.783333333333333215e+00,1.643852266848771811e+09,-5.106263986352415490e-02,3.658508483591776939e-01,2.511429447207389032e+00,-3.493420179235594003e-01,3.720417268660231817e-03,-1.051048018992424421e-01,-5.869284444684224993e-03
1.800000000000000044e+00,1.643852266864957809e+09,-5.066186069609199261e-02,3.959804690291661156e-01,2.631947929887342497e+00,-3.493420179235594003e-01,9.605448013179374847e-04,-1.051469869472653473e-01,7.885841671800789682e-04
1.816666666666666652e+00,1.643852266881280184e+09,-5.025636240232156382e-02,4.569265491611564922e-01,2.779583071170285802e+00,-3.172922915085532591e-01,-2.969831037126800799e-03,-1.050712520690323809e-01,8.278794591014274756e-03
1.833333333333333259e+00,1.643852266900221348e+09,-4.985281804094221503e-02,4.200841655651569861e-01,2.728362716031305979e+00,-3.493420179235594003e-01,-8.039100301359309447e-03,-1.048775037604090798e-01,1.495246403678760112e-02
1.849999999999999867e+00,1.643852266914217949e+09,-4.945802259172621396e-02,4.026932319551772554e-01,2.562649802346368855e+00,-3.172922915085532591e-01,-1.419711639826661161e-02,-1.045767019909271400e-01,2.112659752658750667e-02
1.866666666666666696e+00,1.643852266933723688e+09,-4.907883999471724518e-02,2.814215087584734376e-01,2.077562909559553805e+00,-3.172922915085532591e-01,-2.137516688326490666e-02,-1.041915923178471787e-01,2.507559355142768842e-02
1.883333333333333304e+00,1.643852266948742390e+09,-4.872214810640888155e-02,2.136298622509992806e-01,1.806396323529656955e+00,-3.172922915085532591e-01,-2.948618235087741707e-02,-1.037516951951998473e-01,2.770475776044905095e-02
1.899999999999999911e+00,1.643852266964689255e+09,-4.839478199580322243e-02,1.179683166237856240e-01,1.423750141020802440e+00,-3.172922915085532591e-01,-3.842518846105644204e-02,-1.032827892909398831e-01,2.856157065890123706e-02
1.916666666666666741e+00,1.643852266983016253e+09,-4.810347602874908562e-02,1.248138829992693488e-01,1.547281585767755541e+00,-3.493420179235594003e-01,-4.807000329197816391e-02,-1.028001081487241869e-01,2.935795417847372052e-02
1.933333333333333348e+00,1.643852266998242617e+09,-4.785480521090590411e-02,8.859193647054676435e-02,1.306244620407846835e+00,-3.172922915085532591e-01,-5.828217925606939825e-02,-1.023106774489060400e-01,2.937368609889685900e-02
1.949999999999999956e+00,1.643852267016185999e+09,-4.765512627782066829e-02,1.634724858731063241e-02,1.113415048119920758e+00,-3.493420179235594003e-01,-6.890818579204836813e-02,-1.018324328649781452e-01,2.801942589488999602e-02
1.966666666666666563e+00,1.643852267035376549e+09,-4.751051903469484528e-02,6.530788217604187318e-02,1.309257582474845583e+00,-3.493420179235594003e-01,-7.978082598680379112e-02,-1.013713115007028598e-01,2.731708880043534279e-02
1.983333333333333393e+00,1.643852267051339388e+09,-4.742672845823969752e-02,1.330995286835160996e-01,1.580424168504742655e+00,-3.493420179235594003e-01,-9.072087722283270206e-02,-1.009139463768123496e-01,2.756603453422289129e-02
2.000000000000000000e+00,1.643852267071978331e+09,-4.740910807839083391e-02,2.415661630954747952e-01,2.014290706152577215e+00,-3.493420179235594003e-01,-1.015389429268583471e-01,-1.004389792728339198e-01,2.942485443305473472e-02
2.016666666666666607e+00,1.643852267086977005e+09,-4.746256515843719909e-02,2.897735561674564808e-01,2.207120278440504180e+00,-3.493420179235594003e-01,-1.120374995501003945e-01,-9.992808021503429838e-02,3.187622298554437794e-02
2.033333333333333215e+00,1.643852267103080750e+09,-4.759150818821338003e-02,3.642779656009420552e-01,2.408988736929428054e+00,-3.172922915085532591e-01,-1.220131200778686031e-01,-9.936775085041914257e-02,3.535364104631378429e-02
2.049999999999999822e+00,1.643852267119660378e+09,-4.779979719634737390e-02,3.876948233449192815e-01,2.598805347150355161e+00,-3.493420179235594003e-01,-1.312588526822043300e-01,-9.874798749796691311e-02,3.900781053824013689e-02
2.066666666666666430e+00,1.643852267138610601e+09,-4.809069737413613349e-02,4.163179629814083849e-01,2.713297905696311574e+00,-3.493420179235594003e-01,-1.395667306319821332e-01,-9.806502008228189238e-02,4.293736366171222590e-02
2.083333333333333481e+00,1.643852267153923988e+09,-4.846683648546221829e-02,4.825367267306467922e-01,2.882023781448246780e+00,-3.172922915085532591e-01,-1.467303872944852594e-01,-9.730894614551953425e-02,4.777806204888589842e-02
2.100000000000000089e+00,1.643852267169881582e+09,-4.893016651434307224e-02,5.503283732381211157e-01,3.153190367478144296e+00,-3.172922915085532591e-01,-1.525477480334177793e-01,-9.646430258270716207e-02,5.356309557281857536e-02
2.116666666666666696e+00,1.643852267185678005e+09,-4.948192997433712575e-02,4.886290525893809411e-01,3.002542264128202021e+00,-3.493420179235594003e-01,-1.568237690608921264e-01,-9.553315337332490831e-02,5.816203442224446990e-02
2.133333333333333304e+00,1.643852267203392506e+09,-5.012263127227701426e-02,4.155647224646586979e-01,2.710284943629313048e+00,-3.493420179235594003e-01,-1.593731918626072608e-01,-9.453643420013080334e-02,6.143517409241788796e-02
2.149999999999999911e+00,1.643852267223248720e+09,-5.085201348287254897e-02,4.004335104049280281e-01,2.553610916145371945e+00,-3.172922915085532591e-01,-1.600232807107482558e-01,-9.348779450794073020e-02,6.439337156179747446e-02
2.166666666666666519e+00,1.643852267239292860e+09,-5.166904085086085341e-02,2.829943915167091317e-01,2.180003619837514783e+00,-3.493420179235594003e-01,-1.586165100292782904e-01,-9.240628655813597214e-02,6.538482830344989616e-02
2.183333333333333126e+00,1.643852267256345987e+09,-5.257188729388621862e-02,1.647356303870040617e-01,1.706968575318694281e+00,-3.493420179235594003e-01,-1.550131679985349009e-01,-9.132422753349923872e-02,6.446481031862097422e-02
2.200000000000000178e+00,1.643852267274814129e+09,-5.355793113246912901e-02,1.044763890470270795e-01,1.465931609958786463e+00,-3.493420179235594003e-01,-1.490938427939701438e-01,-9.026488052493053527e-02,6.266183908093654609e-02
2.216666666666666785e+00,1.643852267291937113e+09,-5.462375622366993921e-02,1.179683166237856240e-01,1.423750141020802440e+00,-3.172922915085532591e-01,-1.407617582565873771e-01,-8.923231966626016254e-02,6.124938752838614275e-02
2.233333333333333393e+00,1.643852267307909489e+09,-5.576515962273088239e-02,5.099631235779737010e-02,1.252011303201867598e+00,-3.493420179235594003e-01,-1.299449265949673693e-01,-8.823086075874568557e-02,5.893211838358549531e-02
2.250000000000000000e+00,1.643852267325032711e+09,-5.697716584255026889e-02,4.565722701581307469e-02,1.134505782588912215e+00,-3.172922915085532591e-01,-1.165980869209515547e-01,-8.726659690625003518e-02,5.678550686600421227e-02
2.266666666666666607e+00,1.643852267341532707e+09,-5.825404772473791876e-02,1.282438252316276707e-03,1.053155806779943360e+00,-3.493420179235594003e-01,-1.007044000186524541e-01,-8.634174724532715783e-02,5.420362450897572848e-02
2.283333333333333215e+00,1.643852267357843399e+09,-5.958935387871496653e-02,-4.637286766634438617e-01,-8.068886528830971905e-01,-3.493420179235594003e-01,-8.227687173033038093e-02,-8.552125469395931157e-02,4.428303948437831150e-02
2.299999999999999822e+00,1.643852267374795914e+09,-6.097594258733968209e-02,-5.442591689997466897e-01,-9.367122637382756523e-01,-4.134414707535703504e-01,-6.135947969902899590e-02,-8.487296878134041600e-02,3.354110942677981932e-02
2.316666666666666430e+00,1.643852267392752409e+09,-6.240602201939385307e-02,-5.502654067477811273e-01,-8.645880354853985317e-01,-4.454911971685752703e-01,-3.802798091823748894e-02,-8.439983838191005006e-02,2.326308923291580538e-02
2.333333333333333481e+00,1.643852267407962799e+09,-6.387119653145162390e-02,-5.839274945388290838e-01,-1.095385565894605007e+00,-4.134414707535703504e-01,-1.239038058031401504e-02,-8.409769705997748035e-02,1.302231665899751534e-02
2.350000000000000089e+00,1.643852267426891327e+09,-6.536251878473384180e-02,-1.024655478849335888e-01,9.266113999659914002e-01,-4.454911971685752703e-01,1.541295393931262428e-02,-8.389448084558139007e-02,1.136822387884108172e-02
2.366666666666666696e+00,1.643852267442164421e+09,-6.687054734702316261e-02,-1.099979530524306942e-01,8.964817792960030340e-01,-4.454911971685752703e-01,4.520954650738522040e-02,-8.371552923939482027e-02,1.010946549690375056e-02
2.383333333333333304e+00,1.643852267459117413e+09,-6.838540939613543812e-02,-1.401275737224192963e-01,7.759632966160485701e-01,-4.454911971685752703e-01,7.679544175773815595e-02,-8.355718193786638992e-02,8.895582662630638696e-03
2.399999999999999911e+00,1.643852267477308273e+09,-6.989686809030704051e-02,-1.288289659711735757e-01,8.211577276210315635e-01,-4.454911971685752703e-01,1.099362153524694463e-01,-8.341276036528094684e-02,8.436281913066789179e-03
2.416666666666666519e+00,1.643852267494264126e+09,-7.139439412268176743e-02,-1.559456245741631941e-01,7.126910932090729789e-01,-4.454911971685752703e-01,1.443683654055498422e-01,-8.327491994701020916e-02,8.105487175319168666e-03
2.433333333333333126e+00,1.643852267510221481e+09,-7.286724093234457633e-02,-1.770363590431552336e-01,6.283281553331048208e-01,-4.454911971685752703e-01,1.798010811722606517e-01,-8.314056616322129667e-02,8.017212093682011056e-03
2.450000000000000178e+00,1.643852267527393341e+09,-7.430452300351758632e-02,-1.545055452654009731e-01,6.223022311991072142e-01,-4.134414707535703504e-01,2.159183807195215465e-01,-8.299957093151850984e-02,8.899764119547898603e-03
2.466666666666666785e+00,1.643852267546731472e+09,-7.569529664804039437e-02,-1.393743332056695539e-01,7.789762586830475399e-01,-4.454911971685752703e-01,2.523816048866348027e-01,-8.283686214863501818e-02,1.062050986468049060e-02
2.483333333333333393e+00,1.643852267565429926e+09,-7.702864263449964166e-02,-9.643962375093588502e-02,9.507150965019822708e-01,-4.454911971685752703e-01,2.888322504730894691e-01,-8.263474719541094582e-02,1.362493869015897127e-02
2.500000000000000000e+00,1.643852267581717730e+09,-7.829375000072640034e-02,-1.310886875214226643e-01,8.121188414200352090e-01,-4.454911971685752703e-01,3.248951213000803029e-01,-8.238277812590129312e-02,1.660307685029361810e-02
2.516666666666666607e+00,1.643852267597630262e+09,-7.948000036515458222e-02,-1.800493211101540647e-01,6.162763070651096076e-01,-4.454911971685752703e-01,3.601817716359547727e-01,-8.208347341970789746e-02,1.930597965286356271e-02
2.533333333333333215e+00,1.643852267615151405e+09,-8.057705203702782149e-02,-1.687507133589083164e-01,6.614707380700924899e-01,-4.454911971685752703e-01,3.942942125028328637e-01,-8.173322146306148672e-02,2.271478601528256064e-02
2.549999999999999822e+00,1.643852267629266977e+09,-8.157492321587228590e-02,-1.318419280381724623e-01,8.091058793530360171e-01,-4.454911971685752703e-01,4.268288476413597543e-01,-8.131703533319299682e-02,2.721504854546719088e-02
2.566666666666666430e+00,1.643852267649686575e+09,-8.246407356721274784e-02,-5.425815481295189618e-02,1.119440972253918254e+00,-4.454911971685752703e-01,4.573806024502817258e-01,-8.081153067323901262e-02,3.342825134613536947e-02
2.583333333333333481e+00,1.643852267663613319e+09,-8.323548346432703415e-02,-9.116694013368786820e-02,9.718058309709743936e-01,-4.454911971685752703e-01,4.855472060825596903e-01,-8.020453827844183092e-02,3.939426338381939174e-02
2.600000000000000089e+00,1.643852267683878422e+09,-8.388073019497992167e-02,-8.589425651643985138e-02,9.928965654399664054e-01,-4.454911971685752703e-01,5.109335841126964040e-01,-7.949470173335004830e-02,4.576841563199854357e-02
2.616666666666666696e+00,1.643852267697948217e+09,-8.439206044758292002e-02,-8.966045910018848042e-02,9.778317551049718892e-01,-4.454911971685752703e-01,5.331563168301162170e-01,-7.867696049339296949e-02,5.234227202087359671e-02
2.633333333333333304e+00,1.643852267715519905e+09,-8.476245841303625683e-02,-5.658427808793819319e-02,1.013987299908958306e+00,-4.134414707535703504e-01,5.518481162962214359e-01,-7.774341274531816615e-02,5.966312157627018387e-02
2.649999999999999911e+00,1.643852267731475592e+09,-8.498570886654918666e-02,-1.123240763274170051e-01,7.910281069510430862e-01,-4.134414707535703504e-01,5.666622738596814868e-01,-7.669451466729113043e-02,6.618652679044755016e-02
2.666666666666666519e+00,1.643852267748831987e+09,-8.505645462782962518e-02,-4.882385704503069412e-01,-6.164806902955021206e-01,-4.454911971685752703e-01,5.772770288820258111e-01,-7.558824956724959077e-02,6.656423599760132037e-02
2.683333333333333126e+00,1.643852267768108845e+09,-8.497024783799307646e-02,-5.271856537068604354e-01,-7.722690233217160971e-01,-4.454911971685752703e-01,5.833998090053801322e-01,-7.448027519226678439e-02,6.639316421092716913e-02
2.700000000000000178e+00,1.643852267784989119e+09,-8.472359453707889454e-02,-5.144395921091479140e-01,-6.251355976858476993e-01,-4.775409235835813559e-01,5.847712924123893430e-01,-7.337317846284771572e-02,6.645826248656211410e-02
2.716666666666666785e+00,1.643852267801939726e+09,-8.431399207687544084e-02,-5.367981028675397059e-01,-7.145696407194147559e-01,-4.775409235835813559e-01,5.811692431954298410e-01,-7.226859143907174432e-02,6.609319446825097366e-02
2.733333333333333393e+00,1.643852267821067810e+09,-8.373995895945338108e-02,-6.601305331799594001e-01,-1.207899361969093199e+00,-4.775409235835813559e-01,5.724120721728886974e-01,-7.118828274053606853e-02,6.355091141959745560e-02
2.750000000000000000e+00,1.643852267835216999e+09,-8.300105675197957944e-02,-7.418672105935146810e-01,-1.438696892378299452e+00,-5.095906499985862759e-01,5.583620772628873352e-01,-7.016322438771753489e-02,5.946743417793512454e-02
2.766666666666666607e+00,1.643852267850201607e+09,-8.209790379254708337e-02,-7.478734483415498957e-01,-1.366572664125422554e+00,-5.416403764135924170e-01,5.389283198419203558e-01,-6.920917376183910452e-02,5.503096474372954489e-02
2.783333333333333215e+00,1.643852267868157387e+09,-8.103218046941249031e-02,-8.303313680376338546e-01,-1.600255163664743741e+00,-5.736901028285972259e-01,5.140690963635071720e-01,-6.834327422318894896e-02,4.889402734384393906e-02
2.799999999999999822e+00,1.643852267886543751e+09,-7.980662592660554833e-02,-8.534111210785544355e-01,-1.692574175828426064e+00,-5.736901028285972259e-01,4.837939678702069535e-01,-6.758617874054111130e-02,4.197664597439030448e-02
2.816666666666666430e+00,1.643852267904148102e+09,-7.842502612180154986e-02,-9.272141333842941480e-01,-1.891637045806366713e+00,-6.057398292436033671e-01,4.481653138751123255e-01,-6.695853227157055887e-02,3.336485251360005871e-02
2.833333333333333481e+00,1.643852267921099424e+09,-7.689219323698895381e-02,-1.072183832172576512e+00,-2.471515840959496835e+00,-6.057398292436033671e-01,4.072993813843998612e-01,-6.649889393852222164e-02,2.182380666741544351e-02
2.850000000000000089e+00,1.643852267936491489e+09,-7.521393651818708559e-02,-8.998069266482008333e-01,-1.782008218861993010e+00,-6.057398292436033671e-01,3.613668045430629139e-01,-6.621254776079625592e-02,1.256345845460384719e-02
2.866666666666666696e+00,1.643852267953445911e+09,-7.339702469661002482e-02,-8.969219575180857884e-01,-1.770468342341533052e+00,-6.057398292436033671e-01,3.105925754688214635e-01,-6.608587616451352953e-02,2.664630490833380314e-03
2.883333333333333304e+00,1.643852267970919609e+09,-7.144914021955156569e-02,-8.868245655626830759e-01,-1.730078774519921758e+00,-6.057398292436033671e-01,2.552554522465046993e-01,-6.612906633749196517e-02,-7.818331224791157455e-03
2.899999999999999911e+00,1.643852267985373735e+09,-6.937882559420130435e-02,-1.005108299897401247e+00,-2.203213711858794444e+00,-6.057398292436033671e-01,1.956867957347858122e-01,-6.637008968812821430e-02,-2.106766627686516152e-02
2.916666666666666519e+00,1.643852268003628016e+09,-6.719542222090822692e-02,-9.892409696817684450e-01,-2.139744390996263235e+00,-6.057398292436033671e-01,1.322688327326714541e-01,-6.683667300199079564e-02,-3.488395191215418883e-02
2.933333333333333126e+00,1.643852268020806313e+09,-6.490900216339944018e-02,-8.199853327753118259e-01,-1.366572664125422554e+00,-6.377895556586082870e-01,6.543234910479456268e-02,-6.751747324628727676e-02,-4.677903472903299081e-02
2.950000000000000178e+00,1.643852268036756992e+09,-6.253029337147350541e-02,-8.082091567670470766e-01,-1.415617139337378427e+00,-6.057398292436033671e-01,-4.346177390024828086e-03,-6.840289322968180763e-02,-5.943620364825632357e-02
2.966666666666666785e+00,1.643852268052977324e+09,-6.007059893605980194e-02,-7.923418265514142744e-01,-1.352147818474846996e+00,-6.057398292436033671e-01,-7.654798864842642103e-02,-6.950529876054095668e-02,-7.281529503739452014e-02
2.983333333333333393e+00,1.643852268068973303e+09,-5.754171101663869969e-02,-8.199853327753118259e-01,-1.366572664125422554e+00,-6.377895556586082870e-01,-1.506159800951501482e-01,-7.084288966391666387e-02,-8.765439268185984401e-02
3.000000000000000000e+00,1.643852268090110302e+09,-5.495582013625240070e-02,-7.670983466629073266e-01,-1.251173898920818983e+00,-6.057398292436033671e-01,-2.259591287917142033e-01,-7.242885093417696096e-02,-1.026193893358432474e-01
3.016666666666666607e+00,1.643852268104296207e+09,-5.232542058913178251e-02,-6.728519071394426510e-01,-7.780389615819460758e-01,-6.377895556586082870e-01,-3.019573818342794480e-01,-7.425964139390996144e-02,-1.170354203590056041e-01
3.033333333333333215e+00,1.643852268120253086e+09,-4.966321274979358658e-02,-6.483296695334646031e-01,-6.799500111580334405e-01,-6.377895556586082870e-01,-3.779669654728919359e-01,-7.633581934588896944e-02,-1.320641863237992097e-01
3.049999999999999822e+00,1.643852268136415482e+09,-4.698200310985258671e-02,-6.317410970353030120e-01,-6.135957211653870758e-01,-6.377895556586082870e-01,-4.533260700674388022e-01,-7.866851836517850527e-02,-1.478159400895553699e-01
3.066666666666666430e+00,1.643852268155339479e+09,-4.429460289929615380e-02,-6.329472821125562421e-01,-7.145696407194147559e-01,-6.057398292436033671e-01,-5.273608610461630875e-01,-8.127196329496344518e-02,-1.645509642124157457e-01
3.083333333333333481e+00,1.643852268173289537e+09,-4.161372617223680487e-02,-6.387172203727865538e-01,-7.376493937603357809e-01,-6.057398292436033671e-01,-5.993917615108939057e-01,-8.416275973424565404e-02,-1.822953174711948732e-01
3.100000000000000089e+00,1.643852268188579559e+09,-3.895188825284293110e-02,-3.040019977501737247e-01,6.012114967301152024e-01,-6.057398292436033671e-01,-6.687399480963523990e-01,-8.731019190815353381e-02,-1.953602510613957621e-01
3.116666666666666696e+00,1.643852268205363035e+09,-3.632130544503389680e-02,-4.302675771214479750e-01,0.000000000000000000e+00,-5.736901028285972259e-01,-7.347339981913567630e-01,-9.070012343603882365e-02,-2.113870124553905439e-01
3.133333333333333304e+00,1.643852268224908829e+09,-3.373379690939376507e-02,-2.242913064241775500e-01,7.277559035440669399e-01,-5.416403764135924170e-01,-7.967166237156981801e-01,-9.433506555542342520e-02,-2.247688691716705489e-01
3.149999999999999911e+00,1.643852268240860462e+09,-3.120068960251837220e-02,-1.340352478636852862e-01,8.964817792960030340e-01,-4.775409235835813559e-01,-8.540514243598668065e-01,-9.818664321078238166e-02,-2.373854027200374417e-01
3.166666666666666519e+00,1.643852268257233858e+09,-2.873272715760253129e-02,-4.685855309492824305e-02,9.567410206359798774e-01,-3.813917443385642647e-01,-9.061295915724386640e-01,-1.022419059972325961e-01,-2.492132756780433556e-01
3.183333333333333126e+00,1.643852268277184010e+09,-2.633998356053205911e-02,8.325285112856171954e-02,1.188739099794892118e+00,-2.852425650935483947e-01,-9.523764936513374746e-01,-1.064810829210526555e-01,-2.594594927962695641e-01
3.200000000000000178e+00,1.643852268293773890e+09,-2.403178244316866996e-02,1.148225511073133892e-01,1.218868720464880484e+00,-2.531928386785423091e-01,-9.922580720833460433e-01,-1.108907629583548993e-01,-2.696737381085678731e-01
3.216666666666666785e+00,1.643852268308886528e+09,-2.181662277508040690e-02,1.531714157368115614e-01,1.276114999737858469e+00,-2.211431122635373892e-01,-1.025286979796856901e+00,-1.154685348257658978e-01,-2.796312256421576437e-01
3.233333333333333393e+00,1.643852268323846102e+09,-1.970211168692358530e-02,1.562507795285475731e-01,1.384581634149817164e+00,-2.531928386785423091e-01,-1.051028393253703230e+00,-1.202140195791975424e-01,-2.897987011174785743e-01
3.250000000000000000e+00,1.643852268342590332e+09,-1.769490510334010072e-02,2.156903786270377710e-01,1.526190851298763418e+00,-2.211431122635373892e-01,-1.069105432307374315e+00,-1.251218449029998236e-01,-2.991144600216819049e-01
3.266666666666666607e+00,1.643852268357806206e+09,-1.580065680099483616e-02,2.510926829142743899e-01,1.667800068447709894e+00,-2.211431122635373892e-01,-1.079204124488950756e+00,-1.301801512304075481e-01,-3.078580110538521319e-01
3.283333333333333215e+00,1.643852268374590874e+09,-1.402397643869090701e-02,3.038195190867542528e-01,1.878707413137629345e+00,-2.211431122635373892e-01,-1.081077853833261937e+00,-1.353759518882307611e-01,-3.156165159751374016e-01
3.299999999999999822e+00,1.643852268391542673e+09,-1.236839703189004241e-02,3.828433716207378934e-01,2.098653644028545706e+00,-1.890933858485313035e-01,-1.074551238501876060e+00,-1.406881730795289387e-01,-3.218327592318581676e-01
3.316666666666666430e+00,1.643852268407851219e+09,-1.083635226401745248e-02,3.460009880247381098e-01,2.047433288889564551e+00,-2.211431122635373892e-01,-1.059523386265503353e+00,-1.461061527684416605e-01,-3.283068195136248368e-01
3.333333333333333481e+00,1.643852268426178694e+09,-9.429163942280693531e-03,3.512736716419860850e-01,2.068524023358556452e+00,-2.211431122635373892e-01,-1.035970482336572296e+00,-1.516271578570790035e-01,-3.341974279365639289e-01
3.350000000000000089e+00,1.643852268442598104e+09,-8.147039817071613510e-03,4.861037241401850451e-01,2.607844233351352514e+00,-2.211431122635373892e-01,-1.003947670046971830e+00,-1.572224803380514457e-01,-3.372328378873712951e-01
3.366666666666666696e+00,1.643852268458900213e+09,-6.989081892085238432e-03,4.168055965992112921e-01,2.330651723187457058e+00,-2.211431122635373892e-01,-9.635901913925754014e-01,-1.628719710293984324e-01,-3.406964237759136926e-01
3.383333333333333304e+00,1.643852268476260900e+09,-5.953305257864175207e-03,4.137926345322124888e-01,2.318599874919462067e+00,-2.211431122635373892e-01,-9.151137614552911081e-01,-1.685724303231427856e-01,-3.433513165975539683e-01
3.399999999999999911e+00,1.643852268493181944e+09,-5.036667385354091399e-03,4.174924353912248254e-01,2.237249899110492990e+00,-1.890933858485313035e-01,-8.588141580993219337e-01,-1.743084839878117631e-01,-3.449706249780199463e-01
3.416666666666666519e+00,1.643852268511563540e+09,-4.235107719103096621e-03,4.671399077719687321e-01,2.339690609388453968e+00,-1.570436594335263836e-01,-7.950660160495741646e-01,-1.800556402069607154e-01,-3.446889038968311003e-01
3.433333333333333126e+00,1.643852268528516769e+09,-3.543597312775606523e-03,5.446572792724527767e-01,2.553610916145371945e+00,-1.249939330185202979e-01,-7.243208224212599466e-01,-1.857776618867384710e-01,-3.419612746028667938e-01
3.449999999999999734e+00,1.643852268543478489e+09,-2.956198153589228734e-03,4.874109999994746811e-01,2.324625799053459563e+00,-1.249939330185202979e-01,-6.471041189008066574e-01,-1.914518414948408742e-01,-3.389486469764532717e-01
3.466666666666666785e+00,1.643852268563697577e+09,-2.466131727962954552e-03,4.933705224087350794e-01,2.252314709445486507e+00,-9.294420660351540575e-02,-5.640119239962609887e-01,-1.970639268805043920e-01,-3.345139182839151903e-01
3.483333333333333393e+00,1.643852268579355717e+09,-2.065856288984905479e-03,4.692668258727445418e-01,2.155899923301524357e+00,-9.294420660351540575e-02,-4.757063969958651439e-01,-2.025938450593734730e-01,-3.290913262904314185e-01
3.500000000000000000e+00,1.643852268599466801e+09,-1.747152198118031609e-03,5.354191878972457408e-01,2.228211012909496525e+00,-2.884475377350440711e-02,-3.829107734092801474e-01,-2.080121817010466279e-01,-3.211311827406255204e-01
3.516666666666666607e+00,1.643852268614317179e+09,-1.501214629709516149e-03,4.999504818852730237e-01,1.990187009616587011e+00,3.204972641501691987e-03,-2.864036096305170864e-01,-2.132905180803121303e-01,-3.122937318237807292e-01
3.533333333333333215e+00,1.643852268633599758e+09,-1.318752848170660951e-03,5.082361275695198577e-01,2.023329592353574569e+00,3.204972641501691987e-03,-1.870123822685575421e-01,-2.184079118606610248e-01,-3.018226089550824498e-01
3.549999999999999822e+00,1.643852268649842978e+09,-1.190095194944663448e-03,5.721951697685083715e-01,2.183016581904513753e+00,3.525469905650659153e-02,-8.560649495530552044e-02,-2.233293929166704772e-01,-2.887913166521862696e-01
3.566666666666666430e+00,1.643852268667626381e+09,-1.105298856307532695e-03,6.444398576517434973e-01,2.375846154192439830e+00,6.730442547151148369e-02,1.691024762147149904e-02,-2.280113475202507067e-01,-2.730868602940524359e-01
3.583333333333333481e+00,1.643852268684630632e+09,-1.054263424353500851e-03,7.077120610587194216e-01,2.628934967820343527e+00,6.730442547151148369e-02,1.196076322799811825e-01,-2.324108064895593073e-01,-2.548987397690988255e-01
3.600000000000000089e+00,1.643852268703639030e+09,-1.026847212857377777e-03,7.392153593127350764e-01,2.562649802346368855e+00,1.314038783015236689e-01,2.215374244692056294e-01,-2.364912124240363123e-01,-2.348057874382561416e-01
3.616666666666666696e+00,1.643852268718581200e+09,-1.012985247628303163e-03,6.879950041737544764e-01,2.357768381790446899e+00,1.314038783015236689e-01,3.217420727246375067e-01,-2.402327453332606944e-01,-2.142353032473919006e-01
3.633333333333333304e+00,1.643852268737890482e+09,-1.002807818015963217e-03,6.962142481332641575e-01,2.294496178383470752e+00,1.634536047165285888e-01,4.192636487391203093e-01,-2.436196730700281032e-01,-1.922570772294180941e-01
3.649999999999999911e+00,1.643852268754916906e+09,-9.867584528186058683e-04,6.976543274420263785e-01,2.204107316373504766e+00,1.955033311315334810e-01,5.131529376228358696e-01,-2.466301657434720185e-01,-1.690664634715597914e-01
3.666666666666666519e+00,1.643852268772601843e+09,-9.557101703389234365e-04,7.790043032509954557e-01,2.529507219609381519e+00,1.955033311315334810e-01,6.024785900422405804e-01,-2.492337774838288555e-01,-1.434381368429823445e-01
3.683333333333333126e+00,1.643852268790586472e+09,-9.010788490155573292e-04,7.924962308277549994e-01,2.487325750671397273e+00,2.275530575465407879e-01,6.863362459106978619e-01,-2.514003442712643976e-01,-1.166243621099059269e-01
3.699999999999999734e+00,1.643852268806668520e+09,-8.149325721238268126e-04,8.745994471534737080e-01,2.815738615974272108e+00,2.275530575465407879e-01,7.638575381892502847e-01,-2.531016709283176458e-01,-8.761541903047395663e-02
3.716666666666666785e+00,1.643852268825073481e+09,-6.900958175627969204e-04,9.536897014121937799e-01,3.132099633009152395e+00,2.275530575465407879e-01,8.342188851689233964e-01,-2.543028796006713277e-01,-5.661573391510162784e-02
3.733333333333333393e+00,1.643852268841493130e+09,-5.202473917921083537e-04,8.587813963017296714e-01,2.752466412567296405e+00,2.275530575465407879e-01,8.966499803626269971e-01,-2.549961943148504884e-01,-2.666522958984986202e-02
3.750000000000000000e+00,1.643852268861857176e+09,-3.000110453952099278e-04,8.324179782154897955e-01,2.647012740222336902e+00,2.275530575465407879e-01,9.504418908407664679e-01,-2.551906822984887357e-01,3.243589544726008939e-03
3.766666666666666607e+00,1.643852268876975536e+09,-2.503775643146613435e-05,8.007154747872645695e-01,2.424053547264421571e+00,2.596027839615456800e-01,9.949546774969221241e-01,-2.548890516215285285e-01,3.286979473916888661e-02
3.783333333333333215e+00,1.643852268896517277e+09,3.079212736415741438e-04,8.489892695839834635e-01,2.713297905696311574e+00,2.275530575465407879e-01,1.029624454313966542e+00,-2.540862866367405992e-01,6.337725848601344358e-02
3.799999999999999822e+00,1.643852268914503813e+09,7.009517984497816651e-04,9.099353497159732296e-01,2.860933046979255767e+00,2.596027839615456800e-01,1.053969808193707891e+00,-2.527674971335299725e-01,9.479022161463082630e-02
3.816666666666666430e+00,1.643852268929461479e+09,1.154924689178900461e-03,8.993235807567401263e-01,2.722336791897308927e+00,2.916525103765505444e-01,1.067597506280124398e+00,-2.509290804573479639e-01,1.257338230557298875e-01
3.833333333333333481e+00,1.643852268944423676e+09,1.669455804620524316e-03,9.384920876277251800e-01,2.879010819381249142e+00,2.916525103765505444e-01,1.070207423904690147e+00,-2.485734405793144364e-01,1.568565083699032803e-01
3.850000000000000089e+00,1.643852268966330767e+09,2.242878198374110774e-03,9.828668763912209450e-01,2.960360795190217331e+00,3.237022367915554644e-01,1.061596633259031863e+00,-2.456984482189376873e-01,1.880559078370307446e-01
3.866666666666666696e+00,1.643852268982374191e+09,2.872227191491436623e-03,9.828004746664837921e-01,2.863946009046253849e+00,3.557519632065603843e-01,1.041662600593625587e+00,-2.423105376140417544e-01,2.184090484864699699e-01
3.883333333333333304e+00,1.643852268998331070e+09,3.553238731043022354e-03,9.730083479487375842e-01,2.824777502175269461e+00,3.557519632065603843e-01,1.010405448081309387e+00,-2.384266034695166903e-01,2.475820109424456683e-01
3.899999999999999911e+00,1.643852269015285015e+09,4.280361341620909400e-03,8.938516919652823578e-01,2.412001698996426136e+00,3.878016896215676357e-01,9.679292453931470641e-01,-2.340772826593205957e-01,2.742623724215567105e-01
3.916666666666666519e+00,1.643852269034235716e+09,5.046781858545440654e-03,8.531767040607978192e-01,2.249301747378488425e+00,3.878016896215676357e-01,9.144423054264962936e-01,-2.292999799551078688e-01,2.989453865421322076e-01
3.933333333333333126e+00,1.643852269053185225e+09,5.844465009528767609e-03,8.960450117907944323e-01,2.324625799053459563e+00,4.198514160365725556e-01,8.502564684101110437e-01,-2.241176473002271796e-01,3.228680785572666245e-01
3.949999999999999734e+00,1.643852269070140600e+09,6.664206786725817948e-03,9.434991643460263200e-01,2.514442409274387114e+00,4.198514160365725556e-01,7.757853686916690306e-01,-2.185436389201416418e-01,3.459488123944760019e-01
3.966666666666666785e+00,1.643852269090085745e+09,7.495701424583864174e-03,9.434991643460263200e-01,2.514442409274387114e+00,4.198514160365725556e-01,6.915416887884670016e-01,-2.125997753443469029e-01,3.672556297042561813e-01
3.983333333333333393e+00,1.643852269106069326e+09,8.327621671701944395e-03,9.140563824680502103e-01,2.300522102517468248e+00,4.519011424515774755e-01,5.981334156478552710e-01,-2.063207093039791107e-01,3.861797269658201470e-01
4.000000000000000000e+00,1.643852269124992609e+09,9.147711918211886076e-03,8.568765049198092676e-01,2.167951771569519348e+00,4.198514160365725556e-01,4.962591244128081169e-01,-1.997508240894974030e-01,4.021621022402153689e-01
4.016666666666666607e+00,1.643852269139130592e+09,9.942893615051306283e-03,8.688619514630674390e-01,2.119744378497537607e+00,4.519011424515774755e-01,3.867023252124823229e-01,-1.929302500513377094e-01,4.162675994799814871e-01
4.033333333333333215e+00,1.643852269155089378e+09,1.069938229907198279e-02,7.829925325536001290e-01,1.776266702859668367e+00,4.519011424515774755e-01,2.703249184889129353e-01,-1.859044670833040203e-01,4.267971073626563583e-01
4.049999999999999822e+00,1.643852269173052788e+09,1.140281541933065544e-02,8.033300265058422873e-01,1.857616678668637000e+00,4.519011424515774755e-01,1.480598140220006909e-01,-1.787187249505316489e-01,4.354678625720146967e-01
4.066666666666666430e+00,1.643852269189011812e+09,1.203839004622922655e-02,7.136944050126265982e-01,1.499074192695773799e+00,4.519011424515774755e-01,2.090277802075484956e-02,-1.714196113499990293e-01,4.404120353553717671e-01
4.083333333333333037e+00,1.643852269208936453e+09,1.259100943749882559e-02,6.978763541608823395e-01,1.435801989288797431e+00,4.519011424515774755e-01,-1.100964186929430516e-01,-1.640590562328469448e-01,4.428478124960186779e-01
4.099999999999999645e+00,1.643852269223903418e+09,1.304543733438338210e-02,6.655534136653820099e-01,1.402659406551810539e+00,4.198514160365725556e-01,-2.438434703676571891e-01,-1.566811789309541514e-01,4.424984342490879685e-01
4.116666666666666252e+00,1.643852269238865137e+09,1.338645876879003375e-02,6.956166326106334452e-01,1.426763103087801188e+00,4.519011424515774755e-01,-3.792095355553535274e-01,-1.493236208252118336e-01,4.404143277609336438e-01
4.133333333333332860e+00,1.643852269255819321e+09,1.359904607853718549e-02,6.888374679598858741e-01,1.399646444484811569e+00,4.519011424515774755e-01,-5.150416711211056597e-01,-1.420202075137222131e-01,4.360075110634236695e-01
4.150000000000000355e+00,1.643852269273772001e+09,1.366852875407854537e-02,6.654870119406448570e-01,1.306244620407846835e+00,4.519011424515774755e-01,-6.501736007010546770e-01,-1.348115221416470444e-01,4.290540492120083482e-01
4.166666666666666963e+00,1.643852269291722775e+09,1.358076567696224653e-02,7.942911403048458219e-01,1.821461133864650472e+00,4.519011424515774755e-01,-7.834367126940595671e-01,-1.277183832618520309e-01,4.221418174590597649e-01
4.183333333333333570e+00,1.643852269309641838e+09,1.332231825856109581e-02,8.372258497595794768e-01,1.993199971683585314e+00,4.519011424515774755e-01,-9.136711793154944639e-01,-1.207515514097273618e-01,4.139008967810031692e-01
4.200000000000000178e+00,1.643852269324637413e+09,1.288062294791440972e-02,8.500309385443246546e-01,2.044420326822566469e+00,4.519011424515774755e-01,-1.039737085764493196e+00,-1.139365736361439424e-01,4.039241498870835834e-01
4.216666666666666785e+00,1.643852269342973948e+09,1.224416155038488517e-02,8.207209601158229617e-01,2.023329592353574569e+00,4.198514160365725556e-01,-1.160525457197450150e+00,-1.073072286431777100e-01,3.916313966094235877e-01
4.233333333333333393e+00,1.643852269359413385e+09,1.140262778470963953e-02,8.327064066590811331e-01,1.975122199281592605e+00,4.519011424515774755e-01,-1.274969070989540931e+00,-1.008952165634734444e-01,3.778483401242116457e-01
4.250000000000000000e+00,1.643852269377366304e+09,1.034708850527162570e-02,9.028241764415417814e-01,2.351742457656449403e+00,4.198514160365725556e-01,-1.382052942718437150e+00,-9.471612414566282778e-02,3.636821016017861008e-01
4.266666666666666607e+00,1.643852269394767523e+09,9.070138029208439645e-03,8.976178945490309591e-01,2.427066509331420541e+00,3.878016896215676357e-01,-1.480824376424729305e+00,-8.878554050925309415e-02,3.480314099341147438e-01
4.283333333333333215e+00,1.643852269410598516e+09,7.566044034506376990e-03,8.578289506107685813e-01,2.460209092068407877e+00,3.237022367915554644e-01,-1.570402472984760323e+00,-8.313150829281289178e-02,3.305011523447746735e-01
4.299999999999999822e+00,1.643852269429526091e+09,5.830883535425555701e-03,-4.650089246553836819e-01,-2.638844050506171879e+00,2.596027839615456800e-01,-1.649986994852602917e+00,-7.796092902953020987e-02,2.900806410896922261e-01
4.316666666666666430e+00,1.643852269447480917e+09,3.862667495394195901e-03,-6.299247640475532650e-01,-3.106209049584813364e+00,1.955033311315334810e-01,-1.718866490957433601e+00,-7.349073398104499777e-02,2.464639251244572504e-01
4.333333333333333037e+00,1.643852269462436438e+09,1.661452704650478920e-03,-7.933981188746638269e-01,-3.567804110403226314e+00,1.314038783015236689e-01,-1.776425592135713272e+00,-6.977198894918672234e-02,1.999147849090927020e-01
4.349999999999999645e+00,1.643852269479922295e+09,-7.705603699615244098e-04,-9.282580818884296203e-01,-3.818796424723238214e+00,3.525469905650659153e-02,-1.822151395078826397e+00,-6.684757612654569636e-02,1.511502141369974184e-01
4.366666666666666252e+00,1.643852269497069836e+09,-3.428944962987727930e-03,-1.061675560337136837e+00,-4.064018800783019358e+00,-6.089448018850930622e-02,-1.855638861318393840e+00,-6.475222375750019910e-02,1.004329547403597367e-01
4.383333333333332860e+00,1.643852269514627218e+09,-6.306981711490104378e-03,-1.186923074190223470e+00,-4.372710497705332600e+00,-1.249939330185202979e-01,-1.876595167175993506e+00,-6.351534769642094846e-02,4.813744132317687024e-02
4.400000000000000355e+00,1.643852269531557083e+09,-9.395609658824778665e-03,-1.150860960063784910e+00,-4.228462041199579247e+00,-1.249939330185202979e-01,-1.884842950782761317e+00,-6.313899871401101871e-02,-2.833972840008837368e-03
4.416666666666666963e+00,1.643852269549515724e+09,-1.268339541428049368e-02,-1.117198872272737953e+00,-3.997664510790372550e+00,-1.570436594335263836e-01,-1.880322413131025217e+00,-6.359985930055184200e-02,-5.233180034353073634e-02
4.433333333333333570e+00,1.643852269568458796e+09,-1.615652118599485501e-02,-1.219615276391823100e+00,-4.407330127266713582e+00,-1.570436594335263836e-01,-1.863092241548089500e+00,-6.489061297912862569e-02,-1.024195052972858289e-01
4.450000000000000178e+00,1.643852269583402157e+09,-1.979879226015691593e-02,-1.168407074332280526e+00,-4.202497319028543288e+00,-1.570436594335263836e-01,-1.833329335869868570e+00,-6.699805983166445822e-02,-1.503409986147857813e-01
4.466666666666666785e+00,1.643852269601344109e+09,-2.359166434769892698e-02,-1.170085858385142563e+00,-4.113063275994975676e+00,-1.890933858485313035e-01,-1.791327329819508707e+00,-6.989200983538108869e-02,-1.968039350811466859e-01
4.483333333333333393e+00,1.643852269620248079e+09,-2.751429106152613463e-02,-1.317691882996620878e+00,-4.511189015950856529e+00,-2.531928386785423091e-01,-1.737493912539506358e+00,-7.356687654888312278e-02,-2.440488316265801150e-01
4.500000000000000000e+00,1.643852269635180950e+09,-3.154359162414832607e-02,-1.385724957042130390e+00,-4.687172132887876153e+00,-2.852425650935483947e-01,-1.672346967757780911e+00,-7.802303134973835597e-02,-2.905605422390567516e-01
4.516666666666666607e+00,1.643852269653517008e+09,-3.565433873860364422e-02,-1.343407961860737299e+00,-4.421754972917289805e+00,-3.172922915085532591e-01,-1.596509560557681118e+00,-8.323163756177781591e-02,-3.343505614006576088e-01
4.533333333333333215e+00,1.643852269669456720e+09,-3.981926638617551417e-02,-1.219826888241398288e+00,-3.735132319949900026e+00,-3.813917443385642647e-01,-1.510703814038533155e+00,-8.913510851513854749e-02,-3.739559354852957096e-01
4.549999999999999822e+00,1.643852269688191414e+09,-4.400919714399177674e-02,-1.301799865142758694e+00,-3.870725869065309244e+00,-4.454911971685752703e-01,-1.415743730164713998e+00,-9.569140493685085458e-02,-4.126920323187079354e-01
4.566666666666666430e+00,1.643852269706359863e+09,-4.819318844554128234e-02,-1.269580261916769315e+00,-3.645698276916333302e+00,-4.775409235835813559e-01,-1.312527020679163492e+00,-1.028692461923399887e-01,-4.485493124398176601e-01
4.583333333333333037e+00,1.643852269722316980e+09,-5.233869703892633785e-02,-1.085663479871933124e+00,-2.910031148736988094e+00,-4.775409235835813559e-01,-1.202026024973940066e+00,-1.105990910273900452e-01,-4.789476260188654799e-01
4.599999999999999645e+00,1.643852269739343166e+09,-5.641176073270585956e-02,-9.515124153215820391e-01,-2.373426890535584199e+00,-4.775409235835813559e-01,-1.085277802144682280e+00,-1.187967214570870983e-01,-5.046964992136061534e-01
4.616666666666666252e+00,1.643852269755709648e+09,-6.037719635888845471e-02,-8.938130327192804758e-01,-2.142629360126377502e+00,-4.775409235835813559e-01,-9.633734939905018724e-01,-1.273951363747652110e-01,-5.270511930744243845e-01
4.633333333333332860e+00,1.643852269773689985e+09,-6.419881272847309528e-02,1.830790096879439666e-01,2.164938809502519934e+00,-4.775409235835813559e-01,-8.374470643471372266e-01,-1.361969079944551630e-01,-5.291555556990543696e-01
4.650000000000000355e+00,1.643852269792635918e+09,-6.783963720824047472e-02,2.937389639254157636e-01,2.511429447207389032e+00,-4.454911971685752703e-01,-7.086635277571111668e-01,-1.450003896145113658e-01,-5.272674834761931217e-01
4.666666666666666963e+00,1.643852269810595512e+09,-7.126215440962782588e-02,4.699972448448487827e-01,3.216462570885120886e+00,-4.454911971685752703e-01,-5.782067869953270156e-01,-1.537303005138274947e-01,-5.203410649460515902e-01
4.683333333333333570e+00,1.643852269825554848e+09,-7.442855535278901369e-02,5.647063447811017101e-01,3.306851432895085097e+00,-3.493420179235594003e-01,-4.472672042998031006e-01,-1.623145610760541035e-01,-5.097994853758033296e-01
4.700000000000000178e+00,1.643852269843503237e+09,-7.730099535250337106e-02,7.083096765813504669e-01,3.496668043116013980e+00,-2.211431122635373892e-01,-3.170290352358403618e-01,-1.706867615289350548e-01,-4.949059409004972210e-01
4.716666666666666785e+00,1.643852269861455441e+09,-7.984185876867601339e-02,8.013130903098947266e-01,3.291786622560092024e+00,-2.884475377350440711e-02,-1.886578568904137554e-01,-1.787822169752384671e-01,-4.765995648972024545e-01
4.733333333333333393e+00,1.643852269879407406e+09,-8.201402867374874006e-02,9.440303781439199904e-01,3.285760698426094084e+00,1.634536047165285888e-01,-6.328812350659179797e-02,-1.865380663274699424e-01,-4.541646779676821732e-01
4.750000000000000000e+00,1.643852269895474911e+09,-8.378115941341252038e-02,1.140227742667173860e+00,3.493655081049014566e+00,3.557519632065603843e-01,5.798901730358136525e-02,-1.938792498782325180e-01,-4.268532150840737005e-01
4.766666666666666607e+00,1.643852269912420750e+09,-8.510794997642164017e-02,1.146807702143711527e+00,3.231527381220113959e+00,4.519011424515774755e-01,1.741375160037325343e-01,-2.007520633379347441e-01,-3.979646479885807220e-01
4.783333333333333215e+00,1.643852269927574873e+09,-8.596041604477128173e-02,1.215906624510475709e+00,3.219475532952118968e+00,5.480503216965945112e-01,2.841876912486554496e-01,-2.071226466199281857e-01,-3.665924927772684638e-01
4.799999999999999822e+00,1.643852269948578596e+09,-8.630615856764507765e-02,1.509471220868654262e+00,4.105286380649782352e+00,6.441995009416116025e-01,3.872468538529568738e-01,-2.129199119146396035e-01,-3.291832595705301845e-01
4.816666666666666430e+00,1.643852269965528011e+09,-8.611462669181808860e-02,1.640402267333630038e+00,4.436712208019655712e+00,7.082989537716214423e-01,4.825091653276035175e-01,-2.180676150317327755e-01,-2.886536992424164616e-01
4.833333333333333037e+00,1.643852269981465578e+09,-8.535737288798855849e-02,1.607880121663920026e+00,4.114325266850778817e+00,7.723984066016336136e-01,5.692646185523617675e-01,-2.225379327082859515e-01,-2.478976358955919113e-01
4.849999999999999645e+00,1.643852269999379635e+09,-8.400829813697978377e-02,1.790031523267876290e+00,4.650632514776574133e+00,8.364978594316434535e-01,6.469070362707945998e-01,-2.262987290582431921e-01,-2.035211968866568188e-01
4.866666666666666252e+00,1.643852270016707897e+09,-8.204388508196466812e-02,1.808729732737146545e+00,4.533126994163618306e+00,9.005973122616556248e-01,7.149409924063736543e-01,-2.293140678972931112e-01,-1.584446792952148853e-01
4.883333333333332860e+00,1.643852270033069611e+09,-7.944341711275379470e-02,1.783053153442918815e+00,4.334271497741694290e+00,9.326470386766605447e-01,7.729875716208912673e-01,-2.315798864737132756e-01,-1.135781819677312288e-01
4.900000000000000355e+00,1.643852270050023556e+09,-7.618918142546497740e-02,1.770181662933436817e+00,4.186636356458750541e+00,9.646967650916654646e-01,8.207888939719601984e-01,-2.330993025518703909e-01,-6.887592327448416318e-02
4.916666666666666963e+00,1.643852270066036701e+09,-7.226665419523706224e-02,1.834007901682952912e+00,4.153493773721764093e+00,1.060845944336682445e+00,8.582113438672168693e-01,-2.338658707640201007e-01,-2.323903430316495017e-02
4.933333333333333570e+00,1.643852270084167004e+09,-6.766466611046738355e-02,1.921250998176445401e+00,4.310167801205704308e+00,1.124945397166692285e+00,8.852474556390562688e-01,-2.338623432485897324e-01,2.353241241166304648e-02
4.950000000000000178e+00,1.643852270101815701e+09,-6.237554664371892932e-02,2.002401768811204796e+00,4.346323346009691058e+00,1.221094576411709376e+00,9.020164218472727091e-01,-2.330722269938915459e-01,7.114926600127283174e-02
4.966666666666666785e+00,1.643852270118787050e+09,-5.639524557610140626e-02,2.069307371352456570e+00,4.421647397684662195e+00,1.285194029241721658e+00,9.087632047190551399e-01,-2.314849004720534453e-01,1.191964490806265708e-01
4.983333333333333393e+00,1.643852270138512611e+09,-4.972343044766357884e-02,2.174628240247942212e+00,4.650632514776574133e+00,1.349293482071731276e+00,9.058562458137512374e-01,-2.290892784061110965e-01,1.681422351157124129e-01
5.000000000000000000e+00,1.643852270155575037e+09,-4.236355877504788953e-02,2.005835962771269187e+00,3.879314225624868495e+00,1.381343208486736307e+00,8.937837839018770714e-01,-2.259096347840243157e-01,2.132895872715113994e-01
5.016666666666666607e+00,1.643852270173527956e+09,-3.409524359811066940e-02,2.081846853238253026e+00,4.087208608247788533e+00,1.413392934901741116e+00,8.731488060207186486e-01,-2.219761225188038589e-01,2.586060026606071260e-01
5.033333333333333215e+00,1.643852270189517498e+09,-2.527455737639613606e-02,2.059936476527776339e+00,3.903417922160858478e+00,1.445442661316748589e+00,8.390596178850251441e-01,-2.173013304775089916e-01,3.022478121928589556e-01
5.049999999999999822e+00,1.643852270205488682e+09,-1.592765990755260277e-02,1.943937436948320219e+00,3.439421763843035329e+00,1.445442661316748589e+00,7.984558982654793580e-01,-2.119268328237593757e-01,3.425798701260059920e-01
5.066666666666666430e+00,1.643852270222882748e+09,-6.083805701484937267e-03,2.068222122212022729e+00,3.936560504897845814e+00,1.445442661316748589e+00,7.523548063841372091e-01,-2.058749061314942286e-01,3.835375589103435234e-01
5.083333333333333037e+00,1.643852270240835667e+09,4.224825514485427980e-03,2.067402479970535722e+00,3.837132756686883805e+00,1.477492387731753398e+00,7.018273813053790278e-01,-1.991531004717940478e-01,4.229695842719085608e-01
5.099999999999999645e+00,1.643852270254799366e+09,1.496331963548466065e-02,2.099038581674024240e+00,3.963677163500836542e+00,1.477492387731753398e+00,6.479859178522560104e-01,-1.917826077760641790e-01,4.613828332349500516e-01
5.116666666666666252e+00,1.643852270272992134e+09,2.609423905687479478e-02,2.139647167853771403e+00,4.029962328974810326e+00,1.509542114146758207e+00,5.919709367612207007e-01,-1.837793278603500058e-01,4.989065217294857413e-01
5.133333333333332860e+00,1.643852270288323879e+09,3.757785212817914278e-02,2.192307602301514002e+00,4.144454887520766739e+00,1.541591840561763238e+00,5.349378864825783397e-01,-1.751564398748520490e-01,5.357377252237226495e-01
5.150000000000000355e+00,1.643852270308429480e+09,4.937237957754395112e-02,2.130475478203301964e+00,3.800977211882897500e+00,1.573641566976770489e+00,4.780437166508528235e-01,-1.659411841769464213e-01,5.699977894400529710e-01
5.166666666666666963e+00,1.643852270321643353e+09,6.143425616932794708e-02,2.120616949760818493e+00,3.665393918867949186e+00,1.605691293391775298e+00,4.224334644416509743e-01,-1.561687020065835874e-01,6.026094808397313152e-01
5.183333333333333570e+00,1.643852270339990139e+09,7.371840573870581947e-02,1.984280416229120991e+00,3.120047784741157404e+00,1.605691293391775298e+00,3.692269947905996164e-01,-1.458833757634906414e-01,6.315492781136337053e-01
5.200000000000000178e+00,1.643852270357920885e+09,8.617852764234197604e-02,2.026461885167104793e+00,3.288773660493092610e+00,1.605691293391775298e+00,3.195060337766550962e-01,-1.351207581034797878e-01,6.598861257693521276e-01
5.216666666666666785e+00,1.643852270374082327e+09,9.876739257431946251e-02,2.014410036899109357e+00,3.240566267421111313e+00,1.605691293391775298e+00,2.743016313846651233e-01,-1.238976818106548028e-01,6.868082439479233914e-01
5.233333333333333393e+00,1.643852270391908169e+09,1.114371456220239059e-01,2.041526695502099198e+00,3.349032901833069786e+00,1.605691293391775298e+00,2.345821853911915778e-01,-1.122313627478659509e-01,7.130770729000227570e-01
5.250000000000000000e+00,1.643852270407228708e+09,1.241396143784094935e-01,1.981267454162121577e+00,3.107995936473161080e+00,1.605691293391775298e+00,2.012421523098859577e-01,-1.001437861114574390e-01,7.373646563714810753e-01
5.266666666666666607e+00,1.643852270426372290e+09,1.368266198853297921e-01,1.825346667194931216e+00,2.484312788604399191e+00,1.605691293391775298e+00,1.750915642443771070e-01,-8.767991881950705502e-02,7.582414262701858698e-01
5.283333333333333215e+00,1.643852270441324711e+09,1.494502881577971787e-01,1.826853148228430923e+00,2.490338712738396687e+00,1.605691293391775298e+00,1.568464622021357169e-01,-7.487330081913939894e-02,7.784964684436609383e-01
5.299999999999999822e+00,1.643852270460034609e+09,1.619633600313841182e-01,1.793710565491443143e+00,2.357768381790446899e+00,1.605691293391775298e+00,1.471203470024489146e-01,-6.173781746502809281e-02,7.977081669644477957e-01
5.316666666666666430e+00,1.643852270478383064e+09,1.743194970844284819e-01,1.747009653452960887e+00,2.170964733636517430e+00,1.605691293391775298e+00,1.464167384632779623e-01,-4.829134020099179470e-02,8.158187962323487641e-01
5.333333333333333037e+00,1.643852270496610403e+09,1.864735814133992309e-01,1.695036057797230988e+00,1.963070351013597614e+00,1.605691293391775298e+00,1.551229221779009126e-01,-3.455149668150147430e-02,8.329149357124440156e-01
5.349999999999999645e+00,1.643852270513207197e+09,1.983820070833351712e-01,1.714620311232723182e+00,2.041407364755567055e+00,1.605691293391775298e+00,1.735049510088566560e-01,-2.052383490947431305e-02,8.503560283111099016e-01
5.366666666666666252e+00,1.643852270529913664e+09,2.100029611354499448e-01,1.718320112091734631e+00,1.960057388946597978e+00,1.637741019806780329e+00,2.017039555558930441e-01,-6.203491354295783897e-03,8.680360858833918725e-01
5.383333333333332860e+00,1.643852270546433926e+09,2.212966921103674545e-01,1.629437731115268573e+00,1.604527865040733525e+00,1.637741019806780329e+00,2.397338044251831057e-01,8.402054071605128890e-03,8.845833993831651032e-01
5.400000000000000355e+00,1.643852270564492702e+09,2.322257641373374204e-01,1.492414358791557927e+00,1.152583554990905368e+00,1.605691293391775298e+00,2.874801412749077301e-01,2.326877154395203678e-02,8.993815902452593214e-01
5.416666666666666963e+00,1.643852270581123114e+09,2.427552947465893840e-01,1.437427801068828837e+00,9.326373240999890069e-01,1.605691293391775298e+00,3.447008114761183073e-01,3.838039017389172775e-02,9.139721151577354652e-01
5.433333333333333570e+00,1.643852270597634792e+09,2.528531746828085458e-01,1.204268470043831529e+00,0.000000000000000000e+00,1.605691293391775298e+00,4.110276769498459881e-01,5.371012598507165364e-02,9.255639817964501637e-01
5.450000000000000178e+00,1.643852270614741087e+09,2.624902681316475528e-01,1.354571344226360496e+00,6.012114967301152024e-01,1.605691293391775298e+00,4.859698034656008137e-01,6.926256945104655727e-02,9.406872241253412259e-01
5.466666666666666785e+00,1.643852270632440805e+09,2.716405919172709127e-01,1.204268470043831529e+00,0.000000000000000000e+00,1.605691293391775298e+00,5.689179905560770578e-01,8.505567506307057379e-02,9.544472261899823451e-01
5.483333333333333393e+00,1.643852270648761749e+09,2.802814723858715884e-01,1.180231175232577812e+00,0.000000000000000000e+00,1.573641566976770489e+00,6.591506003604259423e-01,1.010853564344240119e-01,9.690739077451789862e-01
5.500000000000000000e+00,1.643852270667950869e+09,2.883936788569155252e-01,1.180231175232577812e+00,0.000000000000000000e+00,1.573641566976770489e+00,7.558406282936007692e-01,1.173701504620463520e-01,9.850569771096595595e-01
5.516666666666666607e+00,1.643852270684906006e+09,2.959615326990239215e-01,1.156193880421322318e+00,0.000000000000000000e+00,1.541591840561763238e+00,8.580639455867937748e-01,1.339299204819987821e-01,1.002068170856509122e+00
5.533333333333333215e+00,1.643852270702052116e+09,3.029729912697839422e-01,9.443866690642611639e-01,-5.587813076932007794e-01,1.445442661316748589e+00,9.648086315838746430e-01,1.507563495147377364e-01,1.017061663501239055e+00
5.549999999999999822e+00,1.643852270719509840e+09,3.094197061467820475e-01,8.864509869741535875e-01,-6.943748568086089978e-01,1.413392934901741116e+00,1.074985302334183102e+00,1.678378147342906024e-01,1.032670803103491908e+00
5.566666666666666430e+00,1.643852270734473228e+09,3.152970552694517314e-01,7.460573851879636065e-01,-1.063650905463339402e+00,1.349293482071731276e+00,1.187438331606734288e+00,1.851734171725801792e-01,1.047560129278447327e+00
5.583333333333333037e+00,1.643852270752420187e+09,3.206041488063925970e-01,6.554295008962589542e-01,-1.233864084140128936e+00,1.285194029241721658e+00,1.300957851072056526e+00,2.027582803300308212e-01,1.062581721987135186e+00
5.599999999999999645e+00,1.643852270769267559e+09,3.253438087591208339e-01,5.261031766549190136e-01,-1.366572664125422554e+00,1.156995123581699536e+00,1.414292408148850821e+00,2.205892197852191428e-01,1.077090708945342978e+00
5.616666666666666252e+00,1.643852270787544966e+09,3.295225225092985877e-01,4.777922875446057316e-01,-1.271368682831624630e+00,1.060845944336682445e+00,1.526162152979437803e+00,2.386687504820588224e-01,1.092410418923904114e+00
5.633333333333332860e+00,1.643852270805679321e+09,3.331503707107896783e-01,4.540036360402703308e-01,-1.078075751113914960e+00,9.646967650916654646e-01,1.635272420250835523e+00,2.570132783766976292e-01,1.108887158634117132e+00
5.650000000000000355e+00,1.643852270822942495e+09,3.362409301189193123e-01,4.364575217717755473e-01,-1.052111028942879223e+00,9.326470386766605447e-01,1.740327567177440971e+00,2.756422296155849883e-01,1.126537958877716683e+00
5.666666666666666963e+00,1.643852270839123249e+09,3.388111521356644840e-01,4.907869924492377356e-01,-9.309423254780454515e-01,9.646967650916654646e-01,1.840044925952490917e+00,2.945841999461443761e-01,1.146443187187186075e+00
5.683333333333333570e+00,1.643852270855711937e+09,3.408812180295891503e-01,4.588160325301676168e-01,-9.626769859093111670e-01,9.326470386766605447e-01,1.933168727389637631e+00,3.138636212227793321e-01,1.167030178575881205e+00
5.700000000000000178e+00,1.643852270873664141e+09,3.424743719619947058e-01,4.633797857131445319e-01,-1.040571152422418155e+00,9.646967650916654646e-01,2.018483852332389361e+00,3.334957296525299930e-01,1.188762464113556128e+00
5.716666666666666785e+00,1.643852270890021563e+09,3.436167331144003856e-01,9.198395212477474825e-01,8.814169689610085179e-01,9.326470386766605447e-01,2.094829268709774706e+00,3.535606324805561362e-01,1.218942041118155295e+00
5.733333333333333393e+00,1.643852270906551600e+09,3.443370883661055482e-01,8.325964247542532171e-01,7.247429414770681921e-01,8.685475858466483734e-01,2.161111014851088363e+00,3.741214646482545758e-01,1.248276332943879297e+00
5.750000000000000000e+00,1.643852270924702406e+09,3.446666671128089110e-01,2.883912420038018953e-01,-9.713318932996567456e-01,7.082989537716214423e-01,2.216314593815743805e+00,3.950996088671785422e-01,1.269043285988614489e+00
5.766666666666666607e+00,1.643852270939811230e+09,3.446388999471453052e-01,8.910441635717142317e-02,-1.383882478906112601e+00,5.801000481115994312e-01,2.259516649006064526e+00,4.163994421218875641e-01,1.286887137156626171e+00
5.783333333333333215e+00,1.643852270956402779e+09,3.442891630384909418e-01,-9.889117607591729753e-02,-1.943566490148438186e+00,5.160005952815897023e-01,2.289895798158507745e+00,4.379724382326445342e-01,1.301830884747245731e+00
5.799999999999999822e+00,1.643852270978347540e+09,3.436545101515730005e-01,-7.357357677297063914e-01,-4.202497319028543288e+00,4.198514160365725556e-01,2.306742510886630626e+00,4.597067983489731557e-01,1.306279970350199271e+00
5.816666666666666430e+00,1.643852270994844437e+09,3.427733943306112696e-01,-9.367137212483147568e-01,-4.814110774612939458e+00,3.557519632065603843e-01,2.309467924196929367e+00,4.814873126423183658e-01,1.307378692772664275e+00
5.833333333333333037e+00,1.643852271011602402e+09,3.416853813471747436e-01,-1.152601463212221011e+00,-5.581512563223550494e+00,3.237022367915554644e-01,2.297611500727576583e+00,5.032545310821813223e-01,1.304694974958057196e+00
5.849999999999999645e+00,1.643852271027750731e+09,3.404308570651735089e-01,-1.508646507474512566e+00,-6.813394381782687859e+00,2.596027839615456800e-01,2.270847445767366857e+00,5.249245177844491517e-01,1.295728337227336935e+00
5.866666666666666252e+00,1.643852271044694901e+09,3.390507309150284088e-01,-1.901959850940496466e+00,-8.290498576401608588e+00,2.275530575465407879e-01,2.228989811287504175e+00,5.463861929684041829e-01,1.279717161382498691e+00
5.883333333333332860e+00,1.643852271062018871e+09,3.375861376907347555e-01,-2.033698545336342534e+00,-8.625154995494956012e+00,1.634536047165285888e-01,2.171996228141807705e+00,5.675571588968626457e-01,1.260851156834131404e+00
5.900000000000000355e+00,1.643852271078025341e+09,3.360781398882236592e-01,-2.124090130140243282e+00,-8.890572155465543247e+00,1.314038783015236689e-01,2.099970221133881765e+00,5.883938639993206987e-01,1.239612453248233992e+00
5.916666666666666963e+00,1.643852271096420288e+09,3.345674327909923806e-01,-2.189959477338165428e+00,-9.057900365012217847e+00,9.935415188651879059e-02,2.013162075679493235e+00,6.088584363175504333e-01,1.216201257569026417e+00
5.933333333333333570e+00,1.643852271111624002e+09,3.330940544796520131e-01,-2.321946815040930368e+00,-9.585849715823277606e+00,9.935415188651879059e-02,1.911968239169090200e+00,6.289038485070224116e-01,1.189322869115023718e+00
5.950000000000000178e+00,1.643852271127630234e+09,3.316971028960498669e-01,-2.271211211956997822e+00,-9.190608944997510577e+00,3.525469905650659153e-02,1.796929254717432922e+00,6.484961183968991350e-01,1.161825899937820816e+00
5.966666666666666785e+00,1.643852271144582510e+09,3.304144620303118840e-01,-2.237312824678145962e+00,-9.055015395882103135e+00,3.525469905650659153e-02,1.668726239629675145e+00,6.676208779600105725e-01,1.133224697290568184e+00
5.983333333333333393e+00,1.643852271162534237e+09,3.292825392211091162e-01,-2.148836323414911487e+00,-8.604960211584151253e+00,3.204972641501691987e-03,1.528175935470391433e+00,6.862657087650758658e-01,1.104235526686427438e+00
6.000000000000000000e+00,1.643852271180552721e+09,3.283360154662466335e-01,-1.831726018590058347e+00,-7.240369813039720270e+00,-2.884475377350440711e-02,1.376224370949428844e+00,7.044542025330676749e-01,1.078455338791091789e+00
6.016666666666666607e+00,1.643852271196587801e+09,3.276076105331287569e-01,-1.753595552589145790e+00,-7.023997128281088465e+00,3.204972641501691987e-03,1.213939192793624500e+00,7.222049637843859227e-01,1.051710304876514845e+00
6.033333333333333215e+00,1.643852271214956045e+09,3.271278645375432781e-01,-1.678822654693959304e+00,-6.628756357455324100e+00,-2.884475377350440711e-02,1.042500733216423559e+00,7.395003170122776970e-01,1.023809586290664209e+00
6.049999999999999822e+00,1.643852271229904413e+09,3.269249375256232382e-01,-1.655742901653038723e+00,-6.536437345291641776e+00,-2.884475377350440711e-02,8.631918953952557594e-01,7.563129334857676689e-01,9.937877863795444577e-01
6.066666666666666430e+00,1.643852271245625734e+09,3.270244284487457964e-01,-1.167461876381061581e+00,-4.583313244203733205e+00,-2.884475377350440711e-02,6.773869503901800426e-01,7.726711114005226921e-01,9.692616930316080293e-01
6.083333333333333037e+00,1.643852271261581898e+09,3.274492147657288021e-01,-1.110483736061288917e+00,-4.355400682924642553e+00,-2.884475377350440711e-02,4.865393500663259818e-01,7.886054185324503640e-01,9.429283127997643010e-01
6.099999999999999645e+00,1.643852271280688524e+09,3.282193137422194651e-01,-1.231652439526122134e+00,-4.840075496783975417e+00,-2.884475377350440711e-02,2.921686707066687427e-01,8.040608907164638053e-01,9.118147778020933014e-01
6.116666666666666252e+00,1.643852271297030210e+09,3.293517663449317401e-01,-1.492020903519007735e+00,-5.881549352755517823e+00,-2.884475377350440711e-02,9.584681101622294364e-02,8.189390231054455294e-01,8.736670772047318012e-01
6.133333333333332860e+00,1.643852271314299107e+09,3.308605444497272896e-01,-1.372294684619232319e+00,-5.402644477156416158e+00,-2.884475377350440711e-02,-1.008164239644794846e-01,8.331760028848619326e-01,8.348782456155868781e-01
6.150000000000000355e+00,1.643852271330906868e+09,3.327564818989302009e-01,-1.391768226247508844e+00,-5.480538643669522259e+00,-2.884475377350440711e-02,-2.961882149816634779e-01,8.467421851260195087e-01,7.931794560206096856e-01
6.166666666666666963e+00,1.643852271349802971e+09,3.350472297560532775e-01,-1.386719530269807432e+00,-5.460343859758716611e+00,-2.884475377350440711e-02,-4.886279534786088230e-01,8.595932644539240330e-01,7.490725852968982412e-01
6.183333333333333570e+00,1.643852271366644144e+09,3.377372359169048543e-01,-1.549956585609113535e+00,-6.017142901870926153e+00,-6.089448018850930622e-02,-6.765026522530697140e-01,8.716668256020863037e-01,6.998913701843663127e-01
6.200000000000000178e+00,1.643852271385038376e+09,3.408277490462279236e-01,-1.533604312598757513e+00,-5.855584630584483641e+00,-9.294420660351540575e-02,-8.582023924666756232e-01,8.829046548910040038e-01,6.487900958110247585e-01
6.216666666666666785e+00,1.643852271401091814e+09,3.443168466201252942e-01,-1.659336769246567256e+00,-6.262365277930708629e+00,-1.249939330185202979e-01,-1.032155656720474601e+00,8.932564616659083301e-01,5.935800819366696679e-01
6.233333333333333393e+00,1.643852271416775703e+09,3.481994866680437339e-01,-1.634565888333670003e+00,-5.970983395789086323e+00,-1.890933858485313035e-01,-1.196844398497000750e+00,9.026764016528138201e-01,5.369699705025863246e-01
6.250000000000000000e+00,1.643852271434299707e+09,3.524675826254696220e-01,-1.947100096156432203e+00,-7.124971047835116700e+00,-2.211431122635373892e-01,-1.350818700327528710e+00,9.110962244111950881e-01,4.735848344694724155e-01
6.266666666666666607e+00,1.643852271453137636e+09,3.571101005311642651e-01,-1.935311576329052485e+00,-6.885518610035564535e+00,-2.852425650935483947e-01,-1.492710876555666921e+00,9.184504130403673416e-01,4.090969382922215458e-01
6.283333333333333215e+00,1.643852271473240852e+09,3.621131776321093176e-01,-1.916310633676384878e+00,-6.617216480934861700e+00,-3.493420179235594003e-01,-1.621248881504619099e+00,9.247235811866161281e-01,3.438644448929560893e-01
6.299999999999999822e+00,1.643852271489195108e+09,3.674602612967060589e-01,-1.633819958412911610e+00,-5.391104600635953759e+00,-3.813917443385642647e-01,-1.735268890166546507e+00,9.299418203066142086e-01,2.824947249633003588e-01
6.316666666666666430e+00,1.643852271504694223e+09,3.731322669833988526e-01,-1.564332055983230996e+00,-4.920854632427198005e+00,-4.454911971685752703e-01,-1.833726926161537651e+00,9.341417058081531444e-01,2.216605230926819159e-01
6.333333333333333037e+00,1.643852271522774220e+09,3.791077538690061366e-01,-1.869890140468509765e+00,-5.950788611878280676e+00,-5.095906499985862759e-01,-1.915709420585128830e+00,9.372825630973682376e-01,1.554263397859062257e-01
6.349999999999999645e+00,1.643852271538135052e+09,3.853631166096968541e-01,-1.821081964744358128e+00,-5.659406729736655706e+00,-5.416403764135924170e-01,-1.980442595394026117e+00,9.393264660610979311e-01,9.002369415320345125e-02
6.366666666666666252e+00,1.643852271554678440e+09,3.918727915888056135e-01,-1.834300625317680566e+00,-5.616132192784930588e+00,-5.736901028285972259e-01,-2.027300576071981553e+00,9.402810605613319828e-01,2.470907962980840866e-02
6.383333333333332860e+00,1.643852271573674679e+09,3.986094759004177313e-01,-1.977827839540905686e+00,-6.190241049677831064e+00,-5.736901028285972259e-01,-2.055812150364354274e+00,9.401323373566786712e-01,-4.236953033062591800e-02
6.400000000000000355e+00,1.643852271589406967e+09,4.055443572266846930e-01,-1.977579196233986591e+00,-5.996948117960121394e+00,-6.377895556586082870e-01,-2.065666102754823097e+00,9.388735755603461186e-01,-1.084981901841068075e-01
6.416666666666666963e+00,1.643852271606713295e+09,4.126473526908407963e-01,-2.063643327342715050e+00,-6.245055463150016806e+00,-6.698392820736143172e-01,-2.056715067954861809e+00,9.365111522572781011e-01,-1.748084068026650173e-01
6.433333333333333570e+00,1.643852271624670982e+09,4.198873547074375434e-01,-1.783801321721552480e+00,-5.125687440665367411e+00,-6.698392820736143172e-01,-2.028977860854724202e+00,9.330952004717745218e-01,-2.349387747267660531e-01
6.450000000000000178e+00,1.643852271641623020e+09,4.272324818068717889e-01,-1.792692528599702406e+00,-5.065103088932951358e+00,-7.018890084886192371e-01,-1.982640255005167829e+00,9.286905532392675244e-01,-2.934563405543402781e-01
6.466666666666666785e+00,1.643852271657580614e+09,4.346503323831135135e-01,-1.980936764339711109e+00,-5.818080031892987058e+00,-7.018890084886192371e-01,-1.918054196619430218e+00,9.233016159892002417e-01,-3.530505859869254026e-01
6.483333333333333393e+00,1.643852271676681519e+09,4.421082393018926360e-01,-1.969396887819250708e+00,-5.771920525811144564e+00,-7.018890084886192371e-01,-1.835735456160075607e+00,9.169406363011814998e-01,-4.101084786985621511e-01
6.500000000000000000e+00,1.643852271692820787e+09,4.495735233114647178e-01,-2.123494092973488456e+00,-6.196010987938063153e+00,-7.659884613186302982e-01,-1.736359734657082932e+00,9.096290144406207201e-01,-4.671277539651775834e-01
6.516666666666666607e+00,1.643852271710047483e+09,4.570137432194508187e-01,-2.101856824497625009e+00,-6.109461914034609364e+00,-7.659884613186302982e-01,-1.620757256845557936e+00,9.013939024786030707e-01,-5.209362100255463535e-01
6.533333333333333215e+00,1.643852271725394726e+09,4.643969408368077700e-01,-1.786910246520357237e+00,-4.753526422880522517e+00,-7.980381877336351071e-01,-1.489905897866151907e+00,8.923309887998720491e-01,-5.664868987532570843e-01
6.549999999999999822e+00,1.643852271741806984e+09,4.716918787435451788e-01,-1.918176341940593499e+00,-5.278590804561468453e+00,-7.980381877336351071e-01,-1.344922904497142913e+00,8.825170830443237469e-01,-6.110579804383377001e-01
6.566666666666666430e+00,1.643852271757369041e+09,4.788682689997414421e-01,-1.775121726692977520e+00,-4.514073985080972129e+00,-8.621376405636461682e-01,-1.187055285542229388e+00,8.720080456365389976e-01,-6.499185599011397807e-01
6.583333333333333037e+00,1.643852271776702166e+09,4.858969910092918454e-01,-1.513310778135034118e+00,-3.466830190849198079e+00,-8.621376405636461682e-01,-1.017668958951116531e+00,8.609162565297985292e-01,-6.810097664125018824e-01
6.599999999999999645e+00,1.643852271789703846e+09,4.927502968417749596e-01,-1.455847695020537902e+00,-3.140828679146194791e+00,-8.941873669786521983e-01,-8.382367553715451836e-01,8.493432950760277933e-01,-7.076715457985991442e-01
6.616666666666666252e+00,1.643852271806757450e+09,4.994020024292178950e-01,-1.366413651986970512e+00,-2.783092507011925676e+00,-8.941873669786521983e-01,-6.503253890039718543e-01,8.373679602570949232e-01,-7.293085283295153154e-01
6.633333333333332860e+00,1.643852271825254917e+09,5.058276631782752109e-01,-1.362807440574326678e+00,-2.768667661361350341e+00,-8.941873669786521983e-01,-4.555815167432228918e-01,8.250623937859981050e-01,-7.473094444803776160e-01
6.649999999999999467e+00,1.643852271842689514e+09,5.120047326735265303e-01,-1.322417872752715384e+00,-2.607109390074905164e+00,-8.941873669786521983e-01,-2.557170155449472460e-01,8.124924823531337603e-01,-7.610417811858076753e-01
6.666666666666666963e+00,1.643852271858639002e+09,5.179127032930633812e-01,-1.137058606142822059e+00,-1.865672323635331198e+00,-8.941873669786521983e-01,-5.249361566203200602e-02,7.997492665908310094e-01,-7.681244357869191353e-01
6.683333333333333570e+00,1.643852271876590252e+09,5.235332277120844369e-01,-1.071910501227427481e+00,-1.701229083218771754e+00,-8.621376405636461682e-01,1.522929662212782476e-01,7.869262683585941387e-01,-7.706283964714514267e-01
6.700000000000000178e+00,1.643852271894877911e+09,5.288502204326509526e-01,-9.805490308340788497e-01,-1.239634022400358804e+00,-8.941873669786521983e-01,3.568292449325730087e-01,7.741027528413316761e-01,-7.682002107192140716e-01
6.716666666666666785e+00,1.643852271911258221e+09,5.338499386466522001e-01,-9.009760802681090475e-01,-1.017491399381498018e+00,-8.621376405636461682e-01,5.593003832469427561e-01,7.613583277746668321e-01,-7.611503806029020769e-01
6.733333333333333393e+00,1.643852271927769423e+09,5.385210419131080117e-01,-3.894066045864836290e-01,9.326373240999890069e-01,-8.300879141486412482e-01,7.579066521414938862e-01,7.488285159787519962e-01,-7.424789013477370858e-01
6.750000000000000000e+00,1.643852271943718433e+09,5.428546303087207203e-01,-3.511905434064580001e-01,7.970540310850406929e-01,-7.339387349036241570e-01,9.508797795998875646e-01,7.366392485558167502e-01,-7.202948133215780757e-01
6.766666666666666607e+00,1.643852271962019205e+09,5.468442608906770586e-01,-2.542217219199554568e-01,8.964817792960030340e-01,-6.377895556586082870e-01,1.136499033603053377e+00,7.248556830620001001e-01,-6.938066259663764335e-01
6.783333333333333215e+00,1.643852271976787329e+09,5.504859424915882204e-01,-1.264364409714509863e-01,1.023026186109954772e+00,-5.095906499985862759e-01,1.313106887338307160e+00,7.135519717274283469e-01,-6.627250738590237944e-01
6.799999999999999822e+00,1.643852271993258715e+09,5.537781090467529532e-01,-1.115708358106673043e-01,7.940410690180419451e-01,-4.134414707535703504e-01,1.479124118525007692e+00,7.027869768894382529e-01,-6.291675243091280345e-01
6.816666666666666430e+00,1.643852272011967421e+09,5.567215718320794871e-01,7.634088302834085571e-02,9.687928689039755348e-01,-2.211431122635373892e-01,1.633064200053217618e+00,6.926238562996992476e-01,-5.905143190013630861e-01
6.833333333333333037e+00,1.643852272029492855e+09,5.593194511656662815e-01,2.237768191370750059e-01,1.270089075603860973e+00,-1.249939330185202979e-01,1.773546845810640038e+00,6.831393844566094886e-01,-5.477411194091448277e-01
6.849999999999999645e+00,1.643852272043927908e+09,5.615770882957429322e-01,4.848856715502788406e-01,1.929927768276610278e+00,3.204972641501691987e-03,1.899310583570032129e+00,6.744153264529126890e-01,-4.992804571534428804e-01
6.866666666666666252e+00,1.643852272063581467e+09,5.635019383610582189e-01,5.682961637352872408e-01,1.975122199281592605e+00,9.935415188651879059e-02,2.009224236044374834e+00,6.665189547699499339e-01,-4.484254121408190463e-01
6.883333333333332860e+00,1.643852272077523232e+09,5.651034454655851080e-01,7.119658972602709301e-01,2.261353595646483416e+00,1.955033311315334810e-01,2.102297201602970400e+00,6.594958420660637088e-01,-3.944979144558788398e-01
6.899999999999999467e+00,1.643852272094603539e+09,5.663929010563018007e-01,7.501155567155596282e-01,2.029355516487572064e+00,3.237022367915554644e-01,2.177688437576422054e+00,6.533797548225015461e-01,-3.395850939741170693e-01
6.916666666666666963e+00,1.643852272111077785e+09,5.673832869296258075e-01,7.642279213595944976e-01,1.797357437328660268e+00,4.198514160365725556e-01,2.234714061451254619e+00,6.481811222819406915e-01,-2.844040950533753276e-01
6.933333333333333570e+00,1.643852272129452229e+09,5.680891043177666022e-01,8.491448945781022717e-01,1.848577792467640313e+00,5.160005952815897023e-01,2.272853498446000486e+00,6.439115480424010274e-01,-2.281012142634339934e-01
6.950000000000000178e+00,1.643852272147407055e+09,5.685261906197508486e-01,1.009385919471579962e+00,2.201094354306506684e+00,6.121497745266043511e-01,2.291754117841051652e+00,6.405973217006678544e-01,-1.697679872998236472e-01
6.966666666666666785e+00,1.643852272163342476e+09,5.687115254422935307e-01,1.071772078912333725e+00,2.258340633579485335e+00,6.762492273566165224e-01,2.291234314870217670e+00,6.382558038059384931e-01,-1.113763628420518237e-01
6.983333333333333393e+00,1.643852272181293726e+09,5.686630277022372004e-01,1.068692715120597381e+00,2.149873999167525529e+00,7.082989537716214423e-01,2.271285009831746748e+00,6.368762338406367407e-01,-5.433049746087766779e-02
7.000000000000000000e+00,1.643852272202587605e+09,5.683993456142154566e-01,1.147716567654580411e+00,2.369820230058442334e+00,7.403486801866263622e-01,2.232069551196654178e+00,6.364450474501923694e-01,2.430457577087243026e-03
7.016666666666666607e+00,1.643852272216557026e+09,5.679396414440419649e-01,1.152989251271828275e+00,2.390910964527434235e+00,7.403486801866263622e-01,2.173922024735240655e+00,6.369447340259388746e-01,5.737929226812522876e-02
7.033333333333333215e+00,1.643852272235900164e+09,5.673033729494737498e-01,9.970020625799022040e-01,1.670813030514707753e+00,7.723984066016336136e-01,2.097343985900653518e+00,6.383205229274679926e-01,1.075759375079387431e-01
7.049999999999999822e+00,1.643852272249453306e+09,5.665100734553326634e-01,9.496143117494058039e-01,1.577411206437743907e+00,7.403486801866263622e-01,2.002999647753211931e+00,6.405064132904568774e-01,1.546002798033268011e-01
7.066666666666666430e+00,1.643852272267619610e+09,5.655791325190611119e-01,9.707050462183977046e-01,1.661774144313711954e+00,7.403486801866263622e-01,1.891709571434750714e+00,6.434570892879775128e-01,1.993565141000253060e-01
7.083333333333333037e+00,1.643852272281572580e+09,5.645295791357516357e-01,8.976407160936755725e-01,1.369516823814822981e+00,7.403486801866263622e-01,1.764442920465780773e+00,6.471198509552952283e-01,2.400618130420318352e-01
7.099999999999999645e+00,1.643852272299902201e+09,5.633798694085259129e-01,9.051731212611725530e-01,1.399646444484811569e+00,7.403486801866263622e-01,1.622308353800359537e+00,6.514368207177371195e-01,2.778695345306155251e-01
7.116666666666666252e+00,1.643852272317231894e+09,5.621476805709616498e-01,9.179782100459177308e-01,1.450866799623792058e+00,7.403486801866263622e-01,1.466543645503272320e+00,6.563589514963186211e-01,3.126894346778538725e-01
7.133333333333332860e+00,1.643852272334316969e+09,5.608497131935745728e-01,8.698372186986732535e-01,1.354452013479828798e+00,7.082989537716214423e-01,1.298504130984155402e+00,6.618267456427001649e-01,3.433606630261861192e-01
7.149999999999999467e+00,1.643852272349370480e+09,5.595015033363939239e-01,8.178636230429431331e-01,1.146557630856907872e+00,7.082989537716214423e-01,1.119650090818125054e+00,6.677696085746209764e-01,3.697096953252830276e-01
7.166666666666666963e+00,1.643852272368445396e+09,5.581172463251875548e-01,6.922716619199505983e-01,9.326373240999890069e-01,6.121497745266043511e-01,9.315331931947439248e-01,6.741046530792698110e-01,3.904380650725457480e-01
7.183333333333333570e+00,1.643852272385529041e+09,5.567096337304184850e-01,6.592618826324375680e-01,9.928965654399664054e-01,5.480503216965945112e-01,7.357821248688524163e-01,6.807507108378498817e-01,4.070427407723204438e-01
7.200000000000000178e+00,1.643852272403028488e+09,5.552897050164958825e-01,3.148885620274294306e-01,0.000000000000000000e+00,4.198514160365725556e-01,5.340875480552533805e-01,6.875957965748696887e-01,4.143472568700120040e-01
7.216666666666666785e+00,1.643852272419270992e+09,5.538667152050924525e-01,4.105451437289229372e-02,-8.068886528830971905e-01,3.237022367915554644e-01,3.281865269385134121e-01,6.944953540963701988e-01,4.136017167037015496e-01
7.233333333333333393e+00,1.643852272436980009e+09,5.524480197613457211e-01,-1.387587696454614661e-01,-1.141545071976446168e+00,1.955033311315334810e-01,1.198465723035354036e-01,7.013289770038119153e-01,4.064528905072277154e-01
7.250000000000000000e+00,1.643852272454178333e+09,5.510389777666721001e-01,-5.791768171445053071e-01,-2.422471365747540961e+00,3.525469905650659153e-02,-8.915054381762010927e-02,7.079547426609816840e-01,3.886883355006891527e-01
7.266666666666666607e+00,1.643852272474730492e+09,5.496428742879171381e-01,-9.270395529920620881e-01,-3.429325592157702385e+00,-9.294420660351540575e-02,-2.970250496709125887e-01,7.142101273454567467e-01,3.620318741051645195e-01
7.283333333333333215e+00,1.643852272492894173e+09,5.482608626908458405e-01,-1.166231003665579191e+00,-3.905345498626689338e+00,-2.531928386785423091e-01,-5.020153572410643861e-01,7.199635688710059878e-01,3.284743265645045929e-01
7.299999999999999822e+00,1.643852272507940292e+09,5.468919274779242556e-01,-1.497020224220251050e+00,-4.747756484620293094e+00,-4.134414707535703504e-01,-7.023940144818936471e-01,7.250889877504361758e-01,2.866920037067053340e-01
7.316666666666666430e+00,1.643852272525359392e+09,5.455328680572398836e-01,-1.761455154782274990e+00,-5.324750310643308282e+00,-5.736901028285972259e-01,-8.964832757021601317e-01,7.294604739873583599e-01,2.380215436283759090e-01
7.333333333333333037e+00,1.643852272541620016e+09,5.441783036727281253e-01,-1.838852034681543568e+00,-5.249741113260316006e+00,-7.018890084886192371e-01,-1.082670143501412330e+00,7.329911019591200949e-01,1.857988793535649275e-01
7.349999999999999645e+00,1.643852272559558630e+09,5.428206995469986307e-01,-2.260517782834839728e+00,-6.455658209648419188e+00,-8.621376405636461682e-01,-1.259420741073424388e+00,7.355759116491514815e-01,1.245484275983958500e-01
7.366666666666666252e+00,1.643852272574929953e+09,5.414504141084847122e-01,-2.356666962079855931e+00,-6.455658209648419188e+00,-9.903365462236681793e-01,-1.425293880478448738e+00,7.371121497661617950e-01,5.997950877208049758e-02
7.383333333333332860e+00,1.643852272593873978e+09,5.400557669957956053e-01,-2.422760264946469011e+00,-6.239285524889788270e+00,-1.150585178298696221e+00,-1.578953700562559570e+00,7.375508051163607304e-01,-7.154379336602234574e-03
7.399999999999999467e+00,1.643852272610393524e+09,5.386231273554892285e-01,-2.545831708132854754e+00,-6.250825401410248894e+00,-1.310833810373723152e+00,-1.719181257490265180e+00,7.368434679082640493e-01,-7.753059155555751258e-02
7.416666666666666963e+00,1.643852272627340317e+09,5.371370217765012445e-01,-2.748003502909599938e+00,-6.674915863537164817e+00,-1.439032716033745052e+00,-1.844884961265666146e+00,7.349276278999383738e-01,-1.521628926168195894e-01
7.433333333333333570e+00,1.643852272646517038e+09,5.355802610364676086e-01,-2.813375563493684783e+00,-6.455658209648419188e+00,-1.599281348108773093e+00,-1.955109763042322868e+00,7.317539709316732699e-01,-2.284639910908212168e-01
7.450000000000000178e+00,1.643852272662367105e+09,5.339340846736392310e-01,-2.743875317244888201e+00,-5.696911328428153176e+00,-1.759529980183800024e+00,-2.049045010350661666e+00,7.273157927600959471e-01,-3.039078183791697474e-01
7.466666666666666785e+00,1.643852272681578875e+09,5.321783222442599826e-01,-2.649367890595390573e+00,-4.741986546360062782e+00,-1.951828338673833096e+00,-2.126030900482776431e+00,7.216330578894820658e-01,-3.778150633598586494e-01
7.483333333333333393e+00,1.643852272699692965e+09,5.302915699804476857e-01,-2.833272328821111685e+00,-5.189156761527899953e+00,-2.047977517918849077e+00,-2.185563476036801678e+00,7.146951200662663428e-01,-4.545243889509414936e-01
7.500000000000000000e+00,1.643852272714412212e+09,5.282513814289832021e-01,-2.726764770494658929e+00,-4.666977348977070505e+00,-2.080027244333855219e+00,-2.227298120902953649e+00,7.064982350806525702e-01,-5.288952188219546713e-01
7.516666666666666607e+00,1.643852272733199596e+09,5.260344705280223243e-01,-2.671938013203357443e+00,-4.159222782076817282e+00,-2.176176423578870978e+00,-2.251051529629136017e+00,6.970764002663945025e-01,-6.015232097215714724e-01
7.533333333333333215e+00,1.643852272749158144e+09,5.236169254677346396e-01,-2.674101740050943921e+00,-4.167877689467162305e+00,-2.176176423578870978e+00,-2.256802137991463564e+00,6.864530372195569718e-01,-6.730815779754406591e-01
7.549999999999999822e+00,1.643852272768461704e+09,5.209744315829990535e-01,-2.425509452066323401e+00,-3.077359358283663138e+00,-2.208226149993877119e+00,-2.244689017568424649e+00,6.746829271404440886e-01,-7.391481090569069767e-01
7.566666666666666430e+00,1.643852272782633781e+09,5.180825014425507469e-01,-2.443540509129542571e+00,-3.149483586536540258e+00,-2.208226149993877119e+00,-2.215009252029667586e+00,6.618224422776387561e-01,-8.039301202134218061e-01
7.583333333333333037e+00,1.643852272800592184e+09,5.149167102298742860e-01,-2.492100041546774669e+00,-3.247572536960452450e+00,-2.240275876408881928e+00,-2.168213827554597906e+00,6.478909612931276207e-01,-8.676705370472668211e-01
7.599999999999999645e+00,1.643852272817540407e+09,5.114529344574834102e-01,-2.374537549494585065e+00,-2.777322568751695808e+00,-2.240275876408881928e+00,-2.104902084149298247e+00,6.329309263258825480e-01,-9.273678293074197887e-01
7.616666666666666252e+00,1.643852272836443424e+09,5.076675920182748269e-01,-2.223076670163543600e+00,-2.171479051427528617e+00,-2.240275876408881928e+00,-2.025814788491365981e+00,6.170160253363954350e-01,-9.822677859621812280e-01
7.633333333333332860e+00,1.643852272851771355e+09,5.035378815558743115e-01,-2.100229182645848347e+00,-1.776238280601762920e+00,-2.208226149993877119e+00,-1.931825902166091069e+00,6.002236574268859925e-01,-1.032676336132870798e+00
7.649999999999999467e+00,1.643852272867383003e+09,4.990420191304351660e-01,-1.995164108884452503e+00,-1.259828806311164451e+00,-2.240275876408881928e+00,-1.823933131635191662e+00,5.826275233123471287e-01,-1.078731822693659304e+00
7.666666666666666963e+00,1.643852272885962486e+09,4.941594701673589496e-01,-2.017286320155040169e+00,-1.444466830638529542e+00,-2.208226149993877119e+00,-1.703247357879113855e+00,5.642837726103434592e-01,-1.122396966625558212e+00
7.683333333333333570e+00,1.643852272903006077e+09,4.888711747036919575e-01,-1.803077362243995507e+00,-5.876309989943514500e-01,-2.208226149993877119e+00,-1.570981054263312693e+00,5.452661558969456035e-01,-1.159613656853948793e+00
7.700000000000000178e+00,1.643852272919640064e+09,4.831597639905506614e-01,-1.656169612495407728e+00,0.000000000000000000e+00,-2.208226149993877119e+00,-1.428435810695625641e+00,5.256733807927644886e-01,-1.191430972136285016e+00
7.716666666666666785e+00,1.643852272935697556e+09,4.770097665692297206e-01,-1.632132317684153122e+00,0.000000000000000000e+00,-2.176176423578870978e+00,-1.276989090472523625e+00,5.055789496637251856e-01,-1.219821897809856948e+00
7.733333333333333393e+00,1.643852272949162006e+09,4.704078020135744609e-01,-1.560020433250391303e+00,0.000000000000000000e+00,-2.080027244333855219e+00,-1.118080353279279571e+00,4.850471664924784210e-01,-1.243925127747438131e+00
7.750000000000000000e+00,1.643852272966902256e+09,4.633427606207764504e-01,-1.511945843627882979e+00,0.000000000000000000e+00,-2.015927791503844269e+00,-9.531966835418239636e-01,4.641464058734606213e-01,-1.264110075914582021e+00
7.766666666666666607e+00,1.643852272984718323e+09,4.558059674366805591e-01,-1.391759369571611948e+00,0.000000000000000000e+00,-1.855679159428816005e+00,-7.838580676759161481e-01,4.429520067566543595e-01,-1.279175967418567872e+00
7.783333333333333215e+00,1.643852272999788761e+09,4.477913291189343226e-01,-1.319647485137850129e+00,0.000000000000000000e+00,-1.759529980183800024e+00,-6.116024666986014102e-01,4.215423425155843118e-01,-1.289953802374772085e+00
7.799999999999999822e+00,1.643852273017406940e+09,4.392954622709647761e-01,-1.223498305892833482e+00,0.000000000000000000e+00,-1.631331074523778124e+00,-4.379708321331148291e-01,3.999917985924691943e-01,-1.296094410752089532e+00
7.816666666666666430e+00,1.643852273035360098e+09,4.303178020210363663e-01,-1.151386421459071663e+00,0.000000000000000000e+00,-1.535181895278762143e+00,-2.644922131396373333e-01,3.783736804231677686e-01,-1.298074269826099858e+00
7.833333333333333037e+00,1.643852273052314281e+09,4.208606897721272611e-01,-1.079274537025308733e+00,0.000000000000000000e+00,-1.439032716033745052e+00,-9.266910134149486389e-02,3.567565304851521568e-01,-1.295989513860864362e+00
7.849999999999999645e+00,1.643852273070868492e+09,4.109294392091215609e-01,-1.031199947402800632e+00,0.000000000000000000e+00,-1.374933263203734102e+00,7.603684309079783432e-02,3.352037803678872274e-01,-1.290356148815466009e+00
7.866666666666666252e+00,1.643852273086581230e+09,4.005323798184698969e-01,-9.831253577802923083e-01,0.000000000000000000e+00,-1.310833810373723152e+00,2.402185448583471494e-01,3.137734585297312084e-01,-1.281307607192675668e+00
7.883333333333332860e+00,1.643852273104036808e+09,3.896808773507276502e-01,-9.110134733465303780e-01,0.000000000000000000e+00,-1.214684631128707171e+00,3.985366129074985331e-01,2.925245230295526189e-01,-1.268599952699814182e+00
7.899999999999999467e+00,1.643852273120437860e+09,3.783893308368363462e-01,-8.389015889127675596e-01,0.000000000000000000e+00,-1.118535451883690079e+00,5.497316592121010981e-01,2.715164698480397321e-01,-1.252411398346645832e+00
7.916666666666666963e+00,1.643852273139205933e+09,3.666751459533123536e-01,-6.216931121889877065e-01,6.765355484050865620e-01,-1.054435999053679129e+00,6.926357186593559145e-01,2.508257288577231403e-01,-1.230538280581823019e+00
7.933333333333333570e+00,1.643852273155217648e+09,3.545586847181156909e-01,-5.615666742984840587e-01,7.247429414770681921e-01,-9.903365462236681793e-01,8.261826611290865596e-01,2.305232689681466773e-01,-1.205825554245069764e+00
7.950000000000000178e+00,1.643852273173992395e+09,3.420631916864366184e-01,-5.203376510514603481e-01,6.012114967301152024e-01,-8.941873669786521983e-01,9.494174973114408722e-01,2.106519903470839838e-01,-1.178802944853007295e+00
7.966666666666666785e+00,1.643852273188776255e+09,3.292146970025295882e-01,-4.496658459264606944e-01,6.916003587400809671e-01,-8.300879141486412482e-01,1.061504491216636925e+00,1.912525989094430168e-01,-1.149206242660530064e+00
7.983333333333333393e+00,1.643852273205011606e+09,3.160418968484741131e-01,-3.653693097752290786e-01,9.326373240999890069e-01,-7.980381877336351071e-01,1.161734004577670731e+00,1.723678847604337427e-01,-1.117048783598146855e+00
8.000000000000000000e+00,1.643852273225042820e+09,3.025760120119520002e-01,-1.923231960970056276e-01,1.336374241077835201e+00,-7.018890084886192371e-01,1.249528011310266251e+00,1.540507140257557084e-01,-1.081111532609914549e+00
8.016666666666665719e+00,1.643852273240288019e+09,2.888506254712865373e-01,-1.412356444074984452e-01,1.348426089345831080e+00,-6.377895556586082870e-01,1.324444233742718469e+00,1.363449375073307046e-01,-1.043685612935902451e+00
8.033333333333333215e+00,1.643852273255270243e+09,2.749015000658036056e-01,-5.926523153125315413e-02,1.484009382360779172e+00,-5.736901028285972259e-01,1.386178866326456482e+00,1.192776056426896880e-01,-1.004503053824674641e+00
8.050000000000000711e+00,1.643852273272799730e+09,2.607663774815336399e-01,2.948434599573969070e-02,1.646709333978717549e+00,-5.095906499985862759e-01,1.434567866845791073e+00,1.028768461641150211e-01,-9.637014241320744912e-01
8.066666666666666430e+00,1.643852273289009571e+09,2.464847599352389951e-01,2.025304596739631868e-01,2.050446250956563965e+00,-4.134414707535703504e-01,1.469586809619194412e+00,8.717921635504727318e-02,-9.201351731681207680e-01
8.083333333333333925e+00,1.643852273306319237e+09,2.320976760823133811e-01,3.085381673614630560e-01,2.186029543971512279e+00,-3.172922915085532591e-01,1.491349309680533031e+00,7.221932102123855557e-02,-8.751771532169454471e-01
8.099999999999999645e+00,1.643852273322135448e+09,2.176474328054147644e-01,3.498335923332238639e-01,2.158912885368522439e+00,-2.531928386785423091e-01,1.500104041301253854e+00,5.800942934840316173e-02,-8.301349676502021158e-01
8.116666666666667140e+00,1.643852273340112448e+09,2.031773546592061941e-01,3.677121595610065574e-01,1.941979616544605269e+00,-1.570436594335263836e-01,1.496230388321520222e+00,4.454595388494558134e-02,-7.856057830553691002e-01
8.133333333333332860e+00,1.643852273357609987e+09,1.887315128519664043e-01,4.670071043224952589e-01,2.146861037100527447e+00,-9.294420660351540575e-02,1.480232777458653226e+00,3.182998617419457998e-02,-7.404358173149322431e-01
8.150000000000000355e+00,1.643852273374987364e+09,1.743544457355638011e-01,5.595228844332366114e-01,2.324625799053459563e+00,-2.884475377350440711e-02,1.452733758918411722e+00,1.986959247512722071e-02,-6.949378128933374477e-01
8.166666666666666075e+00,1.643852273392251015e+09,1.600908728512440982e-01,6.747022817712065024e-01,2.689194209160321147e+00,3.204972641501691987e-03,1.414465911118157671e+00,8.671837704279001385e-03,-6.489205882409998516e-01
8.183333333333333570e+00,1.643852273409206152e+09,1.459854046386936943e-01,7.280495550109619129e-01,2.710284943629313048e+00,6.730442547151148369e-02,1.366262658017656229e+00,-1.764608749765490120e-03,-6.035789382364783462e-01
8.199999999999999289e+00,1.643852273425712585e+09,1.320822499598130750e-01,6.323880093837481731e-01,2.327638761120458089e+00,6.730442547151148369e-02,1.309048098325141574e+00,-1.147273897233829290e-02,-5.615135395520907124e-01
8.216666666666666785e+00,1.643852273441294670e+09,1.184249236159305024e-01,6.699836334964985873e-01,2.381872078326438213e+00,9.935415188651879059e-02,1.243825955599582755e+00,-2.048940509922931447e-02,-5.206000469402649600e-01
8.233333333333332504e+00,1.643852273459848404e+09,1.050559560477103138e-01,6.940209283077523050e-01,2.381872078326438213e+00,1.314038783015236689e-01,1.171667766905602370e+00,-2.883647715647812831e-02,-4.811581632961269284e-01
8.250000000000000000e+00,1.643852273476857901e+09,9.201660740048633880e-02,6.110980697405465900e-01,1.954031464812600483e+00,1.634536047165285888e-01,1.093700435112753278e+00,-3.655385445234603931e-02,-4.450274775860373344e-01
8.266666666666665719e+00,1.643852273492835522e+09,7.934658811444317283e-02,5.342011353073385926e-01,1.550294547834754066e+00,1.955033311315334810e-01,1.011093276089420012e+00,-4.369607482636040513e-02,-4.121303503554103465e-01
8.283333333333333215e+00,1.643852273511898756e+09,6.708378815876582524e-02,5.891212913053324174e-01,1.673825992581707389e+00,2.275530575465407879e-01,9.250446968678458504e-01,-5.029885298750662315e-02,-3.802914723913778383e-01
8.300000000000000711e+00,1.643852273529048204e+09,5.526401697229951782e-02,6.169911904250718893e-01,1.785305589060665055e+00,2.275530575465407879e-01,8.367686442975801331e-01,-5.638372411235222786e-02,-3.499772706878213624e-01
8.316666666666666430e+00,1.643852273546838284e+09,4.392075610037413785e-02,6.696516248728145992e-01,1.899798147606621246e+00,2.596027839615456800e-01,7.474809657339123170e-01,-6.197260452803699665e-02,-3.207695137620244497e-01
8.333333333333333925e+00,1.643852273561856031e+09,3.308492642912170406e-02,5.476266611593608724e-01,1.411698292752806561e+00,2.596027839615456800e-01,6.583858238995938805e-01,-6.710788319924002043e-02,-2.955340270065054953e-01
8.349999999999999645e+00,1.643852273580125093e+09,2.278467181540126674e-02,4.790817741351370285e-01,1.137518744655910963e+00,2.596027839615456800e-01,5.706623072140153408e-01,-7.184763983243400154e-02,-2.732985356841589608e-01
8.366666666666667140e+00,1.643852273597344875e+09,1.304516079295813674e-02,4.707961284508901945e-01,1.104376161918923627e+00,2.596027839615456800e-01,4.854513746086240866e-01,-7.623278991479065514e-02,-2.529759272174770812e-01
8.383333333333332860e+00,1.643852273614298582e+09,3.888407904957126571e-03,5.544058258101083325e-01,1.438814951355796401e+00,2.596027839615456800e-01,4.038432701686353044e-01,-8.028176036384501724e-02,-2.329561385021103326e-01
8.400000000000000355e+00,1.643852273631206512e+09,-4.666883929972533152e-03,5.348215723746158057e-01,1.360477937613826294e+00,2.596027839615456800e-01,3.268655378945914958e-01,-8.401317000049778050e-02,-2.148632770276374393e-01
8.416666666666666075e+00,1.643852273646212339e+09,-1.260545876493342210e-02,6.063794214658386750e-01,1.646709333978717549e+00,2.596027839615456800e-01,2.554717605157212912e-01,-8.744550827929722936e-02,-1.970667523824786715e-01
8.433333333333333570e+00,1.643852273663171530e+09,-1.991561959602956150e-02,5.852886869968465522e-01,1.562346396102749280e+00,2.596027839615456800e-01,1.905311386757622127e-01,-9.059557857273518866e-02,-1.809863516611638912e-01
8.449999999999999289e+00,1.643852273681119919e+09,-2.658931604121818337e-02,6.213778300760957052e-01,1.610553789174731021e+00,2.916525103765505444e-01,1.328190180264463560e-01,-9.348284979690707486e-02,-1.655291329686162938e-01
8.466666666666666785e+00,1.643852273698461294e+09,-3.262220699033423210e-02,5.807692438963484305e-01,1.544268623700756571e+00,2.596027839615456800e-01,8.300846189589194957e-02,-9.612712440534747216e-02,-1.518218965969719003e-01
8.483333333333332504e+00,1.643852273715693235e+09,-3.801369767602827410e-02,4.534715965656467285e-01,1.035078034377949985e+00,2.596027839615456800e-01,4.166295634548888849e-02,-9.856813140101164383e-02,-1.411286470527887971e-01
8.500000000000000000e+00,1.643852273730406284e+09,-4.276695080597782417e-02,4.248484569291577362e-01,9.205854758319939046e-01,2.596027839615456800e-01,9.230322702092896847e-03,-1.008408275817725824e-01,-1.316213045448403340e-01
8.516666666666665719e+00,1.643852273750673294e+09,-4.688887159054826864e-02,4.203954155533965453e-01,9.989224895739640120e-01,2.275530575465407879e-01,-1.396209983168628099e-02,-1.029601996182282764e-01,-1.227280439130228051e-01
8.533333333333333215e+00,1.643852273764241219e+09,-5.039006669545059020e-02,4.662766853503918507e-01,1.086298389516930474e+00,2.596027839615456800e-01,-2.771095199924977770e-02,-1.049281408401935012e-01,-1.134506738018718763e-01
8.550000000000000711e+00,1.643852273782365322e+09,-5.328477734438186869e-02,5.394074171998513023e-01,1.474970496159782929e+00,2.275530575465407879e-01,-3.193899686648560277e-02,-1.067332237484553276e-01,-1.031877838880539550e-01
8.566666666666666430e+00,1.643852273798598528e+09,-5.559078699073579516e-02,5.017453913623656225e-01,1.324322392809840210e+00,2.275530575465407879e-01,-2.669588484726603816e-02,-1.083731537235153308e-01,-9.363036213774229843e-02
8.583333333333333925e+00,1.643852273815525770e+09,-5.732930416855615274e-02,3.985514405676547911e-01,9.115465896309968841e-01,2.275530575465407879e-01,-1.215753366523664170e-02,-1.098673585675862541e-01,-8.569625884529773197e-02
8.599999999999999645e+00,1.643852273834147215e+09,-5.852482131968347878e-02,3.743813423069269342e-01,7.187170173430705855e-01,2.596027839615456800e-01,1.137587019138752709e-02,-1.112305121596375290e-01,-7.790381837827453637e-02
8.616666666666667140e+00,1.643852273851354837e+09,-5.920495057487511203e-02,3.187079457921852543e-01,5.921726105291187370e-01,2.275530575465407879e-01,4.348322776248880750e-02,-1.124681229927282644e-01,-7.062968798593922959e-02
8.633333333333332860e+00,1.643852273868038416e+09,-5.940023764036674037e-02,3.156949837251863955e-01,5.801207622611230796e-01,2.275530575465407879e-01,8.362720690312208660e-02,-1.135803744711939289e-01,-6.286206666366842000e-02
8.650000000000000355e+00,1.643852273885161161e+09,-5.914395510635514497e-02,3.337727561271794929e-01,6.524318518690956914e-01,2.275530575465407879e-01,1.311601961696065022e-01,-1.145551762708817423e-01,-5.413838232570084008e-02
8.666666666666666075e+00,1.643852273901225328e+09,-5.847187664904789084e-02,3.503440474956732720e-01,7.187170173430705855e-01,2.275530575465407879e-01,1.853314717545424539e-01,-1.153760172525909455e-01,-4.438961602315470711e-02
8.683333333333333570e+00,1.643852273917672873e+09,-5.742203374201708399e-02,3.864995922996595223e-01,8.633391965590156980e-01,2.275530575465407879e-01,2.452955033869634871e-01,-1.160224492165321392e-01,-3.321326579776979343e-02
8.699999999999999289e+00,1.643852273933132172e+09,-5.603445662449166309e-02,4.331341026134045147e-01,9.537280585689810186e-01,2.596027839615456800e-01,3.101213133270736000e-01,-1.164687574047377772e-01,-2.037936734388951995e-02
8.716666666666666785e+00,1.643852273950918913e+09,-5.435090139287063193e-02,5.145504801471106893e-01,1.375542747948820699e+00,2.275530575465407879e-01,3.788027916643603721e-01,-1.166822083190895282e-01,-5.276695232679914915e-03
