2022-02-02-16:40:47.700372,3.0,5.0,307.0
2022-02-02-16:40:47.701314,37.0,5.0,308.0
2022-02-02-16:40:47.702310,25.0,11.0,308.0
2022-02-02-16:40:47.702310,9.0,13.0,308.0
2022-02-02-16:40:47.703309,3.0,13.0,308.0
2022-02-02-16:40:47.704339,0.0,11.0,308.0
2022-02-02-16:40:47.705336,7.0,18.0,308.0
2022-02-02-16:40:47.706326,24.0,10.0,308.0
2022-02-02-16:40:47.708305,11.0,16.0,309.0
2022-02-02-16:40:47.709292,2.0,11.0,309.0
2022-02-02-16:40:47.709292,3.0,11.0,308.0
2022-02-02-16:40:47.710317,10.0,2.0,308.0
2022-02-02-16:40:47.711314,12.0,3.0,308.0
2022-02-02-16:40:47.712310,5.0,14.0,308.0
2022-02-02-16:40:47.713308,5.0,3.0,308.0
2022-02-02-16:40:47.714304,10.0,7.0,308.0
2022-02-02-16:40:47.715301,5.0,8.0,308.0
2022-02-02-16:40:47.716309,6.0,14.0,308.0
2022-02-02-16:40:47.717297,16.0,4.0,308.0
2022-02-02-16:40:47.718295,2.0,4.0,309.0
2022-02-02-16:40:47.719296,2.0,17.0,307.0
2022-02-02-16:40:47.720289,6.0,24.0,308.0
2022-02-02-16:40:47.721287,2.0,21.0,308.0
2022-02-02-16:40:47.722283,7.0,19.0,308.0
2022-02-02-16:40:47.723254,10.0,21.0,308.0
2022-02-02-16:40:47.724279,1.0,18.0,308.0
2022-02-02-16:40:47.725249,3.0,1.0,308.0
2022-02-02-16:40:47.726280,3.0,4.0,308.0
2022-02-02-16:40:47.727270,18.0,2.0,308.0
2022-02-02-16:40:47.728269,15.0,14.0,308.0
2022-02-02-16:40:47.729266,2.0,7.0,308.0
2022-02-02-16:40:47.729942,0.0,0.0,308.0
2022-02-02-16:40:47.730236,9.0,3.0,308.0
2022-02-02-16:40:47.731263,10.0,11.0,308.0
2022-02-02-16:40:47.732258,8.0,6.0,308.0
2022-02-02-16:40:47.733254,9.0,1.0,308.0
2022-02-02-16:40:47.734252,1.0,3.0,308.0
2022-02-02-16:40:47.735248,27.0,4.0,308.0
2022-02-02-16:40:47.736246,7.0,13.0,308.0
2022-02-02-16:40:47.737244,6.0,9.0,308.0
2022-02-02-16:40:47.738242,9.0,4.0,308.0
2022-02-02-16:40:47.739240,12.0,2.0,309.0
2022-02-02-16:40:47.740236,3.0,6.0,308.0
2022-02-02-16:40:47.742217,2.0,2.0,308.0
2022-02-02-16:40:47.743202,12.0,4.0,308.0
2022-02-02-16:40:47.744224,10.0,11.0,308.0
2022-02-02-16:40:47.745223,8.0,27.0,308.0
2022-02-02-16:40:47.746219,9.0,8.0,308.0
2022-02-02-16:40:47.747219,1.0,5.0,308.0
2022-02-02-16:40:47.748215,2.0,1.0,308.0
2022-02-02-16:40:47.749186,5.0,3.0,308.0
2022-02-02-16:40:47.750183,8.0,3.0,308.0
2022-02-02-16:40:47.751205,0.0,10.0,308.0
2022-02-02-16:40:47.752178,4.0,4.0,308.0
2022-02-02-16:40:47.753175,6.0,2.0,308.0
2022-02-02-16:40:47.754196,8.0,3.0,308.0
2022-02-02-16:40:47.755194,3.0,5.0,308.0
2022-02-02-16:40:47.756196,4.0,30.0,309.0
2022-02-02-16:40:47.757188,9.0,19.0,308.0
2022-02-02-16:40:47.758189,10.0,8.0,308.0
2022-02-02-16:40:47.759159,9.0,15.0,308.0
2022-02-02-16:40:47.760182,5.0,1.0,308.0
2022-02-02-16:40:47.761180,8.0,4.0,308.0
2022-02-02-16:40:47.762151,5.0,9.0,309.0
2022-02-02-16:40:47.763176,3.0,18.0,308.0
2022-02-02-16:40:47.764145,3.0,23.0,308.0
2022-02-02-16:40:47.765168,10.0,9.0,308.0
2022-02-02-16:40:47.766186,11.0,1.0,308.0
2022-02-02-16:40:47.767163,1.0,8.0,308.0
2022-02-02-16:40:47.768236,1.0,8.0,308.0
2022-02-02-16:40:47.768745,3.0,3.0,307.0
2022-02-02-16:40:47.768745,8.0,5.0,308.0
2022-02-02-16:40:47.769795,6.0,1.0,309.0
2022-02-02-16:40:47.770789,4.0,6.0,308.0
2022-02-02-16:40:47.771787,0.0,12.0,308.0
2022-02-02-16:40:47.772763,6.0,13.0,308.0
2022-02-02-16:40:47.774756,4.0,3.0,308.0
2022-02-02-16:40:47.775729,14.0,1.0,308.0
2022-02-02-16:40:47.775729,7.0,7.0,308.0
2022-02-02-16:40:47.776753,1.0,6.0,308.0
2022-02-02-16:40:47.777750,5.0,9.0,308.0
2022-02-02-16:40:47.778746,4.0,2.0,308.0
2022-02-02-16:40:47.779720,9.0,1.0,308.0
2022-02-02-16:40:47.780718,10.0,4.0,308.0
2022-02-02-16:40:47.781714,8.0,11.0,308.0
2022-02-02-16:40:47.782711,17.0,1.0,308.0
2022-02-02-16:40:47.783740,11.0,5.0,308.0
2022-02-02-16:40:47.784739,9.0,2.0,308.0
2022-02-02-16:40:47.785735,1.0,15.0,309.0
2022-02-02-16:40:47.786733,1.0,13.0,309.0
2022-02-02-16:40:47.787730,9.0,8.0,308.0
2022-02-02-16:40:47.788726,3.0,1.0,308.0
2022-02-02-16:40:47.789726,10.0,11.0,308.0
2022-02-02-16:40:47.790721,6.0,10.0,308.0
2022-02-02-16:40:47.791713,3.0,8.0,308.0
2022-02-02-16:40:47.792710,3.0,6.0,308.0
2022-02-02-16:40:47.793705,1.0,7.0,308.0
2022-02-02-16:40:47.794703,2.0,3.0,308.0
2022-02-02-16:40:47.795701,9.0,4.0,308.0
2022-02-02-16:40:47.796760,2.0,35.0,308.0
2022-02-02-16:40:47.796760,1.0,4.0,308.0
2022-02-02-16:40:47.797999,3.0,5.0,308.0
2022-02-02-16:40:47.797999,5.0,6.0,308.0
2022-02-02-16:40:47.799024,5.0,6.0,308.0
2022-02-02-16:40:47.800020,9.0,12.0,308.0
2022-02-02-16:40:47.801018,10.0,2.0,308.0
2022-02-02-16:40:47.802016,3.0,22.0,308.0
2022-02-02-16:40:47.803012,2.0,18.0,308.0
2022-02-02-16:40:47.804012,6.0,6.0,308.0
2022-02-02-16:40:47.805007,11.0,2.0,308.0
2022-02-02-16:40:47.806004,11.0,2.0,308.0
2022-02-02-16:40:47.807975,2.0,4.0,308.0
2022-02-02-16:40:47.807975,3.0,23.0,308.0
2022-02-02-16:40:47.808973,3.0,23.0,308.0
2022-02-02-16:40:47.809994,3.0,23.0,308.0
2022-02-02-16:40:47.810990,7.0,0.0,308.0
2022-02-02-16:40:47.811991,5.0,7.0,308.0
2022-02-02-16:40:47.812985,5.0,7.0,308.0
2022-02-02-16:40:47.813983,5.0,7.0,308.0
2022-02-02-16:40:47.814981,5.0,18.0,308.0
2022-02-02-16:40:47.816086,6.0,9.0,309.0
2022-02-02-16:40:47.816086,6.0,9.0,309.0
2022-02-02-16:40:47.817141,6.0,9.0,309.0
2022-02-02-16:40:47.818140,6.0,9.0,309.0
2022-02-02-16:40:47.819116,6.0,3.0,308.0
2022-02-02-16:40:47.820132,6.0,3.0,308.0
2022-02-02-16:40:47.821075,6.0,3.0,308.0
2022-02-02-16:40:47.822127,6.0,3.0,308.0
2022-02-02-16:40:47.823124,6.0,8.0,308.0
2022-02-02-16:40:47.824122,5.0,1.0,308.0
2022-02-02-16:40:47.825119,5.0,1.0,308.0
2022-02-02-16:40:47.826119,6.0,7.0,308.0
2022-02-02-16:40:47.827113,8.0,11.0,308.0
2022-02-02-16:40:47.828111,12.0,3.0,308.0
2022-02-02-16:40:47.829110,6.0,3.0,308.0
2022-02-02-16:40:47.830106,6.0,3.0,308.0
2022-02-02-16:40:47.831103,3.0,10.0,308.0
2022-02-02-16:40:47.832101,1.0,13.0,309.0
2022-02-02-16:40:47.833098,1.0,7.0,307.0
2022-02-02-16:40:47.834097,1.0,7.0,307.0
2022-02-02-16:40:47.835093,9.0,8.0,308.0
2022-02-02-16:40:47.836089,9.0,6.0,308.0
2022-02-02-16:40:47.837209,9.0,10.0,308.0
2022-02-02-16:40:47.837209,9.0,10.0,308.0
2022-02-02-16:40:47.838264,9.0,10.0,308.0
2022-02-02-16:40:47.839258,2.0,8.0,308.0
2022-02-02-16:40:47.840254,4.0,7.0,308.0
2022-02-02-16:40:47.841249,4.0,7.0,308.0
2022-02-02-16:40:47.842200,4.0,7.0,308.0
2022-02-02-16:40:47.844243,10.0,8.0,308.0
2022-02-02-16:40:47.844243,7.0,2.0,308.0
2022-02-02-16:40:47.845292,8.0,10.0,308.0
2022-02-02-16:40:47.845292,8.0,10.0,308.0
2022-02-02-16:40:47.846339,8.0,10.0,308.0
2022-02-02-16:40:47.847335,8.0,10.0,308.0
2022-02-02-16:40:47.848476,9.0,11.0,308.0
2022-02-02-16:40:47.848476,2.0,12.0,308.0
2022-02-02-16:40:47.849530,2.0,12.0,308.0
2022-02-02-16:40:47.850541,2.0,12.0,308.0
2022-02-02-16:40:47.851526,2.0,7.0,308.0
2022-02-02-16:40:47.852508,2.0,0.0,308.0
2022-02-02-16:40:47.853525,2.0,0.0,308.0
2022-02-02-16:40:47.854517,2.0,0.0,308.0
2022-02-02-16:40:47.855516,2.0,0.0,308.0
2022-02-02-16:40:47.856511,5.0,4.0,308.0
2022-02-02-16:40:47.857455,14.0,1.0,308.0
2022-02-02-16:40:47.858491,14.0,1.0,308.0
2022-02-02-16:40:47.859495,4.0,9.0,308.0
2022-02-02-16:40:47.859495,4.0,3.0,308.0
2022-02-02-16:40:47.860531,4.0,3.0,308.0
2022-02-02-16:40:47.861549,7.0,7.0,308.0
2022-02-02-16:40:47.862547,7.0,7.0,308.0
2022-02-02-16:40:47.863543,7.0,7.0,308.0
2022-02-02-16:40:47.864541,7.0,6.0,308.0
2022-02-02-16:40:47.865538,2.0,13.0,308.0
2022-02-02-16:40:47.866536,6.0,12.0,308.0
2022-02-02-16:40:47.867532,6.0,12.0,308.0
2022-02-02-16:40:47.868476,5.0,12.0,308.0
2022-02-02-16:40:47.869527,1.0,7.0,308.0
2022-02-02-16:40:47.870526,4.0,1.0,309.0
2022-02-02-16:40:47.871522,4.0,1.0,309.0
2022-02-02-16:40:47.872520,5.0,5.0,308.0
2022-02-02-16:40:47.873616,11.0,8.0,308.0
2022-02-02-16:40:47.873616,11.0,8.0,308.0
2022-02-02-16:40:47.874662,11.0,8.0,308.0
2022-02-02-16:40:47.875786,11.0,8.0,308.0
2022-02-02-16:40:47.875786,15.0,11.0,307.0
2022-02-02-16:40:47.877832,10.0,17.0,308.0
2022-02-02-16:40:47.877832,6.0,0.0,308.0
2022-02-02-16:40:47.878827,6.0,0.0,308.0
2022-02-02-16:40:47.879980,6.0,0.0,308.0
2022-02-02-16:40:47.879980,7.0,15.0,308.0
2022-02-02-16:40:47.881027,2.0,12.0,308.0
2022-02-02-16:40:47.882026,2.0,12.0,308.0
2022-02-02-16:40:47.883020,2.0,12.0,308.0
2022-02-02-16:40:47.884018,2.0,12.0,308.0
2022-02-02-16:40:47.884972,1.0,2.0,308.0
2022-02-02-16:40:47.885966,3.0,14.0,308.0
2022-02-02-16:40:47.886963,2.0,17.0,308.0
2022-02-02-16:40:47.888007,2.0,17.0,308.0
2022-02-02-16:40:47.888983,1.0,22.0,309.0
2022-02-02-16:40:47.890002,8.0,36.0,308.0
2022-02-02-16:40:47.890999,9.0,41.0,308.0
2022-02-02-16:40:47.891951,9.0,41.0,308.0
2022-02-02-16:40:47.892989,10.0,3.0,308.0
2022-02-02-16:40:47.894041,10.0,3.0,308.0
2022-02-02-16:40:47.894041,10.0,3.0,308.0
2022-02-02-16:40:47.895090,10.0,3.0,308.0
2022-02-02-16:40:47.896246,10.0,3.0,308.0
2022-02-02-16:40:47.896246,6.0,10.0,308.0
2022-02-02-16:40:47.897292,1.0,15.0,308.0
2022-02-02-16:40:47.898289,1.0,15.0,308.0
2022-02-02-16:40:47.899288,1.0,15.0,308.0
2022-02-02-16:40:47.900284,1.0,15.0,308.0
2022-02-02-16:40:47.901281,3.0,11.0,307.0
2022-02-02-16:40:47.902279,5.0,19.0,308.0
2022-02-02-16:40:47.903378,4.0,1.0,308.0
2022-02-02-16:40:47.903378,4.0,1.0,308.0
2022-02-02-16:40:47.904432,4.0,1.0,308.0
2022-02-02-16:40:47.905429,5.0,4.0,308.0
2022-02-02-16:40:47.906433,6.0,4.0,308.0
2022-02-02-16:40:47.907424,5.0,2.0,308.0
2022-02-02-16:40:47.908427,5.0,2.0,308.0
2022-02-02-16:40:47.909404,5.0,5.0,308.0
2022-02-02-16:40:47.911397,10.0,11.0,308.0
2022-02-02-16:40:47.911397,6.0,4.0,308.0
2022-02-02-16:40:47.912390,3.0,4.0,308.0
2022-02-02-16:40:47.913408,2.0,15.0,308.0
2022-02-02-16:40:47.914405,1.0,18.0,308.0
2022-02-02-16:40:47.915403,1.0,18.0,308.0
2022-02-02-16:40:47.916401,1.0,18.0,308.0
2022-02-02-16:40:47.917376,4.0,12.0,308.0
2022-02-02-16:40:47.918375,3.0,11.0,309.0
2022-02-02-16:40:47.919337,7.0,13.0,308.0
2022-02-02-16:40:47.920384,7.0,13.0,308.0
2022-02-02-16:40:47.921378,5.0,6.0,308.0
2022-02-02-16:40:47.922471,6.0,2.0,308.0
2022-02-02-16:40:47.922471,6.0,2.0,308.0
2022-02-02-16:40:47.923519,6.0,2.0,308.0
2022-02-02-16:40:47.924514,6.0,2.0,308.0
2022-02-02-16:40:47.925465,7.0,5.0,308.0
2022-02-02-16:40:47.926489,9.0,10.0,308.0
2022-02-02-16:40:47.927512,9.0,10.0,308.0
2022-02-02-16:40:47.928510,9.0,10.0,308.0
2022-02-02-16:40:47.929627,1.0,14.0,308.0
2022-02-02-16:40:47.929627,1.0,14.0,308.0
2022-02-02-16:40:47.930681,1.0,14.0,308.0
2022-02-02-16:40:47.931680,1.0,14.0,308.0
2022-02-02-16:40:47.932675,1.0,14.0,308.0
2022-02-02-16:40:47.933673,0.0,18.0,308.0
2022-02-02-16:40:47.934670,1.0,5.0,308.0
2022-02-02-16:40:47.935669,0.0,1.0,308.0
2022-02-02-16:40:47.936611,0.0,1.0,308.0
2022-02-02-16:40:47.937662,4.0,1.0,308.0
2022-02-02-16:40:47.938757,7.0,3.0,308.0
2022-02-02-16:40:47.938757,6.0,2.0,308.0
2022-02-02-16:40:47.939812,6.0,2.0,308.0
2022-02-02-16:40:47.940811,6.0,2.0,308.0
2022-02-02-16:40:47.941805,5.0,7.0,308.0
2022-02-02-16:40:47.942784,13.0,8.0,308.0
2022-02-02-16:40:47.943802,13.0,8.0,308.0
2022-02-02-16:40:47.944778,13.0,8.0,308.0
2022-02-02-16:40:47.946793,7.0,8.0,308.0
2022-02-02-16:40:47.946793,6.0,13.0,308.0
2022-02-02-16:40:47.947788,6.0,13.0,308.0
2022-02-02-16:40:47.948794,6.0,13.0,308.0
2022-02-02-16:40:47.949784,7.0,2.0,308.0
2022-02-02-16:40:47.950730,0.0,2.0,308.0
2022-02-02-16:40:47.951777,0.0,2.0,308.0
2022-02-02-16:40:47.952756,0.0,2.0,308.0
2022-02-02-16:40:47.953963,0.0,2.0,308.0
2022-02-02-16:40:47.953963,3.0,11.0,308.0
2022-02-02-16:40:47.954995,3.0,11.0,308.0
2022-02-02-16:40:47.955992,4.0,5.0,308.0
2022-02-02-16:40:47.956989,4.0,5.0,308.0
2022-02-02-16:40:47.958048,2.0,3.0,307.0
2022-02-02-16:40:47.958524,8.0,4.0,308.0
2022-02-02-16:40:47.958524,9.0,15.0,308.0
2022-02-02-16:40:47.959557,9.0,15.0,308.0
2022-02-02-16:40:47.960552,9.0,15.0,308.0
2022-02-02-16:40:47.961549,9.0,15.0,308.0
2022-02-02-16:40:47.962548,4.0,20.0,308.0
2022-02-02-16:40:47.963568,5.0,7.0,308.0
2022-02-02-16:40:47.964564,4.0,4.0,308.0
2022-02-02-16:40:47.965562,4.0,4.0,308.0
2022-02-02-16:40:47.966552,5.0,19.0,308.0
2022-02-02-16:40:47.967558,1.0,20.0,308.0
2022-02-02-16:40:47.968554,2.0,22.0,308.0
2022-02-02-16:40:47.969496,2.0,22.0,308.0
2022-02-02-16:40:47.970494,1.0,3.0,308.0
2022-02-02-16:40:47.971526,7.0,3.0,308.0
2022-02-02-16:40:47.972554,5.0,8.0,308.0
2022-02-02-16:40:47.972554,5.0,8.0,308.0
2022-02-02-16:40:47.973579,5.0,8.0,308.0
2022-02-02-16:40:47.974555,7.0,7.0,308.0
2022-02-02-16:40:47.975549,13.0,11.0,308.0
2022-02-02-16:40:47.976546,13.0,11.0,308.0
2022-02-02-16:40:47.977568,13.0,11.0,308.0
2022-02-02-16:40:47.978569,8.0,4.0,308.0
2022-02-02-16:40:47.979538,4.0,2.0,308.0
2022-02-02-16:40:47.980582,4.0,2.0,308.0
2022-02-02-16:40:47.982556,4.0,2.0,308.0
2022-02-02-16:40:47.982556,5.0,9.0,308.0
2022-02-02-16:40:47.983528,5.0,9.0,308.0
2022-02-02-16:40:47.984552,5.0,9.0,308.0
2022-02-02-16:40:47.985569,5.0,9.0,308.0
2022-02-02-16:40:47.986567,6.0,2.0,308.0
2022-02-02-16:40:47.987566,5.0,4.0,307.0
2022-02-02-16:40:47.988560,4.0,1.0,308.0
2022-02-02-16:40:47.989558,4.0,1.0,308.0
2022-02-02-16:40:47.990555,4.0,1.0,308.0
2022-02-02-16:40:47.991552,1.0,2.0,308.0
2022-02-02-16:40:47.992503,3.0,6.0,309.0
2022-02-02-16:40:47.993547,3.0,6.0,309.0
2022-02-02-16:40:47.994545,3.0,6.0,309.0
2022-02-02-16:40:47.995545,6.0,4.0,308.0
2022-02-02-16:40:47.996921,8.0,5.0,308.0
2022-02-02-16:40:47.996921,9.0,7.0,308.0
2022-02-02-16:40:47.997956,9.0,7.0,308.0
2022-02-02-16:40:47.998950,6.0,10.0,308.0
2022-02-02-16:40:48.000024,6.0,10.0,308.0
2022-02-02-16:40:48.000024,6.0,10.0,308.0
2022-02-02-16:40:48.001070,6.0,10.0,308.0
2022-02-02-16:40:48.002257,6.0,10.0,308.0
2022-02-02-16:40:48.002257,4.0,5.0,308.0
2022-02-02-16:40:48.003288,4.0,5.0,308.0
2022-02-02-16:40:48.004347,6.0,1.0,308.0
2022-02-02-16:40:48.004347,6.0,1.0,308.0
2022-02-02-16:40:48.005396,6.0,1.0,308.0
2022-02-02-16:40:48.006535,6.0,1.0,308.0
2022-02-02-16:40:48.006535,12.0,6.0,308.0
2022-02-02-16:40:48.007568,12.0,6.0,308.0
2022-02-02-16:40:48.008567,13.0,11.0,309.0
2022-02-02-16:40:48.009561,14.0,13.0,308.0
2022-02-02-16:40:48.010560,14.0,13.0,308.0
2022-02-02-16:40:48.011560,12.0,11.0,308.0
2022-02-02-16:40:48.012553,8.0,2.0,308.0
2022-02-02-16:40:48.013793,9.0,14.0,308.0
2022-02-02-16:40:48.013793,9.0,14.0,308.0
2022-02-02-16:40:48.015789,9.0,14.0,308.0
2022-02-02-16:40:48.015789,1.0,25.0,308.0
2022-02-02-16:40:48.016820,1.0,21.0,308.0
2022-02-02-16:40:48.017888,1.0,21.0,308.0
2022-02-02-16:40:48.017888,1.0,21.0,308.0
2022-02-02-16:40:48.019098,1.0,21.0,308.0
2022-02-02-16:40:48.019098,3.0,19.0,308.0
2022-02-02-16:40:48.020131,3.0,19.0,308.0
2022-02-02-16:40:48.021127,3.0,6.0,308.0
2022-02-02-16:40:48.022124,3.0,6.0,308.0
2022-02-02-16:40:48.023122,3.0,6.0,308.0
2022-02-02-16:40:48.024119,0.0,3.0,308.0
2022-02-02-16:40:48.025119,9.0,10.0,308.0
2022-02-02-16:40:48.026115,9.0,10.0,308.0
2022-02-02-16:40:48.027111,9.0,10.0,308.0
2022-02-02-16:40:48.028109,8.0,2.0,308.0
2022-02-02-16:40:48.029108,8.0,14.0,308.0
2022-02-02-16:40:48.030103,8.0,14.0,308.0
2022-02-02-16:40:48.031102,8.0,14.0,308.0
2022-02-02-16:40:48.032099,6.0,20.0,308.0
2022-02-02-16:40:48.033118,3.0,10.0,308.0
2022-02-02-16:40:48.034118,3.0,10.0,308.0
2022-02-02-16:40:48.035058,3.0,10.0,308.0
2022-02-02-16:40:48.036103,4.0,2.0,309.0
2022-02-02-16:40:48.037102,5.0,6.0,308.0
2022-02-02-16:40:48.038096,6.0,10.0,308.0
2022-02-02-16:40:48.039047,6.0,10.0,308.0
2022-02-02-16:40:48.040092,3.0,9.0,308.0
2022-02-02-16:40:48.041089,6.0,8.0,308.0
2022-02-02-16:40:48.042040,9.0,1.0,308.0
2022-02-02-16:40:48.043036,9.0,1.0,308.0
2022-02-02-16:40:48.044079,11.0,9.0,308.0
2022-02-02-16:40:48.045081,12.0,2.0,308.0
2022-02-02-16:40:48.046075,8.0,8.0,308.0
2022-02-02-16:40:48.047090,8.0,8.0,308.0
2022-02-02-16:40:48.049020,2.0,14.0,308.0
2022-02-02-16:40:48.049020,2.0,14.0,308.0
2022-02-02-16:40:48.050041,2.0,14.0,308.0
2022-02-02-16:40:48.051039,2.0,14.0,308.0
2022-02-02-16:40:48.052291,2.0,14.0,308.0
2022-02-02-16:40:48.052291,6.0,6.0,308.0
2022-02-02-16:40:48.053419,6.0,6.0,308.0
2022-02-02-16:40:48.053419,4.0,5.0,308.0
2022-02-02-16:40:48.054467,4.0,5.0,308.0
2022-02-02-16:40:48.055466,4.0,5.0,308.0
2022-02-02-16:40:48.056460,3.0,4.0,308.0
2022-02-02-16:40:48.057411,12.0,3.0,307.0
2022-02-02-16:40:48.058455,12.0,3.0,307.0
2022-02-02-16:40:48.059447,12.0,3.0,307.0
2022-02-02-16:40:48.059447,9.0,5.0,308.0
2022-02-02-16:40:48.060481,11.0,6.0,308.0
2022-02-02-16:40:48.061477,8.0,7.0,308.0
2022-02-02-16:40:48.062474,8.0,7.0,308.0
2022-02-02-16:40:48.063459,8.0,7.0,308.0
2022-02-02-16:40:48.064469,2.0,9.0,308.0
2022-02-02-16:40:48.065467,1.0,0.0,308.0
2022-02-02-16:40:48.066464,1.0,0.0,308.0
2022-02-02-16:40:48.067460,1.0,0.0,308.0
2022-02-02-16:40:48.068458,1.0,0.0,308.0
2022-02-02-16:40:48.069454,5.0,10.0,308.0
2022-02-02-16:40:48.070444,4.0,18.0,308.0
2022-02-02-16:40:48.071452,4.0,18.0,308.0
2022-02-02-16:40:48.072442,4.0,18.0,308.0
2022-02-02-16:40:48.073437,5.0,12.0,308.0
2022-02-02-16:40:48.074435,1.0,3.0,309.0
2022-02-02-16:40:48.075406,11.0,4.0,308.0
2022-02-02-16:40:48.076432,11.0,4.0,308.0
2022-02-02-16:40:48.077431,13.0,10.0,308.0
2022-02-02-16:40:48.078423,8.0,2.0,309.0
2022-02-02-16:40:48.079423,6.0,0.0,308.0
2022-02-02-16:40:48.080419,6.0,0.0,308.0
2022-02-02-16:40:48.082413,1.0,15.0,309.0
2022-02-02-16:40:48.082413,2.0,9.0,308.0
2022-02-02-16:40:48.083409,2.0,9.0,308.0
2022-02-02-16:40:48.084407,2.0,9.0,308.0
2022-02-02-16:40:48.085409,7.0,5.0,308.0
2022-02-02-16:40:48.086401,10.0,6.0,308.0
2022-02-02-16:40:48.087401,5.0,6.0,309.0
2022-02-02-16:40:48.088396,5.0,6.0,309.0
2022-02-02-16:40:48.089692,9.0,14.0,308.0
2022-02-02-16:40:48.089692,5.0,14.0,307.0
2022-02-02-16:40:48.090724,13.0,7.0,307.0
2022-02-02-16:40:48.091722,13.0,7.0,307.0
2022-02-02-16:40:48.092686,13.0,7.0,307.0
2022-02-02-16:40:48.093762,5.0,3.0,308.0
2022-02-02-16:40:48.093762,4.0,9.0,308.0
2022-02-02-16:40:48.094790,0.0,6.0,309.0
2022-02-02-16:40:48.095786,0.0,6.0,309.0
2022-02-02-16:40:48.096789,0.0,6.0,309.0
2022-02-02-16:40:48.097783,6.0,0.0,308.0
2022-02-02-16:40:48.098793,2.0,17.0,308.0
2022-02-02-16:40:48.098793,1.0,10.0,308.0
2022-02-02-16:40:48.099828,1.0,10.0,308.0
2022-02-02-16:40:48.100822,1.0,10.0,308.0
2022-02-02-16:40:48.101788,0.0,8.0,308.0
2022-02-02-16:40:48.102962,7.0,1.0,308.0
2022-02-02-16:40:48.102962,3.0,4.0,308.0
2022-02-02-16:40:48.103994,3.0,4.0,308.0
2022-02-02-16:40:48.105196,3.0,4.0,308.0
2022-02-02-16:40:48.105196,7.0,1.0,308.0
2022-02-02-16:40:48.106229,5.0,4.0,308.0
2022-02-02-16:40:48.107280,5.0,4.0,308.0
2022-02-02-16:40:48.107280,5.0,4.0,308.0
2022-02-02-16:40:48.108308,5.0,4.0,308.0
2022-02-02-16:40:48.109456,5.0,4.0,308.0
2022-02-02-16:40:48.109456,8.0,3.0,308.0
2022-02-02-16:40:48.110487,7.0,5.0,308.0
2022-02-02-16:40:48.111529,6.0,6.0,308.0
2022-02-02-16:40:48.111529,6.0,6.0,308.0
2022-02-02-16:40:48.112563,6.0,6.0,308.0
2022-02-02-16:40:48.113559,6.0,6.0,308.0
2022-02-02-16:40:48.114559,1.0,18.0,308.0
2022-02-02-16:40:48.115831,1.0,18.0,308.0
2022-02-02-16:40:48.116831,0.0,17.0,308.0
2022-02-02-16:40:48.117571,1.0,7.0,309.0
2022-02-02-16:40:48.117695,5.0,0.0,308.0
2022-02-02-16:40:48.117695,5.0,0.0,308.0
2022-02-02-16:40:48.118748,5.0,0.0,308.0
2022-02-02-16:40:48.119742,5.0,0.0,308.0
2022-02-02-16:40:48.120736,5.0,0.0,308.0
2022-02-02-16:40:48.121980,5.0,0.0,308.0
2022-02-02-16:40:48.122087,6.0,6.0,308.0
2022-02-02-16:40:48.122087,7.0,4.0,308.0
2022-02-02-16:40:48.123142,7.0,4.0,308.0
2022-02-02-16:40:48.124139,7.0,4.0,308.0
2022-02-02-16:40:48.125135,7.0,4.0,308.0
2022-02-02-16:40:48.126134,7.0,7.0,308.0
2022-02-02-16:40:48.127132,6.0,12.0,308.0
2022-02-02-16:40:48.128128,5.0,7.0,308.0
2022-02-02-16:40:48.129107,5.0,7.0,308.0
2022-02-02-16:40:48.130123,6.0,2.0,308.0
2022-02-02-16:40:48.131119,4.0,18.0,308.0
2022-02-02-16:40:48.132117,4.0,21.0,308.0
2022-02-02-16:40:48.133324,4.0,21.0,308.0
2022-02-02-16:40:48.133324,3.0,6.0,308.0
2022-02-02-16:40:48.134356,3.0,6.0,308.0
2022-02-02-16:40:48.135354,3.0,2.0,308.0
2022-02-02-16:40:48.136352,3.0,2.0,308.0
2022-02-02-16:40:48.137343,3.0,2.0,308.0
2022-02-02-16:40:48.138345,2.0,2.0,308.0
2022-02-02-16:40:48.139448,4.0,2.0,308.0
2022-02-02-16:40:48.139448,4.0,2.0,308.0
2022-02-02-16:40:48.140494,4.0,2.0,308.0
2022-02-02-16:40:48.141670,4.0,2.0,308.0
2022-02-02-16:40:48.141670,2.0,4.0,308.0
2022-02-02-16:40:48.142702,2.0,4.0,308.0
2022-02-02-16:40:48.143820,14.0,2.0,308.0
2022-02-02-16:40:48.143820,14.0,2.0,308.0
2022-02-02-16:40:48.144866,14.0,2.0,308.0
2022-02-02-16:40:48.146037,14.0,2.0,308.0
2022-02-02-16:40:48.146037,6.0,1.0,308.0
2022-02-02-16:40:48.147069,6.0,1.0,308.0
2022-02-02-16:40:48.148066,4.0,19.0,308.0
2022-02-02-16:40:48.149066,4.0,19.0,308.0
2022-02-02-16:40:48.151058,4.0,19.0,308.0
2022-02-02-16:40:48.151058,5.0,5.0,308.0
2022-02-02-16:40:48.152056,5.0,5.0,308.0
2022-02-02-16:40:48.153052,3.0,2.0,308.0
2022-02-02-16:40:48.154050,3.0,2.0,308.0
2022-02-02-16:40:48.155109,6.0,4.0,308.0
2022-02-02-16:40:48.155524,1.0,2.0,308.0
2022-02-02-16:40:48.155524,7.0,1.0,308.0
2022-02-02-16:40:48.156663,7.0,1.0,308.0
2022-02-02-16:40:48.156663,7.0,1.0,308.0
2022-02-02-16:40:48.157878,7.0,1.0,308.0
2022-02-02-16:40:48.157878,7.0,1.0,308.0
2022-02-02-16:40:48.158878,7.0,1.0,308.0
2022-02-02-16:40:48.160032,8.0,7.0,308.0
2022-02-02-16:40:48.160032,8.0,7.0,308.0
2022-02-02-16:40:48.161065,8.0,7.0,308.0
2022-02-02-16:40:48.162062,8.0,7.0,308.0
2022-02-02-16:40:48.163064,6.0,0.0,308.0
2022-02-02-16:40:48.164056,6.0,18.0,308.0
2022-02-02-16:40:48.165053,6.0,18.0,308.0
2022-02-02-16:40:48.166051,6.0,18.0,308.0
2022-02-02-16:40:48.167048,2.0,21.0,308.0
2022-02-02-16:40:48.168049,2.0,10.0,308.0
2022-02-02-16:40:48.169043,2.0,10.0,308.0
2022-02-02-16:40:48.170041,2.0,10.0,308.0
2022-02-02-16:40:48.171040,3.0,11.0,308.0
2022-02-02-16:40:48.172034,5.0,6.0,308.0
2022-02-02-16:40:48.173033,5.0,6.0,308.0
2022-02-02-16:40:48.174036,5.0,6.0,308.0
2022-02-02-16:40:48.175027,6.0,11.0,308.0
2022-02-02-16:40:48.176024,10.0,16.0,308.0
2022-02-02-16:40:48.177014,10.0,16.0,308.0
2022-02-02-16:40:48.178010,10.0,16.0,308.0
2022-02-02-16:40:48.179010,10.0,16.0,308.0
2022-02-02-16:40:48.180013,10.0,10.0,308.0
2022-02-02-16:40:48.181003,5.0,10.0,309.0
2022-02-02-16:40:48.182000,5.0,10.0,309.0
2022-02-02-16:40:48.183995,3.0,19.0,308.0
2022-02-02-16:40:48.183995,3.0,19.0,308.0
2022-02-02-16:40:48.185048,3.0,14.0,308.0
2022-02-02-16:40:48.185989,3.0,14.0,308.0
2022-02-02-16:40:48.186991,3.0,14.0,308.0
2022-02-02-16:40:48.187984,2.0,11.0,308.0
2022-02-02-16:40:48.188986,5.0,4.0,307.0
2022-02-02-16:40:48.189979,5.0,4.0,307.0
2022-02-02-16:40:48.190979,5.0,4.0,307.0
2022-02-02-16:40:48.191973,6.0,2.0,308.0
2022-02-02-16:40:48.192979,10.0,9.0,308.0
2022-02-02-16:40:48.193990,10.0,9.0,308.0
2022-02-02-16:40:48.194988,10.0,9.0,308.0
2022-02-02-16:40:48.195988,12.0,6.0,308.0
2022-02-02-16:40:48.196982,8.0,9.0,308.0
2022-02-02-16:40:48.197980,7.0,15.0,308.0
2022-02-02-16:40:48.198979,7.0,15.0,308.0
2022-02-02-16:40:48.199953,1.0,13.0,308.0
2022-02-02-16:40:48.200972,1.0,13.0,308.0
2022-02-02-16:40:48.201969,1.0,13.0,308.0
2022-02-02-16:40:48.202972,1.0,13.0,308.0
2022-02-02-16:40:48.203966,3.0,8.0,308.0
2022-02-02-16:40:48.204914,6.0,5.0,308.0
2022-02-02-16:40:48.205912,6.0,5.0,308.0
2022-02-02-16:40:48.206919,6.0,5.0,308.0
2022-02-02-16:40:48.207953,8.0,11.0,308.0
2022-02-02-16:40:48.208904,6.0,11.0,308.0
2022-02-02-16:40:48.209948,8.0,0.0,307.0
2022-02-02-16:40:48.210946,8.0,0.0,307.0
2022-02-02-16:40:48.211945,6.0,1.0,308.0
2022-02-02-16:40:48.212943,7.0,6.0,308.0
2022-02-02-16:40:48.213938,4.0,14.0,308.0
2022-02-02-16:40:48.214937,4.0,14.0,308.0
2022-02-02-16:40:48.215888,4.0,14.0,308.0
2022-02-02-16:40:48.216907,4.0,25.0,308.0
2022-02-02-16:40:48.218904,7.0,3.0,308.0
2022-02-02-16:40:48.218904,7.0,3.0,308.0
2022-02-02-16:40:48.219898,7.0,3.0,308.0
2022-02-02-16:40:48.220896,1.0,10.0,308.0
2022-02-02-16:40:48.221894,1.0,10.0,308.0
2022-02-02-16:40:48.222891,1.0,10.0,308.0
2022-02-02-16:40:48.223888,1.0,10.0,308.0
2022-02-02-16:40:48.224885,2.0,1.0,308.0
2022-02-02-16:40:48.225860,10.0,7.0,308.0
2022-02-02-16:40:48.226882,10.0,7.0,308.0
2022-02-02-16:40:48.227877,10.0,7.0,308.0
2022-02-02-16:40:48.228875,12.0,12.0,308.0
2022-02-02-16:40:48.229872,3.0,6.0,308.0
2022-02-02-16:40:48.230874,3.0,6.0,308.0
2022-02-02-16:40:48.231889,3.0,6.0,308.0
2022-02-02-16:40:48.232886,2.0,9.0,308.0
2022-02-02-16:40:48.233862,5.0,33.0,308.0
2022-02-02-16:40:48.234881,5.0,33.0,308.0
2022-02-02-16:40:48.235860,0.0,23.0,308.0
2022-02-02-16:40:48.237066,2.0,1.0,308.0
2022-02-02-16:40:48.237066,3.0,7.0,308.0
2022-02-02-16:40:48.238099,3.0,7.0,308.0
2022-02-02-16:40:48.239096,10.0,2.0,308.0
2022-02-02-16:40:48.240093,10.0,2.0,308.0
2022-02-02-16:40:48.241090,6.0,5.0,308.0
2022-02-02-16:40:48.242088,13.0,5.0,308.0
2022-02-02-16:40:48.243133,13.0,5.0,308.0
2022-02-02-16:40:48.243133,13.0,5.0,308.0
2022-02-02-16:40:48.244188,13.0,5.0,308.0
2022-02-02-16:40:48.245185,8.0,2.0,308.0
2022-02-02-16:40:48.246182,2.0,2.0,308.0
2022-02-02-16:40:48.247179,2.0,2.0,308.0
2022-02-02-16:40:48.248177,2.0,2.0,308.0
2022-02-02-16:40:48.249174,1.0,1.0,308.0
2022-02-02-16:40:48.251161,1.0,1.0,308.0
2022-02-02-16:40:48.251161,5.0,5.0,308.0
2022-02-02-16:40:48.252358,5.0,5.0,308.0
2022-02-02-16:40:48.252358,3.0,1.0,308.0
2022-02-02-16:40:48.253390,3.0,1.0,308.0
2022-02-02-16:40:48.254496,4.0,14.0,308.0
2022-02-02-16:40:48.254496,4.0,14.0,308.0
2022-02-02-16:40:48.255551,4.0,14.0,308.0
2022-02-02-16:40:48.256547,4.0,14.0,308.0
2022-02-02-16:40:48.257544,3.0,15.0,308.0
2022-02-02-16:40:48.258542,9.0,9.0,308.0
2022-02-02-16:40:48.259485,8.0,16.0,309.0
2022-02-02-16:40:48.260538,8.0,16.0,309.0
2022-02-02-16:40:48.261481,7.0,7.0,308.0
2022-02-02-16:40:48.262476,7.0,1.0,308.0
2022-02-02-16:40:48.263475,1.0,1.0,307.0
2022-02-02-16:40:48.264472,1.0,1.0,307.0
2022-02-02-16:40:48.265504,1.0,2.0,308.0
2022-02-02-16:40:48.266524,0.0,5.0,308.0
2022-02-02-16:40:48.267518,0.0,5.0,308.0
2022-02-02-16:40:48.268461,0.0,5.0,308.0
2022-02-02-16:40:48.269630,6.0,12.0,307.0
2022-02-02-16:40:48.269630,6.0,12.0,307.0
2022-02-02-16:40:48.270676,6.0,12.0,307.0
2022-02-02-16:40:48.271674,6.0,12.0,307.0
2022-02-02-16:40:48.272823,6.0,12.0,307.0
2022-02-02-16:40:48.272823,5.0,10.0,308.0
2022-02-02-16:40:48.273876,6.0,3.0,308.0
2022-02-02-16:40:48.274874,3.0,10.0,308.0
2022-02-02-16:40:48.275851,3.0,10.0,308.0
2022-02-02-16:40:48.276849,3.0,10.0,308.0
2022-02-02-16:40:48.277866,9.0,14.0,308.0
2022-02-02-16:40:48.278864,9.0,9.0,308.0
2022-02-02-16:40:48.279861,4.0,21.0,308.0
2022-02-02-16:40:48.280860,4.0,21.0,308.0
2022-02-02-16:40:48.282857,4.0,17.0,308.0
2022-02-02-16:40:48.283830,2.0,5.0,308.0
2022-02-02-16:40:48.283830,2.0,5.0,308.0
2022-02-02-16:40:48.284793,2.0,5.0,308.0
2022-02-02-16:40:48.285832,4.0,4.0,308.0
2022-02-02-16:40:48.286892,4.0,4.0,308.0
2022-02-02-16:40:48.286892,4.0,4.0,308.0
2022-02-02-16:40:48.287940,4.0,4.0,308.0
2022-02-02-16:40:48.289107,4.0,4.0,308.0
2022-02-02-16:40:48.289107,4.0,4.0,309.0
2022-02-02-16:40:48.290161,6.0,2.0,308.0
2022-02-02-16:40:48.291158,10.0,8.0,308.0
2022-02-02-16:40:48.292158,10.0,8.0,308.0
2022-02-02-16:40:48.293125,10.0,8.0,308.0
2022-02-02-16:40:48.294125,11.0,9.0,308.0
2022-02-02-16:40:48.295118,9.0,1.0,308.0
2022-02-02-16:40:48.296162,6.0,0.0,308.0
2022-02-02-16:40:48.296162,6.0,0.0,308.0
2022-02-02-16:40:48.297343,6.0,0.0,308.0
2022-02-02-16:40:48.297343,4.0,7.0,308.0
2022-02-02-16:40:48.298367,4.0,14.0,308.0
2022-02-02-16:40:48.299364,1.0,14.0,308.0
2022-02-02-16:40:48.300406,1.0,14.0,308.0
2022-02-02-16:40:48.300406,1.0,14.0,308.0
2022-02-02-16:40:48.301431,1.0,14.0,308.0
2022-02-02-16:40:48.302648,2.0,5.0,308.0
2022-02-02-16:40:48.302782,2.0,11.0,308.0
2022-02-02-16:40:48.302782,2.0,11.0,308.0
2022-02-02-16:40:48.303810,2.0,11.0,308.0
2022-02-02-16:40:48.304804,2.0,11.0,308.0
2022-02-02-16:40:48.305801,2.0,11.0,308.0
2022-02-02-16:40:48.306801,2.0,2.0,309.0
2022-02-02-16:40:48.307806,5.0,21.0,308.0
2022-02-02-16:40:48.307806,5.0,21.0,308.0
2022-02-02-16:40:48.308861,5.0,21.0,308.0
2022-02-02-16:40:48.309954,5.0,21.0,308.0
2022-02-02-16:40:48.309954,14.0,18.0,308.0
2022-02-02-16:40:48.311000,9.0,13.0,308.0
2022-02-02-16:40:48.311999,7.0,29.0,308.0
2022-02-02-16:40:48.313036,7.0,29.0,308.0
2022-02-02-16:40:48.313036,7.0,29.0,308.0
2022-02-02-16:40:48.314242,7.0,29.0,308.0
2022-02-02-16:40:48.314242,7.0,40.0,308.0
2022-02-02-16:40:48.315289,1.0,18.0,308.0
2022-02-02-16:40:48.316286,2.0,20.0,308.0
2022-02-02-16:40:48.317433,2.0,20.0,308.0
2022-02-02-16:40:48.317433,4.0,20.0,308.0
2022-02-02-16:40:48.318488,4.0,1.0,308.0
2022-02-02-16:40:48.319484,4.0,1.0,308.0
2022-02-02-16:40:48.321479,4.0,1.0,308.0
2022-02-02-16:40:48.321479,0.0,8.0,308.0
2022-02-02-16:40:48.322456,4.0,10.0,308.0
2022-02-02-16:40:48.323421,4.0,10.0,308.0
2022-02-02-16:40:48.324479,4.0,10.0,308.0
2022-02-02-16:40:48.324479,4.0,10.0,308.0
2022-02-02-16:40:48.325540,4.0,10.0,308.0
2022-02-02-16:40:48.326746,4.0,10.0,308.0
2022-02-02-16:40:48.326746,14.0,11.0,308.0
2022-02-02-16:40:48.327779,14.0,11.0,308.0
2022-02-02-16:40:48.328777,6.0,12.0,308.0
2022-02-02-16:40:48.329746,6.0,12.0,308.0
2022-02-02-16:40:48.330770,1.0,9.0,309.0
2022-02-02-16:40:48.331917,0.0,9.0,308.0
2022-02-02-16:40:48.331917,0.0,9.0,308.0
2022-02-02-16:40:48.332963,0.0,9.0,308.0
2022-02-02-16:40:48.334082,0.0,9.0,308.0
2022-02-02-16:40:48.334082,6.0,22.0,308.0
2022-02-02-16:40:48.335082,6.0,22.0,308.0
2022-02-02-16:40:48.336113,8.0,7.0,309.0
2022-02-02-16:40:48.337108,8.0,7.0,309.0
2022-02-02-16:40:48.338074,8.0,7.0,309.0
2022-02-02-16:40:48.339125,8.0,7.0,309.0
2022-02-02-16:40:48.340124,9.0,6.0,308.0
2022-02-02-16:40:48.341120,10.0,3.0,308.0
2022-02-02-16:40:48.342063,10.0,3.0,308.0
2022-02-02-16:40:48.343169,1.0,21.0,308.0
2022-02-02-16:40:48.343169,4.0,0.0,308.0
2022-02-02-16:40:48.344195,4.0,0.0,308.0
2022-02-02-16:40:48.345213,3.0,2.0,308.0
2022-02-02-16:40:48.346189,3.0,2.0,308.0
2022-02-02-16:40:48.347208,6.0,10.0,308.0
2022-02-02-16:40:48.348204,2.0,3.0,308.0
2022-02-02-16:40:48.349204,2.0,8.0,308.0
2022-02-02-16:40:48.350211,2.0,8.0,308.0
2022-02-02-16:40:48.351201,4.0,6.0,309.0
2022-02-02-16:40:48.352196,4.0,12.0,308.0
2022-02-02-16:40:48.353192,3.0,15.0,307.0
2022-02-02-16:40:48.354445,3.0,15.0,307.0
2022-02-02-16:40:48.355499,2.0,19.0,308.0
2022-02-02-16:40:48.355499,1.0,6.0,307.0
2022-02-02-16:40:48.356589,1.0,6.0,307.0
2022-02-02-16:40:48.356589,1.0,6.0,307.0
2022-02-02-16:40:48.357624,1.0,6.0,307.0
2022-02-02-16:40:48.358618,1.0,6.0,307.0
2022-02-02-16:40:48.359616,9.0,11.0,308.0
2022-02-02-16:40:48.360616,14.0,11.0,308.0
2022-02-02-16:40:48.361726,8.0,2.0,308.0
2022-02-02-16:40:48.361726,8.0,2.0,308.0
2022-02-02-16:40:48.362936,8.0,2.0,308.0
2022-02-02-16:40:48.362936,5.0,10.0,308.0
2022-02-02-16:40:48.363990,2.0,4.0,308.0
2022-02-02-16:40:48.365032,8.0,7.0,308.0
2022-02-02-16:40:48.365032,8.0,7.0,308.0
2022-02-02-16:40:48.366079,8.0,7.0,308.0
2022-02-02-16:40:48.367230,8.0,7.0,308.0
2022-02-02-16:40:48.367230,0.0,12.0,308.0
2022-02-02-16:40:48.368289,3.0,15.0,308.0
2022-02-02-16:40:48.369242,5.0,8.0,308.0
2022-02-02-16:40:48.370260,5.0,8.0,308.0
2022-02-02-16:40:48.371275,5.0,8.0,308.0
2022-02-02-16:40:48.372274,6.0,3.0,308.0
2022-02-02-16:40:48.373272,6.0,7.0,308.0
2022-02-02-16:40:48.374268,6.0,7.0,308.0
2022-02-02-16:40:48.375412,6.0,7.0,308.0
2022-02-02-16:40:48.375412,10.0,18.0,308.0
2022-02-02-16:40:48.376544,8.0,10.0,308.0
2022-02-02-16:40:48.376544,8.0,10.0,308.0
2022-02-02-16:40:48.377590,8.0,10.0,308.0
2022-02-02-16:40:48.378588,8.0,10.0,308.0
2022-02-02-16:40:48.379761,8.0,10.0,308.0
2022-02-02-16:40:48.379761,8.0,1.0,308.0
2022-02-02-16:40:48.380815,0.0,28.0,308.0
2022-02-02-16:40:48.381814,1.0,34.0,308.0
2022-02-02-16:40:48.382811,1.0,34.0,308.0
2022-02-02-16:40:48.383810,1.0,34.0,308.0
2022-02-02-16:40:48.384807,3.0,29.0,309.0
2022-02-02-16:40:48.385781,0.0,20.0,308.0
2022-02-02-16:40:48.385781,0.0,20.0,308.0
2022-02-02-16:40:48.386808,0.0,20.0,308.0
2022-02-02-16:40:48.388824,0.0,20.0,308.0
2022-02-02-16:40:48.388824,8.0,1.0,308.0
2022-02-02-16:40:48.389822,8.0,1.0,308.0
2022-02-02-16:40:48.390819,8.0,1.0,308.0
2022-02-02-16:40:48.391815,8.0,1.0,308.0
2022-02-02-16:40:48.392802,6.0,2.0,308.0
2022-02-02-16:40:48.393808,5.0,6.0,308.0
2022-02-02-16:40:48.394807,8.0,5.0,308.0
2022-02-02-16:40:48.395970,8.0,5.0,308.0
2022-02-02-16:40:48.395970,10.0,7.0,308.0
2022-02-02-16:40:48.397003,10.0,7.0,308.0
2022-02-02-16:40:48.397999,1.0,6.0,309.0
2022-02-02-16:40:48.399020,1.0,6.0,309.0
2022-02-02-16:40:48.400016,1.0,6.0,309.0
2022-02-02-16:40:48.401014,1.0,13.0,308.0
2022-02-02-16:40:48.402023,6.0,21.0,308.0
2022-02-02-16:40:48.403079,5.0,13.0,308.0
2022-02-02-16:40:48.403079,5.0,13.0,308.0
2022-02-02-16:40:48.404284,5.0,13.0,308.0
2022-02-02-16:40:48.404284,6.0,10.0,308.0
2022-02-02-16:40:48.405338,4.0,2.0,308.0
2022-02-02-16:40:48.406377,4.0,3.0,308.0
2022-02-02-16:40:48.406377,4.0,3.0,308.0
2022-02-02-16:40:48.407423,4.0,3.0,308.0
2022-02-02-16:40:48.408420,4.0,3.0,308.0
2022-02-02-16:40:48.409371,9.0,11.0,308.0
2022-02-02-16:40:48.410415,9.0,17.0,308.0
2022-02-02-16:40:48.411412,9.0,17.0,308.0
2022-02-02-16:40:48.412585,9.0,17.0,308.0
2022-02-02-16:40:48.412585,11.0,11.0,308.0
2022-02-02-16:40:48.413643,6.0,0.0,308.0
2022-02-02-16:40:48.414637,3.0,12.0,308.0
2022-02-02-16:40:48.415637,3.0,12.0,308.0
2022-02-02-16:40:48.416631,3.0,12.0,308.0
2022-02-02-16:40:48.418627,0.0,28.0,308.0
2022-02-02-16:40:48.418627,3.0,19.0,308.0
2022-02-02-16:40:48.419647,3.0,19.0,308.0
2022-02-02-16:40:48.419647,3.0,19.0,308.0
2022-02-02-16:40:48.420696,3.0,19.0,308.0
2022-02-02-16:40:48.421915,1.0,1.0,308.0
2022-02-02-16:40:48.422057,8.0,7.0,308.0
2022-02-02-16:40:48.422057,8.0,7.0,308.0
2022-02-02-16:40:48.423103,8.0,7.0,308.0
2022-02-02-16:40:48.424265,8.0,7.0,308.0
2022-02-02-16:40:48.424265,5.0,2.0,308.0
2022-02-02-16:40:48.425322,7.0,5.0,308.0
2022-02-02-16:40:48.426262,9.0,5.0,308.0
2022-02-02-16:40:48.427314,9.0,5.0,308.0
2022-02-02-16:40:48.428256,9.0,5.0,308.0
2022-02-02-16:40:48.429309,8.0,11.0,308.0
2022-02-02-16:40:48.430307,7.0,6.0,308.0
2022-02-02-16:40:48.431307,1.0,3.0,308.0
2022-02-02-16:40:48.432246,1.0,3.0,308.0
2022-02-02-16:40:48.433346,2.0,7.0,309.0
2022-02-02-16:40:48.433346,1.0,14.0,308.0
2022-02-02-16:40:48.434392,6.0,12.0,308.0
2022-02-02-16:40:48.435391,6.0,12.0,308.0
2022-02-02-16:40:48.436369,6.0,12.0,308.0
2022-02-02-16:40:48.437466,3.0,9.0,308.0
2022-02-02-16:40:48.437466,7.0,8.0,308.0
2022-02-02-16:40:48.438490,7.0,8.0,308.0
2022-02-02-16:40:48.439518,7.0,8.0,308.0
2022-02-02-16:40:48.440461,7.0,8.0,308.0
2022-02-02-16:40:48.441737,4.0,3.0,308.0
2022-02-02-16:40:48.441737,6.0,4.0,308.0
2022-02-02-16:40:48.442752,6.0,5.0,308.0
2022-02-02-16:40:48.443792,6.0,5.0,308.0
2022-02-02-16:40:48.444790,6.0,5.0,308.0
2022-02-02-16:40:48.445775,11.0,11.0,308.0
2022-02-02-16:40:48.446776,7.0,21.0,308.0
2022-02-02-16:40:48.447861,3.0,24.0,308.0
2022-02-02-16:40:48.447861,3.0,24.0,308.0
2022-02-02-16:40:48.448919,3.0,24.0,308.0
2022-02-02-16:40:48.449920,1.0,26.0,309.0
2022-02-02-16:40:48.450903,2.0,11.0,308.0
2022-02-02-16:40:48.451902,5.0,5.0,308.0
2022-02-02-16:40:48.452897,5.0,5.0,308.0
2022-02-02-16:40:48.454894,1.0,6.0,308.0
2022-02-02-16:40:48.454894,8.0,4.0,308.0
2022-02-02-16:40:48.455928,4.0,3.0,308.0
2022-02-02-16:40:48.455928,4.0,3.0,308.0
2022-02-02-16:40:48.457120,4.0,3.0,308.0
2022-02-02-16:40:48.457120,3.0,4.0,308.0
2022-02-02-16:40:48.458168,10.0,6.0,308.0
2022-02-02-16:40:48.459117,5.0,10.0,308.0
2022-02-02-16:40:48.460141,5.0,10.0,308.0
2022-02-02-16:40:48.461161,5.0,10.0,308.0
2022-02-02-16:40:48.462156,6.0,5.0,308.0
2022-02-02-16:40:48.463133,5.0,14.0,308.0
2022-02-02-16:40:48.464204,0.0,16.0,308.0
2022-02-02-16:40:48.464204,0.0,16.0,308.0
2022-02-02-16:40:48.465400,0.0,16.0,308.0
2022-02-02-16:40:48.465400,1.0,12.0,308.0
2022-02-02-16:40:48.466445,3.0,1.0,309.0
2022-02-02-16:40:48.467444,4.0,4.0,309.0
2022-02-02-16:40:48.468394,4.0,4.0,309.0
2022-02-02-16:40:48.469440,4.0,4.0,309.0
2022-02-02-16:40:48.470441,5.0,1.0,308.0
2022-02-02-16:40:48.471415,4.0,2.0,307.0
2022-02-02-16:40:48.472467,9.0,16.0,308.0
2022-02-02-16:40:48.472467,9.0,16.0,308.0
2022-02-02-16:40:48.473521,9.0,16.0,308.0
2022-02-02-16:40:48.474518,7.0,7.0,308.0
2022-02-02-16:40:48.475518,6.0,6.0,308.0
2022-02-02-16:40:48.476495,9.0,11.0,308.0
2022-02-02-16:40:48.477482,9.0,11.0,308.0
2022-02-02-16:40:48.478479,8.0,12.0,308.0
2022-02-02-16:40:48.479479,4.0,6.0,308.0
2022-02-02-16:40:48.480473,0.0,12.0,309.0
2022-02-02-16:40:48.481471,0.0,12.0,309.0
2022-02-02-16:40:48.482468,3.0,29.0,308.0
2022-02-02-16:40:48.483465,7.0,27.0,308.0
2022-02-02-16:40:48.484464,3.0,8.0,308.0
2022-02-02-16:40:48.485462,3.0,8.0,308.0
2022-02-02-16:40:48.486457,0.0,6.0,308.0
2022-02-02-16:40:48.487459,4.0,4.0,308.0
2022-02-02-16:40:48.488452,4.0,4.0,308.0
2022-02-02-16:40:48.489470,4.0,4.0,308.0
2022-02-02-16:40:48.491465,5.0,7.0,308.0
2022-02-02-16:40:48.491465,9.0,14.0,308.0
2022-02-02-16:40:48.492443,9.0,14.0,308.0
2022-02-02-16:40:48.493460,9.0,14.0,308.0
2022-02-02-16:40:48.494457,9.0,14.0,308.0
2022-02-02-16:40:48.495633,10.0,9.0,308.0
2022-02-02-16:40:48.495633,8.0,3.0,308.0
2022-02-02-16:40:48.496687,7.0,11.0,308.0
2022-02-02-16:40:48.497685,7.0,11.0,308.0
2022-02-02-16:40:48.498681,7.0,11.0,308.0
2022-02-02-16:40:48.499678,1.0,24.0,308.0
2022-02-02-16:40:48.500679,2.0,7.0,308.0
2022-02-02-16:40:48.501618,2.0,7.0,308.0
2022-02-02-16:40:48.502617,2.0,7.0,308.0
2022-02-02-16:40:48.503670,0.0,13.0,308.0
2022-02-02-16:40:48.504665,7.0,10.0,308.0
2022-02-02-16:40:48.505663,8.0,20.0,308.0
2022-02-02-16:40:48.506660,7.0,4.0,308.0
2022-02-02-16:40:48.507650,9.0,10.0,308.0
2022-02-02-16:40:48.508650,9.0,10.0,308.0
2022-02-02-16:40:48.509625,9.0,10.0,308.0
2022-02-02-16:40:48.510620,9.0,10.0,308.0
2022-02-02-16:40:48.511617,8.0,9.0,308.0
2022-02-02-16:40:48.512617,5.0,0.0,308.0
2022-02-02-16:40:48.513649,3.0,10.0,308.0
2022-02-02-16:40:48.513649,3.0,10.0,308.0
2022-02-02-16:40:48.514828,3.0,10.0,308.0
2022-02-02-16:40:48.514828,2.0,22.0,308.0
2022-02-02-16:40:48.515851,1.0,7.0,308.0
2022-02-02-16:40:48.516849,5.0,1.0,308.0
2022-02-02-16:40:48.517892,5.0,1.0,308.0
2022-02-02-16:40:48.517892,5.0,1.0,308.0
2022-02-02-16:40:48.519076,5.0,1.0,308.0
2022-02-02-16:40:48.519076,8.0,6.0,308.0
2022-02-02-16:40:48.520101,5.0,3.0,309.0
2022-02-02-16:40:48.521098,5.0,0.0,308.0
2022-02-02-16:40:48.522097,5.0,0.0,308.0
2022-02-02-16:40:48.523118,2.0,14.0,308.0
2022-02-02-16:40:48.525063,4.0,10.0,308.0
2022-02-02-16:40:48.525063,4.0,10.0,308.0
2022-02-02-16:40:48.526060,4.0,10.0,308.0
2022-02-02-16:40:48.527058,4.0,10.0,308.0
2022-02-02-16:40:48.528101,6.0,9.0,308.0
2022-02-02-16:40:48.529191,7.0,8.0,308.0
2022-02-02-16:40:48.529191,7.0,8.0,308.0
2022-02-02-16:40:48.530215,7.0,8.0,308.0
2022-02-02-16:40:48.531213,7.0,8.0,308.0
2022-02-02-16:40:48.532433,2.0,8.0,308.0
2022-02-02-16:40:48.532433,0.0,4.0,308.0
2022-02-02-16:40:48.533567,4.0,6.0,308.0
2022-02-02-16:40:48.533567,4.0,6.0,308.0
2022-02-02-16:40:48.534609,4.0,6.0,308.0
2022-02-02-16:40:48.535594,8.0,1.0,308.0
2022-02-02-16:40:48.536585,5.0,11.0,308.0
2022-02-02-16:40:48.537585,5.0,11.0,308.0
2022-02-02-16:40:48.538580,5.0,11.0,308.0
2022-02-02-16:40:48.539553,0.0,34.0,308.0
2022-02-02-16:40:48.540576,5.0,4.0,308.0
2022-02-02-16:40:48.541572,5.0,4.0,308.0
2022-02-02-16:40:48.542545,5.0,4.0,308.0
2022-02-02-16:40:48.543594,5.0,4.0,308.0
2022-02-02-16:40:48.544586,9.0,8.0,308.0
2022-02-02-16:40:48.545583,6.0,7.0,308.0
2022-02-02-16:40:48.546580,5.0,9.0,308.0
2022-02-02-16:40:48.547758,5.0,9.0,308.0
2022-02-02-16:40:48.547758,4.0,0.0,308.0
2022-02-02-16:40:48.548814,2.0,3.0,308.0
2022-02-02-16:40:48.549854,2.0,3.0,308.0
2022-02-02-16:40:48.549854,2.0,3.0,308.0
2022-02-02-16:40:48.550902,2.0,3.0,308.0
2022-02-02-16:40:48.552114,2.0,3.0,308.0
2022-02-02-16:40:48.552114,4.0,2.0,307.0
2022-02-02-16:40:48.553168,3.0,8.0,308.0
2022-02-02-16:40:48.554165,3.0,8.0,308.0
2022-02-02-16:40:48.555109,3.0,8.0,308.0
2022-02-02-16:40:48.556139,7.0,7.0,308.0
2022-02-02-16:40:48.558160,6.0,10.0,308.0
2022-02-02-16:40:48.558160,14.0,1.0,308.0
2022-02-02-16:40:48.559126,14.0,1.0,308.0
2022-02-02-16:40:48.560156,14.0,5.0,308.0
2022-02-02-16:40:48.561146,9.0,2.0,308.0
2022-02-02-16:40:48.562144,0.0,6.0,308.0
2022-02-02-16:40:48.563143,0.0,6.0,308.0
2022-02-02-16:40:48.564140,0.0,6.0,308.0
2022-02-02-16:40:48.565186,4.0,8.0,308.0
2022-02-02-16:40:48.565186,4.0,11.0,308.0
2022-02-02-16:40:48.566233,4.0,11.0,308.0
2022-02-02-16:40:48.567231,4.0,11.0,308.0
2022-02-02-16:40:48.568235,4.0,11.0,308.0
2022-02-02-16:40:48.569178,2.0,1.0,308.0
2022-02-02-16:40:48.570225,2.0,6.0,308.0
2022-02-02-16:40:48.571219,2.0,6.0,308.0
2022-02-02-16:40:48.572194,2.0,6.0,308.0
2022-02-02-16:40:48.573214,7.0,5.0,308.0
2022-02-02-16:40:48.574479,6.0,7.0,308.0
2022-02-02-16:40:48.574479,7.0,6.0,308.0
2022-02-02-16:40:48.575685,7.0,6.0,308.0
2022-02-02-16:40:48.575685,0.0,7.0,308.0
2022-02-02-16:40:48.576712,0.0,7.0,308.0
2022-02-02-16:40:48.577706,0.0,7.0,308.0
2022-02-02-16:40:48.578703,0.0,7.0,308.0
2022-02-02-16:40:48.579858,0.0,7.0,308.0
2022-02-02-16:40:48.579858,6.0,2.0,308.0
2022-02-02-16:40:48.580892,1.0,28.0,308.0
2022-02-02-16:40:48.581944,5.0,24.0,308.0
2022-02-02-16:40:48.581944,5.0,24.0,308.0
2022-02-02-16:40:48.582968,5.0,24.0,308.0
2022-02-02-16:40:48.584133,5.0,24.0,308.0
2022-02-02-16:40:48.584133,3.0,27.0,308.0
2022-02-02-16:40:48.585167,9.0,20.0,308.0
2022-02-02-16:40:48.586163,5.0,1.0,308.0
2022-02-02-16:40:48.587160,5.0,1.0,308.0
2022-02-02-16:40:48.588158,5.0,1.0,308.0
2022-02-02-16:40:48.589149,4.0,3.0,308.0
2022-02-02-16:40:48.590149,1.0,1.0,308.0
2022-02-02-16:40:48.591145,4.0,1.0,307.0
2022-02-02-16:40:48.593137,4.0,1.0,307.0
2022-02-02-16:40:48.593137,12.0,5.0,307.0
2022-02-02-16:40:48.594158,8.0,5.0,308.0
2022-02-02-16:40:48.595197,8.0,5.0,308.0
2022-02-02-16:40:48.595197,8.0,5.0,308.0
2022-02-02-16:40:48.596398,8.0,5.0,308.0
2022-02-02-16:40:48.596398,5.0,0.0,308.0
2022-02-02-16:40:48.597445,1.0,19.0,308.0
2022-02-02-16:40:48.598442,1.0,18.0,308.0
2022-02-02-16:40:48.599438,1.0,18.0,308.0
2022-02-02-16:40:48.600436,1.0,18.0,308.0
2022-02-02-16:40:48.601434,1.0,6.0,308.0
2022-02-02-16:40:48.602431,5.0,1.0,308.0
2022-02-02-16:40:48.603428,5.0,1.0,308.0
2022-02-02-16:40:48.604530,5.0,1.0,308.0
2022-02-02-16:40:48.604530,7.0,9.0,308.0
2022-02-02-16:40:48.605576,6.0,1.0,308.0
2022-02-02-16:40:48.606575,5.0,10.0,308.0
2022-02-02-16:40:48.607576,5.0,10.0,308.0
2022-02-02-16:40:48.608709,5.0,10.0,308.0
2022-02-02-16:40:48.608709,10.0,13.0,308.0
2022-02-02-16:40:48.609709,8.0,3.0,308.0
2022-02-02-16:40:48.610755,8.0,3.0,308.0
2022-02-02-16:40:48.611750,8.0,3.0,308.0
2022-02-02-16:40:48.612899,8.0,3.0,308.0
2022-02-02-16:40:48.612899,3.0,1.0,308.0
2022-02-02-16:40:48.613945,1.0,23.0,308.0
2022-02-02-16:40:48.614943,3.0,27.0,309.0
2022-02-02-16:40:48.615939,3.0,27.0,309.0
2022-02-02-16:40:48.616938,3.0,27.0,309.0
2022-02-02-16:40:48.617913,2.0,11.0,308.0
2022-02-02-16:40:48.618888,6.0,12.0,307.0
2022-02-02-16:40:48.619906,6.0,12.0,307.0
2022-02-02-16:40:48.620906,6.0,12.0,307.0
2022-02-02-16:40:48.621971,3.0,4.0,308.0
2022-02-02-16:40:48.621971,5.0,6.0,307.0
2022-02-02-16:40:48.623017,9.0,9.0,308.0
2022-02-02-16:40:48.624016,9.0,9.0,308.0
2022-02-02-16:40:48.625012,9.0,9.0,308.0
2022-02-02-16:40:48.625963,11.0,2.0,308.0
2022-02-02-16:40:48.628004,11.0,17.0,308.0
2022-02-02-16:40:48.628004,11.0,17.0,308.0
2022-02-02-16:40:48.629005,11.0,17.0,308.0
2022-02-02-16:40:48.629999,8.0,15.0,308.0
2022-02-02-16:40:48.630996,3.0,13.0,307.0
2022-02-02-16:40:48.631994,1.0,13.0,308.0
2022-02-02-16:40:48.632992,1.0,13.0,308.0
2022-02-02-16:40:48.633988,0.0,13.0,308.0
2022-02-02-16:40:48.635158,0.0,1.0,308.0
2022-02-02-16:40:48.635158,4.0,3.0,308.0
2022-02-02-16:40:48.636280,4.0,3.0,308.0
2022-02-02-16:40:48.636280,4.0,3.0,308.0
2022-02-02-16:40:48.637328,4.0,3.0,308.0
2022-02-02-16:40:48.638324,0.0,1.0,308.0
2022-02-02-16:40:48.639321,7.0,0.0,308.0
2022-02-02-16:40:48.640319,4.0,1.0,308.0
2022-02-02-16:40:48.641316,4.0,1.0,308.0
2022-02-02-16:40:48.642317,9.0,3.0,308.0
2022-02-02-16:40:48.643314,9.0,7.0,308.0
2022-02-02-16:40:48.644307,9.0,7.0,308.0
2022-02-02-16:40:48.645467,9.0,7.0,308.0
2022-02-02-16:40:48.645467,9.0,2.0,308.0
2022-02-02-16:40:48.646491,9.0,2.0,308.0
2022-02-02-16:40:48.647607,4.0,14.0,308.0
2022-02-02-16:40:48.647607,4.0,14.0,308.0
2022-02-02-16:40:48.648653,4.0,14.0,308.0
2022-02-02-16:40:48.649650,4.0,14.0,308.0
2022-02-02-16:40:48.650627,2.0,14.0,308.0
2022-02-02-16:40:48.651646,5.0,9.0,308.0
2022-02-02-16:40:48.652642,0.0,9.0,308.0
2022-02-02-16:40:48.652642,0.0,9.0,308.0
2022-02-02-16:40:48.653673,0.0,9.0,308.0
2022-02-02-16:40:48.654670,5.0,4.0,308.0
2022-02-02-16:40:48.655668,3.0,1.0,308.0
2022-02-02-16:40:48.656668,3.0,1.0,308.0
2022-02-02-16:40:48.657663,3.0,1.0,308.0
2022-02-02-16:40:48.658661,5.0,2.0,309.0
2022-02-02-16:40:48.660655,5.0,2.0,309.0
2022-02-02-16:40:48.660655,12.0,6.0,308.0
2022-02-02-16:40:48.661656,12.0,6.0,308.0
2022-02-02-16:40:48.662654,13.0,6.0,308.0
2022-02-02-16:40:48.663647,7.0,27.0,309.0
2022-02-02-16:40:48.664647,7.0,27.0,309.0
2022-02-02-16:40:48.665642,7.0,27.0,309.0
2022-02-02-16:40:48.666639,1.0,24.0,308.0
2022-02-02-16:40:48.667745,1.0,4.0,307.0
2022-02-02-16:40:48.667745,1.0,4.0,307.0
2022-02-02-16:40:48.668792,1.0,4.0,307.0
2022-02-02-16:40:48.669963,1.0,4.0,307.0
2022-02-02-16:40:48.669963,6.0,1.0,308.0
2022-02-02-16:40:48.670995,6.0,1.0,308.0
2022-02-02-16:40:48.672132,1.0,9.0,308.0
2022-02-02-16:40:48.672132,1.0,9.0,308.0
2022-02-02-16:40:48.673182,1.0,9.0,308.0
2022-02-02-16:40:48.674176,1.0,9.0,308.0
2022-02-02-16:40:48.675504,4.0,11.0,308.0
2022-02-02-16:40:48.675504,4.0,11.0,308.0
2022-02-02-16:40:48.676504,4.0,11.0,308.0
2022-02-02-16:40:48.677535,15.0,20.0,308.0
2022-02-02-16:40:48.678530,7.0,14.0,308.0
2022-02-02-16:40:48.679667,0.0,26.0,308.0
2022-02-02-16:40:48.679667,0.0,26.0,308.0
2022-02-02-16:40:48.680716,0.0,26.0,308.0
2022-02-02-16:40:48.681711,0.0,26.0,308.0
2022-02-02-16:40:48.682859,0.0,26.0,308.0
2022-02-02-16:40:48.682859,5.0,18.0,308.0
2022-02-02-16:40:48.683892,5.0,18.0,308.0
2022-02-02-16:40:48.684998,4.0,11.0,308.0
2022-02-02-16:40:48.684998,4.0,11.0,308.0
2022-02-02-16:40:48.686045,4.0,11.0,308.0
2022-02-02-16:40:48.687044,4.0,11.0,308.0
2022-02-02-16:40:48.688236,5.0,2.0,308.0
2022-02-02-16:40:48.688236,9.0,2.0,308.0
2022-02-02-16:40:48.689390,9.0,2.0,308.0
2022-02-02-16:40:48.689390,9.0,2.0,308.0
2022-02-02-16:40:48.690436,9.0,2.0,308.0
2022-02-02-16:40:48.691434,6.0,8.0,308.0
2022-02-02-16:40:48.692431,11.0,21.0,308.0
2022-02-02-16:40:48.693382,8.0,23.0,309.0
2022-02-02-16:40:48.694378,8.0,23.0,309.0
2022-02-02-16:40:48.696400,5.0,8.0,308.0
2022-02-02-16:40:48.696400,5.0,8.0,308.0
2022-02-02-16:40:48.697371,2.0,26.0,308.0
2022-02-02-16:40:48.698368,2.0,26.0,308.0
2022-02-02-16:40:48.699366,0.0,24.0,309.0
2022-02-02-16:40:48.700363,7.0,10.0,308.0
2022-02-02-16:40:48.701391,7.0,10.0,308.0
2022-02-02-16:40:48.702384,7.0,10.0,308.0
2022-02-02-16:40:48.703607,7.0,10.0,308.0
2022-02-02-16:40:48.703607,2.0,3.0,308.0
2022-02-02-16:40:48.704643,4.0,4.0,308.0
2022-02-02-16:40:48.705639,4.0,4.0,308.0
2022-02-02-16:40:48.706602,4.0,4.0,308.0
2022-02-02-16:40:48.707638,2.0,2.0,308.0
2022-02-02-16:40:48.708628,15.0,12.0,308.0
2022-02-02-16:40:48.709596,8.0,19.0,308.0
2022-02-02-16:40:48.710625,8.0,19.0,308.0
2022-02-02-16:40:48.711623,8.0,19.0,308.0
2022-02-02-16:40:48.712640,2.0,12.0,308.0
2022-02-02-16:40:48.713583,9.0,18.0,308.0
2022-02-02-16:40:48.714607,2.0,15.0,308.0
2022-02-02-16:40:48.715577,2.0,15.0,308.0
2022-02-02-16:40:48.716574,1.0,21.0,308.0
2022-02-02-16:40:48.717572,2.0,28.0,309.0
2022-02-02-16:40:48.718569,2.0,28.0,309.0
2022-02-02-16:40:48.719567,2.0,28.0,309.0
2022-02-02-16:40:48.720565,2.0,14.0,308.0
2022-02-02-16:40:48.721596,4.0,7.0,308.0
2022-02-02-16:40:48.722594,6.0,5.0,308.0
2022-02-02-16:40:48.723591,6.0,5.0,308.0
2022-02-02-16:40:48.724588,8.0,1.0,308.0
2022-02-02-16:40:48.725589,6.0,13.0,308.0
2022-02-02-16:40:48.726583,13.0,3.0,308.0
2022-02-02-16:40:48.727583,13.0,3.0,308.0
2022-02-02-16:40:48.728573,16.0,4.0,308.0
2022-02-02-16:40:48.729542,12.0,3.0,308.0
2022-02-02-16:40:48.731583,12.0,3.0,308.0
2022-02-02-16:40:48.731583,7.0,14.0,308.0
2022-02-02-16:40:48.732580,6.0,1.0,308.0
2022-02-02-16:40:48.733631,6.0,1.0,308.0
2022-02-02-16:40:48.733631,6.0,1.0,308.0
2022-02-02-16:40:48.734679,6.0,1.0,308.0
2022-02-02-16:40:48.735858,6.0,1.0,308.0
2022-02-02-16:40:48.735858,1.0,12.0,308.0
2022-02-02-16:40:48.736909,5.0,4.0,308.0
2022-02-02-16:40:48.737944,5.0,2.0,308.0
2022-02-02-16:40:48.737944,5.0,2.0,308.0
2022-02-02-16:40:48.738991,5.0,2.0,308.0
2022-02-02-16:40:48.740149,5.0,2.0,308.0
2022-02-02-16:40:48.740149,2.0,9.0,308.0
2022-02-02-16:40:48.741195,11.0,5.0,308.0
2022-02-02-16:40:48.742194,10.0,0.0,308.0
2022-02-02-16:40:48.743158,10.0,0.0,308.0
2022-02-02-16:40:48.744171,10.0,0.0,308.0
2022-02-02-16:40:48.745168,7.0,2.0,308.0
2022-02-02-16:40:48.746162,3.0,10.0,308.0
2022-02-02-16:40:48.747180,4.0,1.0,308.0
2022-02-02-16:40:48.748177,4.0,1.0,308.0
2022-02-02-16:40:48.749180,2.0,9.0,308.0
2022-02-02-16:40:48.750173,3.0,0.0,309.0
2022-02-02-16:40:48.751172,8.0,4.0,308.0
2022-02-02-16:40:48.752203,8.0,4.0,308.0
2022-02-02-16:40:48.752203,1.0,6.0,308.0
2022-02-02-16:40:48.753259,2.0,7.0,308.0
2022-02-02-16:40:48.754256,1.0,6.0,308.0
2022-02-02-16:40:48.755253,1.0,6.0,308.0
2022-02-02-16:40:48.756252,1.0,6.0,308.0
2022-02-02-16:40:48.757248,5.0,5.0,308.0
2022-02-02-16:40:48.758245,6.0,4.0,308.0
2022-02-02-16:40:48.759244,10.0,7.0,308.0
2022-02-02-16:40:48.760185,10.0,7.0,308.0
2022-02-02-16:40:48.761216,14.0,1.0,308.0
2022-02-02-16:40:48.763234,4.0,7.0,307.0
2022-02-02-16:40:48.763234,7.0,9.0,308.0
2022-02-02-16:40:48.764231,7.0,9.0,308.0
2022-02-02-16:40:48.765431,5.0,21.0,308.0
2022-02-02-16:40:48.765431,2.0,26.0,308.0
2022-02-02-16:40:48.766565,4.0,3.0,308.0
2022-02-02-16:40:48.766565,4.0,3.0,308.0
2022-02-02-16:40:48.767613,4.0,3.0,308.0
2022-02-02-16:40:48.768626,4.0,3.0,308.0
2022-02-02-16:40:48.769609,3.0,1.0,308.0
2022-02-02-16:40:48.770603,4.0,5.0,308.0
2022-02-02-16:40:48.771604,5.0,2.0,308.0
2022-02-02-16:40:48.772598,5.0,2.0,308.0
2022-02-02-16:40:48.773597,6.0,4.0,308.0
2022-02-02-16:40:48.774596,14.0,20.0,308.0
2022-02-02-16:40:48.775590,12.0,7.0,308.0
2022-02-02-16:40:48.776541,12.0,7.0,308.0
2022-02-02-16:40:48.777538,9.0,2.0,308.0
2022-02-02-16:40:48.778562,5.0,0.0,308.0
2022-02-02-16:40:48.779556,5.0,0.0,308.0
2022-02-02-16:40:48.780530,5.0,0.0,308.0
2022-02-02-16:40:48.781528,5.0,0.0,308.0
2022-02-02-16:40:48.782524,4.0,10.0,308.0
2022-02-02-16:40:48.783528,0.0,6.0,308.0
2022-02-02-16:40:48.784520,0.0,6.0,308.0
2022-02-02-16:40:48.785516,3.0,6.0,308.0
2022-02-02-16:40:48.786514,8.0,6.0,308.0
2022-02-02-16:40:48.787512,8.0,6.0,308.0
2022-02-02-16:40:48.788509,8.0,6.0,308.0
2022-02-02-16:40:48.789506,8.0,2.0,308.0
2022-02-02-16:40:48.790504,11.0,2.0,308.0
2022-02-02-16:40:48.791538,11.0,2.0,308.0
2022-02-02-16:40:48.792524,11.0,2.0,308.0
2022-02-02-16:40:48.793497,11.0,2.0,308.0
2022-02-02-16:40:48.794522,11.0,8.0,308.0
2022-02-02-16:40:48.795517,8.0,11.0,308.0
2022-02-02-16:40:48.796513,8.0,11.0,308.0
2022-02-02-16:40:48.797511,10.0,21.0,308.0
2022-02-02-16:40:48.799511,2.0,8.0,308.0
2022-02-02-16:40:48.799511,2.0,8.0,308.0
2022-02-02-16:40:48.800477,2.0,8.0,308.0
2022-02-02-16:40:48.801474,2.0,8.0,308.0
2022-02-02-16:40:48.802499,2.0,7.0,308.0
2022-02-02-16:40:48.803469,1.0,3.0,308.0
2022-02-02-16:40:48.804466,1.0,3.0,308.0
2022-02-02-16:40:48.805463,1.0,3.0,308.0
2022-02-02-16:40:48.806461,2.0,6.0,308.0
2022-02-02-16:40:48.807458,6.0,2.0,308.0
2022-02-02-16:40:48.808455,6.0,2.0,308.0
2022-02-02-16:40:48.809471,6.0,2.0,308.0
2022-02-02-16:40:48.810477,10.0,8.0,308.0
2022-02-02-16:40:48.811449,11.0,3.0,308.0
2022-02-02-16:40:48.812446,8.0,7.0,308.0
2022-02-02-16:40:48.813443,8.0,7.0,308.0
2022-02-02-16:40:48.814441,0.0,15.0,308.0
2022-02-02-16:40:48.815437,0.0,15.0,308.0
2022-02-02-16:40:48.816435,0.0,15.0,308.0
2022-02-02-16:40:48.817462,0.0,15.0,308.0
2022-02-02-16:40:48.818429,7.0,9.0,308.0
2022-02-02-16:40:48.819426,5.0,4.0,308.0
2022-02-02-16:40:48.820423,5.0,4.0,308.0
2022-02-02-16:40:48.821421,5.0,4.0,308.0
2022-02-02-16:40:48.822419,3.0,14.0,308.0
2022-02-02-16:40:48.823416,3.0,14.0,308.0
2022-02-02-16:40:48.824413,3.0,14.0,308.0
2022-02-02-16:40:48.825410,3.0,14.0,308.0
2022-02-02-16:40:48.826408,1.0,15.0,308.0
2022-02-02-16:40:48.827405,1.0,17.0,308.0
2022-02-02-16:40:48.828402,1.0,17.0,308.0
2022-02-02-16:40:48.829399,1.0,17.0,308.0
2022-02-02-16:40:48.830397,5.0,19.0,309.0
2022-02-02-16:40:48.832400,0.0,20.0,308.0
2022-02-02-16:40:48.832400,0.0,20.0,308.0
2022-02-02-16:40:48.833388,0.0,20.0,308.0
2022-02-02-16:40:48.834386,4.0,12.0,308.0
2022-02-02-16:40:48.835383,5.0,1.0,308.0
2022-02-02-16:40:48.836381,5.0,1.0,308.0
2022-02-02-16:40:48.837378,5.0,1.0,308.0
2022-02-02-16:40:48.838375,5.0,1.0,308.0
2022-02-02-16:40:48.839397,8.0,5.0,308.0
2022-02-02-16:40:48.840373,6.0,8.0,308.0
2022-02-02-16:40:48.841370,6.0,8.0,308.0
2022-02-02-16:40:48.842372,6.0,8.0,308.0
2022-02-02-16:40:48.843362,7.0,4.0,308.0
2022-02-02-16:40:48.844384,7.0,4.0,308.0
2022-02-02-16:40:48.845357,7.0,4.0,308.0
2022-02-02-16:40:48.846388,7.0,4.0,308.0
2022-02-02-16:40:48.847351,2.0,6.0,308.0
2022-02-02-16:40:48.848349,1.0,24.0,308.0
2022-02-02-16:40:48.849346,1.0,24.0,308.0
2022-02-02-16:40:48.850343,1.0,24.0,308.0
2022-02-02-16:40:48.851342,2.0,13.0,308.0
2022-02-02-16:40:48.852373,0.0,4.0,308.0
2022-02-02-16:40:48.853370,7.0,3.0,308.0
2022-02-02-16:40:48.854333,7.0,3.0,308.0
2022-02-02-16:40:48.855330,6.0,1.0,308.0
2022-02-02-16:40:48.856328,5.0,3.0,308.0
2022-02-02-16:40:48.857325,4.0,4.0,308.0
2022-02-02-16:40:48.858349,4.0,4.0,308.0
2022-02-02-16:40:48.859343,8.0,7.0,308.0
2022-02-02-16:40:48.860356,14.0,24.0,308.0
2022-02-02-16:40:48.861340,12.0,14.0,309.0
2022-02-02-16:40:48.862340,12.0,14.0,309.0
2022-02-02-16:40:48.863334,14.0,0.0,307.0
2022-02-02-16:40:48.864334,9.0,13.0,308.0
2022-02-02-16:40:48.865305,3.0,24.0,308.0
2022-02-02-16:40:48.867298,3.0,24.0,308.0
2022-02-02-16:40:48.867298,9.0,29.0,308.0
2022-02-02-16:40:48.868295,5.0,7.0,308.0
2022-02-02-16:40:48.869293,5.0,7.0,308.0
2022-02-02-16:40:48.870290,5.0,7.0,308.0
2022-02-02-16:40:48.871287,5.0,7.0,308.0
2022-02-02-16:40:48.872285,2.0,14.0,308.0
2022-02-02-16:40:48.873282,6.0,12.0,309.0
2022-02-02-16:40:48.874279,6.0,12.0,309.0
2022-02-02-16:40:48.875311,6.0,12.0,309.0
2022-02-02-16:40:48.876274,9.0,6.0,308.0
2022-02-02-16:40:48.877272,10.0,11.0,308.0
2022-02-02-16:40:48.878269,9.0,6.0,308.0
2022-02-02-16:40:48.879291,9.0,6.0,308.0
2022-02-02-16:40:48.880289,11.0,1.0,307.0
2022-02-02-16:40:48.881286,6.0,6.0,308.0
2022-02-02-16:40:48.882259,3.0,15.0,308.0
2022-02-02-16:40:48.883301,3.0,15.0,308.0
2022-02-02-16:40:48.884278,4.0,4.0,308.0
2022-02-02-16:40:48.885250,4.0,4.0,308.0
2022-02-02-16:40:48.886273,4.0,4.0,308.0
2022-02-02-16:40:48.887245,4.0,4.0,308.0
2022-02-02-16:40:48.888242,4.0,0.0,309.0
2022-02-02-16:40:48.889240,3.0,2.0,307.0
2022-02-02-16:40:48.890238,3.0,2.0,307.0
2022-02-02-16:40:48.891235,3.0,2.0,307.0
2022-02-02-16:40:48.892231,3.0,2.0,307.0
2022-02-02-16:40:48.893229,11.0,19.0,308.0
2022-02-02-16:40:48.894226,10.0,0.0,308.0
2022-02-02-16:40:48.895223,10.0,0.0,308.0
2022-02-02-16:40:48.896220,8.0,2.0,308.0
2022-02-02-16:40:48.897219,7.0,4.0,307.0
2022-02-02-16:40:48.898217,3.0,6.0,307.0
2022-02-02-16:40:48.899213,3.0,6.0,307.0
2022-02-02-16:40:48.900210,6.0,7.0,308.0
2022-02-02-16:40:48.901208,7.0,10.0,308.0
2022-02-02-16:40:48.903202,4.0,6.0,309.0
2022-02-02-16:40:48.903202,3.0,15.0,308.0
2022-02-02-16:40:48.904199,0.0,2.0,308.0
2022-02-02-16:40:48.905197,8.0,11.0,308.0
2022-02-02-16:40:48.906234,8.0,11.0,308.0
2022-02-02-16:40:48.907224,8.0,11.0,308.0
2022-02-02-16:40:48.908190,8.0,11.0,308.0
2022-02-02-16:40:48.909233,10.0,5.0,307.0
2022-02-02-16:40:48.910183,10.0,5.0,307.0
2022-02-02-16:40:48.911211,10.0,5.0,307.0
2022-02-02-16:40:48.912204,10.0,3.0,308.0
2022-02-02-16:40:48.913175,3.0,15.0,308.0
2022-02-02-16:40:48.914173,3.0,15.0,308.0
2022-02-02-16:40:48.915170,3.0,15.0,308.0
2022-02-02-16:40:48.916167,3.0,15.0,308.0
2022-02-02-16:40:48.917165,3.0,11.0,308.0
2022-02-02-16:40:48.918163,3.0,11.0,308.0
2022-02-02-16:40:48.919160,3.0,11.0,308.0
2022-02-02-16:40:48.920158,3.0,11.0,308.0
2022-02-02-16:40:48.921154,7.0,3.0,308.0
2022-02-02-16:40:48.922152,9.0,11.0,308.0
2022-02-02-16:40:48.923183,9.0,11.0,308.0
2022-02-02-16:40:48.924179,9.0,11.0,308.0
2022-02-02-16:40:48.925144,8.0,18.0,308.0
2022-02-02-16:40:48.926142,8.0,8.0,308.0
2022-02-02-16:40:48.927138,8.0,8.0,308.0
2022-02-02-16:40:48.928162,8.0,8.0,308.0
2022-02-02-16:40:48.929133,6.0,32.0,308.0
2022-02-02-16:40:48.930130,6.0,32.0,308.0
2022-02-02-16:40:48.931127,6.0,32.0,308.0
2022-02-02-16:40:48.932150,6.0,32.0,308.0
2022-02-02-16:40:48.933122,0.0,2.0,308.0
2022-02-02-16:40:48.934129,0.0,2.0,308.0
2022-02-02-16:40:48.935117,0.0,2.0,308.0
2022-02-02-16:40:48.937111,0.0,2.0,308.0
2022-02-02-16:40:48.937111,1.0,9.0,308.0
2022-02-02-16:40:48.938112,6.0,12.0,308.0
2022-02-02-16:40:48.939106,5.0,8.0,308.0
2022-02-02-16:40:48.940103,5.0,8.0,308.0
2022-02-02-16:40:48.941101,3.0,13.0,308.0
2022-02-02-16:40:48.942098,8.0,5.0,308.0
2022-02-02-16:40:48.943096,12.0,9.0,308.0
2022-02-02-16:40:48.944094,11.0,5.0,308.0
2022-02-02-16:40:48.945090,4.0,14.0,308.0
2022-02-02-16:40:48.946088,2.0,12.0,308.0
2022-02-02-16:40:48.947086,2.0,12.0,308.0
2022-02-02-16:40:48.948082,2.0,12.0,308.0
2022-02-02-16:40:48.949080,2.0,12.0,308.0
2022-02-02-16:40:48.950077,1.0,7.0,308.0
2022-02-02-16:40:48.951074,1.0,16.0,308.0
2022-02-02-16:40:48.952072,1.0,16.0,308.0
2022-02-02-16:40:48.953069,1.0,16.0,308.0
2022-02-02-16:40:48.954066,6.0,11.0,308.0
2022-02-02-16:40:48.955064,5.0,17.0,308.0
2022-02-02-16:40:48.956061,5.0,17.0,308.0
2022-02-02-16:40:48.957058,5.0,17.0,308.0
2022-02-02-16:40:48.958056,5.0,17.0,308.0
2022-02-02-16:40:48.959053,2.0,17.0,308.0
2022-02-02-16:40:48.960050,9.0,23.0,308.0
2022-02-02-16:40:48.961048,6.0,18.0,308.0
2022-02-02-16:40:48.962045,8.0,2.0,308.0
2022-02-02-16:40:48.963043,13.0,25.0,308.0
2022-02-02-16:40:48.964040,3.0,19.0,308.0
2022-02-02-16:40:48.965037,3.0,19.0,308.0
2022-02-02-16:40:48.966034,2.0,23.0,308.0
2022-02-02-16:40:48.967031,3.0,7.0,308.0
2022-02-02-16:40:48.969026,0.0,4.0,308.0
2022-02-02-16:40:48.969026,0.0,4.0,308.0
2022-02-02-16:40:48.970024,3.0,6.0,308.0
2022-02-02-16:40:48.971021,3.0,6.0,308.0
2022-02-02-16:40:48.972018,3.0,6.0,308.0
2022-02-02-16:40:48.973015,3.0,6.0,308.0
2022-02-02-16:40:48.974013,3.0,18.0,308.0
2022-02-02-16:40:48.975010,3.0,16.0,308.0
2022-02-02-16:40:48.976007,8.0,1.0,308.0
2022-02-02-16:40:48.977006,8.0,1.0,308.0
2022-02-02-16:40:48.978003,4.0,4.0,308.0
2022-02-02-16:40:48.978999,7.0,6.0,308.0
2022-02-02-16:40:48.979998,8.0,4.0,308.0
2022-02-02-16:40:48.980994,6.0,6.0,308.0
2022-02-02-16:40:48.981992,4.0,11.0,308.0
2022-02-02-16:40:48.983022,5.0,10.0,308.0
2022-02-02-16:40:48.983986,5.0,10.0,308.0
2022-02-02-16:40:48.984985,5.0,10.0,308.0
2022-02-02-16:40:48.985982,2.0,5.0,308.0
2022-02-02-16:40:48.986982,6.0,5.0,308.0
2022-02-02-16:40:48.987976,6.0,5.0,308.0
2022-02-02-16:40:48.988974,6.0,5.0,308.0
2022-02-02-16:40:48.989970,6.0,5.0,308.0
2022-02-02-16:40:48.990968,5.0,2.0,308.0
2022-02-02-16:40:48.991965,9.0,3.0,308.0
2022-02-02-16:40:48.992963,12.0,1.0,308.0
2022-02-02-16:40:48.993995,12.0,1.0,308.0
2022-02-02-16:40:48.994958,9.0,6.0,308.0
2022-02-02-16:40:48.995955,7.0,1.0,308.0
2022-02-02-16:40:48.996954,7.0,1.0,308.0
2022-02-02-16:40:49.003934,7.0,1.0,308.0
2022-02-02-16:40:49.003934,1.0,5.0,308.0
2022-02-02-16:40:49.004931,1.0,5.0,308.0
2022-02-02-16:40:49.005930,1.0,5.0,308.0
2022-02-02-16:40:49.006926,1.0,5.0,308.0
2022-02-02-16:40:49.007923,1.0,5.0,308.0
2022-02-02-16:40:49.008920,1.0,5.0,308.0
2022-02-02-16:40:49.009917,1.0,5.0,308.0
2022-02-02-16:40:49.019891,1.0,5.0,308.0
2022-02-02-16:40:49.019891,3.0,2.0,308.0
2022-02-02-16:40:49.020888,3.0,2.0,308.0
2022-02-02-16:40:49.021885,3.0,2.0,308.0
2022-02-02-16:40:49.022883,3.0,2.0,308.0
2022-02-02-16:40:49.023880,3.0,2.0,308.0
2022-02-02-16:40:49.024877,3.0,2.0,308.0
2022-02-02-16:40:49.025875,3.0,2.0,308.0
2022-02-02-16:40:49.026872,3.0,2.0,308.0
2022-02-02-16:40:49.033855,3.0,3.0,308.0
2022-02-02-16:40:49.034851,3.0,3.0,308.0
2022-02-02-16:40:49.035849,3.0,3.0,308.0
2022-02-02-16:40:49.036846,3.0,3.0,308.0
2022-02-02-16:40:49.037843,3.0,3.0,308.0
2022-02-02-16:40:49.038840,3.0,3.0,308.0
2022-02-02-16:40:49.045821,3.0,3.0,308.0
2022-02-02-16:40:49.046818,3.0,3.0,308.0
2022-02-02-16:40:49.047816,3.0,3.0,308.0
2022-02-02-16:40:49.048813,3.0,3.0,308.0
2022-02-02-16:40:49.049811,3.0,3.0,308.0
2022-02-02-16:40:49.050808,3.0,3.0,308.0
2022-02-02-16:40:49.081725,3.0,3.0,308.0
2022-02-02-16:40:49.081725,3.0,6.0,308.0
2022-02-02-16:40:49.082723,3.0,6.0,308.0
2022-02-02-16:40:49.083720,3.0,6.0,308.0
2022-02-02-16:40:49.084717,3.0,6.0,308.0
2022-02-02-16:40:49.085715,3.0,6.0,308.0
2022-02-02-16:40:49.086712,3.0,6.0,308.0
2022-02-02-16:40:49.087709,3.0,6.0,308.0
2022-02-02-16:40:49.088706,3.0,6.0,308.0
2022-02-02-16:40:49.089704,3.0,6.0,308.0
2022-02-02-16:40:49.090701,3.0,6.0,308.0
2022-02-02-16:40:49.091699,3.0,6.0,308.0
2022-02-02-16:40:49.092695,3.0,6.0,308.0
2022-02-02-16:40:49.093693,3.0,6.0,308.0
2022-02-02-16:40:49.094690,3.0,6.0,308.0
2022-02-02-16:40:49.095688,3.0,6.0,308.0
2022-02-02-16:40:49.096685,3.0,6.0,308.0
2022-02-02-16:40:49.097682,3.0,6.0,308.0
2022-02-02-16:40:49.098680,3.0,6.0,308.0
2022-02-02-16:40:49.100675,3.0,6.0,308.0
2022-02-02-16:40:49.100675,4.0,8.0,308.0
2022-02-02-16:40:49.101671,4.0,8.0,308.0
2022-02-02-16:40:49.102670,4.0,8.0,308.0
2022-02-02-16:40:49.103667,4.0,8.0,308.0
2022-02-02-16:40:49.104664,4.0,8.0,308.0
2022-02-02-16:40:49.105663,4.0,8.0,308.0
2022-02-02-16:40:49.118626,4.0,8.0,308.0
2022-02-02-16:40:49.119624,4.0,8.0,308.0
2022-02-02-16:40:49.120621,4.0,8.0,308.0
2022-02-02-16:40:49.121620,4.0,8.0,308.0
2022-02-02-16:40:49.122615,4.0,8.0,308.0
2022-02-02-16:40:49.123613,4.0,8.0,308.0
2022-02-02-16:40:49.130594,7.0,3.0,308.0
2022-02-02-16:40:49.131592,7.0,3.0,308.0
2022-02-02-16:40:49.132589,7.0,3.0,308.0
2022-02-02-16:40:49.133586,7.0,3.0,308.0
2022-02-02-16:40:49.134583,7.0,3.0,308.0
2022-02-02-16:40:49.152570,7.0,3.0,308.0
2022-02-02-16:40:49.152570,9.0,16.0,308.0
2022-02-02-16:40:49.153587,9.0,16.0,308.0
2022-02-02-16:40:49.154585,9.0,16.0,308.0
2022-02-02-16:40:49.155581,9.0,16.0,308.0
2022-02-02-16:40:49.156580,9.0,16.0,308.0
2022-02-02-16:40:49.163560,9.0,16.0,308.0
2022-02-02-16:40:49.164559,9.0,16.0,308.0
2022-02-02-16:40:49.165559,9.0,16.0,308.0
2022-02-02-16:40:49.166552,9.0,16.0,308.0
2022-02-02-16:40:49.167555,9.0,16.0,308.0
2022-02-02-16:40:49.168550,9.0,16.0,308.0
2022-02-02-16:40:49.169539,9.0,16.0,308.0
2022-02-02-16:40:49.170541,8.0,18.0,307.0
2022-02-02-16:40:49.171539,8.0,18.0,307.0
2022-02-02-16:40:49.172537,8.0,18.0,307.0
2022-02-02-16:40:49.173533,8.0,18.0,307.0
2022-02-02-16:40:49.174532,8.0,18.0,307.0
2022-02-02-16:40:49.181511,8.0,18.0,307.0
2022-02-02-16:40:49.182510,8.0,18.0,307.0
2022-02-02-16:40:49.183508,8.0,18.0,307.0
2022-02-02-16:40:49.184504,8.0,18.0,307.0
2022-02-02-16:40:49.185501,8.0,18.0,307.0
2022-02-02-16:40:49.186498,8.0,18.0,307.0
2022-02-02-16:40:49.187497,8.0,18.0,307.0
2022-02-02-16:40:49.188495,8.0,12.0,308.0
2022-02-02-16:40:49.189495,8.0,12.0,308.0
2022-02-02-16:40:49.190488,8.0,12.0,308.0
2022-02-02-16:40:49.191486,8.0,12.0,308.0
2022-02-02-16:40:49.192483,8.0,12.0,308.0
2022-02-02-16:40:49.199410,8.0,12.0,308.0
2022-02-02-16:40:49.199410,8.0,12.0,308.0
2022-02-02-16:40:49.200461,8.0,12.0,308.0
2022-02-02-16:40:49.201459,8.0,12.0,308.0
2022-02-02-16:40:49.202456,8.0,12.0,308.0
2022-02-02-16:40:49.203453,8.0,12.0,308.0
2022-02-02-16:40:49.204452,8.0,12.0,308.0
2022-02-02-16:40:49.205447,8.0,12.0,308.0
2022-02-02-16:40:49.206428,8.0,12.0,308.0
2022-02-02-16:40:49.207444,8.0,12.0,308.0
2022-02-02-16:40:49.208440,8.0,12.0,308.0
2022-02-02-16:40:49.209437,8.0,12.0,308.0
2022-02-02-16:40:49.210447,8.0,12.0,308.0
2022-02-02-16:40:49.216365,8.0,12.0,308.0
2022-02-02-16:40:49.217415,8.0,12.0,308.0
2022-02-02-16:40:49.218412,8.0,12.0,308.0
2022-02-02-16:40:49.219410,8.0,12.0,308.0
2022-02-02-16:40:49.220408,8.0,12.0,308.0
2022-02-02-16:40:49.221405,8.0,12.0,308.0
2022-02-02-16:40:49.222402,8.0,12.0,308.0
2022-02-02-16:40:49.223400,8.0,12.0,308.0
2022-02-02-16:40:49.224396,8.0,12.0,308.0
2022-02-02-16:40:49.225393,8.0,12.0,308.0
2022-02-02-16:40:49.226364,8.0,12.0,308.0
2022-02-02-16:40:49.233372,8.0,12.0,308.0
2022-02-02-16:40:49.234317,8.0,12.0,308.0
2022-02-02-16:40:49.235314,8.0,12.0,308.0
2022-02-02-16:40:49.236311,8.0,12.0,308.0
2022-02-02-16:40:49.237309,8.0,12.0,308.0
2022-02-02-16:40:49.238306,8.0,12.0,308.0
2022-02-02-16:40:49.239303,8.0,12.0,308.0
2022-02-02-16:40:49.240301,7.0,5.0,308.0
2022-02-02-16:40:49.241298,7.0,5.0,308.0
2022-02-02-16:40:49.242295,7.0,5.0,308.0
2022-02-02-16:40:49.243293,7.0,5.0,308.0
2022-02-02-16:40:49.244290,7.0,5.0,308.0
2022-02-02-16:40:49.245287,7.0,5.0,308.0
2022-02-02-16:40:49.246285,7.0,5.0,308.0
2022-02-02-16:40:49.247282,7.0,5.0,308.0
2022-02-02-16:40:49.248279,7.0,5.0,308.0
2022-02-02-16:40:49.249277,7.0,5.0,308.0
2022-02-02-16:40:49.250274,7.0,5.0,308.0
2022-02-02-16:40:49.251271,7.0,5.0,308.0
2022-02-02-16:40:49.252269,1.0,2.0,308.0
2022-02-02-16:40:49.253266,1.0,2.0,308.0
2022-02-02-16:40:49.254263,1.0,2.0,308.0
2022-02-02-16:40:49.255261,1.0,2.0,308.0
2022-02-02-16:40:49.256258,1.0,2.0,308.0
2022-02-02-16:40:49.262279,1.0,2.0,308.0
2022-02-02-16:40:49.263293,1.0,12.0,308.0
2022-02-02-16:40:49.264294,1.0,12.0,308.0
2022-02-02-16:40:49.265290,1.0,12.0,308.0
2022-02-02-16:40:49.266290,1.0,12.0,308.0
2022-02-02-16:40:49.273213,0.0,31.0,308.0
2022-02-02-16:40:49.274244,0.0,31.0,308.0
2022-02-02-16:40:49.275242,0.0,31.0,308.0
2022-02-02-16:40:49.276240,0.0,31.0,308.0
2022-02-02-16:40:49.277204,0.0,31.0,308.0
2022-02-02-16:40:49.278201,0.0,31.0,308.0
2022-02-02-16:40:49.284229,0.0,31.0,308.0
2022-02-02-16:40:49.285213,1.0,25.0,308.0
2022-02-02-16:40:49.286210,1.0,25.0,308.0
2022-02-02-16:40:49.287209,1.0,25.0,308.0
2022-02-02-16:40:49.288205,1.0,25.0,308.0
2022-02-02-16:40:49.289205,1.0,25.0,308.0
2022-02-02-16:40:49.290199,1.0,25.0,308.0
2022-02-02-16:40:49.291197,1.0,25.0,308.0
2022-02-02-16:40:49.292201,1.0,25.0,308.0
2022-02-02-16:40:49.293160,1.0,25.0,308.0
2022-02-02-16:40:49.294194,1.0,25.0,308.0
2022-02-02-16:40:49.295189,1.0,25.0,308.0
2022-02-02-16:40:49.302203,1.0,25.0,308.0
2022-02-02-16:40:49.303257,1.0,25.0,308.0
2022-02-02-16:40:49.304255,1.0,25.0,308.0
2022-02-02-16:40:49.305251,1.0,25.0,308.0
2022-02-02-16:40:49.306249,1.0,25.0,308.0
2022-02-02-16:40:49.307225,1.0,25.0,308.0
2022-02-02-16:40:49.313210,1.0,25.0,308.0
2022-02-02-16:40:49.314227,1.0,25.0,308.0
2022-02-02-16:40:49.315225,1.0,25.0,308.0
2022-02-02-16:40:49.316222,1.0,25.0,308.0
2022-02-02-16:40:49.317166,1.0,25.0,308.0
2022-02-02-16:40:49.318187,1.0,25.0,308.0
2022-02-02-16:40:49.319214,1.0,25.0,308.0
2022-02-02-16:40:49.320213,5.0,17.0,308.0
2022-02-02-16:40:49.321155,5.0,17.0,308.0
2022-02-02-16:40:49.322206,5.0,17.0,308.0
2022-02-02-16:40:49.323207,5.0,17.0,308.0
2022-02-02-16:40:49.324202,5.0,17.0,308.0
2022-02-02-16:40:49.325144,5.0,17.0,308.0
2022-02-02-16:40:49.332163,5.0,0.0,308.0
2022-02-02-16:40:49.333178,5.0,0.0,308.0
2022-02-02-16:40:49.334177,5.0,0.0,308.0
2022-02-02-16:40:49.335119,5.0,0.0,308.0
2022-02-02-16:40:49.336170,5.0,0.0,308.0
2022-02-02-16:40:49.337166,5.0,0.0,308.0
2022-02-02-16:40:49.343114,5.0,0.0,308.0
2022-02-02-16:40:49.344128,4.0,5.0,308.0
2022-02-02-16:40:49.345124,4.0,5.0,308.0
2022-02-02-16:40:49.346123,4.0,5.0,308.0
2022-02-02-16:40:49.347119,4.0,5.0,308.0
2022-02-02-16:40:49.348117,4.0,5.0,308.0
2022-02-02-16:40:49.354101,4.0,5.0,308.0
2022-02-02-16:40:49.355065,8.0,6.0,308.0
2022-02-02-16:40:49.356062,10.0,14.0,308.0
2022-02-02-16:40:49.357093,4.0,5.0,308.0
2022-02-02-16:40:49.358072,2.0,1.0,308.0
2022-02-02-16:40:49.359054,13.0,11.0,308.0
2022-02-02-16:40:49.360069,0.0,5.0,308.0
2022-02-02-16:40:49.361050,6.0,5.0,308.0
2022-02-02-16:40:49.363097,1.0,12.0,308.0
2022-02-02-16:40:49.363097,6.0,4.0,308.0
2022-02-02-16:40:49.364094,8.0,3.0,309.0
2022-02-02-16:40:49.365093,3.0,11.0,308.0
2022-02-02-16:40:49.366115,0.0,11.0,308.0
2022-02-02-16:40:49.366115,0.0,7.0,308.0
2022-02-02-16:40:49.367175,6.0,2.0,307.0
2022-02-02-16:40:49.368148,13.0,3.0,308.0
2022-02-02-16:40:49.369150,1.0,42.0,308.0
2022-02-02-16:40:49.370161,1.0,1.0,308.0
2022-02-02-16:40:49.371159,7.0,1.0,308.0
2022-02-02-16:40:49.372216,11.0,20.0,308.0
2022-02-02-16:40:49.372719,9.0,4.0,308.0
2022-02-02-16:40:49.372719,7.0,23.0,308.0
2022-02-02-16:40:49.373765,2.0,12.0,308.0
2022-02-02-16:40:49.374762,6.0,2.0,308.0
2022-02-02-16:40:49.375759,5.0,3.0,308.0
2022-02-02-16:40:49.376725,8.0,5.0,308.0
2022-02-02-16:40:49.377735,1.0,12.0,308.0
2022-02-02-16:40:49.378731,6.0,1.0,308.0
2022-02-02-16:40:49.379727,11.0,5.0,308.0
2022-02-02-16:40:49.380727,0.0,24.0,308.0
2022-02-02-16:40:49.381722,0.0,12.0,308.0
2022-02-02-16:40:49.382721,7.0,4.0,308.0
2022-02-02-16:40:49.383717,3.0,15.0,308.0
2022-02-02-16:40:49.384718,5.0,6.0,308.0
2022-02-02-16:40:49.385713,1.0,9.0,308.0
2022-02-02-16:40:49.386708,0.0,19.0,308.0
2022-02-02-16:40:49.387845,11.0,1.0,308.0
2022-02-02-16:40:49.387845,1.0,5.0,308.0
2022-02-02-16:40:49.388870,3.0,17.0,308.0
2022-02-02-16:40:49.389866,7.0,6.0,308.0
2022-02-02-16:40:49.390863,8.0,10.0,308.0
2022-02-02-16:40:49.391864,11.0,13.0,308.0
2022-02-02-16:40:49.392863,1.0,14.0,308.0
2022-02-02-16:40:49.393858,3.0,3.0,308.0
2022-02-02-16:40:49.394846,10.0,9.0,308.0
2022-02-02-16:40:49.396849,4.0,0.0,308.0
2022-02-02-16:40:49.397676,6.0,8.0,308.0
2022-02-02-16:40:49.397996,6.0,4.0,308.0
2022-02-02-16:40:49.397996,9.0,12.0,307.0
2022-02-02-16:40:49.399023,1.0,20.0,308.0
2022-02-02-16:40:49.400018,5.0,21.0,308.0
2022-02-02-16:40:49.400990,5.0,21.0,308.0
2022-02-02-16:40:49.402018,2.0,15.0,308.0
2022-02-02-16:40:49.403020,9.0,8.0,308.0
2022-02-02-16:40:49.404010,8.0,14.0,308.0
2022-02-02-16:40:49.405005,2.0,21.0,308.0
2022-02-02-16:40:49.406002,1.0,6.0,308.0
2022-02-02-16:40:49.407000,3.0,1.0,308.0
2022-02-02-16:40:49.407996,12.0,12.0,308.0
2022-02-02-16:40:49.408993,2.0,22.0,308.0
2022-02-02-16:40:49.409978,5.0,3.0,308.0
2022-02-02-16:40:49.410989,5.0,1.0,308.0
2022-02-02-16:40:49.411985,5.0,14.0,308.0
2022-02-02-16:40:49.413409,2.0,6.0,308.0
2022-02-02-16:40:49.413409,6.0,17.0,308.0
2022-02-02-16:40:49.414434,5.0,1.0,308.0
2022-02-02-16:40:49.415430,9.0,13.0,307.0
2022-02-02-16:40:49.416430,2.0,7.0,309.0
2022-02-02-16:40:49.417472,0.0,6.0,308.0
2022-02-02-16:40:49.417905,2.0,0.0,308.0
2022-02-02-16:40:49.418207,8.0,9.0,308.0
2022-02-02-16:40:49.418207,5.0,23.0,308.0
2022-02-02-16:40:49.419249,0.0,17.0,308.0
2022-02-02-16:40:49.419249,4.0,2.0,308.0
2022-02-02-16:40:49.420279,9.0,2.0,309.0
2022-02-02-16:40:49.421271,11.0,6.0,308.0
2022-02-02-16:40:49.422466,1.0,23.0,308.0
2022-02-02-16:40:49.422466,6.0,3.0,308.0
2022-02-02-16:40:49.423490,6.0,9.0,308.0
2022-02-02-16:40:49.424490,12.0,5.0,308.0
2022-02-02-16:40:49.425484,4.0,23.0,308.0
2022-02-02-16:40:49.426495,2.0,21.0,308.0
2022-02-02-16:40:49.427481,3.0,11.0,308.0
2022-02-02-16:40:49.428480,5.0,4.0,308.0
2022-02-02-16:40:49.429474,11.0,16.0,308.0
2022-02-02-16:40:49.431493,4.0,11.0,308.0
2022-02-02-16:40:49.431493,1.0,2.0,308.0
2022-02-02-16:40:49.432441,10.0,4.0,307.0
2022-02-02-16:40:49.433485,1.0,12.0,308.0
2022-02-02-16:40:49.434482,4.0,7.0,308.0
2022-02-02-16:40:49.435490,3.0,6.0,308.0
2022-02-02-16:40:49.436455,8.0,15.0,308.0
2022-02-02-16:40:49.437474,1.0,10.0,308.0
2022-02-02-16:40:49.438472,3.0,5.0,308.0
2022-02-02-16:40:49.439471,8.0,13.0,308.0
2022-02-02-16:40:49.440466,12.0,4.0,308.0
2022-02-02-16:40:49.441464,5.0,21.0,308.0
2022-02-02-16:40:49.442461,3.0,13.0,308.0
2022-02-02-16:40:49.443412,6.0,8.0,308.0
2022-02-02-16:40:49.444458,10.0,16.0,308.0
2022-02-02-16:40:49.445453,0.0,8.0,308.0
2022-02-02-16:40:49.446451,9.0,7.0,308.0
2022-02-02-16:40:49.447426,6.0,13.0,308.0
2022-02-02-16:40:49.448425,10.0,9.0,308.0
2022-02-02-16:40:49.449421,8.0,4.0,308.0
2022-02-02-16:40:49.450459,2.0,16.0,309.0
2022-02-02-16:40:49.450459,3.0,6.0,308.0
2022-02-02-16:40:49.451672,3.0,6.0,308.0
2022-02-02-16:40:49.451872,3.0,6.0,308.0
2022-02-02-16:40:49.452068,3.0,6.0,308.0
2022-02-02-16:40:49.452068,3.0,6.0,308.0
2022-02-02-16:40:49.453293,1.0,1.0,308.0
2022-02-02-16:40:49.453381,0.0,6.0,308.0
2022-02-02-16:40:49.453381,0.0,6.0,308.0
2022-02-02-16:40:49.454408,0.0,6.0,308.0
2022-02-02-16:40:49.455403,0.0,6.0,308.0
2022-02-02-16:40:49.456546,0.0,6.0,308.0
2022-02-02-16:40:49.456546,1.0,4.0,307.0
2022-02-02-16:40:49.457570,6.0,11.0,308.0
2022-02-02-16:40:49.458569,10.0,15.0,308.0
2022-02-02-16:40:49.459567,10.0,15.0,308.0
2022-02-02-16:40:49.460569,10.0,15.0,308.0
2022-02-02-16:40:49.461560,10.0,14.0,308.0
2022-02-02-16:40:49.462557,11.0,1.0,308.0
2022-02-02-16:40:49.463555,5.0,28.0,309.0
2022-02-02-16:40:49.464683,5.0,28.0,309.0
2022-02-02-16:40:49.465682,1.0,26.0,308.0
2022-02-02-16:40:49.465682,4.0,14.0,308.0
2022-02-02-16:40:49.466727,4.0,14.0,308.0
2022-02-02-16:40:49.467724,4.0,14.0,308.0
2022-02-02-16:40:49.468820,4.0,14.0,308.0
2022-02-02-16:40:49.468820,5.0,11.0,308.0
2022-02-02-16:40:49.469867,3.0,4.0,309.0
2022-02-02-16:40:49.470863,8.0,1.0,308.0
2022-02-02-16:40:49.471860,8.0,1.0,308.0
2022-02-02-16:40:49.473002,8.0,1.0,308.0
2022-02-02-16:40:49.473002,5.0,1.0,308.0
2022-02-02-16:40:49.474049,6.0,1.0,308.0
2022-02-02-16:40:49.475046,10.0,5.0,308.0
2022-02-02-16:40:49.476043,10.0,5.0,308.0
2022-02-02-16:40:49.476994,10.0,5.0,308.0
2022-02-02-16:40:49.478042,10.0,10.0,308.0
2022-02-02-16:40:49.479013,3.0,12.0,308.0
2022-02-02-16:40:49.480017,5.0,5.0,308.0
2022-02-02-16:40:49.481009,5.0,5.0,308.0
2022-02-02-16:40:49.482007,0.0,20.0,308.0
2022-02-02-16:40:49.483072,1.0,16.0,308.0
2022-02-02-16:40:49.483072,1.0,16.0,308.0
2022-02-02-16:40:49.484118,1.0,16.0,308.0
2022-02-02-16:40:49.485218,1.0,16.0,308.0
2022-02-02-16:40:49.485218,4.0,13.0,309.0
2022-02-02-16:40:49.486264,2.0,5.0,308.0
2022-02-02-16:40:49.487317,11.0,16.0,308.0
2022-02-02-16:40:49.487317,11.0,16.0,308.0
2022-02-02-16:40:49.488362,11.0,16.0,308.0
2022-02-02-16:40:49.489519,11.0,16.0,308.0
2022-02-02-16:40:49.489519,6.0,7.0,308.0
2022-02-02-16:40:49.490568,3.0,4.0,308.0
2022-02-02-16:40:49.491562,3.0,9.0,308.0
2022-02-02-16:40:49.492539,3.0,9.0,308.0
2022-02-02-16:40:49.493511,3.0,9.0,308.0
2022-02-02-16:40:49.494533,10.0,10.0,308.0
2022-02-02-16:40:49.495533,10.0,7.0,308.0
2022-02-02-16:40:49.496533,6.0,2.0,308.0
2022-02-02-16:40:49.497525,6.0,2.0,308.0
2022-02-02-16:40:49.499541,2.0,12.0,308.0
2022-02-02-16:40:49.499541,0.0,3.0,308.0
2022-02-02-16:40:49.500538,0.0,3.0,308.0
2022-02-02-16:40:49.501520,0.0,3.0,308.0
2022-02-02-16:40:49.502522,0.0,3.0,308.0
2022-02-02-16:40:49.502920,4.0,1.0,308.0
2022-02-02-16:40:49.503054,2.0,1.0,308.0
2022-02-02-16:40:49.503054,2.0,1.0,308.0
2022-02-02-16:40:49.504101,2.0,1.0,308.0
2022-02-02-16:40:49.505098,2.0,1.0,308.0
2022-02-02-16:40:49.506095,2.0,1.0,308.0
2022-02-02-16:40:49.507093,4.0,16.0,308.0
2022-02-02-16:40:49.508090,6.0,7.0,308.0
2022-02-02-16:40:49.509091,6.0,7.0,308.0
2022-02-02-16:40:49.510038,6.0,7.0,308.0
2022-02-02-16:40:49.511071,7.0,9.0,308.0
2022-02-02-16:40:49.512032,10.0,2.0,308.0
2022-02-02-16:40:49.513080,10.0,2.0,308.0
2022-02-02-16:40:49.514288,10.0,2.0,308.0
2022-02-02-16:40:49.514288,3.0,6.0,308.0
2022-02-02-16:40:49.515334,4.0,6.0,308.0
2022-02-02-16:40:49.516383,4.0,6.0,308.0
2022-02-02-16:40:49.516383,4.0,6.0,308.0
2022-02-02-16:40:49.517429,4.0,6.0,308.0
2022-02-02-16:40:49.518597,4.0,6.0,308.0
2022-02-02-16:40:49.518597,1.0,4.0,308.0
2022-02-02-16:40:49.519645,5.0,6.0,308.0
2022-02-02-16:40:49.520641,5.0,6.0,308.0
2022-02-02-16:40:49.521646,5.0,6.0,308.0
2022-02-02-16:40:49.522643,5.0,6.0,308.0
2022-02-02-16:40:49.523640,7.0,12.0,307.0
2022-02-02-16:40:49.524642,7.0,1.0,308.0
2022-02-02-16:40:49.525627,7.0,1.0,308.0
2022-02-02-16:40:49.526591,7.0,1.0,308.0
2022-02-02-16:40:49.527601,7.0,1.0,308.0
2022-02-02-16:40:49.528619,11.0,12.0,308.0
2022-02-02-16:40:49.529621,6.0,4.0,308.0
2022-02-02-16:40:49.530614,6.0,4.0,308.0
2022-02-02-16:40:49.531614,6.0,6.0,308.0
2022-02-02-16:40:49.532613,1.0,14.0,308.0
2022-02-02-16:40:49.534557,1.0,14.0,308.0
2022-02-02-16:40:49.534557,1.0,14.0,308.0
2022-02-02-16:40:49.535579,3.0,2.0,308.0
2022-02-02-16:40:49.536689,4.0,7.0,308.0
2022-02-02-16:40:49.536689,4.0,7.0,308.0
2022-02-02-16:40:49.537735,4.0,7.0,308.0
2022-02-02-16:40:49.538712,4.0,7.0,308.0
2022-02-02-16:40:49.539683,5.0,4.0,309.0
2022-02-02-16:40:49.540680,6.0,2.0,308.0
2022-02-02-16:40:49.541677,6.0,2.0,308.0
2022-02-02-16:40:49.542675,6.0,2.0,308.0
2022-02-02-16:40:49.543672,11.0,4.0,309.0
2022-02-02-16:40:49.544717,9.0,3.0,308.0
2022-02-02-16:40:49.545713,9.0,2.0,308.0
2022-02-02-16:40:49.546711,9.0,2.0,308.0
2022-02-02-16:40:49.547708,6.0,3.0,308.0
2022-02-02-16:40:49.549069,2.0,7.0,308.0
2022-02-02-16:40:49.549069,1.0,5.0,308.0
2022-02-02-16:40:49.550114,1.0,5.0,308.0
2022-02-02-16:40:49.551117,1.0,5.0,308.0
2022-02-02-16:40:49.552339,2.0,3.0,307.0
2022-02-02-16:40:49.552339,5.0,15.0,308.0
2022-02-02-16:40:49.553370,5.0,15.0,308.0
2022-02-02-16:40:49.554367,5.0,15.0,308.0
2022-02-02-16:40:49.555369,5.0,15.0,308.0
2022-02-02-16:40:49.556362,7.0,12.0,308.0
2022-02-02-16:40:49.557362,2.0,7.0,308.0
2022-02-02-16:40:49.558357,2.0,7.0,308.0
2022-02-02-16:40:49.559354,2.0,7.0,308.0
2022-02-02-16:40:49.560320,1.0,5.0,308.0
2022-02-02-16:40:49.561349,12.0,4.0,308.0
2022-02-02-16:40:49.562346,12.0,4.0,308.0
2022-02-02-16:40:49.563335,12.0,4.0,308.0
2022-02-02-16:40:49.564332,5.0,7.0,308.0
2022-02-02-16:40:49.565333,2.0,18.0,308.0
2022-02-02-16:40:49.567324,2.0,18.0,308.0
2022-02-02-16:40:49.567324,1.0,19.0,308.0
2022-02-02-16:40:49.568298,3.0,2.0,308.0
2022-02-02-16:40:49.569320,3.0,2.0,308.0
2022-02-02-16:40:49.570318,3.0,2.0,308.0
2022-02-02-16:40:49.571318,3.0,2.0,308.0
2022-02-02-16:40:49.572311,3.0,2.0,308.0
2022-02-02-16:40:49.573313,7.0,4.0,308.0
2022-02-02-16:40:49.574306,5.0,6.0,308.0
2022-02-02-16:40:49.575303,8.0,6.0,308.0
2022-02-02-16:40:49.576303,9.0,14.0,308.0
2022-02-02-16:40:49.577298,3.0,7.0,308.0
2022-02-02-16:40:49.578295,1.0,3.0,308.0
2022-02-02-16:40:49.579269,1.0,3.0,308.0
2022-02-02-16:40:49.580290,4.0,2.0,308.0
2022-02-02-16:40:49.581289,4.0,2.0,308.0
2022-02-02-16:40:49.582284,0.0,11.0,308.0
2022-02-02-16:40:49.583258,0.0,11.0,308.0
2022-02-02-16:40:49.584282,2.0,7.0,308.0
2022-02-02-16:40:49.585277,5.0,4.0,309.0
2022-02-02-16:40:49.586274,2.0,12.0,307.0
2022-02-02-16:40:49.587251,2.0,12.0,307.0
2022-02-02-16:40:49.588269,4.0,11.0,308.0
2022-02-02-16:40:49.589268,5.0,12.0,308.0
2022-02-02-16:40:49.590264,5.0,12.0,308.0
2022-02-02-16:40:49.591261,5.0,12.0,308.0
2022-02-02-16:40:49.592260,5.0,12.0,308.0
2022-02-02-16:40:49.593242,8.0,10.0,308.0
2022-02-02-16:40:49.594252,5.0,11.0,308.0
2022-02-02-16:40:49.595249,8.0,5.0,308.0
2022-02-02-16:40:49.596254,8.0,5.0,308.0
2022-02-02-16:40:49.597247,5.0,9.0,308.0
2022-02-02-16:40:49.598243,5.0,9.0,308.0
2022-02-02-16:40:49.600240,3.0,12.0,308.0
2022-02-02-16:40:49.600240,9.0,11.0,309.0
2022-02-02-16:40:49.601234,9.0,5.0,308.0
2022-02-02-16:40:49.602239,9.0,5.0,308.0
2022-02-02-16:40:49.603228,9.0,5.0,308.0
2022-02-02-16:40:49.604233,9.0,5.0,308.0
2022-02-02-16:40:49.605226,10.0,5.0,308.0
2022-02-02-16:40:49.606325,1.0,6.0,308.0
2022-02-02-16:40:49.606325,1.0,6.0,308.0
2022-02-02-16:40:49.607380,1.0,6.0,308.0
2022-02-02-16:40:49.608377,1.0,6.0,308.0
2022-02-02-16:40:49.609378,4.0,2.0,308.0
2022-02-02-16:40:49.610317,12.0,7.0,308.0
2022-02-02-16:40:49.611371,11.0,2.0,308.0
2022-02-02-16:40:49.612367,11.0,2.0,308.0
2022-02-02-16:40:49.613363,3.0,1.0,308.0
2022-02-02-16:40:49.614706,4.0,12.0,308.0
2022-02-02-16:40:49.615051,0.0,16.0,308.0
2022-02-02-16:40:49.615051,0.0,16.0,308.0
2022-02-02-16:40:49.616051,0.0,16.0,308.0
2022-02-02-16:40:49.617080,3.0,11.0,308.0
2022-02-02-16:40:49.618079,6.0,14.0,308.0
2022-02-02-16:40:49.619074,6.0,14.0,308.0
2022-02-02-16:40:49.620071,6.0,14.0,308.0
2022-02-02-16:40:49.621071,11.0,13.0,308.0
2022-02-02-16:40:49.622229,7.0,1.0,308.0
2022-02-02-16:40:49.622229,7.0,1.0,308.0
2022-02-02-16:40:49.623287,7.0,1.0,308.0
2022-02-02-16:40:49.624483,7.0,1.0,308.0
2022-02-02-16:40:49.624483,9.0,1.0,308.0
2022-02-02-16:40:49.625514,9.0,1.0,308.0
2022-02-02-16:40:49.626610,11.0,13.0,308.0
2022-02-02-16:40:49.626610,11.0,13.0,308.0
2022-02-02-16:40:49.627610,11.0,13.0,308.0
2022-02-02-16:40:49.628640,11.0,13.0,308.0
2022-02-02-16:40:49.629639,7.0,2.0,308.0
2022-02-02-16:40:49.631631,5.0,31.0,308.0
2022-02-02-16:40:49.631631,5.0,31.0,308.0
2022-02-02-16:40:49.632630,5.0,31.0,308.0
2022-02-02-16:40:49.633626,1.0,0.0,308.0
2022-02-02-16:40:49.634592,1.0,0.0,308.0
2022-02-02-16:40:49.635595,1.0,0.0,308.0
2022-02-02-16:40:49.636586,1.0,0.0,308.0
2022-02-02-16:40:49.637614,1.0,3.0,308.0
2022-02-02-16:40:49.638612,6.0,2.0,308.0
2022-02-02-16:40:49.639609,6.0,2.0,308.0
2022-02-02-16:40:49.640575,6.0,2.0,308.0
2022-02-02-16:40:49.641604,7.0,1.0,309.0
2022-02-02-16:40:49.642602,9.0,4.0,308.0
2022-02-02-16:40:49.643567,9.0,4.0,308.0
2022-02-02-16:40:49.644564,9.0,4.0,308.0
2022-02-02-16:40:49.645593,9.0,4.0,308.0
2022-02-02-16:40:49.646590,4.0,10.0,308.0
2022-02-02-16:40:49.647589,4.0,10.0,308.0
2022-02-02-16:40:49.648587,4.0,10.0,308.0
2022-02-02-16:40:49.649574,3.0,7.0,308.0
2022-02-02-16:40:49.650584,5.0,5.0,308.0
2022-02-02-16:40:49.651546,5.0,5.0,308.0
2022-02-02-16:40:49.652575,5.0,5.0,308.0
2022-02-02-16:40:49.653572,5.0,5.0,308.0
2022-02-02-16:40:49.654562,3.0,0.0,308.0
2022-02-02-16:40:49.655559,8.0,10.0,308.0
2022-02-02-16:40:49.656558,8.0,10.0,308.0
2022-02-02-16:40:49.657553,8.0,10.0,308.0
2022-02-02-16:40:49.658550,7.0,9.0,308.0
2022-02-02-16:40:49.659548,10.0,15.0,308.0
2022-02-02-16:40:49.660522,10.0,15.0,308.0
2022-02-02-16:40:49.661545,10.0,15.0,308.0
2022-02-02-16:40:49.662544,14.0,2.0,308.0
2022-02-02-16:40:49.663537,9.0,24.0,308.0
2022-02-02-16:40:49.664537,3.0,22.0,308.0
2022-02-02-16:40:49.668500,3.0,22.0,308.0
2022-02-02-16:40:49.668500,1.0,3.0,308.0
2022-02-02-16:40:49.669521,1.0,3.0,308.0
2022-02-02-16:40:49.670519,5.0,4.0,308.0
2022-02-02-16:40:49.671516,6.0,28.0,308.0
2022-02-02-16:40:49.672517,6.0,28.0,308.0
2022-02-02-16:40:49.673487,6.0,28.0,308.0
2022-02-02-16:40:49.674508,5.0,19.0,308.0
2022-02-02-16:40:49.675505,11.0,12.0,308.0
2022-02-02-16:40:49.676507,11.0,12.0,308.0
2022-02-02-16:40:49.677476,11.0,12.0,308.0
2022-02-02-16:40:49.678497,8.0,8.0,308.0
2022-02-02-16:40:49.679494,4.0,1.0,308.0
2022-02-02-16:40:49.680494,4.0,1.0,308.0
2022-02-02-16:40:49.681466,4.0,1.0,308.0
2022-02-02-16:40:49.682486,1.0,7.0,308.0
2022-02-02-16:40:49.683484,1.0,7.0,308.0
2022-02-02-16:40:49.684481,1.0,7.0,308.0
2022-02-02-16:40:49.685479,2.0,13.0,308.0
2022-02-02-16:40:49.686476,2.0,13.0,308.0
2022-02-02-16:40:49.687473,4.0,9.0,308.0
2022-02-02-16:40:49.688473,4.0,9.0,308.0
2022-02-02-16:40:49.689468,4.0,9.0,308.0
2022-02-02-16:40:49.690465,4.0,9.0,308.0
2022-02-02-16:40:49.691463,7.0,10.0,307.0
2022-02-02-16:40:49.692460,7.0,8.0,308.0
2022-02-02-16:40:49.693433,7.0,8.0,308.0
2022-02-02-16:40:49.694455,7.0,8.0,308.0
2022-02-02-16:40:49.695452,6.0,8.0,308.0
2022-02-02-16:40:49.696452,3.0,1.0,308.0
2022-02-02-16:40:49.697447,3.0,1.0,308.0
2022-02-02-16:40:49.698444,3.0,1.0,308.0
2022-02-02-16:40:49.700439,2.0,7.0,309.0
2022-02-02-16:40:49.700439,2.0,7.0,309.0
2022-02-02-16:40:49.701436,2.0,7.0,309.0
2022-02-02-16:40:49.702410,2.0,7.0,309.0
2022-02-02-16:40:49.703431,3.0,7.0,308.0
2022-02-02-16:40:49.704430,4.0,4.0,308.0
2022-02-02-16:40:49.705426,4.0,4.0,308.0
2022-02-02-16:40:49.706423,4.0,4.0,308.0
2022-02-02-16:40:49.707420,7.0,4.0,308.0
2022-02-02-16:40:49.708418,7.0,9.0,308.0
2022-02-02-16:40:49.709417,7.0,9.0,308.0
2022-02-02-16:40:49.710388,7.0,9.0,308.0
2022-02-02-16:40:49.711410,9.0,4.0,308.0
2022-02-02-16:40:49.712409,4.0,9.0,308.0
2022-02-02-16:40:49.713404,4.0,9.0,308.0
2022-02-02-16:40:49.714378,4.0,9.0,308.0
2022-02-02-16:40:49.715399,2.0,15.0,308.0
2022-02-02-16:40:49.716396,2.0,15.0,308.0
2022-02-02-16:40:49.717393,5.0,13.0,308.0
2022-02-02-16:40:49.718367,5.0,13.0,308.0
2022-02-02-16:40:49.719391,2.0,8.0,308.0
2022-02-02-16:40:49.720387,5.0,3.0,308.0
2022-02-02-16:40:49.721382,7.0,1.0,307.0
2022-02-02-16:40:49.722381,7.0,1.0,307.0
2022-02-02-16:40:49.723377,7.0,1.0,307.0
2022-02-02-16:40:49.724374,1.0,9.0,308.0
2022-02-02-16:40:49.725372,9.0,7.0,309.0
2022-02-02-16:40:49.726369,9.0,7.0,309.0
2022-02-02-16:40:49.727651,9.0,7.0,309.0
2022-02-02-16:40:49.727651,13.0,17.0,308.0
2022-02-02-16:40:49.728793,8.0,8.0,308.0
2022-02-02-16:40:49.728793,8.0,8.0,308.0
2022-02-02-16:40:49.729828,8.0,8.0,308.0
2022-02-02-16:40:49.730822,8.0,8.0,308.0
2022-02-02-16:40:49.731826,7.0,0.0,309.0
2022-02-02-16:40:49.732813,5.0,22.0,308.0
2022-02-02-16:40:49.733806,5.0,22.0,308.0
2022-02-02-16:40:49.735801,5.0,22.0,308.0
2022-02-02-16:40:49.735801,7.0,4.0,308.0
2022-02-02-16:40:49.736799,7.0,4.0,308.0
2022-02-02-16:40:49.737799,7.0,4.0,308.0
2022-02-02-16:40:49.738795,7.0,4.0,308.0
2022-02-02-16:40:49.739789,7.0,4.0,308.0
2022-02-02-16:40:49.740791,6.0,7.0,309.0
2022-02-02-16:40:49.741790,8.0,2.0,308.0
2022-02-02-16:40:49.742788,8.0,2.0,308.0
2022-02-02-16:40:49.743819,8.0,2.0,308.0
2022-02-02-16:40:49.743819,10.0,6.0,309.0
2022-02-02-16:40:49.744918,6.0,9.0,308.0
2022-02-02-16:40:49.744918,6.0,9.0,308.0
2022-02-02-16:40:49.745956,6.0,9.0,308.0
2022-02-02-16:40:49.746947,6.0,9.0,308.0
2022-02-02-16:40:49.747945,6.0,9.0,308.0
2022-02-02-16:40:49.748943,2.0,2.0,308.0
2022-02-02-16:40:49.749939,2.0,11.0,308.0
2022-02-02-16:40:49.750937,3.0,4.0,308.0
2022-02-02-16:40:49.751935,5.0,16.0,308.0
2022-02-02-16:40:49.752931,3.0,18.0,308.0
2022-02-02-16:40:49.753931,3.0,18.0,308.0
2022-02-02-16:40:49.754926,3.0,18.0,308.0
2022-02-02-16:40:49.755923,3.0,18.0,308.0
2022-02-02-16:40:49.756922,2.0,10.0,308.0
2022-02-02-16:40:49.757918,4.0,8.0,308.0
2022-02-02-16:40:49.759000,3.0,7.0,308.0
2022-02-02-16:40:49.759000,3.0,7.0,308.0
2022-02-02-16:40:49.760029,3.0,7.0,308.0
2022-02-02-16:40:49.761045,6.0,14.0,309.0
2022-02-02-16:40:49.762041,6.0,14.0,308.0
2022-02-02-16:40:49.763042,5.0,5.0,308.0
2022-02-02-16:40:49.764037,5.0,5.0,308.0
2022-02-02-16:40:49.765033,7.0,11.0,308.0
2022-02-02-16:40:49.766030,3.0,17.0,308.0
2022-02-02-16:40:49.767027,2.0,15.0,308.0
2022-02-02-16:40:49.768975,0.0,16.0,308.0
2022-02-02-16:40:49.769683,1.0,8.0,308.0
2022-02-02-16:40:49.769824,2.0,5.0,308.0
2022-02-02-16:40:49.769824,2.0,5.0,308.0
2022-02-02-16:40:49.770847,2.0,5.0,308.0
2022-02-02-16:40:49.771847,2.0,5.0,308.0
2022-02-02-16:40:49.772842,0.0,0.0,308.0
2022-02-02-16:40:49.773845,3.0,1.0,308.0
2022-02-02-16:40:49.774855,7.0,4.0,308.0
2022-02-02-16:40:49.774855,7.0,4.0,308.0
2022-02-02-16:40:49.775888,7.0,4.0,308.0
2022-02-02-16:40:49.776852,5.0,2.0,308.0
2022-02-02-16:40:49.777882,11.0,6.0,308.0
2022-02-02-16:40:49.778878,8.0,4.0,308.0
2022-02-02-16:40:49.779885,8.0,4.0,308.0
2022-02-02-16:40:49.780875,4.0,8.0,308.0
2022-02-02-16:40:49.781870,5.0,3.0,308.0
2022-02-02-16:40:49.782874,3.0,5.0,308.0
2022-02-02-16:40:49.783865,2.0,6.0,308.0
2022-02-02-16:40:49.784891,1.0,1.0,307.0
2022-02-02-16:40:49.785881,5.0,22.0,308.0
2022-02-02-16:40:49.786851,5.0,22.0,308.0
2022-02-02-16:40:49.787847,5.0,22.0,308.0
2022-02-02-16:40:49.788844,5.0,22.0,308.0
2022-02-02-16:40:49.789849,6.0,29.0,308.0
2022-02-02-16:40:49.790815,4.0,12.0,308.0
2022-02-02-16:40:49.791843,4.0,12.0,308.0
2022-02-02-16:40:49.792843,4.0,12.0,308.0
2022-02-02-16:40:49.793806,7.0,7.0,308.0
2022-02-02-16:40:49.794837,6.0,6.0,308.0
2022-02-02-16:40:49.795826,11.0,4.0,308.0
2022-02-02-16:40:49.796826,11.0,4.0,308.0
2022-02-02-16:40:49.797820,8.0,5.0,308.0
2022-02-02-16:40:49.798820,0.0,17.0,308.0
2022-02-02-16:40:49.799817,0.0,17.0,308.0
2022-02-02-16:40:49.801810,0.0,17.0,308.0
2022-02-02-16:40:49.801810,3.0,7.0,308.0
2022-02-02-16:40:49.802807,3.0,7.0,308.0
2022-02-02-16:40:49.803805,3.0,7.0,308.0
2022-02-02-16:40:49.804802,3.0,7.0,308.0
2022-02-02-16:40:49.805803,7.0,2.0,308.0
2022-02-02-16:40:49.806797,6.0,1.0,307.0
2022-02-02-16:40:49.807794,6.0,1.0,307.0
2022-02-02-16:40:49.808793,6.0,1.0,307.0
2022-02-02-16:40:49.810042,9.0,13.0,308.0
2022-02-02-16:40:49.810042,7.0,12.0,308.0
2022-02-02-16:40:49.811077,6.0,7.0,308.0
2022-02-02-16:40:49.812101,6.0,7.0,308.0
2022-02-02-16:40:49.813091,6.0,7.0,308.0
2022-02-02-16:40:49.814093,8.0,2.0,308.0
2022-02-02-16:40:49.815079,5.0,16.0,308.0
2022-02-02-16:40:49.816078,2.0,16.0,308.0
2022-02-02-16:40:49.817073,2.0,16.0,308.0
2022-02-02-16:40:49.818070,4.0,22.0,308.0
2022-02-02-16:40:49.819046,5.0,1.0,308.0
2022-02-02-16:40:49.820064,5.0,1.0,308.0
2022-02-02-16:40:49.821041,5.0,1.0,308.0
2022-02-02-16:40:49.822297,6.0,5.0,308.0
2022-02-02-16:40:49.822448,2.0,1.0,308.0
2022-02-02-16:40:49.822448,2.0,1.0,308.0
2022-02-02-16:40:49.823494,2.0,1.0,308.0
2022-02-02-16:40:49.824495,2.0,1.0,308.0
2022-02-02-16:40:49.825489,2.0,1.0,308.0
2022-02-02-16:40:49.826489,10.0,6.0,308.0
2022-02-02-16:40:49.827437,6.0,5.0,308.0
2022-02-02-16:40:49.828481,8.0,5.0,308.0
2022-02-02-16:40:49.829488,8.0,5.0,308.0
2022-02-02-16:40:49.830475,12.0,4.0,308.0
2022-02-02-16:40:49.831585,0.0,11.0,308.0
2022-02-02-16:40:49.831585,0.0,17.0,308.0
2022-02-02-16:40:49.832641,0.0,17.0,308.0
2022-02-02-16:40:49.833637,0.0,17.0,308.0
2022-02-02-16:40:49.834635,2.0,20.0,308.0
2022-02-02-16:40:49.835639,2.0,20.0,308.0
2022-02-02-16:40:49.836607,6.0,5.0,308.0
2022-02-02-16:40:49.838630,6.0,5.0,308.0
2022-02-02-16:40:49.838630,3.0,9.0,308.0
2022-02-02-16:40:49.839620,3.0,9.0,308.0
2022-02-02-16:40:49.840619,3.0,9.0,308.0
2022-02-02-16:40:49.841614,3.0,9.0,308.0
2022-02-02-16:40:49.842614,5.0,11.0,308.0
2022-02-02-16:40:49.843560,12.0,1.0,308.0
2022-02-02-16:40:49.844608,12.0,7.0,308.0
2022-02-02-16:40:49.845607,12.0,7.0,308.0
2022-02-02-16:40:49.846605,9.0,9.0,308.0
2022-02-02-16:40:49.847600,0.0,23.0,309.0
2022-02-02-16:40:49.848601,0.0,23.0,309.0
2022-02-02-16:40:49.849594,0.0,23.0,309.0
2022-02-02-16:40:49.850596,0.0,19.0,308.0
2022-02-02-16:40:49.851594,0.0,14.0,308.0
2022-02-02-16:40:49.852531,2.0,9.0,308.0
2022-02-02-16:40:49.853581,2.0,9.0,308.0
2022-02-02-16:40:49.854583,3.0,0.0,308.0
2022-02-02-16:40:49.855570,3.0,0.0,308.0
2022-02-02-16:40:49.856577,3.0,0.0,308.0
2022-02-02-16:40:49.857573,3.0,0.0,308.0
2022-02-02-16:40:49.858570,3.0,0.0,308.0
2022-02-02-16:40:49.859570,7.0,16.0,308.0
2022-02-02-16:40:49.860510,8.0,9.0,308.0
2022-02-02-16:40:49.861554,8.0,4.0,308.0
2022-02-02-16:40:49.862554,8.0,4.0,308.0
2022-02-02-16:40:49.863549,7.0,1.0,308.0
2022-02-02-16:40:49.864548,0.0,14.0,308.0
2022-02-02-16:40:49.865543,0.0,14.0,308.0
2022-02-02-16:40:49.866539,0.0,14.0,308.0
2022-02-02-16:40:49.867518,0.0,2.0,308.0
2022-02-02-16:40:49.868514,6.0,3.0,308.0
2022-02-02-16:40:49.869538,6.0,3.0,308.0
2022-02-02-16:40:49.870533,6.0,3.0,308.0
2022-02-02-16:40:49.872525,8.0,6.0,308.0
2022-02-02-16:40:49.872525,3.0,15.0,308.0
2022-02-02-16:40:49.873758,3.0,15.0,308.0
2022-02-02-16:40:49.873758,3.0,15.0,308.0
2022-02-02-16:40:49.874789,3.0,15.0,308.0
2022-02-02-16:40:49.875841,4.0,13.0,308.0
2022-02-02-16:40:49.876178,10.0,8.0,308.0
2022-02-02-16:40:49.876178,10.0,8.0,308.0
2022-02-02-16:40:49.877177,10.0,8.0,308.0
2022-02-02-16:40:49.878389,10.0,8.0,308.0
2022-02-02-16:40:49.878389,11.0,6.0,307.0
2022-02-02-16:40:49.879423,3.0,5.0,307.0
2022-02-02-16:40:49.880479,3.0,3.0,309.0
2022-02-02-16:40:49.880479,3.0,3.0,309.0
2022-02-02-16:40:49.881501,3.0,3.0,309.0
2022-02-02-16:40:49.882532,3.0,3.0,309.0
2022-02-02-16:40:49.883531,5.0,2.0,308.0
2022-02-02-16:40:49.884550,1.0,5.0,308.0
2022-02-02-16:40:49.885551,12.0,12.0,308.0
2022-02-02-16:40:49.886491,12.0,12.0,308.0
2022-02-02-16:40:49.887542,5.0,22.0,308.0
2022-02-02-16:40:49.888533,6.0,17.0,308.0
2022-02-02-16:40:49.889570,6.0,17.0,308.0
2022-02-02-16:40:49.889570,6.0,17.0,308.0
2022-02-02-16:40:49.890594,6.0,17.0,308.0
2022-02-02-16:40:49.891860,4.0,9.0,308.0
2022-02-02-16:40:49.891860,6.0,1.0,308.0
2022-02-02-16:40:49.892914,9.0,8.0,308.0
2022-02-02-16:40:49.893858,9.0,8.0,308.0
2022-02-02-16:40:49.894909,9.0,8.0,308.0
2022-02-02-16:40:49.895902,10.0,8.0,308.0
2022-02-02-16:40:49.896896,4.0,1.0,308.0
2022-02-02-16:40:49.897893,2.0,4.0,308.0
2022-02-02-16:40:49.899059,2.0,4.0,308.0
2022-02-02-16:40:49.899358,3.0,3.0,308.0
2022-02-02-16:40:49.899488,6.0,16.0,308.0
2022-02-02-16:40:49.899488,6.0,16.0,308.0
2022-02-02-16:40:49.900534,6.0,16.0,308.0
2022-02-02-16:40:49.901531,6.0,16.0,308.0
2022-02-02-16:40:49.902822,6.0,16.0,308.0
2022-02-02-16:40:49.903868,2.0,19.0,308.0
2022-02-02-16:40:49.904572,6.0,2.0,308.0
2022-02-02-16:40:49.904572,6.0,2.0,308.0
2022-02-02-16:40:49.905618,6.0,2.0,308.0
2022-02-02-16:40:49.906603,6.0,2.0,308.0
2022-02-02-16:40:49.907772,6.0,2.0,308.0
2022-02-02-16:40:49.907772,8.0,5.0,308.0
2022-02-02-16:40:49.908827,10.0,15.0,308.0
2022-02-02-16:40:49.909825,9.0,8.0,308.0
2022-02-02-16:40:49.910813,9.0,8.0,308.0
2022-02-02-16:40:49.911813,9.0,8.0,308.0
2022-02-02-16:40:49.912807,9.0,12.0,308.0
2022-02-02-16:40:49.913805,1.0,6.0,307.0
2022-02-02-16:40:49.914803,1.0,6.0,307.0
2022-02-02-16:40:49.915753,1.0,6.0,307.0
2022-02-02-16:40:49.916798,4.0,18.0,308.0
2022-02-02-16:40:49.917795,2.0,6.0,308.0
2022-02-02-16:40:49.918792,2.0,6.0,308.0
2022-02-02-16:40:49.919769,6.0,13.0,308.0
2022-02-02-16:40:49.920786,3.0,3.0,308.0
2022-02-02-16:40:49.921971,3.0,3.0,308.0
2022-02-02-16:40:49.921971,3.0,3.0,308.0
2022-02-02-16:40:49.923018,3.0,3.0,308.0
2022-02-02-16:40:49.924015,3.0,3.0,308.0
2022-02-02-16:40:49.925207,11.0,4.0,308.0
2022-02-02-16:40:49.925341,7.0,1.0,307.0
2022-02-02-16:40:49.925341,7.0,1.0,307.0
2022-02-02-16:40:49.926387,7.0,1.0,307.0
2022-02-02-16:40:49.927340,7.0,1.0,307.0
2022-02-02-16:40:49.928384,7.0,4.0,308.0
2022-02-02-16:40:49.929379,0.0,6.0,308.0
2022-02-02-16:40:49.930383,0.0,6.0,308.0
2022-02-02-16:40:49.931327,0.0,6.0,308.0
2022-02-02-16:40:49.932371,0.0,6.0,308.0
2022-02-02-16:40:49.933368,2.0,21.0,308.0
2022-02-02-16:40:49.934365,2.0,3.0,308.0
2022-02-02-16:40:49.935363,2.0,3.0,308.0
2022-02-02-16:40:49.936313,1.0,8.0,308.0
2022-02-02-16:40:49.938355,5.0,1.0,308.0
2022-02-02-16:40:49.938355,5.0,1.0,308.0
2022-02-02-16:40:49.939516,5.0,1.0,308.0
2022-02-02-16:40:49.939516,5.0,1.0,308.0
2022-02-02-16:40:49.940548,5.0,1.0,308.0
2022-02-02-16:40:49.941545,2.0,5.0,308.0
2022-02-02-16:40:49.942614,7.0,4.0,308.0
2022-02-02-16:40:49.942614,9.0,7.0,308.0
2022-02-02-16:40:49.943616,9.0,7.0,308.0
2022-02-02-16:40:49.944611,8.0,4.0,308.0
2022-02-02-16:40:49.945656,9.0,1.0,308.0
2022-02-02-16:40:49.946652,9.0,1.0,308.0
2022-02-02-16:40:49.947649,9.0,1.0,308.0
2022-02-02-16:40:49.948858,9.0,1.0,308.0
2022-02-02-16:40:49.948858,1.0,16.0,308.0
2022-02-02-16:40:49.949889,1.0,16.0,308.0
2022-02-02-16:40:49.950890,3.0,22.0,309.0
2022-02-02-16:40:49.951852,3.0,22.0,309.0
2022-02-02-16:40:49.952884,5.0,18.0,308.0
2022-02-02-16:40:49.953988,2.0,4.0,308.0
2022-02-02-16:40:49.953988,2.0,4.0,308.0
2022-02-02-16:40:49.955034,2.0,4.0,308.0
2022-02-02-16:40:49.956213,2.0,4.0,308.0
2022-02-02-16:40:49.956213,4.0,4.0,308.0
2022-02-02-16:40:49.957247,4.0,4.0,308.0
2022-02-02-16:40:49.958358,6.0,12.0,308.0
2022-02-02-16:40:49.958358,6.0,12.0,308.0
2022-02-02-16:40:49.959408,6.0,12.0,308.0
2022-02-02-16:40:49.960354,6.0,12.0,308.0
2022-02-02-16:40:49.961400,13.0,10.0,308.0
2022-02-02-16:40:49.962622,10.0,0.0,308.0
2022-02-02-16:40:49.962768,7.0,13.0,308.0
2022-02-02-16:40:49.962768,7.0,13.0,308.0
2022-02-02-16:40:49.963814,7.0,13.0,308.0
2022-02-02-16:40:49.964986,7.0,13.0,308.0
2022-02-02-16:40:49.964986,3.0,17.0,308.0
2022-02-02-16:40:49.966040,5.0,7.0,308.0
2022-02-02-16:40:49.967040,2.0,6.0,308.0
2022-02-02-16:40:49.968034,2.0,6.0,308.0
2022-02-02-16:40:49.969032,2.0,6.0,308.0
2022-02-02-16:40:49.969975,5.0,3.0,308.0
2022-02-02-16:40:49.970998,5.0,3.0,308.0
2022-02-02-16:40:49.971997,5.0,3.0,308.0
2022-02-02-16:40:49.972991,5.0,3.0,308.0
2022-02-02-16:40:49.973990,7.0,14.0,308.0
2022-02-02-16:40:49.975959,7.0,13.0,308.0
2022-02-02-16:40:49.975959,7.0,13.0,308.0
2022-02-02-16:40:49.976958,6.0,2.0,307.0
2022-02-02-16:40:49.977955,8.0,4.0,308.0
2022-02-02-16:40:49.978977,8.0,4.0,308.0
2022-02-02-16:40:49.979976,8.0,4.0,308.0
2022-02-02-16:40:49.980970,8.0,4.0,308.0
2022-02-02-16:40:49.981967,6.0,11.0,308.0
2022-02-02-16:40:49.982968,1.0,17.0,308.0
2022-02-02-16:40:49.984004,1.0,5.0,308.0
2022-02-02-16:40:49.984004,1.0,5.0,308.0
2022-02-02-16:40:49.985005,1.0,5.0,308.0
2022-02-02-16:40:49.986028,4.0,4.0,308.0
2022-02-02-16:40:49.987024,4.0,4.0,308.0
2022-02-02-16:40:49.987996,7.0,5.0,308.0
2022-02-02-16:40:49.989040,7.0,5.0,308.0
2022-02-02-16:40:49.990220,2.0,3.0,308.0
2022-02-02-16:40:49.990220,8.0,2.0,308.0
2022-02-02-16:40:49.991267,2.0,3.0,308.0
2022-02-02-16:40:49.992264,2.0,3.0,308.0
2022-02-02-16:40:49.993215,2.0,3.0,308.0
2022-02-02-16:40:49.994226,2.0,7.0,307.0
2022-02-02-16:40:49.995209,8.0,8.0,307.0
2022-02-02-16:40:49.996206,8.0,8.0,307.0
2022-02-02-16:40:49.997203,8.0,8.0,307.0
2022-02-02-16:40:49.998201,8.0,4.0,307.0
2022-02-02-16:40:49.999198,1.0,7.0,308.0
2022-02-02-16:40:50.000196,1.0,7.0,308.0
2022-02-02-16:40:50.001193,1.0,7.0,308.0
2022-02-02-16:40:50.002223,1.0,7.0,308.0
2022-02-02-16:40:50.003227,2.0,13.0,308.0
2022-02-02-16:40:50.004219,1.0,8.0,308.0
2022-02-02-16:40:50.006225,1.0,8.0,308.0
2022-02-02-16:40:50.006225,6.0,6.0,308.0
2022-02-02-16:40:50.007211,6.0,6.0,308.0
2022-02-02-16:40:50.008207,8.0,0.0,308.0
2022-02-02-16:40:50.009212,8.0,0.0,308.0
2022-02-02-16:40:50.010194,6.0,6.0,308.0
2022-02-02-16:40:50.011192,9.0,4.0,308.0
2022-02-02-16:40:50.012189,8.0,12.0,308.0
2022-02-02-16:40:50.013187,8.0,12.0,308.0
2022-02-02-16:40:50.014187,8.0,12.0,308.0
2022-02-02-16:40:50.015183,7.0,15.0,308.0
2022-02-02-16:40:50.016180,2.0,19.0,308.0
2022-02-02-16:40:50.017178,2.0,19.0,308.0
2022-02-02-16:40:50.018173,2.0,19.0,308.0
2022-02-02-16:40:50.019183,1.0,11.0,308.0
2022-02-02-16:40:50.020169,1.0,1.0,308.0
2022-02-02-16:40:50.021165,2.0,8.0,308.0
2022-02-02-16:40:50.022162,2.0,8.0,308.0
2022-02-02-16:40:50.023160,3.0,10.0,308.0
2022-02-02-16:40:50.024157,6.0,12.0,308.0
2022-02-02-16:40:50.025156,6.0,12.0,308.0
2022-02-02-16:40:50.026153,6.0,12.0,308.0
2022-02-02-16:40:50.027123,8.0,3.0,308.0
2022-02-02-16:40:50.028163,11.0,6.0,308.0
2022-02-02-16:40:50.028163,5.0,2.0,308.0
2022-02-02-16:40:50.029190,5.0,2.0,308.0
2022-02-02-16:40:50.030188,5.0,2.0,308.0
2022-02-02-16:40:50.031185,5.0,2.0,308.0
2022-02-02-16:40:50.032181,4.0,12.0,307.0
2022-02-02-16:40:50.033348,2.0,23.0,308.0
2022-02-02-16:40:50.033348,2.0,23.0,308.0
2022-02-02-16:40:50.034376,2.0,23.0,308.0
2022-02-02-16:40:50.035373,2.0,15.0,308.0
2022-02-02-16:40:50.036369,2.0,13.0,308.0
2022-02-02-16:40:50.037369,4.0,15.0,308.0
2022-02-02-16:40:50.038364,4.0,15.0,308.0
2022-02-02-16:40:50.040334,1.0,15.0,308.0
2022-02-02-16:40:50.040334,2.0,5.0,308.0
2022-02-02-16:40:50.041355,2.0,5.0,308.0
2022-02-02-16:40:50.042354,2.0,5.0,308.0
2022-02-02-16:40:50.043349,10.0,17.0,308.0
2022-02-02-16:40:50.044323,10.0,6.0,308.0
2022-02-02-16:40:50.045411,10.0,6.0,308.0
2022-02-02-16:40:50.045411,10.0,6.0,308.0
2022-02-02-16:40:50.046614,10.0,6.0,308.0
2022-02-02-16:40:50.046614,10.0,3.0,308.0
2022-02-02-16:40:50.047660,0.0,21.0,308.0
2022-02-02-16:40:50.048657,0.0,21.0,308.0
2022-02-02-16:40:50.049702,0.0,21.0,308.0
2022-02-02-16:40:50.049702,0.0,21.0,308.0
2022-02-02-16:40:50.050752,0.0,21.0,308.0
2022-02-02-16:40:50.051699,2.0,11.0,308.0
2022-02-02-16:40:50.052742,1.0,1.0,309.0
2022-02-02-16:40:50.053744,1.0,1.0,309.0
2022-02-02-16:40:50.054951,5.0,4.0,308.0
2022-02-02-16:40:50.054951,5.0,15.0,308.0
2022-02-02-16:40:50.055976,2.0,10.0,308.0
2022-02-02-16:40:50.056973,9.0,3.0,308.0
2022-02-02-16:40:50.058019,9.0,3.0,308.0
2022-02-02-16:40:50.058019,9.0,3.0,308.0
2022-02-02-16:40:50.059189,9.0,3.0,308.0
2022-02-02-16:40:50.059189,12.0,2.0,308.0
2022-02-02-16:40:50.060213,9.0,20.0,309.0
2022-02-02-16:40:50.061214,9.0,20.0,309.0
2022-02-02-16:40:50.062244,9.0,20.0,309.0
2022-02-02-16:40:50.062244,9.0,20.0,309.0
2022-02-02-16:40:50.063278,9.0,20.0,309.0
2022-02-02-16:40:50.064274,3.0,17.0,308.0
2022-02-02-16:40:50.065273,0.0,12.0,308.0
2022-02-02-16:40:50.066269,0.0,12.0,308.0
2022-02-02-16:40:50.067267,0.0,12.0,308.0
2022-02-02-16:40:50.068267,1.0,8.0,308.0
2022-02-02-16:40:50.069267,1.0,1.0,308.0
2022-02-02-16:40:50.071256,4.0,4.0,308.0
2022-02-02-16:40:50.071256,3.0,5.0,308.0
2022-02-02-16:40:50.072311,3.0,2.0,308.0
2022-02-02-16:40:50.072311,3.0,2.0,308.0
2022-02-02-16:40:50.073358,3.0,2.0,308.0
2022-02-02-16:40:50.074332,3.0,2.0,308.0
2022-02-02-16:40:50.075532,3.0,2.0,308.0
2022-02-02-16:40:50.075532,6.0,0.0,308.0
2022-02-02-16:40:50.076564,6.0,0.0,308.0
2022-02-02-16:40:50.077692,6.0,8.0,308.0
2022-02-02-16:40:50.077692,6.0,8.0,308.0
2022-02-02-16:40:50.078741,6.0,8.0,308.0
2022-02-02-16:40:50.079736,6.0,8.0,308.0
2022-02-02-16:40:50.080734,7.0,16.0,308.0
2022-02-02-16:40:50.081733,1.0,18.0,309.0
2022-02-02-16:40:50.082731,4.0,15.0,308.0
2022-02-02-16:40:50.083726,4.0,15.0,308.0
2022-02-02-16:40:50.084722,3.0,8.0,308.0
2022-02-02-16:40:50.085701,4.0,3.0,308.0
2022-02-02-16:40:50.086870,2.0,2.0,308.0
2022-02-02-16:40:50.086870,2.0,2.0,308.0
2022-02-02-16:40:50.087928,7.0,5.0,308.0
2022-02-02-16:40:50.088921,6.0,2.0,308.0
2022-02-02-16:40:50.090018,7.0,3.0,308.0
2022-02-02-16:40:50.090018,7.0,3.0,308.0
2022-02-02-16:40:50.091064,7.0,3.0,308.0
2022-02-02-16:40:50.092065,7.0,3.0,308.0
2022-02-02-16:40:50.093058,9.0,11.0,308.0
2022-02-02-16:40:50.094009,7.0,2.0,308.0
2022-02-02-16:40:50.095054,7.0,2.0,308.0
2022-02-02-16:40:50.096051,7.0,2.0,308.0
2022-02-02-16:40:50.097051,7.0,0.0,308.0
2022-02-02-16:40:50.098045,2.0,19.0,308.0
2022-02-02-16:40:50.099043,2.0,21.0,308.0
2022-02-02-16:40:50.100042,2.0,21.0,308.0
2022-02-02-16:40:50.101037,2.0,19.0,309.0
2022-02-02-16:40:50.102038,3.0,11.0,308.0
2022-02-02-16:40:50.103031,3.0,11.0,308.0
2022-02-02-16:40:50.104206,3.0,11.0,308.0
2022-02-02-16:40:50.105263,5.0,2.0,308.0
2022-02-02-16:40:50.105263,5.0,2.0,308.0
2022-02-02-16:40:50.106361,7.0,1.0,308.0
2022-02-02-16:40:50.106361,7.0,1.0,308.0
2022-02-02-16:40:50.107408,7.0,1.0,308.0
2022-02-02-16:40:50.108404,7.0,1.0,308.0
2022-02-02-16:40:50.109613,9.0,1.0,308.0
2022-02-02-16:40:50.109613,9.0,7.0,308.0
2022-02-02-16:40:50.110613,12.0,13.0,308.0
2022-02-02-16:40:50.111610,12.0,13.0,308.0
2022-02-02-16:40:50.112711,10.0,10.0,308.0
2022-02-02-16:40:50.112711,1.0,5.0,309.0
2022-02-02-16:40:50.113758,2.0,21.0,308.0
2022-02-02-16:40:50.114757,2.0,21.0,308.0
2022-02-02-16:40:50.115743,2.0,21.0,308.0
2022-02-02-16:40:50.116750,1.0,6.0,308.0
2022-02-02-16:40:50.117746,2.0,2.0,308.0
2022-02-02-16:40:50.118744,2.0,2.0,308.0
2022-02-02-16:40:50.119744,2.0,2.0,308.0
2022-02-02-16:40:50.120738,5.0,4.0,309.0
2022-02-02-16:40:50.122079,3.0,1.0,308.0
2022-02-02-16:40:50.122341,3.0,3.0,308.0
2022-02-02-16:40:50.122341,3.0,3.0,308.0
2022-02-02-16:40:50.123340,3.0,3.0,308.0
2022-02-02-16:40:50.124508,3.0,3.0,308.0
2022-02-02-16:40:50.124508,3.0,3.0,308.0
2022-02-02-16:40:50.125562,6.0,2.0,308.0
2022-02-02-16:40:50.126617,10.0,4.0,308.0
2022-02-02-16:40:50.126617,10.0,4.0,308.0
2022-02-02-16:40:50.127617,10.0,4.0,308.0
2022-02-02-16:40:50.128670,10.0,4.0,308.0
2022-02-02-16:40:50.129666,7.0,6.0,308.0
2022-02-02-16:40:50.130667,8.0,3.0,308.0
2022-02-02-16:40:50.131661,4.0,16.0,309.0
2022-02-02-16:40:50.132659,4.0,16.0,309.0
2022-02-02-16:40:50.133656,1.0,11.0,308.0
2022-02-02-16:40:50.134652,2.0,14.0,308.0
2022-02-02-16:40:50.135649,6.0,26.0,308.0
2022-02-02-16:40:50.136648,6.0,26.0,308.0
2022-02-02-16:40:50.138646,7.0,1.0,308.0
2022-02-02-16:40:50.138646,5.0,0.0,308.0
2022-02-02-16:40:50.139640,5.0,0.0,308.0
2022-02-02-16:40:50.140636,5.0,0.0,308.0
2022-02-02-16:40:50.141634,6.0,7.0,308.0
2022-02-02-16:40:50.142631,7.0,27.0,308.0
2022-02-02-16:40:50.143630,8.0,18.0,307.0
2022-02-02-16:40:50.144571,8.0,18.0,307.0
2022-02-02-16:40:50.145839,5.0,8.0,308.0
2022-02-02-16:40:50.145839,10.0,8.0,308.0
2022-02-02-16:40:50.146893,3.0,23.0,308.0
2022-02-02-16:40:50.147890,3.0,23.0,308.0
2022-02-02-16:40:50.148834,3.0,23.0,308.0
2022-02-02-16:40:50.149830,1.0,16.0,308.0
2022-02-02-16:40:50.150875,3.0,1.0,308.0
2022-02-02-16:40:50.151877,6.0,1.0,308.0
2022-02-02-16:40:50.152870,6.0,1.0,308.0
2022-02-02-16:40:50.153867,5.0,0.0,308.0
2022-02-02-16:40:50.154864,7.0,2.0,308.0
2022-02-02-16:40:50.155896,7.0,2.0,308.0
2022-02-02-16:40:50.155896,7.0,2.0,308.0
2022-02-02-16:40:50.157089,7.0,2.0,308.0
2022-02-02-16:40:50.157089,6.0,7.0,308.0
2022-02-02-16:40:50.158136,6.0,2.0,309.0
2022-02-02-16:40:50.159132,10.0,11.0,308.0
2022-02-02-16:40:50.160171,10.0,11.0,308.0
2022-02-02-16:40:50.160171,10.0,11.0,308.0
2022-02-02-16:40:50.161196,10.0,11.0,308.0
2022-02-02-16:40:50.162192,10.0,0.0,308.0
2022-02-02-16:40:50.163196,7.0,2.0,308.0
2022-02-02-16:40:50.164188,1.0,0.0,308.0
2022-02-02-16:40:50.165389,1.0,0.0,308.0
2022-02-02-16:40:50.165389,3.0,7.0,308.0
2022-02-02-16:40:50.166435,1.0,17.0,308.0
2022-02-02-16:40:50.167433,2.0,8.0,308.0
2022-02-02-16:40:50.168431,2.0,8.0,308.0
2022-02-02-16:40:50.169478,2.0,8.0,308.0
2022-02-02-16:40:50.169478,1.0,4.0,308.0
2022-02-02-16:40:50.170501,4.0,5.0,308.0
2022-02-02-16:40:50.171827,4.0,1.0,308.0
2022-02-02-16:40:50.172826,8.0,9.0,308.0
2022-02-02-16:40:50.172826,3.0,14.0,308.0
2022-02-02-16:40:50.173824,5.0,19.0,308.0
2022-02-02-16:40:50.174870,9.0,6.0,308.0
2022-02-02-16:40:50.175864,9.0,6.0,308.0
2022-02-02-16:40:50.176862,9.0,6.0,308.0
2022-02-02-16:40:50.177861,9.0,6.0,308.0
2022-02-02-16:40:50.178856,7.0,1.0,308.0
2022-02-02-16:40:50.179956,5.0,16.0,308.0
2022-02-02-16:40:50.179956,5.0,16.0,308.0
2022-02-02-16:40:50.180983,5.0,16.0,308.0
2022-02-02-16:40:50.182200,5.0,16.0,308.0
2022-02-02-16:40:50.182200,2.0,2.0,308.0
2022-02-02-16:40:50.183246,1.0,4.0,308.0
2022-02-02-16:40:50.184248,1.0,6.0,309.0
2022-02-02-16:40:50.185241,1.0,6.0,309.0
2022-02-02-16:40:50.186282,1.0,6.0,309.0
2022-02-02-16:40:50.186282,2.0,1.0,308.0
2022-02-02-16:40:50.187305,4.0,7.0,308.0
2022-02-02-16:40:50.188625,3.0,8.0,308.0
2022-02-02-16:40:50.188625,3.0,8.0,308.0
2022-02-02-16:40:50.189625,3.0,8.0,308.0
2022-02-02-16:40:50.190669,7.0,13.0,308.0
2022-02-02-16:40:50.191667,4.0,1.0,308.0
2022-02-02-16:40:50.192666,9.0,10.0,308.0
2022-02-02-16:40:50.193614,9.0,10.0,308.0
2022-02-02-16:40:50.194659,10.0,5.0,308.0
2022-02-02-16:40:50.195661,10.0,1.0,308.0
2022-02-02-16:40:50.196760,1.0,2.0,308.0
2022-02-02-16:40:50.196760,1.0,2.0,308.0
2022-02-02-16:40:50.197807,1.0,2.0,308.0
2022-02-02-16:40:50.198806,1.0,5.0,308.0
2022-02-02-16:40:50.199802,1.0,3.0,308.0
2022-02-02-16:40:50.200798,1.0,0.0,308.0
2022-02-02-16:40:50.201928,1.0,0.0,308.0
2022-02-02-16:40:50.201928,2.0,1.0,308.0
2022-02-02-16:40:50.202979,6.0,15.0,308.0
2022-02-02-16:40:50.203973,7.0,5.0,308.0
2022-02-02-16:40:50.204970,7.0,5.0,308.0
2022-02-02-16:40:50.206964,7.0,5.0,308.0
2022-02-02-16:40:50.206964,5.0,23.0,308.0
2022-02-02-16:40:50.207963,12.0,18.0,308.0
2022-02-02-16:40:50.208960,12.0,18.0,308.0
2022-02-02-16:40:50.209937,12.0,18.0,308.0
2022-02-02-16:40:50.210907,6.0,3.0,308.0
2022-02-02-16:40:50.211929,8.0,7.0,308.0
2022-02-02-16:40:50.212928,8.0,7.0,308.0
2022-02-02-16:40:50.213924,8.0,7.0,308.0
2022-02-02-16:40:50.214921,8.0,7.0,308.0
2022-02-02-16:40:50.215920,2.0,1.0,308.0
2022-02-02-16:40:50.216987,1.0,6.0,308.0
2022-02-02-16:40:50.216987,1.0,6.0,308.0
2022-02-02-16:40:50.218014,1.0,6.0,308.0
2022-02-02-16:40:50.219074,4.0,10.0,308.0
2022-02-02-16:40:50.219074,4.0,10.0,308.0
2022-02-02-16:40:50.220099,4.0,10.0,308.0
2022-02-02-16:40:50.221100,4.0,10.0,308.0
2022-02-02-16:40:50.222093,4.0,10.0,308.0
2022-02-02-16:40:50.223065,4.0,2.0,308.0
2022-02-02-16:40:50.224112,8.0,4.0,307.0
2022-02-02-16:40:50.225106,8.0,4.0,307.0
2022-02-02-16:40:50.226084,8.0,4.0,307.0
2022-02-02-16:40:50.227101,8.0,4.0,307.0
2022-02-02-16:40:50.228251,12.0,11.0,308.0
2022-02-02-16:40:50.228404,9.0,3.0,308.0
2022-02-02-16:40:50.228404,9.0,3.0,308.0
2022-02-02-16:40:50.229428,9.0,3.0,308.0
2022-02-02-16:40:50.230441,9.0,3.0,308.0
2022-02-02-16:40:50.231423,8.0,4.0,308.0
2022-02-02-16:40:50.232421,3.0,16.0,308.0
2022-02-02-16:40:50.233421,1.0,10.0,308.0
2022-02-02-16:40:50.234415,1.0,10.0,308.0
2022-02-02-16:40:50.235414,1.0,10.0,308.0
2022-02-02-16:40:50.236409,1.0,7.0,308.0
2022-02-02-16:40:50.237448,5.0,2.0,308.0
2022-02-02-16:40:50.238448,6.0,1.0,308.0
2022-02-02-16:40:50.239445,6.0,10.0,308.0
2022-02-02-16:40:50.239445,9.0,6.0,308.0
2022-02-02-16:40:50.240475,5.0,3.0,308.0
2022-02-02-16:40:50.241474,5.0,3.0,308.0
2022-02-02-16:40:50.242474,5.0,3.0,308.0
2022-02-02-16:40:50.243472,5.0,3.0,308.0
2022-02-02-16:40:50.244467,12.0,1.0,308.0
2022-02-02-16:40:50.245462,6.0,10.0,308.0
2022-02-02-16:40:50.246506,6.0,10.0,308.0
2022-02-02-16:40:50.246506,6.0,10.0,308.0
2022-02-02-16:40:50.247699,6.0,10.0,308.0
2022-02-02-16:40:50.247699,4.0,13.0,308.0
2022-02-02-16:40:50.248733,1.0,13.0,308.0
2022-02-02-16:40:50.249728,0.0,7.0,308.0
2022-02-02-16:40:50.250727,0.0,7.0,308.0
2022-02-02-16:40:50.251691,0.0,7.0,308.0
2022-02-02-16:40:50.252727,3.0,4.0,308.0
2022-02-02-16:40:50.253719,7.0,5.0,308.0
2022-02-02-16:40:50.254716,7.0,5.0,308.0
2022-02-02-16:40:50.255713,7.0,5.0,308.0
2022-02-02-16:40:50.256712,6.0,3.0,308.0
2022-02-02-16:40:50.257708,4.0,1.0,308.0
2022-02-02-16:40:50.258705,8.0,8.0,308.0
2022-02-02-16:40:50.259704,8.0,8.0,308.0
2022-02-02-16:40:50.260667,7.0,9.0,308.0
2022-02-02-16:40:50.261702,9.0,2.0,308.0
2022-02-02-16:40:50.262715,10.0,1.0,308.0
2022-02-02-16:40:50.263714,10.0,1.0,308.0
2022-02-02-16:40:50.264742,6.0,5.0,308.0
2022-02-02-16:40:50.265182,3.0,9.0,308.0
2022-02-02-16:40:50.265310,1.0,6.0,308.0
2022-02-02-16:40:50.265310,1.0,6.0,308.0
2022-02-02-16:40:50.266357,1.0,6.0,308.0
2022-02-02-16:40:50.267510,1.0,6.0,308.0
2022-02-02-16:40:50.267510,6.0,1.0,308.0
2022-02-02-16:40:50.268557,1.0,3.0,308.0
2022-02-02-16:40:50.269553,8.0,5.0,308.0
2022-02-02-16:40:50.270555,8.0,5.0,308.0
2022-02-02-16:40:50.271502,8.0,5.0,308.0
2022-02-02-16:40:50.273496,3.0,14.0,308.0
2022-02-02-16:40:50.273496,5.0,9.0,308.0
2022-02-02-16:40:50.274504,5.0,9.0,308.0
2022-02-02-16:40:50.275491,5.0,9.0,308.0
2022-02-02-16:40:50.276544,6.0,2.0,308.0
2022-02-02-16:40:50.277486,9.0,11.0,308.0
2022-02-02-16:40:50.278530,6.0,18.0,308.0
2022-02-02-16:40:50.279549,6.0,18.0,308.0
2022-02-02-16:40:50.280525,7.0,27.0,308.0
2022-02-02-16:40:50.281521,1.0,1.0,308.0
2022-02-02-16:40:50.282523,2.0,8.0,308.0
2022-02-02-16:40:50.283519,2.0,8.0,308.0
2022-02-02-16:40:50.284515,2.0,8.0,308.0
2022-02-02-16:40:50.285512,4.0,26.0,308.0
2022-02-02-16:40:50.286508,1.0,30.0,308.0
2022-02-02-16:40:50.287506,1.0,30.0,308.0
2022-02-02-16:40:50.288503,1.0,30.0,308.0
2022-02-02-16:40:50.289500,0.0,2.0,308.0
2022-02-02-16:40:50.290501,10.0,2.0,308.0
2022-02-02-16:40:50.291495,10.0,2.0,308.0
2022-02-02-16:40:50.292494,10.0,2.0,308.0
2022-02-02-16:40:50.293490,12.0,6.0,308.0
2022-02-02-16:40:50.294484,11.0,8.0,307.0
2022-02-02-16:40:50.294484,6.0,7.0,308.0
2022-02-02-16:40:50.295531,6.0,7.0,308.0
2022-02-02-16:40:50.296713,6.0,7.0,308.0
2022-02-02-16:40:50.296713,5.0,1.0,308.0
2022-02-02-16:40:50.297761,5.0,18.0,308.0
2022-02-02-16:40:50.298761,3.0,26.0,309.0
2022-02-02-16:40:50.299755,3.0,26.0,309.0
2022-02-02-16:40:50.300751,3.0,26.0,309.0
2022-02-02-16:40:50.301731,4.0,5.0,308.0
2022-02-02-16:40:50.302746,5.0,6.0,308.0
2022-02-02-16:40:50.303743,5.0,6.0,308.0
2022-02-02-16:40:50.304740,5.0,6.0,308.0
2022-02-02-16:40:50.306735,4.0,6.0,308.0
2022-02-02-16:40:50.306735,2.0,9.0,308.0
2022-02-02-16:40:50.307734,2.0,9.0,308.0
2022-02-02-16:40:50.308735,2.0,9.0,308.0
2022-02-02-16:40:50.309731,6.0,14.0,308.0
2022-02-02-16:40:50.310678,10.0,2.0,308.0
2022-02-02-16:40:50.311721,9.0,2.0,308.0
2022-02-02-16:40:50.312719,9.0,2.0,308.0
2022-02-02-16:40:50.313763,8.0,1.0,308.0
2022-02-02-16:40:50.314190,3.0,7.0,308.0
2022-02-02-16:40:50.314190,3.0,14.0,308.0
2022-02-02-16:40:50.315235,3.0,14.0,308.0
2022-02-02-16:40:50.316233,3.0,14.0,308.0
2022-02-02-16:40:50.317230,3.0,14.0,308.0
2022-02-02-16:40:50.318181,2.0,19.0,308.0
2022-02-02-16:40:50.319179,2.0,10.0,308.0
2022-02-02-16:40:50.320222,3.0,7.0,308.0
2022-02-02-16:40:50.321221,3.0,7.0,308.0
2022-02-02-16:40:50.322217,6.0,11.0,308.0
2022-02-02-16:40:50.323284,5.0,20.0,308.0
2022-02-02-16:40:50.323284,5.0,20.0,308.0
2022-02-02-16:40:50.324331,5.0,20.0,308.0
2022-02-02-16:40:50.325328,5.0,20.0,308.0
2022-02-02-16:40:50.326328,4.0,20.0,308.0
2022-02-02-16:40:50.327275,12.0,9.0,308.0
2022-02-02-16:40:50.328300,8.0,2.0,308.0
2022-02-02-16:40:50.329317,8.0,2.0,308.0
2022-02-02-16:40:50.330314,6.0,10.0,308.0
2022-02-02-16:40:50.331320,8.0,15.0,308.0
2022-02-02-16:40:50.332310,5.0,36.0,308.0
2022-02-02-16:40:50.333432,5.0,36.0,308.0
2022-02-02-16:40:50.333432,0.0,26.0,308.0
2022-02-02-16:40:50.334458,7.0,15.0,308.0
2022-02-02-16:40:50.335455,7.0,15.0,308.0
2022-02-02-16:40:50.336475,7.0,15.0,308.0
2022-02-02-16:40:50.337472,7.0,15.0,308.0
2022-02-02-16:40:50.338468,8.0,6.0,308.0
2022-02-02-16:40:50.339499,3.0,9.0,308.0
2022-02-02-16:40:50.339499,3.0,9.0,308.0
2022-02-02-16:40:50.341521,3.0,9.0,308.0
2022-02-02-16:40:50.341521,3.0,9.0,308.0
2022-02-02-16:40:50.342493,6.0,10.0,308.0
2022-02-02-16:40:50.343537,6.0,10.0,308.0
2022-02-02-16:40:50.344488,6.0,10.0,308.0
2022-02-02-16:40:50.345706,6.0,10.0,308.0
2022-02-02-16:40:50.345706,8.0,4.0,308.0
2022-02-02-16:40:50.346760,1.0,9.0,308.0
2022-02-02-16:40:50.347757,1.0,15.0,309.0
2022-02-02-16:40:50.348755,1.0,15.0,309.0
2022-02-02-16:40:50.349752,1.0,15.0,309.0
2022-02-02-16:40:50.350749,4.0,13.0,308.0
2022-02-02-16:40:50.351692,4.0,6.0,308.0
2022-02-02-16:40:50.352747,2.0,8.0,309.0
2022-02-02-16:40:50.353741,2.0,8.0,309.0
2022-02-02-16:40:50.354731,8.0,10.0,309.0
2022-02-02-16:40:50.355728,3.0,8.0,309.0
2022-02-02-16:40:50.356725,0.0,4.0,308.0
2022-02-02-16:40:50.357880,0.0,4.0,308.0
2022-02-02-16:40:50.357880,10.0,7.0,308.0
2022-02-02-16:40:50.358927,5.0,8.0,308.0
2022-02-02-16:40:50.359924,5.0,8.0,308.0
2022-02-02-16:40:50.360902,5.0,8.0,308.0
2022-02-02-16:40:50.361920,5.0,8.0,308.0
2022-02-02-16:40:50.362917,9.0,3.0,308.0
2022-02-02-16:40:50.363892,9.0,8.0,308.0
2022-02-02-16:40:50.364912,1.0,6.0,308.0
2022-02-02-16:40:50.365908,1.0,6.0,308.0
2022-02-02-16:40:50.366906,4.0,18.0,308.0
2022-02-02-16:40:50.367975,5.0,5.0,308.0
2022-02-02-16:40:50.367975,5.0,5.0,308.0
2022-02-02-16:40:50.369021,5.0,5.0,308.0
2022-02-02-16:40:50.370020,5.0,5.0,308.0
2022-02-02-16:40:50.371016,0.0,7.0,308.0
2022-02-02-16:40:50.372013,5.0,0.0,308.0
2022-02-02-16:40:50.373289,2.0,0.0,308.0
2022-02-02-16:40:50.373289,2.0,0.0,308.0
2022-02-02-16:40:50.375286,2.0,0.0,308.0
2022-02-02-16:40:50.375286,7.0,4.0,308.0
2022-02-02-16:40:50.376411,12.0,11.0,308.0
2022-02-02-16:40:50.376411,12.0,11.0,308.0
2022-02-02-16:40:50.377410,12.0,11.0,308.0
2022-02-02-16:40:50.378407,12.0,11.0,308.0
2022-02-02-16:40:50.379452,10.0,11.0,308.0
2022-02-02-16:40:50.380449,9.0,10.0,309.0
2022-02-02-16:40:50.381446,6.0,15.0,308.0
2022-02-02-16:40:50.382448,6.0,15.0,308.0
2022-02-02-16:40:50.383441,2.0,23.0,308.0
2022-02-02-16:40:50.384440,1.0,15.0,308.0
2022-02-02-16:40:50.385436,1.0,9.0,308.0
2022-02-02-16:40:50.386604,1.0,9.0,308.0
2022-02-02-16:40:50.386604,2.0,8.0,308.0
2022-02-02-16:40:50.387636,2.0,8.0,308.0
2022-02-02-16:40:50.388697,3.0,7.0,308.0
2022-02-02-16:40:50.388697,3.0,7.0,308.0
2022-02-02-16:40:50.389710,3.0,7.0,308.0
2022-02-02-16:40:50.390742,3.0,7.0,308.0
2022-02-02-16:40:50.391740,9.0,8.0,308.0
2022-02-02-16:40:50.392739,10.0,2.0,309.0
2022-02-02-16:40:50.393734,10.0,2.0,309.0
2022-02-02-16:40:50.394700,10.0,2.0,309.0
2022-02-02-16:40:50.395732,9.0,1.0,308.0
2022-02-02-16:40:50.396726,8.0,13.0,307.0
2022-02-02-16:40:50.397726,8.0,13.0,307.0
2022-02-02-16:40:50.398735,8.0,13.0,307.0
2022-02-02-16:40:50.399733,4.0,25.0,308.0
2022-02-02-16:40:50.400731,1.0,25.0,308.0
2022-02-02-16:40:50.401728,2.0,2.0,308.0
2022-02-02-16:40:50.402726,2.0,2.0,308.0
2022-02-02-16:40:50.403767,1.0,11.0,308.0
2022-02-02-16:40:50.404163,1.0,6.0,308.0
2022-02-02-16:40:50.404305,3.0,5.0,308.0
2022-02-02-16:40:50.404305,3.0,5.0,308.0
2022-02-02-16:40:50.405352,3.0,5.0,308.0
2022-02-02-16:40:50.406671,3.0,5.0,308.0
2022-02-02-16:40:50.407671,6.0,20.0,308.0
2022-02-02-16:40:50.407671,11.0,2.0,308.0
2022-02-02-16:40:50.408718,11.0,2.0,308.0
2022-02-02-16:40:50.409713,11.0,2.0,308.0
2022-02-02-16:40:50.410663,11.0,2.0,308.0
2022-02-02-16:40:50.411708,8.0,12.0,308.0
2022-02-02-16:40:50.412704,5.0,3.0,308.0
2022-02-02-16:40:50.413701,5.0,3.0,308.0
2022-02-02-16:40:50.414699,5.0,3.0,308.0
2022-02-02-16:40:50.415697,5.0,3.0,308.0
2022-02-02-16:40:50.416697,0.0,14.0,308.0
2022-02-02-16:40:50.417692,1.0,9.0,308.0
2022-02-02-16:40:50.418729,1.0,9.0,308.0
2022-02-02-16:40:50.418729,1.0,9.0,308.0
2022-02-02-16:40:50.419992,1.0,9.0,308.0
2022-02-02-16:40:50.419992,4.0,4.0,308.0
2022-02-02-16:40:50.421039,4.0,1.0,308.0
2022-02-02-16:40:50.422038,5.0,2.0,308.0
2022-02-02-16:40:50.422986,5.0,2.0,308.0
2022-02-02-16:40:50.424036,3.0,2.0,308.0
2022-02-02-16:40:50.425006,10.0,16.0,308.0
2022-02-02-16:40:50.426032,10.0,16.0,308.0
2022-02-02-16:40:50.427261,10.0,16.0,308.0
2022-02-02-16:40:50.427261,14.0,21.0,309.0
2022-02-02-16:40:50.428316,12.0,17.0,308.0
2022-02-02-16:40:50.429393,9.0,3.0,308.0
2022-02-02-16:40:50.429393,9.0,3.0,308.0
2022-02-02-16:40:50.430440,9.0,3.0,308.0
2022-02-02-16:40:50.431436,9.0,3.0,308.0
2022-02-02-16:40:50.432609,4.0,15.0,308.0
2022-02-02-16:40:50.432609,3.0,31.0,308.0
2022-02-02-16:40:50.433760,5.0,12.0,308.0
2022-02-02-16:40:50.433760,5.0,12.0,308.0
2022-02-02-16:40:50.434807,5.0,12.0,308.0
2022-02-02-16:40:50.435973,5.0,12.0,308.0
2022-02-02-16:40:50.435973,1.0,8.0,308.0
2022-02-02-16:40:50.437020,4.0,3.0,308.0
2022-02-02-16:40:50.438017,5.0,1.0,308.0
2022-02-02-16:40:50.439014,5.0,1.0,308.0
2022-02-02-16:40:50.440012,5.0,1.0,308.0
2022-02-02-16:40:50.441009,2.0,4.0,308.0
2022-02-02-16:40:50.442006,6.0,3.0,308.0
2022-02-02-16:40:50.443004,6.0,3.0,308.0
2022-02-02-16:40:50.444951,6.0,3.0,308.0
2022-02-02-16:40:50.444951,12.0,3.0,308.0
2022-02-02-16:40:50.445974,10.0,11.0,309.0
2022-02-02-16:40:50.446969,4.0,6.0,308.0
2022-02-02-16:40:50.447968,4.0,6.0,308.0
2022-02-02-16:40:50.449024,6.0,0.0,308.0
2022-02-02-16:40:50.449024,1.0,11.0,308.0
2022-02-02-16:40:50.450070,1.0,9.0,308.0
2022-02-02-16:40:50.451068,1.0,9.0,308.0
2022-02-02-16:40:50.452068,1.0,9.0,308.0
2022-02-02-16:40:50.453065,0.0,9.0,308.0
2022-02-02-16:40:50.454060,1.0,12.0,308.0
2022-02-02-16:40:50.455059,3.0,11.0,308.0
2022-02-02-16:40:50.456055,3.0,11.0,308.0
2022-02-02-16:40:50.457053,3.0,1.0,308.0
2022-02-02-16:40:50.458632,3.0,1.0,308.0
2022-02-02-16:40:50.458632,7.0,3.0,308.0
2022-02-02-16:40:50.459788,7.0,3.0,308.0
2022-02-02-16:40:50.460069,7.0,3.0,308.0
2022-02-02-16:40:50.460069,10.0,4.0,308.0
2022-02-02-16:40:50.461069,10.0,4.0,308.0
2022-02-02-16:40:50.462091,6.0,5.0,308.0
2022-02-02-16:40:50.463089,7.0,8.0,308.0
2022-02-02-16:40:50.464060,7.0,8.0,308.0
2022-02-02-16:40:50.465081,6.0,33.0,308.0
2022-02-02-16:40:50.466082,1.0,21.0,307.0
2022-02-02-16:40:50.467145,0.0,7.0,308.0
2022-02-02-16:40:50.467145,0.0,7.0,308.0
2022-02-02-16:40:50.468338,0.0,7.0,308.0
2022-02-02-16:40:50.468338,3.0,4.0,308.0
2022-02-02-16:40:50.469362,3.0,4.0,308.0
2022-02-02-16:40:50.470359,2.0,9.0,308.0
2022-02-02-16:40:50.471356,2.0,9.0,308.0
2022-02-02-16:40:50.472354,2.0,9.0,308.0
2022-02-02-16:40:50.473350,1.0,7.0,308.0
2022-02-02-16:40:50.474353,1.0,8.0,308.0
2022-02-02-16:40:50.475345,4.0,15.0,308.0
2022-02-02-16:40:50.477341,4.0,15.0,308.0
2022-02-02-16:40:50.477341,6.0,14.0,308.0
2022-02-02-16:40:50.478418,4.0,7.0,308.0
2022-02-02-16:40:50.478418,4.0,7.0,308.0
2022-02-02-16:40:50.479442,4.0,7.0,308.0
2022-02-02-16:40:50.480439,4.0,7.0,308.0
2022-02-02-16:40:50.481437,8.0,10.0,309.0
2022-02-02-16:40:50.482434,3.0,19.0,308.0
2022-02-02-16:40:50.483431,4.0,8.0,308.0
2022-02-02-16:40:50.484431,4.0,8.0,308.0
2022-02-02-16:40:50.485431,1.0,2.0,308.0
2022-02-02-16:40:50.486465,7.0,2.0,307.0
2022-02-02-16:40:50.486465,7.0,2.0,307.0
2022-02-02-16:40:50.487519,7.0,2.0,307.0
2022-02-02-16:40:50.488521,7.0,2.0,307.0
2022-02-02-16:40:50.489514,7.0,1.0,308.0
2022-02-02-16:40:50.490511,6.0,10.0,308.0
2022-02-02-16:40:50.491512,6.0,10.0,308.0
2022-02-02-16:40:50.492505,6.0,10.0,308.0
