# 
# 
# 
# 
# 
# 
# 
# 
# 
# 
# time,realtime,ref,inp,dis,state...
0.000000000000000000e+00,1.643394121487145185e+09,0.000000000000000000e+00,-8.004419172147617667e-01,0.000000000000000000e+00,-5.760938323097232194e-01
1.666666666666666644e-02,1.643394121489632607e+09,0.000000000000000000e+00,-5.760938323097232194e-01,0.000000000000000000e+00,-5.760938323097232194e-01
3.333333333333333287e-02,1.643394121491655111e+09,0.000000000000000000e+00,-8.004419172147617667e-01,0.000000000000000000e+00,-8.004419172147617667e-01
5.000000000000000278e-02,1.643394121511413336e+09,0.000000000000000000e+00,-8.004419172147617667e-01,0.000000000000000000e+00,-8.004419172147617667e-01
6.666666666666666574e-02,1.643394121526753426e+09,0.000000000000000000e+00,-7.924294856110102314e-01,0.000000000000000000e+00,-7.924294856110102314e-01
8.333333333333332871e-02,1.643394121542138577e+09,0.000000000000000000e+00,-7.683921907997561807e-01,0.000000000000000000e+00,-7.683921907997561807e-01
1.000000000000000056e-01,1.643394121561553001e+09,0.000000000000000000e+00,-7.283300327809991703e-01,0.000000000000000000e+00,-7.283300327809991703e-01
1.166666666666666685e-01,1.643394121578554153e+09,0.000000000000000000e+00,-6.722430115547397556e-01,0.000000000000000000e+00,-6.722430115547397556e-01
1.333333333333333315e-01,1.643394121596292496e+09,0.000000000000000000e+00,-6.241684219322314320e-01,0.000000000000000000e+00,-6.241684219322314320e-01
1.499999999999999944e-01,1.643394121611232281e+09,0.000000000000000000e+00,-5.760938323097232194e-01,0.000000000000000000e+00,-5.760938323097232194e-01
1.666666666666666574e-01,1.643394121630638599e+09,0.000000000000000000e+00,-5.360316742909665422e-01,0.000000000000000000e+00,-5.360316742909665422e-01
1.833333333333333204e-01,1.643394121644995928e+09,0.000000000000000000e+00,-5.119943794797122694e-01,0.000000000000000000e+00,-5.119943794797122694e-01
2.000000000000000111e-01,1.643394121662040472e+09,0.000000000000000000e+00,-5.039819478759610671e-01,0.000000000000000000e+00,-5.039819478759610671e-01
2.166666666666666741e-01,1.643394121680981636e+09,0.000000000000000000e+00,-4.959695162722094763e-01,0.000000000000000000e+00,-4.959695162722094763e-01
2.333333333333333370e-01,1.643394121697920561e+09,0.000000000000000000e+00,-4.959695162722094763e-01,0.000000000000000000e+00,-4.959695162722094763e-01
2.500000000000000000e-01,1.643394121714891195e+09,0.000000000000000000e+00,-5.039819478759610671e-01,0.000000000000000000e+00,-5.039819478759610671e-01
2.666666666666666630e-01,1.643394121731381416e+09,0.000000000000000000e+00,-5.280192426872150069e-01,0.000000000000000000e+00,-5.280192426872150069e-01
2.833333333333333259e-01,1.643394121747199059e+09,0.000000000000000000e+00,-5.360316742909665422e-01,0.000000000000000000e+00,-5.360316742909665422e-01
2.999999999999999889e-01,1.643394121763156176e+09,0.000000000000000000e+00,-5.440441058947177444e-01,0.000000000000000000e+00,-5.440441058947177444e-01
3.166666666666666519e-01,1.643394121779114485e+09,0.000000000000000000e+00,-5.520565374984692797e-01,0.000000000000000000e+00,-5.520565374984692797e-01
3.333333333333333148e-01,1.643394121797464848e+09,0.000000000000000000e+00,-5.520565374984692797e-01,0.000000000000000000e+00,-5.520565374984692797e-01
3.499999999999999778e-01,1.643394121815419912e+09,0.000000000000000000e+00,-5.520565374984692797e-01,0.000000000000000000e+00,-5.520565374984692797e-01
3.666666666666666408e-01,1.643394121832567930e+09,0.000000000000000000e+00,-5.520565374984692797e-01,0.000000000000000000e+00,-5.520565374984692797e-01
3.833333333333333037e-01,1.643394121848676205e+09,0.000000000000000000e+00,-5.520565374984692797e-01,0.000000000000000000e+00,-5.520565374984692797e-01
4.000000000000000222e-01,1.643394121867662430e+09,0.000000000000000000e+00,-5.280192426872150069e-01,0.000000000000000000e+00,-5.280192426872150069e-01
4.166666666666666852e-01,1.643394121885080814e+09,0.000000000000000000e+00,-4.879570846684582741e-01,0.000000000000000000e+00,-4.879570846684582741e-01
4.333333333333333481e-01,1.643394121898797989e+09,0.000000000000000000e+00,-4.559073582534527436e-01,0.000000000000000000e+00,-4.559073582534527436e-01
4.500000000000000111e-01,1.643394121916757107e+09,0.000000000000000000e+00,-4.158452002346960663e-01,0.000000000000000000e+00,-4.158452002346960663e-01
4.666666666666666741e-01,1.643394121933581114e+09,0.000000000000000000e+00,-3.918079054234417935e-01,0.000000000000000000e+00,-3.918079054234417935e-01
4.833333333333333370e-01,1.643394121950071096e+09,0.000000000000000000e+00,-3.597581790084362630e-01,0.000000000000000000e+00,-3.597581790084362630e-01
5.000000000000000000e-01,1.643394121970016718e+09,0.000000000000000000e+00,-3.517457474046850607e-01,0.000000000000000000e+00,-3.517457474046850607e-01
5.166666666666666075e-01,1.643394121985974073e+09,0.000000000000000000e+00,-3.357208841971823232e-01,0.000000000000000000e+00,-3.357208841971823232e-01
5.333333333333333259e-01,1.643394122001931429e+09,0.000000000000000000e+00,-3.437333158009335254e-01,0.000000000000000000e+00,-3.437333158009335254e-01
5.500000000000000444e-01,1.643394122018885374e+09,0.000000000000000000e+00,-3.357208841971823232e-01,0.000000000000000000e+00,-3.357208841971823232e-01
5.666666666666666519e-01,1.643394122034587860e+09,0.000000000000000000e+00,-3.357208841971823232e-01,0.000000000000000000e+00,-3.357208841971823232e-01
5.833333333333333703e-01,1.643394122052697659e+09,0.000000000000000000e+00,-3.357208841971823232e-01,0.000000000000000000e+00,-3.357208841971823232e-01
5.999999999999999778e-01,1.643394122070654631e+09,0.000000000000000000e+00,-3.357208841971823232e-01,0.000000000000000000e+00,-3.357208841971823232e-01
6.166666666666666963e-01,1.643394122086578846e+09,0.000000000000000000e+00,-3.357208841971823232e-01,0.000000000000000000e+00,-3.357208841971823232e-01
6.333333333333333037e-01,1.643394122104586840e+09,0.000000000000000000e+00,-3.277084525934307879e-01,0.000000000000000000e+00,-3.277084525934307879e-01
6.500000000000000222e-01,1.643394122121513367e+09,0.000000000000000000e+00,-3.196960209896795302e-01,0.000000000000000000e+00,-3.196960209896795302e-01
6.666666666666666297e-01,1.643394122136475801e+09,0.000000000000000000e+00,-3.196960209896795302e-01,0.000000000000000000e+00,-3.196960209896795302e-01
6.833333333333333481e-01,1.643394122153948784e+09,0.000000000000000000e+00,-3.196960209896795302e-01,0.000000000000000000e+00,-3.196960209896795302e-01
6.999999999999999556e-01,1.643394122170136452e+09,0.000000000000000000e+00,-3.196960209896795302e-01,0.000000000000000000e+00,-3.196960209896795302e-01
7.166666666666666741e-01,1.643394122187446117e+09,0.000000000000000000e+00,-3.036711577821767927e-01,0.000000000000000000e+00,-3.036711577821767927e-01
7.333333333333332815e-01,1.643394122206393719e+09,0.000000000000000000e+00,-2.956587261784252574e-01,0.000000000000000000e+00,-2.956587261784252574e-01
7.500000000000000000e-01,1.643394122219360828e+09,0.000000000000000000e+00,-2.796338629709225199e-01,0.000000000000000000e+00,-2.796338629709225199e-01
7.666666666666666075e-01,1.643394122240761518e+09,0.000000000000000000e+00,-2.475841365559170448e-01,0.000000000000000000e+00,-2.475841365559170448e-01
7.833333333333333259e-01,1.643394122256388903e+09,0.000000000000000000e+00,-2.235468417446630496e-01,0.000000000000000000e+00,-2.235468417446630496e-01
8.000000000000000444e-01,1.643394122271361828e+09,0.000000000000000000e+00,-1.995095469334087768e-01,0.000000000000000000e+00,-1.995095469334087768e-01
8.166666666666666519e-01,1.643394122291309357e+09,0.000000000000000000e+00,-1.514349573109008418e-01,0.000000000000000000e+00,-1.514349573109008418e-01
8.333333333333333703e-01,1.643394122306267500e+09,0.000000000000000000e+00,-1.273976624996465690e-01,0.000000000000000000e+00,-1.273976624996465690e-01
8.499999999999999778e-01,1.643394122323352575e+09,0.000000000000000000e+00,-8.733550448088985008e-02,0.000000000000000000e+00,-8.733550448088985008e-02
8.666666666666666963e-01,1.643394122341302395e+09,0.000000000000000000e+00,-7.131064127338709868e-02,0.000000000000000000e+00,-7.131064127338709868e-02
8.833333333333333037e-01,1.643394122358257294e+09,0.000000000000000000e+00,-4.727334646213282587e-02,0.000000000000000000e+00,-4.727334646213282587e-02
9.000000000000000222e-01,1.643394122375211954e+09,0.000000000000000000e+00,-3.124848325463007448e-02,0.000000000000000000e+00,-3.124848325463007448e-02
9.166666666666666297e-01,1.643394122392166615e+09,0.000000000000000000e+00,-3.124848325463007448e-02,0.000000000000000000e+00,-3.124848325463007448e-02
9.333333333333333481e-01,1.643394122409120798e+09,0.000000000000000000e+00,-3.124848325463007448e-02,0.000000000000000000e+00,-3.124848325463007448e-02
9.499999999999999556e-01,1.643394122426108599e+09,0.000000000000000000e+00,-3.124848325463007448e-02,0.000000000000000000e+00,-3.124848325463007448e-02
9.666666666666666741e-01,1.643394122442154408e+09,0.000000000000000000e+00,-3.124848325463007448e-02,0.000000000000000000e+00,-3.124848325463007448e-02
9.833333333333332815e-01,1.643394122459124088e+09,0.000000000000000000e+00,-3.124848325463007448e-02,0.000000000000000000e+00,-3.124848325463007448e-02
1.000000000000000000e+00,1.643394122476140022e+09,0.000000000000000000e+00,-3.124848325463007448e-02,0.000000000000000000e+00,-3.124848325463007448e-02
1.016666666666666607e+00,1.643394122495091677e+09,0.000000000000000000e+00,-3.124848325463007448e-02,0.000000000000000000e+00,-3.124848325463007448e-02
1.033333333333333215e+00,1.643394122511071682e+09,0.000000000000000000e+00,-3.124848325463007448e-02,0.000000000000000000e+00,-3.124848325463007448e-02
1.050000000000000044e+00,1.643394122529269218e+09,0.000000000000000000e+00,-3.124848325463007448e-02,0.000000000000000000e+00,-3.124848325463007448e-02
1.066666666666666652e+00,1.643394122544671774e+09,0.000000000000000000e+00,-3.124848325463007448e-02,0.000000000000000000e+00,-3.124848325463007448e-02
1.083333333333333259e+00,1.643394122564172983e+09,0.000000000000000000e+00,-3.124848325463007448e-02,0.000000000000000000e+00,-3.124848325463007448e-02
1.100000000000000089e+00,1.643394122581328392e+09,0.000000000000000000e+00,-3.124848325463007448e-02,0.000000000000000000e+00,-3.124848325463007448e-02
1.116666666666666696e+00,1.643394122596661329e+09,0.000000000000000000e+00,-3.124848325463007448e-02,0.000000000000000000e+00,-3.124848325463007448e-02
1.133333333333333304e+00,1.643394122615798712e+09,0.000000000000000000e+00,-3.124848325463007448e-02,0.000000000000000000e+00,-3.124848325463007448e-02
1.149999999999999911e+00,1.643394122630038500e+09,0.000000000000000000e+00,-3.124848325463007448e-02,0.000000000000000000e+00,-3.124848325463007448e-02
1.166666666666666741e+00,1.643394122648384094e+09,0.000000000000000000e+00,-3.124848325463007448e-02,0.000000000000000000e+00,-3.124848325463007448e-02
1.183333333333333348e+00,1.643394122666327000e+09,0.000000000000000000e+00,-3.124848325463007448e-02,0.000000000000000000e+00,-3.124848325463007448e-02
1.199999999999999956e+00,1.643394122682927608e+09,0.000000000000000000e+00,-3.124848325463007448e-02,0.000000000000000000e+00,-3.124848325463007448e-02
1.216666666666666563e+00,1.643394122701276064e+09,0.000000000000000000e+00,-3.124848325463007448e-02,0.000000000000000000e+00,-3.124848325463007448e-02
1.233333333333333393e+00,1.643394122718724012e+09,0.000000000000000000e+00,-3.124848325463007448e-02,0.000000000000000000e+00,-3.124848325463007448e-02
1.250000000000000000e+00,1.643394122735843897e+09,0.000000000000000000e+00,-3.124848325463007448e-02,0.000000000000000000e+00,-3.124848325463007448e-02
1.266666666666666607e+00,1.643394122750677586e+09,0.000000000000000000e+00,-3.124848325463007448e-02,0.000000000000000000e+00,-3.124848325463007448e-02
1.283333333333333215e+00,1.643394122768596888e+09,0.000000000000000000e+00,-2.323605165087885144e-02,0.000000000000000000e+00,-2.323605165087885144e-02
1.300000000000000044e+00,1.643394122786523342e+09,0.000000000000000000e+00,-1.522362004712732655e-02,0.000000000000000000e+00,-1.522362004712732655e-02
1.316666666666666652e+00,1.643394122804510832e+09,0.000000000000000000e+00,-1.522362004712732655e-02,0.000000000000000000e+00,-1.522362004712732655e-02
1.333333333333333259e+00,1.643394122820479393e+09,0.000000000000000000e+00,-7.211188443376101778e-03,0.000000000000000000e+00,-7.211188443376101778e-03
1.350000000000000089e+00,1.643394122837413311e+09,0.000000000000000000e+00,-7.211188443376101778e-03,0.000000000000000000e+00,-7.211188443376101778e-03
1.366666666666666696e+00,1.643394122854222536e+09,0.000000000000000000e+00,8.012431603754229968e-04,0.000000000000000000e+00,8.012431603754229968e-04
1.383333333333333304e+00,1.643394122869607687e+09,0.000000000000000000e+00,8.813674764126647881e-03,0.000000000000000000e+00,8.813674764126647881e-03
1.399999999999999911e+00,1.643394122887243032e+09,0.000000000000000000e+00,8.813674764126647881e-03,0.000000000000000000e+00,8.813674764126647881e-03
1.416666666666666741e+00,1.643394122903221130e+09,0.000000000000000000e+00,8.813674764126647881e-03,0.000000000000000000e+00,8.813674764126647881e-03
1.433333333333333348e+00,1.643394122920173407e+09,0.000000000000000000e+00,8.813674764126647881e-03,0.000000000000000000e+00,8.813674764126647881e-03
1.449999999999999956e+00,1.643394122938079357e+09,0.000000000000000000e+00,8.813674764126647881e-03,0.000000000000000000e+00,8.813674764126647881e-03
