# 
# 
# 
# 
# 
# 
# 
# 
# 
# 
# time,realtime,ref,inp,inp0,inp1,dis,state...
0.000000000000000000e+00,1.643394123091667891e+09,0.000000000000000000e+00,8.813674764126647881e-03,0.000000000000000000e+00,3.525469905650659153e-02,-0.000000000000000000e+00,0.000000000000000000e+00,0.000000000000000000e+00
1.666666666666666644e-02,1.643394123094660044e+09,1.294841934427322557e-06,8.813674764126647881e-03,0.000000000000000000e+00,3.525469905650659153e-02,0.000000000000000000e+00,1.217349156190987918e-06,1.456772302459197774e-04
3.333333333333333287e-02,1.643394123099673748e+09,5.112353979204503813e-06,1.682610636787787092e-02,0.000000000000000000e+00,6.730442547151148369e-02,-1.773857567846165578e-05,5.946762128242595547e-06,4.210872804771916044e-04
5.000000000000000278e-02,1.643394123115603685e+09,1.139638837297105511e-05,8.813674764126647881e-03,0.000000000000000000e+00,3.525469905650659153e-02,-7.210426321789717137e-05,1.411411276361657045e-05,5.586127715236301368e-04
6.666666666666666574e-02,1.643394123133582115e+09,2.015514073703772877e-05,8.813674764126647881e-03,0.000000000000000000e+00,3.525469905650659153e-02,-1.636304361569794062e-04,2.454191818631132625e-05,6.923523715670965636e-04
8.333333333333332871e-02,1.643394123148514748e+09,3.146635026744819741e-05,8.813674764126647881e-03,0.000000000000000000e+00,3.525469905650659153e-02,-2.912779262733523953e-04,3.716261402774635367e-05,8.217716230232164623e-04
1.000000000000000056e-01,1.643394123164471865e+09,4.548088089552672071e-05,1.682610636787787092e-02,0.000000000000000000e+00,6.730442547151148369e-02,-4.524798169929855141e-04,5.300683770736382448e-05,1.078821175191680380e-03
1.166666666666666685e-01,1.643394123183422089e+09,6.242460143184579721e-05,1.682610636787787092e-02,0.000000000000000000e+00,6.730442547151148369e-02,-6.432148309123226961e-04,7.307337236208938760e-05,1.328469499486380732e-03
1.333333333333333315e-01,1.643394123202371597e+09,8.259851020780753224e-05,8.813674764126647881e-03,0.000000000000000000e+00,3.525469905650659153e-02,-8.581079780549758645e-04,9.612986867081620113e-05,1.438005782945515074e-03
1.499999999999999944e-01,1.643394123216333628e+09,1.063770782995606572e-04,1.682610636787787092e-02,0.000000000000000000e+00,6.730442547151148369e-02,-1.090556739527486678e-03,1.220714156098979685e-04,1.674323396478939654e-03
1.666666666666666574e-01,1.643394123239272356e+09,1.342048146412924030e-04,8.813674764126647881e-03,0.000000000000000000e+00,3.525469905650659153e-02,-1.332880692822974601e-03,1.507787981780820178e-04,1.770295915099150174e-03
1.833333333333333204e-01,1.643394123252262592e+09,1.665910857778818454e-04,8.813674764126647881e-03,0.000000000000000000e+00,3.525469905650659153e-02,-1.576492144805931002e-03,1.810388192158072617e-04,1.860655604383436865e-03
2.000000000000000111e-01,1.643394123268219948e+09,2.041032522336636099e-04,8.813674764126647881e-03,0.000000000000000000e+00,3.525469905650659153e-02,-1.812085030718162777e-03,2.127598143426101909e-04,1.945627771480108650e-03
2.166666666666666741e-01,1.643394123283207655e+09,2.473582120482537244e-04,8.813674764126647881e-03,0.000000000000000000e+00,3.525469905650659153e-02,-2.029839066310110476e-03,2.458551995601906482e-04,2.025596314559470652e-03
2.333333333333333370e-01,1.643394123300156355e+09,2.970124695222229488e-04,1.682610636787787092e-02,0.000000000000000000e+00,6.730442547151148369e-02,-2.219635908925613344e-03,2.813528147504991222e-04,2.233539873685033272e-03
2.500000000000000000e-01,1.643394123320056200e+09,3.537508732076704568e-04,1.682610636787787092e-02,0.000000000000000000e+00,6.730442547151148369e-02,-2.371283895079259046e-03,3.202664889625738667e-04,2.435539907352935428e-03
2.666666666666666630e-01,1.643394123336013079e+09,4.182741912728124762e-04,1.682610636787787092e-02,0.000000000000000000e+00,6.730442547151148369e-02,-2.474747779280995867e-03,3.625046395736931438e-04,2.632491066551763924e-03
2.833333333333333259e-01,1.643394123352967739e+09,4.912857141911033346e-04,8.813674764126647881e-03,0.000000000000000000e+00,3.525469905650659153e-02,-2.520379803558496327e-03,4.068851227433664198e-04,2.692998832724893214e-03
2.999999999999999889e-01,1.643394123368925095e+09,5.734770939093145406e-04,8.813674764126647881e-03,0.000000000000000000e+00,3.525469905650659153e-02,-2.499148380714649124e-03,4.522686438144534913e-04,2.752857418044006143e-03
3.166666666666666519e-01,1.643394123385881186e+09,6.655136449252004385e-04,8.813674764126647881e-03,0.000000000000000000e+00,3.525469905650659153e-02,-2.402860677662065503e-03,4.986548395821108247e-04,2.813318123717425175e-03
3.333333333333333148e-01,1.643394123402869225e+09,7.680193457827739351e-04,1.682610636787787092e-02,0.000000000000000000e+00,6.730442547151148369e-02,-2.224375438430150047e-03,5.471716964362071485e-04,3.008163449020790931e-03
3.499999999999999778e-01,1.643394123420819998e+09,8.815617891439951571e-04,1.682610636787787092e-02,0.000000000000000000e+00,6.730442547151148369e-02,-1.957802489273826989e-03,5.989458824338894476e-04,3.204194327666509429e-03
3.666666666666666408e-01,1.643394123436787844e+09,1.006637334638675390e-03,8.813674764126647881e-03,0.000000000000000000e+00,3.525469905650659153e-02,-1.598685519758251492e-03,6.529030942234973107e-04,3.270486936616374702e-03
3.833333333333333037e-01,1.643394123453734398e+09,1.143656720998047997e-03,8.813674764126647881e-03,0.000000000000000000e+00,3.525469905650659153e-02,-1.144164932192232075e-03,7.080188050710572740e-04,3.343196389634388224e-03
4.000000000000000222e-01,1.643394123469684839e+09,1.292931392462056545e-03,8.813674764126647881e-03,0.000000000000000000e+00,3.525469905650659153e-02,-5.931177952002184917e-04,7.644124083751713651e-04,3.423812069145714797e-03
4.166666666666666852e-01,1.643394123488266706e+09,1.454660789089377371e-03,8.813674764126647881e-03,0.000000000000000000e+00,3.525469905650659153e-02,5.372777712964165321e-05,8.222278142931359855e-04,3.513786705582021708e-03
4.333333333333333481e-01,1.643394123504722357e+09,1.628920841420459847e-03,8.813674764126647881e-03,0.000000000000000000e+00,3.525469905650659153e-02,7.937061744208063910e-04,8.816325763288215041e-04,3.614504959188793651e-03
4.500000000000000111e-01,1.643394123521677732e+09,1.815653897029068185e-03,1.682610636787787092e-02,0.000000000000000000e+00,6.730442547151148369e-02,1.622157761434403532e-03,9.439231718668307123e-04,3.859685432472655629e-03
4.666666666666666741e-01,1.643394123539648771e+09,2.014660289982761910e-03,1.682610636787787092e-02,0.000000000000000000e+00,6.730442547151148369e-02,2.532403874553463847e-03,1.010391967824260211e-03,4.115858473889081638e-03
4.833333333333333370e-01,1.643394123555553913e+09,2.225591744304879303e-03,8.813674764126647881e-03,0.000000000000000000e+00,3.525469905650659153e-02,3.515754528432448681e-03,1.080124071555554899e-03,4.251616858367105421e-03
5.000000000000000000e-01,1.643394123573262691e+09,2.447946779427969538e-03,1.682610636787787092e-02,0.000000000000000000e+00,6.730442547151148369e-02,4.561549578565910271e-03,1.153351190797574947e-03,4.534850671565815103e-03
5.166666666666666075e-01,1.643394123589533329e+09,2.681068259636125092e-03,1.682610636787787092e-02,0.000000000000000000e+00,6.730442547151148369e-02,5.657233629755206543e-03,1.231411089625167495e-03,4.831513106032107527e-03
5.333333333333333259e-01,1.643394123605382681e+09,2.924143200940586360e-03,1.682610636787787092e-02,0.000000000000000000e+00,6.730442547151148369e-02,6.788464513734176857e-03,1.314530633371203744e-03,5.141969743646271872e-03
5.500000000000000444e-01,1.643394123623609781e+09,3.176204918087828163e-03,1.682610636787787092e-02,0.000000000000000000e+00,6.730442547151148369e-02,7.939254687218472856e-03,1.402940521698086080e-03,5.466315872904328917e-03
5.666666666666666519e-01,1.643394123639348507e+09,3.436137561866301014e-03,8.813674764126647881e-03,0.000000000000000000e+00,3.525469905650659153e-02,9.092144430155305393e-03,1.495763936652193954e-03,5.671922777854920480e-03
5.833333333333333703e-01,1.643394123661263943e+09,3.702683062990949278e-03,1.682610636787787092e-02,0.000000000000000000e+00,6.730442547151148369e-02,1.022840525881789191e-02,1.593249356790873679e-03,6.025345884827836528e-03
5.999999999999999778e-01,1.643394123686197758e+09,3.974450464061697087e-03,8.813674764126647881e-03,0.000000000000000000e+00,3.525469905650659153e-02,1.132827151544544241e-02,1.695621580094969910e-03,6.258672766183274658e-03
6.166666666666666963e-01,1.643394123706145287e+09,4.249927585890580541e-03,1.682610636787787092e-02,0.000000000000000000e+00,6.730442547151148369e-02,1.237119766113842223e-02,1.803101088060429921e-03,6.637814992034752649e-03
6.333333333333333037e-01,1.643394123722101688e+09,4.527494939360237128e-03,8.813674764126647881e-03,0.000000000000000000e+00,3.525469905650659153e-02,1.333613838729895938e-02,1.915873862853491143e-03,6.894205769765451505e-03
6.500000000000000222e-01,1.643394123741053104e+09,4.805441759409132506e-03,1.682610636787787092e-02,0.000000000000000000e+00,6.730442547151148369e-02,1.420184827846728871e-02,2.034110657786460715e-03,7.293101552271567638e-03
6.666666666666666297e-01,1.643394123759003401e+09,5.081984004229236213e-03,8.813674764126647881e-03,0.000000000000000000e+00,3.525469905650659153e-02,1.494719741109188683e-02,2.157936887019704705e-03,7.565289859291965922e-03
6.833333333333333481e-01,1.643394123770971298e+09,5.355284130795683398e-03,1.682610636787787092e-02,0.000000000000000000e+00,6.730442547151148369e-02,1.555149896338672323e-02,2.287452140734857076e-03,7.975401361097889455e-03
6.999999999999999556e-01,1.643394123790917397e+09,5.623472427896261845e-03,1.682610636787787092e-02,0.000000000000000000e+00,6.730442547151148369e-02,1.599484464539767045e-02,2.423807176468327409e-03,8.386062175585677625e-03
7.166666666666666741e-01,1.643394123806874752e+09,5.884669660341878758e-03,1.682610636787787092e-02,0.000000000000000000e+00,6.730442547151148369e-02,1.625844353968821168e-02,2.566986246844130473e-03,8.794292270335976255e-03
7.333333333333332815e-01,1.643394123823829412e+09,6.137010753440037825e-03,8.813674764126647881e-03,0.000000000000000000e+00,3.525469905650659153e-02,1.632495977514480251e-02,2.715815273392604891e-03,9.064440486108693226e-03
7.500000000000000000e-01,1.643394123841781378e+09,6.378669225491497008e-03,1.682610636787787092e-02,0.000000000000000000e+00,6.730442547151148369e-02,1.617884434222936069e-02,2.870195956712180262e-03,9.460142314624237631e-03
7.666666666666666075e-01,1.643394123858769894e+09,6.607882058376124065e-03,8.813674764126647881e-03,0.000000000000000000e+00,3.525469905650659153e-02,1.580665629992789381e-02,3.029958928123819683e-03,9.710718194280173673e-03
7.833333333333333259e-01,1.643394123874695063e+09,6.822974682533628453e-03,1.682610636787787092e-02,0.000000000000000000e+00,6.730442547151148369e-02,1.519736862440420298e-02,3.194886080464185308e-03,1.007951562514450977e-02
8.000000000000000444e-01,1.643394123892646790e+09,7.022385743075621779e-03,1.682610636787787092e-02,0.000000000000000000e+00,6.730442547151148369e-02,1.434265400806787431e-02,3.365790864557833325e-03,1.042809018064995777e-02
8.166666666666666519e-01,1.643394123909600973e+09,7.204691308591752892e-03,8.813674764126647881e-03,0.000000000000000000e+00,3.525469905650659153e-02,1.323714603584705968e-02,3.541197704921214551e-03,1.062019702028613871e-02
8.333333333333333703e-01,1.643394123926606178e+09,7.368628183581546996e-03,8.813674764126647881e-03,0.000000000000000000e+00,3.525469905650659153e-02,1.187867134268193701e-02,3.719592158850192846e-03,1.078667500147063689e-02
8.499999999999999778e-01,1.643394123942903757e+09,7.513115989444577383e-03,1.682610636787787092e-02,0.000000000000000000e+00,6.730442547151148369e-02,1.026844859170880295e-02,3.901622528058347472e-03,1.105622054825559399e-02
8.666666666666666963e-01,1.643394123961356401e+09,7.637277687620939830e-03,1.682610636787787092e-02,0.000000000000000000e+00,6.730442547151148369e-02,8.411250404687717688e-03,4.087851576140554520e-03,1.129061411304948040e-02
8.833333333333333037e-01,1.643394123976411581e+09,7.740458231757168552e-03,1.682610636787787092e-02,0.000000000000000000e+00,6.730442547151148369e-02,6.315524722663866559e-03,4.277665346402960075e-03,1.148649419429610338e-02
9.000000000000000222e-01,1.643394123991370201e+09,7.822241053581769840e-03,8.813674764126647881e-03,0.000000000000000000e+00,3.525469905650659153e-02,3.993472472719301718e-03,4.469289325565099606e-03,1.150832266908139584e-02
9.166666666666666297e-01,1.643394124011835098e+09,7.882462109348679219e-03,1.682610636787787092e-02,0.000000000000000000e+00,6.730442547151148369e-02,1.461078862399322080e-03,4.662031003262532246e-03,1.162036741188858351e-02
9.333333333333333481e-01,1.643394124026134491e+09,7.921221240024999000e-03,1.682610636787787092e-02,0.000000000000000000e+00,6.730442547151148369e-02,-1.261903887181382812e-03,4.856248517928239000e-03,1.168555327190115220e-02
9.499999999999999556e-01,1.643394124042836189e+09,7.938890628580982933e-03,8.813674764126647881e-03,0.000000000000000000e+00,3.525469905650659153e-02,-4.152024030170101479e-03,5.050037594203325708e-03,1.156945837452534077e-02
9.666666666666666741e-01,1.643394124058643341e+09,7.936120171447555438e-03,8.813674764126647881e-03,0.000000000000000000e+00,3.525469905650659153e-02,-7.182249105287106215e-03,5.241489254407932438e-03,1.140519714196805943e-02
9.833333333333332815e-01,1.643394124077003002e+09,7.913839618051613997e-03,8.813674764126647881e-03,0.000000000000000000e+00,3.525469905650659153e-02,-1.032213657412323939e-02,5.429792232422744371e-03,1.119175313378663848e-02
1.000000000000000000e+00,1.643394124096307993e+09,7.873257371883216754e-03,1.682610636787787092e-02,0.000000000000000000e+00,6.730442547151148369e-02,-1.353805618508928908e-02,5.615229787923876545e-03,1.106111641466531528e-02
1.016666666666666607e+00,1.643394124111683369e+09,7.815855888311089641e-03,1.682610636787787092e-02,0.000000000000000000e+00,6.730442547151148369e-02,-1.679346333254165546e-02,5.798058469922254786e-03,1.087883178325587362e-02
1.033333333333333215e+00,1.643394124128698826e+09,7.743383647825321549e-03,1.682610636787787092e-02,0.000000000000000000e+00,6.730442547151148369e-02,-2.004922204498419541e-02,5.977424564956828126e-03,1.064574709360286038e-02
1.050000000000000044e+00,1.643394124148681641e+09,7.657843727999146324e-03,1.682610636787787092e-02,0.000000000000000000e+00,6.730442547151148369e-02,-2.326397559915155400e-02,6.152494085572518361e-03,1.036337975246594267e-02
1.066666666666666652e+00,1.643394124164350986e+09,7.561479042650872708e-03,1.682610636787787092e-02,0.000000000000000000e+00,6.730442547151148369e-02,-2.639456212540913435e-02,6.322464086380897956e-03,1.003393548903204133e-02
1.083333333333333259e+00,1.643394124183312416e+09,7.456754361861665965e-03,8.813674764126647881e-03,0.000000000000000000e+00,3.525469905650659153e-02,-2.939647195150327935e-02,6.485467546137298547e-03,9.527885409486029980e-03
1.100000000000000089e+00,1.643394124197969198e+09,7.346335271062598427e-03,1.682610636787787092e-02,0.000000000000000000e+00,6.730442547151148369e-02,-3.222434283352134526e-02,6.640822827904589720e-03,9.115892853291347742e-03
1.116666666666666696e+00,1.643394124216157198e+09,7.233064270743057300e-03,8.813674764126647881e-03,0.000000000000000000e+00,3.525469905650659153e-02,-3.483248865214345902e-02,6.787901552233129715e-03,8.535167230829194054e-03
1.133333333333333304e+00,1.643394124233466148e+09,7.119934259853185482e-03,8.813674764126647881e-03,0.000000000000000000e+00,3.525469905650659153e-02,-3.717545661590827138e-02,6.925058114395810961e-03,7.925314304470151491e-03
1.149999999999999911e+00,1.643394124247148037e+09,7.010059685092456631e-03,8.813674764126647881e-03,0.000000000000000000e+00,3.525469905650659153e-02,-3.920860751804733368e-02,7.051853874492575863e-03,7.291936331808041710e-03
1.166666666666666741e+00,1.643394124266963243e+09,6.906645674431309730e-03,8.813674764126647881e-03,0.000000000000000000e+00,3.525469905650659153e-02,-4.088871314593170436e-02,7.167948760498946310e-03,6.641257472771586873e-03
1.183333333333333348e+00,1.643394124284721851e+09,6.812955505869581346e-03,1.682610636787787092e-02,0.000000000000000000e+00,6.730442547151148369e-02,-4.217456454840705360e-02,7.274217949557158953e-03,6.112513980704554865e-03
1.199999999999999956e+00,1.643394124299540997e+09,6.732276791097135428e-03,1.682610636787787092e-02,0.000000000000000000e+00,6.730442547151148369e-02,-4.302758453188065824e-02,7.371629957850123205e-03,5.578410669678211115e-03
1.216666666666666563e+00,1.643394124318487167e+09,6.667886777934948703e-03,1.682610636787787092e-02,0.000000000000000000e+00,6.730442547151148369e-02,-4.341243748606286867e-02,7.460160858826407095e-03,5.046774250065510364e-03
1.233333333333333393e+00,1.643394124335420847e+09,6.623017194795275536e-03,1.682610636787787092e-02,0.000000000000000000e+00,6.730442547151148369e-02,-4.329762943926326185e-02,7.539920440041404659e-03,4.525822617660756400e-03
1.250000000000000000e+00,1.643394124351399183e+09,6.600819074560342233e-03,8.813674764126647881e-03,0.000000000000000000e+00,3.525469905650659153e-02,-4.265609111494836347e-02,7.610051376691444151e-03,3.891651408497021243e-03
1.266666666666666607e+00,1.643394124369711161e+09,6.604328003954243638e-03,8.813674764126647881e-03,0.000000000000000000e+00,3.525469905650659153e-02,-4.146573670904381281e-02,7.669864797577093975e-03,3.287636955196085453e-03
1.283333333333333215e+00,1.643394124385668278e+09,6.636430247453273604e-03,8.813674764126647881e-03,0.000000000000000000e+00,3.525469905650659153e-02,-3.970999113361607658e-02,7.719937242140348203e-03,2.722625904474673762e-03
1.300000000000000044e+00,1.643394124402623415e+09,6.699830191896155585e-03,8.813674764126647881e-03,0.000000000000000000e+00,3.525469905650659153e-02,-3.737827857873005089e-02,7.760992932768034230e-03,2.205493483603597916e-03
1.316666666666666652e+00,1.643394124417758703e+09,6.797019549142609487e-03,8.813674764126647881e-03,0.000000000000000000e+00,3.525469905650659153e-02,-3.446646543124522177e-02,7.793903357387381436e-03,1.745036547865607421e-03
1.333333333333333259e+00,1.643394124434975386e+09,6.930248739385055749e-03,1.682610636787787092e-02,0.000000000000000000e+00,6.730442547151148369e-02,-3.097725085707740342e-02,7.820791711395233201e-03,1.482295785704430997e-03
1.350000000000000089e+00,1.643394124451929808e+09,7.101500857121821608e-03,1.682610636787787092e-02,0.000000000000000000e+00,6.730442547151148369e-02,-2.692049870110825582e-02,7.843897663217552774e-03,1.290949961661605168e-03
1.366666666666666696e+00,1.643394124473224878e+09,7.312468595504489390e-03,8.813674764126647881e-03,0.000000000000000000e+00,3.525469905650659153e-02,-2.231350478475406171e-02,7.863370586000586332e-03,1.046479871868115146e-03
1.383333333333333304e+00,1.643394124487524748e+09,7.564534473007348062e-03,8.813674764126647881e-03,0.000000000000000000e+00,3.525469905650659153e-02,-1.718119418258897552e-02,7.879511650919093432e-03,8.908801499752360417e-04
1.399999999999999911e+00,1.643394124508919477e+09,7.858754669439317261e-03,8.813674764126647881e-03,0.000000000000000000e+00,3.525469905650659153e-02,-1.155624363291357475e-02,7.893857799627222727e-03,8.308245201206577784e-04
1.416666666666666741e+00,1.643394124523885727e+09,8.195846736606072699e-03,8.813674764126647881e-03,0.000000000000000000e+00,3.525469905650659153e-02,-5.479124878511943894e-03,7.908050690759336684e-03,8.722074604154563633e-04
1.433333333333333348e+00,1.643394124542203188e+09,8.576181402879235610e-03,8.813674764126647881e-03,0.000000000000000000e+00,3.525469905650659153e-02,1.001934562052757098e-03,7.923822748894460838e-03,1.020028891049989516e-03
1.449999999999999956e+00,1.643394124558165550e+09,8.999778641051199915e-03,8.813674764126647881e-03,0.000000000000000000e+00,3.525469905650659153e-02,7.831075931186894795e-03,7.942981324783850855e-03,1.278282826749157792e-03
1.466666666666666563e+00,1.643394124575481892e+09,9.466308115720328820e-03,1.682610636787787092e-02,0.000000000000000000e+00,6.730442547151148369e-02,1.494502100420496207e-02,7.968497725466655232e-03,1.782285215601066503e-03
1.483333333333333393e+00,1.643394124593431234e+09,9.975094070682690925e-03,1.682610636787787092e-02,0.000000000000000000e+00,6.730442547151148369e-02,2.227337216893728045e-02,8.003356748421737443e-03,2.399084168259570451e-03
1.500000000000000000e+00,1.643394124609388351e+09,1.052512465907475339e-02,8.813674764126647881e-03,0.000000000000000000e+00,3.525469905650659153e-02,2.973900099547741038e-02,8.048335036669594655e-03,2.996650476005114673e-03
1.516666666666666607e+00,1.643394124626460552e+09,1.111506566002220739e-02,8.813674764126647881e-03,0.000000000000000000e+00,3.525469905650659153e-02,3.725852456144459340e-02,8.104228827570239546e-03,3.708626673863989805e-03
1.533333333333333215e+00,1.643394124642875195e+09,1.174327846604107488e-02,8.813674764126647881e-03,0.000000000000000000e+00,3.525469905650659153e-02,4.474286786280898959e-02,8.172924291158751436e-03,4.532540254057738222e-03
1.550000000000000044e+00,1.643394124660051823e+09,1.240784216616831401e-02,8.813674764126647881e-03,0.000000000000000000e+00,3.525469905650659153e-02,5.209790969589250115e-02,8.256253730443627314e-03,5.464403889106515463e-03
1.566666666666666652e+00,1.643394124676001310e+09,1.310657949153853745e-02,8.813674764126647881e-03,0.000000000000000000e+00,3.525469905650659153e-02,5.922520845210126755e-02,8.355969946902927145e-03,6.498669059584347325e-03
1.583333333333333259e+00,1.643394124693953276e+09,1.383708633364772941e-02,8.813674764126647881e-03,0.000000000000000000e+00,3.525469905650659153e-02,6.602280333289624326e-02,8.473719950178848145e-03,7.628193691258807266e-03
1.600000000000000089e+00,1.643394124710908175e+09,1.459676449161622855e-02,1.682610636787787092e-02,0.000000000000000000e+00,6.730442547151148369e-02,7.238608557825833290e-02,8.612124934246857474e-03,8.976658572959735419e-03
1.616666666666666696e+00,1.643394124727116823e+09,1.538285725413508602e-02,1.682610636787787092e-02,0.000000000000000000e+00,6.730442547151148369e-02,7.820873341718784233e-02,8.773622309392423158e-03,1.039907519423193330e-02
1.633333333333333304e+00,1.643394124745181561e+09,1.619248737517213835e-02,1.682610636787787092e-02,0.000000000000000000e+00,6.730442547151148369e-02,8.338370360331409659e-02,8.959344932796651714e-03,1.188351607034757174e-02
1.649999999999999911e+00,1.643394124760316610e+09,1.702269696061374168e-02,1.682610636787787092e-02,0.000000000000000000e+00,6.730442547151148369e-02,8.780427160193046698e-02,9.170213776812676659e-03,1.341648685916168454e-02
1.666666666666666741e+00,1.643394124779673576e+09,1.787048874646741600e-02,8.813674764126647881e-03,0.000000000000000000e+00,3.525469905650659153e-02,9.136511175597158974e-02,9.405805543253095008e-03,1.485054153472290320e-02
1.683333333333333348e+00,1.643394124795632124e+09,1.873286821863524160e-02,1.682610636787787092e-02,0.000000000000000000e+00,6.730442547151148369e-02,9.396340808638205255e-02,9.666565707642240171e-03,1.643627327790475601e-02
1.699999999999999956e+00,1.643394124812572241e+09,1.960688600011227870e-02,8.813674764126647881e-03,0.000000000000000000e+00,3.525469905650659153e-02,9.549998578538318461e-02,9.952641264185558764e-03,1.788875873051993387e-02
1.716666666666666563e+00,1.643394124829515696e+09,2.048967991422212878e-02,1.682610636787787092e-02,0.000000000000000000e+00,6.730442547151148369e-02,9.588045294705743737e-02,1.026388352495562900e-02,1.945595912499878746e-02
1.733333333333333393e+00,1.643394124846805811e+09,2.137851612254988015e-02,1.682610636787787092e-02,0.000000000000000000e+00,6.730442547151148369e-02,9.501634165559738610e-02,1.060090997831712907e-02,2.098297347202853977e-02
1.750000000000000000e+00,1.643394124862784624e+09,2.227082873386224127e-02,8.813674764126647881e-03,0.000000000000000000e+00,3.525469905650659153e-02,9.282623722383892551e-02,1.096176657944424732e-02,2.231611540403417859e-02
1.766666666666666607e+00,1.643394124880740881e+09,2.316425728572224854e-02,8.813674764126647881e-03,0.000000000000000000e+00,3.525469905650659153e-02,8.923688414890308673e-02,1.134416231530491898e-02,2.356789565005733625e-02
1.783333333333333215e+00,1.643394124895469666e+09,2.405668151381772438e-02,1.682610636787787092e-02,0.000000000000000000e+00,6.730442547151148369e-02,8.418425723255779092e-02,1.174765696845407430e-02,2.484790705691544005e-02
1.800000000000000044e+00,1.643394124916765451e+09,2.494625284524922340e-02,8.813674764126647881e-03,0.000000000000000000e+00,3.525469905650659153e-02,7.761458630499463995e-02,1.217029426195898739e-02,2.586574078122921491e-02
1.816666666666666652e+00,1.643394124930726290e+09,2.583142208107288770e-02,8.813674764126647881e-03,0.000000000000000000e+00,3.525469905650659153e-02,6.948532309480985603e-02,1.260863204927639876e-02,2.673238629156074464e-02
1.833333333333333259e+00,1.643394124949695587e+09,2.671096277009086389e-02,1.682610636787787092e-02,0.000000000000000000e+00,6.730442547151148369e-02,5.976603900673240627e-02,1.306105847560554492e-02,2.755649562147510084e-02
1.849999999999999867e+00,1.643394124967754602e+09,2.758398981993685772e-02,1.682610636787787092e-02,0.000000000000000000e+00,6.730442547151148369e-02,4.843924290262479476e-02,1.352554176831176520e-02,2.817976814994392620e-02
1.866666666666666696e+00,1.643394124984750509e+09,2.844997294254300590e-02,8.813674764126647881e-03,0.000000000000000000e+00,3.525469905650659153e-02,3.550110842994882998e-02,1.399743314713963391e-02,2.844645649101731552e-02
1.883333333333333304e+00,1.643394125000435114e+09,2.930874458861695148e-02,1.682610636787787092e-02,0.000000000000000000e+00,6.730442547151148369e-02,2.096210100356106151e-02,1.447283104261612441e-02,2.860086205173147447e-02
1.899999999999999911e+00,1.643394125015384912e+09,3.016050208924236919e-02,1.682610636787787092e-02,0.000000000000000000e+00,6.730442547151148369e-02,4.847495218571596862e-03,1.494855528013968107e-02,2.848636450731540856e-02
1.916666666666666741e+00,1.643394125033804655e+09,3.100580379148725613e-02,1.682610636787787092e-02,0.000000000000000000e+00,6.730442547151148369e-02,-1.280222574988201280e-02,1.541994925144740333e-02,2.808203521297428229e-02
1.933333333333333348e+00,1.643394125051876068e+09,3.184555904823360012e-02,2.483853797162969765e-02,0.000000000000000000e+00,9.935415188651879059e-02,-3.193109632475545773e-02,1.588312483924918250e-02,2.750065031928707396e-02
1.949999999999999956e+00,1.643394125067993402e+09,3.268101199952348074e-02,3.285096957538091722e-02,0.000000000000000000e+00,1.314038783015236689e-01,-5.246752687353661154e-02,1.633496115901104939e-02,2.672187137788927663e-02
1.966666666666666563e+00,1.643394125087248087e+09,3.351371916268259393e-02,3.285096957538091722e-02,0.000000000000000000e+00,1.314038783015236689e-01,-7.432429975113333254e-02,1.677090652670984103e-02,2.559470384059461118e-02
1.983333333333333393e+00,1.643394125100179195e+09,3.434552093041181448e-02,2.483853797162969765e-02,0.000000000000000000e+00,9.935415188651879059e-02,-9.739870742533890402e-02,1.718392772397722007e-02,2.397234648576541255e-02
2.000000000000000000e+00,1.643394125123028517e+09,3.517850715895994712e-02,2.483853797162969765e-02,0.000000000000000000e+00,9.935415188651879059e-02,-1.215728358583933466e-01,1.756679477012343740e-02,2.197724114150646779e-02
2.016666666666666607e+00,1.643394125138020992e+09,3.601497711140843466e-02,2.483853797162969765e-02,0.000000000000000000e+00,9.935415188651879059e-02,-1.467139950449250774e-01,1.791321311602609920e-02,1.959956517771554996e-02
2.033333333333333215e+00,1.643394125154994249e+09,3.685739410298301960e-02,2.483853797162969765e-02,0.000000000000000000e+00,9.935415188651879059e-02,-1.726752972834353639e-01,1.821674614697029598e-02,1.683208615824125648e-02
2.049999999999999822e+00,1.643394125171217680e+09,3.770833527512800626e-02,3.285096957538091722e-02,0.000000000000000000e+00,1.314038783015236689e-01,-1.992963823969681747e-01,1.847196653666503124e-02,1.380277555485340084e-02
2.066666666666666430e+00,1.643394125191339970e+09,3.857043700180028817e-02,4.887583278288337024e-02,0.000000000000000000e+00,1.955033311315334810e-01,-2.264042877307006485e-01,1.867558603088678715e-02,1.064034847816802513e-02
2.083333333333333481e+00,1.643394125203342676e+09,3.944633650404195946e-02,4.887583278288337024e-02,0.000000000000000000e+00,1.955033311315334810e-01,-2.538144593525085146e-01,1.882314929658828948e-02,7.077141436306106162e-03
2.100000000000000089e+00,1.643394125222293139e+09,4.033861031638242417e-02,5.688826438663519697e-02,0.000000000000000000e+00,2.275530575465407879e-01,-2.813318994799711703e-01,1.890912388868358496e-02,3.250439592655210430e-03
2.116666666666666696e+00,1.643394125238250494e+09,4.124971031004949495e-02,5.688826438663519697e-02,0.000000000000000000e+00,2.275530575465407879e-01,-3.087524437670445265e-01,1.892806132342710057e-02,-9.662341650951257813e-04
2.133333333333333304e+00,1.643394125256876230e+09,4.218189803242708424e-02,4.887583278288337024e-02,0.000000000000000000e+00,1.955033311315334810e-01,-3.358641607191005241e-01,1.887245190636706316e-02,-5.693763546972039832e-03
2.149999999999999911e+00,1.643394125271957636e+09,4.313717816885278417e-02,5.688826438663519697e-02,0.000000000000000000e+00,2.275530575465407879e-01,-3.624488641795261534e-01,1.873613809020366339e-02,-1.065012639402349026e-02
2.166666666666666519e+00,1.643394125289906502e+09,4.411723197092816406e-02,5.688826438663519697e-02,0.000000000000000000e+00,2.275530575465407879e-01,-3.882837285579787689e-01,1.851433447754011891e-02,-1.595158051754900358e-02
2.183333333333333126e+00,1.643394125305489302e+09,4.512335152434688440e-02,5.688826438663519697e-02,0.000000000000000000e+00,2.275530575465407879e-01,-4.131429952626705093e-01,1.820147196131865347e-02,-2.157629684926145805e-02
2.200000000000000178e+00,1.643394125323751211e+09,4.615637574823531347e-02,4.887583278288337024e-02,0.000000000000000000e+00,1.955033311315334810e-01,-4.367997576694352957e-01,1.779126689664953936e-02,-2.763149053270154420e-02
2.216666666666666785e+00,1.643394125340944052e+09,4.721662902667636552e-02,4.887583278288337024e-02,0.000000000000000000e+00,1.955033311315334810e-01,-4.590278109210351176e-01,1.727790813382307916e-02,-3.395399807217761023e-02
2.233333333333333393e+00,1.643394125356171608e+09,4.830386337106976763e-02,5.688826438663519697e-02,0.000000000000000000e+00,2.275530575465407879e-01,-4.796035519127901936e-01,1.665831226267338455e-02,-4.037965699313050133e-02
2.250000000000000000e+00,1.643394125373272419e+09,4.941720499902875485e-02,5.688826438663519697e-02,0.000000000000000000e+00,2.275530575465407879e-01,-4.983079139960616688e-01,1.592992613556697482e-02,-4.700826502618120351e-02
2.266666666666666607e+00,1.643394125390937328e+09,5.055510619148655821e-02,5.688826438663519697e-02,0.000000000000000000e+00,2.275530575465407879e-01,-5.149283202293828410e-01,1.508968313575668151e-02,-5.380202295708336885e-02
2.283333333333333215e+00,1.643394125409281015e+09,5.171530325459770816e-02,5.688826438663519697e-02,0.000000000000000000e+00,2.275530575465407879e-01,-5.292606384373007566e-01,1.413516960739103281e-02,-6.072038232956214476e-02
2.299999999999999822e+00,1.643394125424022913e+09,5.289478136698723409e-02,4.887583278288337024e-02,0.000000000000000000e+00,1.955033311315334810e-01,-5.411111209071899353e-01,1.306356218112978557e-02,-6.785269637203933391e-02
2.316666666666666430e+00,1.643394125441379786e+09,5.408974703619922469e-02,5.688826438663519697e-02,0.000000000000000000e+00,2.275530575465407879e-01,-5.502983112714296965e-01,1.187390571466878306e-02,-7.488654068699157618e-02
2.333333333333333481e+00,1.643394125460323811e+09,5.529560882121184462e-02,5.688826438663519697e-02,0.000000000000000000e+00,2.275530575465407879e-01,-5.566549009919864455e-01,1.056711205236775079e-02,-8.190919096811306865e-02
2.350000000000000089e+00,1.643394125474652767e+09,5.650696690114316578e-02,5.688826438663519697e-02,0.000000000000000000e+00,2.275530575465407879e-01,-5.600295178910201788e-01,9.143778086905690952e-03,-8.887154456105741951e-02
2.366666666666666696e+00,1.643394125493893623e+09,5.771761198442632718e-02,5.688826438663519697e-02,0.000000000000000000e+00,2.275530575465407879e-01,-5.602884293576170238e-01,7.605330777665874828e-03,-9.572310000133396612e-02
2.383333333333333304e+00,1.643394125510895729e+09,5.892053395854571912e-02,4.887583278288337024e-02,0.000000000000000000e+00,1.955033311315334810e-01,-5.573171432087068444e-01,5.952940932485313238e-03,-1.025447319965838017e-01
2.399999999999999911e+00,1.643394125527849913e+09,6.010794057879381008e-02,5.688826438663519697e-02,0.000000000000000000e+00,2.275530575465407879e-01,-5.510218896917608022e-01,4.189775612540230093e-03,-1.090171270983908147e-01
2.416666666666666519e+00,1.643394125544921637e+09,6.127128638641659436e-02,5.688826438663519697e-02,0.000000000000000000e+00,2.275530575465407879e-01,-5.413309687866396658e-01,2.320969526170269231e-03,-1.152223660853542581e-01
2.433333333333333126e+00,1.643394125563278198e+09,6.240131193306097668e-02,5.688826438663519697e-02,0.000000000000000000e+00,2.275530575465407879e-01,-5.281959477910481704e-01,3.514140763766072754e-04,-1.211079386923008122e-01
2.450000000000000178e+00,1.643394125579798698e+09,6.348809327079235620e-02,5.688826438663519697e-02,0.000000000000000000e+00,2.275530575465407879e-01,-5.115926951541309720e-01,-1.713128082435538390e-03,-1.266218037129469287e-01
2.466666666666666785e+00,1.643394125594831228e+09,6.452110154637549777e-02,5.688826438663519697e-02,0.000000000000000000e+00,2.275530575465407879e-01,-4.915222376498961654e-01,-3.866034272198809463e-03,-1.317127970775713308e-01
2.483333333333333393e+00,1.643394125613273859e+09,6.548927241631666285e-02,6.490069599038642001e-02,0.000000000000000000e+00,2.596027839615456800e-01,-4.680114292491365791e-01,-6.098733175190095349e-03,-1.361986103955592220e-01
2.500000000000000000e+00,1.643394125628665447e+09,6.638108487671898206e-02,7.291312759413763611e-02,0.000000000000000000e+00,2.916525103765505444e-01,-4.411134214465157743e-01,-8.400754203397295394e-03,-1.400332609315583232e-01
2.516666666666666607e+00,1.643394125649875164e+09,6.718464898070271307e-02,8.893799080164009607e-02,0.000000000000000000e+00,3.557519632065603843e-01,-4.109079263184832742e-01,-1.075977106986481316e-02,-1.430404096570381811e-01
2.533333333333333215e+00,1.643394125662841558e+09,6.788780179740803999e-02,1.049628540091431389e-01,0.000000000000000000e+00,4.198514160365725556e-01,-3.775012652162605953e-01,-1.316166422607198579e-02,-1.451808233542829785e-01
2.549999999999999822e+00,1.643394125680106401e+09,6.847821085184944978e-02,1.290001488203974256e-01,0.000000000000000000e+00,5.160005952815897023e-01,-3.410261977237161735e-01,-1.559057731121670995e-02,-1.462856777508602379e-01
2.566666666666666430e+00,1.643394125697577238e+09,6.894348417553364250e-02,1.450250120278998578e-01,0.000000000000000000e+00,5.801000481115994312e-01,-3.016415273188194912e-01,-1.803009884083353609e-02,-1.464564314760920805e-01
2.583333333333333481e+00,1.643394125714778900e+09,6.927128599517304308e-02,1.690623068391541306e-01,0.000000000000000000e+00,6.762492273566165224e-01,-2.595314820548715873e-01,-2.046330637766435867e-02,-1.455310435261898683e-01
2.600000000000000089e+00,1.643394125733249187e+09,6.944945699234449099e-02,1.850871700466565906e-01,0.000000000000000000e+00,7.403486801866263622e-01,-2.149048705081801625e-01,-2.287284138508580839e-02,-1.436184701931271512e-01
2.616666666666666696e+00,1.643394125747482538e+09,6.946613798184210486e-02,1.930996016504084034e-01,0.000000000000000000e+00,7.723984066016336136e-01,-1.679940152060061809e-01,-2.524317830408004046e-02,-1.408297068333928814e-01
2.633333333333333304e+00,1.643394125767431021e+09,6.930989578193806622e-02,2.011120332541596334e-01,0.000000000000000000e+00,8.044481330166385336e-01,-1.190534677354188192e-01,-2.755955464524448284e-02,-1.371456877335827662e-01
2.649999999999999911e+00,1.643394125782372475e+09,6.896984998689857649e-02,2.091244648579108634e-01,0.000000000000000000e+00,8.364978594316434535e-01,-6.835851172275177190e-02,-2.980693081296417052e-02,-1.325522123469437541e-01
2.666666666666666519e+00,1.643394125800988197e+09,6.843579930190203664e-02,2.171368964616620933e-01,0.000000000000000000e+00,8.685475858466483734e-01,-1.620346184683183963e-02,-3.197007314812180812e-02,-1.270401794348722802e-01
2.683333333333333126e+00,1.643394125817948818e+09,6.769834606383944020e-02,2.251493280654139062e-01,0.000000000000000000e+00,9.005973122616556248e-01,3.710023101095237530e-02,-3.403364057910880647e-02,-1.206057860192791820e-01
2.700000000000000178e+00,1.643394125834901810e+09,6.674901754909055851e-02,2.331617596691651362e-01,0.000000000000000000e+00,9.326470386766605447e-01,9.122605648814850754e-02,-3.598227427439183723e-02,-1.132506887213742541e-01
2.716666666666666785e+00,1.643394125851841688e+09,6.558038266185650667e-02,2.411741912729163662e-01,0.000000000000000000e+00,9.646967650916654646e-01,1.458346895236955765e-01,-3.780068965172447143e-02,-1.049821253307647584e-01
2.733333333333333393e+00,1.643394125869808197e+09,6.418616260443796295e-02,2.491866228766675684e-01,0.000000000000000000e+00,9.967464915066702735e-01,2.005763876583435967e-01,-3.947377006560292417e-02,-9.581299474130278160e-02
2.750000000000000000e+00,1.643394125886762142e+09,6.256133415425689515e-02,2.491866228766675684e-01,0.000000000000000000e+00,9.967464915066702735e-01,2.550935236817416518e-01,-4.098776814718579908e-02,-8.589432755041309653e-02
2.766666666666666607e+00,1.643394125904104233e+09,6.070222421155117148e-02,2.491866228766675684e-01,0.000000000000000000e+00,9.967464915066702735e-01,3.090232349466111583e-01,-4.233037628155277010e-02,-7.524822178565815367e-02
2.783333333333333215e+00,1.643394125918472052e+09,5.860659433646047550e-02,2.491866228766675684e-01,0.000000000000000000e+00,9.967464915066702735e-01,3.620001692982193764e-01,-4.348970256467420831e-02,-6.390244896628860527e-02
2.799999999999999822e+00,1.643394125935428858e+09,5.627371406444506285e-02,2.491866228766675684e-01,0.000000000000000000e+00,9.967464915066702735e-01,4.136593063454935271e-01,-4.445436453215712708e-02,-5.189035484510300111e-02
2.816666666666666430e+00,1.643394125952014923e+09,5.370442187422248825e-02,2.491866228766675684e-01,0.000000000000000000e+00,9.967464915066702735e-01,4.636388317423075778e-01,-4.521358085040116936e-02,-3.925071428320937167e-02
2.833333333333333481e+00,1.643394125968747377e+09,5.090117278209484869e-02,2.571990544804194090e-01,0.000000000000000000e+00,1.028796217921677636e+00,5.115830412660712367e-01,-4.575615352688159471e-02,-2.589510667762077306e-02
2.850000000000000089e+00,1.643394125987869978e+09,4.786807164990992264e-02,2.491866228766675684e-01,0.000000000000000000e+00,9.967464915066702735e-01,5.571452507864651515e-01,-4.607279103239331902e-02,-1.213960461105683536e-02
2.866666666666666696e+00,1.643394126003825903e+09,4.461089142004031477e-02,2.491866228766675684e-01,0.000000000000000000e+00,9.967464915066702735e-01,5.999906877197265231e-01,-4.615615225381015235e-02,2.096711786966564198e-03
2.883333333333333304e+00,1.643394126019783497e+09,4.113707562858851668e-02,2.491866228766675684e-01,0.000000000000000000e+00,9.967464915066702735e-01,6.397993392709186988e-01,-4.599870947156871337e-02,1.675570170718489529e-02
2.899999999999999911e+00,1.643394126037974596e+09,3.745572469630235879e-02,2.491866228766675684e-01,0.000000000000000000e+00,9.967464915066702735e-01,6.762687326842818925e-01,-4.559393772684373208e-02,3.177518588847573489e-02
2.916666666666666519e+00,1.643394126054081202e+09,3.357756565405004695e-02,2.491866228766675684e-01,0.000000000000000000e+00,9.967464915066702735e-01,7.091166228546101902e-01,-4.493637877743283937e-02,4.708934770125280250e-02
2.933333333333333126e+00,1.643394126072026491e+09,2.951490512464110400e-02,2.491866228766675684e-01,0.000000000000000000e+00,9.967464915066702735e-01,7.380835630029074501e-01,-4.402169806925294859e-02,6.262917009106583333e-02
2.950000000000000178e+00,1.643394126090983629e+09,2.528156555369326028e-02,2.411741912729163662e-01,0.000000000000000000e+00,9.646967650916654646e-01,7.629353346881196929e-01,-4.284784083121084830e-02,7.819047161904099652e-02
2.966666666666666785e+00,1.643394126105955124e+09,2.089280485741177446e-02,2.251493280654139062e-01,0.000000000000000000e+00,9.005973122616556248e-01,7.834652142122219276e-01,-4.141615566733265752e-02,9.356902882645673492e-02
2.983333333333333393e+00,1.643394126123344183e+09,1.636521983277174422e-02,2.171368964616620933e-01,0.000000000000000000e+00,8.685475858466483734e-01,7.994960534749948611e-01,-3.972917780419232825e-02,1.088259334622606878e-01
3.000000000000000000e+00,1.643394126142238855e+09,1.171663385383574923e-02,2.011120332541596334e-01,0.000000000000000000e+00,8.044481330166385336e-01,8.108821545423807731e-01,-3.779066619654439241e-02,1.237539916512217508e-01
3.016666666666666607e+00,1.643394126159193754e+09,6.965969554869355998e-03,1.770747384429053606e-01,0.000000000000000000e+00,7.082989537716214423e-01,8.175109186011036977e-01,-3.560781996488006362e-02,1.381475730369575716e-01
3.033333333333333215e+00,1.643394126174205303e+09,2.133107374638968257e-03,-3.058946191753896815e-01,-6.225926592143901095e-01,6.441995009416116025e-01,8.193042515733333087e-01,-3.325352903138020788e-02,1.443501093100900967e-01
3.049999999999999822e+00,1.643394126190111637e+09,-2.761268995159380565e-03,-8.021073019555038375e-01,-1.252159843172869991e+00,5.480503216965945112e-01,8.162197104475840126e-01,-3.086568237243388427e-02,1.421974694593451105e-01
3.066666666666666430e+00,1.643394126209440708e+09,-7.695839052887365819e-03,-1.078357701529661705e+00,-1.577760740718406662e+00,4.198514160365725556e-01,8.082513763331621304e-01,-2.855267215395704619e-02,1.353826871542599397e-01
3.083333333333333481e+00,1.643394126224758387e+09,-1.264882246434654439e-02,-1.057773610879941595e+00,-1.518265560103774003e+00,3.237022367915554644e-01,7.954304423508904431e-01,-2.635122812836010464e-02,1.288088569865121491e-01
3.100000000000000089e+00,1.643394126242711306e+09,-1.759816507571760821e-02,-1.652253889245170804e+00,-2.289539446980743076e+00,2.596027839615456800e-01,7.778255067166076620e-01,-2.434298147335987525e-02,1.122268039560358754e-01
3.116666666666666696e+00,1.643394126260664225e+09,-2.252173233388536644e-02,-1.901322349909157161e+00,-2.621630727866058219e+00,2.596027839615456800e-01,7.555425637386098403e-01,-2.264629123869661004e-02,9.143378395186349539e-02
3.133333333333333304e+00,1.643394126276116133e+09,-2.739750837076374360e-02,-2.072405662924834413e+00,-2.839058569748626137e+00,2.275530575465407879e-01,7.287246879170103941e-01,-2.132061360608732137e-02,6.771342340245714575e-02
3.149999999999999911e+00,1.643394126293564796e+09,-3.220379890865111144e-02,-2.233954496072787066e+00,-3.065140256084231574e+00,2.596027839615456800e-01,6.975514088818989267e-01,-2.041361792223078328e-02,4.119970959875247918e-02
3.166666666666666519e+00,1.643394126309660435e+09,-3.691943606107227216e-02,-2.656439615933896992e+00,-3.607087264955707084e+00,1.955033311315334810e-01,6.622377775172612058e-01,-2.000808677300353403e-02,7.557481142581298772e-03
3.183333333333333126e+00,1.643394126326205969e+09,-4.152398303921336215e-02,-2.677533361788174915e+00,-3.635212259428077797e+00,1.955033311315334810e-01,6.230331262668689085e-01,-2.016694119469352939e-02,-2.652533502775047264e-02
3.200000000000000178e+00,1.643394126344270229e+09,-4.599793672898209312e-02,-2.823566986933184086e+00,-3.829923759621423063e+00,1.955033311315334810e-01,5.802195292843445040e-01,-2.091521868952950919e-02,-6.316618182706182361e-02
3.216666666666666785e+00,1.643394126359600306e+09,-5.032292607879135238e-02,-2.941104637395690613e+00,-3.975957384766430902e+00,1.634536047165285888e-01,5.341099707490911674e-01,-2.229171914647337660e-02,-1.019062591475612678e-01
3.233333333333333393e+00,1.643394126375585794e+09,-5.448190423402351351e-02,-2.505437655713082634e+00,-3.395068075856286782e+00,1.634536047165285888e-01,4.850462322995954811e-01,-2.425513892708997324e-02,-1.336160297571694633e-01
3.250000000000000000e+00,1.643394126394532442e+09,-5.845933237125241350e-02,-2.185786276229009673e+00,-2.968866236544188908e+00,1.634536047165285888e-01,4.333965131120795511e-01,-2.670565859214924301e-02,-1.603720061440590261e-01
3.266666666666666607e+00,1.643394126409888268e+09,-6.224135322391341485e-02,-2.376441286834992450e+00,-3.223072917352166389e+00,1.634536047165285888e-01,3.795527986525246700e-01,-2.963218593408485993e-02,-1.907269536051645342e-01
3.283333333333333215e+00,1.643394126428519487e+09,-6.581595235121677490e-02,-2.254746599214152436e+00,-3.060813333857713037e+00,1.634536047165285888e-01,3.239279965302843123e-01,-3.305131082099729140e-02,-2.194881387629832314e-01
3.299999999999999822e+00,1.643394126442458630e+09,-6.917310528351175436e-02,-1.883882903358354399e+00,-2.555645163911647089e+00,1.314038783015236689e-01,2.669528601597839224e-01,-3.690246184017090952e-02,-2.425858217971191277e-01
3.316666666666666430e+00,1.643394126460488081e+09,-7.230490877954943996e-02,-2.064902886525641801e+00,-2.807688383606365079e+00,1.634536047165285888e-01,2.090727230710471285e-01,-4.116838098355508208e-02,-2.692504053779781747e-01
3.333333333333333481e+00,1.643394126477467060e+09,-7.520569455351357180e-02,-2.205156878677372756e+00,-2.984010464337004898e+00,1.314038783015236689e-01,1.507440686793028173e-01,-4.590245526192546222e-02,-2.987565445995756241e-01
3.350000000000000089e+00,1.643394126495445490e+09,-7.787212397138225384e-02,-2.110033927191174552e+00,-2.835813378078737124e+00,6.730442547151148369e-02,9.243096210900718368e-02,-5.111913893050362701e-02,-3.271665770157002329e-01
3.366666666666666696e+00,1.643394126512720585e+09,-8.030326237602646022e-02,-2.397642497609944634e+00,-3.176558503417090229e+00,-6.089448018850930622e-02,3.460137224981820608e-02,-5.685311122255871930e-02,-3.608166234796472693e-01
3.383333333333333304e+00,1.643394126528235435e+09,-8.250063187712765311e-02,-2.031546041688009119e+00,-2.667063411244505744e+00,-1.249939330185202979e-01,-2.227658641545130630e-02,-6.310056044800604891e-02,-3.887995513892576471e-01
3.399999999999999911e+00,1.643394126546709776e+09,-8.446824163397124996e-02,-2.210641786307437684e+00,-2.884491253127073218e+00,-1.890933858485313035e-01,-7.773846154332070268e-02,-6.984292400479165386e-02,-4.201968586299846820e-01
3.416666666666666519e+00,1.643394126564008474e+09,-8.621259486471333222e-02,-2.431214272288923173e+00,-3.167904658964051823e+00,-2.211431122635373892e-01,-1.313272886756964020e-01,-7.714210670121281199e-02,-4.556067019496404802e-01
3.433333333333333126e+00,1.643394126580967426e+09,-8.774267203297649032e-02,-2.695697393384883345e+00,-3.520548820425331460e+00,-2.211431122635373892e-01,-1.825974028331756038e-01,-8.507017462213874170e-02,-4.956502139656822070e-01
3.449999999999999734e+00,1.643394126598917723e+09,-8.906988988950328978e-02,-2.611322409967766767e+00,-3.408048842535842837e+00,-2.211431122635373892e-01,-2.311182034386056738e-01,-9.365515138251832850e-02,-5.344392474287421591e-01
3.466666666666666785e+00,1.643394126614875317e+09,-9.020803628097091853e-02,-2.555342853662180058e+00,-3.333409434128394189e+00,-2.211431122635373892e-01,-2.764778399794788344e-01,-1.028797876446754522e-01,-5.724116227272793012e-01
3.483333333333333393e+00,1.643394126631828785e+09,-9.117318087758798095e-02,-2.542462634553594558e+00,-3.326919050788616161e+00,-1.890933858485313035e-01,-3.182867860240539692e-01,-1.127360477152505036e-01,-6.102345196663316873e-01
3.500000000000000000e+00,1.643394126647112846e+09,-9.198356221342250671e-02,-2.209019190472492511e+00,-2.882327792013813283e+00,-1.890933858485313035e-01,-3.561812696956171420e-01,-1.231766439141964986e-01,-6.425472644701875069e-01
3.516666666666666607e+00,1.643394126664577246e+09,-9.265945167605267596e-02,-2.048382202812983888e+00,-2.668145141801134823e+00,-1.890933858485313035e-01,-3.898265294819561744e-01,-1.341337826466189320e-01,-6.722269379426807356e-01
3.533333333333333215e+00,1.643394126682395697e+09,-9.322299532262250110e-02,-1.607136683279041467e+00,-2.090501024560879717e+00,-1.570436594335263836e-01,-4.189198653103334835e-01,-1.455245565670081065e-01,-6.946037731654478575e-01
3.549999999999999822e+00,1.643394126699484587e+09,-9.369803463517563380e-02,-1.453901924447754013e+00,-1.896871254924165084e+00,-1.249939330185202979e-01,-4.431934561471038703e-01,-1.572673748605923905e-01,-7.144792112151111541e-01
3.566666666666666430e+00,1.643394126715190411e+09,-9.410990755675846531e-02,-1.461304153275976070e+00,-1.917424135500130022e+00,-9.294420660351540575e-02,-4.624169169778795663e-01,-1.693423828031248579e-01,-7.344662211101429250e-01
3.583333333333333481e+00,1.643394126735220432e+09,-9.448523136872342965e-02,-1.244077406535350816e+00,-1.649154957455966297e+00,-2.884475377350440711e-02,-4.763995698791646527e-01,-1.817196747858075001e-01,-7.507635454010355147e-01
3.600000000000000089e+00,1.643394126754147768e+09,-9.485166917654148933e-02,-9.824303694756933991e-01,-1.343025209929764152e+00,9.935415188651879059e-02,-4.849924059929861531e-01,-1.943313858729406873e-01,-7.626088805717136099e-01
3.616666666666666696e+00,1.643394126770105124e+09,-9.523768196390385021e-02,-7.084127685120097384e-01,-9.990348929215224771e-01,1.634536047165285888e-01,-4.880897175477958427e-01,-2.071014634837596846e-01,-7.697805110618913815e-01
3.633333333333333304e+00,1.643394126785065413e+09,-9.567226835077655145e-02,-4.954436065006884160e-01,-7.578089787931013843e-01,2.916525103765505444e-01,-4.856303816148379027e-01,-2.199603226286045432e-01,-7.732728850523052921e-01
3.649999999999999911e+00,1.643394126803043604e+09,-9.618469434826162900e-02,-3.806414925035116470e-01,-6.474724620168730294e-01,4.198514160365725556e-01,-4.775987800301454977e-01,-2.328599397840981633e-01,-7.746772724390392773e-01
3.666666666666666519e+00,1.643394126821965218e+09,-9.680421553975346316e-02,1.450250120278998578e-01,0.000000000000000000e+00,5.801000481115994312e-01,-4.640253428276255865e-01,-2.457082893315332695e-01,-7.671455950715996286e-01
3.683333333333333126e+00,1.643394126838943720e+09,-9.755979423219510172e-02,1.850871700466565906e-01,0.000000000000000000e+00,7.403486801866263622e-01,-4.449867055952069772e-01,-2.584239881705507891e-01,-7.587615551583912765e-01
3.699999999999999734e+00,1.643394126855899811e+09,-9.847981421175691641e-02,2.091244648579108634e-01,0.000000000000000000e+00,8.364978594316434535e-01,-4.206054743596296386e-01,-2.709944234278139907e-01,-7.497158033928233989e-01
3.716666666666666785e+00,1.643394126871835947e+09,-9.959179580366758766e-02,2.251493280654139062e-01,0.000000000000000000e+00,9.005973122616556248e-01,-3.910495948999064275e-01,-2.834090499244777961e-01,-7.400661813434010750e-01
3.733333333333333393e+00,1.643394126888810158e+09,-1.009221139751912272e-01,2.331617596691651362e-01,0.000000000000000000e+00,9.326470386766605447e-01,-3.565313267581275425e-01,-2.956583078361264549e-01,-7.298730828832350470e-01
3.750000000000000000e+00,1.643394126905787945e+09,-1.024957222330638434e-01,2.411741912729163662e-01,0.000000000000000000e+00,9.646967650916654646e-01,-3.173058256304027713e-01,-3.077325641224452069e-01,-7.190676871695410588e-01
3.766666666666666607e+00,1.643394126923655748e+09,-1.043358850515670178e-01,2.571990544804194090e-01,0.000000000000000000e+00,1.028796217921677636e+00,-2.736693412517536284e-01,-3.196199824717520510e-01,-7.074547735997565034e-01
3.783333333333333215e+00,1.643394126940604210e+09,-1.064639215245702097e-01,2.571990544804194090e-01,0.000000000000000000e+00,1.028796217921677636e+00,-2.259570413072060080e-01,-3.313088661963038417e-01,-6.952451896556511857e-01
3.799999999999999822e+00,1.643394126958156824e+09,-1.088989628643604185e-01,2.732239176879218689e-01,0.000000000000000000e+00,1.092895670751687476e+00,-1.745404752769506573e-01,-3.427866282050894831e-01,-6.821227036066827010e-01
3.816666666666666430e+00,1.643394126976234674e+09,-1.116577262722343450e-01,2.892487808954248840e-01,0.000000000000000000e+00,1.156995123581699536e+00,-1.198246954269543418e-01,-3.540377238644631386e-01,-6.680478731895012068e-01
3.833333333333333481e+00,1.643394126991214514e+09,-1.147543075812509500e-01,2.972612124991761418e-01,0.000000000000000000e+00,1.189044849996704567e+00,-6.224505535764950082e-02,-3.650471234298158785e-01,-6.531215376717897092e-01
3.850000000000000089e+00,1.643394127009487629e+09,-1.181999949211490625e-01,3.132860757066785462e-01,0.000000000000000000e+00,1.253144302826714185e+00,-2.263709593522642526e-03,-3.757993143539415382e-01,-6.371856406457780952e-01
3.866666666666666696e+00,1.643394127026201010e+09,-1.220031054804080473e-01,3.293109389141816168e-01,0.000000000000000000e+00,1.317243755656726467e+00,5.963415939319240133e-02,-3.862773453416972758e-01,-6.202251913528994409e-01
3.883333333333333304e+00,1.643394127044287682e+09,-1.261688472421998997e-01,8.580203316095755817e-01,6.728961305121869962e-01,1.413392934901741116e+00,1.229443576082875078e-01,-3.963932747189935490e-01,-5.937598504886387740e-01
3.899999999999999911e+00,1.643394127060523272e+09,-1.306992073512942831e-01,8.319272096381638004e-01,6.167388169403007492e-01,1.477492387731753398e+00,1.871479077842170824e-01,-4.060665066566114811e-01,-5.671020332606477865e-01
3.916666666666666519e+00,1.643394127077478647e+09,-1.355928685297692893e-01,8.780363479734624166e-01,6.568511837773621798e-01,1.541591840561763238e+00,2.517154555535012772e-01,-4.152838369123373341e-01,-5.390555062794725183e-01
3.933333333333333126e+00,1.643394127096426487e+09,-1.408451547028394535e-01,4.014228233479438246e-01,0.000000000000000000e+00,1.605691293391775298e+00,3.161118176376934152e-01,-4.240945344921859816e-01,-5.182858980165299112e-01
3.949999999999999734e+00,1.643394127111270666e+09,-1.464480067246504702e-01,4.014228233479438246e-01,0.000000000000000000e+00,1.605691293391775298e+00,3.798006344144939650e-01,-4.325531439118235344e-01,-4.968068976341850629e-01
3.966666666666666785e+00,1.643394127127200603e+09,-1.523899888100657407e-01,4.094352549516950823e-01,0.000000000000000000e+00,1.637741019806780329e+00,4.422490877978558221e-01,-4.406470045894131937e-01,-4.745182979107695487e-01
3.983333333333333393e+00,1.643394127146266460e+09,-1.586563259850384822e-01,4.254601181591980974e-01,0.000000000000000000e+00,1.701840472636792390e+00,5.029326442563140098e-01,-4.483618721122615280e-01,-4.513302176809960153e-01
4.000000000000000000e+00,1.643394127162371874e+09,-1.652289725680128885e-01,9.918851774450907488e-01,7.338669281045202553e-01,1.765939925466802229e+00,5.613397820166448060e-01,-4.556071722456625506e-01,-4.181978348898994224e-01
4.016666666666666607e+00,1.643394127181327581e+09,-1.720867113908763069e-01,9.020133922027515627e-01,5.926713968380640241e-01,1.830039378296814512e+00,6.169766610650121441e-01,-4.623095708027809003e-01,-3.861789354449849943e-01
4.033333333333333215e+00,1.643394127194856882e+09,-1.792052831634021737e-01,9.533471799905292032e-01,6.504332050834324974e-01,1.862089104711819321e+00,6.693716944744617647e-01,-4.684684164256437411e-01,-3.529747752477056522e-01
4.049999999999999822e+00,1.643394127215136290e+09,-1.865575450829401738e-01,4.815471393854572901e-01,0.000000000000000000e+00,1.926188557541829161e+00,7.180799798617124585e-01,-4.741368831980675713e-01,-3.273125231544956604e-01
4.066666666666666430e+00,1.643394127230190992e+09,-1.941136574944747617e-01,4.895595709892091030e-01,0.000000000000000000e+00,1.958238283956836412e+00,7.626875504100621983e-01,-4.793739223510486425e-01,-3.012046986448600472e-01
4.083333333333333037e+00,1.643394127248081684e+09,-2.018412971181721138e-01,5.216092974042145780e-01,0.000000000000000000e+00,2.086437189616858312e+00,8.028154058888827826e-01,-4.841694679176584137e-01,-2.743354080233653125e-01
4.099999999999999645e+00,1.643394127266479015e+09,-2.097058950852199732e-01,5.376341606117170935e-01,0.000000000000000000e+00,2.150536642446868374e+00,8.381232854494806706e-01,-4.885138130696928815e-01,-2.470617721036442171e-01
4.116666666666666252e+00,1.643394127280751944e+09,-2.176708977611100659e-01,5.456465922154682957e-01,0.000000000000000000e+00,2.182586368861873183e+00,8.683131456760090350e-01,-4.924020881516578685e-01,-2.196075013901546136e-01
4.133333333333332860e+00,1.643394127297085762e+09,-2.256980480913350628e-01,5.616714554229713663e-01,0.000000000000000000e+00,2.246685821691885465e+00,8.931323094083000180e-01,-4.958309426552536259e-01,-1.919319174727043553e-01
4.150000000000000355e+00,1.643394127315346718e+09,-2.337476849805263934e-01,1.042657173345922894e+00,6.199478062872655348e-01,2.310785274521895083e+00,9.123762532185218932e-01,-4.987332680218731218e-01,-1.564457016633441500e-01
4.166666666666666963e+00,1.643394127330457211e+09,-2.417790580147985702e-01,5.857087502342256391e-01,0.000000000000000000e+00,2.342835000936902556e+00,9.258910040993931778e-01,-5.011103051122399732e-01,-1.288753353340836849e-01
4.183333333333333570e+00,1.643394127349067450e+09,-2.497506546608893319e-01,1.108020247763011668e+00,6.857320879000463609e-01,2.374884727351907365e+00,9.335751188896739272e-01,-5.029584408714472543e-01,-9.300061013066497628e-02
4.200000000000000178e+00,1.643394127366013288e+09,-2.576205369265790468e-01,1.238776521888171223e+00,8.493905445952576461e-01,2.406934453766912174e+00,9.353812232012644889e-01,-5.041953099970220009e-01,-5.552777858693300900e-02
4.216666666666666785e+00,1.643394127382988930e+09,-2.653466843467745528e-01,1.505924885023000703e+00,1.205588362108363398e+00,2.406934453766912174e+00,9.313170900974443445e-01,-5.047764703712684931e-01,-1.432591862734574478e-02
4.233333333333333393e+00,1.643394127399501324e+09,-2.728873400699994289e-01,1.514729522199832035e+00,1.195961394067468708e+00,2.471033906596921792e+00,9.214462424768670168e-01,-5.046767711664965628e-01,2.617731157916063089e-02
4.250000000000000000e+00,1.643394127417588711e+09,-2.802013567621574053e-01,1.500289070138489889e+00,1.176707457985679328e+00,2.471033906596921792e+00,9.058880670142638314e-01,-5.039117558767176597e-01,6.551524857526093426e-02
4.266666666666666607e+00,1.643394127434105158e+09,-2.872485390192365817e-01,1.515521727772912497e+00,1.186334426026573796e+00,2.503083633011929265e+00,8.848174315653443145e-01,-5.024973480235654932e-01,1.041064933777464119e-01
4.283333333333333215e+00,1.643394127451340675e+09,-2.939899789887001069e-01,1.522741953803583792e+00,1.195961394067468708e+00,2.503083633011929265e+00,8.584638021275668995e-01,-5.004477257142522229e-01,1.417436336672856512e-01
4.299999999999999822e+00,1.643394127469884872e+09,-3.003883819409404188e-01,1.611791408181860286e+00,1.314693999905170552e+00,2.503083633011929265e+00,8.271098597262590557e-01,-4.977680472611406559e-01,1.797123096793093733e-01
4.316666666666666430e+00,1.643394127486844301e+09,-3.064083786072737681e-01,1.574867947164441340e+00,1.244096234271942159e+00,2.567183085841938883e+00,7.910896219310763477e-01,-4.944708768137148769e-01,2.158477653834755261e-01
4.333333333333333037e+00,1.643394127503820658e+09,-3.120168212090659865e-01,1.732509548834093138e+00,1.454285036498144557e+00,2.567183085841938883e+00,7.507860780652055865e-01,-4.905602330272998968e-01,2.533253820453821858e-01
4.349999999999999645e+00,1.643394127517782927e+09,-3.171830602429890900e-01,1.780233223606535242e+00,1.507233360723065463e+00,2.599232812256944136e+00,7.066283515112955493e-01,-4.860296461930861400e-01,2.902424881297989145e-01
4.366666666666666252e+00,1.643394127535760880e+09,-3.218791992589035700e-01,1.748945577473627555e+00,1.465516499212521806e+00,2.599232812256944136e+00,6.590884068069461366e-01,-4.808997609727575506e-01,3.252465026474798404e-01
4.383333333333332860e+00,1.643394127554722071e+09,-3.260803250680636145e-01,1.580062471325937690e+00,1.229655782210600012e+00,2.631282538671951166e+00,6.086773234206174221e-01,-4.752215993052986698e-01,3.560473375591302059e-01
4.400000000000000355e+00,1.643394127573912144e+09,-3.297647110484169808e-01,1.133200662997412289e+00,6.231567956342309866e-01,2.663332265086955974e+00,5.559411621694047012e-01,-4.691033493368423901e-01,3.780814513434541668e-01
4.416666666666666963e+00,1.643394127588942289e+09,-3.329139914686373714e-01,1.114357892347654477e+00,6.087163435728888405e-01,2.631282538671951166e+00,5.014564541458081948e-01,-4.626310355293802856e-01,3.985393766442164587e-01
4.433333333333333570e+00,1.643394127605957508e+09,-3.355133050308036213e-01,1.138014147017859523e+00,6.295747743281606690e-01,2.663332265086955974e+00,4.458253457266518893e-01,-4.558249983418436457e-01,4.181306643357549646e-01
4.450000000000000178e+00,1.643394127624520302e+09,-3.375514061306670310e-01,1.175318648176326475e+00,6.793141092061167896e-01,2.663332265086955974e+00,3.896704367081435527e-01,-4.486977492789522293e-01,4.370865666876047051e-01
4.466666666666666785e+00,1.643394127642544508e+09,-3.390207426513136002e-01,1.125188231393660976e+00,6.231567956342309866e-01,2.631282538671951166e+00,3.336293518144521353e-01,-4.412718511696759882e-01,4.539742949651303650e-01
4.483333333333333393e+00,1.643394127659659624e+09,-3.399174994376483738e-01,6.658330662717389936e-01,0.000000000000000000e+00,2.663332265086955974e+00,2.783490887319613472e-01,-4.336379051660290140e-01,4.620767182115450566e-01
4.500000000000000000e+00,1.643394127673766375e+09,-3.402416069421367872e-01,6.658330662717389936e-01,0.000000000000000000e+00,2.663332265086955974e+00,2.244801883977769752e-01,-4.258774782850766605e-01,4.691548455750846336e-01
4.516666666666666607e+00,1.643394127692590714e+09,-3.399967148832674368e-01,6.658330662717389936e-01,0.000000000000000000e+00,2.663332265086955974e+00,1.726707754939824091e-01,-4.180072161911768669e-01,4.752596475106135587e-01
4.533333333333333215e+00,1.643394127708056211e+09,-3.391901311135605557e-01,6.578206346679877914e-01,0.000000000000000000e+00,2.631282538671951166e+00,1.235605189428293782e-01,-4.100439404108315866e-01,4.803193909571152331e-01
4.549999999999999822e+00,1.643394127725917101e+09,-3.378327262500842032e-01,6.658330662717389936e-01,0.000000000000000000e+00,2.663332265086955974e+00,7.777456364348565854e-02,-4.020022517252748728e-01,4.846711627701456027e-01
4.566666666666666430e+00,1.643394127741231441e+09,-3.359388049735739790e-01,6.658330662717389936e-01,0.000000000000000000e+00,2.663332265086955974e+00,3.591748571853382865e-02,-3.938944158988836874e-01,4.882591694769256030e-01
4.583333333333333037e+00,1.643394127759138346e+09,-3.335259452486946663e-01,6.578206346679877914e-01,0.000000000000000000e+00,2.631282538671951166e+00,-1.432675865385500246e-03,-3.857335410419951982e-01,4.910380939334137995e-01
4.599999999999999645e+00,1.643394127778429270e+09,-3.306148070540618766e-01,6.658330662717389936e-01,0.000000000000000000e+00,2.663332265086955974e+00,-3.373025828467199339e-02,-3.775300888810793065e-01,4.933696885722823611e-01
4.616666666666666252e+00,1.643394127795565605e+09,-3.272289125327243475e-01,2.427992069754204563e-01,-5.533619035900898542e-01,2.631282538671951166e+00,-6.046763173247236139e-02,-3.693502214776200332e-01,4.882286807562055686e-01
4.633333333333332860e+00,1.643394127808600187e+09,-3.233943997784055058e-01,-3.040709607079164836e-02,-8.962704900417018949e-01,2.567183085841938883e+00,-8.118062220809585394e-02,-3.612959237386757505e-01,4.783145877126132040e-01
4.650000000000000355e+00,1.643394127827552795e+09,-3.191397527565652537e-01,-2.703501845006398563e-01,-1.194828123671496156e+00,2.503083633011929265e+00,-9.545364945582922311e-02,-3.534406040010572569e-01,4.643625374090535329e-01
4.666666666666666963e+00,1.643394127845506668e+09,-3.144955101190845537e-01,-5.263181361379914991e-01,-1.493385757301291195e+00,2.374884727351907365e+00,-1.029245309406817133e-01,-3.458522776740943772e-01,4.462868332974461172e-01
4.683333333333333570e+00,1.643394127862478256e+09,-3.094939559041615107e-01,-7.156591109716452515e-01,-1.692424179721153665e+00,2.214636095276880212e+00,-1.032889048447689362e-01,-3.385889186544789320e-01,4.253743406808904726e-01
4.700000000000000178e+00,1.643394127882426977e+09,-3.041687953161447133e-01,-7.848274464484330526e-01,-1.720549174193526154e+00,2.022337736786846030e+00,-9.630422759435908198e-02,-3.316798015724599091e-01,4.037796956981582475e-01
4.716666666666666785e+00,1.643394127897384644e+09,-2.985548189510822126e-01,-8.054184544478552032e-01,-1.694587640834413378e+00,1.862089104711819321e+00,-8.179330436861546871e-02,-3.251284523613557353e-01,3.824414838401128947e-01
4.733333333333333393e+00,1.643394127915591478e+09,-2.926875589706698921e-01,-9.341131806130318349e-01,-1.834130882639643412e+00,1.765939925466802229e+00,-5.964731437766510741e-02,-3.189445093346884308e-01,3.596948658969340018e-01
4.750000000000000000e+00,1.643394127931685448e+09,-2.866029408282508295e-01,-9.218431642799764791e-01,-1.807087618723901112e+00,1.733890199051797421e+00,-2.982829640695647613e-02,-3.131307214744346590e-01,3.380198870252313359e-01
4.766666666666666607e+00,1.643394127949838877e+09,-2.803369342141588394e-01,-9.333018826955600256e-01,-1.833049152083013889e+00,1.765939925466802229e+00,7.628935819504143248e-03,-3.076715985754455707e-01,3.171328816783079985e-01
4.783333333333333215e+00,1.643394127964174747e+09,-2.739252069130173051e-01,-6.753091449393787693e-01,-1.489058835074772436e+00,1.765939925466802229e+00,5.261547453187444962e-02,-3.025158598597942339e-01,3.015989151225316189e-01
4.799999999999999822e+00,1.643394127984534025e+09,-2.674027852519160198e-01,-2.470443920849924868e-01,-9.287224067405923655e-01,1.797989651881807038e+00,1.049476164814011347e-01,-2.975504947446131476e-01,2.942652704139573361e-01
4.816666666666666430e+00,1.643394127998496532e+09,-2.608037247655509705e-01,-4.198711410645115244e-02,-6.766791870458745972e-01,1.862089104711819321e+00,1.643667956942066466e-01,-2.926698144943418178e-01,2.914242515234819475e-01
4.833333333333333037e+00,1.643394128014870405e+09,-2.541607946125475914e-01,4.655222761779548302e-01,0.000000000000000000e+00,1.862089104711819321e+00,2.305401618087456472e-01,-2.877568548074000421e-01,2.981123324696517973e-01
4.849999999999999645e+00,1.643394128032879353e+09,-2.475051791469435325e-01,4.655222761779548302e-01,0.000000000000000000e+00,1.862089104711819321e+00,3.030618101070364223e-01,-2.827233341395170019e-01,3.058885465731853159e-01
4.866666666666666252e+00,1.643394128049829483e+09,-2.408661998811850169e-01,4.815471393854572901e-01,0.000000000000000000e+00,1.926188557541829161e+00,3.814546639355604896e-01,-2.775482429356250780e-01,3.150968187579770707e-01
4.883333333333332860e+00,1.643394128067765951e+09,-2.342710608734291100e-01,4.815471393854572901e-01,0.000000000000000000e+00,1.926188557541829161e+00,4.651730047126978462e-01,-2.722093891608009519e-01,3.255366340514555534e-01
4.900000000000000355e+00,1.643394128083734989e+09,-2.277446203342259612e-01,1.318730674821515514e+00,1.094878229638073464e+00,1.990288010371841443e+00,5.536056391823078737e-01,-2.665701338496732076e-01,3.511029839737248581e-01
4.916666666666666963e+00,1.643394128102466583e+09,-2.213091909780520450e-01,1.406165592762648187e+00,1.200774878087915720e+00,2.022337736786846030e+00,6.460796880421496580e-01,-2.604834548272518258e-01,3.792203929647167682e-01
4.933333333333333570e+00,1.643394128119313717e+09,-2.149843713461414008e-01,1.543730927486447913e+00,1.362828840109644224e+00,2.086437189616858312e+00,7.418649745993100009e-01,-2.538998054079603106e-01,4.107300085801878775e-01
4.950000000000000178e+00,1.643394128136327028e+09,-2.087869100016198354e-01,1.763125490557851727e+00,1.633988439928179659e+00,2.150536642446868374e+00,8.401789867287262625e-01,-2.467514657853079607e-01,4.469700769123118311e-01
4.966666666666666785e+00,1.643394128155220032e+09,-2.027306041492152877e-01,1.837323327442754506e+00,1.722235646969714873e+00,2.182586368861873183e+00,9.401923801812738235e-01,-2.389800683780470558e-01,4.854906079654514039e-01
4.983333333333333393e+00,1.643394128172981977e+09,-1.968262338633316177e-01,1.844924593614474695e+00,1.711004184255337845e+00,2.246685821691885465e+00,1.041034986252494798e+00,-2.305570042731256430e-01,5.251668701916460957e-01
5.000000000000000000e+00,1.643394128192906380e+09,-1.910815327237709860e-01,1.881025723767830060e+00,1.759139024459811740e+00,2.246685821691885465e+00,1.141802282024076964e+00,-2.214592449009548103e-01,5.664495775826736690e-01
5.016666666666666607e+00,1.643394128206233263e+09,-1.842706766322928513e-01,1.946799963616949736e+00,1.836154768786969482e+00,2.278735548106890274e+00,1.241562276873934501e+00,-2.116562787226504705e-01,6.097859820792174146e-01
5.033333333333333215e+00,1.643394128222190142e+09,-1.777095621828666261e-01,1.623093163241863479e+00,1.404545701620188103e+00,2.278735548106890274e+00,1.330478127482617623e+00,-2.011694542250187512e-01,6.485253457603270544e-01
5.049999999999999822e+00,1.643394128237249613e+09,-1.713925067923562917e-01,1.707710173740741633e+00,1.496001898008688213e+00,2.342835000936902556e+00,1.415305248814422434e+00,-1.900189206582404700e-01,6.894250692361347799e-01
5.066666666666666430e+00,1.643394128254317522e+09,-1.653112199823990602e-01,2.019383264064709138e+00,1.911566018440645109e+00,2.342835000936902556e+00,1.495168075984101952e+00,-1.781382949874569521e-01,7.361202992328313988e-01
5.083333333333333037e+00,1.643394128271825552e+09,-1.594550356627457699e-01,2.090382153366308060e+00,2.006231204176109895e+00,2.342835000936902556e+00,1.569217671280484616e+00,-1.654658308827941793e-01,7.844411655389484928e-01
5.099999999999999645e+00,1.643394128289854050e+09,-1.538111676310905396e-01,1.791946144098570892e+00,1.608316525152460263e+00,2.342835000936902556e+00,1.636638916056542881e+00,-1.520266009830690268e-01,8.281450199751418939e-01
5.116666666666666252e+00,1.643394128306109190e+09,-1.483649852256109791e-01,1.725349573385388080e+00,1.508837855396548022e+00,2.374884727351907365e+00,1.696657474298803869e+00,-1.378659184659537240e-01,8.710177882527631033e-01
5.133333333333332860e+00,1.643394128323163986e+09,-1.431003058685344220e-01,1.562483322263257035e+00,1.280999611762038803e+00,2.406934453766912174e+00,1.748546471213054065e+00,-1.230119396527504932e-01,9.113476393308317380e-01
5.150000000000000355e+00,1.643394128339790106e+09,-1.379997010756999765e-01,1.567296806283704269e+00,1.287417590455968375e+00,2.406934453766912174e+00,1.791632832294148603e+00,-1.074847510835610503e-01,9.518026114046065356e-01
5.166666666666666963e+00,1.643394128359021187e+09,-1.330448123798816384e-01,1.734976541426282548e+00,1.521673812784407609e+00,2.374884727351907365e+00,1.825303230915798824e+00,-9.126109005979396449e-02,9.949169465865408402e-01
5.183333333333333570e+00,1.643394128373971701e+09,-1.282166735258151169e-01,1.679621475191137581e+00,1.447867057804214319e+00,2.374884727351907365e+00,1.849009595461009958e+00,-7.432918309095198905e-02,1.036795557461901218e+00
5.200000000000000178e+00,1.643394128392946005e+09,-1.234960352433114722e-01,1.657549631667092793e+00,1.407754690967153000e+00,2.406934453766912174e+00,1.862274130393522409e+00,-5.670630003867491165e-02,1.077836403777301166e+00
5.216666666666666785e+00,1.643394128407263279e+09,-1.188636888919436807e-01,1.591775391817973562e+00,1.330738946639995479e+00,2.374884727351907365e+00,1.864693809416752890e+00,-3.841382202686582925e-02,1.117151745786070904e+00
5.233333333333333393e+00,1.643394128424351692e+09,-1.143007852967277693e-01,1.535216954577716342e+00,1.255327696986319408e+00,2.374884727351907365e+00,1.855944302952039937e+00,-1.948053893533737216e-02,1.154737816986705079e+00
5.250000000000000000e+00,1.643394128441476107e+09,-1.097891451585736033e-01,1.253216973949513147e+00,8.686444806770466931e-01,2.406934453766912174e+00,1.835783306558867123e+00,3.225264437724251199e-05,1.186708363415463374e+00
5.266666666666666607e+00,1.643394128459422112e+09,-1.053115575254085778e-01,6.017336134417280435e-01,0.000000000000000000e+00,2.406934453766912174e+00,1.804053241582735501e+00,1.997910509751438246e-02,1.206857958546067255e+00
5.283333333333333215e+00,1.643394128474383354e+09,-1.008520629486632791e-01,6.017336134417280435e-01,0.000000000000000000e+00,2.406934453766912174e+00,1.760683304214257117e+00,4.025301078663839904e-02,1.225957668151209656e+00
5.299999999999999822e+00,1.643394128492490292e+09,-9.639621812378240673e-02,5.937211818379768413e-01,0.000000000000000000e+00,2.374884727351907365e+00,1.705690844237407466e+00,6.083390464069785009e-02,1.243700308065073257e+00
5.316666666666666430e+00,1.643394128511439800e+09,-9.193133902079289599e-02,5.857087502342256391e-01,0.000000000000000000e+00,2.342835000936902556e+00,1.639182059995872187e+00,8.169776563019390259e-02,1.259917960579412188e+00
5.333333333333333037e+00,1.643394128526423454e+09,-8.744671974954025540e-02,-1.721900538361973154e-01,-9.784820123455582053e-01,2.246685821691885465e+00,1.561352001472230855e+00,1.027142495504987235e-01,1.262054175786374577e+00
5.349999999999999645e+00,1.643394128542431593e+09,-8.293382467153839754e-02,-3.421604262214882897e-01,-1.162376206972605353e+00,2.118486916031863121e+00,1.472483878813418690e+00,1.237302911003875100e-01,1.259876858446351333e+00
5.366666666666666252e+00,1.643394128561380386e+09,-7.838645156369647427e-02,-6.101972990499525684e-01,-1.466342493385548895e+00,1.958238283956836412e+00,1.372947679104146834e+00,1.446595753839127196e-01,1.251660080497062788e+00
5.383333333333332860e+00,1.643394128577809811e+09,-7.380086395547340306e-02,-7.840230658806623953e-01,-1.634010729663150530e+00,1.765939925466802229e+00,1.263198099645000960e+00,1.654138807054279237e-01,1.238892025738286495e+00
5.400000000000000355e+00,1.643394128595753908e+09,-6.917589109697322436e-02,-1.041513065781986880e+00,-1.923914518839907606e+00,1.605691293391775298e+00,1.143771811390369431e+00,1.859050887786005690e-01,1.220105130091920342e+00
5.416666666666666963e+00,1.643394128610714674e+09,-6.451299436772964246e-02,-1.331253887240259726e+00,-2.235452919149258477e+00,1.381343208486736307e+00,1.015284071500422991e+00,2.060280108421571332e-01,1.194716044432699853e+00
5.433333333333333570e+00,1.643394128626053572e+09,-5.981629930074770091e-02,-1.459137315487963882e+00,-2.373914430397859210e+00,1.285194029241721658e+00,8.784247091194723467e-01,2.256947218248990528e-01,1.165370790010483049e+00
5.450000000000000178e+00,1.643394128644543171e+09,-5.509259277007147459e-02,-1.560958662805584485e+00,-2.466943258268012418e+00,1.156995123581699536e+00,7.339535134687530382e-01,2.448423803661929077e-01,1.132439712313575431e+00
5.466666666666666785e+00,1.643394128659718752e+09,-5.035128526885754990e-02,-1.729306439355930980e+00,-2.648673991781800297e+00,1.028796217921677636e+00,5.826950580966916426e-01,2.634015918971940318e-01,1.094770311094920290e+00
5.483333333333333393e+00,1.643394128676077127e+09,-4.560433858476566071e-02,-2.050278771962035229e+00,-3.044587375508267080e+00,9.326470386766605447e-01,4.255329996241773993e-01,2.812721428303721072e-01,1.049820663956111177e+00
5.500000000000000000e+00,1.643394128696355343e+09,-4.086615955652654619e-02,-2.222683038099743325e+00,-3.231726761805203907e+00,8.044481330166385336e-01,2.634038935236715506e-01,2.983535355292987190e-01,1.000084618847583373e+00
5.516666666666666607e+00,1.643394128712783098e+09,-3.615346096592240988e-02,-2.305133782969000844e+00,-3.309611361882541569e+00,7.082989537716214423e-01,9.729057334226554055e-02,3.145785319177593076e-01,9.470622356320105295e-01
5.533333333333333215e+00,1.643394128728382587e+09,-3.148509097930280581e-02,-2.342151844459810839e+00,-3.326919050788616161e+00,6.121497745266043511e-01,-7.178485670733586455e-02,3.298986796614338246e-01,8.915098095355502572e-01
5.549999999999999822e+00,1.643394128744661808e+09,-2.688183289845443025e-02,-2.510600168581128777e+00,-3.519467089868701493e+00,5.160005952815897023e-01,-2.427683627389302656e-01,3.442537440718980712e-01,8.312652696030849997e-01
5.566666666666666430e+00,1.643394128760812044e+09,-2.236617730855780875e-02,-2.509286132808800307e+00,-3.464298831480586927e+00,3.557519632065603843e-01,-4.145816000040663529e-01,3.575895043879526169e-01,7.691983804068159847e-01
5.583333333333333037e+00,1.643394128777062654e+09,-1.796206901771321349e-02,-2.513852277600719276e+00,-3.438337298121474372e+00,2.596027839615456800e-01,-5.861297514795800190e-01,3.698750642659649479e-01,7.052464533774653876e-01
5.599999999999999645e+00,1.643394128796384335e+09,-1.369463146494568490e-02,-2.368529402802211692e+00,-3.233890222918462509e+00,2.275530575465407879e-01,-7.563095263592884976e-01,3.811001585181174600e-01,6.419407103059545650e-01
5.616666666666666252e+00,1.643394128814391375e+09,-9.589871528689689062e-03,-2.553103137702004144e+00,-3.437255567564844849e+00,9.935415188651879059e-02,-9.240172572178808608e-01,3.912302435814034030e-01,5.738586186606705608e-01
5.633333333333332860e+00,1.643394128831306219e+09,-5.674367892954763556e-03,-2.481306730680559181e+00,-3.298794056316244117e+00,-2.884475377350440711e-02,-1.088157033730614121e+00,4.002222761374661930e-01,5.053755233644215972e-01
5.650000000000000355e+00,1.643394128848503590e+09,-1.974946321219275998e-03,-2.797310728210858244e+00,-3.677399751136635864e+00,-1.570436594335263836e-01,-1.247648810435523004e+00,4.080167069776221567e-01,4.301651002134926349e-01
5.666666666666666963e+00,1.643394128864759922e+09,1.481654653406014408e-03,-2.692961856919551256e+00,-3.484851712056550532e+00,-3.172922915085532591e-01,-1.401436426115303169e+00,4.145611903623926398e-01,3.553806454448079077e-01
5.683333333333333570e+00,1.643394128880116940e+09,4.669123990723582883e-03,-2.624310093997025195e+00,-3.339899817468173104e+00,-4.775409235835813559e-01,-1.548495472955091934e+00,4.198587657807153484e-01,2.805363105772832322e-01
5.700000000000000178e+00,1.643394128895224810e+09,7.561920642630998515e-03,-2.391165948969570021e+00,-2.996991231016560508e+00,-5.736901028285972259e-01,-1.687840954696841811e+00,4.239322286729655942e-01,2.084793992905928095e-01
5.716666666666666785e+00,1.643394128913209438e+09,1.013561452610538607e-02,-2.342897181554820740e+00,-2.889899905910220834e+00,-7.018890084886192371e-01,-1.818534674549828090e+00,4.268033110047537715e-01,1.362511193570604684e-01
5.733333333333333393e+00,1.643394128930142879e+09,1.236722219932761581e-02,-2.339860002376576098e+00,-2.821750880842551101e+00,-8.941873669786521983e-01,-1.939692295621953999e+00,4.284642500226742423e-01,6.326430870583114874e-02
5.750000000000000000e+00,1.643394128948481798e+09,1.423553350152153424e-02,-2.315018326997551501e+00,-2.735212436312175477e+00,-1.054435999053679129e+00,-2.050490019089558302e+00,4.289069508788614371e-01,-9.936864585141216843e-03
5.766666666666666607e+00,1.643394128966434002e+09,1.572142548718086230e-02,-2.404670205553088191e+00,-2.812015305832883616e+00,-1.182634904713701030e+00,-2.150170828207092377e+00,4.281135920374863901e-01,-8.505752297310247012e-02
5.783333333333333215e+00,1.643394128983694315e+09,1.680816009371595421e-02,-2.442499564961370773e+00,-2.830404725295588619e+00,-1.278784083958718121e+00,-2.238050249549284665e+00,4.260612349662759035e-01,-1.610143294770695621e-01
5.799999999999999822e+00,1.643394128999651909e+09,1.748166212714507423e-02,-2.321415080116060459e+00,-2.647592261225171217e+00,-1.342883536788729293e+00,-2.313521586551844589e+00,4.227597224227535588e-01,-2.349617613780123071e-01
5.816666666666666430e+00,1.643394129016760826e+09,1.773077433193945285e-02,-2.190494472690111216e+00,-2.440981724908899864e+00,-1.439032716033745052e+00,-2.376060584443817625e+00,4.182454112391032486e-01,-3.065567011465941683e-01
5.833333333333333037e+00,1.643394129035835266e+09,1.754748652673569081e-02,-1.977733323170434154e+00,-2.135933707939326798e+00,-1.503132168863756002e+00,-2.425229490013866229e+00,4.125703352304767035e-01,-3.742643386910393111e-01
5.849999999999999645e+00,1.643394129049966812e+09,1.692713603529715991e-02,-1.612347617595000004e+00,-1.616703040757075716e+00,-1.599281348108773093e+00,-2.460680474290247055e+00,4.058217211571249483e-01,-4.353995261491083735e-01
5.866666666666666252e+00,1.643394129069312572e+09,1.586857691937556408e-02,-1.503130958798859496e+00,-1.417664618337212801e+00,-1.759529980183800024e+00,-2.482158391103776118e+00,3.980747498342235291e-01,-4.940740439912508775e-01
5.883333333333332860e+00,1.643394129085627317e+09,1.437431582435235930e-02,-1.359839787468883676e+00,-1.173193512538902583e+00,-1.919778612258826955e+00,-2.489502849606386903e+00,3.893767510621102268e-01,-5.495317558370587108e-01
5.900000000000000355e+00,1.643394129100588799e+09,1.245061257662775922e-02,-1.394524502778248465e+00,-1.198073315341385392e+00,-1.983878065088837905e+00,-2.482649584095236506e+00,3.797582728456654899e-01,-6.045328457351720752e-01
5.916666666666666963e+00,1.643394129118561983e+09,1.010754402055262513e-02,-1.120714914306209176e+00,-7.902608954919921880e-01,-2.112076970748860028e+00,-2.461631109902272740e+00,3.692714283746922344e-01,-6.537517683343401220e-01
5.933333333333333570e+00,1.643394129134016752e+09,7.359029948689192746e-03,-9.695118589434534861e-01,-5.566070952599789790e-01,-2.208226149993877119e+00,-2.426576659609468223e+00,3.579967926488326624e-01,-6.990786079176959378e-01
5.950000000000000178e+00,1.643394129152038097e+09,4.222820358810781827e-03,-5.760938323097232194e-01,0.000000000000000000e+00,-2.304375329238892878e+00,-2.377711399397595571e+00,3.460340585505495836e-01,-7.363459610145348666e-01
5.966666666666666785e+00,1.643394129168997526e+09,7.204436604322170257e-04,-6.081435587247286945e-01,0.000000000000000000e+00,-2.432574234898914778e+00,-2.315354930887823404e+00,3.334595352683979441e-01,-7.724964125592590491e-01
5.983333333333333393e+00,1.643394129183952570e+09,-3.122884151001210917e-03,-6.161559903284802298e-01,0.000000000000000000e+00,-2.464623961313920919e+00,-2.239919089347443659e+00,3.202968101339290774e-01,-8.069349387527222639e-01
6.000000000000000000e+00,1.643394129207578421e+09,-7.278388936881208249e-03,-6.321808535359829673e-01,0.000000000000000000e+00,-2.528723414143931869e+00,-2.151905054559908326e+00,3.065748094096233389e-01,-8.396143698300146951e-01
6.016666666666666607e+00,1.643394129220569372e+09,-1.171390566451043641e-02,-6.401932851397342805e-01,0.000000000000000000e+00,-2.560773140558937122e+00,-2.051899795963546325e+00,2.923253712951885408e-01,-8.702331497339679256e-01
6.033333333333333215e+00,1.643394129235555649e+09,-1.639408226262560608e-02,-6.482057167434857048e-01,0.000000000000000000e+00,-2.592822866973942819e+00,-1.940571878799973060e+00,2.775841192499297061e-01,-8.986381909477667573e-01
6.049999999999999822e+00,1.643394129253483057e+09,-2.128061850415625261e-02,-6.401932851397342805e-01,0.000000000000000000e+00,-2.560773140558937122e+00,-1.818666662943555945e+00,2.623913174598656584e-01,-9.244263882924241837e-01
6.066666666666666430e+00,1.643394129270840883e+09,-2.633253797149706296e-02,-6.482057167434857048e-01,0.000000000000000000e+00,-2.592822866973942819e+00,-1.687000930767269313e+00,2.467893533149833063e-01,-9.477445349393877061e-01
6.083333333333333037e+00,1.643394129287788391e+09,-3.150649081148522435e-02,-6.321808535359829673e-01,0.000000000000000000e+00,-2.528723414143931869e+00,-1.546456984802505819e+00,2.308235994687477255e-01,-9.680894117321269254e-01
6.099999999999999645e+00,1.643394129306185961e+09,-3.675708466020102122e-02,-5.680814007059720172e-01,0.000000000000000000e+00,-2.272325602823888069e+00,-1.397976260035507234e+00,2.145509360673683585e-01,-9.845843760097722219e-01
6.116666666666666252e+00,1.643394129321146011e+09,-4.203724081503130983e-02,-5.280192426872150069e-01,0.000000000000000000e+00,-2.112076970748860028e+00,-1.242552499419259160e+00,1.980326355000151528e-01,-9.975756044775269116e-01
6.133333333333332860e+00,1.643394129341074228e+09,-4.729857245618995787e-02,-4.559073582534527436e-01,0.000000000000000000e+00,-1.823629433013810974e+00,-1.081224544538631038e+00,1.813318516402434577e-01,-1.006493685664289872e+00
6.150000000000000355e+00,1.643394129356006384e+09,-5.249178147495162094e-02,-3.757830422159390005e-01,0.000000000000000000e+00,-1.503132168863756002e+00,-9.150687963198268493e-01,1.645176811892108404e-01,-1.011193712522186594e+00
6.166666666666666963e+00,1.643394129375980139e+09,-5.756707025381400944e-02,-2.796338629709225199e-01,0.000000000000000000e+00,-1.118535451883690079e+00,-7.451914032029569590e-01,1.476625698501822792e-01,-1.011419022286055958e+00
6.183333333333333570e+00,1.643394129390352726e+09,-6.247456456680389875e-02,-2.155344101409115420e-01,0.000000000000000000e+00,-8.621376405636461682e-01,-5.727202362751830922e-01,1.308364097203624232e-01,-1.007730439596504324e+00
6.200000000000000178e+00,1.643394129405951262e+09,-6.716474362814454924e-02,-1.434225257071493065e-01,0.000000000000000000e+00,-5.736901028285972259e-01,-3.987967124791519935e-01,1.141051990331694854e-01,-1.000036216212416340e+00
6.216666666666666785e+00,1.643394129426014423e+09,-7.158887321600747311e-02,-3.124848325463007448e-02,0.000000000000000000e+00,-1.249939330185202979e-01,-2.245675281514213084e-01,9.754072082899484242e-02,-9.877353381983425828e-01
6.233333333333333393e+00,1.643394129440023899e+09,-7.569943773620647909e-02,4.887583278288337024e-02,0.000000000000000000e+00,1.955033311315334810e-01,-5.117636580157197690e-02,8.121457393935080371e-02,-9.714475335256766986e-01
6.250000000000000000e+00,1.643394129457774639e+09,-7.945056706926580115e-02,1.450250120278998578e-01,0.000000000000000000e+00,5.801000481115994312e-01,1.202443627911405910e-01,6.519459767038954245e-02,-9.510064010097314391e-01
6.266666666666666607e+00,1.643394129475868464e+09,-8.279845406359701010e-02,2.091244648579108634e-01,0.000000000000000000e+00,8.364978594316434535e-01,2.885816744114998444e-01,4.954458788582320056e-02,-9.270612889040082960e-01
6.283333333333333215e+00,1.643394129492326021e+09,-8.570175859758952241e-02,2.571990544804194090e-01,0.000000000000000000e+00,1.028796217921677636e+00,4.527500112332458193e-01,3.431967109109053393e-02,-9.000038876807145982e-01
6.299999999999999822e+00,1.643394129511181831e+09,-8.812199423375695340e-02,3.132860757066785462e-01,0.000000000000000000e+00,1.253144302826714185e+00,6.116990159906334767e-01,1.957167468486058215e-02,-8.698394730795294683e-01
6.316666666666666430e+00,1.643394129526496649e+09,-9.002389362785169491e-02,3.453358021216840767e-01,0.000000000000000000e+00,1.381343208486736307e+00,7.644210266177924318e-01,5.347772962503861971e-03,-8.371196242115147568e-01
6.333333333333333037e+00,1.643394129543346405e+09,-9.137574903387336855e-02,3.773855285366895518e-01,0.000000000000000000e+00,1.509542114146758207e+00,9.099582337005909238e-01,-8.310788831372376700e-03,-8.020053330470171549e-01
6.349999999999999645e+00,1.643394129562753916e+09,-9.214972446046856835e-02,4.014228233479438246e-01,0.000000000000000000e+00,1.605691293391775298e+00,1.047409446748301942e+00,-2.136665756930672400e-02,-7.648022598074787348e-01
6.366666666666666252e+00,1.643394129580706596e+09,-9.232213628346164214e-02,4.254601181591980974e-01,0.000000000000000000e+00,1.701840472636792390e+00,1.175936418374123438e+00,-3.378654134101573975e-02,-7.256924337602144170e-01
6.383333333333332860e+00,1.643394129595526218e+09,-9.187369940075401642e-02,4.494974129704517596e-01,0.000000000000000000e+00,1.797989651881807038e+00,1.294769678949634795e+00,-4.554026319489369590e-02,-6.848675937076683651e-01
6.400000000000000355e+00,1.643394129610751152e+09,-9.078973632702250218e-02,4.655222761779548302e-01,0.000000000000000000e+00,1.862089104711819321e+00,1.403213838140691117e+00,-5.660201807169421701e-02,-6.426602369255570713e-01
6.416666666666666963e+00,1.643394129627968073e+09,-8.906034696353840041e-02,4.815471393854572901e-01,0.000000000000000000e+00,1.926188557541829161e+00,1.500652313911991609e+00,-6.695047509031053223e-02,-5.992751223519833248e-01
6.433333333333333570e+00,1.643394129648661852e+09,-8.668053713982631914e-02,5.055844341967115074e-01,0.000000000000000000e+00,2.022337736786846030e+00,1.586551454070125988e+00,-7.656665476445367879e-02,-5.547900112067262191e-01
6.450000000000000178e+00,1.643394129663624287e+09,-8.365030440535237144e-02,5.135968658004628207e-01,0.000000000000000000e+00,2.054387463201851283e+00,1.660464020166525057e+00,-8.543624470369683144e-02,-5.096860731680332712e-01
6.466666666666666785e+00,1.643394129679603815e+09,-7.997467994727305851e-02,5.216092974042145780e-01,0.000000000000000000e+00,2.086437189616858312e+00,1.722032008563350036e+00,-9.355072163839346644e-02,-4.641775744672105852e-01
6.483333333333333393e+00,1.643394129696509838e+09,-7.566372592075193415e-02,9.372319409100783316e-01,5.541635246744850418e-01,2.086437189616858312e+00,1.770988788639512368e+00,-1.008488413094941472e-01,-4.117424426369500901e-01
6.500000000000000000e+00,1.643394129714645147e+09,-7.073248789739844389e-02,9.757096877826741954e-01,5.734174607562744219e-01,2.182586368861873183e+00,1.807160543438421030e+00,-1.072699738569103389e-01,-3.589401395691823038e-01
6.516666666666666607e+00,1.643394129730887651e+09,-6.520090256106264581e-02,5.456465922154682957e-01,0.000000000000000000e+00,2.182586368861873183e+00,1.830467003492724398e+00,-1.128745425297671690e-01,-3.137336776345222566e-01
6.533333333333333215e+00,1.643394129750037193e+09,-5.909366120435071562e-02,5.616714554229713663e-01,0.000000000000000000e+00,2.246685821691885465e+00,1.840921470061432030e+00,-1.177282567712176903e-01,-2.688367479683316796e-01
6.549999999999999822e+00,1.643394129766183615e+09,-5.244002999975644341e-02,5.776963186304737707e-01,0.000000000000000000e+00,2.310785274521895083e+00,1.838630129537758506e+00,-1.218379931568870783e-01,-2.244549041131917444e-01
6.566666666666666430e+00,1.643394129782244682e+09,-4.527362843207979881e-02,1.100007816159260354e+00,6.857320879000463609e-01,2.342835000936902556e+00,1.823790666288817253e+00,-1.251440698968006859e-01,-1.724188526658101961e-01
6.583333333333333037e+00,1.643394129797100306e+09,-3.763216767990461287e-02,1.132879873438328744e+00,7.081950133288009708e-01,2.406934453766912174e+00,1.796690186627723396e+00,-1.275892691848012350e-01,-1.211474857100421215e-01
6.599999999999999645e+00,1.643394129817096472e+09,-2.955715111930383790e-02,1.234344078008772216e+00,8.221141351460555802e-01,2.471033906596921792e+00,1.757702471951421597e+00,-1.291783980330343529e-01,-6.969091436247243365e-02
6.616666666666666252e+00,1.643394129834768057e+09,-2.109353948897567388e-02,1.292898091827221707e+00,8.895029114323191877e-01,2.503083633011929265e+00,1.707284584263051297e+00,-1.299159008003170634e-01,-1.895036699368517208e-02
6.633333333333332860e+00,1.643394129849729538e+09,-1.228938359901504337e-02,1.652294856923631095e+00,1.358015356089196768e+00,2.535133359426934074e+00,1.645972852293677402e+00,-1.297735644343293027e-01,3.587842512728219718e-02
6.649999999999999467e+00,1.643394129867659330e+09,-3.195427782202015649e-03,1.545987043041757270e+00,1.205588362108363398e+00,2.567183085841938883e+00,1.574378271207298674e+00,-1.287495598140123154e-01,8.686050907778281038e-02
6.666666666666666963e+00,1.643394129884637356e+09,6.135312426163611749e-03,1.413616232479454116e+00,1.029093948025292748e+00,2.567183085841938883e+00,1.493181353376261011e+00,-1.269123935466039965e-01,1.334699692413030547e-01
6.683333333333333570e+00,1.643394129901973009e+09,1.564799463895339554e-02,1.378307307899178991e+00,9.713321397799241641e-01,2.599232812256944136e+00,1.403126471917838458e+00,-1.243221559764745715e-01,1.772369613347905826e-01
6.700000000000000178e+00,1.643394129917295218e+09,2.528641203751991196e-02,1.327354560252450799e+00,8.927119007792839733e-01,2.631282538671951166e+00,1.305015742552896096e+00,-1.210291023787300052e-01,2.178167461171351404e-01
6.716666666666666785e+00,1.643394129934659958e+09,3.499346971768552833e-02,1.292456801104207020e+00,8.461815552482923053e-01,2.631282538671951166e+00,1.199702492854513913e+00,-1.170846899492384574e-01,2.554083219202889499e-01
6.733333333333333393e+00,1.643394129953017235e+09,4.471167067339038015e-02,1.262372525976410920e+00,8.060691884112308747e-01,2.631282538671951166e+00,1.088084371071184941e+00,-1.125385154293348372e-01,2.900364290178452653e-01
6.750000000000000000e+00,1.643394129969260454e+09,5.438360702615022135e-02,1.156475877526568663e+00,6.648736571447746435e-01,2.631282538671951166e+00,9.710961494109000558e-01,-1.074507736120420970e-01,3.204082209828436612e-01
6.766666666666666607e+00,1.643394129985215902e+09,6.395245204611769985e-02,6.498082030642360341e-01,0.000000000000000000e+00,2.599232812256944136e+00,8.497022789387730368e-01,-1.019477784030312084e-01,3.398970671405495692e-01
6.783333333333333215e+00,1.643394130000778675e+09,7.336244849019626924e-02,1.145645538480562164e+00,6.504332050834324974e-01,2.631282538671951166e+00,7.248892550542195279e-01,-9.607141483750834821e-02,3.651962834672730640e-01
6.799999999999999822e+00,1.643394130019630909e+09,8.255938880468284558e-02,6.578206346679877914e-01,0.000000000000000000e+00,2.631282538671951166e+00,5.976578538600448853e-01,-8.986184389066563527e-02,3.799113539958975383e-01
6.816666666666666430e+00,1.643394130036630392e+09,9.149108280414564032e-02,6.498082030642360341e-01,0.000000000000000000e+00,2.599232812256944136e+00,4.690153006053784379e-01,-8.342792907592519458e-02,3.921244975756506546e-01
6.833333333333333037e+00,1.643394130053628445e+09,1.001078085440748888e-01,6.498082030642360341e-01,0.000000000000000000e+00,2.599232812256944136e+00,3.399674317703439419e-01,-7.680997290970878466e-02,4.020028019900105942e-01
6.849999999999999645e+00,1.643394130070999146e+09,1.083627422514050753e-01,6.417957714604847208e-01,0.000000000000000000e+00,2.567183085841938883e+00,2.115109122605978165e-01,-7.004759189254294860e-02,4.094621990348628060e-01
6.866666666666666252e+00,1.643394130084963083e+09,1.162123633628758673e-01,6.337833398567335186e-01,0.000000000000000000e+00,2.535133359426934074e+00,8.462556859534620113e-02,-6.318055003496834965e-02,4.145686389848228792e-01
6.883333333333332860e+00,1.643394130104554415e+09,1.236168309446661479e-01,6.257709082529823164e-01,0.000000000000000000e+00,2.503083633011929265e+00,-3.973310209153124717e-02,-5.624738931162602540e-02,4.174027750308380580e-01
6.899999999999999467e+00,1.643394130120908499e+09,1.305403280257429466e-01,6.177584766492304480e-01,0.000000000000000000e+00,2.471033906596921792e+00,-1.606411889522826320e-01,-4.928519100613955317e-02,4.180591981869674068e-01
6.916666666666666963e+00,1.643394130136976004e+09,1.369513706693753496e-01,6.097460450454792458e-01,0.000000000000000000e+00,2.438984180181916983e+00,-2.772133339355729031e-01,-4.232935066409376779e-02,4.166455696967533706e-01
6.933333333333333570e+00,1.643394130153673649e+09,1.428230789296429937e-01,6.017336134417280435e-01,0.000000000000000000e+00,2.406934453766912174e+00,-3.886093540480672903e-01,-3.541336830074488101e-02,4.132816583232988283e-01
6.950000000000000178e+00,1.643394130171012640e+09,1.481334071893117554e-01,5.857087502342256391e-01,0.000000000000000000e+00,2.342835000936902556e+00,-4.940404683658392582e-01,-2.856976206205499857e-02,4.079658567824153703e-01
6.966666666666666785e+00,1.643394130188596487e+09,1.528653317489834795e-01,5.456465922154682957e-01,0.000000000000000000e+00,2.182586368861873183e+00,-5.927750820488837391e-01,-2.183318897391495900e-02,4.004438088637183868e-01
6.983333333333333393e+00,1.643394130205494881e+09,1.570069939312695451e-01,5.055844341967115074e-01,0.000000000000000000e+00,2.022337736786846030e+00,-6.841440832407259531e-01,-1.523909773936524964e-02,3.908737234784350756e-01
7.000000000000000000e+00,1.643394130224470854e+09,1.605517973742117688e-01,4.254601181591980974e-01,0.000000000000000000e+00,1.701840472636792390e+00,-7.675456127062251221e-01,-8.825772374310545190e-03,3.787589732042632718e-01
7.016666666666666607e+00,1.643394130241399765e+09,1.634984586113465421e-01,3.533482337254352790e-01,0.000000000000000000e+00,1.413392934901741116e+00,-8.424492703450163766e-01,-2.632992078500172306e-03,3.644145089647932156e-01
7.033333333333333215e+00,1.643394130256385803e+09,1.658510104676285957e-01,2.972612124991761418e-01,0.000000000000000000e+00,1.189044849996704567e+00,-9.083997272782373678e-01,3.305839200500690356e-03,3.482900357728079821e-01
7.049999999999999822e+00,1.643394130274359703e+09,1.676187582367756335e-01,2.171368964616620933e-01,0.000000000000000000e+00,8.685475858466483734e-01,-9.650197170092793542e-01,8.959269188173833026e-03,3.301718921093412251e-01
7.066666666666666430e+00,1.643394130290316820e+09,1.688161890423248157e-01,1.930996016504084034e-01,0.000000000000000000e+00,7.723984066016336136e-01,-1.012012384163502032e+00,1.430342190804385211e-02,3.111791930142530083e-01
7.083333333333333037e+00,1.643394130305560112e+09,1.694628352176046904e-01,-2.517387538466906438e-01,-5.717513230527947465e-01,7.082989537716214423e-01,-1.049162974480132293e+00,1.926708037037716537e-02,2.845338390798060058e-01
7.099999999999999645e+00,1.643394130324526310e+09,1.695830929647961782e-01,-3.438245261546438725e-01,-6.517993842433916774e-01,5.801000481115994312e-01,-1.076339855018715541e+00,2.377385725293059207e-02,2.563576558443632636e-01
7.116666666666666252e+00,1.643394130339440107e+09,1.692059979662366986e-01,-3.792199918105099710e-01,-6.669436120362074449e-01,4.839508688665823399e-01,-1.093494858911465917e+00,2.780766449297233239e-02,2.277786010922885906e-01
7.133333333333332860e+00,1.643394130356422901e+09,1.683649600181666428e-01,-6.197732830158884099e-01,-9.449483650900378784e-01,3.557519632065603843e-01,-1.100662954398536453e+00,3.133488610557950971e-02,1.955774421894410087e-01
7.149999999999999467e+00,1.643394130373586416e+09,1.670974591344209781e-01,-7.044568264956199144e-01,-1.004443545704670981e+00,1.955033311315334810e-01,-1.097961243282864929e+00,3.431854600501497987e-02,1.625534811270308022e-01
7.166666666666666963e+00,1.643394130390895367e+09,1.654447059215869154e-01,-7.495878671611522215e-01,-1.032568540177042582e+00,9.935415188651879059e-02,-1.085587299291365326e+00,3.675184341285275824e-02,1.295339309449843879e-01
7.183333333333333570e+00,1.643394130408204317e+09,1.634512693544427075e-01,-7.040546362117344747e-01,-9.611743234394831692e-01,6.730442547151148369e-02,-1.063816862088155402e+00,3.864867167729788000e-02,9.817257770887444224e-02
7.200000000000000178e+00,1.643394130424161911e+09,1.611646753780253682e-01,-6.188683548771463094e-01,-8.475926149933655784e-01,6.730442547151148369e-02,-1.033000907810968982e+00,4.004316465356302229e-02,6.924693035447404554e-02
7.216666666666666785e+00,1.643394130438076019e+09,1.586349800275696498e-01,-5.473735905686154535e-01,-7.415830204436562045e-01,3.525469905650659153e-02,-9.935621219529147119e-01,4.097488092940213683e-02,4.263295220327609908e-02
7.233333333333333393e+00,1.643394130457349062e+09,1.559143209873494473e-01,-7.211188443376101778e-03,0.000000000000000000e+00,-2.884475377350440711e-02,-9.459908051502222692e-01,4.154788491318365390e-02,2.617324832626793940e-02
7.250000000000000000e+00,1.643394130474278688e+09,1.530564517019593063e-01,-2.323605165087885144e-02,0.000000000000000000e+00,-9.294420660351540575e-02,-8.908402469235053855e-01,4.185423798204609969e-02,1.063229028116575992e-02
7.266666666666666607e+00,1.643394130490444899e+09,1.501162623069912661e-01,-3.124848325463007448e-02,0.000000000000000000e+00,-1.249939330185202979e-01,-8.287216066213189958e-01,4.191119478491271699e-02,-3.757501352966676617e-03
7.283333333333333215e+00,1.643394130510077715e+09,1.471492917589934113e-01,-3.124848325463007448e-02,0.000000000000000000e+00,-1.249939330185202979e-01,-7.602983446958235803e-01,4.173975990748944598e-02,-1.677851360805096559e-02
7.299999999999999822e+00,1.643394130525429487e+09,1.442112356159721276e-01,-3.124848325463007448e-02,0.000000000000000000e+00,-1.249939330185202979e-01,-6.862802509717118582e-01,4.136333004389596002e-02,-2.836089598156317504e-02
7.316666666666666430e+00,1.643394130543647766e+09,1.413574539489403925e-01,-1.522362004712732655e-02,0.000000000000000000e+00,-6.089448018850930622e-02,-6.074171197226678753e-01,4.080856621565068926e-02,-3.818347781614782332e-02
7.333333333333333037e+00,1.643394130559786081e+09,1.386424838518518499e-01,3.285096957538091722e-02,0.000000000000000000e+00,1.314038783015236689e-01,-5.244921241194162587e-01,4.010954311814291656e-02,-4.567847396104064012e-02
7.349999999999999645e+00,1.643394130577738285e+09,1.361195609619361424e-01,7.291312759413763611e-02,0.000000000000000000e+00,2.916525103765505444e-01,-4.383149449396091524e-01,3.930407487107124426e-02,-5.096303600306015952e-02
7.366666666666666252e+00,1.643394130591670513e+09,1.338401543055131038e-01,1.049628540091431389e-01,0.000000000000000000e+00,4.198514160365725556e-01,-3.497147103117774769e-01,3.842792472913209023e-02,-5.416608346616491598e-02
7.383333333333332860e+00,1.643394130610196114e+09,1.318535186468516307e-01,5.843340354949519977e-01,6.071118488994061702e-01,5.160005952815897023e-01,-2.595328046919522791e-01,3.757749982590330440e-02,-4.790230471621946540e-02
7.399999999999999467e+00,1.643394130626640797e+09,1.302062683409337118e-01,8.791298064563706216e-01,9.681231504329593784e-01,6.121497745266043511e-01,-1.686156062273084788e-01,3.688388094672401252e-02,-3.536678249988913642e-02
7.416666666666666963e+00,1.643394130645994663e+09,1.289419764768413579e-01,1.378087482854771562e+00,1.590667083744153221e+00,7.403486801866263622e-01,-7.780721214322777746e-02,3.647891480916482659e-02,-1.329047851713755293e-02
7.433333333333333570e+00,1.643394130660961628e+09,1.281008028490407957e-01,1.866214820207166447e+00,2.198770564994005472e+00,8.685475858466483734e-01,1.205778820930486495e-02,3.651867047128196098e-02,1.797430929435317112e-02
7.450000000000000178e+00,1.643394130676534891e+09,1.277191540115945600e-01,2.178649990813231074e+00,2.572617823915418267e+00,9.967464915066702735e-01,1.001614334852027888e-01,3.713051024327147093e-02,5.534265992733755635e-02
7.466666666666666785e+00,1.643394130693489075e+09,1.278293783580043141e-01,2.438929042767455702e+00,2.866240349162707535e+00,1.156995123581699536e+00,1.857093454486304918e-01,3.840776031672289703e-02,9.780938299082089782e-02
7.483333333333333393e+00,1.643394130710065365e+09,1.284594988301088758e-01,2.492639447274474840e+00,2.895121253285392715e+00,1.285194029241721658e+00,2.679374622594358213e-01,4.040569947931366840e-02,1.418210589871286287e-01
7.500000000000000000e+00,1.643394130729991198e+09,1.296329854965256601e-01,2.606929567469117082e+00,3.015458353796577118e+00,1.381343208486736307e+00,3.461184950295194129e-01,4.315767187221211665e-02,1.882865543025407928e-01
7.516666666666666607e+00,1.643394130746307611e+09,1.313685698580896732e-01,2.653449871236446711e+00,3.066802183348015021e+00,1.413392934901741116e+00,4.195680550506188933e-01,4.669422164708415812e-02,2.359669699657865327e-01
7.533333333333333215e+00,1.643394130761315823e+09,1.336801023383496489e-01,2.757731983249146257e+00,3.195161757226612220e+00,1.445442661316748589e+00,4.876504018317648903e-01,5.104266643859457081e-02,2.857082315922913063e-01
7.549999999999999822e+00,1.643394130778422117e+09,1.365764540053233389e-01,2.639801624748185027e+00,3.037921279225330728e+00,1.445442661316748589e+00,5.497837652203858561e-01,5.620555526053207240e-02,3.337050992698299967e-01
7.566666666666666430e+00,1.643394130796710014e+09,1.400614631503804275e-01,2.690343206962882761e+00,3.105310055511594669e+00,1.445442661316748589e+00,6.054451983910205115e-01,6.217643133925981197e-02,3.826640299470006612e-01
7.583333333333333037e+00,1.643394130812650204e+09,1.441339269254235667e-01,2.569594941019667012e+00,2.933629125448971475e+00,1.477492387731753398e+00,6.541749223414494718e-01,6.894658012705094652e-02,4.296233788818947796e-01
7.599999999999999645e+00,1.643394130831689358e+09,1.487876378145654988e-01,2.606899442178134407e+00,2.983368460326927707e+00,1.477492387731753398e+00,6.955801267066235027e-01,7.650377010551820400e-02,4.771075150515068364e-01
7.616666666666666252e+00,1.643394130846746683e+09,1.540114642953625823e-01,2.722011893236839342e+00,3.126168486266866609e+00,1.509542114146758207e+00,7.293381961527312107e-01,8.486636589147225629e-02,5.262674207553789119e-01
7.633333333333332860e+00,1.643394130861985922e+09,1.597894746314460768e-01,2.722423058668871132e+00,3.137399948981244080e+00,1.477492387731753398e+00,7.551993363113215230e-01,9.404513219240961952e-02,5.750490277041114817e-01
7.649999999999999467e+00,1.643394130880545616e+09,1.661011023370531081e-01,2.503790575879563995e+00,2.824523487652164100e+00,1.541591840561763238e+00,7.729885781188274851e-01,1.040024469672740787e-01,6.197046988292201908e-01
7.666666666666666963e+00,1.643394130898596764e+09,1.729213514683488051e-01,2.253870446957349394e+00,2.469930164812540685e+00,1.605691293391775298e+00,7.826071445008380145e-01,1.146646644922577202e-01,6.596504411618729913e-01
7.683333333333333570e+00,1.643394130914551258e+09,1.802210395302713541e-01,2.236612087453751840e+00,2.436235776669408715e+00,1.637741019806780329e+00,7.840331685423469477e-01,1.259849402935155627e-01,6.986742529605500795e-01
7.700000000000000178e+00,1.643394130930588007e+09,1.879670754443663050e-01,2.189680618254390421e+00,2.373660484403593784e+00,1.637741019806780329e+00,7.773217575732866980e-01,1.379428137883521865e-01,7.361664190628414151e-01
7.716666666666666785e+00,1.643394130947543383e+09,1.961227697060256570e-01,2.255866023535541220e+00,2.461907691445128332e+00,1.637741019806780329e+00,7.626044029304337446e-01,1.505274870743726900e-01,7.738895862179204777e-01
7.733333333333333393e+00,1.643394130964512110e+09,2.046481735716595696e-01,2.408282975752713995e+00,2.654447052263023910e+00,1.669790746221785138e+00,7.400877404897864276e-01,1.637536113631480328e-01,8.131363071998534142e-01
7.750000000000000000e+00,1.643394130984908581e+09,2.135004438603337329e-01,2.386592172369718323e+00,2.593476254670690206e+00,1.765939925466802229e+00,7.100516723546619335e-01,1.776212823502996141e-01,8.508793669581081742e-01
7.766666666666666607e+00,1.643394131000925064e+09,2.226342297327066067e-01,2.257009143958688568e+00,2.399332399179312958e+00,1.830039378296814512e+00,6.728468652921086868e-01,1.920897544241176591e-01,8.852418283718034298e-01
7.783333333333333215e+00,1.643394131018371105e+09,2.320020776246857763e-01,2.066465359718985262e+00,2.134590778054707094e+00,1.862089104711819321e+00,6.288916465913914067e-01,2.070937989085532560e-01,9.151604006592074514e-01
7.799999999999999822e+00,1.643394131033083916e+09,2.415548503658641877e-01,1.790482234116341109e+00,1.755930035112846621e+00,1.894138831126824352e+00,5.786683229335574108e-01,2.225472980987732718e-01,9.391927440864857868e-01
7.816666666666666430e+00,1.643394131051667452e+09,2.512421564047018219e-01,9.641775190365358128e-01,6.648736571447746435e-01,1.862089104711819321e+00,5.227189525696611661e-01,2.382761596123481040e-01,9.482454904330142043e-01
7.833333333333333037e+00,1.643394131068288326e+09,2.610127849946054512e-01,4.575098445742036279e-01,0.000000000000000000e+00,1.830039378296814512e+00,4.616406055710690626e-01,2.540762324980828657e-01,9.477645917163672884e-01
7.849999999999999645e+00,1.643394131085216284e+09,2.708151431679545751e-01,4.575098445742036279e-01,0.000000000000000000e+00,1.830039378296814512e+00,3.960801511004903852e-01,2.698593015844932830e-01,9.462080225578684001e-01
7.866666666666666252e+00,1.643394131102166414e+09,2.805976903389234001e-01,4.494974129704517596e-01,0.000000000000000000e+00,1.797989651881807038e+00,3.267286145260330232e-01,2.856059572958171144e-01,9.433984673048193548e-01
7.883333333333332860e+00,1.643394131120577335e+09,2.903093664303191823e-01,-6.328887245237466153e-02,-6.409820786770946688e-01,1.669790746221785138e+00,2.543151507283029078e-01,3.012253470620700480e-01,9.309628488431652693e-01
7.899999999999999467e+00,1.643394131136239290e+09,2.999000095139348065e-01,-5.858721962251879356e-01,-1.262977148739166777e+00,1.445442661316748589e+00,1.796006831075788179e-01,3.165566950654740142e-01,9.088603089544677882e-01
7.916666666666666963e+00,1.643394131151943207e+09,3.093207590870237222e-01,-6.347580837651688457e-01,-1.264058879295796523e+00,1.253144302826714185e+00,1.033712605559032327e-01,3.315054392288455110e-01,8.850551177376084766e-01
7.933333333333333570e+00,1.643394131169265747e+09,3.185244412779810741e-01,-1.069319042167091949e+00,-1.725957826976674436e+00,9.005973122616556248e-01,2.643118699720489739e-02,3.459900694123996812e-01,8.531890233012229263e-01
7.950000000000000178e+00,1.643394131184833527e+09,3.274659324803590454e-01,-1.499213308206125417e+00,-2.203001002450368340e+00,6.121497745266043511e-01,-5.040402000186877673e-02,3.598780096552184338e-01,8.134741275882708678e-01
7.966666666666666785e+00,1.643394131205154896e+09,3.361024981537440448e-01,-2.051412464641526601e+00,-2.821750880842551101e+00,2.596027839615456800e-01,-1.263147836033405302e-01,3.730227655551362487e-01,7.640339175509386349e-01
7.983333333333333393e+00,1.643394131221112490e+09,3.443941038003511257e-01,-2.773675623683490077e+00,-3.720668973401823898e+00,6.730442547151148369e-02,-2.004846761249614306e-01,3.852403429304323002e-01,7.022470018455017060e-01
8.000000000000000000e+00,1.643394131241065741e+09,3.523036954245896690e-01,-3.477989680970091424e+00,-4.584971688148946178e+00,-1.570436594335263836e-01,-2.721076220921000988e-01,3.963294996108719381e-01,6.286562234473589417e-01
8.016666666666665719e+00,1.643394131258014202e+09,3.597974471063014601e-01,-3.772799385075140233e+00,-4.924635082930668872e+00,-3.172922915085532591e-01,-3.403950364569507947e-01,4.061521565578631310e-01,5.502803261414995761e-01
8.033333333333333215e+00,1.643394131271978855e+09,3.668449736635703284e-01,-4.208774926820365359e+00,-5.452519594565958805e+00,-4.775409235835813559e-01,-4.045828389799848712e-01,4.146102910571224376e-01,4.649328955455677703e-01
8.050000000000000711e+00,1.643394131288660049e+09,3.734195067443736860e-01,-4.365764532526098307e+00,-5.619106100286930250e+00,-6.057398292436033671e-01,-4.639382866964228413e-01,4.216278749227541089e-01,3.774202646928941363e-01
8.066666666666666430e+00,1.643394131305733919e+09,3.794980330643384914e-01,-4.716553792936735157e+00,-6.033408903476103369e+00,-7.659884613186302982e-01,-5.177665677865137539e-01,4.271431162523562919e-01,2.846663506845711344e-01
8.083333333333333925e+00,1.643394131322691202e+09,3.850613938964883576e-01,-5.054462834238785618e+00,-6.441221323325496684e+00,-8.941873669786521983e-01,-5.654171020216919308e-01,4.310720165510811275e-01,1.870727847815050193e-01
8.099999999999999645e+00,1.643394131340742111e+09,3.900943453143588258e-01,-4.973842697696116311e+00,-6.301678081520265984e+00,-9.903365462236681793e-01,-6.062894952551856065e-01,4.333933270682459593e-01,9.174927104848518145e-02
8.116666666666667140e+00,1.643394131358185768e+09,3.945855790881844238e-01,-5.495205615917870823e+00,-6.964778912734266747e+00,-1.086485725468685271e+00,-6.398390981461039573e-01,4.340624336935061667e-01,-1.117058081117457136e-02
8.133333333333332860e+00,1.643394131375044823e+09,3.985277045309664756e-01,-5.690326223744802903e+00,-7.182206754616833777e+00,-1.214684631128707171e+00,-6.655821224305765726e-01,4.329999190006597609e-01,-1.160398718879178392e-01
8.150000000000000355e+00,1.643394131393437147e+09,4.019171919832999484e-01,-5.787380331128560762e+00,-7.279562504713505966e+00,-1.310833810373723152e+00,-6.831002715557668026e-01,4.301882426114406743e-01,-2.210695388767708602e-01
8.166666666666666075e+00,1.643394131409393787e+09,4.047542790087671483e-01,-5.474930085330766083e+00,-6.852278934844778568e+00,-1.342883536788729293e+00,-6.920448463464329292e-01,4.256824988771387153e-01,-3.193467106704221958e-01
8.183333333333333570e+00,1.643394131428342581e+09,4.070428407418869021e-01,-5.258212993794700196e+00,-6.552639570658354451e+00,-1.374933263203734102e+00,-6.921402905469453692e-01,4.195822962616327922e-01,-4.124190627939436915e-01
8.199999999999999289e+00,1.643394131443376780e+09,4.087902261841634410e-01,-5.343298727558316585e+00,-6.655403973538176032e+00,-1.406982989618740243e+00,-6.831871455429479045e-01,4.119332275059697790e-01,-5.052114252566350938e-01
8.216666666666666785e+00,1.643394131459327936e+09,4.100070625773981070e-01,-5.086217835290578471e+00,-6.323312692652860001e+00,-1.374933263203734102e+00,-6.650643882791134054e-01,4.027884471687246393e-01,-5.919213486455514595e-01
8.233333333333332504e+00,1.643394131478228092e+09,4.107070302936894901e-01,-4.932071230970846543e+00,-6.117783886893217726e+00,-1.374933263203734102e+00,-6.377311313166552642e-01,3.922355439485419870e-01,-6.741984847968272021e-01
8.250000000000000000e+00,1.643394131494515896e+09,4.109066109654330723e-01,-5.349889658469065168e+00,-6.674875123557509227e+00,-1.374933263203734102e+00,-6.012276690761786391e-01,3.802700518716706224e-01,-7.614182815123765602e-01
8.266666666666665719e+00,1.643394131511686087e+09,4.106248118334346886e-01,-4.975881318514349338e+00,-6.176197336951221750e+00,-1.374933263203734102e+00,-5.556758595482296226e-01,3.669208932152442926e-01,-8.402617424903264798e-01
8.283333333333333215e+00,1.643394131530476570e+09,4.098828695143267864e-01,-4.383734386330565336e+00,-5.397351336177844239e+00,-1.342883536788729293e+00,-5.012788360836977208e-01,3.523578677477839372e-01,-9.071156040631038753e-01
8.300000000000000711e+00,1.643394131547794819e+09,4.087039365779109867e-01,-4.083554156865825568e+00,-4.997111030224858474e+00,-1.342883536788729293e+00,-4.383200492562355777e-01,3.367400020849554143e-01,-9.668623085023096975e-01
8.316666666666666430e+00,1.643394131563892603e+09,4.071127544787323527e-01,-4.124119052739439795e+00,-5.051197558056343517e+00,-1.342883536788729293e+00,-3.671616441769884887e-01,3.201388358501925935e-01,-1.025115820549487244e+00
8.333333333333333925e+00,1.643394131579811811e+09,4.051353165029485948e-01,-3.866226862554229537e+00,-4.718024546614398851e+00,-1.310833810373723152e+00,-2.882421839942871378e-01,3.026213443453357188e-01,-1.076839479820439038e+00
8.349999999999999645e+00,1.643394131596305609e+09,4.027985244701191569e-01,-3.514425209084179436e+00,-4.281005401736003080e+00,-1.214684631128707171e+00,-2.020737355859529849e-01,2.843094285992626702e-01,-1.120469213152201604e+00
8.366666666666667140e+00,1.643394131610730171e+09,4.001298429692913272e-01,-3.195987317801463945e+00,-3.899154515245723207e+00,-1.086485725468685271e+00,-1.092383386064086359e-01,2.653331820633196281e-01,-1.156580060889723205e+00
8.383333333333332860e+00,1.643394131629671097e+09,3.971569549094345342e-01,-2.893165182092663379e+00,-3.559491120464000513e+00,-8.941873669786521983e-01,-1.038388404415924171e-02,2.458155554844656532e-01,-1.185454918746482900e+00
8.400000000000000355e+00,1.643394131644654512e+09,3.939074221258421216e-01,-2.444919624014383785e+00,-3.004563344912968503e+00,-7.659884613186302982e-01,9.378056676192292329e-02,2.258969686305043467e-01,-1.204721982846729267e+00
8.416666666666666075e+00,1.643394131663443089e+09,3.904083547072697002e-01,-2.396643939249933020e+00,-2.982928733780374486e+00,-6.377895556586082870e-01,2.024899871467349399e-01,2.056816080791004364e-01,-1.221075854830378615e+00
8.433333333333333570e+00,1.643394131682132244e+09,3.866860925939482607e-01,-2.335186392663983312e+00,-2.922351822609112304e+00,-5.736901028285972259e-01,3.149290744046987500e-01,1.852199604894301244e-01,-1.234285162545029735e+00
8.449999999999999289e+00,1.643394131696126223e+09,3.827659028456837920e-01,-1.709166043088306441e+00,-2.119707749589881729e+00,-4.775409235835813559e-01,4.302383795923749865e-01,1.646423750691729804e-01,-1.235023038183038047e+00
8.466666666666666785e+00,1.643394131713550806e+09,3.786716957934870287e-01,-1.396507784798867613e+00,-1.756246282562305749e+00,-3.172922915085532591e-01,5.475208304770167178e-01,1.441119772626461293e-01,-1.228642422948541979e+00
8.483333333333332504e+00,1.643394131729940176e+09,3.744257630696233852e-01,-1.357256924697582967e+00,-1.757328013118935273e+00,-1.570436594335263836e-01,6.658485970075249671e-01,1.237088065881385424e-01,-1.219762724402202014e+00
8.500000000000000000e+00,1.643394131747396708e+09,3.700485402619108077e-01,-1.334232022945743834e+00,-1.780044354808159035e+00,3.204972641501691987e-03,7.842702458265848886e-01,1.034719410891519475e-01,-1.208691888521868041e+00
8.516666666666665719e+00,1.643394131765121937e+09,3.655583966611468671e-01,-8.406543290599893803e-01,-1.175356973652161852e+00,1.634536047165285888e-01,9.018181279079646728e-01,8.350246938161508259e-02,-1.187703020166865020e+00
8.533333333333333215e+00,1.643394131781693459e+09,3.609714542685449334e-01,-4.282064269214614916e-01,-6.788426481591338657e-01,3.237022367915554644e-01,1.017515941406078595e+00,6.395286090346480323e-02,-1.158331586447304495e+00
8.550000000000000711e+00,1.643394131798413754e+09,3.563014379062322545e-01,-3.725285133287888351e-01,-6.366551564505759098e-01,4.198514160365725556e-01,1.130386410266881470e+00,4.491199951024493764e-02,-1.126659760105116481e+00
8.566666666666666430e+00,1.643394131817362547e+09,3.515595579314660379e-01,-3.007251889576423309e-01,-5.836503591757212783e-01,5.480503216965945112e-01,1.239459018078113761e+00,2.641961003494206969e-02,-1.092521806811139085e+00
8.583333333333333925e+00,1.643394131835316658e+09,3.467544266978773715e-01,1.690623068391541306e-01,0.000000000000000000e+00,6.762492273566165224e-01,1.343777736046057214e+00,8.570767133436990592e-03,-1.049458963194880523e+00
8.599999999999999645e+00,1.643394131849595785e+09,3.418920095383887192e-01,1.930996016504084034e-01,0.000000000000000000e+00,7.723984066016336136e-01,1.442408683877212106e+00,-8.549366570362818690e-03,-1.005080358065620461e+00
8.616666666666667140e+00,1.643394131865327597e+09,3.369756106682872954e-01,2.091244648579108634e-01,0.000000000000000000e+00,8.364978594316434535e-01,1.534447662719741645e+00,-2.492106061864103259e-02,-9.596491285577146702e-01
8.633333333333332860e+00,1.643394131881418705e+09,3.320058940271817249e-01,2.331617596691651362e-01,0.000000000000000000e+00,9.326470386766605447e-01,1.619027500178563894e+00,-4.052684024003669339e-02,-9.131735279388568660e-01
8.650000000000000355e+00,1.643394131897386312e+09,3.269809386990492617e-01,2.491866228766675684e-01,0.000000000000000000e+00,9.967464915066702735e-01,1.695325148752365951e+00,-5.535169411953867746e-02,-8.659401445322043589e-01
8.666666666666666075e+00,1.643394131914330721e+09,3.218963281742940885e-01,2.812363492916730712e-01,0.000000000000000000e+00,1.124945397166692285e+00,1.762568480842059415e+00,-6.938213443396229474e-02,-8.178462903822185659e-01
8.683333333333333570e+00,1.643394131931304455e+09,3.167452723504545209e-01,3.293109389141816168e-01,0.000000000000000000e+00,1.317243755656726467e+00,1.820042725732617495e+00,-8.260307480199668984e-02,-7.688027889367374801e-01
8.699999999999999289e+00,1.643394131949523926e+09,3.115187608127977237e-01,3.613606653291871473e-01,0.000000000000000000e+00,1.445442661316748589e+00,1.867096496638366077e+00,-9.500247157764370176e-02,-7.192624394616312644e-01
8.716666666666666785e+00,1.643394131966524601e+09,3.062057455960092156e-01,3.934103917441926224e-01,0.000000000000000000e+00,1.573641566976770489e+00,1.903147359003475980e+00,-1.065736323125251184e-01,-6.694153162142887359e-01
8.733333333333332504e+00,1.643394131985362530e+09,3.007933513072698073e-01,4.254601181591980974e-01,0.000000000000000000e+00,1.701840472636792390e+00,1.927686894741420298e+00,-1.173130764323610520e-01,-6.194567552127758781e-01
8.750000000000000000e+00,1.643394132000566721e+09,2.952671101922362817e-01,4.575098445742036279e-01,0.000000000000000000e+00,1.830039378296814512e+00,1.940285220951508682e+00,-1.272206113589051668e-01,-5.695859691941365099e-01
8.766666666666665719e+00,1.643394132015153885e+09,2.896112194521222594e-01,4.815471393854572901e-01,0.000000000000000000e+00,1.926188557541829161e+00,1.940594925838190044e+00,-1.363004918765742257e-01,-5.201370542560733723e-01
