# 
# 
# 
# 
# 
# 
# 
# 
# 
# 
# time,realtime,ref,inp,dis,state...
0.000000000000000000e+00,1.643310586548507690e+09,0.000000000000000000e+00,5.945224249983522835e-01,0.000000000000000000e+00,5.464478353758437379e-01
1.666666666666666644e-02,1.643310586550503492e+09,0.000000000000000000e+00,5.464478353758437379e-01,0.000000000000000000e+00,5.464478353758437379e-01
3.333333333333333287e-02,1.643310586552501678e+09,0.000000000000000000e+00,5.945224249983522835e-01,0.000000000000000000e+00,5.945224249983522835e-01
5.000000000000000278e-02,1.643310586568459034e+09,0.000000000000000000e+00,6.105472882058546880e-01,0.000000000000000000e+00,6.105472882058546880e-01
6.666666666666666574e-02,1.643310586586406946e+09,0.000000000000000000e+00,6.105472882058546880e-01,0.000000000000000000e+00,6.105472882058546880e-01
8.333333333333332871e-02,1.643310586603361130e+09,0.000000000000000000e+00,6.105472882058546880e-01,0.000000000000000000e+00,6.105472882058546880e-01
1.000000000000000056e-01,1.643310586619318485e+09,0.000000000000000000e+00,6.105472882058546880e-01,0.000000000000000000e+00,6.105472882058546880e-01
1.166666666666666685e-01,1.643310586637270212e+09,0.000000000000000000e+00,6.105472882058546880e-01,0.000000000000000000e+00,6.105472882058546880e-01
1.333333333333333315e-01,1.643310586654225111e+09,0.000000000000000000e+00,6.105472882058546880e-01,0.000000000000000000e+00,6.105472882058546880e-01
1.499999999999999944e-01,1.643310586670214415e+09,0.000000000000000000e+00,6.105472882058546880e-01,0.000000000000000000e+00,6.105472882058546880e-01
1.666666666666666574e-01,1.643310586687170982e+09,0.000000000000000000e+00,6.105472882058546880e-01,0.000000000000000000e+00,6.105472882058546880e-01
1.833333333333333204e-01,1.643310586704092264e+09,0.000000000000000000e+00,6.105472882058546880e-01,0.000000000000000000e+00,6.105472882058546880e-01
2.000000000000000111e-01,1.643310586722049713e+09,0.000000000000000000e+00,6.105472882058546880e-01,0.000000000000000000e+00,6.105472882058546880e-01
2.166666666666666741e-01,1.643310586738004684e+09,0.000000000000000000e+00,6.586218778283632336e-01,0.000000000000000000e+00,6.586218778283632336e-01
2.333333333333333370e-01,1.643310586754959583e+09,0.000000000000000000e+00,6.746467410358656380e-01,0.000000000000000000e+00,6.746467410358656380e-01
2.500000000000000000e-01,1.643310586772911310e+09,0.000000000000000000e+00,7.066964674508705579e-01,0.000000000000000000e+00,7.066964674508705579e-01
2.666666666666666630e-01,1.643310586789916515e+09,0.000000000000000000e+00,7.066964674508705579e-01,0.000000000000000000e+00,7.066964674508705579e-01
2.833333333333333259e-01,1.643310586806817055e+09,0.000000000000000000e+00,7.227213306583742947e-01,0.000000000000000000e+00,7.227213306583742947e-01
2.999999999999999889e-01,1.643310586824823380e+09,0.000000000000000000e+00,7.066964674508705579e-01,0.000000000000000000e+00,7.066964674508705579e-01
3.166666666666666519e-01,1.643310586839728594e+09,0.000000000000000000e+00,7.066964674508705579e-01,0.000000000000000000e+00,7.066964674508705579e-01
3.333333333333333148e-01,1.643310586857734919e+09,0.000000000000000000e+00,7.066964674508705579e-01,0.000000000000000000e+00,7.066964674508705579e-01
3.499999999999999778e-01,1.643310586875666618e+09,0.000000000000000000e+00,6.906716042433681535e-01,0.000000000000000000e+00,6.906716042433681535e-01
3.666666666666666408e-01,1.643310586891629457e+09,0.000000000000000000e+00,6.425970146208608291e-01,0.000000000000000000e+00,6.425970146208608291e-01
3.833333333333333037e-01,1.643310586909583092e+09,0.000000000000000000e+00,6.105472882058546880e-01,0.000000000000000000e+00,6.105472882058546880e-01
4.000000000000000222e-01,1.643310586925513983e+09,0.000000000000000000e+00,5.624726985833461423e-01,0.000000000000000000e+00,5.624726985833461423e-01
4.166666666666666852e-01,1.643310586943486214e+09,0.000000000000000000e+00,5.304229721683412224e-01,0.000000000000000000e+00,5.304229721683412224e-01
4.333333333333333481e-01,1.643310586959465027e+09,0.000000000000000000e+00,4.983732457533351368e-01,0.000000000000000000e+00,4.983732457533351368e-01
4.500000000000000111e-01,1.643310586976394653e+09,0.000000000000000000e+00,4.502986561308278124e-01,0.000000000000000000e+00,4.502986561308278124e-01
4.666666666666666741e-01,1.643310586993349791e+09,0.000000000000000000e+00,4.182489297158217267e-01,0.000000000000000000e+00,4.182489297158217267e-01
4.833333333333333370e-01,1.643310587010303736e+09,0.000000000000000000e+00,3.861992033008168068e-01,0.000000000000000000e+00,3.861992033008168068e-01
5.000000000000000000e-01,1.643310587030222893e+09,0.000000000000000000e+00,3.541494768858107212e-01,0.000000000000000000e+00,3.541494768858107212e-01
5.166666666666666075e-01,1.643310587046177149e+09,0.000000000000000000e+00,3.381246136783082612e-01,0.000000000000000000e+00,3.381246136783082612e-01
5.333333333333333259e-01,1.643310587063130379e+09,0.000000000000000000e+00,3.220997504708058012e-01,0.000000000000000000e+00,3.220997504708058012e-01
5.500000000000000444e-01,1.643310587080086470e+09,0.000000000000000000e+00,3.060748872633021755e-01,0.000000000000000000e+00,3.060748872633021755e-01
5.666666666666666519e-01,1.643310587097039461e+09,0.000000000000000000e+00,2.900500240557997156e-01,0.000000000000000000e+00,2.900500240557997156e-01
5.833333333333333703e-01,1.643310587113031626e+09,0.000000000000000000e+00,2.900500240557997156e-01,0.000000000000000000e+00,2.900500240557997156e-01
5.999999999999999778e-01,1.643310587130985737e+09,0.000000000000000000e+00,2.900500240557997156e-01,0.000000000000000000e+00,2.900500240557997156e-01
6.166666666666666963e-01,1.643310587146907091e+09,0.000000000000000000e+00,2.740251608482972556e-01,0.000000000000000000e+00,2.740251608482972556e-01
6.333333333333333037e-01,1.643310587162898064e+09,0.000000000000000000e+00,2.419754344332911700e-01,0.000000000000000000e+00,2.419754344332911700e-01
6.500000000000000222e-01,1.643310587181847811e+09,0.000000000000000000e+00,2.419754344332911700e-01,0.000000000000000000e+00,2.419754344332911700e-01
6.666666666666666297e-01,1.643310587198801517e+09,0.000000000000000000e+00,1.939008448107838178e-01,0.000000000000000000e+00,1.939008448107838178e-01
6.833333333333333481e-01,1.643310587215778112e+09,0.000000000000000000e+00,1.618511183957777322e-01,0.000000000000000000e+00,1.618511183957777322e-01
6.999999999999999556e-01,1.643310587233708620e+09,0.000000000000000000e+00,1.298013919807728400e-01,0.000000000000000000e+00,1.298013919807728400e-01
7.166666666666666741e-01,1.643310587249665499e+09,0.000000000000000000e+00,1.298013919807728400e-01,0.000000000000000000e+00,1.298013919807728400e-01
7.333333333333332815e-01,1.643310587265589714e+09,0.000000000000000000e+00,9.775166556576674048e-02,0.000000000000000000e+00,9.775166556576674048e-02
7.500000000000000000e-01,1.643310587282577753e+09,0.000000000000000000e+00,1.137765287732703939e-01,0.000000000000000000e+00,1.137765287732703939e-01
7.666666666666666075e-01,1.643310587300529003e+09,0.000000000000000000e+00,9.775166556576674048e-02,0.000000000000000000e+00,9.775166556576674048e-02
7.833333333333333259e-01,1.643310587317484617e+09,0.000000000000000000e+00,9.775166556576674048e-02,0.000000000000000000e+00,9.775166556576674048e-02
8.000000000000000444e-01,1.643310587335402489e+09,0.000000000000000000e+00,9.775166556576674048e-02,0.000000000000000000e+00,9.775166556576674048e-02
8.166666666666666519e-01,1.643310587351395607e+09,0.000000000000000000e+00,1.137765287732703939e-01,0.000000000000000000e+00,1.137765287732703939e-01
8.333333333333333703e-01,1.643310587370344162e+09,0.000000000000000000e+00,9.775166556576674048e-02,0.000000000000000000e+00,9.775166556576674048e-02
8.499999999999999778e-01,1.643310587386300087e+09,0.000000000000000000e+00,9.775166556576674048e-02,0.000000000000000000e+00,9.775166556576674048e-02
8.666666666666666963e-01,1.643310587404273748e+09,0.000000000000000000e+00,1.137765287732703939e-01,0.000000000000000000e+00,1.137765287732703939e-01
8.833333333333333037e-01,1.643310587420231581e+09,0.000000000000000000e+00,9.775166556576674048e-02,0.000000000000000000e+00,9.775166556576674048e-02
9.000000000000000222e-01,1.643310587437164545e+09,0.000000000000000000e+00,9.775166556576674048e-02,0.000000000000000000e+00,9.775166556576674048e-02
9.166666666666666297e-01,1.643310587454085112e+09,0.000000000000000000e+00,6.570193915076183444e-02,0.000000000000000000e+00,6.570193915076183444e-02
9.333333333333333481e-01,1.643310587472037315e+09,0.000000000000000000e+00,4.967707594325939530e-02,0.000000000000000000e+00,4.967707594325939530e-02
9.499999999999999556e-01,1.643310587489047050e+09,0.000000000000000000e+00,4.967707594325939530e-02,0.000000000000000000e+00,4.967707594325939530e-02
9.666666666666666741e-01,1.643310587504980564e+09,0.000000000000000000e+00,3.365221273575574185e-02,0.000000000000000000e+00,3.365221273575574185e-02
9.833333333333332815e-01,1.643310587521938086e+09,0.000000000000000000e+00,3.365221273575574185e-02,0.000000000000000000e+00,3.365221273575574185e-02
1.000000000000000000e+00,1.643310587541876316e+09,0.000000000000000000e+00,3.365221273575574185e-02,0.000000000000000000e+00,3.365221273575574185e-02
1.016666666666666607e+00,1.643310587557808399e+09,0.000000000000000000e+00,3.365221273575574185e-02,0.000000000000000000e+00,3.365221273575574185e-02
1.033333333333333215e+00,1.643310587573769331e+09,0.000000000000000000e+00,4.967707594325939530e-02,0.000000000000000000e+00,4.967707594325939530e-02
1.050000000000000044e+00,1.643310587592738390e+09,0.000000000000000000e+00,4.967707594325939530e-02,0.000000000000000000e+00,4.967707594325939530e-02
1.066666666666666652e+00,1.643310587606704950e+09,0.000000000000000000e+00,4.967707594325939530e-02,0.000000000000000000e+00,4.967707594325939530e-02
1.083333333333333259e+00,1.643310587625660658e+09,0.000000000000000000e+00,4.967707594325939530e-02,0.000000000000000000e+00,4.967707594325939530e-02
1.100000000000000089e+00,1.643310587641610384e+09,0.000000000000000000e+00,4.967707594325939530e-02,0.000000000000000000e+00,4.967707594325939530e-02
1.116666666666666696e+00,1.643310587658569574e+09,0.000000000000000000e+00,3.365221273575574185e-02,0.000000000000000000e+00,3.365221273575574185e-02
1.133333333333333304e+00,1.643310587675519228e+09,0.000000000000000000e+00,4.967707594325939530e-02,0.000000000000000000e+00,4.967707594325939530e-02
1.149999999999999911e+00,1.643310587691494942e+09,0.000000000000000000e+00,4.967707594325939530e-02,0.000000000000000000e+00,4.967707594325939530e-02
1.166666666666666741e+00,1.643310587709429741e+09,0.000000000000000000e+00,3.365221273575574185e-02,0.000000000000000000e+00,3.365221273575574185e-02
1.183333333333333348e+00,1.643310587724362373e+09,0.000000000000000000e+00,4.967707594325939530e-02,0.000000000000000000e+00,4.967707594325939530e-02
1.199999999999999956e+00,1.643310587741365910e+09,0.000000000000000000e+00,4.967707594325939530e-02,0.000000000000000000e+00,4.967707594325939530e-02
1.216666666666666563e+00,1.643310587760296345e+09,0.000000000000000000e+00,4.967707594325939530e-02,0.000000000000000000e+00,4.967707594325939530e-02
1.233333333333333393e+00,1.643310587776269674e+09,0.000000000000000000e+00,3.365221273575574185e-02,0.000000000000000000e+00,3.365221273575574185e-02
1.250000000000000000e+00,1.643310587793204069e+09,0.000000000000000000e+00,4.967707594325939530e-02,0.000000000000000000e+00,4.967707594325939530e-02
1.266666666666666607e+00,1.643310587811155558e+09,0.000000000000000000e+00,4.967707594325939530e-02,0.000000000000000000e+00,4.967707594325939530e-02
1.283333333333333215e+00,1.643310587828110933e+09,0.000000000000000000e+00,4.967707594325939530e-02,0.000000000000000000e+00,4.967707594325939530e-02
1.300000000000000044e+00,1.643310587843090773e+09,0.000000000000000000e+00,4.967707594325939530e-02,0.000000000000000000e+00,4.967707594325939530e-02
1.316666666666666652e+00,1.643310587861996412e+09,0.000000000000000000e+00,4.967707594325939530e-02,0.000000000000000000e+00,4.967707594325939530e-02
1.333333333333333259e+00,1.643310587879949808e+09,0.000000000000000000e+00,3.365221273575574185e-02,0.000000000000000000e+00,3.365221273575574185e-02
1.350000000000000089e+00,1.643310587896903753e+09,0.000000000000000000e+00,1.762734952825329576e-02,0.000000000000000000e+00,1.762734952825329576e-02
1.366666666666666696e+00,1.643310587912862062e+09,0.000000000000000000e+00,1.602486320750845994e-03,0.000000000000000000e+00,1.602486320750845994e-03
1.383333333333333304e+00,1.643310587929811716e+09,0.000000000000000000e+00,-1.442237688675220356e-02,0.000000000000000000e+00,-1.442237688675220356e-02
1.399999999999999911e+00,1.643310587947764397e+09,0.000000000000000000e+00,-1.442237688675220356e-02,0.000000000000000000e+00,-1.442237688675220356e-02
1.416666666666666741e+00,1.643310587964717865e+09,0.000000000000000000e+00,-1.442237688675220356e-02,0.000000000000000000e+00,-1.442237688675220356e-02
1.433333333333333348e+00,1.643310587979679585e+09,0.000000000000000000e+00,-3.044724009425465311e-02,0.000000000000000000e+00,-3.044724009425465311e-02
1.449999999999999956e+00,1.643310587998629808e+09,0.000000000000000000e+00,-3.044724009425465311e-02,0.000000000000000000e+00,-3.044724009425465311e-02
1.466666666666666563e+00,1.643310588013623953e+09,0.000000000000000000e+00,-3.044724009425465311e-02,0.000000000000000000e+00,-3.044724009425465311e-02
