# 
# 
# 
# 
# 
# 
# 
# 
# 
# 
# time,realtime,ref,inp,dis,state...
0.000000000000000000e+00,1.644346372295028687e+09,0.000000000000000000e+00,-5.913174523568505148e-01,0.000000000000000000e+00,-5.913174523568505148e-01
1.666666666666666644e-02,1.644346372297050953e+09,0.000000000000000000e+00,-5.913174523568505148e-01,0.000000000000000000e+00,-5.913174523568505148e-01
3.333333333333333287e-02,1.644346372298047781e+09,0.000000000000000000e+00,-5.913174523568505148e-01,0.000000000000000000e+00,-5.913174523568505148e-01
5.000000000000000278e-02,1.644346372314007044e+09,0.000000000000000000e+00,-5.752925891493481103e-01,0.000000000000000000e+00,-5.752925891493481103e-01
6.666666666666666574e-02,1.644346372332975626e+09,0.000000000000000000e+00,-5.752925891493481103e-01,0.000000000000000000e+00,-5.752925891493481103e-01
8.333333333333332871e-02,1.644346372348933935e+09,0.000000000000000000e+00,-5.752925891493481103e-01,0.000000000000000000e+00,-5.752925891493481103e-01
1.000000000000000056e-01,1.644346372366849661e+09,0.000000000000000000e+00,-5.913174523568505148e-01,0.000000000000000000e+00,-5.913174523568505148e-01
1.166666666666666685e-01,1.644346372383835077e+09,0.000000000000000000e+00,-5.913174523568505148e-01,0.000000000000000000e+00,-5.913174523568505148e-01
1.333333333333333315e-01,1.644346372401777267e+09,0.000000000000000000e+00,-5.752925891493481103e-01,0.000000000000000000e+00,-5.752925891493481103e-01
1.499999999999999944e-01,1.644346372417771816e+09,0.000000000000000000e+00,-5.752925891493481103e-01,0.000000000000000000e+00,-5.752925891493481103e-01
1.666666666666666574e-01,1.644346372434724569e+09,0.000000000000000000e+00,-5.913174523568505148e-01,0.000000000000000000e+00,-5.913174523568505148e-01
1.833333333333333204e-01,1.644346372452646017e+09,0.000000000000000000e+00,-5.752925891493481103e-01,0.000000000000000000e+00,-5.752925891493481103e-01
2.000000000000000111e-01,1.644346372469567537e+09,0.000000000000000000e+00,-5.913174523568505148e-01,0.000000000000000000e+00,-5.913174523568505148e-01
2.166666666666666741e-01,1.644346372486524105e+09,0.000000000000000000e+00,-5.752925891493481103e-01,0.000000000000000000e+00,-5.752925891493481103e-01
2.333333333333333370e-01,1.644346372503523588e+09,0.000000000000000000e+00,-5.913174523568505148e-01,0.000000000000000000e+00,-5.913174523568505148e-01
2.500000000000000000e-01,1.644346372520461559e+09,0.000000000000000000e+00,-5.752925891493481103e-01,0.000000000000000000e+00,-5.752925891493481103e-01
2.666666666666666630e-01,1.644346372538410425e+09,0.000000000000000000e+00,-5.913174523568505148e-01,0.000000000000000000e+00,-5.913174523568505148e-01
2.833333333333333259e-01,1.644346372555340528e+09,0.000000000000000000e+00,-5.913174523568505148e-01,0.000000000000000000e+00,-5.913174523568505148e-01
2.999999999999999889e-01,1.644346372572293997e+09,0.000000000000000000e+00,-5.752925891493481103e-01,0.000000000000000000e+00,-5.752925891493481103e-01
3.166666666666666519e-01,1.644346372588274717e+09,0.000000000000000000e+00,-5.913174523568505148e-01,0.000000000000000000e+00,-5.913174523568505148e-01
3.333333333333333148e-01,1.644346372606234312e+09,0.000000000000000000e+00,-5.913174523568505148e-01,0.000000000000000000e+00,-5.913174523568505148e-01
3.499999999999999778e-01,1.644346372622163773e+09,0.000000000000000000e+00,-5.752925891493481103e-01,0.000000000000000000e+00,-5.752925891493481103e-01
3.666666666666666408e-01,1.644346372639120579e+09,0.000000000000000000e+00,-5.752925891493481103e-01,0.000000000000000000e+00,-5.752925891493481103e-01
3.833333333333333037e-01,1.644346372656064510e+09,0.000000000000000000e+00,-5.752925891493481103e-01,0.000000000000000000e+00,-5.752925891493481103e-01
4.000000000000000222e-01,1.644346372673024654e+09,0.000000000000000000e+00,-5.913174523568505148e-01,0.000000000000000000e+00,-5.913174523568505148e-01
4.166666666666666852e-01,1.644346372691005230e+09,0.000000000000000000e+00,-5.752925891493481103e-01,0.000000000000000000e+00,-5.752925891493481103e-01
4.333333333333333481e-01,1.644346372707975864e+09,0.000000000000000000e+00,-5.913174523568505148e-01,0.000000000000000000e+00,-5.913174523568505148e-01
4.500000000000000111e-01,1.644346372723883152e+09,0.000000000000000000e+00,-5.752925891493481103e-01,0.000000000000000000e+00,-5.752925891493481103e-01
4.666666666666666741e-01,1.644346372740881681e+09,0.000000000000000000e+00,-5.752925891493481103e-01,0.000000000000000000e+00,-5.752925891493481103e-01
4.833333333333333370e-01,1.644346372760816574e+09,0.000000000000000000e+00,-5.913174523568505148e-01,0.000000000000000000e+00,-5.913174523568505148e-01
5.000000000000000000e-01,1.644346372775794744e+09,0.000000000000000000e+00,-5.752925891493481103e-01,0.000000000000000000e+00,-5.752925891493481103e-01
5.166666666666666075e-01,1.644346372794735670e+09,0.000000000000000000e+00,-5.752925891493481103e-01,0.000000000000000000e+00,-5.752925891493481103e-01
5.333333333333333259e-01,1.644346372809699535e+09,0.000000000000000000e+00,-5.592677259418450397e-01,0.000000000000000000e+00,-5.592677259418450397e-01
5.500000000000000444e-01,1.644346372827641487e+09,0.000000000000000000e+00,-5.432428627343426353e-01,0.000000000000000000e+00,-5.432428627343426353e-01
5.666666666666666519e-01,1.644346372844592094e+09,0.000000000000000000e+00,-5.272179995268395647e-01,0.000000000000000000e+00,-5.272179995268395647e-01
5.833333333333333703e-01,1.644346372861563921e+09,0.000000000000000000e+00,-4.951682731118340897e-01,0.000000000000000000e+00,-4.951682731118340897e-01
5.999999999999999778e-01,1.644346372879516125e+09,0.000000000000000000e+00,-4.791434099043316297e-01,0.000000000000000000e+00,-4.791434099043316297e-01
6.166666666666666963e-01,1.644346372896465302e+09,0.000000000000000000e+00,-4.951682731118340897e-01,0.000000000000000000e+00,-4.951682731118340897e-01
6.333333333333333037e-01,1.644346372912415028e+09,0.000000000000000000e+00,-4.951682731118340897e-01,0.000000000000000000e+00,-4.951682731118340897e-01
6.500000000000000222e-01,1.644346372929380655e+09,0.000000000000000000e+00,-4.951682731118340897e-01,0.000000000000000000e+00,-4.951682731118340897e-01
6.666666666666666297e-01,1.644346372948284388e+09,0.000000000000000000e+00,-4.791434099043316297e-01,0.000000000000000000e+00,-4.791434099043316297e-01
6.833333333333333481e-01,1.644346372964240313e+09,0.000000000000000000e+00,-4.791434099043316297e-01,0.000000000000000000e+00,-4.791434099043316297e-01
6.999999999999999556e-01,1.644346372981194019e+09,0.000000000000000000e+00,-4.791434099043316297e-01,0.000000000000000000e+00,-4.791434099043316297e-01
7.166666666666666741e-01,1.644346372998184204e+09,0.000000000000000000e+00,-4.791434099043316297e-01,0.000000000000000000e+00,-4.791434099043316297e-01
7.333333333333332815e-01,1.644346373014117241e+09,0.000000000000000000e+00,-4.791434099043316297e-01,0.000000000000000000e+00,-4.791434099043316297e-01
7.500000000000000000e-01,1.644346373031061888e+09,0.000000000000000000e+00,-4.631185466968285591e-01,0.000000000000000000e+00,-4.631185466968285591e-01
7.666666666666666075e-01,1.644346373048046827e+09,0.000000000000000000e+00,-4.631185466968285591e-01,0.000000000000000000e+00,-4.631185466968285591e-01
7.833333333333333259e-01,1.644346373065002918e+09,0.000000000000000000e+00,-4.470936834893260992e-01,0.000000000000000000e+00,-4.470936834893260992e-01
8.000000000000000444e-01,1.644346373081970453e+09,0.000000000000000000e+00,-4.310688202818230841e-01,0.000000000000000000e+00,-4.310688202818230841e-01
8.166666666666666519e-01,1.644346373099922419e+09,0.000000000000000000e+00,-4.150439570743206241e-01,0.000000000000000000e+00,-4.150439570743206241e-01
8.333333333333333703e-01,1.644346373115859032e+09,0.000000000000000000e+00,-4.150439570743206241e-01,0.000000000000000000e+00,-4.150439570743206241e-01
8.499999999999999778e-01,1.644346373132789135e+09,0.000000000000000000e+00,-3.669693674518120785e-01,0.000000000000000000e+00,-3.669693674518120785e-01
8.666666666666666963e-01,1.644346373150794744e+09,0.000000000000000000e+00,-3.509445042443096185e-01,0.000000000000000000e+00,-3.509445042443096185e-01
8.833333333333333037e-01,1.644346373166733265e+09,0.000000000000000000e+00,-3.188947778293041435e-01,0.000000000000000000e+00,-3.188947778293041435e-01
9.000000000000000222e-01,1.644346373185719013e+09,0.000000000000000000e+00,-3.028699146218016836e-01,0.000000000000000000e+00,-3.028699146218016836e-01
9.166666666666666297e-01,1.644346373201639652e+09,0.000000000000000000e+00,-2.868450514142986130e-01,0.000000000000000000e+00,-2.868450514142986130e-01
9.333333333333333481e-01,1.644346373218586683e+09,0.000000000000000000e+00,-2.868450514142986130e-01,0.000000000000000000e+00,-2.868450514142986130e-01
9.499999999999999556e-01,1.644346373236520767e+09,0.000000000000000000e+00,-2.868450514142986130e-01,0.000000000000000000e+00,-2.868450514142986130e-01
9.666666666666666741e-01,1.644346373252470732e+09,0.000000000000000000e+00,-2.868450514142986130e-01,0.000000000000000000e+00,-2.868450514142986130e-01
9.833333333333332815e-01,1.644346373268462420e+09,0.000000000000000000e+00,-2.868450514142986130e-01,0.000000000000000000e+00,-2.868450514142986130e-01
1.000000000000000000e+00,1.644346373290394306e+09,0.000000000000000000e+00,-2.868450514142986130e-01,0.000000000000000000e+00,-2.868450514142986130e-01
1.016666666666666607e+00,1.644346373303333998e+09,0.000000000000000000e+00,-2.868450514142986130e-01,0.000000000000000000e+00,-2.868450514142986130e-01
1.033333333333333215e+00,1.644346373321285009e+09,0.000000000000000000e+00,-2.868450514142986130e-01,0.000000000000000000e+00,-2.868450514142986130e-01
1.050000000000000044e+00,1.644346373338268757e+09,0.000000000000000000e+00,-2.868450514142986130e-01,0.000000000000000000e+00,-2.868450514142986130e-01
1.066666666666666652e+00,1.644346373355223179e+09,0.000000000000000000e+00,-2.868450514142986130e-01,0.000000000000000000e+00,-2.868450514142986130e-01
1.083333333333333259e+00,1.644346373372207403e+09,0.000000000000000000e+00,-2.868450514142986130e-01,0.000000000000000000e+00,-2.868450514142986130e-01
1.100000000000000089e+00,1.644346373390117884e+09,0.000000000000000000e+00,-2.708201882067962085e-01,0.000000000000000000e+00,-2.708201882067962085e-01
1.116666666666666696e+00,1.644346373407090425e+09,0.000000000000000000e+00,-2.708201882067962085e-01,0.000000000000000000e+00,-2.708201882067962085e-01
1.133333333333333304e+00,1.644346373424023390e+09,0.000000000000000000e+00,-2.547953249992931379e-01,0.000000000000000000e+00,-2.547953249992931379e-01
1.149999999999999911e+00,1.644346373440965414e+09,0.000000000000000000e+00,-2.547953249992931379e-01,0.000000000000000000e+00,-2.547953249992931379e-01
1.166666666666666741e+00,1.644346373457945347e+09,0.000000000000000000e+00,-2.547953249992931379e-01,0.000000000000000000e+00,-2.547953249992931379e-01
1.183333333333333348e+00,1.644346373473920584e+09,0.000000000000000000e+00,-2.547953249992931379e-01,0.000000000000000000e+00,-2.547953249992931379e-01
1.199999999999999956e+00,1.644346373491874218e+09,0.000000000000000000e+00,-2.387704617917906780e-01,0.000000000000000000e+00,-2.387704617917906780e-01
1.216666666666666563e+00,1.644346373509787083e+09,0.000000000000000000e+00,-2.067207353767851752e-01,0.000000000000000000e+00,-2.067207353767851752e-01
1.233333333333333393e+00,1.644346373526802540e+09,0.000000000000000000e+00,-1.906958721692821324e-01,0.000000000000000000e+00,-1.906958721692821324e-01
1.250000000000000000e+00,1.644346373543741703e+09,0.000000000000000000e+00,-1.586461457542766296e-01,0.000000000000000000e+00,-1.586461457542766296e-01
1.266666666666666607e+00,1.644346373560695171e+09,0.000000000000000000e+00,-1.265964193392711545e-01,0.000000000000000000e+00,-1.265964193392711545e-01
1.283333333333333215e+00,1.644346373576652288e+09,0.000000000000000000e+00,-1.265964193392711545e-01,0.000000000000000000e+00,-1.265964193392711545e-01
1.300000000000000044e+00,1.644346373593603373e+09,0.000000000000000000e+00,-1.105715561317686946e-01,0.000000000000000000e+00,-1.105715561317686946e-01
1.316666666666666652e+00,1.644346373610547543e+09,0.000000000000000000e+00,-9.454669292426565175e-02,0.000000000000000000e+00,-9.454669292426565175e-02
1.333333333333333259e+00,1.644346373627497911e+09,0.000000000000000000e+00,-9.454669292426565175e-02,0.000000000000000000e+00,-9.454669292426565175e-02
1.350000000000000089e+00,1.644346373644493580e+09,0.000000000000000000e+00,-9.454669292426565175e-02,0.000000000000000000e+00,-9.454669292426565175e-02
1.366666666666666696e+00,1.644346373661395311e+09,0.000000000000000000e+00,-9.454669292426565175e-02,0.000000000000000000e+00,-9.454669292426565175e-02
1.383333333333333304e+00,1.644346373678399324e+09,0.000000000000000000e+00,-9.454669292426565175e-02,0.000000000000000000e+00,-9.454669292426565175e-02
1.399999999999999911e+00,1.644346373695334673e+09,0.000000000000000000e+00,-9.454669292426565175e-02,0.000000000000000000e+00,-9.454669292426565175e-02
1.416666666666666741e+00,1.644346373715260267e+09,0.000000000000000000e+00,-9.454669292426565175e-02,0.000000000000000000e+00,-9.454669292426565175e-02
1.433333333333333348e+00,1.644346373729247808e+09,0.000000000000000000e+00,-7.852182971676319179e-02,0.000000000000000000e+00,-7.852182971676319179e-02
1.449999999999999956e+00,1.644346373747176409e+09,0.000000000000000000e+00,-9.454669292426565175e-02,0.000000000000000000e+00,-9.454669292426565175e-02
1.466666666666666563e+00,1.644346373763141870e+09,0.000000000000000000e+00,-7.852182971676319179e-02,0.000000000000000000e+00,-7.852182971676319179e-02
1.483333333333333393e+00,1.644346373782080889e+09,0.000000000000000000e+00,-7.852182971676319179e-02,0.000000000000000000e+00,-7.852182971676319179e-02
1.500000000000000000e+00,1.644346373797083139e+09,0.000000000000000000e+00,-7.852182971676319179e-02,0.000000000000000000e+00,-7.852182971676319179e-02
1.516666666666666607e+00,1.644346373812975883e+09,0.000000000000000000e+00,-7.852182971676319179e-02,0.000000000000000000e+00,-7.852182971676319179e-02
1.533333333333333215e+00,1.644346373830962181e+09,0.000000000000000000e+00,-6.249696650926014896e-02,0.000000000000000000e+00,-6.249696650926014896e-02
1.550000000000000044e+00,1.644346373847944975e+09,0.000000000000000000e+00,-6.249696650926014896e-02,0.000000000000000000e+00,-6.249696650926014896e-02
1.566666666666666652e+00,1.644346373864874840e+09,0.000000000000000000e+00,-6.249696650926014896e-02,0.000000000000000000e+00,-6.249696650926014896e-02
1.583333333333333259e+00,1.644346373881854773e+09,0.000000000000000000e+00,-6.249696650926014896e-02,0.000000000000000000e+00,-6.249696650926014896e-02
1.600000000000000089e+00,1.644346373899794102e+09,0.000000000000000000e+00,-6.249696650926014896e-02,0.000000000000000000e+00,-6.249696650926014896e-02
1.616666666666666696e+00,1.644346373916751146e+09,0.000000000000000000e+00,-6.249696650926014896e-02,0.000000000000000000e+00,-6.249696650926014896e-02
1.633333333333333304e+00,1.644346373932705641e+09,0.000000000000000000e+00,-6.249696650926014896e-02,0.000000000000000000e+00,-6.249696650926014896e-02
1.649999999999999911e+00,1.644346373950609207e+09,0.000000000000000000e+00,-7.852182971676319179e-02,0.000000000000000000e+00,-7.852182971676319179e-02
1.666666666666666741e+00,1.644346373966595173e+09,0.000000000000000000e+00,-7.852182971676319179e-02,0.000000000000000000e+00,-7.852182971676319179e-02
1.683333333333333348e+00,1.644346373984562874e+09,0.000000000000000000e+00,-6.249696650926014896e-02,0.000000000000000000e+00,-6.249696650926014896e-02
1.699999999999999956e+00,1.644346374000473499e+09,0.000000000000000000e+00,-6.249696650926014896e-02,0.000000000000000000e+00,-6.249696650926014896e-02
1.716666666666666563e+00,1.644346374019453764e+09,0.000000000000000000e+00,-6.249696650926014896e-02,0.000000000000000000e+00,-6.249696650926014896e-02
1.733333333333333393e+00,1.644346374034421682e+09,0.000000000000000000e+00,-7.852182971676319179e-02,0.000000000000000000e+00,-7.852182971676319179e-02
1.750000000000000000e+00,1.644346374050352812e+09,0.000000000000000000e+00,-7.852182971676319179e-02,0.000000000000000000e+00,-7.852182971676319179e-02
1.766666666666666607e+00,1.644346374067325354e+09,0.000000000000000000e+00,-6.249696650926014896e-02,0.000000000000000000e+00,-6.249696650926014896e-02
1.783333333333333215e+00,1.644346374086283445e+09,0.000000000000000000e+00,-6.249696650926014896e-02,0.000000000000000000e+00,-6.249696650926014896e-02
1.800000000000000044e+00,1.644346374103196621e+09,0.000000000000000000e+00,-7.852182971676319179e-02,0.000000000000000000e+00,-7.852182971676319179e-02
1.816666666666666652e+00,1.644346374119188309e+09,0.000000000000000000e+00,-6.249696650926014896e-02,0.000000000000000000e+00,-6.249696650926014896e-02
1.833333333333333259e+00,1.644346374137135267e+09,0.000000000000000000e+00,-6.249696650926014896e-02,0.000000000000000000e+00,-6.249696650926014896e-02
